biceps_emg, triceps_emg, subject_position, position_estimate, brace_position
-2.39902910834644E-05,1.7158179616672E-05,1.23046875,0,0
-2.46584731939947E-05,1.46499323818716E-05,1.23046875,-1.10688412611417E-06,0
-2.53791840805206E-05,1.03887568911887E-05,1.23046875,-3.3206523783425E-06,0
-2.59438529610634E-05,6.13164729657001E-06,1.23046875,-6.641304756685E-06,0
-2.5700215701363E-05,4.06587878387654E-06,1.23046875,-1.10688412642929E-05,0
-2.72277375188423E-05,5.55886117581395E-06,1.23046875,-1.66032618915587E-05,0
-2.60718607023591E-05,8.28372958494583E-06,1.23046875,-2.32445665165169E-05,0
-2.52595764322905E-05,1.31263141156523E-05,1.23046875,-3.09927546186215E-05,0
-2.1216859749984E-05,1.92435691133142E-05,1.23046875,-3.98478246150137E-05,0
-2.06451331905555E-05,2.54202077485388E-05,1.23046875,-4.98097724050213E-05,0
-2.01821912924061E-05,2.57179199252278E-05,1.23046875,-6.08785884642855E-05,0
-2.23179577005794E-05,1.86126162589062E-05,1.23046875,-7.3054252853774E-05,0
-2.24032228288706E-05,7.24500841897679E-06,1.23046875,-8.63367278857818E-05,0
-2.38355041801697E-05,1.66739334872545E-06,1.23046875,-0.000100725948635823,0
-2.42478454310913E-05,4.16503553424263E-06,1.23046875,-0.000116221811701121,0
-2.55837348959176E-05,9.30028363654856E-06,1.23046875,-0.000132824162600423,0
-2.42824153247057E-05,1.30027519844589E-05,1.23046875,-0.000150532782174,0
-2.30005352932494E-05,1.63515906024259E-05,1.23046875,-0.000169347372292172,0
-2.23654442379484E-05,1.92125171452062E-05,1.23046875,-0.000189267540995356,0
-2.165504884033E-05,2.20435977098532E-05,1.23046875,-0.000210292786923548,0
-1.64822122314945E-05,2.09442223422229E-05,1.23046875,-0.000232422482735387,0
-2.36718697124161E-05,3.25839573633857E-05,1.23046875,-0.000255655857184751,0
-1.94980511878384E-05,2.87269303953508E-05,1.23046875,-0.00027999197562489,0
-2.50035118369851E-05,3.49388465110678E-05,1.23046875,-0.000305429719068427,0
-2.18206041608937E-05,2.49582099058898E-05,1.23046875,-0.000331967762349617,0
-2.41601374000311E-05,8.10179153631907E-06,1.23046875,-0.0003596045520118,0
-2.24885116040241E-05,-1.48737972267554E-05,1.23046875,-0.000388338284272718,0
-2.39706623688107E-05,-1.69383656611899E-05,1.23046875,-0.000418166883127058,0
-2.27377040573629E-05,-6.27258032181999E-06,1.23046875,-0.000449087978571038,0
-2.18523255171021E-05,6.42629674985074E-06,1.23046875,-0.000481098884995656,0
-2.16159496631008E-05,1.28115834741038E-05,1.23046875,-0.000514196579746906,0
-2.12122922675917E-05,1.2703408174275E-05,1.23046875,-0.00054837768174005,0
-2.30180576181738E-05,1.24582229545922E-05,1.23046875,-0.0005836384300493,0
-2.34371200349415E-05,1.11408762677456E-05,1.23046875,-0.000619974662562697,0
-2.5002938855323E-05,1.31218121168786E-05,1.23046875,-0.00065738179498388,0
-2.38271240959875E-05,1.23499667097349E-05,1.23046875,-0.000695854800588945,0
-2.48880751314573E-05,1.29217241919832E-05,1.23046875,-0.000735388191115184,0
-2.43570939346682E-05,1.21447292258381E-05,1.23046875,-0.000775975998986234,0
-2.43716676777694E-05,1.54676345118787E-05,1.23046875,-0.00081761176091263,0
-2.24364594032522E-05,1.74366887222277E-05,1.23046875,-0.000860288502827782,0
-2.30194636969827E-05,1.87828645721311E-05,1.23046875,-0.000903998726052512,0
-2.44386192207458E-05,1.6173458789126E-05,1.23046875,-0.000948734394507573,0
-2.72217548626941E-05,1.41267792059807E-05,1.23046875,-0.000994486922869691,0
-2.71351927949581E-05,1.13564601633698E-05,1.23046875,-0.00104124716578154,0
-2.56921666732524E-05,8.63382501847809E-06,1.23046875,-0.00108900540825773,0
-2.50074226642028E-05,6.42623626845307E-06,1.23046875,-0.00113775135727323,0
-2.60149408859434E-05,4.95949643664062E-06,1.23046875,-0.0011874741345122,0
-2.09613699553302E-05,2.08272945201315E-06,1.23046875,-0.00123816227029932,0
-2.94133023999166E-05,2.20685410567967E-06,1.23046875,-0.00128980369861177,0
-2.15006475627888E-05,1.67325561051257E-06,1.23046875,-0.00134238575301238,0
-2.64012778643519E-05,3.14543262902589E-06,1.23046875,-0.00139589516349718,0
-2.16345597436884E-05,1.8028133581538E-06,1.23046875,-0.00145031805431317,0
-2.52662484854227E-05,-7.52434175410599E-07,1.23046875,-0.00150563994263897,0
-2.48734977503773E-05,-2.29979468713282E-06,1.23046875,-0.00156184573793668,0
-2.73012301477138E-05,2.00785461856867E-06,1.23046875,-0.0016189197419533,0
-2.57787196460413E-05,1.14030399345211E-05,1.23046875,-0.00167684564952744,0
-2.49394634010969E-05,2.10582384170266E-05,1.23046875,-0.00173560655034045,0
-2.49717104452429E-05,2.50622688326985E-05,1.23046875,-0.00179518493168733,0
-2.33264181588311E-05,2.22968646994559E-05,1.23046875,-0.00185556268231971,0
-2.35951883951202E-05,1.74058113771025E-05,1.23046875,-0.00191672109731161,0
-2.32181737374049E-05,1.20669556054054E-05,1.23046875,-0.00197864088374831,0
-2.55920585914282E-05,6.02626505497028E-06,1.23046875,-0.0020413021670046,0
-2.42359492403921E-05,6.61020521874889E-07,1.23046875,-0.00210468449751361,0
-2.39281289395876E-05,4.32208594247641E-07,1.23046875,-0.00216876685812124,0
-2.16505795833655E-05,4.55747658634209E-06,1.23046875,-0.00223352767214632,0
-2.23470942728454E-05,8.57296981848776E-06,1.23046875,-0.00229894481204831,0
-2.2105457901489E-05,8.6421923697344E-06,1.23046875,-0.0023649956083861,0
-2.30813402595231E-05,6.78195647196844E-06,1.23046875,-0.00243165685879796,0
-2.19651228690054E-05,5.22779055245337E-06,1.23046875,-0.00249890483697662,0
-2.19785997614963E-05,5.18752449352178E-06,1.23046875,-0.00256671530177029,0
-2.21210084418999E-05,7.32140097170486E-06,1.23046875,-0.00263506350650337,0
-2.3776565285516E-05,1.00940651464043E-05,1.23046875,-0.00270392420853124,0
-2.39986475207843E-05,1.0921567081823E-05,1.23046875,-0.00277327167909492,0
-2.27676755457651E-05,1.00028937595198E-05,1.23046875,-0.00284307971366462,0
-1.79903963726247E-05,7.61261571824434E-06,1.23046875,-0.00291332164292395,0
-2.67096911557019E-05,1.12433790491195E-05,1.23046875,-0.00298397034429356,0
-2.14559076994192E-05,8.81990399648203E-06,1.23046875,-0.00305499825374492,0
-2.57006831816398E-05,9.77007402980234E-06,1.23046875,-0.00312637737781934,0
-2.26500305871014E-05,7.78345111029921E-06,1.23046875,-0.00319807930594547,0
-2.54548922384856E-05,9.56823350861669E-06,1.23046875,-0.00327007522311031,0
-2.24314753722865E-05,8.69658197188983E-06,1.23046875,-0.00334233592286765,0
-2.19668254430871E-05,8.04241153673502E-06,1.23046875,-0.00341483182068129,0
-2.20652254938614E-05,6.19738784735091E-06,1.23046875,-0.00348753296762384,0
-2.43058639171068E-05,4.85656073578866E-06,1.23046875,-0.00356040906442661,0
-2.55720042332541E-05,4.58404474557028E-06,1.23046875,-0.00363342947583446,0
-2.37938711507013E-05,6.15202498011058E-06,1.23046875,-0.0037065632451687,0
-2.25249987124698E-05,9.49501372815575E-06,1.23046875,-0.00377977910894919,0
-2.073865289276E-05,1.189227168652E-05,1.23046875,-0.00385304551150431,0
-2.13824841921451E-05,1.3193292033975E-05,1.23046875,-0.00392633061961179,0
-2.052853051282E-05,1.19146243378054E-05,1.23046875,-0.0039996023371563,0
-2.2197167709237E-05,1.15969951366424E-05,1.23046875,-0.00407282831971572,0
-2.2334552340908E-05,1.21496213978389E-05,1.23046875,-0.00414597598907765,0
-2.35612405958818E-05,1.4228713553166E-05,1.23046875,-0.0042190125478141,0
-2.30973801080836E-05,1.34133097162703E-05,1.23046875,-0.00429190499403314,0
-2.49216736847302E-05,1.18444086183445E-05,1.23046875,-0.00436462013629398,0
-2.61782297457103E-05,1.03192314782063E-05,1.23046875,-0.00443712460853595,0
-2.81159354926785E-05,9.43803297559498E-06,1.23046875,-0.0045093848847648,0
-2.79869855148718E-05,8.67726521391887E-06,1.23046875,-0.0045813672931422,0
-2.68560215772595E-05,9.75321836449439E-06,1.23046875,-0.00465303802913152,0
-2.47083062276943E-05,1.16204528239905E-05,1.23046875,-0.00472436316756949,0
-2.22262915485771E-05,1.42198960020323E-05,1.23046875,-0.00479530867389992,0
-1.75759923877195E-05,1.51040931086754E-05,1.23046875,-0.00486584041503149,0
-2.60019387496868E-05,2.14841948036337E-05,1.23046875,-0.00493592417007254,0
-2.10729449463543E-05,1.39667117764475E-05,1.23046875,-0.00500552564086935,0
-2.6107487428817E-05,1.59408245963277E-05,1.23046875,-0.00507461046237002,0
-2.27241944230627E-05,1.38445975608192E-05,1.23046875,-0.00514314421307008,0
-2.44954189838609E-05,1.7942036720342E-05,1.23046875,-0.00521109242571626,0
-2.2990887373453E-05,1.8248385458719E-05,1.23046875,-0.00527842059829341,0
-2.4541855964344E-05,1.87857240234734E-05,1.23046875,-0.00534509420532109,0
-2.36358500842471E-05,1.72468535311054E-05,1.23046875,-0.00541107870949397,0
-2.28522094403161E-05,1.6106332623167E-05,1.23046875,-0.00547633957364533,0
-2.23671231651679E-05,1.58184320753207E-05,1.23046875,-0.0055408422729682,0
-2.19482426473405E-05,1.43190145536209E-05,1.23046875,-0.00560455230738623,0
-2.38074717344716E-05,1.41906575663597E-05,1.23046875,-0.00566743521392548,0
-2.30168243433582E-05,1.33288076540339E-05,1.23046875,-0.00572945657900067,0
-2.29527704505017E-05,1.35771697387099E-05,1.23046875,-0.00579058205067579,0
-2.10901798709529E-05,1.19998476293404E-05,1.23046875,-0.00585077735100195,0
-2.20846941374475E-05,1.23856580103165E-05,1.23046875,-0.0059100082884056,0
-2.23801362153608E-05,1.20591457744013E-05,1.23046875,-0.00596824076996918,0
-2.43881131609669E-05,1.27142329802155E-05,1.23046875,-0.00602544081349403,0
-2.40557674260344E-05,1.11859990283847E-05,1.23046875,-0.00608157455938551,0
-2.48573087446857E-05,1.06495372165227E-05,1.23046875,-0.0061366082824113,0
-2.54215829045279E-05,1.01303212431958E-05,1.23046875,-0.00619050840325997,0
-2.60726901615271E-05,1.20504937513033E-05,1.23046875,-0.00624324149976654,0
-2.47868647420546E-05,1.4692568583996E-05,1.23046875,-0.00629477431769711,0
-2.34551043831743E-05,1.71843785210513E-05,1.23046875,-0.00634507378104137,0
-2.2294543668977E-05,1.82148887688527E-05,1.23046875,-0.00639410700187852,0
-2.17116612475365E-05,1.66981899383245E-05,1.23046875,-0.0064418412899574,0
-1.73015559994383E-05,1.13031783257611E-05,1.23046875,-0.00648824416201271,0
-2.58820145973004E-05,1.47445844049798E-05,1.23046875,-0.00653328335063606,0
-2.24194391194033E-05,9.57504744292237E-06,1.23046875,-0.00657692681253832,0
-2.8175905754324E-05,1.1877928955073E-05,1.23046875,-0.00661914273628662,0
-2.36095820582705E-05,9.22906201594742E-06,1.23046875,-0.00665989954967048,0
-2.40229746850673E-05,1.23415984489839E-05,1.23046875,-0.00669916592668749,0
-2.1888894480071E-05,1.3066312931187E-05,1.23046875,-0.00673691079413777,0
-2.38883949350566E-05,1.45320100273238E-05,1.23046875,-0.00677310333796614,0
-2.46861345658544E-05,1.24768575915368E-05,1.23046875,-0.00680771300949488,0
-2.47701518674148E-05,1.0018891771324E-05,1.23046875,-0.00684070953159721,0
-2.40532517636893E-05,8.4807525126962E-06,1.23046875,-0.00687206290479315,0
-2.30467667279299E-05,8.4790590335615E-06,1.23046875,-0.00690174341323216,0
-2.39113869611174E-05,1.20698559840093E-05,1.23046875,-0.00692972163059083,0
-2.40053377638105E-05,1.68666356330505E-05,1.23046875,-0.00695596842596284,0
-2.55139675573446E-05,2.44107977778185E-05,1.23046875,-0.00698045496977065,0
-2.46659346885281E-05,3.13495147565845E-05,1.23046875,-0.0070031527396581,0
-2.5288683900726E-05,3.87039217457641E-05,1.23046875,-0.00702403352628994,0
-2.39084838540293E-05,4.15403374063317E-05,1.23046875,-0.00704306943901993,0
-2.45575538428966E-05,4.01778524974361E-05,1.23046875,-0.00706023291147859,0
-2.48906671913574E-05,3.1900082831271E-05,1.23046875,-0.00707549670718198,0
-2.66442293650471E-05,2.02390874619596E-05,1.23046875,-0.00708883392520156,0
-2.61128498095786E-05,6.16887882642914E-06,1.23046875,-0.00710021800578959,0
-2.57220999628771E-05,-5.82297980145086E-06,1.23046875,-0.00710962273576647,0
-2.4941478841356E-05,-1.5657609765185E-05,1.23046875,-0.00711702225357027,0
-2.57126685028197E-05,-2.16545722651063E-05,1.23046875,-0.00712239105406955,0
-2.59584521700162E-05,-2.60064261965454E-05,1.23046875,-0.0071257039933386,0
-2.54305632552132E-05,-3.11174408125225E-05,1.23046875,-0.00712693629351988,0
-2.12459490285255E-05,-3.06718065985478E-05,1.23046875,-0.00712606354777626,0
-3.1495357688982E-05,-4.60633636976127E-05,1.23046875,-0.00712306172529059,0
-2.45461196755059E-05,-3.15542311000172E-05,1.23046875,-0.00711790717626533,0
-2.71323806373402E-05,-2.10905564017594E-05,1.23046875,-0.00711057663681196,0
-1.89659531315556E-05,8.68091228767298E-06,1.23046875,-0.00710104723355797,0
-1.94240692508174E-05,1.74057422555052E-05,1.23046875,-0.00708929648778192,0
-1.70041930687148E-05,1.99332462216262E-05,1.23046875,-0.00707530231878173,0
-1.97461104107788E-05,1.33913872559788E-05,1.23046875,-0.00705904304608185,0
-2.21439931920031E-05,1.27916082419688E-05,1.23046875,-0.00704049739026948,0
-2.35489151236834E-05,1.32783588924212E-05,1.23046875,-0.00701964447265444,0
-2.35522238654085E-05,1.26229770103237E-05,1.23046875,-0.00699646381425134,0
-2.34252129303059E-05,1.26411832752638E-05,1.23046875,-0.00697093533459203,0
-2.53146499744616E-05,1.08218346213107E-05,1.23046875,-0.00694303935065432,0
-2.39068212977145E-05,1.29559311972116E-05,1.23046875,-0.00691275657595731,0
-2.34487579291454E-05,1.42140115713119E-05,1.23046875,-0.00688006811975656,0
-2.10761045309482E-05,1.97168374143075E-05,1.23046875,-0.00684495548627502,0
-2.26015799853485E-05,2.02149003598606E-05,1.23046875,-0.00680740057394122,0
-2.29716297326377E-05,2.0836010662606E-05,1.23046875,-0.00676738567459688,0
-2.44150669459486E-05,1.71087685885141E-05,1.23046875,-0.00672489347264909,0
-2.39356377278455E-05,1.62861742865061E-05,1.23046875,-0.00667990704420683,0
-2.62796002061805E-05,1.40157189889578E-05,1.23046875,-0.00663240985622769,0
-2.69120646407828E-05,1.41179580168682E-05,1.23046875,-0.00658238576558692,0
-2.72812994808191E-05,1.22796527648461E-05,1.23046875,-0.00652981901788645,0
-2.71739791060099E-05,1.2395876183291E-05,1.23046875,-0.00647469424580811,0
-2.73859695880674E-05,1.52037673615268E-05,1.23046875,-0.00641699646689139,0
-2.63451747741783E-05,2.09028639801545E-05,1.23046875,-0.00635671108074427,0
-2.48243559326511E-05,2.23101287701866E-05,1.23046875,-0.00629382386580686,0
-1.90727078006603E-05,1.25275819300441E-05,1.23046875,-0.00622832097584751,0
-2.64226582658011E-05,1.10312093966058E-05,1.23046875,-0.00616018893632167,0
-1.95791672013002E-05,3.02306693811261E-06,1.23046875,-0.00608941464058438,0
-2.49958629865432E-05,1.43226607178804E-05,1.23046875,-0.00601598534591231,0
-2.07139401027234E-05,1.72941745404387E-05,1.23046875,-0.00593988866938177,0
-2.15835261769826E-05,2.1674219169654E-05,1.23046875,-0.00586111258366443,0
-1.81840605364414E-05,1.60686558956513E-05,1.23046875,-0.00577964541270953,0
-1.82720359589439E-05,1.2277067071409E-05,1.23046875,-0.00569547582717245,0
-1.59594128490426E-05,1.11977569758892E-05,1.23046875,-0.00560859283936567,0
-1.59368264576187E-05,1.55287434608908E-05,1.23046875,-0.00551898579750197,0
-1.73888074641582E-05,1.90238370123552E-05,1.23046875,-0.00542664437908579,0
-1.89191887329798E-05,2.00399936147733E-05,1.23046875,-0.00533155858346211,0
-2.15721720451256E-05,2.19244466279633E-05,1.23046875,-0.00523371872374412,0
-2.08438523259247E-05,2.32178190344712E-05,1.23046875,-0.00513311541852233,0
-2.15408981603105E-05,2.53234647971112E-05,1.23046875,-0.00502973958374947,0
-2.09067984542344E-05,2.32457496167626E-05,1.23046875,-0.00492358242501029,0
-2.32599541050149E-05,2.1876354367123E-05,1.23046875,-0.0048146354302116,0
-2.33393329835963E-05,1.92473635252099E-05,1.23046875,-0.00470289036263297,0
-2.47742391366046E-05,1.94711083167931E-05,1.23046875,-0.00458833925419125,0
-2.36306586884893E-05,1.93197192857042E-05,1.23046875,-0.00447097439871294,0
-2.33660375670297E-05,2.1161962649785E-05,1.23046875,-0.00435078834506056,0
-2.26997344725532E-05,1.52786633407231E-05,1.23046875,-0.0042277738900998,0
-2.47233765549026E-05,-1.4115707926976E-06,1.23046875,-0.00410192407161767,0
-2.46227791649289E-05,-1.74365013663191E-05,1.23046875,-0.00397323216131554,0
-2.34355829888955E-05,-1.62661890499294E-05,1.23046875,-0.00384169165792551,0
-2.37323674809886E-05,-6.19336333329557E-06,1.23046875,-0.00370729628045458,0
-2.58096661127638E-05,1.35947482249321E-06,1.23046875,-0.00357003996159499,0
-2.27470427489607E-05,3.59214527634322E-06,1.23046875,-0.00342991684133649,0
-3.32258750859182E-05,8.79341678228229E-06,1.23046875,-0.00328692126071661,0
-2.58527015830623E-05,1.650625745242E-05,1.23046875,-0.00314104775550112,0
-3.06551373796538E-05,2.60709239228163E-05,1.23046875,-0.00299229104948717,0
-2.57809297181666E-05,2.8913844289491E-05,1.23046875,-0.00284064604721503,0
-2.86291269731009E-05,2.46043055085465E-05,1.23046875,-0.00268610782616228,0
-2.60632969002472E-05,1.43399392982246E-05,1.23046875,-0.00252867162869968,0
-2.74731210083701E-05,3.82280768462806E-06,1.23046875,-0.00236833285406251,0
-2.51871661021141E-05,-2.19252342503751E-06,1.23046875,-0.00220508705049143,0
-2.24389041250106E-05,-5.36997276867623E-07,1.23046875,-0.00203892990766643,0
-2.00874947040575E-05,7.68192785471911E-06,1.23046875,-0.001869857249522,0
-1.76945504790638E-05,1.61208117788192E-05,1.23046875,-0.00169786502733851,0
-1.83855590876192E-05,2.26158463192405E-05,1.23046875,-0.0015229493127515,0
-1.78874543053098E-05,2.79698615486268E-05,1.23046875,-0.00134510629029413,0
-1.99085334315896E-05,2.74489666480804E-05,1.23046875,-0.00116433224931858,0
-1.95965258171782E-05,1.41916343636694E-05,1.23046875,-0.000980623575405352,0
-2.1436619135784E-05,-3.59425393980928E-06,1.23046875,-0.000793976741509299,0
-2.00286413019057E-05,-1.16509709187085E-05,1.23046875,-0.000604388299112164,0
-2.10738307941938E-05,-6.1857658693043E-06,1.23046875,-0.000411854869611569,0
-2.1256566469674E-05,2.5322974579467E-06,1.23046875,-0.000216373136107025,0
-2.36763080465607E-05,6.00122257310431E-06,1.23046875,-1.79398356763554E-05,0
-2.37650583585491E-05,5.24679262525751E-06,1.23046875,0.000183448247798348,0
-2.31958929362008E-05,6.13553629591479E-06,1.23046875,0.000387794290251178,0
-2.17019241972594E-05,9.33990395424189E-06,1.23046875,0.000595101433564668,0
-2.32090842473553E-05,1.0561150702415E-05,1.23046875,0.000805372791245392,0
-2.50725443038391E-05,8.95320226845797E-06,1.23046875,0.00101861145359245,0
-2.58096151810605E-05,7.49761602492072E-06,1.23046875,0.00123482049235972,0
-2.0435774786165E-05,7.22168488209718E-06,1.23046875,0.00145400296504967,0
-2.91461765300483E-05,1.13007090476458E-05,1.23046875,0.00167616191897607,0
-2.29583547479706E-05,1.04917435237439E-05,1.23046875,0.00190130039510825,0
-2.92275508400053E-05,1.23729096230818E-05,1.23046875,0.00212942143170337,0
-2.52984518738231E-05,8.98304460861254E-06,1.23046875,0.0023605280678413,0
-2.77970902970992E-05,7.3537148637115E-06,1.23046875,0.00259462334699131,0
-2.56087550951634E-05,7.65515051170951E-06,1.23046875,0.00283171032064743,0
-2.74197027465561E-05,1.28362344185007E-05,1.23046875,0.00307179205198185,0
-2.694534487091E-05,1.6987358321785E-05,1.23046875,0.00331487161942935,0
-2.65689650404966E-05,1.90626542462269E-05,1.23046875,0.00356095212013178,0
-2.70248201559298E-05,1.83161828317679E-05,1.23046875,0.00381003667319855,0
-2.70767541223904E-05,1.64022567332722E-05,1.23046875,0.0040621284227366,0
-2.84628877125215E-05,1.50364166984218E-05,1.23046875,0.00431723054060558,0
-2.75578295259038E-05,1.30028656712966E-05,1.23046875,0.00457534622890013,0
-2.76017508440418E-05,1.33647199618281E-05,1.23046875,0.00483647872220433,0
-2.5064389774343E-05,1.50350697367685E-05,1.23046875,0.00510063128962992,0
-2.53456655627815E-05,1.77089987118961E-05,1.58203125,0.00536780723656827,0
-2.43609774770448E-05,1.79025410034228E-05,1.58203125,0.00563800990608312,0
-2.58173076872481E-05,1.65449800988426E-05,1.58203125,0.00591124267996545,0
-2.50013054028386E-05,1.30413782244432E-05,1.58203125,0.0061875089795164,0
-2.53147591138259E-05,1.13996065920219E-05,1.58203125,0.00646681226607512,0
-2.43401937041199E-05,1.16270830403664E-05,1.58203125,0.0067491560412741,0
-2.4584862330812E-05,1.20108861665358E-05,1.58203125,0.00703454384703542,0
-2.41207362705609E-05,9.76891442405758E-06,1.58203125,0.00732297926536605,0
-2.40375338762533E-05,7.27201449990389E-06,1.58203125,0.00761446591801604,0
-2.27524687943514E-05,7.13980671207537E-06,1.58203125,0.00790900746604526,0
-2.2241823899094E-05,8.75236764841247E-06,1.58203125,0.00820660760934374,0
-1.77120546140941E-05,7.62858871894423E-06,1.58203125,0.0085072700861993,0
-2.44869061134523E-05,9.7796946647577E-06,1.58203125,0.00881099867307689,0
-1.8610875486047E-05,4.96650136483368E-06,1.58203125,0.00911779718476375,0
-2.4278617274831E-05,7.52904770706664E-06,1.58203125,0.00942766947488304,0
-2.09015306609217E-05,9.52836126089096E-06,1.58203125,0.00974061943662023,0
-2.348302223254E-05,1.30356274894439E-05,1.58203125,0.0100566510034778,0
-2.15923264477169E-05,1.29436157294549E-05,1.58203125,0.0103757681499233,0
-2.35420975513989E-05,1.360865735478E-05,1.58203125,0.0106979748918421,0
-2.39896889979718E-05,1.43410943564959E-05,1.58203125,0.0110232752867331,0
-2.46983563556569E-05,1.56824316945858E-05,1.58203125,0.0113516734335805,0
-2.57148913078709E-05,1.60453801072435E-05,1.58203125,0.0116831734723678,0
-2.51479559665313E-05,1.44705581988092E-05,1.58203125,0.012017779583275,0
-2.51774490607204E-05,1.26239501696546E-05,1.58203125,0.012355495985657,0
-2.29522156587336E-05,9.96890048554633E-06,1.58203125,0.0126963269368603,0
-2.27808013733011E-05,8.92003481567372E-06,1.58203125,0.0130402767308501,0
-2.12896211451152E-05,8.00561065261718E-06,1.58203125,0.0133873496965968,0
-2.26630654651672E-05,8.04746377980337E-06,1.58203125,0.0137375501962448,0
-2.23067399929278E-05,7.6340647865436E-06,1.58203125,0.014090882623139,0
-2.31533213082002E-05,7.7943195719854E-06,1.58203125,0.0144473513997355,0
-2.17616416193778E-05,5.88163538850495E-06,1.58203125,0.0148069609753466,0
-2.20679776248289E-05,4.21697404817678E-06,1.58203125,0.0151697158236561,0
-2.24028808588628E-05,4.50641618954251E-06,1.58203125,0.0155356204400058,0
-2.41793004533974E-05,6.65271409161505E-06,1.58203125,0.0159046793384806,0
-2.32205038628308E-05,7.59752856538398E-06,1.58203125,0.0162768970487921,0
-2.13570438063471E-05,8.50275682751089E-06,1.58203125,0.0166522781129505,0
-2.17638698813971E-05,8.79035360412672E-06,1.58203125,0.0170308270817426,0
-2.37662898143753E-05,6.87993178871693E-06,1.58203125,0.0174125485110518,0
-2.06967470148811E-05,3.68920814253215E-06,1.58203125,0.0177974469580488,0
-3.00689916912233E-05,5.21261972608045E-06,1.58203125,0.0181855269772554,0
-2.2616583009949E-05,5.51196171727497E-06,1.58203125,0.018576793116544,0
-2.75186903309077E-05,8.66771188157145E-06,1.58203125,0.0189712499132592,0
-2.44286020461004E-05,7.9334413385368E-06,1.58203125,0.0193689018906497,0
-2.80358508462086E-05,7.52768028178252E-06,1.58203125,0.0197697535546388,0
-2.56301682384219E-05,7.84313488111366E-06,1.58203125,0.0201738093908845,0
-2.48395990638528E-05,1.04853716038633E-05,1.58203125,0.0205810738621166,0
-2.23957231355598E-05,1.19505939437659E-05,1.58203125,0.02099155140571,0
-2.2091795472079E-05,1.17560057333321E-05,1.58203125,0.0214052464313469,0
-2.32736656471388E-05,1.09366037577274E-05,1.58203125,0.0218221633186376,0
-2.29112720262492E-05,9.42362476052949E-06,1.58203125,0.0222423064146931,0
-2.19696121348534E-05,8.33907324704342E-06,1.58203125,0.0226656800316676,0
-1.92675397556741E-05,8.00479028839618E-06,1.58203125,0.0230922884442584,0
-2.06556342163822E-05,8.81867799762404E-06,1.58203125,0.0235221358872204,0
-2.08817164093489E-05,8.80784500623122E-06,1.58203125,0.0239552265530543,0
-2.28383996727644E-05,8.53865003591636E-06,1.58203125,0.0243915645899733,0
-2.29183442570502E-05,8.91790296009276E-06,1.58203125,0.0248311541000721,0
-2.50273387791822E-05,1.08297645056155E-05,1.58203125,0.0252739991375126,0
-2.44698076130589E-05,1.15972925414098E-05,1.58203125,0.0257201037066189,0
-2.43973518081475E-05,1.1908999113075E-05,1.58203125,0.0261694717599308,0
-2.25799631152768E-05,1.16523024189519E-05,1.58203125,0.0266221071963006,0
-2.27221607929096E-05,1.12550542326062E-05,1.58203125,0.0270780138590254,0
-2.35512852668762E-05,1.09874727058923E-05,1.58203125,0.0275371955339198,0
-2.41184752667323E-05,1.1640112461464E-05,1.58203125,0.0279996559472452,0
-2.3162019715528E-05,1.30914313558606E-05,1.58203125,0.0284653987634897,0
-2.29702927754261E-05,1.33895728140487E-05,1.58203125,0.02893442758304,0
-1.88032045116415E-05,8.96890924195759E-06,1.58203125,0.0294067459397757,0
-2.74796020676149E-05,1.13432142825332E-05,1.58203125,0.0298823572986153,0
-2.2145295588416E-05,7.36350239094463E-06,1.58203125,0.0303612650530685,0
-2.78922452707775E-05,1.16886158139096E-05,1.58203125,0.0308434725228602,0
-2.42896712734364E-05,1.33207695398596E-05,1.58203125,0.0313289829517081,0
-2.54740771197248E-05,2.04951866180636E-05,1.58203125,0.0318177995053343,0
-2.31285994232167E-05,2.76211958407657E-05,1.58203125,0.0323099252697169,0
-2.50952871283516E-05,3.69519002560992E-05,1.58203125,0.0328053632494747,0
-2.52514710155083E-05,4.33775894634891E-05,1.58203125,0.0333041163662344,0
-2.55559043580433E-05,4.59218972537201E-05,1.58203125,0.0338061874568987,0
-2.56245621130802E-05,4.11944602092262E-05,1.58203125,0.0343115792718458,0
-2.53397229244001E-05,3.05954345094506E-05,1.58203125,0.0348202944731279,0
-2.63667006947799E-05,1.95492157217814E-05,1.58203125,0.0353323356327019,0
-2.4449014745187E-05,8.08450840850128E-06,1.58203125,0.0358477052306963,0
-2.34733688557753E-05,-1.5550267562503E-06,1.58203125,0.0363664056536956,0
-2.13971852645045E-05,-1.13306741695851E-05,1.58203125,0.036888439192989,0
-2.26760803343495E-05,-1.79445250978461E-05,1.58203125,0.0374138080427686,0
-2.21881364268484E-05,-2.28286717174342E-05,1.58203125,0.0379425142983556,0
-2.31775757129071E-05,-2.59223979810486E-05,1.58203125,0.0384745599545249,0
-2.25556614168454E-05,-2.94262736133533E-05,1.58203125,0.0390099469038939,0
-2.29308934649453E-05,-2.6974066713592E-05,1.58203125,0.0395486769352847,0
-2.14846440940164E-05,-1.85313856491121E-05,1.58203125,0.0400907517319982,0
-2.20549591176678E-05,-7.04665626471979E-06,1.58203125,0.0406361728700097,0
-2.33929295063717E-05,1.71305146068335E-06,1.58203125,0.0411849418161418,0
-2.50323082582327E-05,6.57747250443208E-06,1.58203125,0.0417370599262595,0
-2.38331631408073E-05,9.27603832678869E-06,1.58203125,0.042292528443462,0
-2.20040274143685E-05,1.09713782876497E-05,1.58203125,0.042851348496216,0
-1.75714303622954E-05,9.26142456592061E-06,1.58203125,0.0434135210964173,0
-2.46918043558253E-05,1.40767315315316E-05,1.58203125,0.0439790471374636,0
-1.91592152987141E-05,1.26330578495981E-05,1.58203125,0.0445479273924916,0
-2.52217632805696E-05,1.66314457601402E-05,1.58203125,0.045120162512818,0
-2.24185332626803E-05,1.59687406267039E-05,1.58203125,0.0456957530264459,0
-2.48330761678517E-05,1.79692542587873E-05,1.58203125,0.0462746993364837,0
-2.26354895858094E-05,1.73053031176096E-05,1.58203125,0.0468570017194443,0
-2.36256892094389E-05,1.86046727321809E-05,1.58203125,0.0474426603234527,0
-2.2938847905607E-05,1.97691551875323E-05,1.58203125,0.0480316751663574,0
-2.24391496885801E-05,2.03583767870441E-05,1.58203125,0.0486240461337056,0
-2.26490737986751E-05,2.06848617381183E-05,1.58203125,0.0492197729765423,0
-2.3201302610687E-05,2.03958570637042E-05,1.58203125,0.0498188553090307,0
-2.57262272498338E-05,2.01486436708365E-05,1.58203125,0.0504212926059213,0
-2.52521949732909E-05,1.83694792212918E-05,1.58203125,0.0510270841999435,0
-2.6243429601891E-05,1.62982742040185E-05,1.58203125,0.051636229279264,0
-2.6741974579636E-05,1.13811547635123E-05,1.58203125,0.0522487268851807,0
-2.97162478091195E-05,6.80608854963793E-06,1.58203125,0.0528645759101747,0
-2.95160461973865E-05,3.4674687867664E-06,1.58203125,0.0534837750964253,0
-2.93675111606717E-05,4.46969715994783E-06,1.58203125,0.0541063230349212,0
-2.71088883891935E-05,6.7465398387867E-06,1.58203125,0.0547322181652683,0
-2.65124272118555E-05,1.03538686744287E-05,1.58203125,0.0553614587761363,0
-2.55387403740315E-05,1.34926121972967E-05,1.58203125,0.0559940430061097,0
-2.69981173914857E-05,1.53675609908532E-05,1.58203125,0.0566299688446504,0
-2.85096739389701E-05,1.72617965290556E-05,1.58203125,0.057269234132972,0
-2.90765819954686E-05,2.26838837988907E-05,1.58203125,0.0579118365647994,0
-2.81949560303474E-05,3.1184154067887E-05,1.58203125,0.0585577736871266,0
-2.71197604888584E-05,4.06229773943778E-05,1.58203125,0.0592070429010875,0
-2.06922632060014E-05,3.94318230974022E-05,1.58203125,0.0598596414629295,0
-2.87598686554702E-05,4.62938987766393E-05,1.58203125,0.0605155664850225,0
-2.13336297747446E-05,5.14767953063711E-06,1.58203125,0.0611748149369092,0
-2.70927466772264E-05,-4.47015872850898E-06,1.58203125,0.0618373836464517,0
-2.28514927584911E-05,-1.01649266071036E-05,1.58203125,0.0625032693010658,0
-2.55211998592131E-05,5.0192725211673E-06,1.58203125,0.0631724684489914,0
-2.30985388043337E-05,7.40763698559022E-06,1.58203125,0.0638449775005697,0
-2.49264594458509E-05,1.2000348760921E-05,1.58203125,0.0645207927295483,0
-2.45108421950135E-05,1.46360789585742E-05,1.58203125,0.0651999102744604,0
-2.41396792262094E-05,1.82440708158538E-05,1.58203125,0.0658823261401012,0
-2.38964421441779E-05,1.70720431924565E-05,1.58203125,0.066568036199083,0
-2.30302230193047E-05,8.82725271367235E-06,1.58203125,0.0672570361934598,0
-2.38920056290226E-05,3.13134614771116E-06,1.58203125,0.0679493217364515,0
-2.3163840523921E-05,-1.80164272478578E-06,1.58203125,0.0686448883142997,0
-2.47062325797742E-05,1.42449891882279E-06,1.58203125,0.0693437312882422,0
-2.33886057685595E-05,2.52808627010381E-06,1.58203125,0.0700458458965359,0
-2.36010018852539E-05,7.35264984541573E-06,1.58203125,0.0707512272564558,0
-2.12551640288439E-05,7.20815478416625E-06,1.58203125,0.0714598703662448,0
-2.06939876079559E-05,1.11241915874416E-05,1.58203125,0.072171770107087,0
-1.87708283192478E-05,1.25206970551517E-05,1.58203125,0.0728869212452663,0
-1.97372846741928E-05,1.63937002071179E-05,1.58203125,0.0736053184347116,0
-1.95812590391142E-05,1.53095425048377E-05,1.58203125,0.0743269562200767,0
-2.04966436285758E-05,1.47243617902859E-05,1.58203125,0.0750518290403777,0
-2.02637493202928E-05,1.32151617435738E-05,1.58203125,0.0757799312330797,0
-2.11111746466486E-05,1.34129950311035E-05,1.58203125,0.0765112570384644,0
-2.25684889301192E-05,1.35250356834149E-05,1.58203125,0.0772458006041165,0
-2.41781872318825E-05,1.37244223878952E-05,1.58203125,0.0779835559893828,0
-2.05720498342998E-05,1.00143897725502E-05,1.58203125,0.0787245171696996,0
-2.92061158688739E-05,1.24738180602435E-05,1.58203125,0.0794686780407587,0
-2.11470451176865E-05,7.91587717685616E-06,1.58203125,0.0802160324225815,0
-2.47936313826358E-05,1.21714938359219E-05,1.58203125,0.0809665740636201,0
-2.09392928809393E-05,1.25773585750721E-05,1.58203125,0.0817202966449428,0
-2.5581095542293E-05,1.4695478057547E-05,1.58203125,0.0824771937843943,0
-2.44180973822949E-05,1.25221249618335E-05,1.58203125,0.0832372590405908,0
-2.52734280365985E-05,1.12234247353626E-05,1.58203125,0.0840004859167667,0
-2.41168181673856E-05,9.27051496546483E-06,1.58203125,0.0847668678646259,0
-2.43816593865631E-05,7.51710513213766E-06,1.58203125,0.0855363982882959,0
-2.50240336754359E-05,7.10689801053377E-06,1.58203125,0.0863090705483528,0
-2.42076548602199E-05,7.90445392340189E-06,1.58203125,0.0870848779658355,0
-2.40548306464916E-05,1.06388988569961E-05,1.58203125,0.0878638138262051,0
-2.1984620616422E-05,1.11809567897581E-05,1.58203125,0.0886458713832174,0
-2.2754193196306E-05,1.06542956928024E-05,1.58203125,0.0894310438626388,0
-2.10711841646116E-05,8.86215366335819E-06,1.58203125,0.0902193244657414,0
-2.19968515011715E-05,9.42598217079649E-06,1.58203125,0.0910107063725837,0
-2.23366569116479E-05,9.7142383310711E-06,1.58203125,0.0918051827451308,0
-2.45602532231715E-05,1.06731567939278E-05,1.58203125,0.0926027467302318,0
-2.29969518841244E-05,9.85689348453889E-06,1.58203125,0.0934033914624242,0
-2.29364086408168E-05,9.64676110015716E-06,1.58203125,0.0942071100665456,0
-2.38080629060278E-05,1.03434467746411E-05,1.58203125,0.0950138956601585,0
-2.55275081144646E-05,1.24808157124789E-05,1.58203125,0.0958237413557814,0
-2.32040074479301E-05,1.35178033815464E-05,1.58203125,0.0966366402629416,0
-2.11552669497905E-05,1.20359818538418E-05,1.58203125,0.0974525854901122,0
-2.10757170862053E-05,8.96392248250777E-06,1.58203125,0.098271570146554,0
-2.17584110941971E-05,7.46951400287799E-06,1.58203125,0.0990935873440591,0
-1.89471502380911E-05,6.42581426291144E-06,1.58203125,0.0999186301986532,0
-2.68740477622487E-05,1.03837492133607E-05,1.58203125,0.100746691832307,0
-1.98939105757745E-05,9.87855946732452E-06,1.58203125,0.101577765374617,0
-2.47919724642998E-05,1.13683117888286E-05,1.58203125,0.102411843964386,0
-2.19219364225864E-05,8.6186973931035E-06,1.58203125,0.103248920751054,0
-2.47917923843488E-05,7.53334870751132E-06,1.58203125,0.104088988895939,0
-2.2722802896169E-05,5.91598973187502E-06,1.58203125,0.104932041573286,0
-2.40144509007223E-05,5.76594720769208E-06,1.58203125,0.10577807197117,0
-2.41310099227121E-05,4.53873462902266E-06,1.58203125,0.10662707329228,0
-2.42459991568467E-05,2.65837638835364E-06,1.58203125,0.107479038754621,0
-2.37935328186722E-05,3.28675673699763E-06,1.58203125,0.108333961592133,0
-2.21340178541141E-05,7.33144997866475E-06,1.58203125,0.109191835055247,0
-2.28822373173898E-05,1.29115151139558E-05,1.58203125,0.110052652411343,0
-2.32171023526462E-05,1.60182571562473E-05,1.58203125,0.110916406945046,0
-2.54258065979229E-05,1.64445336849894E-05,1.58203125,0.111783091958307,0
-2.48380529228598E-05,1.44355171869393E-05,1.58203125,0.1126527007703,0
-2.60001961578382E-05,1.30013686430175E-05,1.58203125,0.113525226717247,0
-2.51670644502155E-05,1.1610838555498E-05,1.58203125,0.114400663152293,0
-2.53304078796646E-05,1.12021798486239E-05,1.58203125,0.115279003445542,0
-2.36006926570553E-05,1.07468886199058E-05,1.58203125,0.11616024098421,0
-2.39304845308652E-05,1.19800815809867E-05,1.58203125,0.117044369172838,0
-2.33059654419776E-05,1.33873145387042E-05,1.58203125,0.117931381433402,0
-2.38152188103413E-05,1.33604571601609E-05,1.58203125,0.118821271205236,0
-2.35694024013355E-05,1.19413325592177E-05,1.58203125,0.11971403194474,0
-2.37304957408924E-05,1.16412193165161E-05,1.58203125,0.120609657124875,0
-2.3846774638514E-05,1.24313510241336E-05,1.58203125,0.121508140234456,0
-2.43805297941435E-05,1.40388947329484E-05,1.58203125,0.122409474777241,0
-2.08374058274785E-05,1.15548573376145E-05,1.58203125,0.123313654270818,0
-2.92049735435285E-05,1.4756748896616E-05,1.58203125,0.124220672245306,0
-2.13699458981864E-05,8.51979893923271E-06,1.58203125,0.125130522241925,0
-2.74144222203176E-05,1.11667968667462E-05,1.58203125,0.126043197811488,0
-2.39445889747003E-05,8.58443581819301E-06,1.58203125,0.126958692512875,0
-2.6413345040055E-05,9.61656769504771E-06,1.58203125,0.127876999911512,0
-2.37674175878055E-05,8.21850062493468E-06,1.58203125,0.128798113577838,0
-2.44408711296273E-05,9.45002648222726E-06,1.58203125,0.129722027085732,0
-2.34872895816807E-05,8.51637378218584E-06,1.58203125,0.130648734010898,0
-2.34968902077526E-05,7.069926141412E-06,1.58203125,0.131578227929144,0
-2.3768352548359E-05,6.47407250653487E-06,1.58203125,0.132510502414627,0
-2.17077431443613E-05,7.98676228441764E-06,1.58203125,0.133445551038095,0
-2.06675049412297E-05,1.18649631986045E-05,1.58203125,0.134383367365196,0
-1.90906539501157E-05,1.34120637085289E-05,1.58203125,0.135323944954984,0
-2.06799049919937E-05,1.322108983004E-05,1.58203125,0.136267277358834,0
-2.04419393412536E-05,1.04791251942515E-05,1.58203125,0.137213358119932,0
-2.26629508688347E-05,9.90140870271716E-06,1.58203125,0.138162180773355,0
-2.30653549806448E-05,8.83451684785541E-06,1.58203125,0.139113738846572,0
-2.49855820584344E-05,1.05464687294443E-05,1.58203125,0.140068025860099,0
-2.38050179177662E-05,1.41267819344648E-05,1.58203125,0.141025035328132,0
-2.37115691561485E-05,2.29609922826057E-05,1.58203125,0.14198476075913,0
-2.23943043238251E-05,3.25310684274882E-05,1.58203125,0.142947195656356,0
-2.18737623072229E-05,4.04896854888648E-05,1.58203125,0.143912333518316,0
-2.11357673833845E-05,4.47828751930501E-05,1.58203125,0.144880167839009,0
-2.22868711716728E-05,4.54241599072702E-05,1.58203125,0.145850692107986,0
-2.27029231609777E-05,4.02299374400172E-05,1.58203125,0.146823899810285,0
-2.25826424866682E-05,3.03214819723507E-05,1.58203125,0.14779978442621,0
-1.89381589734694E-05,1.39909116114723E-05,1.58203125,0.148778339430932,0
-2.68840794888092E-05,1.10242781374836E-05,1.58203125,0.149759558293897,0
-2.07690445677144E-05,-4.27696659244248E-06,1.58203125,0.150743434478136,0
-2.75809725280851E-05,-3.89872684536385E-06,1.58203125,0.151729961439525,0
-2.567692536104E-05,-1.13789665192598E-05,1.58203125,0.152719132626055,0
-2.79723080893746E-05,-1.50456180563197E-05,1.58203125,0.153710941477258,0
-2.37962376559153E-05,-2.45778810494812E-05,1.58203125,0.154705381423945,0
-2.22235739784082E-05,-2.53297585004475E-05,1.58203125,0.155702445888313,0
-2.12922313949093E-05,-2.07304419745924E-05,1.58203125,0.156702128284249,0
-2.30911155085778E-05,-1.17832505566184E-05,1.58203125,0.157704422017602,0
-2.45252667809837E-05,-3.05183380078233E-06,1.58203125,0.158709320486368,0
-2.37199637922458E-05,2.672176606211E-06,1.58203125,0.159716817080766,0
-2.38995198742487E-05,7.03485147823812E-06,1.58203125,0.160726905183191,0
-2.2150077711558E-05,8.11144218459958E-06,1.58203125,0.16173957816806,0
-2.29392353503499E-05,1.05879798866226E-05,1.58203125,0.162754829401555,0
-2.29633078561164E-05,1.06187808341929E-05,1.58203125,0.163772652241229,0
-2.51129549724283E-05,1.19620026453049E-05,1.58203125,0.164793040035495,0
-2.31477024499327E-05,1.10018472696538E-05,1.58203125,0.16581598612299,0
-2.05824544536881E-05,1.27401863210252E-05,1.58203125,0.166841483831841,0
-1.71694064192707E-05,1.30615053421934E-05,1.58203125,0.167869526478868,0
-1.83062402356882E-05,1.32479790408979E-05,1.58203125,0.168900107368951,0
-1.92986444744747E-05,1.07444093373488E-05,2.109375,1.60837631630109,0
-2.02161772904219E-05,9.25330914469669E-06,2.109375,1.60837887459432,0
-1.96824239537818E-05,7.36528636480216E-06,2.109375,1.6083839845089,0
-2.0340463379398E-05,8.4269913713797E-06,2.109375,1.60839163936167,0
-2.15800300793489E-05,1.07949117591488E-05,2.109375,1.60840183245835,0
-2.19720095628873E-05,1.20106151371147E-05,2.109375,1.60841455709544,0
-1.7024594853865E-05,9.69240318227094E-06,2.109375,1.60842980656425,0
-2.44477687374456E-05,1.41087339216028E-05,2.109375,1.60844757415775,0
-1.97068929992383E-05,1.17013405542821E-05,2.109375,1.60846785318073,0
-2.50517059612321E-05,1.41610362334177E-05,2.109375,1.60849063696382,0
-2.1569685486611E-05,1.18024336188682E-05,2.109375,1.60851591888133,0
-2.36918549489928E-05,1.35209247673629E-05,2.109375,1.60854369237318,0
-2.18829645746155E-05,1.27475650515407E-05,2.109375,1.60857395097088,0
-2.33827613556059E-05,1.3373991350818E-05,2.109375,1.60860668832788,0
-2.38950360653689E-05,1.38962332130177E-05,2.109375,1.60864189825419,0
-2.49594813794829E-05,1.41540649565286E-05,2.109375,1.60867957475558,0
-2.56972052739002E-05,1.36685348479659E-05,2.109375,1.60871971207691,0
-2.61341701843776E-05,1.26029635794112E-05,2.109375,1.60876230474963,0
-2.69547927018721E-05,1.14723725346266E-05,2.109375,1.60880734764294,0
-2.47259868046967E-05,9.47645821725018E-06,2.109375,1.60885483601858,0
-2.4361897885683E-05,9.23399238672573E-06,2.109375,1.60890476558877,0
-2.33646114793373E-05,7.76331944507547E-06,2.109375,1.60895713257751,0
-2.462085467414E-05,6.96029565006029E-06,2.109375,1.609011933785,0
-2.41508460021578E-05,5.9602280089166E-06,2.109375,1.60906916665514,0
-2.64546488324413E-05,7.56546205593622E-06,2.109375,1.6091288293459,0
-2.76169903372647E-05,8.94522418093402E-06,2.109375,1.60919092080197,0
-2.88659739453578E-05,1.02813964986126E-05,2.109375,1.60925544082918,0
-2.77273047686322E-05,1.00576944532804E-05,2.109375,1.60932239016997,0
-2.76225709967548E-05,1.15701568574877E-05,2.109375,1.60939177057925,0
-2.7581210815697E-05,1.48464378071367E-05,2.109375,1.60946358490019,0
-2.84664020000491E-05,1.73585194715997E-05,2.109375,1.60953783713956,0
-2.89601248368854E-05,1.67419821082149E-05,2.109375,1.60961453254232,0
-2.93606572085992E-05,1.39681415021187E-05,2.109375,1.60969367766494,0
-2.31374324357603E-05,7.76168508309638E-06,2.109375,1.60977528044692,0
-3.29060276271775E-05,1.2216964023537E-05,2.109375,1.60985935028022,0
-2.48110682150582E-05,1.54328645294299E-05,2.109375,1.60994589807615,0
-3.05981338897254E-05,2.20516321860487E-05,2.109375,1.61003493632947,0
-2.57370793406153E-05,1.8108152289642E-05,2.109375,1.61012647917899,0
-2.8772506993846E-05,1.53646233229665E-05,2.109375,1.61022054246443,0
-2.54796868830454E-05,1.18840171126067E-05,2.109375,1.61031714377886,0
-2.49637178058038E-05,1.20597997010918E-05,2.109375,1.61041630251665,0
-2.21389855141751E-05,1.28111678350251E-05,2.109375,1.61051803991662,0
-2.2028798412066E-05,1.3644512364408E-05,2.109375,1.61062237910008,0
-2.47858661168721E-05,1.24411408251035E-05,2.109375,1.61072934510395,0
-2.68799576588208E-05,1.0414681128168E-05,2.109375,1.61083896490833,0
-2.78733405139064E-05,1.25385877254303E-05,2.109375,1.61095126745821,0
-2.46356157731498E-05,1.82986295840237E-05,2.109375,1.61106628367836,0
-2.44495786319021E-05,2.39471319218865E-05,2.109375,1.61118404648087,0
-2.38259563047905E-05,2.25929925363744E-05,2.109375,1.61130459076491,0
-2.58797008427791E-05,1.66368972713826E-05,2.109375,1.61142795340878,0
-2.42739151872229E-05,9.31884369492764E-06,2.109375,1.61155417325399,0
-2.44414259213954E-05,6.8350541369E-06,2.109375,1.61168329108147,0
-2.31126341532217E-05,7.12290921001113E-06,2.109375,1.61181534957929,0
-2.41320267377887E-05,8.78188620845322E-06,2.109375,1.61195039330218,0
-2.27154032472754E-05,9.00932445802027E-06,2.109375,1.61208846862257,0
-2.10666912607849E-05,9.62594458542299E-06,2.109375,1.61222962367332,0
-1.98622765310574E-05,9.60934539762093E-06,2.109375,1.61237390828212,0
-2.17606429941952E-05,1.01668565548607E-05,2.109375,1.61252137389774,0
-2.27931614062982E-05,1.02709182101535E-05,2.109375,1.61267207350834,0
-2.22115213546203E-05,9.60131183092017E-06,2.109375,1.61282606155178,0
-1.62322066898923E-05,6.80961557009141E-06,2.109375,1.61298339381803,0
-2.24725754378596E-05,9.80612276180182E-06,2.109375,1.61314412734367,0
-1.75752265931806E-05,1.11088247649604E-05,2.109375,1.61330832029884,0
-2.4174660211429E-05,1.99555761355441E-05,2.109375,1.61347603186697,0
-2.21654481720179E-05,2.3351709387498E-05,2.109375,1.61364732211746,0
-2.39456294366391E-05,2.2025449652574E-05,2.109375,1.6138222518714,0
-2.1431931600091E-05,1.10447354018106E-05,2.109375,1.61400088256029,0
-2.19521189137595E-05,2.47817661147565E-06,2.109375,1.61418327607834,0
-2.11676615435863E-05,2.5244651169487E-06,2.109375,1.6143694946285,0
-2.13430776057066E-05,9.66192146734102E-06,2.109375,1.61455960056322,0
-2.20627189264633E-05,1.7025960914907E-05,2.109375,1.61475365622026,0
-2.19035318878014E-05,2.01064704015153E-05,2.109375,1.61495172375419,0
-2.2969643396209E-05,1.86778397619491E-05,2.109375,1.61515386496422,0
-2.23613697016845E-05,1.40617330544046E-05,2.109375,1.61536014111877,0
-2.39726614381652E-05,1.13674641397665E-05,2.109375,1.6155706127776,0
-2.45866485784063E-05,1.02662907011108E-05,2.109375,1.61578533961213,0
-2.7067389964941E-05,1.27046387206065E-05,2.109375,1.61600438022461,0
-2.69014217337826E-05,1.48465287566069E-05,2.109375,1.61622779196691,0
-2.71113585768035E-05,1.5505422197748E-05,2.109375,1.61645563075971,0
-2.49891309067607E-05,1.35701802719268E-05,2.109375,1.61668795091238,0
-2.44209350057645E-05,1.11064418888418E-05,2.109375,1.61692480494438,0
-2.36075993598206E-05,8.78172068041749E-06,2.109375,1.61716624340833,0
-2.30647528951522E-05,8.98632788448595E-06,2.109375,1.61741231471518,0
-2.15798136196099E-05,1.06139841591357E-05,2.109375,1.61766306496183,0
-2.1496645786101E-05,1.11668550744071E-05,2.109375,1.61791853776169,0
-2.27025630010758E-05,8.2324650065857E-06,2.109375,1.61817877407863,0
-2.43800950556761E-05,5.65632626603474E-06,2.109375,1.61844381206488,0
-1.97410790860886E-05,3.69210511053097E-06,2.109375,1.61871368690333,0
-2.67449431703426E-05,5.73640136281028E-06,2.109375,1.61898843065485,0
-1.90973605640465E-05,5.64427273275214E-06,2.109375,1.61926807211101,0
-2.47986772592412E-05,7.71564646129264E-06,2.109375,1.61955263665276,0
-2.02729443117278E-05,7.78371213527862E-06,2.109375,1.6198421461153,0
-2.22153776121559E-05,8.34059028420597E-06,2.109375,1.62013661865977,0
-1.91487160918769E-05,7.57307134335861E-06,2.109375,1.62043606865189,0
-2.03571198653663E-05,7.81586913944921E-06,2.109375,1.62074050654813,0
-2.0330844563432E-05,7.89582827565027E-06,2.109375,1.62104993878962,0
-2.10980997508159E-05,8.94377080840059E-06,2.109375,1.6213643677041,0
-2.23013284994522E-05,1.12443240141147E-05,2.109375,1.62168379141632,0
-2.19180838030297E-05,1.25817268781248E-05,2.109375,1.62200820376709,0
-2.31929661822505E-05,1.30369098769734E-05,2.109375,1.62233759424106,0
-2.30494497373002E-05,1.36507469505887E-05,2.109375,1.62267194790372,0
-2.45211176661542E-05,1.62908581842203E-05,2.109375,1.62301124534745,0
-2.27071486733621E-05,1.80692313733744E-05,2.109375,1.62335546264684,0
-2.29394718189724E-05,1.85014760063495E-05,2.109375,1.62370457132338,0
-2.15039472095668E-05,1.7507440134068E-05,2.109375,1.62405853831941,0
-2.21339487325167E-05,1.61032057803823E-05,2.109375,1.62441732598156,0
-2.15994223253801E-05,1.3450159713102E-05,2.109375,1.62478089205354,0
-2.35234219871927E-05,1.04779819594114E-05,2.109375,1.62514918967852,0
-2.35636725847144E-05,9.31254362512846E-06,2.109375,1.62552216741098,0
-2.37650201597717E-05,1.19419737529824E-05,2.109375,1.62589976923803,0
-2.32448455790291E-05,1.54379140440142E-05,2.109375,1.62628193461009,0
-2.55463201028761E-05,9.63349611993181E-06,2.109375,1.62666859848076,0
-2.93368066195399E-05,-9.70523160503944E-06,2.109375,1.62705969135575,0
-3.10089344566222E-05,-2.33808277698699E-05,2.109375,1.62745513935065,0
-2.35425050050253E-05,-1.31336364574963E-05,2.109375,1.62785486425703,0
-3.05964676954318E-05,-8.72032342158491E-06,2.109375,1.62825878361657,0
-1.99130317923846E-05,8.18517401057761E-06,2.109375,1.62866681080288,0
-2.70078962785192E-05,9.16793032956775E-06,2.109375,1.62907885511098,0
-2.34306098718662E-05,1.5714629626018E-05,2.109375,1.62949482185453,0
-2.75342717941385E-05,1.38105351652484E-05,2.109375,1.62991461247083,0
-2.48624564846978E-05,1.71973624674138E-05,2.109375,1.63033812463326,0
-2.686202788027E-05,1.66637364600319E-05,2.109375,1.63076525237107,0
-2.62072826444637E-05,1.70735984283965E-05,2.109375,1.63119588619599,0
-2.6469770091353E-05,1.72848685906501E-05,2.109375,1.63162991323558,0
-2.62887624558061E-05,1.72748223121744E-05,2.109375,1.63206721737284,0
-2.46239687839989E-05,1.71016090462217E-05,2.109375,1.63250767939206,0
-2.54147307714447E-05,1.54197314259363E-05,2.109375,1.63295117713046,0
-2.51966284849914E-05,1.51001331687439E-05,2.109375,1.6333975856356,0
-2.84878988168202E-05,1.26952463688212E-05,2.109375,1.63384677732814,0
-2.85498699668096E-05,1.25939577628742E-05,2.109375,1.63429862216972,0
-2.96086309390375E-05,1.12047073344002E-05,2.109375,1.63475298783552,0
-2.64354021055624E-05,1.18492862384301E-05,2.109375,1.63520973989086,0
-2.66264887613943E-05,1.0522185220907E-05,2.109375,1.63566874197157,0
-2.57960637100041E-05,1.17023828352103E-05,2.109375,1.6361298559677,0
-2.6971087208949E-05,1.25808273878647E-05,2.109375,1.63659294221053,0
-2.57047413469991E-05,1.4434182048717E-05,2.109375,1.63705785966259,0
-2.51914243563078E-05,1.4306900993688E-05,2.109375,1.6375244661103,0
-2.38635911955498E-05,1.42057333505363E-05,2.109375,1.63799261835884,0
-2.3869735741755E-05,1.18877169370535E-05,2.109375,1.63846217242881,0
-2.33767259487649E-05,9.92158038570778E-06,2.109375,1.63893298375401,0
-2.30932637350634E-05,1.00682609627256E-05,2.109375,1.63940490737983,0
-1.86765810212819E-05,9.86702616501134E-06,2.109375,1.63987779816173,0
-2.62240864685737E-05,1.44597124744905E-05,2.109375,1.64035151096328,0
-2.02279461518629E-05,1.05751660157694E-05,2.109375,1.64082590085335,0
-2.68516923824791E-05,1.33741723402636E-05,2.109375,1.64130082330196,0
-2.45545325014973E-05,1.17705785669386E-05,2.109375,1.641776134375,0
-2.69138836301863E-05,1.30414573504822E-05,2.109375,1.64225169092753,0
-2.48209034907632E-05,1.19254746095976E-05,2.109375,1.64272735079593,0
-2.58458858297672E-05,1.28727360788616E-05,2.109375,1.64320297298844,0
-2.42867554334225E-05,1.25927372209844E-05,2.109375,1.64367841787405,0
-2.33824212045874E-05,1.17064864753047E-05,2.109375,1.64415354736934,0
-2.35424813581631E-05,1.10019882413326E-05,2.109375,1.64462822512294,0
-2.36719697568333E-05,1.12887246359605E-05,2.109375,1.64510231669721,0
-2.45344199356623E-05,1.38726363729802E-05,2.109375,1.6455756897465,0
-2.32095644605579E-05,1.44993955473183E-05,2.109375,1.64604821419196,0
-2.45419396378566E-05,1.4012348401593E-05,2.109375,1.64651976239259,0
-2.44695092987968E-05,1.24459384096554E-05,2.109375,1.64699020931244,0
-2.53593188972445E-05,1.22846067824867E-05,2.109375,1.64745943268371,0
-2.31233207159676E-05,1.14285739982734E-05,2.109375,1.64792731316581,0
-2.31751255341806E-05,1.16073861136101E-05,2.109375,1.64839373449991,0
-2.21308164327638E-05,1.02607345979777E-05,2.109375,1.64885858365907,0
-2.29054330702638E-05,9.6495004981989E-06,2.109375,1.64932175099317,0
-2.284704351041E-05,9.13777239475166E-06,2.109375,1.64978313036857,0
-2.40492063312558E-05,9.35633124754531E-06,2.109375,1.65024261930197,0
-2.41441193793435E-05,9.4317856564885E-06,2.109375,1.65070011908867,0
-2.39913824771065E-05,9.37453205551719E-06,2.109375,1.65115553492516,0
-2.24655377678573E-05,9.48114575294312E-06,2.109375,1.65160877602616,0
-2.17222877836321E-05,1.02153808256844E-05,2.109375,1.6520597557358,0
-1.79816724994453E-05,7.89939804235473E-06,2.109375,1.6525083916329,0.0332825648667602
-2.57966603385285E-05,1.09583479570574E-05,2.109375,1.65295460562966,0.0332825648667602
-1.88481462828349E-05,7.92172522778856E-06,2.109375,1.65339832406356,0.0332825648667602
-2.2163514586282E-05,8.51128606882412E-06,2.109375,1.65383947778228,0.0332825648667602
-1.7877804566524E-05,4.75426304547E-06,2.109375,1.6542780022219,0.0332825648667602
-2.02372466446832E-05,5.59849604542251E-06,2.109375,1.65471383747828,0.0332825648667602
-1.9529101336957E-05,6.20668697592919E-06,2.109375,1.65514692837114,0.0332825648667602
-2.18897603190271E-05,8.72063901624642E-06,2.109375,1.65557722450088,0.0332825648667602
-2.25679486902663E-05,9.49882632994559E-06,2.109375,1.65600468029815,0.0332825648667602
-2.3948121452122E-05,9.14905012905365E-06,2.109375,1.65642925506666,0.0332825648667602
-2.55242539424216E-05,8.88777867658064E-06,2.109375,1.65685091301909,0.0332825648667602
-2.52841637120582E-05,9.33172395889414E-06,2.109375,1.6572696233062,0.0332825648667602
-2.58897052844986E-05,1.04893470052048E-05,2.109375,1.65768536003847,0.0332825648667602
-2.50971697823843E-05,1.03593756648479E-05,2.109375,1.65809810230017,0.0332825648667602
-2.54208389378618E-05,1.07364667201182E-05,2.109375,1.65850783415588,0.0332825648667602
-2.3647506168345E-05,1.04848259070423E-05,2.109375,1.65891454464962,0.0332825648667602
-2.40721183217829E-05,1.20464774227003E-05,2.109375,1.65931822779682,0.0332825648667602
-2.28231092478381E-05,1.31241449707886E-05,2.109375,1.65971888256978,0.0332825648667602
-2.28220596909523E-05,1.4369699783856E-05,2.109375,1.66011651287672,0.0332825648667602
-2.13478633668274E-05,1.40899719554E-05,2.109375,1.66051112753498,0.0332825648667602
-2.20177262235666E-05,1.35867412609514E-05,2.109375,1.66090274023861,0.0332825648667602
-2.1835525330971E-05,1.16242617878015E-05,2.109375,1.66129136952011,0.0332825648667602
-2.1956700948067E-05,1.04623122751946E-05,2.109375,1.66167703870676,0.0332825648667602
-2.10801008506678E-05,1.06250890894444E-05,2.109375,1.66205977587121,0.0332825648667602
-2.14599022001494E-05,1.22940591609222E-05,2.109375,1.66243961377684,0.0332825648667602
-2.25363037316129E-05,1.25404540085583E-05,2.109375,1.66281658981776,0.0332825648667602
-2.36153082369128E-05,1.23071604321012E-05,2.109375,1.6631907459537,0.0332825648667602
-1.89283691724995E-05,8.56672613736009E-06,2.109375,1.66356212863986,0.0332825648667602
-2.66320512309903E-05,1.0362641660322E-05,2.109375,1.66393078875203,0.0332825648667602
-2.1387915694504E-05,4.83461462863488E-06,2.109375,1.66429678150706,0.0332825648667602
-2.78303778031841E-05,6.84199949319009E-06,2.109375,1.66466016637878,0.0332825648667602
-2.37426665989915E-05,6.08629125053994E-06,2.109375,1.66502100700909,0.0332825648667602
-2.58523450611392E-05,8.30413591756951E-06,2.109375,1.66537937111415,0.0332825648667602
-2.33813279919559E-05,7.30150577510358E-06,2.109375,1.66573533038565,0.0332825648667602
-2.57600695476867E-05,7.2361631282547E-06,2.109375,1.6660889603875,0.0332825648667602
-2.66206443484407E-05,7.46433215681463E-06,2.109375,1.66644034044824,0.0332825648667602
-2.65651378867915E-05,9.48655451793456E-06,2.109375,1.66678955354965,0.0332825648667602
-2.57104838965461E-05,1.0601745088934E-05,2.109375,1.66713668621125,0.0332825648667602
-2.39722303376766E-05,9.92260902421549E-06,2.109375,1.6674818283712,0.0332825648667602
-2.39881264860742E-05,9.61282876232872E-06,2.109375,1.66782507326355,0.0332825648667602
-2.2791542505729E-05,9.00282793736551E-06,2.109375,1.66816651729276,0.0332825648667602
-2.40995123022003E-05,1.00036668300163E-05,2.109375,1.66850625990579,0.0332825648667602
-2.27009877562523E-05,1.07769092210219E-05,2.109375,1.66884440346209,0.0332825648667602
-2.22776943701319E-05,1.25860433399794E-05,2.109375,1.66918105310149,0.0332825648667602
-1.93806699826382E-05,1.28782194224186E-05,2.109375,1.66951631661022,0.0332825648667602
-1.98245579667855E-05,1.25147425933392E-05,2.109375,1.66985030428498,0.0332825648667602
-2.05401720450027E-05,9.58597138378536E-06,2.109375,1.67018312879478,0.0332825648667602
-2.2975065803621E-05,7.50851859265822E-06,2.109375,1.67051490504068,0.0332825648667602
-2.21978716581361E-05,7.19387389835902E-06,2.109375,1.67084575001364,0.0332825648667602
-2.19501980609493E-05,9.3126191131887E-06,2.109375,1.6711757826512,0.0332825648667602
-2.23259485210292E-05,9.97409551928286E-06,2.109375,1.67150512369354,0.0332825648667602
-2.40213248616783E-05,9.70678411249537E-06,2.109375,1.67183389553924,0.0332825648667602
-2.37401563936146E-05,8.70920212037163E-06,2.109375,1.67216222210097,0.0332825648667602
-2.17809792957269E-05,8.71941210789373E-06,2.109375,1.67249022866117,0.0332825648667602
-1.66221452673199E-05,8.03796592663275E-06,2.109375,1.67281804172787,0.0332825648667602
-2.39919845625991E-05,1.19378673844039E-05,2.109375,1.67314578889061,0.0332825648667602
-1.90828995982884E-05,9.21788614505203E-06,2.109375,1.67347359867637,0.0332825648667602
-2.35915304074297E-05,1.116933162848E-05,2.109375,1.6738016004057,0.0332825648667602
-2.07877637876663E-05,1.02910744317342E-05,2.109375,1.67412992404936,0.0332825648667602
-2.41579164139694E-05,1.29991876747226E-05,2.109375,1.67445870008601,0.0332825648667602
-2.24553496082081E-05,1.43062352435663E-05,2.109375,1.67478805936121,0.0332825648667602
-2.31365211220691E-05,1.46676748045138E-05,2.109375,1.67511813294774,0.0332825648667602
-2.30104869842762E-05,1.2818557479477E-05,2.109375,1.67544905200725,0.0332825648667602
-2.32060301641468E-05,1.18324751383625E-05,2.109375,1.67578094765344,0.0332825648667602
-2.27233085752232E-05,1.2634668564715E-05,2.109375,1.67611395081685,0.0332825648667602
-2.19362227653619E-05,1.33077664941084E-05,2.109375,1.67644819211142,0.0332825648667602
-2.27074469876243E-05,1.32200257212389E-05,2.109375,1.67678380170293,0.0332825648667602
-2.18197965295985E-05,1.18882380775176E-05,2.109375,1.6771209091797,0.0332825648667602
-2.26815918722423E-05,1.21092180052074E-05,2.109375,1.67745964342546,0.0332825648667602
-2.22824419324752E-05,1.26264294522116E-05,2.109375,1.67780013249473,0.0332825648667602
-2.44077982642921E-05,1.42626267916057E-05,2.109375,1.67814250349057,0.0332825648667602
-2.43458198383451E-05,1.54307545017218E-05,2.109375,1.67848688244494,0.0332825648667602
-2.42483092733892E-05,1.7226644558832E-05,2.109375,1.67883339420131,0.0332825648667602
-2.19153007492423E-05,1.72468899108935E-05,2.109375,1.67918216229978,0.0332825648667602
-2.22056551137939E-05,1.64289012900554E-05,2.109375,1.67953330886457,0.0332825648667602
-2.28862645599293E-05,1.46383854371379E-05,2.109375,1.67988695449424,0.0332825648667602
-2.44631228270009E-05,1.39033763844054E-05,2.109375,1.68024321815472,0.0332825648667602
-2.41964444285259E-05,1.31901979329996E-05,2.109375,1.68060221707534,0.0332825648667602
-2.38962347793859E-05,1.25454298540717E-05,2.109375,1.68096406664792,0.0332825648667602
-2.33518258028198E-05,1.30407379401731E-05,2.109375,1.68132888032864,0.0332825648667602
-2.32774327741936E-05,1.6391351891798E-05,2.109375,1.68169676954321,0.0332825648667602
-2.00208360183751E-05,1.90506798389833E-05,2.109375,1.68206784359505,0.0332825648667602
-2.85691876342753E-05,3.23600033880211E-05,2.109375,1.68244220957689,0.0332825648667602
-2.09964146051789E-05,3.35924814862665E-05,2.109375,1.68281997228569,0.0332825648667602
-2.49544300459092E-05,4.33851055277046E-05,3.1640625,1.68320123414084,0.0332825648667602
-2.13566636375617E-05,4.17361297877505E-05,3.1640625,1.68358609510569,0.0332825648667602
-2.57448373304214E-05,4.00205644837115E-05,3.1640625,1.68397465261228,0.0332825648667602
-2.52519166679122E-05,2.9202077712398E-05,3.1640625,1.6843670014895,0.0332825648667602
-2.67089981207391E-05,1.82589792530052E-05,3.1640625,1.68476323389455,0.0332825648667602
-2.56939729297301E-05,4.52453923571738E-06,3.1640625,1.68516343924781,0.0332825648667602
-2.68245494225994E-05,-5.79297966396553E-06,3.1640625,1.68556770417093,0.0332825648667602
-2.86665399471531E-05,-1.0277607543685E-05,3.1640625,1.68597611242823,0.0332825648667602
-2.87459424725967E-05,-1.26486011140514E-05,3.1640625,1.68638874487127,0.0332825648667602
-2.92937365884427E-05,-1.59675200848142E-05,3.1640625,1.68680567938674,0.0332825648667602
-2.78425231954316E-05,-2.43604863499058E-05,3.1640625,1.68722699084746,0.0332825648667602
-2.91789692710154E-05,-2.88412811642047E-05,3.1640625,1.6876527510666,0.0332825648667602
-2.87144102912862E-05,-2.7256606699666E-05,3.1640625,1.68808302875536,0.0332825648667602
-3.00617411994608E-05,-1.59558931045467E-05,3.1640625,1.68851788948399,0.0332825648667602
-2.83904064417584E-05,-4.57221403848962E-06,3.1640625,1.68895739564644,0.0332825648667602
-2.81134980468778E-05,4.91467926622136E-06,3.1640625,1.68940160642862,0.0332825648667602
-2.61631903413218E-05,8.60382442624541E-06,3.1640625,1.68985057778039,0.0332825648667602
-2.66362603724701E-05,1.15988459583605E-05,3.1640625,1.69030436239151,0.0332825648667602
-2.60011493082857E-05,1.27591574710095E-05,3.1640625,1.69076300967142,0.0332825648667602
-2.58284853771329E-05,1.37923761940328E-05,3.1640625,1.69122656573291,0.0332825648667602
-2.47923362621805E-05,1.38731511469814E-05,3.1640625,1.69169507337952,0.0332825648667602
-2.4140308596543E-05,1.44752539199544E-05,3.1640625,1.69216857209651,0.0332825648667602
-2.34232920774957E-05,1.34060474010766E-05,3.1640625,1.69264709804553,0.0332825648667602
-2.29197758017108E-05,1.176702153316E-05,3.1640625,1.69313068406274,0.0332825648667602
-1.83983393071685E-05,1.02373842310044E-05,3.1640625,1.69361935966041,0.0332825648667602
-2.63687452388695E-05,1.52755146700656E-05,3.1640625,1.69411315103213,0.0332825648667602
-2.04380103241419E-05,1.27403118312941E-05,3.1640625,1.69461208106135,0.0332825648667602
-2.57396714005154E-05,1.58812472363934E-05,3.1640625,1.69511616933361,0.0332825648667602
-2.25862822844647E-05,1.40599140650011E-05,3.1640625,1.69562543215224,0.0332825648667602
-2.51334258791758E-05,1.53961536852876E-05,3.1640625,1.69613988255761,0.0332825648667602
-2.31850390264299E-05,1.54802182805724E-05,3.1640625,1.69665953034995,0.0332825648667602
-2.33052269322798E-05,1.70416078617563E-05,3.1640625,1.69718438211545,0.0332825648667602
-2.17194756260142E-05,1.74507313204231E-05,3.1640625,1.69771444125579,0.0332825648667602
-2.14321789826499E-05,1.85029548447346E-05,3.1640625,1.6982497080208,0.0332825648667602
-2.11652823054465E-05,1.92052812053589E-05,3.1640625,1.69879017954429,0.0332825648667602
-2.03902600333095E-05,1.82670901267556E-05,3.1640625,1.69933584988295,0.0332825648667602
-2.13118764804676E-05,1.75878867594292E-05,3.1640625,1.69988671005816,0.0332825648667602
-2.03652834898094E-05,1.60758463607635E-05,3.1640625,1.70044274810087,0.0332825648667602
-2.14114770642482E-05,1.6218511518673E-05,3.1640625,1.70100394909921,0.0332825648667602
-2.14641841012053E-05,1.51310814544559E-05,3.1640625,1.701570295249,0.0332825648667602
-2.40966746787308E-05,1.3910343113821E-05,3.1640625,1.70214176590687,0.0332825648667602
-2.42903661273886E-05,1.17110175779089E-05,3.1640625,1.70271833764603,0.0332825648667602
-2.48786855081562E-05,1.17671734187752E-05,3.1640625,1.70329998431433,0.0332825648667602
-2.22544658754487E-05,1.08640024336637E-05,3.1640625,1.70388667709469,0.0332825648667602
-2.11533661058638E-05,9.61888508754782E-06,3.1640625,1.70447838456762,0.0332825648667602
-2.05998821911635E-05,6.92698904458666E-06,3.1640625,1.70507507277575,0.0332825648667602
-2.22380567720393E-05,5.98377255300875E-06,3.1640625,1.70567670529019,0.0332825648667602
-2.28581102419412E-05,8.51632830745075E-06,3.1640625,1.70628324327861,0.0332825648667602
-2.22011913137976E-05,1.33354960780707E-05,3.1640625,1.70689464557484,0.0332825648667602
-2.0013465473312E-05,1.56472560775001E-05,3.1640625,1.70751086874993,0.0332825648667602
-2.0045315977768E-05,1.30381458802731E-05,3.1640625,1.70813186718434,0.0332825648667602
-1.70259481819812E-05,6.94402888257173E-06,3.1640625,1.70875759314139,0.0332825648667602
-2.28661247092532E-05,9.21354967431398E-06,3.1640625,1.70938799684178,0.0332825648667602
-1.62830783665413E-05,7.32313583284849E-06,3.1640625,1.71002302653921,0.0332825648667602
-2.23998431465589E-05,9.14310749067226E-06,3.1640625,1.7106626285969,0.0332825648667602
-2.00379781745141E-05,5.39532038601465E-06,3.1640625,1.7113067475649,0.0332825648667602
-2.26829488383373E-05,5.04254330735421E-06,3.1640625,1.711955326258,0.0332825648667602
-2.1092091628816E-05,5.64131505598198E-06,3.1640625,1.71260830583409,0.0332825648667602
-2.27040654863231E-05,8.78994251252152E-06,3.1640625,1.7132656258728,0.0332825648667602
-2.29671568376943E-05,8.72880627866834E-06,3.1640625,1.71392722445451,0.0332825648667602
-2.30737769015832E-05,7.07902290741913E-06,3.1640625,1.71459303823952,0.0332825648667602
-2.35518709814642E-05,5.01531530971988E-06,3.1640625,1.71526300254745,0.0332825648667602
-2.35197621805128E-05,6.33922991255531E-06,3.1640625,1.71593705143684,0.0332825648667602
-2.43981176026864E-05,1.12542074930388E-05,3.1640625,1.71661511778487,0.0332825648667602
-2.31312951655127E-05,1.3490857782017E-05,3.1640625,1.71729713336719,0.0332825648667602
-2.30832483794075E-05,1.32627837956534E-05,3.1640625,1.71798302893767,0.0332825648667602
-2.12862432817928E-05,1.04159389593406E-05,3.1640625,1.71867273430814,0.0332825648667602
-2.16768185055116E-05,8.85526878846576E-06,3.1640625,1.71936617842773,0.0332825648667602
-2.05577489396092E-05,7.46798468753695E-06,3.1640625,1.72006328946174,0.0332825648667602
-2.19580069824588E-05,7.86739565228345E-06,3.1640625,1.72076399486974,0.0332825648667602
-2.27843192988075E-05,9.01500516192755E-06,3.1640625,1.7214682214828,0.0332825648667602
-2.37223030126188E-05,1.14708291221177E-05,3.1640625,1.72217589557985,0.0332825648667602
-2.20042784349062E-05,1.18127663881751E-05,3.1640625,1.72288694296305,0.0332825648667602
-2.24936775339302E-05,1.13300966404495E-05,3.1640625,1.72360128903239,0.0332825648667602
-2.35739153140457E-05,1.05184144558734E-05,3.1640625,1.72431885885914,0.0332825648667602
-2.49126514972886E-05,1.0756393749034E-05,3.1640625,1.72503957725845,0.0332825648667602
-2.42022306338185E-05,1.20277854875894E-05,3.1640625,1.72576336886072,0.0332825648667602
-2.3952534320415E-05,1.28599267554819E-05,3.1640625,1.726490158182,0.0332825648667602
-2.08311612368561E-05,1.10391274574795E-05,3.1640625,1.72721986969343,0.0332825648667602
-2.960600068036E-05,1.6188112567761E-05,3.1640625,1.72795242788951,0.0332825648667602
-2.19359426409937E-05,1.22174787975382E-05,3.1640625,1.72868775735511,0.0332825648667602
-2.73844689218095E-05,1.33646817630506E-05,3.1640625,1.72942578283131,0.0332825648667602
-2.40861354541266E-05,1.06104880615021E-05,3.1640625,1.73016642927996,0.0332825648667602
-2.72781835519709E-05,1.38549712573877E-05,3.1640625,1.73090962194721,0.0335291023842917
-2.54034421232063E-05,1.51512940647081E-05,3.1640625,1.73165528642579,0.0335291023842917
-2.69419670075877E-05,1.68720744113671E-05,3.1640625,1.73240334871598,0.0335291023842917
-2.61511304415762E-05,1.62133001140319E-05,3.1640625,1.73315373528541,0.0335291023842917
-2.58332202065503E-05,1.49590450746473E-05,3.1640625,1.73390637312743,0.0335291023842917
-2.62644589383854E-05,1.37645356517169E-05,3.1640625,1.73466118981812,0.0335291023842917
-2.59110202023294E-05,1.23184454423608E-05,3.1640625,1.73541811357165,0.0335291023842917
-2.67187988356454E-05,1.23089766930207E-05,3.1640625,1.73617707329413,0.0335291023842917
-2.63260735664517E-05,1.21213015518151E-05,3.1640625,1.7369379986356,0.0335291023842917
-2.79358955594944E-05,1.24805264931638E-05,3.1640625,1.7377008200403,0.0335291023842917
-2.64093705482082E-05,1.09517941382364E-05,3.1640625,1.73846546879524,0.0335291023842917
-2.71270710072713E-05,1.12630896182964E-05,3.1640625,1.73923187707687,0.0335291023842917
-2.57580613833852E-05,1.14626727736322E-05,3.1640625,1.73999997799614,0.0335291023842917
-2.56313614954706E-05,1.15241846287972E-05,3.1640625,1.74076970564145,0.0335291023842917
-2.40887366089737E-05,9.13248550205026E-06,3.1640625,1.74154099511979,0.0335291023842917
-2.56539497058839E-05,9.046891136677E-06,3.1640625,1.74231378259574,0.0335291023842917
-2.65597245743265E-05,1.00248335002107E-05,3.1640625,1.74308800532864,0.0335291023842917
-2.839357330231E-05,1.0450206900714E-05,3.1640625,1.743863601708,0.0335291023842917
-2.83395038422896E-05,8.43456837174017E-06,3.1640625,1.74464051128683,0.0335291023842917
-2.8114616725361E-05,6.7997843871126E-06,3.1640625,1.74541867481333,0.0335291023842917
-2.73215591732878E-05,7.43392774893437E-06,3.1640625,1.74619803426057,0.0335291023842917
-2.64507671090541E-05,9.71013105299789E-06,3.1640625,1.74697853285451,0.0335291023842917
-2.05686937988503E-05,7.76913566369331E-06,3.1640625,1.7477601151001,0.0335291023842917
-2.90792322630296E-05,1.04968166851904E-05,3.1640625,1.74854272680555,0.0335291023842917
-2.2342575903167E-05,8.66211394168204E-06,3.1640625,1.74932631510517,0.0335291023842917
-2.76965838565957E-05,1.34338006319012E-05,3.1640625,1.75011082848085,0.0335291023842917
-2.32135444093728E-05,1.36087019200204E-05,3.1640625,1.75089621678209,0.0335291023842917
-2.71961052931147E-05,1.46687107189791E-05,3.1640625,1.75168243124445,0.0335291023842917
-2.56207513302797E-05,1.30062353491667E-05,3.1640625,1.75246942450647,0.0335291023842917
-2.59282332990551E-05,1.33658459162689E-05,3.1640625,1.7532571506248,0.0335291023842917
-2.4436880266876E-05,1.32141913127271E-05,3.1640625,1.7540455650878,0.0335291023842917
-2.46155832428485E-05,1.32162231238908E-05,3.1640625,1.75483462482733,0.0335291023842917
-2.5558521883795E-05,1.35448526634718E-05,3.1640625,1.75562428822898,0.0335291023842917
-2.50282901106402E-05,1.42510061778012E-05,3.1640625,1.75641451514099,0.0335291023842917
-2.59112493949942E-05,1.57896192831686E-05,3.1640625,1.75720526688169,0.0335291023842917
-2.47566385951359E-05,1.54353037942201E-05,3.1640625,1.75799650624548,0.0335291023842917
-2.53204252658179E-05,1.51200783875538E-05,3.1640625,1.75878819750732,0.0335291023842917
-2.40253230003873E-05,1.36310427478747E-05,3.1640625,1.75958030642563,0.0335291023842917
-2.57991905527888E-05,1.28374458654434E-05,3.1640625,1.76037280024379,0.0335291023842917
-2.52768022619421E-05,1.09258608063101E-05,3.1640625,1.76116564769029,0.0335291023842917
-2.60699471255066E-05,1.00989291240694E-05,3.1640625,1.76195881897753,0.0335291023842917
-2.4627935999888E-05,9.74421163846273E-06,3.1640625,1.76275228579909,0.0335291023842917
-2.39542114286451E-05,1.05908466139226E-05,3.1640625,1.76354602132563,0.0335291023842917
-2.15247000596719E-05,1.00827019196004E-05,3.1640625,1.7643400001993,0.0335291023842917
-2.18168261199025E-05,9.51157198869623E-06,3.1640625,1.76513419852703,0.0335291023842917
-2.20056281250436E-05,8.57724353409139E-06,3.1640625,1.76592859387322,0.0335291023842917
-2.19388402911136E-05,8.18036551208934E-06,3.1640625,1.76672316525183,0.0335291023842917
-2.19585199374706E-05,7.96458516560961E-06,3.1640625,1.76751789311814,0.0335291023842917
-2.25645690079546E-05,7.81228573032422E-06,3.1640625,1.76831275935999,0.0335291023842917
-1.77097917912761E-05,6.12929716226063E-06,3.1640625,1.76910774728836,0.0335291023842917
-2.47530879278202E-05,9.49606783251511E-06,3.1640625,1.7699028416273,0.0335291023842917
-1.82294079422718E-05,8.79435901879333E-06,3.1640625,1.77069802850331,0.0335291023842917
-2.32082147704205E-05,1.06703037090483E-05,3.1640625,1.77149329543422,0.0335291023842917
-2.10241141758161E-05,1.00243723863969E-05,3.1640625,1.77228863131727,0.0335291023842917
-2.54137303272728E-05,1.12015777631314E-05,3.1640625,1.77308402641651,0.0335291023842917
-2.47389052674407E-05,1.01916148196324E-05,3.1640625,1.77387947234912,0.0335291023842917
-2.60810920735821E-05,1.19300184451276E-05,3.1640625,1.77467496207088,0.0335291023842917
-2.49588538281387E-05,1.36597036544117E-05,3.1640625,1.77547048986082,0.0335291023842917
-2.40192803175887E-05,1.49278712342493E-05,3.1640625,1.77626605130551,0.0335291023842917
-2.38821703533176E-05,1.64416014740709E-05,3.1640625,1.77706164328268,0.0335291023842917
-2.25264575419715E-05,1.92067582247546E-05,3.1640625,1.77785726394435,0.0335291023842917
-2.20737529161852E-05,2.08123801712645E-05,3.1640625,1.77865291269892,0.0335291023842917
-2.10138059628662E-05,1.75967688846868E-05,3.1640625,1.77944859019228,0.0335291023842917
-2.13308649108512E-05,1.24134230645723E-05,3.1640625,1.78024429828796,0.0335291023842917
-1.90938517334871E-05,8.23206664790632E-06,3.1640625,1.78104004004651,0.0335291023842917
-2.03447762032738E-05,7.68093377701007E-06,3.1640625,1.78183581970439,0.0335291023842917
-2.12077848118497E-05,7.57749012336717E-06,3.1640625,1.78263164265245,0.0335291023842917
-2.36011273955228E-05,8.33098420116585E-06,3.1640625,1.78342751541409,0.0335291023842917
-2.34696835832438E-05,8.75024852575734E-06,3.1640625,1.78422344562292,0.0335291023842917
-2.36321902775671E-05,9.39552955969702E-06,3.1640625,1.78501944199996,0.0335291023842917
-2.28788012464065E-05,9.03543241292937E-06,3.1640625,1.78581551433035,0.0335291023842917
-2.38961529248627E-05,8.99016322364332E-06,3.1640625,1.78661167343981,0.0335291023842917
-2.35312418226385E-05,8.49181651574327E-06,3.1640625,1.78740793117082,0.0335291023842917
-2.39750806940719E-05,8.6046384240035E-06,3.1640625,1.78820430035853,0.0335291023842917
-2.44305101659847E-05,8.49790285428753E-06,3.1640625,1.78900079480643,0.0335291023842917
-2.31913418247132E-05,7.99863664724398E-06,3.1640625,1.78979742926194,0.0335291023842917
-1.75699133251328E-05,5.31589921592968E-06,3.1640625,1.7905942193918,0.0335291023842917
-2.5483304852969E-05,8.06842490419513E-06,3.1640625,1.79139118175733,0.0335291023842917
-2.00480317289475E-05,8.54358859214699E-06,3.1640625,1.79218833378944,0.0335291023842917
-2.44110942730913E-05,1.27182702271966E-05,3.1640625,1.79298569376331,0.0335291023842917
-2.03332765522646E-05,1.21109833344235E-05,3.1640625,1.79378328077278,0.0335291023842917
-2.20015353988856E-05,1.12034040284925E-05,3.1640625,1.7945811147044,0.0335291023842917
-1.95799875655212E-05,8.95525045052636E-06,3.1640625,1.79537921621109,0.0335291023842917
-2.05343749257736E-05,8.72302734933328E-06,3.1640625,1.79617760668562,0.0335291023842917
-2.08653837034944E-05,8.71843531058403E-06,3.1640625,1.79697630823401,0.0335291023842917
-2.23075476242229E-05,8.70502117322758E-06,3.1640625,1.79777534364883,0.0335291023842917
-2.32840047829086E-05,8.60642376210308E-06,3.1640625,1.79857473638264,0.0335291023842917
-2.28647095354972E-05,8.55502912600059E-06,3.1640625,1.79937451052128,0.0335291023842917
-2.28499993681908E-05,8.76910780789331E-06,3.1640625,1.80017469075728,0.0335291023842917
-2.06699642149033E-05,8.49653133627726E-06,3.1640625,1.80097530236349,0.0335291023842917
-2.03025374503341E-05,9.06718287296826E-06,3.1640625,1.80177637116691,0.0335291023842917
-1.9316968973726E-05,9.01461771718459E-06,3.1640625,1.80257792352266,0.0335291023842917
-2.16115568036912E-05,9.3881299108034E-06,3.1640625,1.80337998628808,0.0335291023842917
-2.19006069528405E-05,9.90220905805472E-06,3.1640625,1.80418258679705,0.0335291023842917
-2.30464338528691E-05,1.17502468128805E-05,3.1640625,1.80498575283452,0.0335291023842917
-2.29553534154547E-05,1.31163415062474E-05,3.1640625,1.80578951261117,0.0335291023842917
-2.50354532909114E-05,1.43423394547426E-05,3.1640625,1.80659389473849,0.0335291023842917
-2.58777836279478E-05,1.3605616913992E-05,3.1640625,1.80739892820428,0.0335291023842917
-2.70098644250538E-05,1.19822079795995E-05,3.1640625,1.80820464234892,0.0335291023842917
-2.58468389802147E-05,1.1132769031974E-05,3.1640625,1.80901106684261,0.0335291023842917
-2.44233087869361E-05,1.19387941595051E-05,3.1640625,1.80981823166385,0.0335291023842917
-2.33494720305316E-05,1.29752379507408E-05,3.1640625,1.8106261670789,0.0335291023842917
-2.29818015213823E-05,1.28781812236411E-05,3.1640625,1.81143490362203,0.0335291023842917
-1.90674691111781E-05,1.02055919342092E-05,3.1640625,1.81224447207611,0.0335291023842917
-2.80054082395509E-05,1.45183212225675E-05,3.1640625,1.81305490345327,0.0335291023842917
-2.17388715100242E-05,9.28611189010553E-06,3.1640625,1.81386622897563,0.0335291023842917
-2.61227542068809E-05,9.67371761362301E-06,3.1640625,1.81467848005631,0.0335291023842917
-2.26902229769621E-05,7.5764546636492E-06,3.1640625,1.81549168828067,0.0335291023842917
-2.55754712270573E-05,1.0002960152633E-05,3.1640625,1.81630588538789,0.0335291023842917
-2.34645831369562E-05,1.01376472230186E-05,3.1640625,1.81712110325272,0.0335291023842917
-2.37602362176403E-05,1.12800507849897E-05,3.1640625,1.81793737386749,0.0335291023842917
-2.28201861318666E-05,1.08739841380157E-05,3.1640625,1.8187547293242,0.0335291023842917
-2.3593438527314E-05,1.10738228613627E-05,3.1640625,1.81957320179674,0.0335291023842917
-2.48501382884569E-05,1.17110812425381E-05,3.1640625,1.8203928235232,0.0335291023842917
-2.4344048142666E-05,1.19109863589983E-05,3.1640625,1.82121362678837,0.0335291023842917
-2.41463840211509E-05,1.20185213745572E-05,3.1640625,1.8220356439063,0.0335291023842917
-2.21721547859488E-05,1.07118530650041E-05,3.1640625,1.82285890720315,0.0335291023842917
-2.29883098654682E-05,1.1044106031477E-05,3.1640625,1.82368344900023,0.0335291023842917
-2.26529828069033E-05,1.06106417661067E-05,3.1640625,1.82450930159741,0.0335291023842917
-2.42623063968495E-05,1.08672302303603E-05,3.1640625,1.82533649725687,0.0335291023842917
-2.43495087488554E-05,1.0303746421414E-05,3.1640625,1.82616506818723,0.0335291023842917
-2.64937971223844E-05,1.02711846921011E-05,3.1640625,1.82699504652807,0.0335291023842917
-2.59372900472954E-05,7.80948084866395E-06,3.1640625,1.8278264643347,0.0335291023842917
-2.56408566201571E-05,5.90543777434505E-06,3.1640625,1.82865935356346,0.0335291023842917
-2.40589361055754E-05,5.49113610759377E-06,3.1640625,1.82949374605754,0.0335291023842917
-2.40060362557415E-05,8.07219566922868E-06,3.1640625,1.83032967353331,0.0335291023842917
-2.37110816669883E-05,9.92983041214757E-06,3.1640625,1.83116716756705,0.0335291023842917
-2.49841596087208E-05,1.00346051112865E-05,3.1640625,1.83200625958191,0.0335291023842917
-2.59946027654223E-05,8.66114623931935E-06,3.1640625,1.83284698083519,0.0335291023842917
-2.59978551184759E-05,7.56499730414362E-06,3.1640625,1.8336893624059,0.0335291023842917
-2.06932181754382E-05,4.90910406369949E-06,3.1640625,1.83453343518263,0.0335291023842917
-2.95474856102373E-05,6.30264457868179E-06,3.1640625,1.83537922985181,0.0335291023842917
-2.26071515498916E-05,6.38506026007235E-06,3.1640625,1.83622677688623,0.0335291023842917
-2.7449294066173E-05,9.60251418291591E-06,3.1640625,1.83707610653399,0.0335291023842917
-2.30920868489193E-05,7.79609308665385E-06,3.1640625,1.8379272488077,0.0335291023842917
-2.69124720944092E-05,8.94694221642567E-06,3.1640625,1.83878023347405,0.0335291023842917
-2.54574533755658E-05,9.05187698663212E-06,3.1640625,1.83963509004358,0.0335291023842917
-2.67188315774547E-05,9.12626273930073E-06,3.1640625,1.84049184776077,0.0335291023842917
-2.56952225754503E-05,8.91108084033476E-06,3.1640625,1.84135053559432,0.0335291023842917
-2.5174485926982E-05,1.08445074147312E-05,3.1640625,1.84221118222788,0.0335291023842917
-2.36570922425017E-05,1.25321394079947E-05,3.1640625,1.84307381605103,0.0335291023842917
-2.1760006347904E-05,1.16755745693808E-05,3.1640625,1.84393846515062,0.0335291023842917
-2.29367560677929E-05,9.93615412880899E-06,3.1640625,1.84480515730265,0.0335291023842917
-2.22299568122253E-05,8.88500562723493E-06,3.1640625,1.84567391996475,0.0335291023842917
-2.20936344703659E-05,9.92384229903109E-06,3.1640625,1.8465447802696,0.0335291023842917
-1.90807022590889E-05,1.03676720755175E-05,3.1640625,1.8474177650192,0.0335291023842917
-2.05257183552021E-05,1.06090146800852E-05,3.1640625,1.84829290067994,0.0335291023842917
-2.20246565731941E-05,1.03107549875858E-05,3.1640625,1.84917021337865,0.0335291023842917
-2.47905863943743E-05,1.16661767606274E-05,3.1640625,1.85004972889963,0.0335291023842917
-2.36154774029274E-05,1.16817973321304E-05,3.1640625,1.85093147268226,0.0335291023842917
-2.31668836931931E-05,1.08697950054193E-05,3.1640625,1.85181546981906,0.0335291023842917
-2.12344748433679E-05,9.55860468820902E-06,3.1640625,1.85270174505375,0.0335291023842917
-2.10869075090159E-05,8.97903100849362E-06,3.1640625,1.85359032277935,0.0335291023842917
-2.15206673601642E-05,7.85857537266565E-06,3.1640625,1.85448122703651,0.0335291023842917
-2.33371138165239E-05,8.3283939602552E-06,3.1640625,1.85537448151214,0.0335291023842917
-2.33496866712812E-05,1.06729949038709E-05,3.1640625,1.85627010953835,0.0335291023842917
-2.29700053751003E-05,1.16862793220207E-05,3.1640625,1.85716813409154,0.0335291023842917
-1.89442234841408E-05,8.30143471830525E-06,3.1640625,1.85806857779146,0.0335291023842917
-2.71415356110083E-05,1.16772243927699E-05,3.1640625,1.85897146290034,0.0335291023842917
-2.1155738068046E-05,9.18075966183096E-06,3.1640625,1.85987681132206,0.0335291023842917
-2.54465758189326E-05,1.13767364382511E-05,3.1640625,1.86078464460139,0.0335291023842917
-2.05670148716308E-05,8.83602842804976E-06,3.1640625,1.86169498392341,0.0335291023842917
-2.21168775169645E-05,1.03501670309925E-05,3.1640625,1.86260785011304,0.0335291023842917
-1.96151850104798E-05,1.07585237856256E-05,3.1640625,1.86352326363455,0.0335291023842917
-2.17889646592084E-05,1.16256651381264E-05,3.1640625,1.86444124459124,0.0335291023842917
-2.25627118197735E-05,1.06326269815327E-05,5.80078125,3.27107395147762,0.249249430224404
-2.32211950788042E-05,1.00199313237681E-05,5.80078125,3.27107645752032,0.249249430224404
-2.32741112995427E-05,9.72542420640821E-06,5.80078125,3.27108149043062,0.249249430224404
-2.29790566663723E-05,9.74622253124835E-06,5.80078125,3.2710890706728,0.249249430224404
-2.45675164478598E-05,1.11964491225081E-05,5.80078125,3.27109921835052,0.249249430224404
-2.4028337065829E-05,1.24720227177022E-05,5.80078125,3.27111195320753,0.249249430224404
-2.48763099079952E-05,1.39809517349931E-05,5.80078125,3.27112729462922,0.249249430224404
-2.38560951402178E-05,1.37226661536261E-05,5.80078125,3.2711452616452,0.249249430224404
-2.49708245974034E-05,1.45793346746359E-05,5.80078125,3.27116587293302,0.249249430224404
-2.36548185057472E-05,1.41910950333113E-05,5.80078125,3.27118914682317,0.249249430224404
-2.40556728385855E-05,1.38917721415055E-05,5.80078125,3.27121510130543,0.249249430224404
-2.28948065341683E-05,1.28759620565688E-05,5.80078125,3.27124375403689,0.249249430224404
-2.34782582992921E-05,1.37329752760706E-05,5.80078125,3.27127512235152,0.249249430224404
-2.2878970412421E-05,1.51276981341653E-05,5.80078125,3.27130922327162,0.249249430224404
-2.41743091464741E-05,1.66490990523016E-05,5.80078125,3.271346073521,0.249249430224404
-2.52107674896251E-05,1.65801902767271E-05,5.80078125,3.27138568954006,0.249249430224404
-2.64980590145569E-05,1.65187266247813E-05,5.80078125,3.27142808750237,0.249249430224404
-2.74193680525059E-05,1.7005189874908E-05,5.80078125,3.27147328333269,0.249249430224404
-2.84648631350137E-05,1.88297944987426E-05,5.80078125,3.27152129272603,0.249249430224404
-2.24642953980947E-05,1.54985500557814E-05,5.80078125,3.27157213116749,0.249249430224404
-3.14048011205159E-05,2.03734780370723E-05,5.80078125,3.27162581395279,0.249249430224404
-2.29380166274495E-05,1.30452226585476E-05,5.80078125,3.27168235620955,0.249249430224404
-2.86294307443313E-05,1.74801043613115E-05,5.80078125,3.27174177291925,0.249249430224404
-2.36191735893954E-05,1.62059295689687E-05,5.80078125,3.27180407894001,0.249249430224404
-2.66481711150846E-05,1.98098514374578E-05,5.80078125,3.27186928902993,0.249249430224404
-2.55649174505379E-05,1.64507418958237E-05,5.80078125,3.2719374178712,0.249249430224404
-2.8419852242223E-05,1.54250283230795E-05,5.80078125,3.27200848009489,0.249249430224404
-2.74331960099516E-05,1.34092897496885E-05,5.80078125,3.27208249030617,0.249249430224404
-2.50469220191007E-05,1.217866611114E-05,5.80078125,3.27215946310977,0.249249430224404
-2.21543814404868E-05,1.18600319183315E-05,5.80078125,3.27223941313555,0.249249430224404
-1.91286835615756E-05,1.16784431156702E-05,5.80078125,3.27232235506425,0.249249430224404
-1.93998093891423E-05,1.31162769321236E-05,5.80078125,3.27240830365375,0.249249430224404
-1.84530254045967E-05,1.27296489154105E-05,5.80078125,3.2724972737663,0.249249430224404
-2.0008345018141E-05,1.35791133288876E-05,5.80078125,3.27258928039677,0.249249430224404
-1.96038708963897E-05,1.28468591356068E-05,5.80078125,3.27268433870179,0.249249430224404
-2.18748846236849E-05,1.44878576975316E-05,5.80078125,3.27278246402949,0.249249430224404
-2.2020121832611E-05,1.3688009858015E-05,5.80078125,3.27288367194932,0.249249430224404
-2.47152347583324E-05,1.50104006024776E-05,5.80078125,3.27298797828162,0.249249430224404
-2.47387379204156E-05,1.96205419342732E-05,5.80078125,3.27309539912632,0.249249430224404
-2.55133181781275E-05,2.85821442957968E-05,5.80078125,3.27320595089047,0.249249430224404
-2.490740189387E-05,3.40558144671377E-05,5.80078125,3.27331965031406,0.249249430224404
-2.62476241914555E-05,3.67554421245586E-05,5.80078125,3.273436514494,0.249249430224404
-2.64893042185577E-05,3.55257834598888E-05,5.80078125,3.27355656090593,0.249249430224404
-2.53843700193102E-05,3.10918294417206E-05,5.80078125,3.27367980742384,0.249249430224404
-2.38411539612571E-05,2.32382044487167E-05,5.80078125,3.27380627233747,0.249249430224404
-2.42268561123637E-05,1.51627491504769E-05,5.80078125,3.27393597436743,0.249249430224404
-1.96205000975169E-05,3.54986605088925E-06,5.80078125,3.27406893267846,0.249249430224404
-2.74567373708123E-05,-2.7334015157976E-06,5.80078125,3.27420516689087,0.249249430224404
-1.9920849808841E-05,-1.14733684313251E-05,5.80078125,3.27434469709038,0.249249430224404
-2.50844295806019E-05,-1.07082014437765E-05,5.80078125,3.27448754383624,0.249249430224404
-2.25748772209045E-05,-1.22104738693452E-05,5.80078125,3.27463372816736,0.249249430224404
-2.7291305741528E-05,-1.27788816826069E-05,5.80078125,3.27478327160653,0.249249430224404
-2.65455601038411E-05,-1.89058064279379E-05,5.80078125,3.27493619616241,0.249249430224404
-2.74366302619455E-05,-2.10251291719032E-05,5.80078125,3.27509252432929,0.249249430224404
-2.59181761066429E-05,-1.65250112331705E-05,5.80078125,3.27525227908433,0.249249430224404
-2.55935610766755E-05,-7.83108862378867E-06,5.80078125,3.27541548388235,0.249249430224404
-2.59348107647384E-05,6.85509576214827E-07,5.80078125,3.27558216264819,0.249249430224404
-2.49808199441759E-05,7.05481852492085E-06,5.80078125,3.27575233976697,0.249249430224404
-2.5385212211404E-05,1.17037552627153E-05,5.80078125,3.27592604007244,0.249249430224404
-2.39117034652736E-05,1.33362127598957E-05,5.80078125,3.27610328883366,0.249249430224404
-2.42446640186245E-05,1.42072422022466E-05,5.80078125,3.27628411174002,0.249249430224404
-2.3634294848307E-05,1.40049487526994E-05,5.80078125,3.27646853488474,0.249249430224404
-2.64029695244972E-05,1.4241650205804E-05,5.80078125,3.27665658474711,0.249249430224404
-2.67278883256949E-05,1.29308182295063E-05,5.80078125,3.27684828817326,0.249249430224404
-2.71282588073518E-05,1.23867248476017E-05,5.80078125,3.27704367235577,0.249249430224404
-2.43101749219932E-05,1.08777558125439E-05,5.80078125,3.27724276481198,0.249249430224404
-2.36897940339986E-05,1.00615925475722E-05,5.80078125,3.2774455933611,0.249249430224404
-2.27124783123145E-05,1.00765682873316E-05,5.80078125,3.27765218610039,0.249249430224404
-2.26926531468052E-05,1.15977200039197E-05,5.80078125,3.27786257138048,0.249249430224404
-2.24506093218224E-05,1.20837030408438E-05,5.80078125,3.27807677778013,0.249249430224404
-2.32122201850871E-05,1.10144183054217E-05,5.80078125,3.27829483408061,0.249249430224404
-2.24697614612523E-05,1.0133013347513E-05,5.80078125,3.27851676923963,0.249249430224404
-2.1275263861753E-05,1.10485952973249E-05,5.80078125,3.27874261236494,0.249249430224404
-1.757300196914E-05,1.13019077616627E-05,5.80078125,3.27897239268768,0.249249430224404
-2.56107468885602E-05,1.76363537320867E-05,5.80078125,3.27920613953552,0.249249430224404
-1.94844487850787E-05,1.44103614729829E-05,5.80078125,3.27944388230591,0.249249430224404
-2.33024748013122E-05,1.57471804413944E-05,5.80078125,3.27968565043923,0.249249430224404
-1.98893631022656E-05,1.24975122162141E-05,5.80078125,3.27993147339186,0.249249430224404
-2.25490257435013E-05,1.34349184008897E-05,5.80078125,3.28018138060917,0.249249430224404
-2.12372578971554E-05,1.20478389362688E-05,5.80078125,3.28043540149839,0.249249430224404
-2.26586307690013E-05,1.18218958959915E-05,5.80078125,3.2806935654016,0.249249430224404
-2.15291693166364E-05,1.1719291251211E-05,5.80078125,3.28095590156882,0.249249430224404
-1.99100486497628E-05,1.31962460727664E-05,5.80078125,3.28122243913118,0.249249430224404
-1.98666712094564E-05,1.37233364512213E-05,5.80078125,3.2814932070743,0.249249430224404
-2.04780117201153E-05,1.23949812405044E-05,5.80078125,3.281768234212,0.249249430224404
-2.26610372919822E-05,1.18540301627945E-05,5.80078125,3.28204754916054,0.249249430224404
-2.26261490752222E-05,1.11188928713091E-05,5.80078125,3.28233118031334,0.249249430224404
-2.32239563047187E-05,1.15950515464647E-05,5.80078125,3.28261915581631,0.249249430224404
-2.11201258935034E-05,1.05287153928657E-05,5.80078125,3.28291150354388,0.249249430224404
-2.13998027902562E-05,1.12291518234997E-05,5.80078125,3.28320825107571,0.249249430224404
-2.22764592763269E-05,1.1899700439244E-05,5.80078125,3.28350942567431,0.249249430224404
-2.52592417382402E-05,1.36196995299542E-05,5.80078125,3.28381505426328,0.249249430224404
-2.41787583945552E-05,1.37242386699654E-05,5.80078125,3.28412516340643,0.249249430224404
-2.26528318307828E-05,1.42474027597927E-05,5.80078125,3.2844397792879,0.249249430224404
-2.11636415770045E-05,1.4760710655537E-05,5.80078125,3.28475892769338,0.249249430224404
-2.18772129301215E-05,1.66028203238966E-05,5.80078125,3.28508263399236,0.249249430224404
-2.21817444980843E-05,1.67738853633637E-05,5.80078125,3.28541092312134,0.249249430224404
-2.25576768571045E-05,1.52866759890458E-05,5.80078125,3.28574381956785,0.249249430224404
-2.24382129090372E-05,1.33803059725324E-05,5.80078125,3.28608134735531,0.249249430224404
-2.39823712036014E-05,1.25458582260762E-05,5.80078125,3.28642353002887,0.249249430224404
-2.04152820515446E-05,9.53001290326938E-06,5.80078125,3.28677039064226,0.249249430224404
-2.78504194284324E-05,1.32844425024814E-05,5.80078125,3.28712195174567,0.249249430224404
-1.98930065380409E-05,1.03198535725824E-05,5.80078125,3.28747823537466,0.249249430224404
-2.56835410255007E-05,1.3362911886361E-05,5.80078125,3.28783926304021,0.249249430224404
-2.25916010094807E-05,1.12730795081006E-05,5.80078125,3.28820505571981,0.249249430224404
-2.71469398285262E-05,1.24594353110297E-05,5.80078125,3.28857563384968,0.249249430224404
-2.50417451752583E-05,1.10117471194826E-05,5.80078125,3.28895101731801,0.249249430224404
-2.56936782534467E-05,1.10435712485923E-05,5.80078125,3.28933122545941,0.249249430224404
-2.52270874625538E-05,9.89094587566797E-06,5.80078125,3.2897162770504,0.249249430224404
-2.59130192716839E-05,8.32062323752325E-06,5.80078125,3.29010619030612,0.249249430224404
-2.6352809072705E-05,6.58696262689773E-06,5.80078125,3.29050098287802,0.249249430224404
-2.56181701843161E-05,5.9292960941093E-06,5.80078125,3.29090067185249,0.249249430224404
-2.66628139797831E-05,7.31618729332695E-06,5.80078125,3.29130527375046,0.249249430224404
-2.5373812604812E-05,7.24483970770962E-06,5.80078125,3.29171480452785,0.249249430224404
-2.54786318691913E-05,7.69737835071282E-06,5.80078125,3.29212927957683,0.249249430224404
-2.38477023231098E-05,7.91225374996429E-06,5.80078125,3.29254871372793,0.249249430224404
-2.60339966189349E-05,9.35222487896681E-06,5.80078125,3.29297312125275,0.249249430224404
-2.61094210145529E-05,8.79958770383382E-06,5.80078125,3.29340251586747,0.249249430224404
-2.65527778537944E-05,8.62984052218962E-06,5.80078125,3.29383691073683,0.249249430224404
-2.45381106651621E-05,7.63803654990625E-06,5.80078125,3.29427631847895,0.249249430224404
-2.48210344580002E-05,7.97547272668453E-06,5.80078125,3.29472075117074,0.249249430224404
-2.33540922636166E-05,8.80397146829637E-06,5.80078125,3.29517022035392,0.249249430224404
-2.33129158004886E-05,1.05716962934821E-05,5.80078125,3.29562473704173,0.249249430224404
-2.3533335479442E-05,1.05076987892971E-05,5.80078125,3.29608431172616,0.249249430224404
-2.44418497459264E-05,1.00290362752276E-05,5.80078125,3.29654895438585,0.249249430224404
-2.33909631788265E-05,1.03992188087432E-05,5.80078125,3.29701867449456,0.249249430224404
-2.14502761082258E-05,1.00988208941999E-05,5.80078125,3.29749348103018,0.249249430224404
-1.64940429385751E-05,6.95672497386113E-06,5.80078125,3.29797338248426,0.249249430224404
-2.39218570641242E-05,1.09095835796325E-05,5.80078125,3.29845838687209,0.249249430224404
-1.91342605830869E-05,1.13368696474936E-05,5.80078125,3.29894850174341,0.249249430224404
-2.40360386669636E-05,1.40689207910327E-05,5.80078125,3.29944373419362,0.249249430224404
-2.12171980820131E-05,1.21059238153975E-05,5.80078125,3.29994409087544,0.249249430224404
-2.29682045755908E-05,1.33772691697231E-05,5.80078125,3.30044957801084,0.249249430224404
-1.92290699487785E-05,1.23879863167531E-05,5.80078125,3.30096020140325,0.249249430224404
-1.88838748726994E-05,1.17361041702679E-05,5.80078125,3.3014759664499,0.249249430224404
-1.95675565919373E-05,9.98527593765175E-06,5.80078125,3.30199687815438,0.249249430224404
-2.20103120227577E-05,9.36429296416463E-06,5.80078125,3.30252294113942,0.249249430224404
-2.36028481594985E-05,9.22502113098744E-06,5.80078125,3.30305415965992,0.249249430224404
-2.29742126975907E-05,9.00567374628736E-06,5.80078125,3.30359053761598,0.249249430224404
-2.41988018387929E-05,9.71468216448557E-06,5.80078125,3.30413207856609,0.249249430224404
-2.38958546106005E-05,1.02674621302867E-05,5.80078125,3.30467878574022,0.249249430224404
-2.51854125963291E-05,1.17072459033807E-05,5.80078125,3.30523066205296,0.249249430224404
-2.48755186476046E-05,1.2063345820934E-05,5.80078125,3.30578771011661,0.249249430224404
-2.56777057074942E-05,1.33764970087213E-05,5.80078125,3.30634993225431,0.249249430224404
-2.4214177756221E-05,1.33530975290341E-05,5.80078125,3.30691733051298,0.249249430224404
-2.3825332391425E-05,1.29117133838008E-05,5.80078125,3.30748990667631,0.249249430224404
-2.26893334911438E-05,1.12121597339865E-05,5.80078125,3.30806766227748,0.249249430224404
-2.42009136854904E-05,1.06188954305253E-05,5.80078125,3.30865059861184,0.249249430224404
-2.40241424762644E-05,1.04750470200088E-05,5.80078125,3.3092387167492,0.249249430224404
-2.36132746067597E-05,1.09466036519734E-05,5.80078125,3.30983201754604,0.249249430224404
-2.38684333453421E-05,1.03531474451302E-05,5.80078125,3.3104305016574,0.249249430224404
-2.57613210123964E-05,9.0356543296366E-06,5.80078125,3.31103416954857,0.249249430224404
-2.63362853729632E-05,7.99047757027438E-06,5.80078125,3.31164302150645,0.249249430224404
-2.51394576480379E-05,9.57443899096688E-06,5.80078125,3.31225705765073,0.249249430224404
-1.97407625819324E-05,9.12201448954875E-06,5.80078125,3.31287627794475,0.249249430224404
-2.8192011086503E-05,1.16493147288566E-05,5.80078125,3.31350068220609,0.249249430224404
-2.14492683880962E-05,6.45658883513534E-06,5.80078125,3.31413027011675,0.249249430224404
-2.62173507508123E-05,8.29294458526419E-06,5.80078125,3.31476504123311,0.249249430224404
-2.14069532376016E-05,7.85077736509265E-06,5.80078125,3.31540499499544,0.249249430224404
-2.4179582396755E-05,1.15268321678741E-05,5.80078125,3.31605013073704,0.249249430224404
-2.36319792747963E-05,1.09659858935629E-05,5.80078125,3.31670044769301,0.249249430224404
-2.56229686783627E-05,1.06802408481599E-05,5.80078125,3.3173559450086,0.249249430224404
-2.45868759520818E-05,1.06729839899344E-05,5.80078125,3.31801662174714,0.249249430224404
-2.41707402892644E-05,1.18852494779276E-05,5.80078125,3.3186824768976,0.249249430224404
-2.40477438637754E-05,1.25725691759726E-05,5.80078125,3.31935350938167,0.249249430224404
-2.34695162362186E-05,1.17139625217533E-05,5.80078125,3.32002971806044,0.249249430224404
-2.43807990045752E-05,1.17435902211582E-05,5.80078125,3.3207111017406,0.249249430224404
-2.26874362851959E-05,1.13692494778661E-05,5.80078125,3.3213976591802,0.249249430224404
-2.30753721552901E-05,1.24374619190348E-05,5.80078125,3.32208938909392,0.249249430224404
-2.26861757255392E-05,1.21973835121025E-05,8.26171875,3.32278629015792,0.249249430224404
-2.44478960667038E-05,1.16297169370227E-05,8.26171875,3.32348836101413,0.249249430224404
-2.32196398428641E-05,8.84883502294542E-06,8.26171875,3.32419560027418,0.249249430224404
-2.38758493651403E-05,7.87649878475349E-06,8.26171875,3.32490800652276,0.249249430224404
-2.3527038138127E-05,7.94768402556656E-06,8.26171875,3.32562557832054,0.249249430224404
-2.49910681304755E-05,9.39608526095981E-06,8.26171875,3.32634831420659,0.249249430224404
-2.37249478232116E-05,1.02390913525596E-05,8.26171875,3.32707621270021,0.249249430224404
-2.22181388380704E-05,1.14756185212173E-05,8.26171875,3.32780927230236,0.249249430224404
-2.18232362385606E-05,1.24939451779937E-05,8.26171875,3.32854749149656,0.249249430224404
-2.43581271206494E-05,1.32790064526489E-05,8.26171875,3.32929086874922,0.249249430224404
-2.59226144407876E-05,1.3069490705675E-05,8.26171875,3.3300394025096,0.249249430224404
-2.61990007857094E-05,1.24923653856968E-05,8.26171875,3.33079309120924,0.249249430224404
-2.04273328563431E-05,8.57867507875199E-06,8.26171875,3.33155193326084,0.249249430224404
-2.82334149233066E-05,1.12711659312481E-05,8.26171875,3.33231592705675,0.249249430224404
-2.07294724532403E-05,8.33374087960692E-06,8.26171875,3.33308507096694,0.249249430224404
-2.69862721324898E-05,1.21789480544976E-05,8.26171875,3.3338593633365,0.249249430224404
-2.37288913922384E-05,1.10436312752427E-05,8.26171875,3.33463880248266,0.249249430224404
-2.74030862783547E-05,1.38079230964649E-05,8.26171875,3.33542338669133,0.249249430224404
-2.52558529609814E-05,1.50191026477842E-05,8.26171875,3.33621311421323,0.249249430224404
-2.54258138738805E-05,1.5758127119625E-05,8.26171875,3.33700798325954,0.249249430224404
-2.35457046073861E-05,1.39916501211701E-05,8.26171875,3.33780799199711,0.249249430224404
-2.27739401452709E-05,1.29931286210194E-05,8.26171875,3.33861313854325,0.249249430224404
-2.3099126337911E-05,1.34919273477863E-05,8.26171875,3.33942342096008,0.249249430224404
-2.26072643272346E-05,1.35165173560381E-05,8.26171875,3.3402388372485,0.249249430224404
-2.31702888413565E-05,1.30391536004026E-05,8.26171875,3.34105938534173,0.249249430224404
-2.12941213248996E-05,1.10529263110948E-05,8.26171875,3.34188506309857,0.249249430224404
-2.11293536267476E-05,1.02659050753573E-05,8.26171875,3.34271586829624,0.249249430224404
-1.91052349691745E-05,9.17369015951408E-06,8.26171875,3.343551798623,0.249249430224404
-2.06560980586801E-05,9.72903580986895E-06,8.26171875,3.34439285167037,0.249249430224404
-2.08433357329341E-05,9.76809042185778E-06,8.26171875,3.34523902492521,0.249249430224404
-2.20264046220109E-05,1.06290081021143E-05,8.26171875,3.34609031576146,0.249249430224404
-2.01171405933565E-05,9.64850460150046E-06,8.26171875,3.34694672143175,0.249249430224404
-2.07643279281911E-05,8.31189208838623E-06,8.26171875,3.34780823905869,0.249249430224404
-2.1710482542403E-05,7.55841483623954E-06,8.26171875,3.34867486562609,0.249249430224404
-2.3586961106048E-05,9.20333332032897E-06,8.26171875,3.34954659796987,0.249249430224404
-2.40056433540303E-05,1.05099816209986E-05,8.26171875,3.35042343276883,0.249249430224404
-2.44479397224495E-05,1.10578148451168E-05,8.26171875,3.35130536653533,0.249249430224404
-2.44337425101548E-05,1.20991389849223E-05,8.26171875,3.35219239560573,0.249249430224404
-2.43706836045021E-05,1.31026699818904E-05,8.26171875,3.35308451613082,0.249249430224404
-1.98928719328251E-05,9.66521929512965E-06,8.26171875,3.3539817240662,0.249249430224404
-2.88952433038503E-05,1.26895574794617E-05,8.26171875,3.3548840151626,0.249249430224404
-2.31357280426892E-05,9.82800884230528E-06,8.26171875,3.35579138495616,0.249249430224404
-2.79945106740342E-05,1.30375310618547E-05,8.26171875,3.35670382875871,0.249249430224404
-2.33774353546323E-05,9.3397011369234E-06,8.26171875,3.35762134164812,0.249249430224404
-2.58960808423581E-05,9.17402940103784E-06,8.26171875,3.35854391845873,0.249249430224404
-2.3134703951655E-05,7.54023994886666E-06,8.26171875,3.3594715537719,0.249249430224404
-2.32719467021525E-05,9.80338882072829E-06,8.26171875,3.36040424190662,0.249249430224404
-2.19151843339205E-05,1.05722920125118E-05,8.26171875,3.36134197691025,0.249249430224404
-2.28560438699787E-05,1.08720660136896E-05,8.26171875,3.36228475254932,0.249249430224404
-2.48174637818011E-05,1.13943451651721E-05,8.26171875,3.36323256230036,0.249249430224404
-2.50558423431357E-05,1.1058899872296E-05,8.26171875,3.36418539934094,0.249249430224404
-2.55993345490424E-05,1.08537096821237E-05,8.26171875,3.36514325654083,0.249249430224404
-2.34422277571866E-05,1.00946072052466E-05,8.26171875,3.36610612645327,0.249249430224404
-2.34334202104947E-05,1.08100730358274E-05,8.26171875,3.36707400130651,0.249249430224404
-2.23421247937949E-05,9.19327430892736E-06,8.26171875,3.36804687299549,0.249249430224404
-2.44591556111118E-05,7.83292671258096E-06,8.26171875,3.36902473307382,0.249249430224404
-2.45512055698782E-05,6.55913800073904E-06,8.26171875,3.37000757274577,0.249249430224404
-2.55349277722416E-05,8.43864745547762E-06,8.26171875,3.37099538285866,0.249249430224404
-2.46348336077062E-05,1.01469531728071E-05,8.26171875,3.37198815389533,0.249249430224404
-2.56981838901993E-05,1.2279174370633E-05,8.26171875,3.37298587596688,0.249249430224404
-2.46971321757883E-05,1.27642169900355E-05,8.26171875,3.37398853880571,0.249249430224404
-2.35172392422101E-05,1.34705842356198E-05,8.26171875,3.37499613175876,0.249249430224404
-2.14913252420956E-05,1.36263324748143E-05,8.26171875,3.37600864378107,0.249249430224404
-2.1453270164784E-05,1.39559188028215E-05,8.26171875,3.37702606342961,0.249249430224404
-2.16014977922896E-05,1.32747554744128E-05,8.26171875,3.37804837885735,0.249249430224404
-2.22401977225672E-05,1.26252962218132E-05,8.26171875,3.37907557780778,0.249249430224404
-1.89467518794118E-05,9.54003007791471E-06,8.26171875,3.38010764760986,0.249249430224404
-2.76651389867766E-05,1.18262832984328E-05,8.26171875,3.38114457517334,0.249249430224404
-2.07825069082901E-05,6.58796807329054E-06,8.26171875,3.38218634698459,0.249249430224404
-2.37390977417817E-05,8.03483908384806E-06,8.26171875,3.38323294910274,0.249249430224404
-1.91131493920693E-05,5.68502582609653E-06,8.26171875,3.38428436715623,0.249249430224404
-2.16585995076457E-05,7.76159777160501E-06,8.26171875,3.38534058633973,0.249249430224404
-2.06051863642642E-05,5.83157134315115E-06,8.26171875,3.38640159141138,0.249249430224404
-2.22982707782649E-05,4.21388858740102E-06,8.26171875,3.38746736669057,0.249249430224404
-2.21231966861524E-05,2.18479021896201E-06,8.26171875,3.38853789605614,0.249249430224404
-2.32805377891054E-05,2.9047421321593E-06,8.26171875,3.38961316294497,0.249249430224404
-2.54622209467925E-05,6.13097745372215E-06,8.26171875,3.39069315035091,0.249249430224404
-2.66113911493449E-05,8.70286476128967E-06,8.26171875,3.39177784082401,0.249249430224404
-2.72570050583454E-05,1.07530495370156E-05,8.26171875,3.39286721647025,0.249249430224404
-2.47005118581001E-05,1.11138151623891E-05,8.26171875,3.39396125895179,0.249249430224404
-2.47138923441526E-05,1.12760635602172E-05,8.26171875,3.39505994948782,0.249249430224404
-2.4466638933518E-05,9.51461515796836E-06,8.26171875,3.39616326885618,0.249249430224404
-2.58016207226319E-05,9.95868776954012E-06,8.26171875,3.39727119739525,1.50018079417952
-2.38849879679037E-05,1.09520888145198E-05,8.26171875,3.39838371500652,1.50018079417952
-2.48966352955904E-05,1.34384235934704E-05,8.26171875,3.39950080115733,1.50018079417952
-2.58415730058914E-05,1.40302327054087E-05,8.26171875,3.40062243488415,1.50018079417952
-2.74393041763688E-05,1.43614579428686E-05,8.26171875,3.40174859479616,1.50018079417952
-2.67508257820737E-05,1.33164921862772E-05,8.26171875,3.40287925907928,1.50018079417952
-2.68350922851823E-05,1.21071407193085E-05,8.26171875,3.40401440550056,1.50018079417952
-2.61738168774173E-05,1.1247924703639E-05,8.26171875,3.40515401141318,1.50018079417952
-2.57315405178815E-05,1.24911148304818E-05,8.26171875,3.40629805376192,1.50018079417952
-2.47540974669391E-05,1.37428933157935E-05,8.26171875,3.40744650908908,1.50018079417952
-2.47186144406442E-05,1.34622641780879E-05,8.26171875,3.40859935354076,1.50018079417952
-2.04241641768022E-05,9.67820324149216E-06,8.26171875,3.40975656287339,1.50018079417952
-2.99464154522866E-05,1.35969085022225E-05,8.26171875,3.41091811246062,1.50018079417952
-2.35867391893407E-05,1.11770941657596E-05,8.26171875,3.41208397730053,1.50018079417952
-2.82886030618101E-05,1.41952004923951E-05,8.26171875,3.41325413202322,1.50018079417952
-2.37438835029025E-05,1.17402696560021E-05,8.26171875,3.41442855089882,1.50018079417952
-2.73238529189257E-05,1.23425752462936E-05,8.26171875,3.41560720784569,1.50018079417952
-2.65834842139157E-05,1.04957616713364E-05,8.26171875,3.41679007643894,1.50018079417952
-2.80387266684556E-05,1.12107454697252E-05,8.26171875,3.41797712991908,1.50018079417952
-2.70659711532062E-05,1.02972708191373E-05,8.26171875,3.41916834120088,1.50018079417952
-2.69441516138613E-05,9.93537560134428E-06,8.26171875,3.42036368288256,1.50018079417952
-2.72732195298886E-05,9.77837771642953E-06,8.26171875,3.42156312725521,1.50018079417952
-2.63251095020678E-05,9.74900922301458E-06,8.26171875,3.42276664631246,1.50018079417952
-2.68807671091054E-05,1.1915458344447E-05,8.26171875,3.42397421176025,1.50018079417952
-2.60833639913471E-05,1.30486760099302E-05,8.26171875,3.42518579502678,1.50018079417952
-2.7088341084891E-05,1.35730833790149E-05,8.26171875,3.42640136727238,1.50018079417952
-2.55835911957547E-05,1.16922456072643E-05,8.26171875,3.42762089939951,1.50018079417952
-2.57698884524871E-05,1.14182248580619E-05,8.26171875,3.4288443620628,1.50018079417952
-2.3704251361778E-05,1.04541149994475E-05,8.26171875,3.43007172567909,1.50018079417952
-2.40126501012128E-05,1.11380795715377E-05,8.26171875,3.43130296043774,1.50018079417952
-2.29721572395647E-05,1.06196757769794E-05,8.26171875,3.43253803631116,1.50018079417952
-2.37068579735933E-05,9.94110996543895E-06,8.26171875,3.43377692306574,1.50018079417952
-2.32947131735273E-05,8.67172093421686E-06,8.26171875,3.43501959027327,1.50018079417952
-2.32329821301391E-05,8.42574081616476E-06,8.26171875,3.43626600732277,1.50018079417952
-2.176831367251E-05,8.71367319632554E-06,8.26171875,3.43751614343278,1.50018079417952
-2.17161687032785E-05,1.10203973235912E-05,8.26171875,3.43876996766397,1.50018079417952
-2.21228347072611E-05,1.29771387946676E-05,8.26171875,3.44002744893224,1.50018079417952
-2.2440433895099E-05,1.2716509445454E-05,8.26171875,3.44128855602225,1.50018079417952
-1.74348751897924E-05,8.0352210716228E-06,8.26171875,3.44255325760142,1.50018079417952
-2.39736964431359E-05,1.08914464362897E-05,8.26171875,3.4438215222344,1.50018079417952
-1.8625632947078E-05,9.32809143705526E-06,8.26171875,3.44509331839796,1.50018079417952
-2.51291148742894E-05,1.25538044812856E-05,8.26171875,3.44636861449639,1.50018079417952
-2.18252152990317E-05,1.05208582681371E-05,8.26171875,3.44764737887714,1.50018079417952
-2.32782422244782E-05,1.28351166495122E-05,8.26171875,3.44892957984656,1.50018079417952
-2.03964209504193E-05,1.31113638417446E-05,8.26171875,3.45021518568546,1.50018079417952
-2.14179981412599E-05,1.50145697261905E-05,8.26171875,3.45150416466453,1.50018079417952
-2.13918028748594E-05,1.59054361574817E-05,8.26171875,3.45279648505952,1.50018079417952
-2.27175041800365E-05,1.61763891810551E-05,8.26171875,3.45409211516644,1.50018079417952
-2.35593342949869E-05,1.53283872350585E-05,8.26171875,3.45539102331664,1.50018079417952
-2.31432331929682E-05,1.37784145408659E-05,8.26171875,3.45669317789159,1.50018079417952
-2.45601549977437E-05,1.3159309673938E-05,8.26171875,3.45799854733752,1.50018079417952
-2.43274444073904E-05,1.24956031868351E-05,8.26171875,3.45930710017982,1.50018079417952
-2.47940206463682E-05,1.34342881210614E-05,8.26171875,3.46061880503733,1.50018079417952
-2.20309957512654E-05,1.29637837744667E-05,8.26171875,3.4619336306366,1.50018079417952
-2.13380990317091E-05,1.17718391265953E-05,8.26171875,3.46325154582608,1.50018079417952
-1.95480988622876E-05,8.4152961790096E-06,8.26171875,3.4645725195902,1.50018079417952
-2.11549104278674E-05,7.27394080968224E-06,8.26171875,3.46589652106316,1.50018079417952
-2.17530978261493E-05,7.52921187086031E-06,8.26171875,3.46722351954259,1.50018079417952
-2.25053136091447E-05,9.84695088845911E-06,8.26171875,3.46855348450301,1.50018079417952
-2.12172162719071E-05,1.22698174891411E-05,8.26171875,3.46988638560892,1.50018079417952
-2.15945983654819E-05,1.37506276587374E-05,8.26171875,3.47122219272756,1.50018079417952
-2.26879474212183E-05,1.2513148249127E-05,8.26171875,3.47256087594106,1.50018079417952
-2.44773909798823E-05,1.17651388791273E-05,8.26171875,3.47390240555819,1.50018079417952
-2.40413537540007E-05,1.12067991722142E-05,8.26171875,3.47524675212569,1.50018079417952
-2.30352252401644E-05,1.19950291264104E-05,8.26171875,3.47659388643936,1.50018079417952
-1.83911124622682E-05,1.10285682239919E-05,8.26171875,3.47794377955504,1.50018079417952
-2.6113370040548E-05,1.54103472596034E-05,8.26171875,3.47929640279952,1.50018079417952
-2.0681209207396E-05,1.1440343769209E-05,8.26171875,3.48065172778096,1.50018079417952
-2.62692719843471E-05,1.45009216794278E-05,8.26171875,3.48200972639909,1.50018079417952
-2.22056969505502E-05,1.29019072119263E-05,8.26171875,3.48337037085503,1.50018079417952
-2.47603657044237E-05,1.56258374772733E-05,8.26171875,3.48473363366102,1.50018079417952
-2.28536264330614E-05,1.47743648994947E-05,8.26171875,3.4860994876499,1.50018079417952
-2.3669899746892E-05,1.47949440361117E-05,8.26171875,3.48746790598453,1.50018079417952
-2.31234425882576E-05,1.29189411381958E-05,8.26171875,3.48883886216683,1.50018079417952
-2.31743288168218E-05,1.10346354631474E-05,8.26171875,3.49021233004653,1.50018079417952
-2.34722210734617E-05,1.05580711533548E-05,8.26171875,3.49158828382949,1.50018079417952
-2.34758936130675E-05,1.02687417893321E-05,8.26171875,3.49296669808566,1.50018079417952
-2.50809243880212E-05,1.12968846224248E-05,8.26171875,3.49434754775647,1.50018079417952
-2.43090107687749E-05,1.18550296974718E-05,8.26171875,3.49573080816199,1.50018079417952
-2.4233262593043E-05,1.36083763209172E-05,8.26171875,3.49711645500771,1.50018079417952
-2.17219003388891E-05,1.30700655063265E-05,8.26171875,3.49850446439103,1.50018079417952
-2.25836283789249E-05,1.17199824671843E-05,8.26171875,3.49989481280758,1.50018079417952
-2.27284399443306E-05,8.5583151303581E-06,8.26171875,3.50128747715704,1.50018079417952
-2.41106608882546E-05,8.04374576546252E-06,8.26171875,3.50268243474852,1.50018079417952
-2.3007916752249E-05,8.30393491924042E-06,8.26171875,3.50407966330545,1.50018079417952
-2.36042396863922E-05,9.33064166019904E-06,10.37109375,3.50547914096989,1.50018079417952
-2.31109443120658E-05,8.85428653418785E-06,10.37109375,3.50688084630639,1.50018079417952
-2.35477091337089E-05,9.21839728107443E-06,10.37109375,3.50828475830517,1.50018079417952
-2.36742416745983E-05,8.71804786584107E-06,10.37109375,3.50969085638487,1.50018079417952
-2.49980694206897E-05,7.28837039787322E-06,10.37109375,3.51109912039469,1.50018079417952
-2.58192849287298E-05,5.89869523537345E-06,10.37109375,3.51250953061601,1.50018079417952
-2.56855873885797E-05,5.23572543897899E-06,10.37109375,3.51392206776382,1.50018079417952
-2.02872688532807E-05,4.79013988297083E-06,10.37109375,3.51533671298778,1.50018079417952
-2.8174981707707E-05,8.45779777591815E-06,10.37109375,3.51675344787327,1.50018079417952
-2.06431050173705E-05,1.00718143585254E-05,10.37109375,3.51817225444191,1.50018079417952
-2.55518443736946E-05,1.33913536046748E-05,10.37109375,3.51959311515187,1.50018079417952
-2.09201134566683E-05,1.31992173919571E-05,10.37109375,3.52101601289751,1.50018079417952
-2.34910330618732E-05,1.32707036755164E-05,10.37109375,3.52244093100873,1.50018079417952
-2.06702316063456E-05,1.1476198778837E-05,10.37109375,3.52386785324988,1.50018079417952
-2.2184154659044E-05,1.07790820038645E-05,10.37109375,3.52529676381849,1.50018079417952
-2.22517410293221E-05,1.10628952825209E-05,10.37109375,3.52672764734385,1.50018079417952
-2.31318208534503E-05,1.13163941932726E-05,10.37109375,3.52816048888558,1.50018079417952
-2.45645842369413E-05,1.18021534945001E-05,10.37109375,3.52959527393203,1.50018079417952
-2.45298924710369E-05,1.22067540360149E-05,10.37109375,3.53103198839837,1.50018079417952
-2.53460166277364E-05,1.19481865112903E-05,10.37109375,3.53247061862447,1.50018079417952
-2.41289581026649E-05,1.09651518869214E-05,10.37109375,3.53391115137242,1.50018079417952
-2.47835105255945E-05,1.00317047326826E-05,10.37109375,3.535353573824,1.50018079417952
-2.23503975576023E-05,8.09026005299529E-06,10.37109375,3.53679787357788,1.50018079417952
-2.25189942284487E-05,6.70393819746096E-06,10.37109375,3.53824403864666,1.50018079417952
-2.21525133383693E-05,5.98388123762561E-06,10.37109375,3.53969205745353,1.50018079417952
-2.47547613980714E-05,6.81919209455373E-06,10.37109375,3.54114191882874,1.50018079417952
-2.49021031777374E-05,7.40043788027833E-06,10.37109375,3.54259361200586,1.50018079417952
-2.55407776421634E-05,8.21934281702852E-06,10.37109375,3.54404712661791,1.50018079417952
-2.42584028455894E-05,8.99885526450817E-06,10.37109375,3.54550245269324,1.50018079417952
-2.4720871806494E-05,9.04543685464887E-06,10.37109375,3.54695958065147,1.50018079417952
-2.53121579589788E-05,8.71497377374908E-06,10.37109375,3.54841850129916,1.50018079417952
-2.52391455433099E-05,9.77878335106652E-06,10.37109375,3.5498792058254,1.50018079417952
-2.42060796153964E-05,1.20125450848718E-05,10.37109375,3.55134168579723,1.50018079417952
-2.37983531405916E-05,1.42203070936375E-05,10.37109375,3.55280593315478,1.50018079417952
-1.84017317224061E-05,1.23834015539614E-05,10.37109375,3.55427194020626,1.50018079417952
-2.63666224782355E-05,1.77463552972768E-05,10.37109375,3.55573969962286,1.50018079417952
-2.10716971196234E-05,1.33553139676224E-05,10.37109375,3.55720920443358,1.50018079417952
-2.70471955445828E-05,1.59957235155161E-05,10.37109375,3.55868044802027,1.50018079417952
-2.4252743969555E-05,1.33361963889911E-05,10.37109375,3.5601534241125,1.50018079417952
-2.69370775640709E-05,1.53284854604863E-05,10.37109375,3.56162812678232,1.50018079417952
-2.394687726337E-05,1.4102908608038E-05,10.37109375,3.56310455043883,1.50018079417952
-2.41973320953548E-05,1.55921588884667E-05,10.37109375,3.56458268982276,1.50018079417952
-2.33598129852908E-05,1.62296546477592E-05,10.37109375,3.56606254000095,1.50018079417952
-2.20417805394391E-05,1.60152703756467E-05,10.37109375,3.56754409636061,1.50018079417952
-2.0894472982036E-05,1.47007822306477E-05,10.37109375,3.56902735460352,1.50018079417952
-2.06302702281391E-05,1.23638674267568E-05,10.37109375,3.5705123107403,1.50018079417952
-2.27663713303627E-05,1.17128129204502E-05,10.37109375,3.5719989610849,1.50018079417952
-2.26132360694464E-05,1.09270558823482E-05,10.37109375,3.57348730224963,1.50018079417952
-2.38953325606417E-05,1.11867138912203E-05,10.37109375,3.57497733114036,1.50018079417952
-2.40786721406039E-05,9.50156027101912E-06,10.37109375,3.5764690449518,1.50018079417952
-2.64067148236791E-05,9.35663501877571E-06,10.37109375,3.57796244116253,1.50018079417952
-2.56007242569467E-05,8.98573580343509E-06,10.37109375,3.57945751752985,1.50018079417952
-2.50671073445119E-05,1.08047452158644E-05,10.37109375,3.58095427208464,1.50018079417952
-2.30122186621884E-05,1.1502917004691E-05,10.37109375,3.58245270312629,1.50018079417952
-2.38136290136026E-05,1.26560444186907E-05,10.37109375,3.58395280921771,1.50018079417952
-2.43241684074746E-05,1.2559591596073E-05,10.37109375,3.58545458918028,1.50018079417952
-2.61504865193274E-05,1.26340228234767E-05,10.37109375,3.58695804208863,1.50018079417952
-2.6554209398455E-05,1.1814483514172E-05,10.37109375,3.58846316726521,1.50018079417952
-2.74931608146289E-05,1.1397044545447E-05,10.37109375,3.58996996427493,1.50018079417952
-2.81884404103039E-05,1.174684803118E-05,10.37109375,3.59147843292003,1.50018079417952
-2.78727475233609E-05,1.17299523481051E-05,10.37109375,3.59298857323528,1.50018079417952
-2.191463681811E-05,8.59430474520195E-06,10.37109375,3.59450038548379,1.50018079417952
-2.98455925076269E-05,1.21748798846966E-05,10.37109375,3.59601387015302,1.50018079417952
-2.05674059543526E-05,9.30761780182365E-06,10.37109375,3.59752902795087,1.50018079417952
-2.56903786066687E-05,1.11864883365342E-05,10.37109375,3.59904585980162,1.50018079417952
-2.08194596780231E-05,8.47411956783617E-06,10.37109375,3.60056436684154,1.50018079417952
-2.42276637436589E-05,9.78080151980976E-06,10.37109375,3.60208455041468,1.50018079417952
-2.29985398618737E-05,9.98862105916487E-06,10.37109375,3.60360641206867,1.50018079417952
-2.45980445470195E-05,1.01356154118548E-05,10.37109375,3.60512995355085,1.50018079417952
-2.28055469051469E-05,8.10598157841014E-06,10.37109375,3.60665517680448,1.50018079417952
-2.15898617170751E-05,7.29237126506632E-06,10.37109375,3.60818208396493,1.50018079417952
-2.06890963454498E-05,8.50228207127657E-06,10.37109375,3.60971067735583,1.50018079417952
-1.95644843188347E-05,9.3775097411708E-06,10.37109375,3.61124095948544,1.50018079417952
-2.07937337108888E-05,1.02106378108147E-05,10.37109375,3.61277293304349,1.50018079417952
-2.09133704629494E-05,9.39072924666107E-06,10.37109375,3.61430660089855,1.50018079417952
-2.3579406843055E-05,9.66881634667516E-06,10.37109375,3.61584196609606,1.50018079417952
-2.28196313400986E-05,9.67226060311077E-06,10.37109375,3.61737903185659,1.50018079417952
-2.3490838430007E-05,1.00040451798122E-05,10.37109375,3.61891780157415,1.50018079417952
-2.11848273465876E-05,8.46604234538972E-06,10.37109375,3.62045827881409,1.50018079417952
-2.14113806578098E-05,8.0676945799496E-06,10.37109375,3.62200046731075,1.50018079417952
-2.02935680135852E-05,8.01902297098422E-06,10.37109375,3.62354437096476,1.50018079417952
-2.15679228858789E-05,9.37190452532377E-06,10.37109375,3.62508999384027,1.50018079417952
-2.20373658521567E-05,1.03477777884109E-05,10.37109375,3.62663734016222,1.50018079417952
-2.39042201428674E-05,1.08927215478616E-05,10.37109375,3.62818641431355,1.50018079417952
-2.40685330936685E-05,1.04531336546643E-05,10.37109375,3.62973722083229,1.50018079417952
-2.36545620282413E-05,1.05774261101033E-05,10.37109375,3.63128976440851,1.50018079417952
-2.28760927711846E-05,1.1217967767152E-05,10.37109375,3.63284404988121,1.50018079417952
-2.39308374148095E-05,1.14011327241315E-05,10.37109375,3.63440008223521,1.50018079417952
-2.03009403776377E-05,8.84834389580647E-06,10.37109375,3.63595786659794,1.50018079417952
-2.93450793833472E-05,1.31069818962715E-05,10.37109375,3.63751740823607,1.50018079417952
-2.21207174035953E-05,1.00936385933892E-05,10.37109375,3.63907871255194,1.50018079417952
-2.61464629147667E-05,9.97258484858321E-06,10.37109375,3.64064178507999,1.50018079417952
-2.19349985854933E-05,6.27642157269293E-06,10.37109375,3.64220663148351,1.50018079417952
-2.53416674240725E-05,8.38259256852325E-06,10.37109375,3.64377325755145,1.50018079417952
-2.35905954468763E-05,9.42202677833848E-06,10.37109375,3.64534166919527,1.50018079417952
-2.43416925513884E-05,1.13015921670012E-05,10.37109375,3.64691187244571,1.50018079417952
-2.28194930969039E-05,1.07365904113976E-05,10.37109375,3.64848387344927,1.50018079417952
-2.24700179387582E-05,1.01849882412353E-05,10.37109375,3.65005767846471,1.50018079417952
-2.35439965763362E-05,1.06748748294194E-05,10.37109375,3.65163329385927,1.50018079417952
-2.40311255765846E-05,1.16135061034583E-05,10.37109375,3.65321072610466,1.50018079417952
-2.54814331128728E-05,1.23651880130637E-05,10.37109375,3.65478998177286,1.50018079417952
-2.44185321207624E-05,1.15078346425435E-05,10.37109375,3.65637106753166,1.50018079417952
-2.49234853981761E-05,1.14988833956886E-05,10.37109375,3.65795399014039,1.50018079417952
-2.29138568101916E-05,1.12299303509644E-05,10.37109375,3.65953875644548,1.50018079417952
-2.37351287069032E-05,1.18126117740758E-05,10.37109375,3.66112537337622,1.50018079417952
-2.31535705097485E-05,1.03345828392776E-05,10.37109375,3.66271384794032,1.50018079417952
-2.36701980611542E-05,9.5867608251865E-06,10.37109375,3.66430418721928,1.50018079417952
-2.14722749660723E-05,8.81475261849118E-06,10.37109375,3.66589639836353,1.50018079417952
-2.12998165807221E-05,9.89119598671095E-06,10.37109375,3.6674904885875,1.50018079417952
-2.09682493732544E-05,9.96248309093062E-06,10.37109375,3.66908646516457,1.50018079417952
-2.2569804059458E-05,9.21687751542777E-06,10.37109375,3.67068433542224,1.50018079417952
-2.34885919780936E-05,7.84883741289377E-06,10.37109375,3.67228410673763,1.50018079417952
-2.38563025050098E-05,7.33540446162806E-06,10.37109375,3.67388578653299,1.50018079417952
-2.43268605117919E-05,6.51832897347049E-06,10.37109375,3.67548938227134,1.50018079417952
-2.46071576839313E-05,6.39898507870384E-06,10.37109375,3.67709490145193,1.50018079417952
-2.0576355382218E-05,6.13489009992918E-06,10.37109375,3.67870235160577,1.50018079417952
-2.86743033939274E-05,8.83037591847824E-06,10.37109375,3.68031174029108,1.50018079417952
-2.12763825402362E-05,6.96446795700467E-06,10.37109375,3.68192307508858,1.50018079417952
-2.68430085270666E-05,9.80402091954602E-06,10.37109375,3.68353636359685,1.50018079417952
-2.26367737923283E-05,1.02819531093701E-05,10.37109375,3.68515161342767,1.50018079417952
-2.52220143011073E-05,1.10031787698972E-05,10.37109375,3.68676883220153,1.50018079417952
-2.30059977184283E-05,9.46739510254702E-06,10.37109375,3.68838802754309,1.50018079417952
-2.43955073528923E-05,9.60864781518467E-06,10.37109375,3.69000920707663,1.50018079417952
-2.36613213928649E-05,9.93504818325164E-06,10.37109375,3.69163237842137,1.50018079417952
-2.34712606470566E-05,9.86338727670955E-06,10.37109375,3.69325754918658,1.50018079417952
