biceps_emg, triceps_emg, subject_position, position_estimate, brace_position
-2.02861592697445E-05,1.30260432342766E-05,-3.1640625,-5.34524078652858,0
-1.7580583516974E-05,4.52201493317261E-06,-3.1640625,-5.34523772338706,0
-2.57335650530877E-05,4.91399759994238E-06,-3.1640625,-5.34523159544168,0
-1.89254569704644E-05,4.94058986078016E-06,-3.1640625,-5.34522240117471,0
-2.24323994189035E-05,1.00280994956847E-05,-3.1640625,-5.3452101392134,0
-1.98226280190283E-05,9.94442689261632E-06,-3.1640625,-5.34519480832989,0
-2.30654095503269E-05,1.05966055343742E-05,-3.1640625,-5.34517640744037,0
-2.23892493522726E-05,9.79871947492938E-06,-3.1640625,-5.34515493560376,0
-2.29758552450221E-05,1.01265577541199E-05,-3.1640625,-5.34513039201952,0
-2.15971758734668E-05,8.48353465698892E-06,-3.1640625,-5.34510277602465,0
-2.17761789826909E-05,5.06399328514817E-06,-3.1640625,-5.34507208708973,0
-2.34419039770728E-05,1.63096228789072E-06,-3.1640625,-5.34503832481398,0
-2.40227236645296E-05,8.51333254558995E-07,-3.1640625,-5.34500148891948,0
-2.50547200266737E-05,3.53705399902537E-06,-3.1640625,-5.34496157924448,0
-2.43249669438228E-05,5.94436050960212E-06,-3.1640625,-5.34491859573566,0
-2.54728820436867E-05,7.7407639764715E-06,-3.1640625,-5.34487253843929,0
-2.48407068283996E-05,7.47562853575801E-06,-3.1640625,-5.34482340749128,0
-2.54407841566717E-05,6.73662452754797E-06,-3.1640625,-5.34477120310606,0
-2.40477220359026E-05,5.1328279369045E-06,-3.1640625,-5.34471592556463,0
-2.44507900788449E-05,5.72744875171338E-06,-3.1640625,-5.34465757520164,0
-2.41947182075819E-05,6.93719402988791E-06,-3.1640625,-5.34459615239184,0
-2.44144848693395E-05,8.31127363198902E-06,-3.1640625,-5.34453165753594,0
-2.271971970913E-05,9.34759555093478E-06,-3.1640625,-5.34446409104612,0
-2.23065271711675E-05,9.63855563895777E-06,-3.1640625,-5.34439345333126,0
-2.09188019653084E-05,9.1134743342991E-06,-3.1640625,-5.34431974478205,0
-2.02421688300092E-05,1.11833078335621E-05,-3.1640625,-5.34424296575629,0
-2.05382038984681E-05,1.50686746565043E-05,-3.1640625,-5.34416311656449,0
-2.03979143407196E-05,1.81065752258291E-05,-3.1640625,-5.34408019745604,0
-1.62128162628505E-05,1.52308857650496E-05,-3.1640625,-5.34399420860604,0
-2.42015357798664E-05,1.99808564502746E-05,-3.1640625,-5.34390515010277,0
-2.04171192308422E-05,1.27565317598055E-05,-3.1640625,-5.34381302193597,0
-2.54915030382108E-05,1.69847189681605E-05,-3.1640625,-5.3437178239856,0
-2.28655608225381E-05,1.48991630339879E-05,-3.1640625,-5.34361955601109,0
-2.4762453904259E-05,1.94538442883641E-05,-3.1640625,-5.3435182176404,0
-2.22511880565435E-05,2.14915489777923E-05,-3.1640625,-5.3434138083592,0
-2.26115680561634E-05,2.39350483752787E-05,-3.1640625,-5.34330632749982,0
-2.133791349479E-05,1.90117116289912E-05,-3.1640625,-5.3431957742304,0
-2.09938989428338E-05,1.20767354019335E-05,-3.1640625,-5.34308214754419,0
-2.18663917621598E-05,7.88083798397565E-06,-3.1640625,-5.34296544624938,0
-2.30280547839357E-05,6.89834087097552E-06,-3.1640625,-5.34284566895934,0
-2.54706937994342E-05,9.33781939238543E-06,-3.1640625,-5.34272281408348,0
-2.60958713624859E-05,1.01667037597508E-05,-3.1640625,-5.34259687981829,0
-2.76161536021391E-05,1.02646436062059E-05,-3.1640625,-5.34246786413856,0
-2.67634786723647E-05,6.5576041379245E-06,-3.1640625,-5.34233576478834,0
-2.7384052373236E-05,5.88285638514208E-06,-3.1640625,-5.34220057927158,0
-2.59111184277572E-05,5.77218270336743E-06,-3.1640625,-5.34206230484239,0
-2.55579452641541E-05,7.88664692663588E-06,-3.1640625,-5.3419209384951,0
-2.36005089391256E-05,9.11105598788708E-06,-3.1640625,-5.34177647695428,0
-2.41329562413739E-05,1.19939813885139E-05,-3.1640625,-5.34162891666492,0
-2.46660983975744E-05,1.25059505080571E-05,-3.1640625,-5.34147825378304,0
-2.47046100412263E-05,1.21604116429808E-05,-3.1640625,-5.34132448416689,0
-2.31786689255387E-05,1.14450012915768E-05,-3.1640625,-5.34116760336876,0
-2.33179689530516E-05,1.19570413517067E-05,-3.1640625,-5.34100760662739,0
-2.369039975747E-05,1.15169741548016E-05,-3.1640625,-5.34084448886097,0
-2.37653512158431E-05,1.02558869912173E-05,-3.1640625,-5.34067824466083,0
-1.78252666955814E-05,8.88783961272566E-06,-3.1640625,-5.34050886828577,0
-2.33889913943131E-05,1.42488343044533E-05,-3.1640625,-5.3403363536569,0
-1.63198692462174E-05,1.2107154361729E-05,-3.1640625,-5.34016069435286,0
-2.19897428905824E-05,1.29920745166601E-05,-3.1640625,-5.33998188360506,0
-1.77744714164874E-05,1.12380839709658E-05,-3.1640625,-5.33979991429289,0
-2.08935216505779E-05,1.29527843455435E-05,-3.1640625,-5.33961477893895,0
-2.03499384952011E-05,1.2838047950936E-05,-3.1640625,-5.33942646970417,0
-2.29546840273542E-05,1.3614140698337E-05,-3.1640625,-5.33923497838312,0
-2.33553309954004E-05,1.43421229950036E-05,-3.1640625,-5.33904029639958,0
-2.4241155188065E-05,1.61321859195596E-05,-3.1640625,-5.3388424148025,0
-2.50125049205963E-05,1.55479319801088E-05,-3.1640625,-5.33864132426242,0
-2.40680510614766E-05,8.87927853909787E-06,-3.1640625,-5.33843701506814,0
-2.42925143538741E-05,2.6769755550049E-06,-3.1640625,-5.33822947712378,0
-2.33123701036675E-05,1.59687454015511E-06,-3.1640625,-5.33801869994603,0
-2.53092912316788E-05,4.20820970248315E-06,-3.1640625,-5.33780467266175,0
-2.64798818534473E-05,4.42863620264689E-06,-3.1640625,-5.33758738400598,0
-2.95870249829022E-05,4.52136964668171E-06,-3.1640625,-5.33736682232033,0
-2.88960545731243E-05,4.82509040011792E-06,-3.1640625,-5.33714297555148,0
-2.88880382868228E-05,6.75051887810696E-06,-3.1640625,-5.33691583124973,0
-2.76413702522404E-05,8.09210723673459E-06,-3.1640625,-5.33668537656726,0
-2.82181445072638E-05,9.80151889962144E-06,-3.1640625,-5.33645159825639,0
-2.69774391199462E-05,1.05809149317793E-05,-3.1640625,-5.33621448266783,0
-2.63107140199281E-05,1.10559085442219E-05,-3.1640625,-5.33597401574932,0
-2.42353362409631E-05,9.74495651462348E-06,-3.1640625,-5.33573018304475,0
-2.3161794160842E-05,7.05875299900072E-06,-3.1640625,-5.33548296969387,0
-2.35261268244358E-05,3.36803873324243E-06,-3.1640625,-5.33523236043275,0
-2.38889551837929E-05,1.08917629404459E-06,-3.1640625,-5.33497833959463,0
-1.97549306903966E-05,3.01485943055013E-06,-3.1640625,-5.33472089111129,0
-3.01504696835764E-05,5.94536368225818E-06,-3.1640625,-5.33445999851479,0
-2.55914328590734E-05,6.63455011817859E-06,-3.1640625,-5.33419564493954,0
-2.98516479233513E-05,1.21428993224981E-05,-3.1640625,-5.33392781312498,0
-2.44477960222866E-05,2.23736133193597E-05,-3.1640625,-5.33365648541864,0
-2.59827575064264E-05,3.35993390763178E-05,-3.1640625,-5.33338164377999,0
-2.4239609047072E-05,4.36014779552352E-05,-3.1640625,-5.33310326978477,0
-2.57615156442625E-05,5.06424003106076E-05,-3.1640625,-5.33282134463004,0
-2.48475480475463E-05,5.16512591275387E-05,-3.1640625,-5.33253584913987,0
-2.5725646992214E-05,4.61464005638845E-05,-3.1640625,-5.33224676377152,0
-2.72006782324752E-05,3.48869616573211E-05,-3.1640625,-5.33195406862211,0
-2.70236359938281E-05,2.08328729058849E-05,-3.1640625,-5.331657743436,0
-2.67876257566968E-05,8.81740470504155E-06,-3.1640625,-5.33135776761266,0
-2.40034169110004E-05,-4.29664805778884E-06,-3.1640625,-5.33105412021531,0
-2.380964178883E-05,-2.29870529437903E-05,-3.1640625,-5.33074677998007,0
-2.28645076276734E-05,-3.97092080675066E-05,-3.1640625,-5.33043572532555,0
-2.47232146648457E-05,-4.08605337725021E-05,-3.1640625,-5.33012093436266,0
-2.46841591433622E-05,-2.59326698142104E-05,-3.1640625,-5.32980238490429,0
-2.61150707956403E-05,-6.70326335239224E-06,-3.1640625,-5.32948005447503,0
-2.50560169661185E-05,6.33569970887038E-06,-3.1640625,-5.32915392032088,0
-2.51207402470754E-05,1.27121529658325E-05,-3.1640625,-5.32882395941937,0
-2.44607817876386E-05,1.31701026475639E-05,-3.1640625,-5.32849014849004,0
-2.47864481934812E-05,7.05246566212736E-06,-3.1640625,-5.32815246400548,0
-2.32925267482642E-05,-3.65716346095724E-06,-3.1640625,-5.32781088220275,0
-2.2518423065776E-05,-1.49796223922749E-05,-3.1640625,-5.32746537909524,0
-2.23920578719117E-05,-2.26163665502099E-05,-3.1640625,-5.32711593048471,0
-2.29732613661326E-05,-2.49410659307614E-05,-3.1640625,-5.32676251197359,0
-1.92152256204281E-05,-1.79191411007196E-05,-3.1640625,-5.32640509897726,0
-2.80558815575205E-05,-2.48097676376347E-05,-3.1640625,-5.32604366673618,0
-2.36049127124716E-05,-1.78880000021309E-05,-3.1640625,-5.3256781903282,0
-2.9825147066731E-05,-1.72350919456221E-05,-3.1640625,-5.32530864468082,0
-2.59070784522919E-05,-3.00381032047881E-07,-3.1640625,-5.32493500458371,0
-2.75793008768233E-05,1.03039146779338E-05,-3.1640625,-5.32455724470142,0
-2.39902547036763E-05,2.27768596232636E-05,-3.1640625,-5.3241753395862,0
-2.36417872656602E-05,2.57617848546943E-05,-3.1640625,-5.32378926369108,0
-2.19512494368246E-05,2.45396840909962E-05,-3.1640625,-5.323398991383,0
-2.12377235584427E-05,2.15123473026324E-05,-3.1640625,-5.32300449695611,0
-2.02029623324052E-05,1.94478689081734E-05,-3.1640625,-5.32260575464497,0
-1.90480259334436E-05,1.82653839146951E-05,-3.1640625,-5.32220273863755,0
-2.01987913897028E-05,1.39524754558806E-05,-3.1640625,-5.32179542308803,0
-2.04416974156629E-05,1.09098173197708E-05,-3.1640625,-5.32138378212932,0
-2.31981775868917E-05,8.85794543137308E-06,-3.1640625,-5.32096778988546,0
-2.35369861911749E-05,1.22363335322007E-05,-3.1640625,-5.32054742048401,0
-2.46704312303336E-05,1.40341653604992E-05,-3.1640625,-5.3201226480687,0
-2.28753724513808E-05,1.67729103850434E-05,-3.1640625,-5.31969344681247,0
-2.2713165890309E-05,1.69094473676523E-05,-3.1640625,-5.31925979093081,0
-2.04164189199219E-05,1.80907536559971E-05,-3.1640625,-5.31882165469549,0
-2.04452389880316E-05,1.77104684553342E-05,-3.1640625,-5.31837901244849,0
-2.0311335902079E-05,1.86719607881969E-05,-3.1640625,-5.31793183861628,0
-2.16442185774213E-05,1.80560837179655E-05,-3.1640625,-5.31748010772414,0
-2.141784534615E-05,1.80268452822929E-05,-3.1640625,-5.31702379441067,0
-2.18921250052517E-05,1.83426091098227E-05,-3.1640625,-5.31656287344249,0
-2.25106996367686E-05,2.06808254006319E-05,-3.1640625,-5.31609731972917,0
-2.37760377785889E-05,2.28967128350632E-05,-3.1640625,-5.31562710833845,0
-2.08402670978103E-05,1.84149939741474E-05,-3.1640625,-5.31515221451181,0
-3.01228501484729E-05,2.5629920855863E-05,-3.1640625,-5.31467261367999,0
-2.33411556109786E-05,1.7802502043196E-05,-3.1640625,-5.3141882814787,0
-2.78246734524146E-05,2.15602267417125E-05,-3.1640625,-5.31369919376415,0
-2.23870119953062E-05,1.71616575244116E-05,-3.1640625,-5.31320532662829,0
-2.40215522353537E-05,1.90472401300212E-05,-3.1640625,-5.31270665641389,0
-2.13212788366945E-05,1.34229285322363E-05,-3.1640625,-5.31220315972955,0
-2.26589654630516E-05,1.10342898551608E-05,-3.1640625,-5.31169481346485,0
-2.21542195504298E-05,9.49596869759262E-06,-3.1640625,-5.3111815948056,0
-2.25473577302182E-05,1.27158709801733E-05,-3.1640625,-5.31066348124936,0
-2.40148165175924E-05,1.75365948962281E-05,-3.1640625,-5.3101404506209,0
-2.47584848693805E-05,2.09224908758188E-05,-3.1640625,-5.30961248108781,0
-2.55645427387208E-05,2.30749592446955E-05,-3.1640625,-5.30907955117611,0
-2.36130290431902E-05,2.07570574275451E-05,-3.1640625,-5.30854163978575,0
-2.38086013268912E-05,1.71710689755855E-05,-3.1640625,-5.30799872620596,0
-2.2616921341978E-05,1.02545845948043E-05,-3.1640625,-5.30745079013054,0
-2.30289097089553E-05,9.9341577879386E-06,-3.1640625,-5.30689781167294,0
-2.02375467779348E-05,1.52844022522913E-05,-3.1640625,-5.30633977138135,0
-1.95008069567848E-05,2.54889091593213E-05,-3.1640625,-5.30577665025368,0
-1.78089558175998E-05,2.94005349132931E-05,-3.1640625,-5.30520842975224,0
-1.9643222913146E-05,2.73835394182242E-05,-3.1640625,-5.30463509181806,0
-2.09382833418204E-05,1.91531871678308E-05,-3.1640625,-5.30405661888471,0
-2.32691018027253E-05,1.294001685892E-05,-3.1640625,-5.3034729938916,0
-2.41292418650119E-05,9.31967315409565E-06,-3.1640625,-5.30288420029691,0
-2.56014773185598E-05,8.74021225172328E-06,-3.1640625,-5.3022902220902,0
-2.68951007456053E-05,8.14139912108658E-06,-3.1640625,-5.30169104380465,0
-2.73835084954044E-05,8.24829294288065E-06,-3.1640625,-5.30108665052861,0
-2.13807015825296E-05,8.35548416944221E-06,-3.1640625,-5.30047702791659,0
-2.94555429718457E-05,1.53038126882166E-05,-3.1640625,-5.29986216219937,0
-2.00539780053077E-05,1.76176563400077E-05,-3.1640625,-5.29924204019361,0
-2.34267317864578E-05,2.12586546695093E-05,-3.1640625,-5.29861664931106,0
-1.90913506230572E-05,2.00598515220918E-05,-3.1640625,-5.29798597756741,0
-2.40283825405641E-05,2.10518392123049E-05,-3.1640625,-5.29735001359088,0
-2.24385657929815E-05,1.93263385881437E-05,-3.1640625,-5.29670874663055,0
-2.37974782066885E-05,1.67475645866944E-05,-3.1640625,-5.29606216656427,0
-2.27896798605798E-05,1.30901171360165E-05,-3.1640625,-5.29541026390644,0
-2.27190485020401E-05,1.00833531178068E-05,-3.1640625,-5.29475302981551,0
-2.43449267145479E-05,9.12251198315062E-06,-3.1640625,-5.29409045610123,0
-2.52603731496492E-05,1.04261962405872E-05,-3.1640625,-5.2934225352316,0
-2.68669446086278E-05,1.33077382997726E-05,-3.1640625,-5.2927492603395,0
-2.52136214839993E-05,1.53322253027E-05,-3.1640625,-5.29207062522869,0
-2.53603775490774E-05,1.72884028870612E-05,-3.1640625,-5.2913866243794,0
-2.38038192037493E-05,1.71831889019813E-05,-3.1640625,-5.29069725295321,0
-2.5463268684689E-05,1.64439497893909E-05,-3.1640625,-5.29000250679757,0
-2.54973765549948E-05,1.34164765768219E-05,-3.1640625,-5.28930238244994,0
-2.75593665719498E-05,9.7364991233917E-06,-3.1640625,-5.28859687714151,0
-2.69028860202525E-05,5.83881364946137E-06,-3.1640625,-5.2878859888006,0
-2.72385605057934E-05,5.0420499064785E-06,-3.1640625,-5.28716971605542,0
-2.51708861469524E-05,6.67613585392246E-06,-3.1640625,-5.28644805823623,0
-2.37421845667996E-05,9.55786981648998E-06,-3.1640625,-5.28572101537685,0
-2.18333025259199E-05,1.0322565685783E-05,-3.1640625,-5.28498858821549,0
-2.09292174986331E-05,9.56486928771483E-06,-3.1640625,-5.28425077819521,0
-1.91206490853801E-05,8.66270602273289E-06,-3.1640625,-5.2835075874637,0
-1.76063294929918E-05,8.61090484249871E-06,-3.1640625,-5.28275901887239,0
-1.56879323185422E-05,7.21663218428148E-06,-3.1640625,-5.28200507597472,0
-2.43263657466741E-05,9.99269923340762E-06,-3.1640625,-5.28124576302347,0
-2.13126222661231E-05,7.05594311511959E-06,-3.1640625,-5.28048108496708,0
-2.59711323451484E-05,7.52789355829009E-06,-3.1640625,-5.27971104744531,0
-2.42690803133883E-05,4.35630363426753E-06,-3.1640625,-5.27893565678426,0
-2.62423818639945E-05,4.24338395532686E-06,-3.1640625,-5.27815491999118,0
-2.35674142459175E-05,2.11086921808601E-06,-3.1640625,-5.27736884474868,0
-2.42600690398831E-05,1.85167164090672E-06,-3.1640625,-5.2765774394086,0
-2.40954959735973E-05,1.92369020624028E-06,-3.1640625,-5.2757807129854,0
-2.41037323576165E-05,5.19363584317034E-06,-3.1640625,-5.27497867514916,0
-2.4175282305805E-05,1.19366022772738E-05,-3.1640625,-5.27417133621834,0
-2.45382707362296E-05,1.74875731318025E-05,-3.1640625,-5.27335870715219,0
-2.65772559941979E-05,1.77596812136471E-05,-3.1640625,-5.27254079954293,0
-2.62418179772794E-05,1.08736894617323E-05,-3.1640625,-5.27171762560746,0
-2.58555501204683E-05,3.75037939193135E-06,-3.1640625,-5.27088919817868,0
-2.35170828091213E-05,6.05790717145283E-07,-3.1640625,-5.27005553069623,0
-2.42573933064705E-05,3.28860005538445E-06,-3.1640625,-5.26921663719677,0
-2.41116958932253E-05,6.37599805486389E-06,-3.1640625,-5.26837253230402,0
-2.49228378379485E-05,8.98220514500281E-06,-3.1640625,-5.26752323121844,0
-2.37132862821454E-05,9.87812654784648E-06,-3.1640625,-5.26666874970681,0
-2.41566140175564E-05,1.11489043774782E-05,-3.1640625,-5.26580910409162,0
-2.50442117248895E-05,1.11402705442742E-05,-3.1640625,-5.2649443112403,0
-2.68064286501613E-05,1.12330699266749E-05,-3.1640625,-5.26407438855429,0
-2.63304809777765E-05,1.24734651762992E-05,-3.1640625,-5.26319935395788,0
-2.5656474463176E-05,1.37539309434942E-05,-3.1640625,-5.26231922588677,0
-2.5271307094954E-05,1.32411014419631E-05,-3.1640625,-5.26143402327631,0
-2.52218196692411E-05,1.20658451123745E-05,-3.1640625,-5.26054376554945,0
-2.02721548703266E-05,9.12470659386599E-06,-3.1640625,-5.25964847260448,0
-2.83218923868844E-05,1.28310157379019E-05,-3.1640625,-5.25874816480256,0
-2.17044998862548E-05,9.06123204913456E-06,-3.1640625,-5.25784286295515,0
-2.72796332865255E-05,1.04752871266101E-05,-3.1640625,-5.25693258831118,0
-2.25227449845988E-05,7.47184640204068E-06,-3.1640625,-5.25601736254426,0
-2.56738439929904E-05,7.79028414399363E-06,-3.1640625,-5.25509720773981,0
-2.37782714975765E-05,7.32740909370477E-06,-3.1640625,-5.25417214638225,0
-2.60861070273677E-05,9.04244643606944E-06,-3.1640625,-5.25324220134213,0
-2.60651577264071E-05,9.75016973825404E-06,-3.1640625,-5.25230739586333,0
-2.66387669398682E-05,1.13401974886074E-05,-3.1640625,-5.25136775355025,0
-2.73142304649809E-05,1.26667473523412E-05,-3.1640625,-5.25042329835492,0
-2.59529169852613E-05,1.2160270671302E-05,-3.1640625,-5.2494740545641,0
-2.55704107985366E-05,1.19053620437626E-05,-3.1640625,-5.24852004678622,0
-2.32854890782619E-05,1.10327900983975E-05,-3.1640625,-5.24756129993818,0
-2.36948562815087E-05,1.05413555502309E-05,-3.1640625,-5.24659783923222,0
-2.27674554480473E-05,8.43739599076798E-06,-3.1640625,-5.24562969016261,0
-2.45358241954818E-05,8.46508373797406E-06,-3.1640625,-5.24465687849236,0
-2.34502967941808E-05,8.52045195642859E-06,-3.1640625,-5.24367943023968,0
-2.43469530687435E-05,8.09490666142665E-06,-3.1640625,-5.24269737166448,0
-2.36202540691011E-05,5.88942248214153E-06,-3.1640625,-5.24171072925476,0
-2.44779803324491E-05,6.83233292875229E-06,-3.1640625,-5.24071952971307,0
-2.36499126913259E-05,9.93828962236876E-06,-3.1640625,-5.23972379994298,0
-2.37032727454789E-05,1.30941243696725E-05,-3.1640625,-5.23872356703571,0
-2.29615961870877E-05,1.42456601679442E-05,-3.1640625,-5.23771885825672,0
-2.2869589884067E-05,1.40289621413103E-05,-3.1640625,-5.23670970103247,0
-2.32426300499355E-05,1.33722005557502E-05,-3.1640625,-5.23569612293716,0
-2.46957843046403E-05,1.49357729242183E-05,-3.1640625,-5.2346781516795,0
-2.12551549338968E-05,1.53834243974416E-05,-3.1640625,-5.23365581508948,0
-3.08289236272685E-05,2.34443486988312E-05,-3.1640625,-5.23262914110539,0
-2.27144173550187E-05,1.82001240318641E-05,-3.1640625,-5.23159815776079,0
-2.77279432339128E-05,1.98275629372802E-05,-3.1640625,-5.23056289317172,0
-2.50649991357932E-05,1.56747137225466E-05,-3.1640625,-5.22952337552381,0
-2.89069830614608E-05,1.5648774933652E-05,-3.1640625,-5.22847963305943,0
-2.81743941741297E-05,1.22178653327865E-05,-3.1640625,-5.22743169406492,0
-2.91413180093514E-05,1.30768385133706E-05,-3.1640625,-5.22637958685777,0
-2.65943672275171E-05,1.22411383927101E-05,-3.1640625,-5.22532333977386,0
-2.51035362452967E-05,1.00781981018372E-05,-3.1640625,-5.22426298115444,0
-2.4990191377583E-05,7.54212305764668E-06,-3.1640625,-5.22319853933329,0
-2.45638966589468E-05,5.93071717958082E-06,-3.1640625,-5.22213004262398,0
-2.50079683610238E-05,8.07283959147753E-06,-3.1640625,-5.22105751930738,0
-2.36330452025868E-05,1.1451743375801E-05,-3.1640625,-5.2199809976194,0
-2.52657791861566E-05,1.83047723112395E-05,-3.1640625,-5.21890050573903,0
-2.41174584516557E-05,2.20578840526287E-05,-3.1640625,-5.21781607177654,0
-2.32145484915236E-05,1.96644414245384E-05,-3.1640625,-5.21672772376202,0
-2.00851336558117E-05,1.09334023363772E-05,-3.1640625,-5.21563548963414,0
-2.03032122954028E-05,7.97703887656098E-06,-3.1640625,-5.21453939722905,0
-1.96882356249262E-05,8.15546991361771E-06,-3.1640625,-5.21343947426926,0
-2.10251091630198E-05,8.97969312063651E-06,-3.1640625,-5.21233574835226,0
-2.15983145608334E-05,8.32081332191592E-06,-3.1640625,-5.21122824693893,0
-2.35721872741124E-05,1.1486958101159E-05,-3.1640625,-5.21011699734178,0
-2.40841818595072E-05,1.98930792976171E-05,-3.1640625,-5.2090020267133,0
-2.37752155953785E-05,3.13074451696593E-05,-3.1640625,-5.20788336203463,0
-2.26369011215866E-05,3.92364418075886E-05,-3.1640625,-5.20676103010463,0
-2.18880704778712E-05,4.21224249294028E-05,-3.1640625,-5.20563505752947,0
-1.84026375791291E-05,3.38615391228814E-05,-3.1640625,-5.2045054707126,0
-2.63632464339025E-05,4.71712592116091E-05,-3.1640625,-5.203372295845,0
-2.01913389901165E-05,3.13652853947133E-05,-3.1640625,-5.20223555889574,0
-2.52339177677641E-05,2.7105257686344E-05,-3.1640625,-5.20109528560271,0
-2.28023272939026E-05,-5.62905279366532E-06,-3.1640625,-5.19995150146396,0
-2.61645673163002E-05,-1.92767965927487E-05,-3.1640625,-5.19880423172937,0
-2.40362351178192E-05,-1.36293974719592E-05,-3.1640625,-5.19765350139286,0
-2.39408764173277E-05,1.02731082733953E-05,-3.1640625,-5.19649933518489,0
-2.28052831516834E-05,1.83826359716477E-05,-3.1640625,-5.19534175756515,0
-2.41505968006095E-05,9.50670437305234E-06,-3.1640625,-5.19418079271574,0
-2.57154460996389E-05,-8.00091402197722E-06,-3.1640625,-5.19301646453481,0
-2.44975908572087E-05,-2.35963725572219E-05,-3.1640625,-5.19184879663095,0
-2.3670174414292E-05,-2.9570310289273E-05,-3.1640625,-5.19067781231787,0
-2.15633735933807E-05,-3.36759912897833E-05,-3.1640625,-5.18950353460968,0
-2.20269885176094E-05,-3.07254340441432E-05,-3.1640625,-5.18832598621636,0
-2.14287993003381E-05,-3.05332359857857E-05,-3.1640625,-5.1871451895399,0
-2.37434851442231E-05,-2.9596449167002E-05,-3.1640625,-5.18596116667079,0
-2.34091057791375E-05,-3.36114753736183E-05,-3.1640625,-5.18477393938516,0
-2.37006242969073E-05,-2.82406745100161E-05,-3.1640625,-5.18358352914241,0
-2.23895203816937E-05,-1.63509739650181E-05,-3.1640625,-5.18238995708359,0
-2.33228347497061E-05,2.68977146333782E-06,-3.1640625,-5.18119324403038,0
-2.37787626247155E-05,1.51395306602353E-05,-3.1640625,-5.17999341048484,0
-2.47171501541743E-05,2.13914518099045E-05,-3.1640625,-5.17879047662982,0
-2.44446582655655E-05,1.98950783669716E-05,-3.1640625,-5.17758446233007,0
-2.42132773564663E-05,1.47865512190037E-05,-3.1640625,-5.17637538713384,0
-2.42611477005994E-05,8.25038205221063E-06,-3.1640625,-5.1751632702749,0
-2.55484010267537E-05,6.62887077851337E-06,-3.1640625,-5.17394813067504,0
-2.13814582821215E-05,8.39160111354431E-06,-3.1640625,-5.17272998694699,0
-3.11650474031921E-05,1.3556800695369E-05,-3.1640625,-5.17150885739792,0
-2.49390323006082E-05,1.02388521554531E-05,-3.1640625,-5.1702847600332,0
-3.01737363770371E-05,8.51700588100357E-06,-3.1640625,-5.16905771256051,0
-2.41021680267295E-05,5.54778716832516E-06,-3.1640625,-5.16782773239389,0
-2.43750710069435E-05,5.88162265557912E-06,-3.1640625,-5.16659483665769,0
-2.05127817025641E-05,4.61680656371755E-06,-3.1640625,-5.16535904219055,0
-2.23810711759143E-05,4.6559516704292E-06,-3.1640625,-5.16412036554965,0
-2.1997624571668E-05,6.70343297315412E-06,-3.1640625,-5.16287882301507,0
-2.11407223105198E-05,9.26166649151128E-06,-3.1640625,-5.16163443059416,0
-2.11499664146686E-05,1.13298201540601E-05,-3.1640625,-5.16038720402596,0
-2.16636362893041E-05,1.37276529130759E-05,-3.1640625,-5.15913715878558,0
-2.41798279603245E-05,1.91869294212665E-05,-3.1640625,-5.15788431008856,0
-2.40189201576868E-05,2.55784834735096E-05,-3.1640625,-5.15662867289535,0
-2.42046662606299E-05,3.26512126775924E-05,-3.1640625,-5.15537026191595,0
-2.04371463041753E-05,3.79209413949866E-05,-3.1640625,-5.15410909161483,0
-1.94154017663095E-05,4.26807928306516E-05,-3.1640625,-5.15284517621623,0
-1.78112695721211E-05,4.4509597501019E-05,-3.1640625,-5.15157852970955,0
-1.9546590920072E-05,4.01554862037301E-05,-3.1640625,-5.15030916585473,0
-1.95892898773309E-05,2.60797605733387E-05,-3.1640625,-5.14903709818724,0
-2.07083685381804E-05,9.82110304903472E-06,-3.1640625,-5.14776234002272,0
-2.02890314540127E-05,2.53022517426871E-06,-3.1640625,-5.1464849044614,0
-2.15135751204798E-05,6.15816816207371E-06,-3.1640625,-5.14520480439252,0
-2.22801991185406E-05,1.1261654435657E-05,-3.1640625,-5.14392205249883,0
-2.31276117119705E-05,1.20108234114014E-05,-3.1640625,-5.14263666126139,0
-2.31573958444642E-05,1.05776180134853E-05,-3.1640625,-5.14134864296461,0
-2.41621582972584E-05,1.1884293598996E-05,-3.1640625,-5.14005800970137,0
-2.04370589926839E-05,1.33455550894723E-05,-3.1640625,-5.13876477337818,0
-2.95384616038064E-05,2.17220313061262E-05,-3.1640625,-5.13746894572015,0
-2.27746622840641E-05,1.87199184438214E-05,-3.1640625,-5.13617053827598,0
-2.69625561486464E-05,2.00515878532315E-05,-3.1640625,-5.13486956242248,0
-2.15805957850534E-05,1.64835764735471E-05,-3.1640625,-5.13356602936868,0
-2.23810056922957E-05,1.70965267898282E-05,-3.1640625,-5.1322599501595,0
-1.82612548087491E-05,1.42052431328921E-05,-3.1640625,-5.13095133567912,0
-1.95007633010391E-05,1.31908973344252E-05,-3.1640625,-5.12964019665434,0
-2.0522571503534E-05,1.07437826954992E-05,-3.1640625,-5.12832654365774,0
-2.25797684834106E-05,8.88819249666994E-06,-3.1640625,-5.12701038711047,0
-2.4869881599443E-05,6.80692164678476E-06,-3.1640625,-5.12569173728482,0
-2.56886123679578E-05,4.26979113399284E-06,-3.1640625,-5.12437060430668,0
-2.62423200183548E-05,5.07623963130754E-06,-3.1640625,-5.12304699815772,0
-2.4624136131024E-05,6.89321132085752E-06,-3.1640625,-5.12172092867729,0
-2.51960718742339E-05,1.00861443570466E-05,-3.1640625,-5.12039240556374,0
-2.30607292905916E-05,1.14163749458385E-05,-3.1640625,-5.11906143837527,0
-2.23793958866736E-05,1.49464349306072E-05,-3.1640625,-5.11772803653061,0
-2.08164001378464E-05,1.8294051187695E-05,-3.1640625,-5.11639220930953,0
-2.40508779825177E-05,2.11095430131536E-05,-3.1640625,-5.11505396585354,0
-2.5890594770317E-05,1.93665000551846E-05,-3.1640625,-5.11371331516646,0
-2.76652044703951E-05,1.73702756001148E-05,-3.1640625,-5.11237026611514,0
-2.72534671239555E-05,1.48256458487595E-05,-3.1640625,-5.1110248274298,0
-2.72172928816872E-05,1.29011896206066E-05,-3.1640625,-5.10967700770404,0
-2.49200693360763E-05,1.28856217997964E-05,-3.1640625,-5.10832681539411,0
-2.3194870664156E-05,1.45651511047618E-05,-3.1640625,-5.10697425881777,0
-2.22933376790024E-05,1.46604579640552E-05,-3.1640625,-5.10561934615284,0
-2.28981443797238E-05,1.25994156405795E-05,-3.1640625,-5.10426208543575,0
-2.00345602934249E-05,7.22733238944784E-06,-3.1640625,-5.10290248456011,0
-2.92132044705795E-05,8.40502070786897E-06,-3.1640625,-5.10154055127506,0
-2.2090285710874E-05,2.62271601059183E-06,-3.1640625,-5.10017629318367,0
-2.68517796939705E-05,1.66629547493358E-06,-3.1640625,-5.09880971774123,0
-2.36866617342457E-05,-7.69894199947885E-07,-3.1640625,-5.09744083225368,0
-2.67826362687629E-05,2.24805944526452E-06,-3.1640625,-5.09606964387625,0
-2.60299457295332E-05,5.32284047949361E-06,-3.1640625,-5.09469615961222,0
-2.79501091426937E-05,8.94548884389224E-06,-3.1640625,-5.09332038631202,0
-2.69722222583368E-05,9.19289959711023E-06,-3.1640625,-5.09194233067224,0
-2.59320513578132E-05,9.04709122551139E-06,-3.1640625,-5.09056199923457,0
-2.5310635464848E-05,8.96563415153651E-06,-3.1640625,-5.08917939838464,0
-2.39790933846962E-05,8.27769144962076E-06,-3.1640625,-5.08779453435082,0
-2.42918249568902E-05,8.81300275068497E-06,-3.1640625,-5.08640741320312,0
-2.32468355534365E-05,1.0573758117971E-05,-3.1640625,-5.08501804085227,0
-2.38842239923542E-05,1.32634886540473E-05,-3.1640625,-5.08362642304873,0
-2.18151308217784E-05,1.37997449201066E-05,-3.1640625,-5.08223256538172,0
-2.21550126298098E-05,1.4172718692862E-05,-3.1640625,-5.08083647327809,0
-2.14394476643065E-05,1.36017242766684E-05,-3.1640625,-5.07943815200102,0
-2.35424431593856E-05,1.40087231557118E-05,-3.1640625,-5.07803760664836,0
-2.46616000367794E-05,1.4094342077442E-05,-3.1640625,-5.07663484215084,0
-2.5940682462533E-05,1.50014720929903E-05,-3.1640625,-5.07522986327,0
-2.47827902057907E-05,1.52967040776275E-05,-3.1640625,-5.07382267459637,0
-2.47136667894665E-05,1.52839766087709E-05,-3.1640625,-5.07241328054787,0
-2.48112137342105E-05,1.39519661388476E-05,-3.1640625,-5.07100168536844,0
-2.56585790339159E-05,1.54120953084202E-05,-3.1640625,-5.06958789312716,0
-2.44598213612335E-05,1.90252503671218E-05,-3.1640625,-5.06817190771772,0
-2.35978623095434E-05,2.12951435969444E-05,-3.1640625,-5.0667537328582,0
-1.89339552889578E-05,1.4270744031819E-05,-3.1640625,-5.06533337209132,0
-2.58373220276553E-05,1.61375319294166E-05,-3.1640625,-5.06391082878473,0
-1.84767322934931E-05,6.31397733741323E-06,-3.1640625,-5.06248610613133,0
-2.42856349359499E-05,7.55361998017179E-06,-3.1640625,-5.06105920714927,0
-2.16985918086721E-05,1.32065633806633E-06,-3.1640625,-5.05963013468184,0
-2.52275494858623E-05,3.57959447683243E-06,-3.1640625,-5.05819889139733,0
-2.36194609897211E-05,3.67690950042743E-06,-3.1640625,-5.05676547978896,0
-2.46514282480348E-05,6.40121515971259E-06,-3.1640625,-5.05532990217516,0
-2.43814338318771E-05,6.34178377367789E-06,-3.1640625,-5.0538921607002,0
-2.51161600317573E-05,6.38795745544485E-06,-3.1640625,-5.05245225733508,0
-2.44997263507685E-05,7.63195475883549E-06,-3.1640625,-5.05101019387884,0
-2.22410835704068E-05,9.07486810319824E-06,-3.1640625,-5.04956597195996,0
-2.26939919230063E-05,1.08901822386542E-05,-3.1640625,-5.04811959303815,0
-2.33485861826921E-05,9.33681621972937E-06,-3.1640625,-5.04667105840624,0
-2.57134433923056E-05,8.70596886670683E-06,-3.1640625,-5.04522036919234,0
-2.4618997485959E-05,6.97720861353446E-06,-3.1640625,-5.04376752636203,0
-2.47265361394966E-05,8.72413329489063E-06,-3.1640625,-5.04231253072074,0
-2.25743260671152E-05,9.61419846134959E-06,-3.1640625,-5.04085538291631,0
-2.27396940317703E-05,1.15976026791031E-05,-3.1640625,-5.03939608344153,0
-2.25908916036133E-05,1.0968544302159E-05,-3.1640625,-5.03793463263698,0
-2.43736558331875E-05,1.06156094261678E-05,-3.1640625,-5.03647103069399,0
-2.37900640058797E-05,8.47372120915679E-06,-3.1640625,-5.0350052776577,0
-2.38436477957293E-05,8.03733291832032E-06,-3.1640625,-5.03353737343033,0
-2.27956898015691E-05,9.76088449533563E-06,-3.1640625,-5.03206731777464,0
-2.26156262215227E-05,1.29319241750636E-05,-3.1640625,-5.03059511031769,0
-2.36964824580355E-05,1.32863287944929E-05,-3.1640625,-5.02912075055476,0
-2.64319805864943E-05,1.14191352622584E-05,-3.1640625,-5.02764423785344,0
-2.30179975915235E-05,6.82632298776298E-06,-3.1640625,-5.0261655714579,0
-3.37467208737507E-05,8.60682575876126E-06,-3.1640625,-5.0246847504931,0
-2.54495953413425E-05,7.50739127397537E-06,-3.1640625,-5.02320177396885,0
-2.80334479612065E-05,1.46717202369473E-05,-3.1640625,-5.02171664078324,0
-2.0431380107766E-05,1.96376349776983E-05,-3.1640625,-5.02022934972548,0
-2.20027141040191E-05,2.49225431616651E-05,-3.1640625,-5.01873989947818,0
-1.918603447848E-05,2.32792426686501E-05,-3.1640625,-5.01724828861955,0
-1.99579353648005E-05,1.89939019037411E-05,-3.1640625,-5.01575451562531,0
-1.93914438568754E-05,1.2872158549726E-05,-3.1640625,-5.01425857887015,0
-2.06124586838996E-05,9.69008942774963E-06,-3.1640625,-5.01276047662862,0
-2.14074443647405E-05,1.0324291906727E-05,-3.1640625,-5.0112602070755,0
-2.10640191653511E-05,1.19919450298767E-05,-3.1640625,-5.00975776828581,0
-2.33293030760251E-05,1.39940239023417E-05,-3.1640625,-5.00825315823471,0
-2.42683927353937E-05,1.46438742376631E-05,-3.1640625,-5.00674637479757,0
-2.680579200387E-05,1.63749955390813E-05,-3.1640625,-5.00523741575024,0
-2.57275314652361E-05,1.70360945048742E-05,-3.1640625,-5.00372627876944,0
-2.66826136794407E-05,1.71903302543797E-05,-3.1640625,-5.00221296143315,0
-2.60616834566463E-05,1.6218060409301E-05,-3.1640625,-5.00069746122073,0
-2.81245211226633E-05,1.68358747032471E-05,-3.1640625,-4.99917977551273,0
-2.69892461801646E-05,1.59651808644412E-05,-3.1640625,-4.99765990159047,0
-2.67598861682927E-05,1.31395981952664E-05,-3.1640625,-4.99613783663536,0
-2.60532542597502E-05,1.01567329693353E-05,-3.1640625,-4.99461357772798,0
-2.75188904197421E-05,1.10444761958206E-05,-3.1640625,-4.99308712184702,0
-2.73216774075991E-05,1.42306344059762E-05,-3.1640625,-4.99155846586827,0
-2.676205986063E-05,1.81478353624698E-05,-3.1640625,-4.99002760656366,0
-2.57182346103946E-05,1.97999543161131E-05,-3.1640625,-4.98849454060046,0
-2.53058115049498E-05,1.93464566109469E-05,-3.1640625,-4.98695926454061,0
-2.02990595425945E-05,1.67377875186503E-05,-3.1640625,-4.98542177484032,0
-2.76364226010628E-05,2.72302968369331E-05,-3.1640625,-4.98388206785008,0
-1.8373992134002E-05,2.56255243584746E-05,-3.1640625,-4.98234013981478,0
-2.14616284210933E-05,2.70984146482078E-05,-3.1640625,-4.98079598687396,0
-1.69863596966024E-05,1.93041687452933E-05,-3.1640625,-4.97924960506194,0
-2.04487459996017E-05,2.36397045227932E-05,-3.1640625,-4.97770099030753,0
-1.88807352969889E-05,2.13651564990869E-05,-3.1640625,-4.97615013843315,0
-2.16365697269794E-05,1.16229102786747E-05,-3.1640625,-4.97459704515319,0
-2.21656518988311E-05,3.89426941183046E-06,-3.1640625,-4.97304170607204,0
-2.32585734920576E-05,8.26643827167572E-06,-3.1640625,-4.97148411668193,0
-2.40954523178516E-05,1.52013781189453E-05,-3.1640625,-4.96992427236119,0
-2.32880247494904E-05,1.47169703268446E-05,-3.1640625,-4.96836216837283,0
-2.34343897318468E-05,8.04467435955303E-06,-3.1640625,-4.96679779986388,0
-2.23686074605212E-05,-3.48981370734691E-06,-3.1640625,-4.96523116186506,0
-2.44609036599286E-05,-1.1730855476344E-05,-3.1640625,-4.96366224929104,0
-2.43943723035045E-05,-1.3287542060425E-05,-3.1640625,-4.96209105694128,0
-2.6988305762643E-05,-2.81471625385166E-06,-3.1640625,-4.96051757950138,0
-2.71564040303929E-05,6.76360969009693E-06,-3.1640625,-4.95894181154469,0
-2.824566399795E-05,7.92297487350879E-06,-3.1640625,-4.95736374753403,0
-2.70244527200703E-05,-1.5716866528237E-06,-3.1640625,-4.95578338182314,0
-2.82658984360751E-05,-1.12528950921842E-05,-3.1640625,-4.95420070865762,0
-2.85228870779974E-05,-1.95705270016333E-05,-3.1640625,-4.95261572217567,0
-2.92353051918326E-05,-2.50896191573702E-05,-3.1640625,-4.95102841640836,0
-2.82396813418018E-05,-2.911155752372E-05,-3.1640625,-4.94943878527984,0
-2.74461399385473E-05,-3.01269683404826E-05,-3.1640625,-4.94784682260724,0
-2.70804066531127E-05,-2.87084221781697E-05,-3.1640625,-4.94625252210056,0
-2.79748401226243E-05,-2.63426754827378E-05,-3.1640625,-4.9446558773627,0
-2.32957918342436E-05,-2.03240069822641E-05,-3.1640625,-4.94305688188975,0
-3.20228355121799E-05,-2.08338751690462E-05,-3.1640625,-4.94145552907178,0
-2.09269492188469E-05,7.95425421529217E-06,-3.1640625,-4.93985181219409,0
-2.37189797189785E-05,2.44003658735892E-05,-3.1640625,-4.93824572443899,0
-1.63996901392238E-05,3.67888569599018E-05,-3.1640625,-4.9366372588878,0
-1.63858858286403E-05,2.63307374552824E-05,-3.1640625,-4.93502640852265,0
-1.2422371582943E-05,1.62509604706429E-05,-3.1640625,-4.93341316622763,0
-1.53701494127745E-05,7.36587253413745E-06,-3.1640625,-4.93179752478858,0
-1.75203076651087E-05,8.34710135677597E-06,-3.1640625,-4.93017947689134,0
-2.02407627512002E-05,1.29429954540683E-05,-3.1640625,-4.92855901511857,0
-2.23182287300006E-05,1.80815404746681E-05,-3.1640625,-4.92693613194557,0
-2.22338985622628E-05,2.19501071114792E-05,-3.1640625,-4.92531081973599,0
-2.34218114201212E-05,2.20790880121058E-05,-3.1640625,-4.92368307073795,0
-2.27739401452709E-05,2.28620338020846E-05,-3.1640625,-4.92205287708082,0
-2.43612430494977E-05,2.08443652809365E-05,-3.1640625,-4.92042023077277,0
-2.33189639402553E-05,2.1367171939346E-05,-3.1640625,-4.91878512369894,0
-2.49415807047626E-05,2.05561536859022E-05,-3.1640625,-4.91714754762012,0
-2.37274598475778E-05,2.29406359721906E-05,-3.1640625,-4.91550749417177,0
-2.36975502048153E-05,2.30649129662197E-05,-3.1640625,-4.91386495486346,0
-2.18145596591057E-05,2.52548379648943E-05,-3.1640625,-4.91221992107862,0
-2.38283355429303E-05,2.48382166319061E-05,-3.1640625,-4.91057238407469,0
-2.52600366366096E-05,2.33629252761602E-05,-3.1640625,-4.90892233498382,0
-2.60261858784361E-05,1.95422126125777E-05,-3.1640625,-4.90726976481404,0
-2.38795182667673E-05,1.84449727385072E-05,-3.1640625,-4.90561466445081,0
-2.41492125496734E-05,1.89289821719285E-05,-3.1640625,-4.90395702465856,0
-2.63055044342764E-05,1.9640829123091E-05,-3.1640625,-4.90229683608246,0
-2.73890054813819E-05,1.64091998158256E-05,-3.1640625,-4.90063408925021,0
-2.08432284125593E-05,8.48866693559103E-06,-3.1640625,-4.89896877457405,0
-2.81493666989263E-05,1.01781370176468E-05,-3.1640625,-4.89730088235286,0
-2.0350749764475E-05,6.40051212030812E-06,-3.1640625,-4.89563040277438,0
-2.6606014216668E-05,1.08488638943527E-05,-3.1640625,-4.8939573259179,0
-2.28871176659595E-05,1.04119553725468E-05,-3.1640625,-4.89228164175737,0
-2.75254278676584E-05,1.18671878226451E-05,-3.1640625,-4.89060334016504,0
-2.71856933977688E-05,7.32109174350626E-06,-3.1640625,-4.88892241091544,0
-2.90614843834192E-05,6.50607489660615E-06,-3.1640625,-4.88723884368955,0
-2.62880930677056E-05,8.37136667541927E-06,-3.1640625,-4.88555262807886,0
-2.34523140534293E-05,1.36650114654913E-05,-3.1640625,-4.88386375358917,0
-2.17917240661336E-05,2.11592814594042E-05,-3.1640625,-4.88217220964436,0
-2.07883240364026E-05,2.82724959106417E-05,-3.1640625,-4.88047798559,0
-2.26431329792831E-05,3.26356093864888E-05,-3.1640625,-4.87878107069712,0
-2.25670009967871E-05,3.08445269183721E-05,-3.1640625,-3.31700643710555,0
-2.46954987233039E-05,2.51905330515001E-05,-3.1640625,-3.31700377822656,0
-2.40146418946097E-05,1.71323899849085E-05,-3.1640625,-3.31699844989243,0
-2.51938381552463E-05,1.30494327095221E-05,-3.1640625,-3.31699044144877,0
-2.33144073717995E-05,1.17988929559942E-05,-3.1640625,-3.3169797421659,0
-2.34318958973745E-05,1.32227032736409E-05,-3.1640625,-3.31696634124068,0
-2.20647161768284E-05,1.28824594867183E-05,-3.1640625,-3.31695022779635,0
-2.23389142774977E-05,1.29781110445037E-05,-3.1640625,-3.31693139087988,0
-2.12867089430802E-05,1.36542548716534E-05,-3.1640625,-3.31690981945641,0
-2.16348162211943E-05,1.7267888324568E-05,-3.1640625,-3.31688550240026,0
-2.16258777072653E-05,1.98527450265829E-05,-3.1640625,-3.3168584284824,0
-2.3385484382743E-05,1.84787022590172E-05,-3.1640625,-3.31682858635418,0
-2.47595380642451E-05,1.23595173135982E-05,-3.1640625,-3.31679596452744,0
-2.53050038736546E-05,4.54843893749057E-06,-3.1640625,-3.31676055135118,0
-1.96184973901836E-05,-1.19548985821893E-06,-3.1640625,-3.316722334985,0
-2.7460071578389E-05,-2.95423956231389E-06,-3.1640625,-3.31668130336966,0
-2.14349911402678E-05,-3.52364145328465E-06,-3.1640625,-3.31663744419458,0
-2.79602518276079E-05,-5.6032654356386E-06,-3.1640625,-3.31659074486262,0
-2.36924315686338E-05,-7.00186728863628E-06,-3.1640625,-3.31654119245225,0
-2.54145197686739E-05,-4.74324406241067E-06,-3.1640625,-3.31648877367761,0
-2.26749125431525E-05,-5.81596424353847E-08,-3.1640625,-3.3164334748467,0
-2.4077378839138E-05,4.7262533371395E-06,-3.1640625,-3.31637528181796,0
-2.39014589169528E-05,8.33253579912707E-06,-3.1640625,-3.31631417995543,0
-2.38186712522293E-05,1.08991480374243E-05,-3.1640625,-3.31625015408256,0
-2.36414998653345E-05,1.19634023576509E-05,-3.1640625,-3.3161831884353,0
-2.33525242947508E-05,1.12325287773274E-05,-3.1640625,-3.31611326661457,0
-2.55017839663196E-05,1.1497641025926E-05,-3.1640625,-3.31604037153872,0
-2.46815525315469E-05,1.47043847391615E-05,-3.1640625,-3.31596448539621,0
-2.41854577325284E-05,1.91518502106192E-05,-3.1640625,-3.31588558959905,0
-2.20302354136948E-05,2.1719808501075E-05,-3.1640625,-3.31580366473742,0
-2.33825703617185E-05,2.06840977625689E-05,-3.1640625,-3.31571869053578,0
-2.31320682360092E-05,1.65144410857465E-05,-3.1640625,-3.31563064581078,0
-2.47293264692416E-05,1.22303054013173E-05,-3.1640625,-3.31553950843114,0
-2.3709173547104E-05,1.13000560304499E-05,-3.1640625,-3.31544525527997,0
-2.34168073802721E-05,1.42553926707478E-05,-3.1640625,-3.31534786221998,0
-2.19042049138807E-05,1.77714919118444E-05,-3.1640625,-3.315247304062,0
-2.10435318876989E-05,1.77545753103914E-05,-3.1640625,-3.31514355453699,0
-2.0550094632199E-05,1.45498443089309E-05,-3.1640625,-3.31503658627193,0
-2.25133171625203E-05,1.17541758299922E-05,-3.1640625,-3.31492637076957,0
-2.44264720095089E-05,1.1679197086778E-05,-3.1640625,-3.31481287839237,0
-2.54211608989863E-05,1.29950294649461E-05,-3.1640625,-3.31469607835111,0
-2.09867685043719E-05,1.26447112052119E-05,-3.1640625,-3.31457593869856,0
-3.0964602046879E-05,1.8274024114362E-05,-3.1640625,-3.31445242632871,0
-2.41979669226566E-05,1.24418338600663E-05,-3.1640625,-3.31432550698197,0
-2.92237746180035E-05,1.43222450788016E-05,-3.1640625,-3.31419514525645,0
-2.51570072578033E-05,1.2203337973915E-05,-3.1640625,-3.31406130462572,0
-2.72487777692731E-05,1.28521060105413E-05,-3.1640625,-3.31392394746319,0
-2.47392144956393E-05,9.27492237678962E-06,-3.1640625,-3.3137830350729,0
-2.56497642112663E-05,8.25617462396622E-06,-3.1640625,-3.31363852772685,0
-2.54206624958897E-05,6.58345470583299E-06,-3.1640625,-3.31349038470843,0
-2.64406298811082E-05,5.29768158230581E-06,-3.1640625,-3.3133385643621,0
-2.67745253950125E-05,5.36327706868178E-06,-3.1640625,-3.31318302414908,0
-2.47131592914229E-05,6.38295296084834E-06,-3.1640625,-3.31302372070898,0
-2.39521632465767E-05,9.45475403568707E-06,-3.1640625,-3.31286060992749,0
-2.17896158574149E-05,1.20103513836511E-05,-3.1640625,-3.31269364700958,0
-2.15109776036115E-05,1.48201261254144E-05,-3.1640625,-3.31252278655827,0
-1.8300424926565E-05,1.4021155948285E-05,-3.1640625,-3.31234798265822,0
-1.76258417923236E-05,1.35106765810633E-05,-3.1640625,-3.31216918896413,0
-1.6337802662747E-05,1.22042947623413E-05,-3.1640625,-3.3119863587934,0
-1.80438328243326E-05,1.11270228444482E-05,-3.1640625,-3.31179944522286,0
-1.84324744623154E-05,7.82416918809759E-06,-3.1640625,-3.31160840118929,0
-1.99194419110427E-05,6.11428868069197E-06,-3.1640625,-3.31141317959371,0
-1.97181634575827E-05,5.74676141695818E-06,-3.1640625,-3.31121373340935,0
-2.14224892260972E-05,8.24925155029632E-06,-3.1640625,-3.3110100157933,0
-2.20521778828697E-05,1.08302610897226E-05,-3.1640625,-3.3108019802017,0
-2.19031262531644E-05,1.2599685760506E-05,-3.1640625,-3.31058958050821,0
-2.20047040784266E-05,1.29142681544181E-05,-3.1640625,-3.31037277112561,0
-2.2828977307654E-05,1.29062073028763E-05,-3.1640625,-3.31015150713003,0
-1.92043644346995E-05,1.04928822111106E-05,-3.1640625,-3.30992574438758,0
-2.70146538241534E-05,1.46279817272443E-05,-3.1640625,-3.3096954396827,0
-2.06754848477431E-05,1.2123448868806E-05,-3.1640625,-3.30946055084786,0
-2.61975255853031E-05,1.61316766025266E-05,-3.1640625,-3.309221036894,0
-2.25661769945873E-05,1.40810916491318E-05,-3.1640625,-3.30897685814129,0
-2.57746596616926E-05,1.5255041034834E-05,-3.1640625,-3.3087279763495,0
-2.39086020883406E-05,1.38397008413449E-05,-3.1640625,-3.30847435484781,0
-2.54007100011222E-05,1.45592448461684E-05,-3.1640625,-3.30821595866342,0
-2.54487313213758E-05,1.27805533338687E-05,-3.1640625,-3.30795275464872,0
-2.58720247074962E-05,1.10878427221905E-05,-3.1640625,-3.30768471160653,0
-2.66074366663815E-05,1.10413375296048E-05,-3.1640625,-3.30741180041319,0
-2.64941445493605E-05,1.19650085252943E-05,-3.1640625,-3.30713399413893,0
-2.71710632659961E-05,1.37180177262053E-05,-3.1640625,-3.30685126816541,0
-2.55627528531477E-05,1.40124802783248E-05,-3.1640625,-3.30656360030005,0
-2.62204248429043E-05,1.46535576277529E-05,-3.1640625,-3.30627097088678,0
-2.53841808444122E-05,1.35072532430058E-05,-3.1640625,-3.30597336291311,0
-2.66806400759378E-05,1.37948263727594E-05,-3.1640625,-3.30567076211317,0
-2.49028489633929E-05,1.26800587167963E-05,-3.1640625,-3.30536315706633,0
-2.43569593294524E-05,1.22505471154E-05,-3.1640625,-3.30505053929146,0
-2.27247837756295E-05,1.13343176053604E-05,-3.1640625,-3.30473290333609,0
-2.38829234149307E-05,1.3423276868707E-05,-3.1640625,-3.30441024686066,0
-2.42632413574029E-05,1.54926383402199E-05,-3.1640625,-3.30408257071717,0
-2.43679442064604E-05,1.79020080395276E-05,-3.1640625,-3.30374987902225,0
-2.23332208406646E-05,1.84255350177409E-05,-3.1640625,-3.30341217922416,0
-2.13118291867431E-05,1.34326501211035E-05,-3.1640625,-3.30306948216363,0
-2.11806545848958E-05,1.02183230410446E-06,-3.1640625,-3.30272180212837,0
-2.09354875551071E-05,-7.550982900284E-06,-3.1640625,-3.30236915690083,0
-1.64961838891031E-05,-2.53650455306342E-06,-3.1640625,-3.30201156779938,0
-2.3524482458015E-05,1.79364553787309E-06,-3.1640625,-3.30164905971247,0
-1.86916331585962E-05,9.19069771043723E-06,-3.1640625,-3.30128166112585,0
-2.38928223552648E-05,9.56952681008261E-06,-3.1640625,-3.30090940414269,0
-2.20627207454527E-05,1.04403779914719E-05,-3.1640625,-3.30053232449662,0
-2.59313328569988E-05,8.30042336019687E-06,-3.1640625,-3.30015046155742,0
-2.37697477132315E-05,8.71686279424466E-06,-3.1640625,-3.29976385832956,0
-2.32697093451861E-05,9.58197415457107E-06,-3.1640625,-3.29937256144351,0
-2.24507857637946E-05,1.00450324680423E-05,-3.1640625,-3.2989766211399,0
-2.3725995561108E-05,8.58840303408215E-06,-3.1640625,-3.29857609124655,0
-2.52571608143626E-05,7.64141077524982E-06,-3.1640625,-3.29817102914836,0
-2.53612470260123E-05,8.31355646369047E-06,-3.1640625,-3.29776149575004,0
-2.62438879872207E-05,7.93240269558737E-06,-3.1640625,-3.29734755543188,0
-2.5053292119992E-05,6.91976629241253E-06,-3.1640625,-3.2969292759988,0
-2.50216016866034E-05,9.37573349801824E-06,-3.1640625,-3.29650672862273,0
-2.30880850722315E-05,2.01118255063193E-05,-3.1640625,-3.29607998777869,0
-2.34003964578733E-05,3.46419219567906E-05,-3.1640625,-3.29564913117441,0
-2.25592284550658E-05,4.78049551020376E-05,-3.1640625,-3.29521423967345,0
-2.36792766372673E-05,5.22360278409906E-05,-3.1640625,-3.29477539721196,0
-2.2862828700454E-05,4.25210673711263E-05,-3.1640625,-3.29433269070872,0
-2.27644086407963E-05,1.95752054423792E-05,-3.1640625,-3.29388620996876,0
-2.14961000892799E-05,1.3285934983287E-06,-3.1640625,-3.29343604758052,0
-2.19956364162499E-05,-3.81768268198357E-06,-3.1640625,-3.29298229880708,0
-2.318552651559E-05,-5.40653900316102E-06,-3.1640625,-3.29252506147162,0
-2.55290087807225E-05,-8.86086945683928E-06,-3.1640625,-3.29206443583736,0
-2.70540513156448E-05,-1.18416428449564E-05,-3.1640625,-3.29160052448228,0
-2.68199855781859E-05,-1.3763623428531E-05,-3.1640625,-3.29113343216881,0
-2.08299825317226E-05,-1.56496134877671E-05,-3.1640625,-3.29066326570904,0
-3.06615875160787E-05,-2.72551169473445E-05,-3.1640625,-3.29019013382579,0
-2.44696639128961E-05,-2.44667226070305E-05,-3.1640625,-3.28971414700967,0
-2.90056632366031E-05,-2.15918371395674E-05,-3.1640625,-3.28923541737232,0
-2.44830607698532E-05,-7.84819258115022E-06,-3.1640625,-3.2887540584963,0
-2.77990820904961E-05,1.29168506646238E-06,-3.1640625,-3.28827018528204,0
-2.55443173955427E-05,1.01586838354706E-05,-3.1640625,-3.28778391379221,0
-2.70393829850946E-05,1.39281455631135E-05,-3.1640625,-3.28729536109384,0
-2.73913719865959E-05,1.46063721331302E-05,-3.1640625,-3.28680464509838,0
-2.81085413007531E-05,1.00770303106401E-05,-3.1640625,-3.28631188439996,0
-2.67608720605494E-05,2.22189282794716E-06,-3.1640625,-3.2858171981122,0
-2.24139021156589E-05,-1.73689738858229E-06,-3.1640625,-3.28532070570398,0
-2.01457532966742E-05,-4.04361770733885E-07,-3.1640625,-3.28482252683439,0
-1.93010000657523E-05,4.3026261664636E-06,-3.1640625,-3.28432278118754,0
-2.2628708393313E-05,5.35842355020577E-06,-3.1640625,-3.2838215883079,0
-2.39513101405464E-05,6.06169260208844E-06,-3.1640625,-3.28331906743706,0
-2.64766567852348E-05,8.59190095070517E-06,-3.1640625,-3.28281533735178,0
-2.56258881563554E-05,1.89954553206917E-05,-3.1640625,-3.28231051620338,0
-2.61736222455511E-05,3.65285741281696E-05,-3.1640625,-3.28180472135793,0
-2.43863360083196E-05,5.89520386711229E-05,-3.1640625,-3.28129806923755,0
-2.48126580117969E-05,7.06983701093122E-05,-3.1640625,-3.28079067516253,0
-2.46689414780121E-05,6.56002157484181E-05,-3.1640625,-3.28028265319441,0
-2.54030819633044E-05,4.82397590531036E-05,-3.1640625,-3.27977411597979,0
-2.55698269029381E-05,3.01334875985049E-05,-3.1640625,-3.2792651745951,0
-2.61891018453753E-05,1.603483906365E-05,-3.1640625,-3.27875593839288,0
-2.57728570431937E-05,5.46128558198689E-06,-3.1640625,-3.27824651485,0
-2.60117940342752E-05,-3.92158926842967E-06,-3.1640625,-3.27773700941854,0
-2.19365047087194E-05,-8.31917623145273E-06,-3.1640625,-3.27722752537953,0
-3.15320612571668E-05,-1.33674193421029E-05,-3.1640625,-3.27671816369968,0
-2.44642797042616E-05,-1.40867578011239E-05,-3.1640625,-3.27620902289112,0
-2.96891157631762E-05,-1.94381573237479E-05,-3.1640625,-3.27570019887455,0
-2.55699378612917E-05,-1.63865042850375E-05,-3.1640625,-3.2751917848461,0
-3.07922637148295E-05,-9.8701375463861E-06,-3.1640625,-3.27468387114826,0
-3.18292186420877E-05,4.39268490026734E-07,-3.1640625,-3.27417654514516,0
-3.48499088431709E-05,8.93253854883369E-06,-3.1640625,-3.27366989110271,0
-3.1746214517625E-05,1.58348484546877E-05,-3.1640625,-3.2731639900745,0
-2.55252143688267E-05,2.05348587769549E-05,-3.1640625,-3.27265891979446,0
-1.7423622921342E-05,2.53352664003614E-05,-3.1640625,-3.27215475457618,0
-1.05631352198543E-05,2.95351237582508E-05,-3.1640625,-3.27165156521902,0
-1.1189669749001E-05,2.74846443062415E-05,-3.1640625,-3.27114941892175,0
-1.40518513944698E-05,1.98231846297858E-05,-3.1640625,-3.27064837920548,0
-1.87439018191071E-05,1.09271013570833E-05,-3.1640625,-3.27014850584691,0
-1.85624776349869E-05,7.75725129642524E-06,-3.1640625,-3.26964985482171,0
-1.9911212802981E-05,9.19523517950438E-06,-3.1640625,-3.26915247825639,0
-1.98612051462987E-05,1.22756418932113E-05,-3.1640625,-3.26865642438742,0
-2.23774495680118E-05,1.21725552162388E-05,-3.1640625,-3.26816173752643,0
-2.2307367544272E-05,1.19772403195384E-05,-3.1640625,-3.26766845803105,0
-2.40506815316621E-05,1.09929223981453E-05,-3.1640625,-3.26717662228085,0
-2.5629478841438E-05,9.20761794986902E-06,-3.1640625,-3.26668626265828,0
-2.84110756183509E-05,7.57138104745536E-06,-3.1640625,-3.2661974075345,0
-2.76742612186354E-05,9.07754929357907E-06,-3.1640625,-3.26571008126082,0
-2.64509999396978E-05,1.1640112461464E-05,-3.1640625,-3.26522430416607,0
-2.54287388088414E-05,1.32612167362822E-05,-3.1640625,-3.2647400925602,0
-2.3892940589576E-05,1.38722725750995E-05,-3.1640625,-3.26425745874389,0
-1.99087207874982E-05,1.09742786662537E-05,-3.1640625,-3.2637764110235,0
-2.91404157906072E-05,1.69135546457255E-05,-3.1640625,-3.26329695373056,0
-2.44224593188846E-05,1.51275044117938E-05,-3.1640625,-3.2628190872456,0
-3.04448203678476E-05,1.96294458874036E-05,-3.1640625,-3.26234280802606,0
-2.56626117334235E-05,1.78427999344422E-05,-3.1640625,-3.26186810863896,0
-2.77876952168299E-05,1.77933270606445E-05,-3.1640625,-3.26139497779847,0
-2.53542766586179E-05,1.48763583638356E-05,-3.1640625,-3.26092340040837,0
-2.52869831456337E-05,1.66603131219745E-05,-3.1640625,-3.26045335760884,0
-2.31998474191641E-05,1.82348594535142E-05,-3.1640625,-3.25998482682728,0
-2.17012620851165E-05,1.92531006177887E-05,-3.1640625,-3.25951778183245,0
-2.16487387660891E-05,1.87035257113166E-05,-3.1640625,-3.25905219279191,0
-2.2265943698585E-05,1.67833513842197E-05,-3.1640625,-3.25858802633292,0
-2.48256546910852E-05,1.59481151058571E-05,-3.1640625,-3.25812524560676,0
-2.42984660872025E-05,1.55263678607298E-05,-3.1640625,-3.2576638103566,0
-2.43694375967607E-05,1.72208438016241E-05,-3.1640625,-3.25720367698814,0
-2.20482634176733E-05,1.94507192645688E-05,-3.1640625,-3.25674479864303,0
-2.26472784561338E-05,2.4298607968376E-05,-3.1640625,-3.2562871252745,0
-2.23123515752377E-05,2.43765061895829E-05,-3.1640625,-3.25583060372553,0
-2.38257434830302E-05,1.77280162461102E-05,-3.1640625,-3.2553751778093,0
-2.30550613196101E-05,6.0336083151924E-06,-3.1640625,-3.25492078839197,0
-2.38960546994349E-05,-1.01212947356544E-06,-3.1640625,-3.25446737347735,0
-2.41079287661705E-05,-2.0312595552241E-06,-3.1640625,-3.25401486829332,0
-2.54023398156278E-05,7.7519661090264E-07,-3.1640625,-3.25356320537944,0
-2.51701603701804E-05,2.48727474172483E-06,-3.1640625,-3.25311231467595,0
-2.53046309808269E-05,4.0855575207388E-06,-3.1640625,-3.25266212361405,0
-2.53232592513086E-05,5.08804396304186E-06,-3.1640625,-3.25221255720771,0
-2.60597335000057E-05,5.27392239746405E-06,-3.1640625,-3.25176353814709,0
-2.13842922676122E-05,4.65475159217021E-06,-3.1640625,-3.25131498689341,0
-2.99784951494075E-05,7.86840610089712E-06,-3.1640625,-3.25086682177515,0
-2.14526844501961E-05,8.08811728347791E-06,-3.1640625,-3.25041895908532,0
-2.53315065492643E-05,1.2692416930804E-05,-3.1640625,-3.24997131317967,0
-1.90414684766438E-05,1.84383443411207E-05,-3.1640625,-3.24952379657602,0
-2.0360499547678E-05,2.28354510909412E-05,-3.1640625,-3.24907632005447,0
-1.69991581060458E-05,2.01042348635383E-05,-3.1640625,-3.24862879275892,0
-1.83812298928387E-05,1.40527790790657E-05,-3.1640625,-3.2481811223,0
-2.01441362150945E-05,8.19822435005335E-06,-3.1640625,-3.24773321485983,0
-2.2584927137359E-05,5.3698008741776E-06,-3.1640625,-3.24728497529825,0
-2.30629811994731E-05,5.45650891581317E-06,-3.1640625,-3.2468363072601,0
-2.18298264371697E-05,5.97164716964471E-06,-3.1640625,-3.24638711328284,0
-2.28852732107043E-05,6.37289303995203E-06,-3.1640625,-3.2459372949037,0
-2.15363124880241E-05,6.63676610201946E-06,-3.1640625,-3.24548675276631,0
-2.16518910747254E-05,7.76756405684864E-06,-3.1640625,-3.24503538672655,0
-1.99444693862461E-05,8.51638560561696E-06,-3.1640625,-3.24458309595753,0
-2.07698976737447E-05,8.70489111548522E-06,-3.1640625,-3.24412977905383,0
-1.97622011910426E-05,7.15029909770237E-06,-3.1640625,-3.24367533413499,0
-2.18867244257126E-05,5.77915807298268E-06,-3.1640625,-3.24321965894838,0
-2.25748935918091E-05,5.51234188606031E-06,-3.1640625,-3.24276265097131,0
-2.4269886125694E-05,7.77819332142826E-06,-3.1640625,-3.24230420751217,0
-2.43568829318974E-05,1.06964998849435E-05,-3.1640625,-3.24184422581067,0
-2.63464935414959E-05,1.22333221952431E-05,-3.1640625,-3.2413826031371,0
-2.68344901996898E-05,1.13087344288942E-05,-3.1640625,-3.24091923689105,0
-2.64692916971399E-05,9.42700444284128E-06,-3.1640625,-3.24045402469943,0
-2.60065899055917E-05,9.53113431023667E-06,-3.1640625,-3.23998686451404,0
-2.62781068158802E-05,1.16742394311586E-05,-3.1640625,-3.23951765470831,0
-2.22030921577243E-05,1.07409359770827E-05,-3.1640625,-3.23904629417311,0
-3.12672891595867E-05,1.60914569278248E-05,-3.1640625,-3.23857268241104,0
-2.34197013924131E-05,1.30354974317015E-05,-3.1640625,-3.23809671962912,0
-2.85037440335145E-05,1.53070413944079E-05,-3.1640625,-3.23761830682955,0
-2.22784674406284E-05,1.25009164548828E-05,-3.1640625,-3.23713734589863,0
-2.34439685300458E-05,1.32170298456913E-05,-3.1640625,-3.2366537396936,0
-2.03042127395747E-05,1.02689955383539E-05,-3.1640625,-3.23616739212721,0
-2.238852539449E-05,9.31621707422892E-06,-3.1640625,-3.23567820824977,0
-2.29661072808085E-05,8.56152109918185E-06,-3.1640625,-3.2351860943289,0
-2.44333896262106E-05,8.69052564667072E-06,-3.1640625,-3.23469095792692,0
-2.57501997111831E-05,9.4767228802084E-06,-3.1640625,-3.23419270797582,0
-2.52404552156804E-05,1.05982990135089E-05,-3.1640625,-3.23369125484945,0
-2.65223588939989E-05,1.24077778309584E-05,-3.1640625,-3.23318651043298,0
-2.58977343037259E-05,1.13591122499201E-05,-3.1640625,-3.23267838818973,0
-2.73726982413791E-05,9.83363497653045E-06,-3.1640625,-3.2321668032254,0
-2.6294035706087E-05,6.92140247338102E-06,-3.1640625,-3.23165167234965,0
-2.77279741567327E-05,5.7369475143787E-06,-3.1640625,-3.23113291413506,0
-2.6688605430536E-05,4.31742273576674E-06,-3.1640625,-3.23061044897348,0
-2.71022818196798E-05,5.09146684635198E-06,-3.1640625,-3.23008419912961,0
-2.47622137976578E-05,5.96808513364522E-06,-3.1640625,-3.22955408879187,0
-2.45729515881976E-05,7.76323759055231E-06,-3.1640625,-3.22902004412038,0
-2.34597246162593E-05,8.4294015323394E-06,-3.1640625,-3.22848199329196,0
-2.39427190535935E-05,8.46668262965977E-06,-3.1640625,-3.22793986654241,0
-2.32958482229151E-05,8.4733646872337E-06,-3.1640625,-3.22739359620591,0
-2.26210686378181E-05,1.0526427104196E-05,-3.1640625,-3.22684311675188,0
-2.34071194427088E-05,1.1907565749425E-05,-3.1640625,-3.22628836481914,0
-2.44228795054369E-05,1.23488553072093E-05,-3.1640625,-3.22572927924748,0
-1.97661047423026E-05,1.06259949461673E-05,-3.1640625,-3.22516580110653,0
-2.7639416657621E-05,1.5350422472693E-05,-3.1640625,-3.22459787372197,0
-2.07128687179647E-05,1.07537944131764E-05,-3.1640625,-3.22402544269903,0
-2.52267345786095E-05,1.19431397251901E-05,-3.1640625,-3.22344845594321,0
-2.02637384063564E-05,1.01543455457431E-05,-3.1640625,-3.22286686367835,0
-2.2913511202205E-05,1.21647481137188E-05,-3.1640625,-3.22228061846192,0
-2.14967622014228E-05,1.0295292668161E-05,-3.1640625,-3.22168967519776,0
-2.34753770200768E-05,9.3767421276425E-06,-3.1640625,-3.2210939911464,0
-2.28933749895077E-05,8.33923149912152E-06,-3.1640625,-3.22049352593282,0
-2.25582043640316E-05,8.10977689980064E-06,-3.1640625,-3.21988824155172,0
-2.22093385673361E-05,7.54548818804324E-06,-3.1640625,-3.21927810237027,0
-2.12661234400002E-05,6.62277261653799E-06,-3.1640625,-3.21866307512835,0
-2.1828434910276E-05,6.77261232340243E-06,-3.1640625,-3.21804312893636,0
-2.04445932467934E-05,6.71224961479311E-06,-3.1640625,-3.2174182352707,0
-2.16746757359942E-05,8.67184917296981E-06,-3.1640625,-3.21678836796699,0
-2.09287682082504E-05,1.01422110674321E-05,-3.1640625,-3.21615350321111,0
-2.26286192628322E-05,1.21490820674808E-05,-3.1640625,-3.21551361952799,0
-2.26290521823103E-05,1.20557324407855E-05,-3.1640625,-3.21486869776836,0
-2.51263190875761E-05,1.26824652397772E-05,-3.1640625,-3.21421872109332,0
-2.54421011049999E-05,1.22225392260589E-05,-3.1640625,-3.2135636749568,0
-2.62359026237391E-05,1.22912588267354E-05,-3.1640625,-3.21290354708621,0
-2.49998083745595E-05,1.22115034173476E-05,-3.1640625,-3.21223832746106,0
-2.49913027801085E-05,1.21421044241288E-05,-3.1640625,-3.21156800828996,0
-2.50256234721746E-05,1.14546783152036E-05,-3.1640625,-3.21089258398577,0
-2.57741685345536E-05,1.21384355225018E-05,-3.1640625,-3.21021205113907,0
-2.44736766035203E-05,1.34568535941071E-05,-3.1640625,-3.20952640848988,0
-2.29913202929311E-05,1.57646281877533E-05,-3.1640625,-3.20883565689776,0
-1.92143270396627E-05,1.51219346662401E-05,-3.1640625,-3.20813979931027,0
-2.73985533567611E-05,2.31788362725638E-05,-3.1640625,-3.20743884072992,0
-2.04997213586466E-05,2.0509445675998E-05,-3.1640625,-3.20673278817964,0
-2.3682214305154E-05,2.18491422856459E-05,-3.1640625,-3.20602165066677,0
-1.75505574588897E-05,8.8146580310422E-06,-3.1640625,-3.20530543914582,0
-1.99067671928788E-05,2.40795475292543E-06,-3.1640625,-3.20458416647983,0
-1.89641050383216E-05,2.11037740882603E-06,-3.1640625,-3.20385784740066,0
-2.13912571780384E-05,1.16930978037999E-05,-3.1640625,-3.2031264984681,0
-2.2004913262208E-05,2.32828970183618E-05,-3.1640625,-3.20239013802785,0
-2.22913586185314E-05,3.49559159076307E-05,-3.1640625,-3.20164878616841,0
-2.32032925850945E-05,4.53424072475173E-05,-3.1640625,-3.20090246467703,0
-2.36101459449856E-05,5.02776128996629E-05,-3.1640625,-3.20015119699477,0
-2.54407714237459E-05,4.89556878164876E-05,-3.1640625,-3.1993950081707,0
-2.45577703026356E-05,3.94133603549562E-05,-3.1640625,-3.19863392481536,0
-2.51362489507301E-05,2.79820815194398E-05,-3.1640625,-3.19786797505347,0
-2.36847827181919E-05,1.59097999130609E-05,-3.1640625,-3.1970971884761,0
-2.40250392380403E-05,6.48005880066194E-06,-3.1640625,-3.19632159609221,0
-2.27051968977321E-05,-4.92785738970269E-06,-3.1640625,-3.19554123027987,0
-2.37103267863858E-05,-1.35316131490981E-05,-3.1640625,-3.1947561247371,0
-2.35973348026164E-05,-1.78290720214136E-05,-3.1640625,-3.19396631443241,0
-2.50079774559708E-05,-1.87388413905865E-05,-3.1640625,-3.19317183555529,0
-2.36319792747963E-05,-2.90752122964477E-05,-3.1640625,-3.19237272546658,0
-2.2500573322759E-05,-4.64960212411825E-05,-3.1640625,-3.19156902264885,0
-2.20501697185682E-05,-5.14321764057968E-05,-3.1640625,-3.19076076665685,0
-2.34362269111443E-05,-3.28274982166477E-05,-3.1640625,-3.18994799806823,0
-2.43600788962794E-05,-6.66714731778484E-06,-3.1640625,-3.1891307584345,0
-2.42832938965876E-05,1.17316913019749E-05,-3.1640625,-3.18830909023244,0
-1.90608370758127E-05,1.77172842086293E-05,-3.1640625,-3.18748303681603,0
-2.70932378043653E-05,2.78973493550438E-05,-3.1640625,-3.1866526423689,0
-2.14055271499092E-05,2.35847983276472E-05,-3.1640625,-3.18581795185742,0
-2.58643794950331E-05,2.40299759752816E-05,-3.1640625,-3.18497901098445,0
-1.98732122953516E-05,1.74323104147334E-05,-3.1640625,-3.18413586614373,0
-2.17505657928996E-05,2.74243520834716E-05,-3.1640625,-3.18328856437503,0
-1.95931133930571E-05,4.19916141254362E-05,-3.1640625,-3.18243715332006,0
-2.19700559682678E-05,5.1103448640788E-05,-3.1640625,-3.18158168117901,0
-2.35153984249337E-05,4.31023909186479E-05,-3.1640625,-3.18072219666776,0
-2.4580647732364E-05,2.70043856289703E-05,-3.1640625,-3.17985874897584,0
-2.35736242757412E-05,1.39025669341208E-05,-3.1640625,-3.17899138772505,0
-2.19397261389531E-05,5.2153932301735E-06,-3.1640625,-3.17812016292904,0
-2.27954969886923E-05,-1.2218198435221E-06,-3.1640625,-3.17724512495365,0
-2.13741459447192E-05,-9.0295516201877E-06,-3.1640625,-3.17636632447812,0
-2.12199738598429E-05,-1.29142581499764E-05,-3.1640625,-3.17548381245722,0
-1.94847580132773E-05,-1.63358745339792E-05,-3.1640625,-3.17459764008433,0
-2.26144038606435E-05,-2.00064769160235E-05,-3.1640625,-3.17370785875526,0
-2.53721482295077E-05,-2.80601798294811E-05,-3.1640625,-3.17281452003304,0
-2.7986396162305E-05,-2.83407116512535E-05,-3.1640625,-3.1719176756134,0
-2.53871385211824E-05,-1.66274148796219E-05,-3.1640625,-3.1710173772911,0
-2.3549120669486E-05,2.88760315925174E-06,-3.1640625,-3.17011367692668,0
-2.19556259253295E-05,1.78695299837273E-05,-3.1640625,-3.16920662641381,0
-2.29307534027612E-05,2.63378424278926E-05,-3.1640625,-3.16829627764713,0
-2.40436111198505E-05,2.59174503298709E-05,-3.1640625,-3.16738268249098,0
-2.48357482632855E-05,2.15932905121008E-05,-3.1640625,-3.16646589274903,0
-2.42846417677356E-05,1.85831286216853E-05,-3.1640625,-3.16554596013488,0
-2.44824750552652E-05,1.77356178028276E-05,-3.1640625,-3.16462293624363,0
-2.05755713977851E-05,1.28142310131807E-05,-3.1640625,-3.16369687252418,0
-2.97287697321735E-05,1.60704039444681E-05,-3.1640625,-3.16276782025251,0
-2.16605294554029E-05,9.43333907343913E-06,-3.1640625,-3.16183583050577,0
-2.40410408878233E-05,1.21633938761079E-05,-3.1640625,-3.16090095413724,0
-1.87080859177513E-05,8.59927968122065E-06,-3.1640625,-3.15996324175201,0
-2.26679039769806E-05,1.00193701655371E-05,-3.1640625,-3.15902274368325,0
-2.29135421250248E-05,9.57902102527441E-06,-3.1640625,-3.15807950996895,0
-2.55436407314846E-05,1.18798488983884E-05,-3.1640625,-3.15713359032911,0
-2.49792847171193E-05,1.1980398085143E-05,-3.1640625,-3.1561850341434,0
-2.60272117884597E-05,1.22334004117874E-05,-3.1640625,-3.15523389042933,0
-2.87264974758727E-05,1.21463608593331E-05,-3.1640625,-3.154280207821,0
-2.97437472909223E-05,1.17303061415441E-05,-3.1640625,-3.15332403454816,0
-3.14001372316852E-05,1.30421058202046E-05,-3.1640625,-3.1523654184154,0
-3.05796711472794E-05,1.40220990942908E-05,-3.1640625,-3.15140440678109,0
-3.0747785785934E-05,1.78162736119702E-05,-3.1640625,-3.15044104653596,0
-2.83638164546574E-05,2.05032629310153E-05,-3.1640625,-3.14947538408119,0
-2.83106674032751E-05,2.36431005760096E-05,-3.1640625,-3.14850746530623,0
-2.66645565716317E-05,2.31980739044957E-05,-3.1640625,-3.14753733556671,0
-2.732966459007E-05,2.22176131501328E-05,-3.1640625,-3.14656503966286,0
-2.60889464698266E-05,1.92823317775037E-05,-3.1640625,-3.14559062181872,0
-2.64396840066183E-05,1.78754708031192E-05,-3.1640625,-3.1446141256622,0
-2.55880568147404E-05,1.6587131540291E-05,-3.1640625,-3.14363559420613,0
-2.58228974416852E-05,1.74778415384935E-05,-3.1640625,-3.14265506982996,0
-2.51727014983771E-05,1.81167106347857E-05,-3.1640625,-3.14167259426218,0
-2.46262061409652E-05,1.79890539584449E-05,-3.1640625,-3.14068820856328,0
-2.28271092055365E-05,1.69081758940592E-05,-3.1640625,-3.13970195310921,0
-2.15891450352501E-05,1.71012961800443E-05,-3.1640625,-3.13871386757517,0
-1.77114452526439E-05,1.55283269123174E-05,-3.1640625,-3.13772399091949,0
-2.50128505285829E-05,2.1656613171217E-05,-3.1640625,-3.13673236136741,0
-1.8615712178871E-05,1.37214174174005E-05,-3.1640625,-3.1357390163943,0
-2.31377725867787E-05,1.5479896319448E-05,-3.1640625,-3.13474399270864,0
-2.00191061594523E-05,1.39954217956983E-05,-3.1640625,-3.13374732623478,0
-2.29690813284833E-05,2.01637212740025E-05,-3.1640625,-3.13274905209583,0
-2.17267315747449E-05,2.15857126022456E-05,-3.1640625,-3.13174920459679,0
-2.28860826609889E-05,2.13182265724754E-05,-3.1640625,-3.13074781720805,0
-2.21363625314552E-05,1.69404538610252E-05,-3.1640625,-3.12974492254941,0
-2.32086404139409E-05,1.23622858154704E-05,-3.1640625,-3.12874055237503,0
-2.52896825259086E-05,9.2316186055541E-06,-3.1640625,-3.12773473755911,0
-2.60275792243192E-05,7.84306485002162E-06,-3.1640625,-3.12672750808277,0
-2.69440970441792E-05,9.58489454205846E-06,-3.1640625,-3.12571889302194,0
-2.61760833382141E-05,1.03422798929387E-05,-3.1640625,-3.12470892053623,0
-2.79601335932966E-05,1.21377770483377E-05,-3.1640625,-3.12369761785861,0
-2.78122643067036E-05,1.18974658107618E-05,-3.1640625,-3.12268501128561,0
-2.85647620330565E-05,1.24795333249494E-05,-3.1640625,-3.12167112616819,0
-2.65607377514243E-05,1.07440419014893E-05,-3.1640625,-3.12065598690302,0
-2.69795673375484E-05,1.05544540929259E-05,-3.1640625,-3.1196396169243,0
-2.69000538537512E-05,9.6481662694714E-06,-3.1640625,-3.11862203869619,0
-2.78216466540471E-05,9.8287882792647E-06,-3.1640625,-3.11760327370608,0
-2.64812115347013E-05,9.35961179493461E-06,-3.1640625,-3.11658334245886,0
-2.60328233707696E-05,1.06654442788567E-05,-3.1640625,-3.11556226447217,0
-2.61476470768685E-05,1.17384233817575E-05,-3.1640625,-3.11454005827271,0
-2.69418615062023E-05,1.33377707243199E-05,-3.1640625,-3.1135167413937,0
-2.65030485024909E-05,1.48391609400278E-05,-3.1640625,-3.11249233037364,0
-2.63432375504635E-05,1.58800303324824E-05,-3.1640625,-3.11146684075631,0
-2.13791172427591E-05,1.2399392289808E-05,-3.1640625,-3.11044028709193,0
-2.98513114103116E-05,1.64167740877019E-05,-3.1640625,-3.10941268293936,0
-2.21441878238693E-05,1.13330797830713E-05,-3.1640625,-3.10838404086925,0
-2.71118860837305E-05,1.52694665302988E-05,-3.1640625,-3.10735437246807,0
-2.21334921661764E-05,1.26379600260407E-05,-3.1640625,-3.10632368834309,0
-2.59294647548813E-05,1.29721729535959E-05,-3.1640625,-3.10529199812827,0
-2.45481223828392E-05,1.05271128632012E-05,-3.1640625,-3.10425931049088,0
-2.60906163020991E-05,1.17427925943048E-05,-3.1640625,-3.10322563313884,0
-2.51201436185511E-05,1.16709516078117E-05,-3.1640625,-3.10219097282884,0
-2.51943765761098E-05,1.08635022115777E-05,-3.1640625,-3.10115533537541,0
-2.55352515523555E-05,9.75734019448282E-06,-3.1640625,-3.10011872566092,0
-2.46731287916191E-05,1.0519501302042E-05,-3.1640625,-3.09908114764653,0
-2.52245190495159E-05,1.6353218597942E-05,-3.1640625,-3.09804260438402,0
-2.34760755120078E-05,2.12594186450588E-05,-3.1640625,-3.09700309802836,0
-2.38195316342171E-05,2.24305931624258E-05,-3.1640625,-3.09596262985099,0
-2.11191036214586E-05,1.69014783750754E-05,-3.1640625,-3.09492120025369,0
-2.10110756597715E-05,1.15379425551509E-05,-3.1640625,-3.09387880878279,0
-1.99747519218363E-05,6.44310966890771E-06,-3.1640625,-3.09283545414345,0
-2.10599700949388E-05,4.36231175626745E-06,-3.1640625,-3.09179113421377,0
-1.95500251720659E-05,1.77526817424223E-06,-3.1640625,-3.09074584605857,0
-2.08688070415519E-05,1.67700349607003E-07,-3.1640625,-3.08969958594291,0
-2.13584571611136E-05,-1.75218985987158E-06,-3.1640625,-3.08865234934542,0
-2.22490725718671E-05,-1.84254622581648E-06,-3.1640625,-3.08760413097166,0
-2.1910449504503E-05,-9.64081323218124E-07,-3.1640625,-3.08655492476775,0
-2.17889773921343E-05,1.67427208452864E-06,-3.1640625,-3.08550472393445,0
-2.10705475183204E-05,4.75561273560743E-06,-3.1640625,-3.08445352094186,0
-2.04168336495059E-05,6.57107329971041E-06,-3.1640625,-3.08340130754484,0
-1.62323485710658E-05,4.24827749156975E-06,-3.1640625,-3.0823480747988,0
-2.43133908952586E-05,4.78881838716916E-06,-3.1640625,-3.08129381307581,0
-1.94883559743175E-05,3.51216954186384E-06,-3.1640625,-3.08023851208075,0
-2.17387023440097E-05,5.74843261347269E-06,-3.1640625,-3.0791821608676,0
-1.62460346473381E-05,4.03273588744923E-06,-3.1640625,-3.07812474785615,0
-1.6981322914944E-05,4.20571223003208E-06,-3.1640625,-3.07706626084895,0
-1.61243824550183E-05,5.92704100199626E-06,-3.1640625,-3.07600668704843,0
-1.90559694601689E-05,1.08659369288944E-05,-3.1640625,-3.07494601307364,0
-2.00733684323495E-05,1.36581911647227E-05,-3.1640625,-3.07388422497667,0
-2.11546848731814E-05,1.30278640426695E-05,-3.1640625,-3.07282130825898,0
-2.23842380364658E-05,1.15827178888139E-05,-3.1640625,-3.07175724788787,0
-2.25363037316129E-05,1.17198087536963E-05,-3.1640625,-3.07069202831312,0
-2.29001834668452E-05,1.27229341160273E-05,-3.1640625,-3.06962563348364,0
-2.09479112527333E-05,1.10251257865457E-05,-3.1640625,-3.06855804686376,0
-2.08510045922594E-05,7.77910281613003E-06,-3.1640625,-3.06748925144934,0
-2.04239677259466E-05,3.98113297706004E-06,-3.1640625,-3.0664192297836,0
-2.22350936383009E-05,1.98006614482438E-06,-3.1640625,-3.06534796397306,0
-2.1286325136316E-05,4.33474383498833E-07,-3.1640625,-3.06427543570363,0
-2.10658708965639E-05,1.8879985930198E-07,-3.1640625,-3.06320162625672,0
-2.0171679352643E-05,-2.00304597797185E-07,-3.1640625,-3.06212651652544,0
-2.12460690818261E-05,5.08003950017155E-07,-3.1640625,-3.06105008703076,0
-2.11280148505466E-05,2.3531522401754E-06,-3.1640625,-3.05997231793784,0
-2.14340125239687E-05,4.82575569549226E-06,-3.1640625,-3.05889318907242,0
-2.10525104193948E-05,6.80983930578805E-06,-3.1640625,-3.05781267993732,0
-2.11018905247329E-05,8.43278212414589E-06,-3.1640625,-3.0567307697289,0
-2.15944564843085E-05,1.04047039712896E-05,-3.1640625,-3.05564743735348,0
-2.25595740630524E-05,1.30784192151623E-05,-3.1640625,-3.05456266144367,0
-1.85160261025885E-05,1.18400712381117E-05,-3.1640625,-3.05347642037472,0
-2.69763004325796E-05,1.98668967641424E-05,-3.1640625,-3.05238869228071,0
-2.20239144255174E-05,2.29082161240513E-05,-3.1640625,-3.05129945507063,0
-2.74698686553165E-05,3.03429405903444E-05,-3.1640625,-3.05020868644418,0
-2.43059512285981E-05,2.56282601185376E-05,-3.1640625,-3.04911636390695,0
-2.86443337245146E-05,2.13254206755664E-05,-3.1640625,-3.0480224647848,0
-2.88589762931224E-05,1.59184310177807E-05,-3.1640625,-3.04692696623727,0
-3.13104028464295E-05,1.5907713532215E-05,-3.1640625,-3.04582984527003,0
-3.02835596812656E-05,1.64527318702312E-05,-3.1640625,-3.0447310787459,0
-2.95068493869621E-05,1.84407072083559E-05,-3.1640625,-3.04363064339453,0
-2.89031158899888E-05,1.86748748092214E-05,-3.1640625,-3.04252851582065,0
-2.69421634584432E-05,1.61502957780613E-05,-3.1640625,-3.04142467251119,0
-2.61697750829626E-05,1.49109600897646E-05,-3.1640625,-3.04031908984188,0
-2.48110663960688E-05,1.37404331326252E-05,-3.1640625,-3.03921174408361,0
-2.64441841864027E-05,1.40366719278973E-05,-3.1640625,-3.0381026114091,0
-2.55889208347071E-05,1.27727726066951E-05,-3.1640625,-3.03699166790007,0
-2.62084940914065E-05,1.2073672223778E-05,-3.1640625,-3.03587888955494,0
-2.53928938036552E-05,1.04602841020096E-05,-3.1640625,-3.03476425229702,0
-2.67077120952308E-05,1.1520559382916E-05,-3.1640625,-3.03364773198323,0
-2.54389924521092E-05,1.18633706733817E-05,-3.1640625,-3.0325293044133,0
-2.47637944994494E-05,1.2796233932022E-05,-3.1640625,-3.03140894533917,0
-2.33366481552366E-05,1.20002432595356E-05,-3.1640625,-3.03028663047478,0
-2.33206937991781E-05,1.13601327029755E-05,-3.1640625,-3.02916233550581,0
-2.1606110749417E-05,1.07478108475334E-05,-3.1640625,-3.0280360360993,0
-2.10748512472492E-05,1.03799684438854E-05,-3.1640625,-3.02690770791277,0
-2.16019252547994E-05,1.01862124211038E-05,-3.1640625,-3.02577732660277,0
-2.22493363253307E-05,1.08518161141546E-05,-3.1640625,-3.02464486783279,0
-1.86640063475352E-05,7.90562080510426E-06,-3.1640625,-3.02351030728041,0
-2.70253785856767E-05,1.18746020234539E-05,-3.1640625,-3.02237362064389,0
-2.14879491977626E-05,1.55876532517141E-05,-3.1640625,-3.02123478364833,0
-2.69783558906056E-05,2.95580593956402E-05,-3.1640625,-3.02009377205159,0
-2.40603985730559E-05,3.9152004319476E-05,-3.1640625,-3.01895056165043,0
-2.71225762844551E-05,4.7365316277137E-05,-3.1640625,-3.01780512828698,0
-2.57997344306204E-05,4.74680527986493E-05,-3.1640625,-3.01665744785565,0
-2.78437819360988E-05,4.19190728280228E-05,-3.1640625,-3.01550749631028,0
-2.79325486189919E-05,2.92672375508118E-05,-3.1640625,-3.01435524967149,0
-2.90620137093356E-05,1.60108575073536E-05,-3.1640625,-3.0132006840341,0
-2.96211619570386E-05,4.77958064948325E-06,-3.1640625,-3.01204377557426,0
-2.77583912975388E-05,-3.09298138745362E-06,-3.1640625,-3.01088450055636,0
-2.75562197202817E-05,-7.2458306021872E-06,-3.1640625,-3.00972283533962,0
-2.65321559709264E-05,-1.46254478750052E-05,-3.1640625,-3.00855875638451,0
-2.72752022283385E-05,-2.53917023655958E-05,-3.1640625,-3.00739224025916,0
-2.51252859015949E-05,-3.68943183275405E-05,-3.1640625,-3.00622326364611,0
-2.36702562688151E-05,-4.69003280159086E-05,-3.1640625,-3.00505180334936,0
-1.93028681678697E-05,-5.71476302866358E-05,-3.1640625,-3.00387783630154,0
-1.77602942130761E-05,-5.63764697290026E-05,-3.1640625,-3.00270133957093,0
-1.74144643096952E-05,-4.02156401833054E-05,-3.1640625,-3.00152229036778,0
-2.06695767701603E-05,-1.69699887919705E-05,-3.1640625,-3.00034066604958,0
-2.22395246964879E-05,-2.55641793955874E-06,-3.1640625,-2.99915644412506,0
-2.43139802478254E-05,2.33199102694925E-06,-3.1640625,-2.99796960225715,0
-2.49781987804454E-05,5.22149275639094E-06,-3.1640625,-2.99678011826562,0
-2.44142447627382E-05,1.23440904644667E-05,-3.1640625,-2.99558797012961,0
-2.33887221838813E-05,2.11414590012282E-05,-3.1640625,-2.99439313599057,0
-2.33955342991976E-05,2.97852584481006E-05,-3.1640625,-2.99319559415553,0
-2.00209397007711E-05,3.05940411635675E-05,-2.98828125,-3.26898640264092,-0.594895029803647
-2.97540100291371E-05,4.35746987932362E-05,-2.98828125,-3.26898376051729,-0.594895029803647
-2.46099443756975E-05,2.83479093923233E-05,-2.98828125,-3.26897845424918,-0.594895029803647
-2.98640898108715E-05,2.83311692328425E-05,-2.98828125,-3.26897046197804,-0.594895029803647
-2.4867920728866E-05,1.840998447733E-05,-2.98828125,-3.26895976200946,-0.594895029803647
-2.53856069321046E-05,2.32058027904714E-05,-2.98828125,-3.26894633281224,-0.594895029803647
-2.18514269363368E-05,2.23269016714767E-05,-2.98828125,-3.26893015301274,-0.594895029803647
-2.32993879762944E-05,2.45048831857275E-05,-2.98828125,-3.26891120138293,-0.594895029803647
-2.33025130000897E-05,2.01562961592572E-05,-2.98828125,-3.26888945682063,-0.594895029803647
-2.31800786423264E-05,1.83241900231224E-05,-2.98828125,-3.26886489832101,-0.594895029803647
-2.24780615099007E-05,2.65036469500046E-05,-2.98828125,-3.26883750493889,-0.594895029803647
-2.23045681195799E-05,4.04745878768153E-05,-2.98828125,-3.26880725574146,-0.594895029803647
-2.4011213099584E-05,5.16014551976696E-05,-2.98828125,-3.2687741297514,-0.594895029803647
-2.29661436605966E-05,4.80416128993966E-05,-2.98828125,-3.26873810588051,-0.594895029803647
-2.38148841162911E-05,3.71024980267975E-05,-2.98828125,-3.26869916285397,-0.594895029803647
-2.35139741562307E-05,2.00433532882016E-05,-2.98828125,-3.26865727912588,-0.594895029803647
-2.56912517215824E-05,8.49499156174716E-06,-2.98828125,-3.26861243278653,-0.594895029803647
-2.50582252192544E-05,-3.79421112484124E-06,-2.98828125,-3.26856460146236,-0.594895029803647
-2.49109398282599E-05,-1.08254334918456E-05,-2.98828125,-3.26851376220933,-0.594895029803647
-2.19589765038108E-05,-1.65987421496538E-05,-2.98828125,-3.26845989140093,-0.594895029803647
-2.10988237085985E-05,-1.6860061805346E-05,-2.98828125,-3.26840296461161,-0.594895029803647
-1.94744534383062E-05,-1.86841862159781E-05,-2.98828125,-3.26834295649671,-0.594895029803647
-2.02125429495936E-05,-1.641147355258E-05,-2.98828125,-3.26827984066953,-0.594895029803647
-2.14014180528466E-05,-8.43576799525181E-06,-2.98828125,-3.26821358957701,-0.594895029803647
-2.21430345845874E-05,5.25535824635881E-06,-2.98828125,-3.26814417437498,-0.594895029803647
-2.04375210159924E-05,1.60120907821693E-05,-2.98828125,-3.268071564805,-0.594895029803647
-1.92697261809371E-05,2.254930404888E-05,-2.98828125,-3.26799572907426,-0.594895029803647
-1.70431630976964E-05,2.04626539925812E-05,-2.98828125,-3.2679166337404,-0.594895029803647
-2.50831672019558E-05,2.59587886830559E-05,-2.98828125,-3.2678342436028,-0.594895029803647
-1.95470183825819E-05,1.33501598611474E-05,-2.98828125,-3.2677485216021,-0.594895029803647
-2.39555847656447E-05,1.53789169416996E-05,-2.98828125,-3.26765942873008,-0.594895029803647
-2.21167647396214E-05,9.99115673039341E-06,-2.98828125,-3.26756692395213,-0.594895029803647
-2.63071815425064E-05,1.23299669212429E-05,-2.98828125,-3.26747096414437,-0.594895029803647
-2.64898935711244E-05,1.12846992124105E-05,-2.98828125,-3.26737150404772,-0.594895029803647
-2.8378824936226E-05,1.5022076695459E-05,-2.98828125,-3.26726849624083,-0.594895029803647
-2.79159539786633E-05,1.66419813467655E-05,-2.98828125,-3.26716189113437,-0.594895029803647
-2.68302865151782E-05,1.70714502019109E-05,-2.98828125,-3.26705163698834,-0.594895029803647
-2.5956805984606E-05,1.68078931892524E-05,-2.98828125,-3.26693767995463,-0.594895029803647
-2.45996889134403E-05,1.47732007462764E-05,-2.98828125,-3.26681996414622,-0.594895029803647
-2.51378642133204E-05,1.53161417983938E-05,-2.98828125,-3.26669843173464,-0.594895029803647
-2.39217770285904E-05,1.57867943926249E-05,-2.98828125,-3.26657302307708,-0.594895029803647
-2.38558695855318E-05,1.86607339855982E-05,-2.98828125,-3.26644367687469,-0.594895029803647
-2.27477830776479E-05,1.74646538653178E-05,-2.98828125,-3.26631033036333,-0.594895029803647
-2.39473083638586E-05,1.70489965967136E-05,-2.98828125,-3.2661729195383,-0.594895029803647
-2.34951239690417E-05,1.49193438119255E-05,-2.98828125,-3.26603137941391,-0.594895029803647
-2.46330000663875E-05,1.59829905896913E-05,-2.98828125,-3.26588564431945,-0.594895029803647
-2.39984910876956E-05,1.60715626407182E-05,-2.98828125,-3.26573564823211,-0.594895029803647
-2.45327246375382E-05,1.75772547663655E-05,-2.98828125,-3.26558132514804,-0.594895029803647
-2.53485541179543E-05,1.67564721778035E-05,-2.98828125,-3.26542260949193,-0.594895029803647
-2.72666729870252E-05,1.53571290866239E-05,-2.98828125,-3.26525943656577,-0.594895029803647
-2.70356795226689E-05,1.13967571451212E-05,-2.98828125,-3.2650917430367,-0.594895029803647
-2.52147692663129E-05,8.17016825749306E-06,-2.98828125,-3.2649194674643,-0.594895029803647
-2.36447285715258E-05,6.73049225952127E-06,-2.98828125,-3.26474255086688,-0.594895029803647
-2.37953117903089E-05,8.13922270026524E-06,-2.98828125,-3.26456093732625,-0.594895029803647
-1.89253460121108E-05,8.88771955942502E-06,-2.98828125,-3.26437457463013,-0.594895029803647
-2.59774860751349E-05,1.3329450666788E-05,-2.98828125,-3.26418341495134,-0.594895029803647
-1.90387308975914E-05,1.07691121229436E-05,-2.98828125,-3.26398741556252,-0.594895029803647
-2.47664447670104E-05,1.13385240183561E-05,-2.98828125,-3.26378653958518,-0.594895029803647
-2.06739423447289E-05,7.63450589147396E-06,-2.98828125,-3.2635807567718,-0.594895029803647
-2.29286379180849E-05,8.31409943202743E-06,-2.98828125,-3.2633700443192,-0.594895029803647
-2.13211424124893E-05,8.79681374499341E-06,-2.98828125,-3.26315438771143,-0.594895029803647
-2.21864956984064E-05,1.13147743832087E-05,-2.98828125,-3.26293378159021,-0.594895029803647
-1.99163223442156E-05,1.21211796795251E-05,-2.98828125,-3.26270823065054,-0.594895029803647
-1.90246282727458E-05,1.15395350803738E-05,-2.98828125,-3.26247775055932,-0.594895029803647
-1.99040423467522E-05,9.88374540611403E-06,-2.98828125,-3.26224236889425,-0.594895029803647
-2.06986296689138E-05,7.9401615948882E-06,-2.98828125,-3.2620021261005,-0.594895029803647
-2.31087597057922E-05,7.87218687037239E-06,-2.98828125,-3.26175707646234,-0.594895029803647
-2.3726806830382E-05,7.3840569712047E-06,-2.98828125,-3.26150728908679,-0.594895029803647
-2.54614587902324E-05,8.28967586130602E-06,-2.98828125,-3.26125284889617,-0.594895029803647
-2.41414109041216E-05,8.54996324051172E-06,-2.98828125,-3.26099385762614,-0.594895029803647
-2.54168608080363E-05,9.33130286284722E-06,-2.98828125,-3.26073043482587,-0.594895029803647
-2.62552566709928E-05,9.02376814337913E-06,-2.98828125,-3.26046271885679,-0.594895029803647
-2.9547511076089E-05,1.09994034573901E-05,-2.98828125,-3.26019086788672,-0.594895029803647
-3.01441832561977E-05,1.44528985401848E-05,-2.98828125,-3.25991506087592,-0.594895029803647
-3.08642484014854E-05,1.9159453586326E-05,-2.98828125,-3.25963549855234,-0.594895029803647
-2.90313801087905E-05,2.12932882277528E-05,-2.98828125,-3.2593524043728,-0.594895029803647
-2.71625885943649E-05,1.97715180547675E-05,-2.98828125,-3.25906602546759,-0.594895029803647
-2.49443091888679E-05,1.61828265845543E-05,-2.98828125,-3.25877663356517,-0.594895029803647
-2.53117996180663E-05,1.39015528475284E-05,-2.98828125,-3.25848452589396,-0.594895029803647
-2.64504433289403E-05,1.19310279842466E-05,-2.98828125,-3.25819002605767,-0.594895029803647
-2.80221411230741E-05,9.20322781894356E-06,-2.98828125,-3.25789348488112,-0.594895029803647
-2.32825077546295E-05,5.86803344049258E-06,-2.98828125,-3.25759528122349,-0.594895029803647
-3.24318243656307E-05,8.30834596854402E-06,-2.98828125,-3.25729582275632,-0.594895029803647
-2.18640016100835E-05,7.11304119249689E-06,-2.98828125,-3.25699554670366,-0.594895029803647
-2.45067058131099E-05,8.28619249659823E-06,-2.98828125,-3.25669492054194,-0.594895029803647
-1.87575460586231E-05,4.8834340304893E-06,-2.98828125,-3.25639444265678,-0.594895029803647
-2.25466919800965E-05,3.47431887348648E-06,-2.98828125,-3.25609464295419,-0.594895029803647
-2.04985608434072E-05,1.96753398995497E-06,-2.98828125,-3.2557960834237,-0.594895029803647
-2.22393282456324E-05,4.10871507483535E-06,-2.98828125,-3.25549935865095,-0.594895029803647
-2.08402616408421E-05,4.99611905979691E-06,-2.98828125,-3.25520509627759,-0.594895029803647
-1.94566055142786E-05,5.40906057722168E-06,-2.98828125,-3.25491395740618,-0.594895029803647
-1.83418815140612E-05,8.44203623273643E-06,-2.98828125,-3.25462663694832,-0.594895029803647
-1.71207993844291E-05,1.33435050884145E-05,-2.98828125,-3.25434386391428,-0.594895029803647
-1.80664137587883E-05,1.73147218447411E-05,-2.98828125,-3.25406640164314,-0.594895029803647
-1.76555422513047E-05,1.74876222445164E-05,-2.98828125,-3.25379504797246,-0.594895029803647
-2.04825519176666E-05,1.73550342879025E-05,-2.98828125,-3.25353063534617,-0.594895029803647
-2.07895973289851E-05,1.74984397744993E-05,-2.98828125,-3.2532740308597,-0.594895029803647
-2.33730788750108E-05,2.02336286747595E-05,-2.98828125,-3.25302613624119,-0.594895029803647
-2.29296420002356E-05,2.17664219235303E-05,-2.98828125,-3.25278788776857,-0.594895029803647
-2.35616262216354E-05,1.96665387193207E-05,-2.98828125,-3.25256025612262,-0.594895029803647
-2.10014131880598E-05,1.36599282996031E-05,-2.98828125,-3.2523442461766,-0.594895029803647
-1.99874830286717E-05,8.77763523021713E-06,-2.98828125,-3.25214089672236,-0.594895029803647
-1.83662759809522E-05,6.68826351102325E-06,-2.98828125,-3.25195128013274,-0.594895029803647
-1.95790253201267E-05,7.99232202552957E-06,-2.98828125,-3.25177650195974,-0.594895029803647
-2.05141750484472E-05,9.81796983978711E-06,-2.98828125,-3.25161770046788,-0.594895029803647
-2.24015057028737E-05,9.63547154242406E-06,-2.98828125,-3.25147604610308,-0.594895029803647
-2.31260346481577E-05,6.56853308100835E-06,-2.98828125,-3.25135274089804,-0.594895029803647
-2.37352869589813E-05,3.82225425710203E-06,-2.98828125,-3.25124901781582,-0.594895029803647
-1.86728811968351E-05,3.1495260373049E-06,-2.98828125,-3.25116614003342,-0.594895029803647
-2.62293051491724E-05,5.48490379514988E-06,-2.98828125,-3.25110540016681,-0.594895029803647
-2.11073420359753E-05,4.9365794438927E-06,-2.98828125,-3.25106811943828,-0.594895029803647
-2.80577169178287E-05,5.40450537300785E-06,-2.98828125,-3.25105564678759,-0.594895029803647
-2.44907660089666E-05,6.3388642956852E-06,-2.98828125,-3.25106935792872,-0.594895029803647
-2.58848594967276E-05,9.00036957318662E-06,-2.98828125,-3.25111065435484,-0.594895029803647
-2.20318288484123E-05,1.00107336038491E-05,-2.98828125,-3.25118096229372,-0.594895029803647
-2.21050395339262E-05,1.00497700259439E-05,-2.98828125,-3.25128173161497,-0.594895029803647
-2.23108690988738E-05,9.50906269281404E-06,-2.98828125,-3.25141443469009,-0.594895029803647
-2.43508147832472E-05,9.00181476026773E-06,-2.98828125,-3.25158056520565,-0.594895029803647
-2.50921839324292E-05,9.28548888623482E-06,-2.98828125,-3.25178163693135,-0.594895029803647
-2.36075520660961E-05,1.05823401099769E-05,-2.98828125,-3.25201918244506,-0.594895029803647
-2.39111795963254E-05,1.235547097167E-05,-2.98828125,-3.25229475181802,-0.594895029803647
-2.28586995945079E-05,1.27110733956215E-05,-2.98828125,-3.25260991126231,-0.594895029803647
-2.44577131525148E-05,1.25955994008109E-05,-2.98828125,-3.2529662417426,-0.594895029803647
-2.36770792980678E-05,1.22360243040021E-05,-2.98828125,-3.25336533755378,-0.594895029803647
-2.46405015786877E-05,1.18766574814799E-05,-2.98828125,-3.25380880486679,-0.594895029803647
-2.41904799622716E-05,1.09229331428651E-05,-2.98828125,-3.25429826024506,-0.594895029803647
-2.61155728367157E-05,9.68070435192203E-06,-2.98828125,-3.25483532913415,-0.594895029803647
-2.60032447840786E-05,7.47201602280256E-06,-2.98828125,-3.2554216443275,-0.594895029803647
-2.68660387519049E-05,5.41611598237068E-06,-2.98828125,-3.25605884441083,-0.594895029803647
-2.61811310338089E-05,3.96457926399307E-06,-2.98828125,-3.25674857218857,-0.594895029803647
-2.56676539720502E-05,4.17865112467553E-06,-2.98828125,-3.25749247309503,-0.594895029803647
-2.51050660153851E-05,6.71070574753685E-06,-2.98828125,-3.25829219359269,-0.594895029803647
-2.64905575022567E-05,9.81349057838088E-06,-2.98828125,-3.25914937955963,-0.594895029803647
-2.6556152079138E-05,1.02761296147946E-05,-2.98828125,-3.26006567466797,-0.594895029803647
-2.59987627941882E-05,7.82390361564467E-06,-2.98828125,-3.26104271875573,-0.594895029803647
-2.05641517823096E-05,4.61941908724839E-06,-2.98828125,-3.26208214619466,-0.594895029803647
-2.82948421954643E-05,5.66871403862024E-06,-2.98828125,-3.26318558425655,-0.594895029803647
-2.10662292374764E-05,3.03622186947905E-06,-2.98828125,-3.26435465148027,-0.594895029803647
-2.78283932857448E-05,4.50233756055241E-06,-2.98828125,-3.26559095604182,-0.594895029803647
-2.39498622249812E-05,4.92331764689879E-06,-2.98828125,-3.26689609412959,-0.594895029803647
-2.73456080321921E-05,8.55570942803752E-06,-2.98828125,-3.26827164832689,-0.594895029803647
-2.61539498751517E-05,1.00564257081714E-05,-2.98828125,-3.2697191860043,-0.594895029803647
-2.83477784250863E-05,1.00427696452243E-05,-2.98828125,-3.27124025772454,-0.594895029803647
-2.75162165053189E-05,9.39487654250115E-06,-2.98828125,-3.27283639566281,-0.594895029803647
-2.5454875867581E-05,9.67774485616246E-06,-2.98828125,-3.2745091120455,-0.594895029803647
-2.38177926803473E-05,1.03087440948002E-05,-2.98828125,-3.27625989760976,-0.594895029803647
-2.24689265451161E-05,1.11463386929245E-05,-2.98828125,-3.27809022008597,-0.594895029803647
-2.43630311160814E-05,1.29470090541872E-05,-2.98828125,-3.28000152270596,-0.594895029803647
-2.4044978999882E-05,1.35885620693443E-05,-2.98828125,-3.28199522273977,-0.594895029803647
-2.47530097112758E-05,1.24537200463237E-05,-2.98828125,-3.28407271006358,-0.594895029803647
-2.32407091971254E-05,9.28524968912825E-06,-2.98828125,-3.28623534575998,-0.594895029803647
-2.51821493293392E-05,6.97768018653733E-06,-2.98828125,-3.28848446075192,-0.594895029803647
-2.57451774814399E-05,5.95809524384094E-06,-2.98828125,-3.29082135447203,-0.594895029803647
-2.7789814339485E-05,7.11484790372197E-06,-2.98828125,-3.29324729356864,-0.594895029803647
-2.77240906143561E-05,8.71854263095884E-06,-2.98828125,-3.29576351064997,-0.594895029803647
-2.86278100247728E-05,1.08714693851653E-05,-2.98828125,-3.29837120306808,-0.594895029803647
-2.7945774490945E-05,1.22868104881491E-05,-2.98828125,-3.30107153174477,-0.594895029803647
-2.81417887890711E-05,1.40081829158589E-05,-2.98828125,-3.30386562004127,-0.594895029803647
-2.75000184046803E-05,1.49047500599409E-05,-2.98828125,-3.30675455267309,-0.594895029803647
-2.79043433693005E-05,1.41499085657415E-05,-2.98828125,-3.30973937467079,-0.594895029803647
-2.84633570117876E-05,1.42628232424613E-05,-2.98828125,-3.31282109038722,-0.594895029803647
-2.82462897303049E-05,1.90209357242566E-05,-2.98828125,-3.31600066255212,-0.594895029803647
-2.13910370803205E-05,2.27141699724598E-05,-2.98828125,-3.31927901137492,-0.594895029803647
-2.90514799416997E-05,3.57537282980047E-05,-2.98828125,-3.3226570136973,-0.594895029803647
-2.07554712687852E-05,3.10988034470938E-05,-2.98828125,-3.32613550219711,-0.594895029803647
-2.66779170488007E-05,3.92551519325934E-05,-2.98828125,-3.3297152646454,-0.594895029803647
-2.24025279749185E-05,3.9597311115358E-05,-2.98828125,-3.33339704321784,-0.594895029803647
-2.60209963016678E-05,4.63674041384365E-05,-2.98828125,-3.3371815338611,-0.594895029803647
-2.36867253988748E-05,4.67779900645837E-05,-2.98828125,-3.34106938571473,-0.594895029803647
-2.43522536038654E-05,4.82484865642618E-05,-2.98828125,-3.34506120058823,-0.594895029803647
-2.38912271015579E-05,4.45840414613485E-05,-2.98828125,-3.34915753249333,-0.594895029803647
-2.45572246058146E-05,3.7990710552549E-05,-2.98828125,-3.35335888723159,-0.594895029803647
-2.55434679274913E-05,2.86387057713E-05,-2.98828125,-3.35766572203733,-0.594895029803647
-2.48826527240453E-05,1.53321052493993E-05,-2.98828125,-3.36207844527551,-0.594895029803647
-2.45692826865707E-05,2.17630963561533E-06,-2.98828125,-3.36659741619386,-0.594895029803647
-2.26791780733038E-05,-9.71769622992724E-06,-2.98828125,-3.37122294472849,-0.594895029803647
-2.39814471569844E-05,-1.37789738801075E-05,-2.98828125,-3.37595529136304,-0.594895029803647
-2.25413314183243E-05,-1.65247020049719E-05,-2.98828125,-3.38079466704199,-0.594895029803647
-2.29922407015692E-05,-1.66045410878723E-05,-2.98828125,-3.38574123313828,-0.594895029803647
-2.20594283746323E-05,-1.75259083334822E-05,-2.98828125,-3.39079510147513,-0.594895029803647
-2.45736500801286E-05,-1.26059767353581E-05,-2.98828125,-3.39595633440149,-0.594895029803647
-2.50553166551981E-05,-7.96043332229601E-06,-2.98828125,-3.40122494492023,-0.594895029803647
-2.58379441220313E-05,-4.98906842949509E-07,-2.98828125,-3.40660089686764,-0.594895029803647
-2.43861377384746E-05,1.00348943306017E-05,-2.98828125,-3.41208410514264,-0.594895029803647
-2.52869576797821E-05,1.90291993931169E-05,-2.98828125,-3.41767443598468,-0.594895029803647
-2.59823791566305E-05,1.89758320630062E-05,-2.98828125,-3.42337170729954,-0.594895029803647
-2.62386911344947E-05,1.90447426575702E-05,-2.98828125,-3.42917568903204,-0.594895029803647
-2.53252364927903E-05,1.85433473234298E-05,-2.98828125,-3.43508610358511,-0.594895029803647
-2.4122724425979E-05,1.3001977094973E-05,-2.98828125,-3.44110262628467,-0.594895029803647
-1.78504724317463E-05,-1.62345099852246E-06,-2.98828125,-3.44722488588953,-0.594895029803647
-2.5732020731084E-05,-1.42929529829416E-05,-2.98828125,-3.45345246514559,-0.594895029803647
-2.00309823412681E-05,-2.33163755183341E-05,-2.98828125,-3.45978490138436,-0.594895029803647
-2.24920531763928E-05,-1.8287988496013E-05,-2.98828125,-3.46622168716532,-0.594895029803647
-1.60500567290001E-05,-1.35543186843279E-05,-2.98828125,-3.47276227096038,-0.594895029803647
-1.85338940354995E-05,-1.11964436655398E-05,-2.98828125,-3.47940605787949,-0.594895029803647
-1.78178197529633E-05,-1.25712158478564E-05,-2.98828125,-3.48615241043753,-0.594895029803647
-1.94186486623948E-05,-9.47263561101863E-06,-2.98828125,-3.49300064936279,-0.594895029803647
-1.87858768185833E-05,-5.51368157175602E-06,-2.98828125,-3.49995005444512,-0.594895029803647
-1.92963252629852E-05,-3.10354221255693E-06,-2.98828125,-3.5069998654208,-0.594895029803647
-2.09845347853843E-05,1.02074784535944E-06,-2.98828125,-3.51414928289082,-0.594895029803647
-2.22572271013632E-05,6.9765878834005E-06,-2.98828125,-3.52139746926997,-0.594895029803647
-2.36619780480396E-05,1.03979464256554E-05,-2.98828125,-3.52874354976408,-0.594895029803647
-2.19207195186755E-05,1.01023615570739E-05,-2.98828125,-3.53618661337376,-0.594895029803647
-2.16992375499103E-05,1.03352722362615E-05,-2.98828125,-3.54372571392373,-0.594895029803647
-2.07157299882965E-05,1.12851357698673E-05,-2.98828125,-3.55135987111637,-0.594895029803647
-2.21208611037582E-05,1.28077117551584E-05,-2.98828125,-3.55908807160747,-0.594895029803647
-2.08053770620609E-05,1.44785617521848E-05,-2.98828125,-3.56690927010164,-0.594895029803647
-2.04326897801366E-05,1.9057975805481E-05,-2.98828125,-3.57482239046584,-0.594895029803647
-1.88036228792043E-05,2.29616834985791E-05,-2.98828125,-3.58282632685929,-0.594895029803647
-2.03895542654209E-05,2.37573494814569E-05,-2.98828125,-3.59091994487864,-0.594895029803647
-2.19393950828817E-05,2.1886018657824E-05,-2.98828125,-3.59910208271672,-0.594895029803647
-2.34874842135469E-05,2.01331422431394E-05,-2.98828125,-3.60737155233379,-0.594895029803647
-2.29714605666231E-05,1.81164923560573E-05,-2.98828125,-3.61572714064035,-0.594895029803647
-2.36461128224619E-05,1.68248698173556E-05,-2.98828125,-3.62416761069137,-0.594895029803647
-2.39035180129576E-05,1.66849858942442E-05,-2.98828125,-3.63269170289142,-0.594895029803647
-2.41879861277994E-05,1.77459314727457E-05,-2.98828125,-3.64129813620939,-0.594895029803647
-1.97417011804646E-05,1.61788339028135E-05,-2.98828125,-3.64998560940121,-0.594895029803647
-2.8191398087074E-05,2.39700857491698E-05,-2.98828125,-3.65875280223853,-0.594895029803647
-2.28416265599662E-05,1.82350286195287E-05,-2.98828125,-3.66759837674121,-0.594895029803647
-2.93851317110239E-05,2.01473558263388E-05,-2.98828125,-3.6765209784124,-0.594895029803647
-2.48710312007461E-05,1.49958395923022E-05,-2.98828125,-3.68551923747593,-0.594895029803647
-2.61649856838631E-05,1.55167890625307E-05,-2.98828125,-3.69459177011534,-0.594895029803647
-2.21480386244366E-05,1.09367992990883E-05,-2.98828125,-3.70373717971319,-0.594895029803647
-2.25079184019705E-05,9.38795074034715E-06,-2.98828125,-3.71295405808743,-0.594895029803647
-2.23376609937986E-05,7.6851056292071E-06,-2.98828125,-3.72224098672164,-0.594895029803647
-2.26857682719128E-05,7.19619674782734E-06,-2.98828125,-3.73159653798624,-0.594895029803647
-2.27139134949539E-05,8.89845250640064E-06,-2.98828125,-3.7410192763489,-0.594895029803647
-2.16288026422262E-05,1.24211073853076E-05,-2.98828125,-3.750507759573,-0.594895029803647
-2.25640505959746E-05,1.81102241185727E-05,-2.98828125,-3.76006053990294,-0.594895029803647
-2.37731237575645E-05,2.09759964491241E-05,-2.98828125,-3.76967616523549,-0.594895029803647
-2.84016205114312E-05,2.25476615014486E-05,-2.98828125,-3.77935318027647,-0.594895029803647
-2.99948969768593E-05,2.0144098016317E-05,-2.98828125,-3.78909012768258,-0.594895029803647
-3.15149773086887E-05,1.90895425475901E-05,-2.98828125,-3.79888554918927,-0.594895029803647
-2.84120069409255E-05,1.70756702573271E-05,-2.98828125,-3.80873798672613,-0.594895029803647
-2.58511063293554E-05,1.71283791132737E-05,-2.98828125,-3.81864598351976,-0.594895029803647
-2.17062461160822E-05,1.57347076310543E-05,-2.98828125,-3.82860808518191,-0.594895029803647
-2.11902552109677E-05,1.53260916704312E-05,-2.98828125,-3.83862284077956,-0.594895029803647
-2.15549225686118E-05,1.41151704156073E-05,-2.98828125,-3.84868880388469,-0.594895029803647
-2.34108174481662E-05,1.30952539620921E-05,-2.98828125,-3.85880453360316,-0.594895029803647
-2.38225165958283E-05,1.08497833934962E-05,-2.98828125,-3.86896859558216,-0.594895029803647
-2.41632242250489E-05,1.02721951407148E-05,-2.98828125,-3.87917956299475,-0.594895029803647
-2.43757422140334E-05,1.01780287877773E-05,-2.98828125,-3.88943601749947,-0.594895029803647
-2.45673618337605E-05,1.12918005470419E-05,-2.98828125,-3.89973655017381,-0.594895029803647
-1.97559584194096E-05,1.1594117495406E-05,-2.98828125,-3.91007976242061,-0.594895029803647
-2.7649770345306E-05,1.721460466797E-05,-2.98828125,-3.92046426684749,-0.594895029803647
-1.99432834051549E-05,1.31996766867815E-05,-2.98828125,-3.93088868811929,-0.594895029803647
-2.43481663346756E-05,1.42669432534603E-05,-2.98828125,-3.94135166378341,-0.594895029803647
-2.11139176826691E-05,1.27019357023528E-05,-2.98828125,-3.95185184506763,-0.594895029803647
-2.45854189415695E-05,1.81894210982136E-05,-2.98828125,-3.96238789765023,-0.594895029803647
-2.20528454519808E-05,1.83550328074489E-05,-2.98828125,-3.97295850240238,-0.594895029803647
-2.32996244449168E-05,1.6996787962853E-05,-2.98828125,-3.98356235610222,-0.594895029803647
-2.30581608775537E-05,1.62405503942864E-05,-2.98828125,-3.99419817212026,-2.68577971598878
-2.30713339988142E-05,1.70686889759963E-05,-2.98828125,-4.00486468107584,-2.68577971598878
-2.39246783166891E-05,1.74249871633947E-05,-2.98828125,-4.01556063146442,-2.68577971598878
-2.43215072259773E-05,1.63336262630764E-05,-2.98828125,-4.02628479025552,-2.68577971598878
-2.53833331953501E-05,1.6197740478674E-05,-2.98828125,-4.03703594346115,-2.68577971598878
-2.39761702687247E-05,1.55904253915651E-05,-2.98828125,-4.04781289667476,-2.68577971598878
-2.49494150921237E-05,1.58165948960232E-05,-2.98828125,-4.05861447558079,-2.68577971598878
-2.50965495069977E-05,1.45768890433828E-05,-2.98828125,-4.06943952643532,-2.68577971598878
-2.69577831204515E-05,1.40707652462879E-05,-2.98828125,-4.08028691651756,-2.68577971598878
-2.44631628447678E-05,1.15799839477404E-05,-2.98828125,-4.09115553455274,-2.68577971598878
-2.3450000298908E-05,1.00914421636844E-05,-2.98828125,-4.10204429110676,-2.68577971598878
-2.20877336687408E-05,8.58040766615886E-06,-2.98828125,-4.11295211895258,-2.68577971598878
-2.25449166464387E-05,9.57899101194926E-06,-2.98828125,-4.12387797340868,-2.68577971598878
-2.19646390178241E-05,1.05108956631739E-05,-2.98828125,-4.13482083264998,-2.68577971598878
-2.39083237829618E-05,1.1214134246984E-05,-2.98828125,-4.14577969799164,-2.68577971598878
-2.4485760150128E-05,1.05320059446967E-05,-2.98828125,-4.15675359414596,-2.68577971598878
-2.36759660765529E-05,9.82664096227381E-06,-2.98828125,-4.16774156945226,-2.68577971598878
-2.35043280554237E-05,8.53924393595662E-06,-2.98828125,-4.1787426960796,-2.68577971598878
-2.52388999797404E-05,5.57757493879762E-06,-2.98828125,-4.1897560702026,-2.68577971598878
-2.13915409403853E-05,2.47477714765409E-06,-2.98828125,-4.20078081215073,-2.68577971598878
-3.03645101666916E-05,3.59140221917187E-06,-2.98828125,-4.21181606653156,-2.68577971598878
-2.16550306504359E-05,3.6271476346883E-06,-2.98828125,-4.22286100232856,-2.68577971598878
-2.53267389780376E-05,4.68669668407529E-06,-2.98828125,-4.23391481297424,-2.68577971598878
-2.20053480006754E-05,3.29237150253903E-06,-2.98828125,-4.24497671639932,-2.68577971598878
-2.62386529357173E-05,2.58595196100941E-06,-2.98828125,-4.25604595505821,-2.68577971598878
-2.34588824241655E-05,1.64205994224176E-06,-2.98828125,-4.26712179593118,-2.68577971598878
-2.41466786974343E-05,1.72840054801782E-06,-2.98828125,-4.27820353050367,-2.68577971598878
-2.33214468607912E-05,1.88065621387068E-06,-2.98828125,-4.28929047472314,-2.68577971598878
-2.31560497923056E-05,2.06819959203131E-06,-2.98828125,-4.30038196893408,-2.68577971598878
-2.31508292927174E-05,2.34578055824386E-06,-2.98828125,-4.31147737779173,-2.68577971598878
-2.30031673709163E-05,2.74137278211128E-06,-2.98828125,-4.32257609015532,-2.68577971598878
-2.50398370553739E-05,5.6021349337243E-06,-2.98828125,-4.33367751896138,-2.68577971598878
-2.3976144802873E-05,9.70842393144267E-06,-2.98828125,-4.34478110107753,-2.68577971598878
-2.3618766135769E-05,1.3375192793319E-05,-2.98828125,-4.35588629713744,-2.68577971598878
-2.14204355870606E-05,1.43769575515762E-05,-2.98828125,-4.36699259135732,-2.68577971598878
-2.24286086449865E-05,1.2927641364513E-05,-2.98828125,-4.37809949133484,-2.68577971598878
-2.11512433452299E-05,1.05472909126547E-05,-2.98828125,-4.38920652783107,-2.68577971598878
-2.20185138459783E-05,1.07452788142837E-05,-2.98828125,-4.40031325453634,-2.68577971598878
-2.10199614230078E-05,1.21772081911331E-05,-2.98828125,-4.41141924782056,-2.68577971598878
-2.22641101572663E-05,1.23930194604327E-05,-2.98828125,-4.42252410646853,-2.68577971598878
-2.30791683861753E-05,1.18464513434446E-05,-2.98828125,-4.43362745140063,-2.68577971598878
-2.5006955183926E-05,1.15714919957099E-05,-2.98828125,-4.44472892537956,-2.68577971598878
-2.50466564466478E-05,1.12404177343706E-05,-2.98828125,-4.45582819270337,-2.68577971598878
-2.51504261541413E-05,1.09760030682082E-05,-2.98828125,-4.46692493888563,-2.68577971598878
-2.56364019151079E-05,1.0030593330157E-05,-2.98828125,-4.47801887032334,-2.68577971598878
-2.68637995759491E-05,9.04920034372481E-06,-2.98828125,-4.4891097139533,-2.68577971598878
-2.19250396185089E-05,8.02346767159179E-06,-2.98828125,-4.50019721689737,-2.68577971598878
-3.03614833683241E-05,1.24784928630106E-05,-2.98828125,-4.51128114609728,-2.68577971598878
-2.22263479372486E-05,1.04731452665874E-05,-2.98828125,-4.52236128793943,-2.68577971598878
-2.73578425549204E-05,1.19294527394231E-05,-2.98828125,-4.53343744787025,-2.68577971598878
-2.2010128304828E-05,9.63065122050466E-06,-2.98828125,-4.54450945000268,-2.68577971598878
-2.53244852501666E-05,9.26318080018973E-06,-2.98828125,-4.55557713671422,-2.68577971598878
-2.35429379245033E-05,7.15817532181973E-06,-2.98828125,-4.56664036823727,-2.68577971598878
-2.56182993325638E-05,8.32313435239485E-06,-2.98828125,-4.57769902224217,-2.68577971598878
-2.47958469117293E-05,9.60698343988042E-06,-2.98828125,-4.58875299341365,-2.68577971598878
-2.37291224038927E-05,9.68373296927894E-06,-2.98828125,-4.59980219302145,-2.68577971598878
-2.30772002396407E-05,7.8964558269945E-06,-2.98828125,-4.61084654848556,-2.68577971598878
-2.20643905777251E-05,5.72846738577937E-06,-2.98828125,-4.62188600293687,-2.68577971598878
-2.34005547099514E-05,5.99100667386665E-06,-2.98828125,-4.63292051477371,-2.68577971598878
-2.2952113795327E-05,7.12469500285806E-06,-2.98828125,-4.64395005721492,-2.68577971598878
-2.49105905822944E-05,8.77925867825979E-06,-2.98828125,-4.65497461784991,-2.68577971598878
-2.47876523644663E-05,8.08293225418311E-06,-2.98828125,-4.66599419818633,-2.68577971598878
-2.68187050096458E-05,6.58880662740557E-06,-2.98828125,-4.67700881319576,-2.68577971598878
-2.54969563684426E-05,3.5651671623782E-06,-2.98828125,-4.68801849085799,-2.68577971598878
-2.56351504503982E-05,1.64025141202728E-06,-2.98828125,-4.69902327170447,-2.68577971598878
-2.3800685085007E-05,5.12391579832183E-07,-2.98828125,-4.71002320836125,-2.68577971598878
-2.4053691959125E-05,1.52969641931122E-06,-2.98828125,-4.72101836509201,-2.68577971598878
-2.28185544983717E-05,2.87345210381318E-06,-2.98828125,-4.73200881734166,-2.68577971598878
-2.35729057749268E-05,5.80798723603948E-06,-2.98828125,-4.74299465128089,-2.68577971598878
-2.37698423006805E-05,8.48661966301734E-06,-2.98828125,-4.75397596335227,-2.68577971598878
-2.37178410316119E-05,9.75473540165694E-06,-2.98828125,-4.76495285981823,-2.68577971598878
-2.38907559833024E-05,9.87814382824581E-06,-2.98828125,-4.77592545631127,-2.68577971598878
-2.49367840297055E-05,9.7589208962745E-06,-2.98828125,-4.78689387738706,-2.68577971598878
-1.93470095837256E-05,8.44664464239031E-06,-2.98828125,-4.7978582560807,-2.68577971598878
-2.68088988377713E-05,1.31755623442587E-05,-2.98828125,-4.80881873346659,-2.68577971598878
-2.01269504032098E-05,1.21337207019678E-05,-2.98828125,-4.81977545822222,-2.68577971598878
-2.63488618656993E-05,1.50962268889998E-05,-2.98828125,-4.8307285861963,-2.68577971598878
-2.34244580497034E-05,1.28838182718027E-05,-2.98828125,-4.84167827998137,-2.68577971598878
-2.71368880930822E-05,1.3643969396071E-05,-2.98828125,-4.85262470849155,-2.68577971598878
-2.57654137385543E-05,1.34486754177487E-05,-2.98828125,-4.86356804654561,-2.68577971598878
-2.75321035587695E-05,1.39951625897083E-05,-2.98828125,-4.87450847445545,-2.68577971598878
-2.67629893642152E-05,1.31209335449967E-05,-2.98828125,-4.88544617762034,-2.68577971598878
-2.48305768764112E-05,1.27740640891716E-05,-2.98828125,-4.8963813461268,-2.68577971598878
-2.29100896831369E-05,1.32333498186199E-05,-2.98828125,-4.90731417435464,-2.68577971598878
-2.13652856473345E-05,1.28494029922877E-05,-2.98828125,-4.91824486058927,-2.68577971598878
-2.23376518988516E-05,1.27177199829021E-05,-2.63671875,-4.92917360664061,-2.68577971598878
-2.2000725948601E-05,1.16217006507213E-05,-2.63671875,-4.94010061746877,-2.68577971598878
-2.36506384680979E-05,1.0943872439384E-05,-2.63671875,-4.95102610081634,-2.68577971598878
-2.27369237109087E-05,9.83762492978713E-06,-2.63671875,-4.96195026684775,-2.68577971598878
-2.40732115344144E-05,1.00730103440583E-05,-2.63671875,-4.97287332779589,-2.68577971598878
-2.4200222469517E-05,8.21220965008251E-06,-2.63671875,-4.98379549761642,-2.68577971598878
-2.59463631664403E-05,6.18154263065662E-06,-2.63671875,-4.99471699165006,-2.68577971598878
-2.44163347815629E-05,5.40384644409642E-06,-2.63671875,-5.00563802629304,-2.68577971598878
-2.35819770750823E-05,8.25748975330498E-06,-2.63671875,-5.01655881867583,-2.68577971598878
-2.23202805500478E-05,1.31391398099368E-05,-2.63671875,-5.02747958635029,-2.68577971598878
-2.3289663658943E-05,1.98230973182945E-05,-2.63671875,-5.03840054698516,-2.68577971598878
-2.38268075918313E-05,2.68941803369671E-05,-2.63671875,-5.04932191807024,-2.68577971598878
-2.44349794229493E-05,3.14648605126422E-05,-2.63671875,-5.06024391662915,-2.68577971598878
-2.42790883930866E-05,2.98925860988675E-05,-2.63671875,-5.07116675894091,-2.68577971598878
-2.40433782892069E-05,2.46302697632927E-05,-2.63671875,-5.08209066027062,-2.68577971598878
-1.93468968063826E-05,1.78260779648554E-05,-2.63671875,-5.09301583460911,-2.68577971598878
-2.81231241388014E-05,2.52271056524478E-05,-2.63671875,-5.10394249442174,-2.68577971598878
-2.2416832507588E-05,1.89966740435921E-05,-2.63671875,-5.11487085040606,-2.68577971598878
-2.74387821264099E-05,2.00721751753008E-05,-2.63671875,-5.12580111125832,-2.68577971598878
-2.36235100601334E-05,2.17643082578434E-06,-2.63671875,-5.1367334834488,-2.68577971598878
-2.65465478150873E-05,-1.1987204743491E-05,-2.63671875,-5.14766817100582,-2.68577971598878
-2.41322049987502E-05,-1.59448936756235E-05,-2.63671875,-5.15860537530848,-2.68577971598878
-2.40558110817801E-05,-4.25393727709888E-06,-2.63671875,-5.16954529488839,-2.68577971598878
-2.25739804591285E-05,8.80523566593183E-06,-2.63671875,-5.18048812524032,-2.68577971598878
-2.28163262363523E-05,2.11047117772978E-05,-2.63671875,-5.19143405864187,-2.68577971598878
-2.37308213399956E-05,3.16232071781997E-05,-2.63671875,-5.20238328398207,-2.68577971598878
-2.3190241336124E-05,4.00363096559886E-05,-2.63671875,-5.21333598659864,-2.68577971598878
-2.22690650844015E-05,4.76221357530449E-05,-2.63671875,-5.22429234812393,-2.68577971598878
-1.92184597835876E-05,4.98511944897473E-05,-2.63671875,-5.23525254633964,-2.68577971598878
-1.96928049263079E-05,4.61078998341691E-05,-2.63671875,-5.24621675503991,-2.68577971598878
-2.04328298423206E-05,3.18655038427096E-05,-2.63671875,-5.25718514390238,-2.68577971598878
-2.36646264966112E-05,1.54622794070747E-05,-2.63671875,-5.2681578783667,-2.68577971598878
-2.38188040384557E-05,-8.64201808781218E-07,-2.63671875,-5.27913511952042,-2.68577971598878
-2.55284539889544E-05,-1.04197988548549E-05,-2.63671875,-5.29011702399251,-2.68577971598878
-2.47692696575541E-05,-1.60363542818232E-05,-2.63671875,-5.3011037438547,-2.68577971598878
-2.413915899524E-05,-1.628649806662E-05,-2.63671875,-5.31209542653062,-2.68577971598878
-2.22999551624525E-05,-1.76101621036651E-05,-2.63671875,-5.32309221471236,-2.68577971598878
-2.31139329116559E-05,-1.93086598301306E-05,-2.63671875,-5.33409424628477,-2.68577971598878
-2.45659339270787E-05,-2.00920203496935E-05,-2.63671875,-5.34510165425744,-2.68577971598878
-2.6652198357624E-05,-1.6119769497891E-05,-2.63671875,-5.35611456670456,-2.68577971598878
-2.65389171545394E-05,-9.15301552595338E-06,-2.63671875,-5.36713310671224,-2.68577971598878
-2.55696504609659E-05,-6.82058498568949E-07,-2.63671875,-5.37815739233256,-2.68577971598878
-2.05669493880123E-05,5.35976641913294E-06,-2.63671875,-5.38918753654406,-2.68577971598878
-2.97378901450429E-05,1.09147940747789E-05,-2.63671875,-5.40022364721839,-2.68577971598878
-2.25370331463637E-05,1.35500595206395E-05,-2.63671875,-5.41126582709354,-2.68577971598878
-2.70712680503493E-05,1.58828115672804E-05,-2.63671875,-5.42231417375367,-2.68577971598878
-2.20231668208726E-05,1.44988307511085E-05,-2.63671875,-5.43336877961511,-2.68577971598878
-2.37482545344392E-05,1.40732227009721E-05,-2.63671875,-5.44442973191856,-2.68577971598878
-2.22883736569202E-05,1.29318459585193E-05,-2.63671875,-5.45549711272732,-2.68577971598878
-2.4931548978202E-05,1.21282164400327E-05,-2.63671875,-5.46657099893155,-2.68577971598878
-2.50751891144319E-05,1.11862527774065E-05,-2.63671875,-5.47765146225821,-2.68577971598878
-2.49957811320201E-05,1.06257075458416E-05,-2.63671875,-5.48873856928664,-2.68577971598878
-2.42973328568041E-05,1.12280831672251E-05,-2.63671875,-5.4998323814696,-2.68577971598878
-2.26078645937378E-05,1.03848951766849E-05,-2.63671875,-5.51093295515947,-2.68577971598878
-2.3891308956081E-05,9.99426993075758E-06,-2.63671875,-5.52204034163962,-2.68577971598878
-2.44524417212233E-05,1.08880549305468E-05,-2.63671875,-5.5331545871607,-2.68577971598878
-2.60492015513591E-05,1.36402377393097E-05,-2.63671875,-5.54427573298165,-2.68577971598878
-2.38308166444767E-05,1.61294356075814E-05,-2.63671875,-5.55540381541526,-2.68577971598878
-2.38391130551463E-05,1.69037284649676E-05,-2.63671875,-5.56653886587808,-2.68577971598878
-2.32129968935624E-05,1.48405197251122E-05,-2.63671875,-5.57768091094454,-2.68577971598878
-2.44045131694293E-05,1.31027645693393E-05,-2.63671875,-5.58882997240513,-2.68577971598878
-2.23941842705244E-05,1.36615608425927E-05,-2.63671875,-5.59998606732847,-2.68577971598878
-2.20414440263994E-05,1.78455920831766E-05,-2.63671875,-5.61114920812697,-2.68577971598878
-2.17303495446686E-05,2.79459400189808E-05,-2.63671875,-5.62231940262583,-2.68577971598878
-2.31218291446567E-05,4.34561989095528E-05,-2.63671875,-5.63349665413495,-2.68577971598878
-2.30228015425382E-05,5.48685129615478E-05,-2.63671875,-5.64468096152338,-2.68577971598878
-2.27927921514492E-05,5.47847303096205E-05,-2.63671875,-5.65587231929651,-2.68577971598878
-2.29293182201218E-05,4.2896735976683E-05,-2.63671875,-5.66707071767595,-2.68577971598878
-2.34535600611707E-05,2.4531605959055E-05,-2.63671875,-5.67827614268234,-2.68577971598878
-1.90718001249479E-05,4.72880401503062E-06,-2.63671875,-5.68948857622075,-2.68577971598878
-2.72125671472168E-05,-2.91686978926009E-06,-2.63671875,-5.70070799616839,-2.68577971598878
-2.0850060536759E-05,-1.39420890263864E-05,-2.63671875,-5.71193437646432,-2.68577971598878
-2.57197334576631E-05,-1.46426409628475E-05,-2.63671875,-5.72316768720104,-2.68577971598878
-2.11617971217493E-05,-1.9318884369568E-05,-2.63671875,-5.73440789471788,-2.68577971598878
-2.26619667955674E-05,-1.90058817679528E-05,-2.63671875,-5.74565496169631,-2.68577971598878
-2.07776993192965E-05,-2.05273299798137E-05,-2.63671875,-5.75690884725695,-2.68577971598878
-2.34382623602869E-05,-1.45238982440787E-05,-2.63671875,-5.76816950705794,-2.68577971598878
-2.45290812017629E-05,-2.84399152405967E-06,-2.63671875,-5.77943689339442,-2.68577971598878
-2.53215421253117E-05,1.15688808364212E-05,-2.63671875,-5.79071095529889,-2.68577971598878
-2.46002291532932E-05,2.2099828129285E-05,-2.63671875,-5.8019916386421,-2.68577971598878
-2.20664715016028E-05,2.59238640865078E-05,-2.63671875,-5.81327888623426,-2.68577971598878
-2.19778830796713E-05,2.09576646739151E-05,-2.63671875,-5.82457263792629,-2.68577971598878
-2.19678295252379E-05,9.44627572607715E-06,-2.63671875,-5.83587283071122,-2.68577971598878
-2.36997620959301E-05,3.26401118400099E-06,-2.63671875,-5.84717939882576,-2.68577971598878
-2.188990401919E-05,3.73207740267389E-06,-2.63671875,-5.85849227385195,-2.68577971598878
-2.19761532207485E-05,8.40500160848023E-06,-2.63671875,-5.86981138481878,-2.68577971598878
-2.1582500266959E-05,1.00983488664497E-05,-2.63671875,-5.88113665830396,-2.68577971598878
-2.36788000620436E-05,1.12729603642947E-05,-2.63671875,-5.89246801853543,-2.68577971598878
-2.31315225391882E-05,1.10577220766572E-05,-2.63671875,-5.90380538749255,-2.68577971598878
-2.3299300664803E-05,1.19267415357172E-05,-2.63671875,-5.91514868500684,-2.68577971598878
-2.25710973609239E-05,1.20162785606226E-05,-2.63671875,-5.92649782886218,-2.68577971598878
-2.39387554756831E-05,1.24927637443761E-05,-2.63671875,-5.93785273489438,-2.68577971598878
-2.47019470407395E-05,1.2464823157643E-05,-2.63671875,-5.94921331709007,-2.68577971598878
-2.52876307058614E-05,1.3262644642964E-05,-2.63671875,-5.96057948768476,-2.68577971598878
-2.40655081142904E-05,1.41536456794711E-05,-2.63671875,-5.97195115725969,-2.68577971598878
-2.21236332436092E-05,1.56734622578369E-05,-2.63671875,-5.9833282348372,-2.68577971598878
-1.68946717167273E-05,1.38939421958639E-05,-2.63671875,-5.99471062797461,-2.68577971598878
-2.38523698499193E-05,2.05194828595268E-05,-2.63671875,-6.00609824285654,-2.68577971598878
-1.88684771273984E-05,1.68307542480761E-05,-2.63671875,-6.01749098438534,-2.68577971598878
-2.44642651523463E-05,2.06793538382044E-05,-2.63671875,-6.02888875626963,-2.68577971598878
-2.2147107301862E-05,1.65705969266128E-05,-2.63671875,-6.04029146111109,-2.68577971598878
-2.6601497665979E-05,1.67444413818885E-05,-2.63671875,-6.05169900048995,-2.68577971598878
-2.61418044829043E-05,1.520293426438E-05,-2.63671875,-6.06311127504911,-2.68577971598878
-2.65698381554103E-05,1.58707553055137E-05,-2.63671875,-6.07452818457632,-2.68577971598878
-2.48103751800954E-05,1.45470876304898E-05,-2.63671875,-6.08594962808416,-2.68577971598878
-2.43428348767338E-05,1.35466352730873E-05,-2.63671875,-6.09737550388742,-2.68577971598878
-2.48984433710575E-05,1.3689400475414E-05,-2.63671875,-6.10880570967834,-2.68577971598878
-2.40499048231868E-05,1.33590037876274E-05,-2.63671875,-6.12024014260009,-2.68577971598878
-2.35123115999158E-05,1.32717996166321E-05,-2.63671875,-6.13167869931872,-2.68577971598878
-2.28378339670599E-05,1.14447439045762E-05,-2.63671875,-6.14312127609388,-2.68577971598878
-2.54342285188613E-05,1.09558295662282E-05,-2.63671875,-6.1545677688482,-2.68577971598878
-2.55295290116919E-05,1.06895404314855E-05,-2.63671875,-6.16601807323539,-2.68577971598878
-2.69321863015648E-05,1.46137608680874E-05,-2.63671875,-6.17747208470703,-2.68577971598878
-2.68535786744906E-05,1.80053721123841E-05,-2.63671875,-6.18892969857754,-2.68577971598878
-2.77208546322072E-05,2.06767435884103E-05,-2.63671875,-6.20039081008719,-2.68577971598878
-2.65746348304674E-05,1.98623765754746E-05,-2.63671875,-6.21185531446276,-2.68577971598878
-2.69915381068131E-05,1.9564422473195E-05,-2.63671875,-6.22332310697609,-2.68577971598878
-2.62331341218669E-05,1.89084439625731E-05,-2.63671875,-6.23479408300049,-2.68577971598878
-2.6667465135688E-05,1.81657542270841E-05,-2.63671875,-6.24626813806523,-2.68577971598878
-2.68706407950958E-05,1.53520795720397E-05,-2.63671875,-6.25774516790849,-2.68577971598878
-2.76104474323802E-05,1.25482547446154E-05,-2.63671875,-6.26922506852868,-2.68577971598878
-2.61378245340893E-05,1.04217151601915E-05,-2.63671875,-6.28070773623431,-2.68577971598878
-2.42398909904296E-05,9.46917498367839E-06,-2.63671875,-6.29219306769229,-2.68577971598878
-1.94758704310516E-05,8.19603155832738E-06,-2.63671875,-6.30368095997474,-2.68577971598878
-2.7928708732361E-05,1.1055911272706E-05,-2.63671875,-6.31517131060417,-2.68577971598878
-2.07203429454239E-05,7.22994855095749E-06,-2.63671875,-6.32666401759653,-2.68577971598878
-2.46847175731091E-05,7.36471065465594E-06,-2.63671875,-6.33815897950227,-2.68577971598878
-2.20613183046225E-05,2.90103434963385E-06,-2.63671875,-6.34965609544534,-2.68577971598878
-2.68287676590262E-05,1.1791020142482E-06,-2.63671875,-6.36115526516059,-2.68577971598878
-2.50238463195274E-05,-2.95481231660233E-06,-2.63671875,-6.37265638902938,-2.68577971598878
-2.5282517526648E-05,-4.87472379973042E-06,-2.63671875,-6.38415936811381,-2.68577971598878
-2.41184625338065E-05,-4.4052262637706E-06,-2.63671875,-6.3956641041899,-2.68577971598878
-2.51398723776219E-05,-1.66883114616212E-06,-2.63671875,-6.40717049977967,-2.68577971598878
-2.67103423539083E-05,1.04434400327591E-06,-2.63671875,-6.41867845818215,-2.68577971598878
-2.6102497940883E-05,2.49030995291832E-06,-2.63671875,-6.43018788350328,-2.68577971598878
-2.51427081821021E-05,3.89811248169281E-06,-2.63671875,-6.44169868068466,-2.68577971598878
-2.21269219764508E-05,4.12159715779126E-06,-2.63671875,-6.45321075553121,-2.68577971598878
-2.20659712795168E-05,5.58779993298231E-06,-2.63671875,-6.46472401473736,-2.68577971598878
-2.09602076211013E-05,5.63548246645951E-06,-2.63671875,-6.47623836591177,-2.68577971598878
-2.27135642489884E-05,6.04300294071436E-06,-2.63671875,-6.48775371760009,-2.68577971598878
-2.27163236559136E-05,5.96742893321789E-06,-2.63671875,-6.49926997930565,-2.68577971598878
-2.43077211052878E-05,7.56925237510586E-06,-2.63671875,-6.51078706150827,-2.68577971598878
-2.3694172341493E-05,8.12009966466576E-06,-2.63671875,-6.52230487568157,-2.68577971598878
-2.47100379056064E-05,8.24904600449372E-06,-2.63671875,-6.5338233343092,-2.68577971598878
-2.44567381741945E-05,7.16188469596091E-06,-2.63671875,-6.54534235090024,-2.68577971598878
-2.52616846410092E-05,6.86013345330139E-06,-2.63671875,-6.5568618400038,-2.68577971598878
-2.52690842899028E-05,7.78785124566639E-06,-2.63671875,-6.56838171722299,-2.68577971598878
-2.51352776103886E-05,1.03512402347405E-05,-2.63671875,-6.57990189922801,-2.68577971598878
-2.42241039813962E-05,1.30934431581409E-05,-2.63671875,-6.59142230376834,-2.68577971598878
-2.28963799600024E-05,1.32313134599826E-05,-2.63671875,-6.60294284968409,-2.68577971598878
-1.82666517503094E-05,9.11775714484975E-06,-2.63671875,-6.61446345691644,-2.68577971598878
-2.63014499068959E-05,1.33662351800012E-05,-2.63671875,-6.62598404651705,-2.68577971598878
-2.07403609238099E-05,1.1585395441216E-05,-2.63671875,-6.63750454065618,-2.68577971598878
-2.59553489740938E-05,1.49419774970738E-05,-2.63671875,-6.64902486262959,-2.68577971598878
-2.2385838747141E-05,1.24072375911055E-05,-2.63671875,-6.66054493686451,-2.68577971598878
-2.4539178411942E-05,1.23004065244459E-05,-2.63671875,-6.67206468892497,-2.68577971598878
-2.30449841183145E-05,1.01507193903672E-05,-2.63671875,-6.68358404551664,-2.68577971598878
-2.44460770773003E-05,1.10488463178626E-05,-2.63671875,-6.69510293449104,-2.68577971598878
-2.37326203205157E-05,1.16209503175924E-05,-2.63671875,-6.70662128484934,-2.68577971598878
-2.38756492763059E-05,1.17794179459452E-05,-2.63671875,-6.71813902674552,-2.68577971598878
-2.38791617448442E-05,1.14356189442333E-05,-2.63671875,-6.72965609148887,-2.68577971598878
-2.2568379790755E-05,1.03919510365813E-05,-2.63671875,-6.74117241154604,-2.68577971598878
-2.25381172640482E-05,9.85107908491045E-06,-2.63671875,-6.75268792054241,-2.68577971598878
-2.13178554986371E-05,8.08772892924026E-06,-2.63671875,-6.76420255326283,-2.68577971598878
-2.26799620577367E-05,8.34477123135002E-06,-2.28515625,-2.89095485947617,-4.68026823281907
-2.21671398321632E-05,9.45242845773464E-06,-2.28515625,-2.89095418232335,-4.68026823281907
-2.32408056035638E-05,1.18244342957041E-05,-2.28515625,-2.89095276048435,-4.68026823281907
-2.1717554773204E-05,1.16258997877594E-05,-2.28515625,-2.89095052758455,-4.68026823281907
-2.21988229895942E-05,1.11297595140059E-05,-2.28515625,-2.89094741840874,-4.68026823281907
