biceps_emg, triceps_emg, subject_position, position_estimate, brace_position
-2.61819459410617E-05,2.61572913586861E-05,1.23046875,0,0
-2.42787336901529E-05,1.13309251901228E-05,1.23046875,-1.10688412611417E-06,0
-2.2539166820934E-05,-1.01335263025248E-05,1.23046875,-3.3206523783425E-06,0
-2.13178245758172E-05,-2.74409630947048E-05,1.23046875,-6.641304756685E-06,0
-2.14266274269903E-05,-3.7394929677248E-05,1.23046875,-1.10688412331759E-05,0
-2.26845731958747E-05,-4.50879888376221E-05,1.23046875,-1.66032615355999E-05,0
-1.9764975149883E-05,-4.41175943706185E-05,1.23046875,-2.32445643442292E-05,0
-3.01389773085248E-05,-6.36729309917428E-05,1.23046875,-3.0992745298612E-05,0
-2.47180905716959E-05,-4.43453573097941E-05,1.23046875,-3.98477930590811E-05,0
-2.7789521482191E-05,-4.9420865252614E-05,1.23046875,-4.9809682504943E-05,0
-2.21633836190449E-05,-3.27051529893652E-05,1.23046875,-6.0878364295736E-05,0
-2.39394212258048E-05,-2.22736161958892E-05,1.23046875,-7.30537507017166E-05,0
-2.2351514417096E-05,5.36255311089917E-06,1.23046875,-8.63356983149672E-05,0
-2.459715869918E-05,1.95200391317485E-05,1.23046875,-0.000100723988428527,0
-2.51553246926051E-05,2.33654027397279E-05,1.23046875,-0.000116218305592398,0
-2.58063573710388E-05,1.71096689882688E-05,1.23046875,-0.000132818214463649,0
-2.47035986831179E-05,9.94228685158305E-06,1.23046875,-0.000150523134791615,0
-2.09452900890028E-05,8.47740193421487E-06,1.23046875,-0.000169332314358197,0
-1.96339569811244E-05,7.35848107069614E-06,1.23046875,-0.000189244799985891,0
-1.85588105523493E-05,1.22942537927884E-05,1.23046875,-0.000210259407164295,0
-2.05363394343294E-05,1.43801134981913E-05,1.23046875,-0.000232374689053195,0
-2.05453270609723E-05,1.9708464606083E-05,1.23046875,-0.000255588905379166,0
-2.32241709454684E-05,1.79046292032581E-05,1.23046875,-0.000279899991255607,0
-2.45106020884123E-05,1.88927424460417E-05,1.23046875,-0.000305305525571207,0
-2.6207040718873E-05,1.56474216055358E-05,1.23046875,-0.000331802698418521,0
-2.46754188992782E-05,1.64601678989129E-05,1.23046875,-0.00035938827702044,0
-2.46619547397131E-05,1.45840876939474E-05,1.23046875,-0.000388058569785335,0
-2.43226986640366E-05,1.64406992553268E-05,1.23046875,-0.000417809388477323,0
-2.59528587776003E-05,1.63999502547085E-05,1.23046875,-0.000448636008800638,0
-2.69929605565267E-05,1.76088615262415E-05,1.23046875,-0.00048053312972366,0
-2.72602883342188E-05,1.63888526003575E-05,1.23046875,-0.000513494831655823,0
-2.65332237177063E-05,1.60089202836389E-05,1.23046875,-0.000547514533418427,0
-2.61690965999151E-05,1.46456186485011E-05,1.23046875,-0.000582584948015673,0
-2.20640504267067E-05,1.08787817225675E-05,1.23046875,-0.000618698037468991,0
-3.22611340379808E-05,1.60867912200047E-05,1.23046875,-0.000655844967207209,0
-2.63774527411442E-05,1.3701333955396E-05,1.23046875,-0.000694016060417601,0
-3.25986256939359E-05,2.19456451304723E-05,1.23046875,-0.000733200752323962,0
-2.60268407146214E-05,3.31720875692554E-05,1.23046875,-0.000773387544072211,0
-2.46364452323178E-05,5.73843863094226E-05,1.23046875,-0.000814563956221128,0
-1.84774289664347E-05,7.38778180675581E-05,1.23046875,-0.000856716482565495,0
-1.91135513887275E-05,7.79470210545696E-05,1.23046875,-0.000899830545683464,0
-1.99514906853437E-05,6.60534569760785E-05,1.23046875,-0.00094389045576662,0
-2.09336085390532E-05,4.68473263026681E-05,1.23046875,-0.000988879373727825,0
-2.06435433938168E-05,2.61440454778494E-05,1.23046875,-0.00103477927861125,0
-1.86243250936968E-05,8.22630317998119E-06,1.23046875,-0.00108157093865682,0
-1.9514569430612E-05,-3.17473745781172E-06,1.23046875,-0.00112923388534742,0
-2.01968177862E-05,-1.4015870874573E-05,1.23046875,-0.00117774639008009,0
-2.35497554967878E-05,-2.60899068962317E-05,1.23046875,-0.00122708544325069,0
-2.32692436838988E-05,-3.69467488781083E-05,1.23046875,-0.00127722673540622,0
-2.35973275266588E-05,-3.53491595888045E-05,1.23046875,-0.00132814463997156,0
-2.11978094739607E-05,-2.24073719437001E-05,1.23046875,-0.00137981219716008,0
-2.24789364438038E-05,-1.9419007912802E-06,1.23046875,-0.00143220109898726,0
-2.28046974370955E-05,1.75292061612708E-05,1.23046875,-0.00148528167556301,0
-2.38843713304959E-05,3.48199173458852E-05,1.23046875,-0.00153902288288057,0
-2.26814972847933E-05,4.28892162744887E-05,1.23046875,-0.00159339229222233,0
-2.27134478336666E-05,4.03138001274783E-05,1.23046875,-0.001648356081233,0
-2.23986535274889E-05,3.28954993165098E-05,1.23046875,-0.00170387902674368,0
-2.30316582019441E-05,3.391808422748E-05,1.23046875,-0.0017599244994634,0
-2.32335587497801E-05,5.64699330425356E-05,1.23046875,-0.00181645446057673,0
-2.41032721532974E-05,9.84968937700614E-05,1.23046875,-0.00187342946018244,0
-2.08427263714839E-05,0.000115955350338481,1.23046875,-0.00193080863753683,0
-2.93316425086232E-05,0.000181140363565646,1.23046875,-0.00198854972321585,0
-2.2957148757996E-05,0.000144586563692428,1.23046875,-0.00204660904334323,0
-2.93920220428845E-05,0.000148697377881035,1.23046875,-0.00210494152578942,0
-2.47268690145575E-05,8.70698349899612E-05,1.23046875,-0.00216350070794483,0
-2.71346088993596E-05,4.52171952929348E-05,1.23046875,-0.00222223874556083,0
-2.43015438172733E-05,-2.89173349301564E-05,1.23046875,-0.00228110642225815,0
-2.37324802583316E-05,-8.26974574010819E-05,1.23046875,-0.00234005315966335,0
-1.97432946151821E-05,-0.000133631809148937,1.23046875,-0.00239902702861793,0
-1.68252918228973E-05,-0.00015951351088006,1.23046875,-0.00245797476201296,0
-1.70749226526823E-05,-0.000161752686835825,1.23046875,-0.0025168417693061,0
-2.04180978471413E-05,-0.000155672110849991,1.23046875,-0.00257557215217899,0
-2.82134824374225E-05,-0.000135029753437266,1.23046875,-0.00263410872077394,0
-3.19377650157548E-05,-0.000116406386950985,1.23046875,-0.00269239301031411,0
-3.18921556754503E-05,-8.53036181069911E-05,1.23046875,-0.00275036529771122,0
-2.48971209657611E-05,-7.03402256476693E-05,1.23046875,-0.00280796461714042,0
-2.03765357582597E-05,-4.71949060738552E-05,1.23046875,-0.00286512877378252,0
-1.75130735442508E-05,-3.32164272549562E-05,1.23046875,-0.00292179435585617,0
-1.99874612007989E-05,-1.00464476417983E-05,1.23046875,-0.00297789674525515,0
-2.08839574042941E-05,-2.65609355665219E-06,1.23046875,-0.00303337012664814,0
-2.20533765968867E-05,8.17106410977431E-06,1.23046875,-0.00308814749496984,0
-2.13913444895297E-05,1.02150197562878E-05,1.23046875,-0.00314216066172504,0
-2.20938072743593E-05,1.61477455549175E-05,1.23046875,-0.00319534026063576,0
-2.13009825529298E-05,1.5254159734468E-05,1.23046875,-0.00324761575289667,0
-2.17072938539786E-05,1.67627076734789E-05,1.23046875,-0.0032989154320678,0
-2.26823285629507E-05,1.7116029994213E-05,1.23046875,-0.00334916642855504,0
-2.40850386035163E-05,1.86993183888262E-05,1.23046875,-0.00339829471366528,0
-2.11158039746806E-05,1.72819418366998E-05,1.23046875,-0.00344622510330309,0
-2.97176084131934E-05,2.681933256099E-05,1.23046875,-0.00349288126137708,0
-2.12286413443508E-05,2.46637082454981E-05,1.23046875,-0.00353818570283785,0
-2.61328641499858E-05,2.91247342829593E-05,1.23046875,-0.0035820597961356,0
-2.21459395106649E-05,2.66081297013443E-05,1.23046875,-0.00362442376497899,0
-2.53566558967577E-05,2.94190413114848E-05,1.23046875,-0.00366519668950386,0
-2.39343389694113E-05,2.96614343824331E-05,1.23046875,-0.00370429650702261,0
-2.47557309194235E-05,3.11475960188545E-05,1.23046875,-0.00374164001240053,0
-2.34302278840914E-05,3.10951909341384E-05,1.23046875,-0.00377714285802104,0
-2.27917098527541E-05,2.96406706183916E-05,1.23046875,-0.00381071955333636,0
-2.25485819100868E-05,2.92330696538556E-05,1.23046875,-0.00384228346403414,0
-2.19434932660079E-05,2.81734119198518E-05,1.23046875,-0.00387174681081458,0
-2.37990661844378E-05,2.80073145404458E-05,1.23046875,-0.00389902066774977,0
-2.41639318119269E-05,2.5705750886118E-05,1.23046875,-0.00392401496027646,0
-2.4737324565649E-05,2.55077138717752E-05,1.23046875,-0.00394663846299266,0
-2.13815783354221E-05,2.44091079366626E-05,1.23046875,-0.00396679879746222,0
-2.10952384804841E-05,2.62979901890503E-05,1.23046875,-0.00398440243016564,0
-2.08226301765535E-05,2.89869694825029E-05,1.23046875,-0.00399935467061712,0
-2.37844215007499E-05,3.36659650201909E-05,1.23046875,-0.00401155966959464,0
-2.41681664192583E-05,3.44025647791568E-05,1.23046875,-0.00402092041753749,0
-2.4761944587226E-05,3.29277099808678E-05,1.23046875,-0.00402733874335722,0
-2.44478378590429E-05,3.15554934786633E-05,1.23046875,-0.00403071531392571,0
-2.63565743807703E-05,3.47153982147574E-05,1.23046875,-0.00403094963438469,0
-2.74609174084617E-05,3.65058149327524E-05,1.23046875,-0.00402794004935225,0
-2.78618590527913E-05,2.91292926704045E-05,1.23046875,-0.00402158374506439,0
-2.6210804207949E-05,1.5966514183674E-05,1.23046875,-0.00401177675245034,0
-2.40325316553935E-05,5.73629176869872E-06,1.23046875,-0.00399841395119257,0
-1.7713045963319E-05,3.04053855870734E-06,1.23046875,-0.00398138907491532,0
-2.40916597249452E-05,5.65986692890874E-06,1.23046875,-0.00396059471758667,0
-1.65201836352935E-05,1.01949626696296E-05,1.23046875,-0.00393592234105238,0
-2.12013546843082E-05,1.84027121576946E-05,1.23046875,-0.00390726228361129,0
-2.04214375116862E-05,2.09769077628152E-05,1.23046875,-0.00387450376970404,0
-2.63791353063425E-05,1.93139749171678E-05,1.23046875,-0.00383753492094679,0
-2.56607563642319E-05,1.82710045919521E-05,1.23046875,-0.00379624276884172,0
-2.76301634585252E-05,2.24588256969582E-05,1.23046875,-0.00375051326943833,0
-2.85894275293686E-05,2.87819420918822E-05,1.23046875,-0.00370023132001351,0
-2.87863931589527E-05,3.37660057994071E-05,1.23046875,-0.00364528077773425,0
-2.78470361081418E-05,3.80129058612511E-05,1.23046875,-0.00358554448031954,0
-2.66894367086934E-05,4.36847512901295E-05,1.23046875,-0.00352090426878338,0
-2.69110078079393E-05,5.24737188243307E-05,1.23046875,-0.00345124101237772,0
-2.45274623011937E-05,6.29585265414789E-05,1.23046875,-0.00337643463586345,0
-2.48802989517571E-05,6.87022911733948E-05,1.23046875,-0.00329636414917905,0
-2.59016214840813E-05,5.17162152391393E-05,1.23046875,-0.00321090767947189,0
-2.92091244773474E-05,7.73508418205893E-06,1.23046875,-0.00311994250542488,0
-2.76297814707505E-05,-3.15767574647907E-05,1.23046875,-0.00302334509384297,0
-2.48860342253465E-05,-3.56303644366562E-05,1.23046875,-0.00292099113831146,0
-1.96368946490111E-05,-1.99922505998984E-05,1.23046875,-0.00281275559942489,0
-1.72383934113896E-05,-1.41239706863416E-05,1.23046875,-0.00269851274601653,0
-1.61522693815641E-05,-2.27912987611489E-05,1.23046875,-0.00257813619704956,0
-1.74202832567971E-05,-3.46616507158615E-05,1.23046875,-0.00245149896406734,0
-1.82744097401155E-05,-4.09660897275899E-05,1.23046875,-0.00231847349420606,0
-2.00187459995504E-05,-3.60390404239297E-05,1.23046875,-0.0021789317137994,0
-2.12547765841009E-05,-1.97790286620148E-05,1.23046875,-0.00203274507265788,0
-2.19241155718919E-05,7.00031255185252E-10,1.23046875,-0.00187978458925276,0
-1.77079236891586E-05,1.03391121228924E-05,1.23046875,-0.00171992089721111,0
-2.51485471380875E-05,1.26052764244378E-05,1.23046875,-0.00155302429355554,0
-1.88018784683663E-05,2.7168341603101E-06,1.23046875,-0.00137896478892613,0
-2.35356110351859E-05,2.46617423727002E-06,1.23046875,-0.00119761215981496,0
-2.16162625292782E-05,7.24146048014518E-06,1.23046875,-0.0010088360028159,0
-2.53216567216441E-05,2.18657023651758E-05,1.23046875,-0.000812505790899948,0
-2.23126480705105E-05,3.26650006172713E-05,1.23046875,-0.000608490931586777,0
-2.07808261620812E-05,3.9196038414957E-05,1.23046875,-0.000396660826679677,0
-1.95459942915477E-05,4.59855291410349E-05,1.23046875,-0.000176884933141748,0
-2.20193196582841E-05,5.91775533393957E-05,1.23046875,5.09671752706611E-05,0
-2.4182976630982E-05,6.90056040184572E-05,1.23046875,0.000287025745943925,0
-2.30246077990159E-05,6.30215727142058E-05,1.23046875,0.000531420785219838,0
-2.16571952478262E-05,4.88272089569364E-05,1.23046875,0.000784281996353825,0
-2.02301234821789E-05,3.65065461664926E-05,1.23046875,0.00104573871770429,0
-2.32281927310396E-05,2.69773427135078E-05,1.23046875,0.00131591986092744,0
-2.4398408640991E-05,8.4353005149751E-06,1.23046875,0.00159495384875366,0
-2.61461882473668E-05,-2.04162788577378E-05,1.23046875,0.00188296855204752,0
-2.52962145168567E-05,-5.74327350477688E-05,1.23046875,0.00218009122629323,0
-2.62329540419159E-05,-8.86763664311729E-05,1.23046875,0.00248644844818525,0
-2.53896942012943E-05,-9.54400966293179E-05,1.23046875,0.00280216605335686,0
-2.54976130236173E-05,-7.152868056437E-05,1.23046875,0.00312736907625639,0
-2.43528666032944E-05,-3.98834308725782E-05,1.23046875,0.00346218169270696,0
-2.48428914346732E-05,-1.67333309946116E-05,1.23046875,0.00380672716489023,0
-2.477056295902E-05,-1.35628044972691E-06,1.23046875,0.00416112778780479,0
-2.41469024331309E-05,9.19002468435792E-06,1.23046875,0.00452550483614137,0
-2.33191149163758E-05,1.46170186781092E-05,1.23046875,0.00489997851103419,0
-2.35992538364371E-05,1.59184801304946E-05,1.23046875,0.0052846678867648,0
-2.08421515708324E-05,1.19852120405994E-05,1.23046875,0.00567969085772343,0
-3.15675315505359E-05,1.58416150952689E-05,1.23046875,0.00608516408582902,0
-2.55689974437701E-05,1.10121854959289E-05,1.23046875,0.00650120294845964,0
-2.89307845378062E-05,1.45473750308156E-05,1.23046875,0.00692792148687396,0
-2.23702172661433E-05,1.30384396470618E-05,1.23046875,0.00736543235508868,0
-2.39136425079778E-05,1.68685255630407E-05,1.23046875,0.00781384676917659,0
-2.13155617529992E-05,1.70174407685408E-05,1.23046875,0.00827327445697195,0
-2.13494422496296E-05,1.89020192919998E-05,1.23046875,0.00874382360821273,0
-2.14894989767345E-05,2.01420680241426E-05,1.23046875,0.0092256008251731,0
-2.34982999245403E-05,2.24642990360735E-05,1.23046875,0.00971871107383386,0
-2.54670194408391E-05,2.36820487771183E-05,1.23046875,0.0102232576356299,0
-2.54938859143294E-05,2.34778508456657E-05,1.23046875,0.0107393420598162,0
-2.59110656770645E-05,2.53146372415358E-05,1.23046875,0.011267064116495,0
-2.3947282898007E-05,2.60410834016511E-05,1.23046875,0.0118065217503265,0
-2.41368124989094E-05,2.59344669757411E-05,1.23046875,0.0123578110349328,0
-2.32719703490147E-05,2.16576900129439E-05,1.23046875,0.0129210261279968,0
-2.4929353457992E-05,1.80581355380127E-05,1.23046875,0.0134962592270299,0
-2.4105420379783E-05,1.40992569868104E-05,1.23046875,0.0140836005257148,0
-2.46908239205368E-05,1.10708260763204E-05,1.23046875,0.014683138170671,0
-2.32349029829493E-05,6.11652285442688E-06,1.23046875,0.0152949582185076,0
-2.24215036723763E-05,3.82425832867739E-06,1.23046875,0.015919144593153,0
-2.04773368750466E-05,4.24767222284572E-06,1.23046875,0.0165557790435957,0
-2.10676989809144E-05,8.31315082905348E-06,1.23046875,0.0172049411022106,0
-2.14076499105431E-05,1.1826987247332E-05,1.23046875,0.0178667080437626,0
-2.1350566385081E-05,1.4026251847099E-05,1.23046875,0.01854115484506,0
-2.1321704480215E-05,1.51846488734009E-05,1.23046875,0.0192283541451654,0
-2.33539467444643E-05,1.62095875566592E-05,1.23046875,0.0199283762061214,0
-2.15240706893383E-05,1.34875508592813E-05,1.23046875,0.0206412888742393,0
-3.12183146888856E-05,1.9017381418962E-05,1.23046875,0.0213671575420366,0
-2.36407231568592E-05,1.58116290549515E-05,1.23046875,0.0221060451108931,0
-2.81882093986496E-05,2.10624748433474E-05,1.23046875,0.0228580119544797,0
-2.23856295633595E-05,1.79775342985522E-05,1.23046875,0.0236231158830367,0
-2.30954410653794E-05,1.9298289771541E-05,1.23046875,0.0244014121085994,0
-2.06878030439839E-05,1.68920323631028E-05,1.23046875,0.0251929532112662,0
-2.37725525948917E-05,1.70586590684252E-05,1.23046875,0.0259977891065493,0
-2.51739329542033E-05,1.76108114828821E-05,1.23046875,0.0268159670138164,0
-2.60224605881376E-05,1.91786821233109E-05,1.23046875,0.0276475314258436,0
-2.70734162768349E-05,2.04485495487461E-05,1.23046875,0.0284925240795305,0
-2.72046600002795E-05,2.00337399292039E-05,1.23046875,0.029350983927844,0
-2.80651765933726E-05,1.99433052330278E-05,1.23046875,0.0302229471130574,0
-2.58467443927657E-05,1.76086105057038E-05,1.23046875,0.031108446941347,0
-2.59583957813447E-05,1.67614562087692E-05,1.23046875,0.0320075138587985,0
-2.49189779424341E-05,1.62900923896814E-05,1.23046875,0.0329201754288973,0
-2.69685078819748E-05,1.86978995770914E-05,1.23046875,0.0338464563116182,0
-2.63650435954332E-05,1.80974566319492E-05,1.23046875,0.0347863782442168,0
-2.53299695032183E-05,1.40198335429886E-05,1.23046875,0.0357399600237709,0
-2.10607831832021E-05,4.67559038952459E-06,1.23046875,0.0367072174915124,0
-1.96621713257628E-05,9.5511586550856E-07,1.23046875,0.0376881635190804,0
-1.8479346181266E-05,4.5689234866586E-06,1.23046875,0.03868280799693,0
-1.93647829291876E-05,9.59901262831409E-06,1.23046875,0.0396911578251098,0
-2.06746917683631E-05,1.05632343547768E-05,1.23046875,0.0407132169064601,0
-2.22890776058193E-05,1.05946965049952E-05,1.23046875,0.0417489861421023,0
-2.31657377298689E-05,1.09317961687339E-05,1.23046875,0.0427984634290532,0
-2.32692473218776E-05,1.14630902317003E-05,1.23046875,0.0438616436598808,0
-1.71695628523594E-05,1.06348925328348E-05,1.23046875,0.0449385187243899,0
-2.37122258113232E-05,1.57350805238821E-05,1.23046875,0.0460290775133293,0
-1.73874614119995E-05,1.23492545753834E-05,1.23046875,0.0471333059240749,0
-2.30891619139584E-05,1.49839133882779E-05,1.23046875,0.0482511868682261,0
-2.07272569241468E-05,1.40680322147091E-05,1.23046875,0.0493827002810693,0
-2.28994958888507E-05,1.72991240106057E-05,1.23046875,0.0505278231329034,0
-2.18867917283205E-05,2.12572631426156E-05,1.23046875,0.0516865294422626,0
-2.56118255492765E-05,3.43493156833574E-05,1.23046875,0.0528587902911244,0
-2.66872702923138E-05,4.9376511014998E-05,1.23046875,0.0540445738422883,0
-2.64736045210157E-05,5.76799793634564E-05,1.23046875,0.0552438453592619,0
-2.5874714992824E-05,5.58298379473854E-05,1.23046875,0.0564565672291007,0
-2.41857705987059E-05,4.46368285338394E-05,1.23046875,0.0576826989885622,0
-2.41567649936769E-05,2.90056777885184E-05,1.23046875,0.0589221973535891,0
-2.33628943533404E-05,9.55482119024964E-06,1.23046875,0.0601750162517185,0
-2.44656584982295E-05,-9.03991531231441E-06,1.23046875,0.0614411068568766,0
-2.34166600421304E-05,-2.68395888269879E-05,1.23046875,0.0627204176263999,0
-2.38490629271837E-05,-4.38371534983162E-05,1.23046875,0.0640128943406913,0
-2.20858128159307E-05,-6.17460827925242E-05,1.23046875,0.0653184801461834,0
-2.16684329643613E-05,-6.77940624882467E-05,1.23046875,0.0666371156021894,0
-1.97625195141882E-05,-5.24219831277151E-05,1.23046875,0.0679687387319917,0
-2.00081776711158E-05,-2.13746025110595E-05,1.23046875,0.0693132850781237,0
-2.01521361304913E-05,3.08113067148952E-06,1.23046875,0.0706706877611842,0
-2.20407637243625E-05,1.37664419526118E-05,1.23046875,0.0720408775409949,0
-2.40676326939138E-05,1.43951929203467E-05,1.23046875,0.0734237828790118,0
-2.69187567027984E-05,9.1504634838202E-06,1.23046875,0.0748193300015332,0
-2.79399137070868E-05,1.78609673184837E-06,1.23046875,0.0762274429636591,0
-2.6133586288779E-05,-5.30993929714896E-07,1.23046875,0.0776480437138828,0
-1.82401308848057E-05,5.06922788190423E-06,1.23046875,0.0790810521590387,0
-2.44896800722927E-05,1.25171191029949E-05,1.23046875,0.0805263862293582,0
-1.75310397025896E-05,1.49639699884574E-05,1.23046875,0.0819839619435763,0
-2.39856399275595E-05,1.42567860166309E-05,1.23046875,0.0834536934742194,0
-2.17919096030528E-05,1.34333367896033E-05,1.23046875,0.084935493213233,0
-2.63013535004575E-05,1.85193221113877E-05,1.23046875,0.086429271837972,0
-2.54428923653904E-05,3.10243340209126E-05,1.23046875,0.087934938377484,0
-2.65504604612943E-05,4.50856641691644E-05,1.23046875,0.0894524002790858,0
-2.58605996350525E-05,5.17142507305834E-05,1.23046875,0.090981563475436,0
-2.57745214184979E-05,4.74790213047527E-05,1.23046875,0.0925223324524126,0
-2.57231058640173E-05,3.82673970307224E-05,1.23046875,0.0940746103179902,0
-2.51581514021382E-05,3.07288610201795E-05,1.23046875,0.0956382988719832,0
-2.58162199315848E-05,2.50475477514556E-05,1.23046875,0.0972132986761994,0
-2.36686537391506E-05,1.87489204108715E-05,1.23046875,0.0987995091244158,0
-2.34022754739271E-05,1.4060887224332E-05,1.23046875,0.100396828511652,0
-2.26782285608351E-05,1.17037297968636E-05,1.23046875,0.102005154102401,0
-2.55692048085621E-05,4.34941375715425E-06,1.23046875,0.103624382197714,0
-2.72644592769211E-05,-1.43212737384601E-05,1.23046875,0.105254408201222,0
-2.99587100016652E-05,-3.46423366863746E-05,1.23046875,0.106895126684367,0
-2.84071029454935E-05,-3.73166731151287E-05,1.23046875,0.10854643145127,0
-2.63331312453374E-05,-1.68338519870304E-05,1.23046875,0.110208215603751,0
-2.31310950766783E-05,9.93075900623808E-06,1.23046875,0.11188037160671,0
-2.29378965741489E-05,2.53016569331521E-05,1.23046875,0.113562791353518,0
-2.35608476941707E-05,2.66125389316585E-05,1.23046875,0.115255366230731,0
-2.4592010959168E-05,2.48487303906586E-05,1.23046875,0.116957987181824,0
-2.50714456342394E-05,2.66091810772195E-05,1.23046875,0.118670544769895,0
-2.49256809183862E-05,2.98763698083349E-05,1.23046875,0.120392929239355,0
-1.94758395082317E-05,2.43074573518243E-05,1.23046875,0.122125030576452,0
-2.6876559786615E-05,2.35171519307187E-05,1.23046875,0.123866738568549,0
-1.995296588575E-05,-1.2017039807688E-05,1.23046875,0.125617942862102,0
-2.5346203983645E-05,-3.0695358873345E-05,1.23046875,0.127378533019251,0
-2.00776903511724E-05,-4.48670216428582E-05,1.23046875,0.129148398573153,0
-2.15028740058187E-05,-2.87745879177237E-05,1.23046875,0.130927429082498,0
-1.91743456525728E-05,-5.91668094784836E-06,1.23046875,0.132715514185677,0
-1.97130102606025E-05,1.84720902325353E-05,1.23046875,0.134512543654569,0
-1.80852421181044E-05,2.69811716862023E-05,1.23046875,0.136318407447456,0
-1.82701242010808E-05,2.27192049351288E-05,1.23046875,0.138132995760723,0
-1.94938183994964E-05,1.36948328872677E-05,1.23046875,0.13995619907935,0
-1.96899563889019E-05,4.54591872767196E-06,1.23046875,0.14178790822632,0
-2.01634557015495E-05,2.65445532932063E-06,1.23046875,0.143628014410747,0
-1.8022996300715E-05,2.70890677711577E-06,1.23046875,0.145476409274402,0
-1.86484576261137E-05,4.01018860429758E-06,1.23046875,0.147332984936442,0
-1.81555315066362E-05,-6.57252428482025E-07,1.23046875,0.149197634036328,0
-2.07500852411613E-05,-1.2791614381058E-06,1.23046875,0.151070249775001,0
-2.184095683333E-05,1.79553603629756E-06,1.23046875,0.15295072595435,0
-2.43244940065779E-05,1.42898734338814E-05,1.23046875,0.154838957015002,0
-2.37934746110113E-05,3.10211253236048E-05,1.23046875,0.156734838072473,0
-2.43827416852582E-05,5.12928891112097E-05,1.23046875,0.158638264951937,0
-2.33375631069066E-05,6.00645071244799E-05,1.23046875,0.160549134222029,0
-2.33776081586257E-05,5.4541502322536E-05,1.23046875,0.162467343228155,0
-2.37544390984112E-05,3.74249284504913E-05,1.23046875,0.164392790125523,0
-2.43565900746034E-05,2.07987905014306E-05,1.23046875,0.166325373911792,0
-2.29371835303027E-05,9.52293794398429E-06,1.23046875,0.168264994458951,0
-2.22466132981936E-05,1.79623759777314E-06,1.23046875,0.170211552543966,0
-1.98983834707178E-05,-4.70537952423911E-06,1.23046875,0.172164949877964,0
-2.88874598481925E-05,-1.15644270408666E-05,1.23046875,0.174125089133938,0
-2.16267526411684E-05,-1.57759204739705E-05,1.23046875,0.176091873973119,0
-2.58419368037721E-05,-2.11709375435021E-05,1.23046875,0.178065209070227,0
-2.30356581596425E-05,-2.38485445152037E-05,1.23046875,0.180045000137818,0
-2.72428515017964E-05,-2.52124336839188E-05,1.23046875,0.182031153949787,0
-2.64784393948503E-05,-1.20236627481063E-05,1.23046875,0.184023578363999,0
-2.71513745246921E-05,3.2103718694998E-05,1.23046875,0.186022182343992,0
-2.48868509515887E-05,9.02556857909076E-05,1.23046875,0.188026875979687,0
-2.43376161961351E-05,0.000135275287902914,1.23046875,0.190037570507198,0
-2.50269495154498E-05,0.000164744938956574,1.23046875,0.192054178328239,0
-2.48017022386193E-05,0.000180434042704292,1.23046875,0.19407661302982,0
-2.63352940237382E-05,0.000172922154888511,1.23046875,0.196104789404723,0
-2.60115757555468E-05,0.000129789375932887,1.23046875,0.198138623472792,0
-2.6196961698588E-05,5.50178992853034E-05,1.23046875,0.200178032502599,0
-2.33743849094026E-05,-2.59761218330823E-05,1.23046875,0.202222935032595,0
-2.41241887124488E-05,-8.89883958734572E-05,1.23046875,0.204273250890907,0
-2.46237777901115E-05,-0.000126734070363455,1.23046875,0.206328901213703,0
-2.64526825048961E-05,-0.00014724931679666,1.23046875,0.208389808462844,0
-2.5636596546974E-05,-0.000156373047502711,1.23046875,0.210455896443596,0
-2.63712936430238E-05,-0.00015240914945025,1.23046875,0.212527090322652,0
-2.57597621384775E-05,-0.000130057378555648,1.23046875,0.214603316646266,0
-2.54429924098076E-05,-8.9883673354052E-05,1.23046875,0.216684503357979,0
-2.39103101193905E-05,-4.65945449832361E-05,1.23046875,0.218770579815134,0
-2.37358453887282E-05,-1.41465579872602E-05,1.23046875,0.220861476803279,0
-2.3815347958589E-05,6.74495640851092E-06,1.23046875,0.222957126547645,0
-2.39554556173971E-05,1.55205743794795E-05,1.23046875,0.225057462721364,0
-1.98897178051993E-05,6.19359116171836E-06,1.23046875,0.227162420450599,0
-2.87669081444619E-05,1.6138008049893E-06,1.23046875,0.229271936316993,0
-2.1802823539474E-05,-1.95995221474732E-06,1.23046875,0.231385948357665,0
-2.68792700808262E-05,9.35059870244004E-06,1.23046875,0.233504396062795,0
-2.31793710554484E-05,1.37625029310584E-05,1.23046875,0.235627220370714,0
-2.54104379564524E-05,2.07967186725E-05,1.23046875,0.237754363660628,0
-2.35448733292287E-05,2.21976897591958E-05,1.23046875,0.239885769743212,0
-2.53627349593444E-05,2.50271805271041E-05,1.23046875,0.242021383849372,0
-2.63173678831663E-05,2.65939979726681E-05,1.23046875,0.244161152617375,0
-2.80800686596194E-05,2.93198827421293E-05,1.23046875,0.246305024078494,0
-2.92154745693551E-05,3.42416642524768E-05,1.23046875,0.248452947641352,0
-2.80204167211195E-05,4.14068890677299E-05,1.23046875,0.25060487407525,0
-2.75196071015671E-05,4.28337116318289E-05,1.23046875,0.252760755492765,0
-2.53011166932993E-05,2.81590437225532E-05,1.23046875,0.254920545331793,0
-2.47435891651548E-05,9.69621942203958E-06,1.23046875,0.257084198337001,0
-2.16728803934529E-05,2.44976899921312E-06,1.23046875,0.259251670540574,0
-2.06356035050703E-05,1.1026921129087E-05,1.23046875,0.261422919242252,0
-1.88495469046757E-05,2.12192771869013E-05,1.23046875,0.263597902988889,0
-2.0659465008066E-05,2.67466366494773E-05,1.23046875,0.265776581553908,0
-2.13356943277176E-05,2.63137844740413E-05,1.23046875,0.267958915917045,0
-2.36005598708289E-05,2.69491210929118E-05,1.23046875,0.270144868244539,0
-2.49074400926474E-05,2.74572139460361E-05,1.23046875,0.272334401869691,0
-2.64457776211202E-05,2.78310271824012E-05,1.23046875,0.274527481273546,0
-2.59886182902846E-05,2.62499088421464E-05,1.23046875,0.27672407206554,0
-2.51549299719045E-05,2.52744539466221E-05,1.23046875,0.278924140964149,0
-2.46768395300023E-05,2.49433687713463E-05,1.23046875,0.281127655777629,0
-2.5525359887979E-05,2.47410771407885E-05,1.23046875,0.283334585384855,0
-2.05572014237987E-05,1.91820727195591E-05,1.23046875,0.285544899716198,0
-2.85649093711982E-05,2.67741506831953E-05,1.23046875,0.28775856973442,0
-2.06816839636303E-05,2.02715727937175E-05,1.23046875,0.289975567415661,0
-2.57883821177529E-05,2.61622353718849E-05,1.23046875,0.292195865730545,0
-2.15310010389658E-05,2.1508121790248E-05,1.23046875,0.294419438625456,0
-2.40515382756712E-05,2.17857559619006E-05,1.23046875,0.296646261004034,0
-2.08390702027828E-05,1.61238658620277E-05,1.23046875,0.298876308709026,0
-2.19574849324999E-05,1.4473904229817E-05,1.23046875,0.301109558504587,0
-2.24903560592793E-05,1.250270906894E-05,1.23046875,0.303345988059191,0
-2.44027378357714E-05,1.26113400256145E-05,1.23046875,0.305585575929201,0
-2.57230040006107E-05,1.59665414685151E-05,1.23046875,0.307828301543091,0
-2.50174307439011E-05,2.19764970097458E-05,1.23046875,0.310074145186222,0
-2.66045954049332E-05,3.15881661663298E-05,1.23046875,0.312323087986157,0
-2.70374293904752E-05,3.91482462873682E-05,1.23046875,0.314575111898575,0
-2.84678499156144E-05,4.63201467937324E-05,1.23046875,0.316830199693841,0
-2.56248567893635E-05,4.7803590859985E-05,1.23046875,0.319088334944364,0
-2.45736900978955E-05,4.75732304039411E-05,1.23046875,0.321349502012818,0
-2.35063725995133E-05,4.20179676439147E-05,1.23046875,0.323613686041141,0
-2.7673551812768E-05,3.39293474098668E-05,1.23046875,0.325880872940056,0
-3.07374139083549E-05,1.67036541824928E-05,1.23046875,0.328151049378883,0
-3.19607861456461E-05,-7.12758674126235E-06,1.23046875,0.330424202775713,0
-2.77020335488487E-05,-3.23907770507503E-05,1.23046875,0.33270032128832,0
-2.42397527472349E-05,-4.48419923486654E-05,1.23046875,0.334979393806258,0
-2.10348298423924E-05,-4.33725253969897E-05,1.23046875,0.337261409944172,0
-1.94497970369412E-05,-3.35280346916988E-05,1.23046875,0.339546360036226,0
-1.93759806279559E-05,-2.2898942916072E-05,1.23046875,0.341834235131671,0
-1.95038064703112E-05,-9.85219139693072E-06,1.23046875,0.344125026991726,0
-1.4859934708511E-05,6.47641127216048E-06,1.23046875,0.346418728087767,0
-2.107454383804E-05,1.71644460351672E-05,1.23046875,0.34871533160065,0
-1.65995934366947E-05,2.07516332011437E-05,1.23046875,0.351014831420994,0
-2.17213928408455E-05,1.87135719897924E-05,1.23046875,0.353317222150226,0
-2.06424319912912E-05,1.78560840140563E-05,1.23046875,0.355622499102108,0
-2.44261937041301E-05,2.02719838853227E-05,1.23046875,0.357930658304381,0
-2.38908633036772E-05,2.40076096815756E-05,1.23046875,0.360241696500155,0
-2.53373182204086E-05,2.52515583269997E-05,1.23046875,0.362555611148839,0
-2.49520526267588E-05,2.33099199249409E-05,1.23046875,0.364872400426644,0
-2.48841970460489E-05,2.11151473195059E-05,1.23046875,0.367192063226821,0
-2.4559809389757E-05,2.46808831434464E-05,1.23046875,0.369514599159666,0
-2.43885606323602E-05,3.63405888492707E-05,1.23046875,0.371840008552226,0
-2.54565802606521E-05,5.2063689508941E-05,1.23046875,0.374168292447624,0
-2.34773378906539E-05,6.3852705352474E-05,1.23046875,0.376499452603972,0
-2.15914915315807E-05,6.56827323837206E-05,1.23046875,0.378833491492907,0
-1.89883194252616E-05,5.07705990457907E-05,1.23046875,0.381170412297771,0
-2.04455263883574E-05,1.52301627167617E-05,1.23046875,0.383510218911476,0
-2.09823647310259E-05,-2.6761983463075E-05,1.23046875,0.385852915934103,0
-2.20680085476488E-05,-4.51513114967383E-05,1.23046875,0.38819850867028,0
-2.1768350052298E-05,-3.60042395186611E-05,1.23046875,0.390547003126308,0
-2.34239541896386E-05,-2.51697656494798E-05,1.23046875,0.392898406006987,0
-2.38170177908614E-05,-2.5103974621743E-05,1.23046875,0.395252724712111,0
-2.36471878451994E-05,-2.45192513830261E-05,1.23046875,0.397609967332585,0
-2.18381119339028E-05,-1.39317298817332E-05,1.23046875,0.399970142646127,0
-2.16497446672292E-05,8.19829779175052E-07,1.23046875,0.402333260112509,0
-2.19736775761703E-05,9.64487662713509E-06,1.23046875,0.404699329868156,0
-2.1670333808288E-05,9.66708466876298E-06,1.23046875,0.407068362719898,0
-1.72923846548656E-05,3.39193820764194E-06,1.23046875,0.409440370137787,0
-2.48380129050929E-05,2.35394918490783E-06,1.23046875,0.411815364247007,0
-1.97467652469641E-05,-1.34809079099796E-06,1.23046875,0.414193357818973,0
-2.61359782598447E-05,-6.63049195281928E-06,1.23046875,0.416574364261618,0
-2.38392458413728E-05,-1.90832324733492E-05,1.23046875,0.418958397608857,0
-2.48723645199789E-05,-2.02167557290522E-05,1.23046875,0.421345472509358,0
-2.04309635591926E-05,-8.32283785712207E-06,1.23046875,0.423735604214855,0
-1.95978518604534E-05,9.67184132605325E-06,1.23046875,0.426128808568062,0
-2.00150752789341E-05,2.34742710745195E-05,1.23046875,0.428525101990069,0
-2.25705753109651E-05,2.99730545521015E-05,1.23046875,0.430924501467204,0
-2.38808970607352E-05,2.62001649389276E-05,1.23046875,0.433327024537449,0
-2.26140145969111E-05,1.56574897118844E-05,1.23046875,0.435732689276511,0
-2.26129304792266E-05,6.3914476413629E-06,1.23046875,0.438141514283571,0
-2.24575069296407E-05,2.79398182101431E-06,1.23046875,0.440553518666626,0
-2.39783912547864E-05,6.11380892223679E-06,1.23046875,0.442968722027253,0
-2.27683995035477E-05,1.11196468424168E-05,1.23046875,0.445387144444625,0
-2.38841130340006E-05,1.57215945364442E-05,1.23046875,0.447808806458777,0
-2.44623079197481E-05,1.88317499123514E-05,1.23046875,0.450233729053249,0
-2.6934729248751E-05,2.39314813370584E-05,1.23046875,0.452661933637228,0
-2.68461481027771E-05,3.1416660931427E-05,1.23046875,0.455093442027392,0
-2.67608720605494E-05,4.27093727921601E-05,1.23046875,0.457528276429735,0
-2.50673037953675E-05,5.84249901294243E-05,1.23046875,0.459966459421602,0
-2.47639763983898E-05,7.9515295510646E-05,1.23046875,0.462408013934068,0
-2.41517955146264E-05,9.67571759247221E-05,1.23046875,0.464852963234629,0
-2.57124356721761E-05,0.000103381760709453,1.23046875,0.467301330910184,0
-2.82281998806866E-05,0.000100346398539841,1.23046875,0.469753140850372,0
-2.93396806227975E-05,8.98144935490564E-05,1.23046875,0.472208417231454,0
-2.36788691836409E-05,5.41334375157021E-05,1.23046875,0.474667184500931,0
-3.40770602633711E-05,4.95216772833373E-05,1.23046875,0.477129467362861,0
-2.5465635189903E-05,-2.58362269960344E-05,1.23046875,0.479595290763561,0
-2.71411809080746E-05,-5.99299637542572E-05,1.23046875,0.482064679877524,0
-1.54403478518361E-05,-9.7992189694196E-05,1.23046875,0.484537660093803,0
-1.31243978103157E-05,-9.94283327599987E-05,1.23046875,0.487014257003585,0
-7.70980477682315E-06,-0.000108096559415571,1.23046875,0.489494496390003,0
-1.13392061393824E-05,-8.67856506374665E-05,1.23046875,0.49197840422134,0
-1.75492914422648E-05,-6.91571840434335E-05,1.23046875,0.494466006648222,0
-2.44172260863706E-05,-6.06540124863386E-05,1.23046875,0.496957330004419,0
-2.59434618783416E-05,-5.19121495017316E-05,1.23046875,0.499452400809937,0
-2.14224037335953E-05,-3.51430899172556E-05,1.23046875,0.501951245774999,0
-1.84295313374605E-05,-1.22579513117671E-05,1.23046875,0.504453891804026,0
-1.7002832464641E-05,-3.30880061483185E-06,1.23046875,0.506960365999142,0
-1.97150002350099E-05,4.25902726419736E-06,1.23046875,0.509470695662924,0
-1.90922564797802E-05,3.45058424500166E-06,1.23046875,0.511984908300455,0
-2.23342831304763E-05,1.18959014798747E-05,1.23046875,0.514503031620791,0
-2.41052948695142E-05,1.53983855852857E-05,1.23046875,0.517025093537729,0
-2.6117124434677E-05,2.44949987973087E-05,1.23046875,0.51955112216984,0
-2.38532393268542E-05,2.66801489487989E-05,1.23046875,0.522081145840003,0
-2.42616442847066E-05,3.33968819177244E-05,1.23046875,0.524615193074816,0
-2.3876618797658E-05,3.33515963575337E-05,1.23046875,0.527153292604037,0
-2.44682341872249E-05,3.16819714498706E-05,1.23046875,0.52969547335999,0
-2.35067564062774E-05,2.21517220779788E-05,1.23046875,0.53224176447679,0
-2.30854475375963E-05,1.44477453432046E-05,1.23046875,0.534792195289236,0
-2.2634545530309E-05,9.31207341636764E-06,1.23046875,0.537346795331175,0
-2.23331207962474E-05,9.48064644035185E-06,1.23046875,0.53990559433304,0
-1.92264287761645E-05,8.05202762421686E-06,1.23046875,0.542468622218284,0
-2.87010934698628E-05,7.25241261534393E-06,1.23046875,0.545035909098563,0
-2.41926063608844E-05,-6.20751222868421E-07,1.23046875,0.547607485267671,0
-2.987367042806E-05,-3.56842946303004E-07,1.23046875,0.550183381194406,0
-2.50221164606046E-05,-1.22536641811166E-06,1.23046875,0.552763627514712,0
-2.72658708126983E-05,5.59666295885108E-06,1.23046875,0.555348255023325,0
-2.71660974249244E-05,1.61822772497544E-05,1.23046875,0.557937294664963,0
-2.83445151580963E-05,2.6478614017833E-05,1.23046875,0.560530777524946,0
-2.57946630881634E-05,3.09487295453437E-05,1.23046875,0.563128734819267,0
-2.34795024880441E-05,2.8983205993427E-05,1.23046875,0.565731197884256,0
-2.31652429647511E-05,2.47035532083828E-05,1.23046875,0.568338198165855,0
-2.2559157514479E-05,2.0410541765159E-05,1.23046875,0.5709497672084,0
-2.34821563935839E-05,2.04606894840254E-05,1.23046875,0.573565936642812,0
-2.30016794375842E-05,2.31253306992585E-05,1.23046875,0.576186738174163,0
-2.34948074648855E-05,2.71531280304771E-05,1.23046875,0.578812203568529,0
-2.11814167414559E-05,2.74325884674909E-05,1.23046875,0.581442364639115,0
-2.16705084312707E-05,2.60497708950425E-05,1.23046875,0.5840772532317,0
-2.15406598726986E-05,2.3767437596689E-05,1.23046875,0.58671690120954,0
-2.31255489779869E-05,2.35539682762465E-05,1.23046875,0.589361340437845,0
-2.24927098315675E-05,2.31030990107683E-05,1.23046875,0.5920106027678,0
-2.33623450185405E-05,2.27986274694558E-05,1.23046875,0.594664720019994,0
-2.29132347158156E-05,2.28000335482648E-05,1.23046875,0.597323723967128,0
-2.29335910262307E-05,2.30542009376222E-05,1.23046875,0.599987646315908,0
-2.31285957852378E-05,2.21498448809143E-05,1.23046875,0.60265651868816,0
-2.34359940805007E-05,2.00937629415421E-05,1.23046875,0.605330372601173,0
-2.29712095460854E-05,1.90298196685035E-05,1.23046875,0.608009239447363,0
-2.29747020057403E-05,1.97847748495406E-05,1.23046875,0.6106931504733,0
-1.89342608791776E-05,1.59137543960242E-05,1.23046875,0.613382136758212,0
-2.72832185146399E-05,2.01586954062805E-05,1.23046875,0.61607622919211,0
-2.18426557694329E-05,1.17154968393152E-05,1.23046875,0.618775458453688,0
-2.81829306914005E-05,1.63053500727983E-05,1.23046875,0.621479854988103,0
-2.48423457378522E-05,2.58446925727185E-05,1.23046875,0.624189448984694,0
-2.67447358055506E-05,6.44138344796374E-05,1.23046875,0.626904270354772,0
-2.48949418164557E-05,0.00010834291606443,1.23046875,0.629624348709668,0
-2.70302862190874E-05,0.00014829849533271,1.23046875,0.632349713339378,0
-2.74814447038807E-05,0.000175707828020677,1.23046875,1.24060453226013,0.00221883765778401
-2.86302019958384E-05,0.000186751785804518,1.23046875,1.2406097297223,0.00221883765778401
-2.9200937206042E-05,0.000167683116160333,1.23046875,1.24062015455797,0.00221883765778401
-2.79152245639125E-05,0.000108174652268644,1.23046875,1.24063583637845,0.00221883765778401
-2.79310115729459E-05,2.45500996243209E-05,1.23046875,1.24065680447397,0.00221883765778401
-2.58194795605959E-05,-5.47392628504895E-05,1.23046875,1.24068308779325,0.00221883765778401
-2.50917528319405E-05,-0.000106402701931074,1.23046875,1.24071471492412,0.00221883765778401
-2.24242230615346E-05,-0.000137410854222253,1.23046875,1.2407517140762,0.00221883765778401
-2.27776945393998E-05,-0.000151273212395608,1.23046875,1.24079411306692,0.00221883765778401
-2.17490924114827E-05,-0.000152723747305572,1.23046875,1.24084193931154,0.00221883765778401
-2.14145893551176E-05,-0.000143394281622022,1.23046875,1.24089521981729,0.00221883765778401
-1.78926184162265E-05,-0.00012914405670017,1.23046875,1.24095398118095,0.00221883765778401
-1.55849775183015E-05,-9.94070942397229E-05,1.23046875,1.24101824958926,0.00221883765778401
-1.36202115754713E-05,-5.76503807678819E-05,1.23046875,1.24108805082208,0.00221883765778401
-1.48414001159836E-05,-1.89647525985492E-05,1.23046875,1.24116341025903,0.00221883765778401
-1.72271320479922E-05,2.68158305516408E-06,1.23046875,1.24124435289114,0.00221883765778401
-2.05982159968698E-05,1.0165696949116E-05,1.23046875,1.24133090333867,0.00221883765778401
-2.28599674301222E-05,8.03330658527557E-06,1.23046875,1.24142308587561,0.00221883765778401
-2.4698298147996E-05,-4.48564549060393E-07,1.23046875,1.24152092446082,0.00221883765778401
-2.12508384720422E-05,-8.38832693261793E-06,1.23046875,1.24162444277523,0.00221883765778401
-3.00439205602743E-05,-1.24390335258795E-05,1.23046875,1.24173366426442,0.00221883765778401
-2.08062665478792E-05,-4.61494346382096E-06,1.23046875,1.24184861218599,0.00221883765778401
-2.37569602177246E-05,1.2669746638494E-06,1.23046875,1.24196930966119,0.00221883765778401
-1.93796895473497E-05,8.876527317625E-06,1.23046875,1.24209577973075,0.00221883765778401
-2.30990372074302E-05,1.22951778394054E-05,1.23046875,1.24222804541465,0.00221883765778401
-2.20155161514413E-05,1.47613945955527E-05,1.23046875,1.24236612977626,0.00221883765778401
-2.45966039074119E-05,1.53513447003206E-05,1.23046875,1.24251005599054,0.00221883765778401
-2.44389175350079E-05,1.68068509083241E-05,1.23046875,1.24265984741583,0.00221883765778401
-2.48787546297535E-05,1.76370504050283E-05,1.23046875,1.2428155276688,0.00221883765778401
-2.6053852707264E-05,1.71587198565248E-05,1.23046875,1.24297712070197,0.00221883765778401
-2.62975645455299E-05,1.74903307197383E-05,1.23046875,1.24314465088325,0.00221883765778401
-2.78138686553575E-05,1.90901391761145E-05,1.23046875,1.24331814307709,0.00221883765778401
-2.67240957327886E-05,2.48264859692426E-05,1.23046875,1.24349762272691,0.00221883765778401
-2.67490486294264E-05,3.40435071848333E-05,1.23046875,1.2436831159381,0.00221883765778401
-2.46681065618759E-05,4.31267217209097E-05,1.23046875,1.24387464956181,0.00221883765778401
-2.55069790000562E-05,4.58797803730704E-05,1.23046875,1.24407225127893,0.00221883765778401
-2.40783538174583E-05,4.68556936539244E-05,1.23046875,1.24427594968484,0.00221883765778401
-2.43363392655738E-05,5.03494848089758E-05,1.23046875,1.24448577437443,0.00221883765778401
-2.28491462621605E-05,5.71273667446803E-05,1.23046875,1.24470175602765,0.00221883765778401
-2.35770112340106E-05,6.13016236457042E-05,1.23046875,1.24492392649516,0.00221883765778401
-2.39071650867118E-05,6.11796931480058E-05,1.23046875,1.24515231888409,0.00221883765778401
-2.57273677561898E-05,5.84817935305182E-05,1.23046875,1.24538696764366,0.00221883765778401
-2.49432832788443E-05,5.48223142686766E-05,1.23046875,1.24562790865039,0.00221883765778401
-2.34983017435297E-05,4.15524300478864E-05,1.23046875,1.24587517929263,0.00221883765778401
-2.27060554607306E-05,1.15055809146725E-05,1.23046875,1.2461288185538,0.00221883765778401
-2.39168748521479E-05,-2.71164462901652E-05,1.23046875,1.24638886709412,0.00221883765778401
-2.20730325963814E-05,-4.60798801213969E-05,1.23046875,1.24665536733011,0.00221883765778401
-3.19871469400823E-05,-6.61882077110931E-05,1.23046875,1.24692836351121,0.00221883765778401
-2.3097607481759E-05,-4.03380690841004E-05,1.23046875,1.24720790179246,0.00221883765778401
-2.64900172624039E-05,-3.81709323846735E-05,1.23046875,1.24749403030272,0.00221883765778401
-2.19289613596629E-05,-2.06050317501649E-05,1.23046875,1.24778679920834,0.00221883765778401
-2.62510802713223E-05,-1.83512347575743E-05,1.23046875,1.24808626077274,0.00221883765778401
-2.58960644714534E-05,-5.06833475810708E-06,1.23046875,1.24839246941273,0.00221883765778401
-2.66244423983153E-05,1.80243887371034E-06,1.23046875,1.24870548175196,0.00221883765778401
-2.45106348302215E-05,8.46728289616294E-06,1.23046875,1.24902535667185,0.00221883765778401
-2.34270501096034E-05,1.07984833448427E-05,1.23046875,1.24935215536011,0.00221883765778401
-2.30779205594445E-05,1.20972335935221E-05,1.23046875,1.24968594135725,0.00221883765778401
-2.24893828999484E-05,1.89149632205954E-05,1.23046875,1.25002678060135,0.00221883765778401
-2.48977266892325E-05,3.11487128783483E-05,1.23046875,1.25037474147124,0.00221883765778401
-2.64048721874133E-05,5.56620143470354E-05,1.23046875,1.2507298948283,0.00221883765778401
-2.96332018479006E-05,7.49732353142463E-05,1.23046875,1.25109231405693,0.00221883765778401
-2.86615704681026E-05,9.00178347364999E-05,1.23046875,1.25146207510399,0.00221883765778401
-2.80642925645225E-05,9.10539893084206E-05,1.23046875,1.25183925651759,0.00221883765778401
-2.4665190721862E-05,8.78684295457788E-05,1.23046875,1.25222393948581,0.00221883765778401
-2.41659054154297E-05,7.1923692303244E-05,1.23046875,1.25261620787521,0.00221883765778401
-2.33965383813484E-05,5.20270150445867E-05,1.23046875,1.25301614826903,0.00221883765778401
-2.49245240411256E-05,2.63562178588472E-05,1.23046875,1.25342385000451,0.00221883765778401
-2.56098501267843E-05,4.798995632882E-06,1.23046875,1.25383940520871,0.00221883765778401
-2.76620467047906E-05,-1.95236061699688E-05,1.23046875,1.25426290883213,0.00221883765778401
-2.83604440483032E-05,-4.66262281406671E-05,1.23046875,1.25469445867997,0.00221883765778401
-2.76411919912789E-05,-7.58151218178682E-05,1.23046875,1.25513415544133,0.00221883765778401
-2.41864636336686E-05,-9.02612664503977E-05,1.23046875,1.25558210271716,0.00221883765778401
-2.11242913792375E-05,-8.29839991638437E-05,1.23046875,1.25603840704791,0.00221883765778401
-1.70432867889758E-05,-4.40424410044216E-05,1.23046875,1.25650317794129,0.00221883765778401
-2.62694720731815E-05,-3.95008464693092E-05,1.23046875,1.25697652790024,0.00221883765778401
-2.27781110879732E-05,2.53965595220507E-07,1.23046875,1.25745857245067,0.00221883765778401
-2.66025654127589E-05,-4.88037221657578E-06,1.23046875,1.25794943016776,0.00221883765778401
-2.20911224459996E-05,1.65533219842473E-05,1.23046875,1.25844922269968,0.00221883765778401
-2.40876106545329E-05,1.69846516655525E-05,1.23046875,1.25895807478801,0.00221883765778401
-2.3312841221923E-05,2.54744099947857E-05,1.23046875,1.25947611428467,0.00221883765778401
-2.42400201386772E-05,1.47491118696053E-05,1.23046875,1.26000347216572,0.00221883765778401
-2.22234993998427E-05,9.27205383050023E-06,1.23046875,1.26054028254188,0.00221883765778401
-2.06618951779092E-05,1.18255120469257E-05,1.23046875,1.26108668266579,0.00221883765778401
-2.05602846108377E-05,2.10830603464274E-05,1.23046875,1.26164281293566,0.00221883765778401
-2.1370651666075E-05,3.16135847242549E-05,1.23046875,1.26220881689521,0.00221883765778401
-2.31569683819544E-05,3.25966102536768E-05,1.23046875,1.26278484122983,0.00221883765778401
-2.3034470359562E-05,2.59171174548101E-05,1.23046875,1.26337103575908,0.00221883765778401
-2.38043230638141E-05,7.14621990027808E-07,1.23046875,1.26396755342551,0.00221883765778401
-2.12198556255316E-05,-1.24510106616071E-05,1.23046875,1.26457455027963,0.00221883765778401
-1.96445107576437E-05,-1.08414069472929E-05,1.23046875,1.26519218546066,0.00221883765778401
-1.75257337104995E-05,8.55349844641751E-06,1.23046875,1.26582062117341,0.00221883765778401
-1.90364407899324E-05,1.65991332323756E-05,1.23046875,1.26646002266127,0.00221883765778401
-2.03919516934548E-05,1.97333301912295E-05,1.23046875,1.26711055817513,0.00221883765778401
-2.28173357754713E-05,1.44340765473316E-05,1.23046875,1.26777239893805,0.00221883765778401
-2.28869412239874E-05,1.39295034387033E-05,1.23046875,1.268445719105,0.00221883765778401
-2.29795459745219E-05,1.21236507766298E-05,1.23046875,1.26913069571783,0.00221883765778401
-2.23874922085088E-05,1.32516952362494E-05,1.23046875,1.26982750865503,0.00221883765778401
-2.24443338083802E-05,1.17042582132854E-05,1.23046875,1.27053634057648,0.00221883765778401
-2.13534694921691E-05,1.14184367703274E-05,1.23046875,1.27125737686308,0.00221883765778401
-1.94653675862355E-05,1.40538968480541E-05,1.23046875,1.27199080555125,0.00221883765778401
-1.53980436152779E-05,1.96934361156309E-05,1.23046875,1.27273681726236,0.00221883765778401
-2.2905807782081E-05,3.35585718858056E-05,1.23046875,1.27349560512691,0.00221883765778401
-1.85860062629217E-05,2.74188623734517E-05,1.23046875,1.27426736470377,0.00221883765778401
-2.37114381889114E-05,3.20614053634927E-05,1.23046875,1.27505229389438,0.00221883765778401
-2.34045292017981E-05,3.64034676749725E-05,1.23046875,1.27585059285214,0.00221883765778401
-2.72592023975449E-05,4.60110422864091E-05,1.23046875,1.27666246388724,0.00221883765778401
-2.52679055847693E-05,4.51589803560637E-05,1.23046875,1.27748811136687,0.00221883765778401
-2.47508451138856E-05,4.37223752669524E-05,1.23046875,1.27832774161125,0.00221883765778401
-2.48502310569165E-05,4.55537592642941E-05,1.23046875,1.27918156278556,0.00221883765778401
-2.68064704869175E-05,5.61122869839892E-05,1.23046875,1.28004978478778,0.00221883765778401
-2.75402380793821E-05,6.72767346259207E-05,1.23046875,1.28093261913253,0.00221883765778401
-2.5915976948454E-05,6.93708570906892E-05,1.23046875,1.28183027883094,0.00221883765778401
-2.57569536188385E-05,5.93128752370831E-05,1.23046875,1.28274297826708,0.00221883765778401
-2.53486978181172E-05,2.85445439658361E-05,1.23046875,1.28367093307102,0.00221883765778401
-2.63412439380772E-05,-1.08969452412566E-05,1.23046875,1.28461435998855,0.00221883765778401
-2.50352459261194E-05,-3.03947035718011E-05,1.23046875,1.28557347674761,0.00221883765778401
-2.44257207668852E-05,-1.20950853670365E-05,1.23046875,1.28654850192235,0.00221883765778401
-2.19657522393391E-05,1.89678394235671E-05,1.23046875,1.28753965479591,0.00221883765778401
-2.15764539461816E-05,3.50052941939794E-05,1.23046875,1.28854715522245,0.00221883765778401
-2.14692863664823E-05,2.20948404603405E-05,1.23046875,1.28957122348766,0.00221883765778401
-2.53363341471413E-05,4.07943798563792E-06,1.23046875,1.29061208016666,0.00221883765778401
-2.94335768558085E-05,5.04276613355614E-06,1.23046875,1.29166994597894,0.00221883765778401
-2.99152652587509E-05,1.95490119949682E-05,1.23046875,1.29274504164057,0.00221883765778401
-2.45591545535717E-05,3.0002756830072E-05,1.23046875,1.29383758771458,0.00221883765778401
-1.92563638847787E-05,4.08514351875056E-05,1.23046875,1.29494780445925,0.00221883765778401
-1.59299634105992E-05,5.19977802468929E-05,1.23046875,1.29607591167439,0.00221883765778401
-1.51756166815176E-05,6.24734675511718E-05,1.23046875,1.29722212854548,0.00221883765778401
-1.43123870657291E-05,6.45991894998588E-05,1.23046875,1.29838667348611,0.00221883765778401
-2.1615256628138E-05,9.81576813501306E-05,1.23046875,1.29956976397948,0.00221883765778401
-1.7794816812966E-05,6.46839034743607E-05,1.23046875,1.30077161641965,0.00221883765778401
-2.1319374354789E-05,3.70045090676285E-05,1.23046875,1.30199244595296,0.00221883765778401
-1.85669614438666E-05,-2.903995118686E-05,1.23046875,1.30323246631992,0.00221883765778401
-2.07456014322815E-05,-6.6474407503847E-05,1.23046875,1.30449188969767,0.00221883765778401
-2.02205701498315E-05,-0.000108357991848607,1.23046875,1.30577092654401,0.00221883765778401
-2.02644023374887E-05,-0.000136272588861175,1.23046875,1.30706978544578,0.00221883765778401
-1.7941509213415E-05,-0.000160304742166772,1.23046875,1.30838867297392,0.00221883765778401
-1.74921788129723E-05,-0.000165937977726571,1.23046875,1.30972779354733,0.00221883765778401
-1.90275823115371E-05,-0.000152848413563333,1.23046875,1.31108734930661,0.00221883765778401
-2.04645129997516E-05,-0.000125955761177465,1.23046875,1.31246753999762,0.00221883765778401
-2.28096141654532E-05,-8.95419725566171E-05,1.23046875,1.31386856286398,0.00221883765778401
-2.37801086768741E-05,-6.19862621533684E-05,1.23046875,1.31529061254626,0.00221883765778401
-2.52333466050914E-05,-3.18481579597574E-05,1.23046875,1.3167338809853,0.00221883765778401
-2.44459060922964E-05,-1.29007648865809E-05,1.23046875,1.31819855732695,0.00221883765778401
-2.53362486546393E-05,5.05936213812674E-06,1.23046875,1.31968482782747,0.00221883765778401
-2.48031592491316E-05,1.08690601337003E-05,1.23046875,1.32119287575997,0.00221883765778401
-2.57410374615574E-05,2.0171310097794E-05,1.23046875,1.3227228813233,0.00221883765778401
-2.5865672796499E-05,2.21087611862458E-05,1.23046875,1.32427502155444,0.00221883765778401
-2.7253090593149E-05,2.63125293713529E-05,1.23046875,1.32584947024486,0.00221883765778401
-2.72869910986628E-05,2.57838692050427E-05,1.23046875,1.32744639786104,0.00221883765778401
-2.69905576715246E-05,2.84489160549128E-05,1.23046875,1.32906597146923,0.00221883765778401
-2.55628729064483E-05,2.90492898784578E-05,1.23046875,1.33070835466419,0.00221883765778401
-2.4663135263836E-05,3.66263338946737E-05,1.23046875,1.3323737075018,0.00221883765778401
-2.64304035226814E-05,4.87800680275541E-05,1.23046875,1.33406218643542,0.00221883765778401
-3.11812764266506E-05,6.08548252785113E-05,1.23046875,1.33577394425589,0.00221883765778401
-2.78820061794249E-05,4.67096651846077E-05,1.23046875,1.33750913003564,0.00221883765778401
-3.91713510907721E-05,4.03179583372548E-05,1.23046875,1.33926788907673,0.00221883765778401
-2.71690732915886E-05,-1.45094008985325E-05,1.23046875,1.34105036286271,0.00221883765778401
-3.13549026031978E-05,-7.22273034625687E-06,1.23046875,1.34285668901295,0.00221883765778401
-2.31190751946997E-05,3.63322169505409E-06,1.23046875,1.34468700123802,0.00221883765778401
-2.52826630458003E-05,3.37337551172823E-05,1.23046875,1.34654142929488,0.00221883765778401
-2.21232367039192E-05,3.95028400816955E-05,1.23046875,1.34842009894203,0.00221883765778401
-2.4402199414908E-05,4.56553607364185E-05,1.23046875,1.35032313189506,0.00221883765778401
-2.39755281654652E-05,4.32670494774356E-05,1.23046875,1.35225064578358,0.00221883765778401
-2.47152365773218E-05,4.17591327277478E-05,1.23046875,1.3542027541102,0.00221883765778401
-2.49314107350074E-05,4.19950483774301E-05,1.23046875,1.35617956621152,0.00221883765778401
-2.39278415392619E-05,3.89357592212036E-05,1.23046875,1.35818118722093,0.00221883765778401
-2.63783367699943E-05,3.78996701329015E-05,1.23046875,1.36020771803284,0.00221883765778401
-2.55595259659458E-05,3.18251841235906E-05,1.23046875,1.36225925526812,0.00221883765778401
-2.6205201720586E-05,3.35416552843526E-05,1.23046875,1.36433589124029,0.00221883765778401
-2.35869283642387E-05,2.99762687063776E-05,1.23046875,1.36643771392233,0.00221883765778401
-2.5287759854109E-05,3.18596648867242E-05,1.23046875,1.36856480691371,0.00221883765778401
-2.55277773248963E-05,2.98221548291622E-05,1.23046875,1.37071724940751,0.00221883765778401
-2.78391871688655E-05,3.49025722243823E-05,1.23046875,1.37289511615756,0.00221883765778401
-2.53651578532299E-05,3.51400340150576E-05,1.23046875,1.37509847744567,0.00221883765778401
-2.50303000939311E-05,3.91789290006272E-05,1.23046875,1.37732739904902,0.00221883765778401
-2.52829195233062E-05,4.22480843553785E-05,1.23046875,1.37958194220798,0.00221883765778401
-2.78096595138777E-05,5.11573016410694E-05,1.23046875,1.38186216359458,0.00221883765778401
-2.76350365311373E-05,5.64737383683678E-05,1.23046875,1.38416811528186,0.00221883765778401
-2.77321159956045E-05,6.2241218984127E-05,1.23046875,1.38649984471459,0.00221883765778401
-2.79843843600247E-05,6.89647567924112E-05,1.23046875,1.38885739468172,0.00221883765778401
-2.74173544312362E-05,7.4560426583048E-05,1.23046875,1.39124080329109,0.00221883765778401
-1.98941706912592E-05,5.94916382397059E-05,1.23046875,1.3936501039465,0.00221883765778401
-2.67922787315911E-05,6.79928707540967E-05,1.23046875,1.39608532532748,0.00221883765778401
-1.98256384464912E-05,1.89018610399216E-05,1.23046875,1.39854649137137,0.00221883765778401
-2.57109277299605E-05,1.9429169697105E-05,1.23046875,1.4010336212574,0.00221883765778401
-1.97449735424016E-05,-5.38735946520319E-07,1.23046875,1.40354672939331,0.00221883765778401
-2.11181377380854E-05,-7.24387291484163E-06,1.23046875,1.40608582540542,0.00221883765778401
-1.88286339835031E-05,-3.72442991647404E-05,1.23046875,1.40865091413344,0.00221883765778401
-2.06156310014194E-05,-4.94798259751406E-05,1.23046875,1.41124199563109,0.00221883765778401
-2.01456659851829E-05,-5.30352335772477E-05,1.23046875,1.413859065173,0.00221883765778401
-2.05067808565218E-05,-4.50379811809398E-05,1.23046875,1.41650211326913,0.00221883765778401
-2.19541198021034E-05,-3.32463932863902E-05,1.23046875,1.41917112568639,0.00221883765778401
-2.23637798626442E-05,-2.38828743022168E-05,1.23046875,1.4218660834773,0.00221883765778401
-2.30184468819061E-05,-9.27479959500488E-06,1.23046875,1.42458696301394,0.00221883765778401
-2.13062940019881E-05,-2.96934308607888E-06,1.23046875,1.42733373602603,0.00221883765778401
-2.23569350055186E-05,5.5340842664009E-06,1.23046875,1.43010636964146,0.00221883765778401
-2.12230443139561E-05,6.27183635515394E-06,1.23046875,1.43290482642824,0.00221883765778401
-2.21214486373356E-05,1.58616749104112E-05,1.23046875,1.435729064437,0.00221883765778401
-2.14073952520266E-05,1.95479715330293E-05,1.23046875,1.4385790372436,0.00221883765778401
-2.34106482821517E-05,2.95610025204951E-05,1.23046875,1.44145469399213,0.00221883765778401
-2.36903360928409E-05,3.51188464264851E-05,1.23046875,1.44435597943875,0.00221883765778401
-2.5525652745273E-05,4.38342103734612E-05,1.23046875,1.44728283399681,0.00221883765778401
-2.49827498919331E-05,3.92476285924204E-05,1.23046875,1.45023519378396,0.00221883765778401
-2.42139321926516E-05,2.53421949309995E-05,1.23046875,1.45321299067135,0.00221883765778401
-2.30735386139713E-05,5.56270470042364E-06,1.23046875,1.45621615233492,0.00221883765778401
-2.48693577304948E-05,4.89244712298387E-06,1.23046875,1.45924460230824,0.00221883765778401
-2.68568128376501E-05,2.09235568036092E-05,1.23046875,1.46229826003615,0.00221883765778401
-2.68160001724027E-05,3.15169272653293E-05,1.23046875,1.46537704092892,0.00221883765778401
-2.02956125576748E-05,1.84739747055573E-05,1.23046875,1.46848085641683,0.00221883765778401
-2.77725903288228E-05,1.13046316982945E-05,1.23046875,1.47160961400546,0.00221883765778401
-1.96981545741437E-05,-1.47927194120712E-05,1.23046875,1.4747632173317,0.00221883765778401
-2.47729713009903E-05,-2.10589314519893E-05,1.23046875,1.47794156622057,0.00221883765778401
-1.91349099623039E-05,-3.18625679938123E-05,1.23046875,1.48114455674331,0.00221883765778401
-1.8930368241854E-05,-2.43642043642467E-05,1.23046875,1.48437208127749,0.00221883765778401
-1.37093902594643E-05,-1.6551508451812E-05,1.23046875,1.48762402856953,0.00221883765778401
-1.36624112201389E-05,-6.40370308246929E-06,1.23046875,1.49090028379958,0.00221883765778401
-1.40251077027642E-05,-5.1961565077363E-06,1.23046875,1.49420072864807,0.00221883765778401
-1.58399761858163E-05,-3.67273173651483E-06,1.23046875,1.49752524136301,0.00221883765778401
-1.81752366188448E-05,4.04721231461735E-06,1.23046875,1.50087369682755,0.00221883765778401
-2.00137983483728E-05,6.1153300521255E-06,1.23046875,1.50424596662741,0.00221883765778401
-2.28090120799607E-05,-2.41651900978468E-06,1.23046875,1.50764191911836,0.00221883765778401
-2.22774906433187E-05,-1.39201802085154E-05,1.23046875,1.51106141949396,0.00221883765778401
-2.25007952394662E-05,-9.74935483100126E-06,1.23046875,1.51450432985364,0.00221883765778401
-2.04029111046111E-05,3.7821300225005E-07,1.23046875,1.51797050927089,0.00221883765778401
-2.0937713998137E-05,1.03517122624908E-05,1.23046875,1.52145981386186,0.00221883765778401
-2.04919851967134E-05,1.09818647615612E-05,1.23046875,1.52497209685427,0.00221883765778401
-2.31553403864382E-05,9.06905734154861E-06,1.23046875,1.52850720865712,0.00221883765778401
-2.39058881561505E-05,1.14616307200777E-06,1.23046875,1.53206499693142,0.00221883765778401
-2.58782565651927E-05,-6.58593808111618E-06,1.23046875,1.5356453066619,0.00221883765778401
-2.58166655839887E-05,-8.85915414983174E-06,1.23046875,1.53924798022949,0.00221883765778401
-2.66163715423318E-05,2.02732462639688E-06,1.23046875,1.54287285748407,0.00221883765778401
-2.68504736595787E-05,1.45837020681938E-05,1.23046875,1.54651977581745,0.00221883765778401
-2.72796933131758E-05,2.21964201045921E-05,1.23046875,1.55018857023657,0.00221883765778401
-2.69626380031696E-05,2.410271554254E-05,1.23046875,1.55387907343754,0.00221883765778401
-2.64337249973323E-05,1.89650181710022E-05,1.23046875,1.5575911158811,0.00221883765778401
-2.02935334527865E-05,8.35578248370439E-06,1.23046875,1.56132452586966,0.00221883765778401
-2.84323159576161E-05,1.25489104902954E-05,1.23046875,1.56507912962578,0.00221883765778401
-2.05236647161655E-05,1.52419552250649E-05,1.23046875,1.56885475137164,0.00221883765778401
-2.43638824031223E-05,2.43476952164201E-05,1.23046875,1.57265121340888,0.00221883765778401
-1.97936278709676E-05,2.81718439509859E-05,1.23046875,1.57646833619898,0.00221883765778401
-2.35349707509158E-05,3.23852655128576E-05,1.23046875,1.58030593844412,0.00221883765778401
-2.28586450248258E-05,2.11390070035122E-05,1.23046875,1.58416383716891,0.00221883765778401
-2.63362944679102E-05,-5.68330335681821E-07,1.23046875,1.58804184780296,0.00221883765778401
-2.80186723102815E-05,-1.30433991216705E-05,1.23046875,1.5919397842639,0.00221883765778401
-2.92164932034211E-05,-5.09892606714857E-06,1.23046875,1.59585745904058,0.00221883765778401
-2.82794444501633E-05,9.30427995626815E-06,1.23046875,1.59979468327648,0.00221883765778401
-2.60583219642285E-05,1.99415389943169E-05,1.23046875,1.60375126685325,0.00221883765778401
-2.68576350208605E-05,2.96777943731286E-05,1.23046875,1.60772701847436,0.00221883765778401
-2.68386447714875E-05,3.96910036215559E-05,1.23046875,1.61172174574847,0.00221883765778401
-2.8358221243252E-05,4.92059298267122E-05,1.23046875,1.6157352552729,0.00221883765778401
-2.68890835286584E-05,5.39154170837719E-05,1.23046875,1.61976735271754,0.00221883765778401
-2.75967158813728E-05,5.50431796000339E-05,1.23046875,1.6238178429095,0.172083187237027
-2.64874761342071E-05,5.47943600395229E-05,1.23046875,1.62788652991867,0.172083187237027
-2.75103357125772E-05,6.61679732729681E-05,1.23046875,1.63197321714415,0.172083187237027
-2.63934944086941E-05,9.1722613433376E-05,1.23046875,1.63607770740119,0.172083187237027
-2.65494254563237E-05,0.000117600640805904,1.23046875,1.64019980300878,0.172083187237027
-2.55583563557593E-05,0.000126183658721857,1.23046875,1.64433930587824,0.172083187237027
-2.5915544028976E-05,0.0001184875582112,1.23046875,1.64849601760348,0.172083187237027
-2.36616197071271E-05,9.87573002930731E-05,1.23046875,1.65266973955336,0.172083187237027
-2.17590932152234E-05,6.45755717414431E-05,1.23046875,1.65686027296551,0.172083187237027
-2.23402403207729E-05,6.1363111854007E-06,1.23046875,1.66106741904062,0.172083187237027
-2.6138877728954E-05,-6.32494775345549E-05,1.23046875,1.66529097903583,0.172083187237027
-2.46478466578992E-05,-0.000100564378954004,1.23046875,1.6695307543579,0.172083187237027
-3.4755386877805E-05,-0.000161377785843797,1.23046875,1.67378654665795,0.172083187237027
-2.25273961405037E-05,-0.000140469725010917,1.23046875,1.67805815793018,0.172083187237027
-2.23999049921986E-05,-0.000165137884323485,1.23046875,1.68234539061623,0.172083187237027
-1.29830432342715E-05,-0.000141279961098917,1.23046875,1.68664804771521,0.172083187237027
-1.47444416143117E-05,-0.000129272593767382,1.23046875,1.69096593289841,0.172083187237027
-1.27000785141718E-05,-8.25008537503891E-05,1.23046875,1.69529885062715,0.172083187237027
-1.57174763444345E-05,-5.38257700100075E-05,1.23046875,1.69964660627152,0.172083187237027
-1.75822697201511E-05,-2.70467553491471E-05,1.23046875,1.70400900622782,0.172083187237027
-1.97789286175976E-05,-8.93109881872078E-06,1.23046875,1.70838585803187,0.172083187237027
-2.068385038001E-05,4.47249749413459E-06,1.23046875,1.71277697046693,0.172083187237027
-1.96946930373088E-05,1.77648980752565E-05,1.23046875,1.71718215366585,0.172083187237027
-2.15931522689061E-05,1.96913242689334E-05,1.23046875,1.72160121920817,0.172083187237027
-2.3472262910218E-05,2.5103294319706E-05,1.23046875,1.72603398021271,0.172083187237027
-2.77182807622012E-05,1.7109165128204E-05,1.23046875,1.73048025142608,0.172083187237027
-2.70747586910147E-05,1.74763881659601E-05,1.23046875,1.7349398493072,0.172083187237027
-2.74640296993311E-05,1.21282328109373E-05,1.23046875,1.73941259210794,0.172083187237027
-2.48005580942845E-05,2.20687052205903E-05,1.23046875,1.74389829994958,0.172083187237027
-2.38861630350584E-05,2.68072308244882E-05,1.23046875,1.74839679489505,0.172083187237027
-2.10135749512119E-05,3.9958624256542E-05,1.23046875,1.75290790101691,0.172083187237027
-2.1317593564163E-05,4.4856049498776E-05,1.23046875,1.75743144446101,0.172083187237027
-2.16036605706904E-05,5.28720302099828E-05,1.23046875,1.76196725350617,0.172083187237027
-2.32432194025023E-05,5.21183355886023E-05,1.23046875,1.76651515862016,0.172083187237027
-2.20878628169885E-05,5.49049145774916E-05,1.23046875,1.77107499251204,0.172083187237027
-2.07410848815925E-05,5.94922421441879E-05,1.23046875,1.77564659018092,0.172083187237027
-1.94340573216323E-05,6.160642078612E-05,1.23046875,1.78022978896106,0.172083187237027
-2.00378308363725E-05,4.64678014395759E-05,1.23046875,1.78482442856324,0.172083187237027
-1.89564198080916E-05,2.61081968346844E-05,1.23046875,1.78943035111234,0.172083187237027
-2.92326985800173E-05,4.58733993582428E-05,1.23046875,1.79404740118082,0.172083187237027
-2.44758903136244E-05,4.80472663184628E-05,1.23046875,1.79867542581777,0.172083187237027
-2.91796623059781E-05,5.12913284183014E-05,1.23046875,1.80331427457337,0.172083187237027
-2.6095010980498E-05,2.3206743207993E-05,1.23046875,1.80796379951913,0.172083187237027
-2.78429470199626E-05,-5.49311948816467E-07,1.23046875,1.81262385526419,0.172083187237027
-2.56946404988412E-05,-2.1322957763914E-05,1.23046875,1.81729429896807,0.172083187237027
-2.58367381320568E-05,-1.99982896447182E-05,1.23046875,1.82197499035005,0.172083187237027
-2.34498165809782E-05,-9.68666518019745E-06,1.23046875,1.8266657916958,0.172083187237027
-2.25618150579976E-05,4.89884496346349E-06,1.23046875,1.83136656786173,0.172083187237027
-2.27978580369381E-05,1.21055218187394E-05,1.23046875,1.8360771862769,0.172083187237027
-2.18455188587541E-05,8.36308754514903E-06,1.23046875,1.84079751694193,0.172083187237027
-2.0528115783236E-05,-3.30362945533125E-06,1.23046875,1.84552743242486,0.172083187237027
-1.69995546457358E-05,-1.55184679897502E-05,1.23046875,1.85026680785367,0.172083187237027
-1.69039540196536E-05,-6.97170389685198E-06,1.23046875,1.85501552090627,0.172083187237027
-1.76999928953592E-05,1.1357527000655E-05,1.23046875,1.85977345179811,0.172083187237027
-2.27414093387779E-05,1.90848641068442E-05,1.23046875,1.86454048326817,0.172083187237027
-2.51270612352528E-05,8.74059935540572E-07,1.23046875,1.86931650056285,0.172083187237027
-2.65709677478299E-05,-2.01924976863666E-05,1.23046875,1.87410139141765,0.172083187237027
-2.53013931796886E-05,-2.97286387649365E-05,1.23046875,1.87889504603662,0.172083187237027
-2.54132974077947E-05,-1.96097535081208E-05,1.23046875,1.88369735707034,0.172083187237027
-2.40912686422234E-05,-2.42036003328394E-06,1.23046875,1.88850821959272,0.172083187237027
-2.37295553233707E-05,1.57722824951634E-05,1.23046875,1.89332753107701,0.172083187237027
-2.28850949497428E-05,2.6170398996328E-05,1.23046875,1.89815519137043,0.172083187237027
-2.23512743104948E-05,3.01417076116195E-05,1.23046875,1.90299110266734,0.172083187237027
-2.16223015740979E-05,2.67286359303398E-05,1.23046875,1.90783516948081,0.172083187237027
-2.02998780878261E-05,2.16919124795822E-05,1.23046875,1.91268729861316,0.172083187237027
-1.67637062986614E-05,1.49964671436464E-05,1.23046875,1.91754739912544,0.172083187237027
-2.45725059357937E-05,2.03450017579598E-05,1.23046875,1.92241538230601,0.172083187237027
-1.98121397261275E-05,1.33906460177968E-05,1.23046875,1.92729116163814,0.172083187237027
-2.42142141360091E-05,1.5889025235083E-05,1.23046875,1.93217465276675,0.172083187237027
-2.13832445297157E-05,1.21437324196449E-05,1.23046875,1.93706577346391,0.172083187237027
-2.47230764216511E-05,1.47976552398177E-05,1.23046875,1.94196444359338,0.172083187237027
-2.36059022427071E-05,1.58153270604089E-05,1.23046875,1.94687058507402,0.172083187237027
-2.48924261541106E-05,1.9445113139227E-05,1.23046875,1.95178412184238,0.172083187237027
-2.59243151958799E-05,1.90405025932705E-05,1.23046875,1.95670497981463,0.172083187237027
-2.78738043562043E-05,1.79305570782162E-05,1.23046875,1.961633086848,0.172083187237027
-2.93301491183229E-05,1.91598173842067E-05,1.23046875,1.96656837270205,0.172083187237027
-3.01616546494188E-05,2.13177481782623E-05,1.23046875,1.97151076899995,0.172083187237027
-3.21322404488456E-05,2.50824614340672E-05,1.23046875,1.97646020918993,0.172083187237027
-3.14692188112531E-05,2.89161780528957E-05,1.23046875,1.98141662850729,0.172083187237027
-3.07025075017009E-05,3.70287780242506E-05,1.23046875,1.98637996393686,0.172083187237027
-2.75029797194293E-05,4.20973155996762E-05,1.23046875,1.9913501541764,0.172083187237027
-2.6949635866913E-05,4.48961000074632E-05,1.23046875,1.99632713960059,0.172083187237027
-2.61120385403046E-05,4.64914046460763E-05,1.23046875,2.00131086222574,0.172083187237027
-2.72912711807294E-05,5.33649617864285E-05,1.23046875,2.0063012656749,0.172083187237027
-2.54648748523323E-05,6.0218786529731E-05,1.23046875,2.01129829514328,0.172083187237027
-2.24549330596346E-05,6.44701940473169E-05,1.23046875,2.01630189736409,0.172083187237027
-1.81495179276681E-05,6.01723586441949E-05,1.23046875,2.02131202057482,0.172083187237027
-1.79343896888895E-05,4.73653526569251E-05,1.23046875,2.02632861448429,0.172083187237027
-1.93453433894319E-05,2.48786836891668E-05,1.23046875,2.03135163024085,0.172083187237027
-2.27311047638068E-05,-5.75304193262127E-06,1.23046875,2.03638102040153,0.172083187237027
-2.53577181865694E-05,-3.74772462237161E-05,1.23046875,2.04141673890229,0.172083187237027
-2.47126736212522E-05,-5.46236587979365E-05,1.23046875,2.04645874102931,0.172083187237027
-1.78336158569437E-05,-4.06721592298709E-05,1.23046875,2.05150698339156,0.172083187237027
-2.48276210186305E-05,-4.6784811274847E-05,1.23046875,2.05656142389495,0.172083187237027
-1.93125542864436E-05,-1.78575228346745E-05,1.23046875,2.06162202171807,0.172083187237027
-2.65306316578062E-05,-1.86323723028181E-05,1.23046875,2.06668873728942,0.172083187237027
-2.52433146670228E-05,5.99106169829611E-06,1.23046875,2.07176153226556,0.172083187237027
-2.85687801806489E-05,1.3478518667398E-05,1.23046875,2.07684036950943,0.172083187237027
-2.70868677034741E-05,2.42914666159777E-05,1.23046875,2.08192521306865,0.172083187237027
-2.86259255517507E-05,1.47831087815575E-05,1.23046875,2.08701602815348,0.172083187237027
-2.75904440059094E-05,5.67498864256777E-06,1.23046875,2.09211278111464,0.172083187237027
-2.75083475571591E-05,-1.75111836142605E-06,1.23046875,2.09721543942109,0.172083187237027
-2.66714250756195E-05,-2.06142726710823E-06,1.23046875,2.10232397163763,0.172083187237027
-2.48428605118534E-05,4.93362858833279E-06,1.23046875,2.10743834740231,0.172083187237027
-2.532828693802E-05,8.40849588712445E-06,1.23046875,2.11255853740351,0.172083187237027
-2.51887286140118E-05,1.33576068037655E-05,1.23046875,2.11768451335663,0.172083187237027
-2.64574773609638E-05,1.36001563078025E-05,1.23046875,2.12281624798039,0.172083187237027
-2.43775157287018E-05,2.10885064007016E-05,1.23046875,2.12795371497271,0.172083187237027
-2.50260509346845E-05,2.26326810661703E-05,1.23046875,2.13309688898641,0.172083187237027
-2.52025383815635E-05,2.71269564109389E-05,1.23046875,2.13824574560468,0.172083187237027
-2.66229872067925E-05,2.73468940577004E-05,1.23046875,2.14340026131659,0.172083187237027
-2.50098873948446E-05,3.23681015288457E-05,1.23046875,2.14856041349263,0.172083187237027
-2.44668444793206E-05,2.94775236397982E-05,1.23046875,2.15372618036037,0.172083187237027
-2.28239059651969E-05,2.51948040386196E-05,1.23046875,2.15889754098027,0.172083187237027
-2.3296312065213E-05,1.79415637830971E-05,1.23046875,2.16407447522156,0.172083187237027
-2.30155310418922E-05,1.24661428344552E-05,1.23046875,2.16925696373849,0.172083187237027
-2.27095515583642E-05,3.72882914234651E-06,1.23046875,2.17444498794668,0.172083187237027
-2.21142145164777E-05,-2.78801189779188E-06,1.23046875,2.17963852999964,0.172083187237027
-2.30393179663224E-05,-5.65226173421252E-06,1.23046875,2.18483757276546,0.172083187237027
-2.12468621612061E-05,-6.11988025411847E-06,1.23046875,2.19004209980386,0.172083187237027
-3.0967243219493E-05,-7.4613121796574E-06,1.23046875,2.19525209534355,0.172083187237027
-2.41654161072802E-05,-1.23676738894574E-06,1.23046875,2.20046754425992,0.172083187237027
-3.03750293824123E-05,4.48123637397657E-06,1.23046875,2.20568843205307,0.172083187237027
-2.66461029241327E-05,9.43555005505914E-06,1.23046875,2.21091474482615,0.172083187237027
-2.81907996395603E-05,4.17410228692461E-06,1.23046875,2.21614646926392,0.172083187237027
-2.4607908926555E-05,-1.11684596504347E-06,1.23046875,2.22138359261165,0.172083187237027
-2.36823070736136E-05,6.56619431538275E-06,1.23046875,2.22662610265393,0.172083187237027
-2.06365657504648E-05,2.37444801314268E-05,1.23046875,2.23187398769371,0.172083187237027
-1.92210791283287E-05,3.28861315210816E-05,1.23046875,2.23712723653128,0.172083187237027
-1.923004128912E-05,2.39189721469302E-05,1.23046875,2.24238583844379,0.172083187237027
-1.85763019544538E-05,1.55895450006938E-05,1.23046875,2.24764978316547,0.172083187237027
-1.9293142031529E-05,2.892863813031E-05,1.23046875,2.2529190608689,0.172083187237027
-1.85257558769081E-05,5.62010864086915E-05,1.23046875,2.25819366214705,0.172083187237027
-2.07057037187042E-05,6.74053517286666E-05,1.23046875,2.26347357799623,0.172083187237027
-2.02250812435523E-05,4.38998285972048E-05,1.23046875,2.26875879979984,0.172083187237027
-2.05996821023291E-05,-5.91957086726325E-06,1.23046875,2.27404931931299,0.172083187237027
-1.79179769475013E-05,-4.6682711399626E-05,1.23046875,2.2793451286479,0.172083187237027
-1.75072600541171E-05,-5.66218150197528E-05,1.23046875,2.28464622025983,0.172083187237027
-1.77397760126041E-05,-4.76800596516114E-05,1.23046875,2.28995258693385,0.172083187237027
-2.03353847609833E-05,-4.03517515223939E-05,1.23046875,2.2952642217727,0.172083187237027
-1.99858604901237E-05,-3.37514393322635E-05,1.23046875,2.30058111818605,0.172083187237027
-2.04604530154029E-05,-2.11800597753609E-05,1.23046875,2.30590326988051,0.172083187237027
-2.15062009374378E-05,-4.44148963651969E-06,1.23046875,2.31123067085001,0.172083187237027
-2.35232964769239E-05,1.1067319974245E-05,1.23046875,2.31656331536615,0.172083187237027
-2.37204585573636E-05,2.08129167731386E-05,1.23046875,2.32190119796844,0.172083187237027
-2.41698617173824E-05,2.14488445635652E-05,1.23046875,2.32724431345434,0.172083187237027
-1.89326001418522E-05,1.39635876621469E-05,1.23046875,2.33259265686964,0.172083187237027
-2.66299739450915E-05,1.73607768374495E-05,1.23046875,2.33794622349903,0.172083187237027
-1.99960195459425E-05,1.06846027847496E-05,1.23046875,2.3433050088569,0.172083187237027
-2.47855696215993E-05,1.58735638251528E-05,1.23046875,2.34866900867823,0.172083187237027
-2.08112342079403E-05,1.41104774229461E-05,1.23046875,2.35403821890944,0.172083187237027
-2.46894942392828E-05,1.92780080396915E-05,1.23046875,2.35941263569924,0.172083187237027
-2.45165047090268E-05,2.22498692892259E-05,1.23046875,2.36479225538945,0.172083187237027
-2.64313039224362E-05,2.79232044704258E-05,1.23046875,2.37017707450586,0.172083187237027
-2.51564179052366E-05,2.97422648145584E-05,1.23046875,2.37556708974931,0.172083187237027
-2.31971553148469E-05,2.97989154205425E-05,1.23046875,2.38096229798706,0.172083187237027
-2.05894120881567E-05,2.81384800473461E-05,1.23046875,2.38636269624469,0.172083187237027
-1.85985081770923E-05,2.42577280005207E-05,1.23046875,2.39176828169804,0.172083187237027
-2.03290001081768E-05,1.85602293640841E-05,1.23046875,2.39717905166537,0.172083187237027
-2.14013925869949E-05,9.46624822972808E-06,1.23046875,2.40259500359931,0.172083187237027
-2.425449747534E-05,6.24049971520435E-06,1.23046875,2.40801613507876,0.172083187237027
-2.44977527472656E-05,7.28637814972899E-06,1.23046875,2.41344244380052,0.172083187237027
-2.63300917140441E-05,8.38614232634427E-06,1.23046875,2.41887392757078,0.172083187237027
-2.53524467552779E-05,2.49524737228057E-06,1.23046875,2.42431058429651,0.172083187237027
-2.51044366450515E-05,2.98605732496071E-06,1.23046875,2.429752411977,0.172083187237027
-2.30519126489526E-05,1.41597884066869E-05,1.23046875,2.43519940869546,0.172083187237027
-2.30671430472285E-05,2.99806997645646E-05,1.23046875,2.44065157261081,0.172083187237027
-2.14049323403742E-05,3.67521024600137E-05,1.23046875,2.44610890194926,0.172083187237027
-2.04042917175684E-05,3.52718889189418E-05,1.23046875,2.45157139499581,0.172083187237027
-1.92233346751891E-05,2.79094365396304E-05,1.23046875,2.45703905008566,0.172083187237027
-2.04365915124072E-05,1.93701653188327E-05,1.23046875,2.46251186559581,0.172083187237027
-2.31151443585986E-05,6.64421850160579E-06,1.23046875,2.46798983993673,0.172083187237027
-2.46587842411827E-05,-6.69124119667686E-06,1.23046875,2.47347297154419,0.172083187237027
-1.93377327377675E-05,-1.12480029201834E-05,1.23046875,2.47896125887102,0.172083187237027
-2.62908106378745E-05,-2.44019174715504E-05,1.23046875,2.48445470037899,0.172083187237027
-1.93569303519325E-05,-1.87674904736923E-05,1.23046875,2.48995329453084,0.172083187237027
-2.66051720245741E-05,2.07935991056729E-05,1.23046875,2.49545703978256,0.172083187237027
-2.55135200859513E-05,9.10923990886658E-05,1.23046875,2.50096593457593,0.172083187237027
-3.05361463688314E-05,0.000151521744555794,1.23046875,2.50647997733136,0.172083187237027
-2.86053655145224E-05,0.000191296639968641,1.23046875,2.51199916644179,0.172083187237027
-2.86906815745169E-05,0.000200844689970836,1.23046875,2.51752350026848,0.172083187237027
-2.6137255190406E-05,0.000168236205354333,1.23046875,2.52305297713956,0.172083187237027
-2.37404074141523E-05,8.52247321745381E-05,1.23046875,2.52858759535147,0.172083187237027
-2.21789705392439E-05,-1.66717254614923E-05,1.23046875,2.53412735317253,0.172083187237027
-2.10969628824387E-05,-9.44019775488414E-05,1.23046875,2.53967224884755,0.172083187237027
-2.24322011490585E-05,-0.000134175148559734,1.23046875,2.54522228060306,0.172083187237027
-2.15108830161626E-05,-0.0001487779954914,1.23046875,2.55077744665396,0.172083187237027
-2.20182791963452E-05,-0.000156778041855432,1.23046875,2.5563377452124,0.172083187237027
-2.06594741030131E-05,-0.000160924755618908,1.23046875,2.56190317449927,0.172083187237027
-2.20649144466734E-05,-0.000151247731992044,1.23046875,2.56747373275825,0.172083187237027
-2.20707097469131E-05,-0.000117325223982334,1.23046875,2.57304941827193,0.172083187237027
-2.48517317231745E-05,-7.56540030124597E-05,1.23046875,2.57863022937952,0.172083187237027
-2.56837120105047E-05,-4.24953759647906E-05,1.23046875,2.58421616449542,0.172083187237027
-2.737068280112E-05,-2.61808600043878E-05,1.23046875,2.58980722212754,0.172083187237027
-2.68597923422931E-05,-2.2511963834404E-05,1.23046875,2.59540340089477,0.172083187237027
-2.60077831626404E-05,-1.42195649459609E-05,1.23046875,2.6010046995433,0.172083187237027
-2.34180188272148E-05,6.61443073113333E-06,1.23046875,2.6066111169617,0.172083187237027
-2.14857773244148E-05,2.31605408771429E-05,1.23046875,2.61222265219511,0.172083187237027
-2.04093648790149E-05,2.74044505204074E-05,1.23046875,2.61783930445845,0.172083187237027
-2.19723497139057E-05,2.40676581597654E-05,1.23046875,2.62346107314927,0.172083187237027
-2.02998926397413E-05,1.7220374502358E-05,1.23046875,2.62908795786037,0.172083187237027
-2.88177998299943E-05,2.6490099116927E-05,1.23046875,2.63471995839223,0.172083187237027
-2.0727780793095E-05,2.31019221246243E-05,1.23046875,2.6403570747653,0.172083187237027
-2.5449669919908E-05,2.90963307634229E-05,1.23046875,2.64599930723166,0.172083187237027
-2.18784662138205E-05,2.91754658974241E-05,1.23046875,2.65164665628619,0.172083187237027
-2.48384440055816E-05,3.86816609534435E-05,1.23046875,2.65729912267708,0.172083187237027
-2.26136380661046E-05,4.09938766097184E-05,1.23046875,2.66295670741577,0.172083187237027
-2.22866729018278E-05,3.98033262172248E-05,1.23046875,2.66861941178633,0.172083187237027
-1.96190339920577E-05,3.50786503986456E-05,1.23046875,2.6742872373543,0.172083187237027
-1.89844013220863E-05,3.50623922713567E-05,1.23046875,2.67996018597518,0.172083187237027
-2.22440939978696E-05,3.88459993700963E-05,1.23046875,2.6856382598025,0.172083187237027
-2.54349833994638E-05,4.76009045087267E-05,1.23046875,2.69132146129566,0.172083187237027
-2.93888606393011E-05,7.03867262927815E-05,1.23046875,2.69700979322738,0.172083187237027
-3.05029680021107E-05,9.87185994745232E-05,1.23046875,2.70270325869084,0.172083187237027
-3.20741310133599E-05,0.000114965179818682,1.23046875,2.70840186110689,0.172083187237027
-2.95944046229124E-05,0.000105097358755302,1.23046875,2.71410560423195,0.172083187237027
-2.84316956822295E-05,8.24445232865401E-05,1.23046875,2.71981449216685,0.172083187237027
-2.60605174844386E-05,6.06271605647635E-05,1.23046875,2.72552852936657,0.172083187237027
-2.51469136856031E-05,4.96096799906809E-05,1.23046875,2.73124772065023,0.172083187237027
-2.0808023691643E-05,3.6016743251821E-05,1.23046875,2.7369720712107,0.172083187237027
-1.8112979887519E-05,1.16517094284063E-05,1.23046875,2.74270158662335,0.172083187237027
-1.81427458301187E-05,-2.22327144001611E-05,1.23046875,2.748436272854,0.172083187237027
-2.32594920817064E-05,-5.55462283955421E-05,1.23046875,2.75417613626687,0.172083187237027
-2.80783278867602E-05,-8.62717133713886E-05,1.23046875,2.7599211836329,0.172083187237027
-2.9762150006718E-05,-0.00010334331454942,1.23046875,2.76567142213893,0.172083187237027
-2.70893342531053E-05,-9.69484026427381E-05,1.23046875,2.771426859398,0.172083187237027
-2.27557884500129E-05,-7.10349559085444E-05,1.23046875,2.77718750346104,0.172083187237027
-1.45802414408536E-05,-3.68731489288621E-05,1.23046875,2.78295336282978,0.172083187237027
-1.96446344489232E-05,-5.37277228431776E-05,1.23046875,2.78872444647074,0.172083187237027
-1.50202949953382E-05,-4.22875891672447E-05,1.23046875,2.79450076382969,0.172083187237027
-2.09087047551293E-05,-3.88223488698713E-05,1.23046875,2.80028232484653,0.172083187237027
-1.93796586245298E-05,-2.0855595721514E-06,1.23046875,2.80606913997026,0.172083187237027
-2.35351108130999E-05,1.54880126501666E-05,1.23046875,2.81186122017368,0.172083187237027
-2.31693338719197E-05,2.98553641187027E-05,1.23046875,2.81765857696741,0.172083187237027
-2.4641702111694E-05,2.63618039753055E-05,1.23046875,2.82346122241306,0.172083187237027
-2.4708810087759E-05,2.42296464421088E-05,1.23046875,2.82926916913557,0.172083187237027
-2.47712014243007E-05,2.08536075660959E-05,1.23046875,2.83508243033496,0.172083187237027
-2.42489386437228E-05,2.06553559110034E-05,1.23046875,2.84090101979753,0.172083187237027
-2.27048421947984E-05,2.40436984313419E-05,1.23046875,2.84672495190644,0.172083187237027
-2.27742693823529E-05,2.43148679146543E-05,1.23046875,2.85255424165151,0.172083187237027
-2.19953417399665E-05,2.59806092799408E-05,1.23046875,2.85838890463816,0.172083187237027
-2.29733650485286E-05,2.33813225349877E-05,1.23046875,2.86422895709548,0.172083187237027
-2.21790214709472E-05,2.5428624212509E-05,1.23046875,2.87007441588331,0.172083187237027
-2.33475948334672E-05,2.41555717366282E-05,1.23046875,2.87592529849834,0.172083187237027
-2.42467995121842E-05,2.85190271824831E-05,1.23046875,2.8817816230793,0.172083187237027
-2.71833705483004E-05,2.86278045678046E-05,1.23046875,2.88764340841101,0.172083187237027
-2.6893399990513E-05,3.28910500684287E-05,1.23046875,2.89351067392767,0.172083187237027
-2.56166804319946E-05,3.55059237335809E-05,1.23046875,2.89938343971533,0.172083187237027
-2.38713328144513E-05,3.96842042391654E-05,1.23046875,2.9052617265138,0.172083187237027
-2.44443290284835E-05,3.71123496734072E-05,1.23046875,1.27190787481865,0.172329724754558
-2.40285044128541E-05,3.34605101670604E-05,1.23046875,1.27191333556941,0.172329724754558
-2.25968524318887E-05,2.9853765227017E-05,1.23046875,1.27192427650511,0.172329724754558
-2.19661724258913E-05,3.14028075081296E-05,1.23046875,1.27194071771181,0.172329724754558
-2.4054124878603E-05,3.60673438990489E-05,1.23046875,1.27196267992937,0.172329724754558
-2.08280016522622E-05,3.15245924866758E-05,1.23046875,1.27199018455291,0.172329724754558
-2.93468874588143E-05,3.96288742194884E-05,1.23046875,1.27202325363378,0.172329724754558
-2.21824866457609E-05,1.86307515832596E-05,1.23046875,1.2720619098802,0.172329724754558
-2.76681876130169E-05,2.04681200557388E-05,1.23046875,1.27210617665795,0.172329724754558
-2.48484793701209E-05,9.09306618268602E-06,1.23046875,1.27215607799097,0.172329724754558
-3.08872367895674E-05,1.35073878482217E-05,1.23046875,1.27221163856196,0.172329724754558
-2.95126355922548E-05,1.33462826852337E-05,1.23046875,1.27227288371282,0.172329724754558
-2.84783163806424E-05,2.0087956727366E-05,1.23046875,1.27233983944519,0.172329724754558
-2.44434631895274E-05,1.88092835742282E-05,1.23046875,1.27241253242108,0.172329724754558
-2.26603497139877E-05,1.3365400263865E-05,1.23046875,1.27249098996367,0.172329724754558
-2.2245218133321E-05,8.00679913481872E-07,1.23046875,1.27257524005801,0.172329724754558
-1.99346413864987E-05,-1.93387404578971E-05,1.23046875,1.27266531135124,0.172329724754558
-1.89928341569612E-05,-2.80393669527257E-05,1.23046875,1.27276123315182,0.172329724754558
-1.8545728380559E-05,-1.74669294210617E-05,1.23046875,1.27286303542756,0.172329724754558
-2.21132613660302E-05,9.3731523520546E-06,1.23046875,1.27297074880226,0.172329724754558
-2.23826300498331E-05,2.43328922806541E-05,1.23046875,1.27308440455107,0.172329724754558
-2.35850056924392E-05,2.68705825874349E-05,1.23046875,1.27320403459491,0.172329724754558
-2.264811337227E-05,1.90856262634043E-05,1.23046875,1.27332967149446,0.172329724754558
-2.39854343817569E-05,1.82789062819211E-05,1.23046875,1.27346134844403,0.172329724754558
-2.2637354049948E-05,1.85307253559586E-05,1.23046875,1.27359909926561,0.172329724754558
-2.28249282372417E-05,2.08602650673129E-05,1.23046875,1.27374295840278,0.172329724754558
-2.21626432903577E-05,1.84220098162768E-05,1.23046875,1.27389296091453,0.172329724754558
-2.33899845625274E-05,1.81827072083252E-05,1.23046875,1.27404914246876,0.172329724754558
-2.46582767431391E-05,1.83944812306436E-05,1.23046875,1.2742115393356,0.172329724754558
-2.69427782768616E-05,1.91512990568299E-05,1.23046875,1.2743801883803,0.172329724754558
-2.74194444500608E-05,1.79259550350253E-05,1.23046875,1.27455512705598,0.172329724754558
-2.69696429313626E-05,1.76205121533712E-05,1.23046875,1.27473639339617,0.172329724754558
-2.21990558202378E-05,1.23055597214261E-05,1.23046875,1.27492402600742,0.172329724754558
-3.16668301820755E-05,1.53928194777109E-05,1.23046875,1.27511806406163,0.172329724754558
-2.42396163230296E-05,9.57391421252396E-06,1.23046875,1.27531854728817,0.172329724754558
-2.99441271636169E-05,1.25448541439255E-05,1.23046875,1.27552551596546,0.172329724754558
-2.45182291109813E-05,8.81589585333131E-06,1.23046875,1.275739010912,0.172329724754558
-2.56774983427022E-05,9.14033535082126E-06,1.23046875,1.2759590734769,0.172329724754558
-2.204586417065E-05,6.25340044280165E-06,1.23046875,1.27618574552957,0.172329724754558
-2.27521159104072E-05,6.91799914420699E-06,1.23046875,1.27641906944838,0.172329724754558
-2.13837811315898E-05,1.29391128211864E-05,1.23046875,1.27665908810817,0.172329724754558
-2.14217816392193E-05,2.8217338694958E-05,1.23046875,1.27690584486649,0.172329724754558
-2.28854096349096E-05,4.58526374131907E-05,1.23046875,1.2771593835488,0.172329724754558
-2.31969770538853E-05,5.67057904845569E-05,1.23046875,1.27741974843292,0.172329724754558
-2.35543502640212E-05,6.72989772283472E-05,1.23046875,1.27768698423296,0.172329724754558
-2.19016856135568E-05,8.97127538337372E-05,1.23046875,1.27796113608312,0.172329724754558
-2.43710146605736E-05,0.000124672194942832,1.23046875,1.27824224952149,0.172329724754558
-2.54516526183579E-05,0.000151815445860848,1.23046875,1.27853037047446,0.172329724754558
-2.72686065727612E-05,0.000164604032761417,1.23046875,1.27882554524206,0.172329724754558
-2.44534567173105E-05,0.00015454507956747,1.23046875,1.2791278204851,0.172329724754558
-2.32506954489509E-05,0.000113531408715062,1.23046875,1.27943724321444,0.172329724754558
-2.09011341212317E-05,3.73349867004436E-05,1.23046875,1.27975386078207,0.172329724754558
-2.20154506678227E-05,-4.94354826514609E-05,1.23046875,1.28007772087323,0.172329724754558
-2.33268074225634E-05,-0.000120589371363167,1.23046875,1.28040887149861,0.172329724754558
-2.47940752160503E-05,-0.000163278673426248,1.23046875,1.28074736098735,0.172329724754558
-2.32083511946257E-05,-0.000181075258296914,1.23046875,1.28109323798213,0.172329724754558
-2.18156365008326E-05,-0.000183281532372348,1.23046875,1.28144655143794,0.172329724754558
-2.04593434318667E-05,-0.000182835850864649,1.23046875,1.28180735062537,0.172329724754558
-2.01425227714935E-05,-0.000177580892341211,1.23046875,1.2821756851382,0.172329724754558
-1.62310097948648E-05,-0.000106415136542637,1.23046875,1.28255160490515,0.172329724754558
-2.35254010476638E-05,-0.000103727223176975,1.23046875,1.28293516020471,0.172329724754558
-1.99875612452161E-05,-9.88293322734535E-06,1.23046875,1.28332640168189,0.172329724754558
-2.63290239672642E-05,-1.97855515580159E-05,1.23046875,1.28372538036499,0.172329724754558
-2.36548876273446E-05,2.3546848751721E-05,1.23046875,1.28413214768142,0.172329724754558
-2.54927326750476E-05,1.29723457575892E-05,1.23046875,1.28454675547221,0.172329724754558
-2.36842170124874E-05,3.25898945447989E-05,1.23046875,1.28496925600584,0.172329724754558
-2.53105954470811E-05,2.48462329182075E-05,1.23046875,1.28539970199188,0.172329724754558
-2.5470057153143E-05,3.14728240482509E-05,1.23046875,1.28583814659455,0.172329724754558
-2.54103215411305E-05,3.65799169230741E-05,1.23046875,1.2862846434463,0.172329724754558
-2.57288611464901E-05,4.05994687753264E-05,1.23046875,1.28673924666115,0.172329724754558
-2.64284954027971E-05,4.23472993134055E-05,1.23046875,1.28720201084805,0.172329724754558
-2.87983948510373E-05,3.12775300699286E-05,1.23046875,1.28767299112396,0.172329724754558
-2.79614232567837E-05,4.20105352532119E-05,1.23046875,1.28815224312671,0.172329724754558
-2.72092402155977E-05,5.08310513396282E-05,1.23046875,1.28863982302758,0.172329724754558
-2.46728959609754E-05,5.34330938535277E-05,1.23046875,1.28913578754329,0.172329724754558
-2.4893775844248E-05,-3.15819488605484E-06,1.23046875,1.28964019394743,0.172329724754558
-2.35386141866911E-05,-5.34853679710068E-05,1.23046875,1.29015310008088,0.172329724754558
-2.16656935663195E-05,-7.08727093297057E-05,1.23046875,1.2906745643607,0.172329724754558
-1.69459144672146E-05,-3.27929737977684E-05,1.23046875,1.29120464578747,0.172329724754558
-1.46223010233371E-05,-1.52994653035421E-06,1.23046875,1.29174340395151,0.172329724754558
-1.4078608728596E-05,1.87384139280766E-05,1.23046875,1.29229089903834,0.172329724754558
-1.69852010003524E-05,9.41330017667497E-06,1.23046875,1.29284719183327,0.172329724754558
-2.01350449060556E-05,-3.0128014714137E-06,1.23046875,1.2934123437248,0.172329724754558
-2.25092080654576E-05,-7.70912629377563E-06,1.23046875,1.29398641670671,0.172329724754558
-2.3783637516317E-05,6.79539016346098E-06,1.23046875,1.29456947337814,0.172329724754558
-2.44347320403904E-05,1.99119749595411E-05,1.23046875,1.29516157694109,0.172329724754558
-1.96161599888001E-05,1.90276241482934E-05,1.23046875,1.29576279119532,0.172329724754558
-2.70655364147387E-05,2.6010025976575E-05,1.23046875,1.2963731805308,0.172329724754558
-1.95989941857988E-05,1.65933433891041E-05,1.23046875,1.29699280991808,0.172329724754558
-2.53780872299103E-05,2.31234971579397E-05,1.23046875,1.29762174489675,0.172329724754558
-2.32418333325768E-05,2.03578201762866E-05,1.23046875,1.29826005156185,0.172329724754558
-2.88592091237661E-05,2.918563404819E-05,1.23046875,1.29890779654829,0.172329724754558
-2.87547027255641E-05,3.20832405122928E-05,1.23046875,1.29956504701328,0.172329724754558
-3.07975788018666E-05,3.79194716515485E-05,1.23046875,1.30023187061717,0.172329724754558
-3.10168506985065E-05,3.78533695766237E-05,1.23046875,1.30090833550296,0.172329724754558
-2.98386476060841E-05,3.73139337170869E-05,1.23046875,1.30159451027471,0.172329724754558
-2.73127516265959E-05,3.61195052391849E-05,1.23046875,1.30229046397516,0.172329724754558
-2.48942087637261E-05,3.28889291267842E-05,1.23046875,1.302996266062,0.172329724754558
-2.58296549873194E-05,2.87128259515157E-05,1.23046875,1.3037119863827,0.172329724754558
-2.55053400906036E-05,2.33892078540521E-05,1.23046875,1.30443769514742,0.172329724754558
-2.62919766100822E-05,2.35524094023276E-05,1.23046875,1.30517346289944,0.172329724754558
-2.43956783378962E-05,2.42197365878383E-05,1.23046875,1.30591936048329,0.172329724754558
-2.438910996716E-05,2.76696991932113E-05,1.23046875,1.30667545901029,0.172329724754558
-2.22940543608274E-05,2.8868706067442E-05,1.23046875,1.3074418298218,0.172329724754558
-2.19620233110618E-05,3.25459550367668E-05,1.23046875,1.30821854445031,0.172329724754558
-2.02182163775433E-05,3.35118711518589E-05,1.23046875,1.30900567457839,0.172329724754558
-2.12859777093399E-05,3.42220373568125E-05,1.23046875,1.30980329199593,0.172329724754558
-2.16617318073986E-05,3.15666657115798E-05,1.23046875,1.31061146855557,0.172329724754558
-2.29070283239707E-05,3.30440707330126E-05,1.23046875,1.3114302761266,0.172329724754558
-2.31113717745757E-05,3.93228910979815E-05,1.23046875,1.31225978654725,0.172329724754558
-2.32161601161351E-05,5.25003051734529E-05,1.23046875,1.31310007157534,0.172329724754558
-2.36174655583454E-05,6.56101619824767E-05,1.23046875,1.31395120283727,0.172329724754558
-2.57476913247956E-05,7.33873748686165E-05,1.23046875,1.31481325177582,0.172329724754558
-2.11046535696369E-05,6.00752427999396E-05,1.23046875,1.31568628959688,0.172329724754558
-2.88099381577922E-05,8.39225976960734E-05,1.23046875,1.31657038721572,0.172329724754558
-2.05112664843909E-05,5.45167276868597E-05,1.23046875,1.3174656152027,0.172329724754558
-2.61633103946224E-05,5.48207099200226E-05,1.23046875,1.31837204372858,0.172329724754558
-2.15724794543348E-05,2.94455530820414E-05,1.23046875,1.31928974250909,0.172329724754558
-2.48392261710251E-05,3.00973460980458E-05,1.23046875,1.32021878074888,0.172329724754558
-2.40300705627305E-05,1.14539252535906E-05,1.23046875,1.32115922708495,0.172329724754558
-2.7404543288867E-05,-6.98734675097512E-06,1.23046875,1.32211114952998,0.172329724754558
-2.8258384190849E-05,-3.83227743441239E-05,1.23046875,1.32307461541648,0.172329724754558
-2.79849282378564E-05,-6.42403101664968E-05,1.23046875,1.32404969134237,0.172329724754558
-2.53239486482926E-05,-7.68403770052828E-05,1.23046875,1.32503644311924,0.172329724754558
-2.04236530407798E-05,-7.82322531449609E-05,1.23046875,1.32603493572429,0.172329724754558
-1.82140302058542E-05,-6.83690013829619E-05,1.23046875,1.32704523325642,0.172329724754558
-1.66261252161348E-05,-6.32540541118942E-05,1.23046875,1.32806739889674,0.172329724754558
-1.93189480341971E-05,-4.91350765514653E-05,1.23046875,1.32910149487295,0.172329724754558
-1.96551372937392E-05,-3.48504108842462E-05,1.23046875,1.33014758242718,0.172329724754558
-2.15457839658484E-05,-1.11917661342886E-05,1.23046875,1.33120572178612,0.172329724754558
-2.08648598345462E-05,1.87768506521024E-07,1.23046875,1.33227597213241,0.172329724754558
-2.20392867049668E-05,8.2009173638653E-06,1.23046875,1.33335839157597,0.172329724754558
-2.10853650060017E-05,5.36535708306474E-06,1.23046875,1.33445303712475,0.172329724754558
-2.25818548642565E-05,7.74411000747932E-06,1.23046875,1.33555996465494,0.172329724754558
-2.3096863515093E-05,8.87443911778973E-06,1.23046875,1.33667922888074,0.172329724754558
-2.35867264564149E-05,1.52932952914853E-05,1.23046875,1.33781088332389,0.172329724754558
-2.28958651860012E-05,1.74597444129176E-05,1.23046875,1.33895498028307,0.172329724754558
-2.38219327002298E-05,1.82007388502825E-05,1.23046875,1.34011157080345,0.172329724754558
-2.50213561230339E-05,1.70480379892979E-05,1.23046875,1.34128070464642,0.172329724754558
-2.58505060628522E-05,1.63094664458185E-05,1.23046875,1.34246243025984,0.172329724754558
-2.02999763132539E-05,1.19820515465108E-05,1.23046875,1.34365679474884,0.172329724754558
-2.86892063741107E-05,1.63054992299294E-05,1.23046875,1.34486384384698,0.172329724754558
-2.17969100049231E-05,1.27701059682295E-05,1.23046875,1.34608362188783,0.172329724754558
-2.68289168161573E-05,1.58417715283576E-05,1.23046875,1.34731617177675,0.172329724754558
-2.24126088141929E-05,1.34218535094988E-05,1.23046875,1.34856153496301,0.172329724754558
-2.57729207078228E-05,1.83634838322178E-05,1.23046875,1.34981975141207,0.172329724754558
-2.28243334277067E-05,2.41770467255265E-05,1.23046875,1.35109085957826,0.172329724754558
-2.26956290134694E-05,2.92126551357796E-05,1.23046875,1.35237489637767,0.172329724754558
-2.24551840801723E-05,2.74040012300247E-05,1.23046875,1.35367189716157,0.172329724754558
-2.31182948482456E-05,2.2033729692339E-05,1.23046875,1.35498189569036,0.172329724754558
-2.40989738813369E-05,1.53544187924126E-05,1.23046875,1.35630492410825,0.172329724754558
-2.47913121711463E-05,7.28940813132795E-06,1.23046875,1.35764101291851,0.172329724754558
-2.62622761511011E-05,4.47412958237692E-06,1.23046875,1.35899019095889,0.172329724754558
-2.36400428548222E-05,6.32488217888749E-06,1.23046875,1.36035248537721,0.172329724754558
-2.1663157895091E-05,1.30030402942793E-05,1.23046875,1.36172792160692,0.172329724754558
-1.88115373020992E-05,2.04287571250461E-05,1.23046875,1.36311652334274,0.172329724754558
-2.11145452340133E-05,2.72286852123216E-05,1.23046875,1.36451831251651,0.172329724754558
-2.29730831051711E-05,2.83673634839943E-05,1.23046875,1.36593330927348,0.172329724754558
-2.64810441876762E-05,3.09455281239934E-05,1.23046875,1.36736153194964,0.172329724754558
-2.70087130047614E-05,3.20780200127047E-05,1.23046875,1.36880299704997,0.172329724754558
-2.80290678347228E-05,2.39970850088866E-05,1.23046875,1.37025771922804,0.172329724754558
-2.74260164587758E-05,5.10045038026874E-06,1.23046875,1.37172571126676,0.172329724754558
-2.80510885204421E-05,-1.10492119347327E-05,1.23046875,1.3732069840604,0.172329724754558
-2.83960544038564E-05,-1.28376968859811E-05,1.23046875,1.37470154659773,0.172329724754558
-2.85024307231652E-05,6.43871362626669E-06,1.23046875,1.37620940594668,0.172329724754558
-2.73273781203898E-05,3.78831391572021E-05,1.23046875,1.37773056724065,0.172329724754558
-2.67412651737686E-05,5.35190956725273E-05,1.23046875,1.37926503366642,0.172329724754558
-2.13872335734777E-05,3.30041184497532E-05,1.23046875,1.38081280645346,0.172329724754558
-2.98434497381095E-05,4.26455480919685E-05,1.23046875,1.38237388486475,0.172329724754558
-2.08861638384406E-05,3.30452458001673E-05,1.40625,1.38394826618937,0.172329724754558
-2.50975699600531E-05,4.09080494137015E-05,1.40625,1.38553594573661,0.172329724754558
-2.10180005524307E-05,1.35410764414701E-05,1.40625,1.38713691683109,0.172329724754558
-2.34455437748693E-05,-5.54791904505691E-06,1.40625,1.38875117080913,0.172329724754558
-2.01236762222834E-05,-3.11168369080406E-05,1.40625,1.39037869701618,0.172329724754558
-2.1845766241313E-05,-4.39741816080641E-05,1.40625,1.39201948280599,0.172329724754558
-2.18834338738816E-05,-5.66278176847845E-05,1.40625,1.39367351354241,0.172329724754558
-2.15382060559932E-05,-5.71942291571759E-05,1.40625,1.39534077260459,0.172329724754558
-2.08398905670037E-05,-3.98881347791757E-05,1.40625,1.39702124139602,0.172329724754558
-1.96086493815528E-05,-9.30655369302258E-06,1.40625,1.39871489935714,0.172329724754558
-1.98865327547537E-05,2.28382377827074E-05,1.40625,1.40042172398096,0.172329724754558
-1.89427009900101E-05,3.3611839171499E-05,1.40625,1.40214169083046,0.172329724754558
-2.12039176403778E-05,3.14872086164542E-05,1.40625,1.40387477355739,0.172329724754558
-2.15163818211295E-05,3.14631470246241E-05,1.40625,1.4056209439223,0.172329724754558
-2.35467596212402E-05,6.19335187366232E-05,1.40625,1.40738017181627,0.172329724754558
-2.22715880227042E-05,0.000105105456896126,1.40625,1.40915242528426,0.172329724754558
-2.29334309551632E-05,0.000147381913848221,1.40625,1.41093767055048,0.172329724754558
-2.23409988393541E-05,0.000176677669514902,1.40625,1.41273587204678,0.172329724754558
-2.40342251345282E-05,0.000199151763808914,1.40625,1.41454699244581,0.172329724754558
-2.4923647288233E-05,0.000190969934919849,1.40625,1.41637099269991,0.172329724754558
-2.71763328782981E-05,0.000137238559545949,1.40625,1.4182078320863,0.172329724754558
-2.70323889708379E-05,4.52950516773853E-05,1.40625,1.42005746825785,0.172329724754558
-2.67265550064621E-05,-4.70546874566935E-05,1.40625,1.42191985729771,0.172329724754558
-2.58714262599824E-05,-0.000120410557428841,1.40625,1.42379495377607,0.172329724754558
-2.50393786700442E-05,-0.000170086248544976,1.40625,1.4256827108096,0.172329724754558
-2.01651309907902E-05,-0.000161251256940886,1.40625,1.42758308012583,0.172329724754558
-2.92825443466427E-05,-0.000232083169976249,1.40625,1.42949601213439,0.172329724754558
-2.34302460739855E-05,-0.000164715806022286,1.40625,1.43142145600607,0.172329724754558
-3.01845775538823E-05,-0.000173733409610577,1.40625,1.43335935975895,0.172329724754558
-2.63702277152333E-05,-9.21900136745535E-05,1.40625,1.43530967035069,0.172329724754558
-2.66950210061623E-05,-6.49714711471461E-05,1.40625,1.4372723337746,0.172329724754558
-2.33548471442191E-05,-9.39199071581243E-06,1.40625,1.43924729515643,0.172329724754558
-2.48843261942966E-05,3.29463591697277E-06,1.40625,1.44123449884906,0.172329724754558
-2.39504388446221E-05,2.18366985791363E-05,1.40625,1.4432338885231,0.172329724754558
-2.21756254177308E-05,2.83719455183018E-05,1.40625,1.44524540725371,0.172329724754558
-2.13385810639011E-05,2.36982687056297E-05,1.40625,1.44726899760446,0.172329724754558
-2.17115975829074E-05,5.86252372158924E-06,1.40625,1.44930460170875,0.172329724754558
-2.40513927565189E-05,-3.24872053170111E-05,1.40625,1.45135216134896,0.172329724754558
-2.27717264351668E-05,-3.34411597577855E-05,1.40625,1.4534116180327,0.172329724754558
-2.07379835046595E-05,-1.95643497136189E-05,1.40625,1.45548291306503,0.172329724754558
-1.68008955370169E-05,1.68430451594759E-05,1.40625,1.45756598761605,0.172329724754558
-1.78329755726736E-05,1.97990357264644E-05,1.40625,1.459660782784,0.172329724754558
-1.86821052921005E-05,2.65836970356759E-05,1.40625,1.46176723965486,0.172329724754558
-2.07289431273239E-05,1.52553793668631E-05,1.40625,1.4638852993598,0.172329724754558
-1.998056541197E-05,2.01003094844054E-05,1.40625,1.46601490313064,0.172329724754558
-2.10252292163204E-05,1.41609998536296E-05,1.40625,1.46815599235333,0.172329724754558
-2.15355194086442E-05,2.22593171201879E-05,1.40625,1.47030850861882,0.172329724754558
-2.33787686738651E-05,2.33789687626995E-05,1.40625,1.47247239377113,0.172329724754558
-2.44637685682392E-05,3.05211651721038E-05,1.40625,1.47464758995258,0.172329724754558
-2.53972502832767E-05,3.09354618366342E-05,1.40625,1.47683403964623,0.172329724754558
-2.47420284722466E-05,3.35764307237696E-05,1.40625,1.47903168571588,0.172329724754558
-2.48728192673298E-05,3.49314141203649E-05,1.40625,1.48124047144376,0.172329724754558
-2.02917635760969E-05,2.914983087976E-05,1.40625,1.48346034056612,0.172329724754558
-2.75123820756562E-05,4.23207711719442E-05,1.40625,1.4856912373064,0.172329724754558
-1.93146188394167E-05,2.97987080557505E-05,1.40625,1.48793310640606,0.172329724754558
-2.48386695602676E-05,3.7449204683071E-05,1.40625,1.49018589315272,0.172329724754558
-2.09612517210189E-05,3.21373954648152E-05,1.40625,1.49244954340578,0.172329724754558
-2.54425031016581E-05,4.44132529082708E-05,1.40625,1.49472400361928,0.172329724754558
-2.57758820225718E-05,4.94344276376069E-05,1.40625,1.49700922086211,0.172329724754558
-2.81807515420951E-05,5.68375035072677E-05,1.40625,1.49930514283579,0.172329724754558
-2.73014484264422E-05,5.61455635761376E-05,1.40625,1.50161171789021,0.172329724754558
-2.60017804976087E-05,5.92702781432308E-05,1.40625,1.50392889503787,0.172329724754558
-2.40860226767836E-05,7.22900949767791E-05,1.40625,1.50625662396662,0.172329724754558
-2.18441655306378E-05,9.26096181501634E-05,1.40625,1.50859485505116,0.172329724754558
-2.25366766244406E-05,0.000111195739009418,1.40625,1.51094353936301,0.172329724754558
-2.26294941967353E-05,0.000114512389700394,1.40625,1.51330262867959,0.172329724754558
-2.57397023233352E-05,0.000105908446130343,1.40625,1.51567207549267,0.172329724754558
-2.60991164395818E-05,8.56463011587039E-05,1.40625,1.5180518330166,0.172329724754558
-2.6802812499227E-05,6.75893024890684E-05,1.40625,1.52044185519588,0.172329724754558
-2.42704318225151E-05,4.61369345430285E-05,1.40625,1.52284209671166,0.172329724754558
-2.66417864622781E-05,2.63361725956202E-05,1.40625,1.52525251298639,0.172329724754558
-3.15202087222133E-05,-3.08231051349139E-06,1.40625,1.52767306018701,0.172329724754558
-3.76370589947328E-05,-4.9173799197888E-05,1.40625,1.53010369522704,0.172329724754558
-3.58178367605433E-05,-0.000108405845821835,1.40625,1.53254437576942,0.172329724754558
-2.94609526463319E-05,-0.000140478761750273,1.40625,1.5349950602316,0.172329724754558
-2.28256685659289E-05,-0.000134666042868048,1.40625,1.53745570779487,0.172329724754558
-1.98419111256953E-05,-0.000107302104879636,1.40625,1.5399262784186,0.172329724754558
-1.93028408830287E-05,-8.57030099723488E-05,1.40625,1.54240673285923,0.172329724754558
-2.07475804927526E-05,-7.24374040146358E-05,1.40625,1.54489703269297,0.172329724754558
-1.82617641257821E-05,-3.84263876185287E-05,1.40625,1.54739714034078,0.172329724754558
-2.64384343608981E-05,-2.9956487196614E-05,1.40625,1.54990701909398,0.172329724754558
-2.01660750462906E-05,1.13316446004319E-05,1.40625,1.55242663313908,0.172329724754558
-2.41292727878317E-05,5.33090678800363E-06,1.40625,1.55495594758034,0.604016917952314
-2.05781398108229E-05,1.68312235473422E-05,1.40625,1.55749492845965,0.604016917952314
-2.44776056206319E-05,8.5179453890305E-06,1.40625,1.56004354277378,0.604016917952314
-2.45089031523094E-05,1.65116798598319E-05,1.40625,1.56260175848946,0.604016917952314
-2.60823981079739E-05,1.56673795572715E-05,1.40625,1.56516954455632,0.604016917952314
-2.49572149186861E-05,2.00691010832088E-05,1.40625,1.56774687091779,0.604016917952314
-2.48412616201676E-05,2.04683183255838E-05,1.40625,1.57033370851988,0.604016917952314
-2.60487795458175E-05,1.89853835763643E-05,1.40625,1.57293002931801,0.604016917952314
-2.50397970376071E-05,1.96583387150895E-05,1.40625,1.57553580628188,0.604016917952314
-2.33623977692332E-05,1.806302316254E-05,1.40625,1.57815101339856,0.604016917952314
-2.05894884857116E-05,2.0283821868361E-05,1.40625,1.58077562567363,0.604016917952314
-2.15144318644889E-05,1.65102337632561E-05,1.40625,1.58340961913059,0.604016917952314
-2.13964631257113E-05,1.89152124221437E-05,1.40625,1.58605297080865,0.604016917952314
-2.34450235438999E-05,1.70834300661227E-05,1.40625,1.5887056587591,0.604016917952314
-2.46254221565323E-05,2.20294059545267E-05,1.40625,1.59136766204023,0.604016917952314
-2.76402606687043E-05,2.13868443097454E-05,1.40625,1.59403896071061,0.604016917952314
-2.75228103419067E-05,2.39414293901064E-05,1.40625,1.59671953582086,0.604016917952314
-2.70203108811984E-05,2.16840981011046E-05,1.40625,1.5994093694039,0.604016917952314
-2.52829031524016E-05,2.38602060562698E-05,1.40625,1.60210844446404,0.604016917952314
-2.46939835051307E-05,2.4445706003462E-05,1.40625,1.60481674496485,0.604016917952314
-2.29445849981857E-05,2.85387595795328E-05,1.40625,1.60753425581569,0.604016917952314
-2.25520980166039E-05,2.95098561764462E-05,1.40625,1.6102609628569,0.604016917952314
-2.2758087652619E-05,2.90510834020097E-05,1.40625,1.61299685284366,0.604016917952314
-2.23974748223554E-05,2.71913104370469E-05,1.40625,1.6157419134286,0.604016917952314
-1.81196974153863E-05,2.10269026865717E-05,1.40625,1.61849613314347,0.604016917952314
-2.6119716494577E-05,2.89544514089357E-05,1.40625,1.62125950137959,0.604016917952314
-2.0707055227831E-05,1.89288384717656E-05,1.40625,1.62403200836734,0.604016917952314
-2.58514592132997E-05,2.34568342420971E-05,1.40625,1.62681364515429,0.604016917952314
-2.18331915675662E-05,1.83663287316449E-05,1.40625,1.6296044035821,0.604016917952314
-2.373699862801E-05,2.07932407647604E-05,1.40625,1.63240427626168,0.604016917952314
-2.18853037949884E-05,1.5504119801335E-05,1.40625,1.63521325654702,0.604016917952314
-2.30694786296226E-05,1.55467423610389E-05,1.40625,1.6380313385074,0.604016917952314
-2.19327193917707E-05,1.38339037221158E-05,1.40625,1.64085851689837,0.604016917952314
-2.11811984627275E-05,1.29189638755633E-05,1.40625,1.64369478713173,0.604016917952314
-2.12110335269244E-05,1.17372492240975E-05,1.40625,1.64654014524443,0.604016917952314
-2.12851500691613E-05,1.07792438939214E-05,1.40625,1.64939458786685,0.604016917952314
-2.30662335525267E-05,1.27422035802738E-05,1.40625,1.65225811219029,0.604016917952314
-2.23023253056454E-05,1.31195329231559E-05,1.40625,1.65513071593403,0.604016917952314
-2.29960605793167E-05,1.44676178024383E-05,1.40625,1.65801239731157,0.604016917952314
-2.21739283006173E-05,1.2310851161601E-05,1.40625,1.66090315499633,0.604016917952314
-2.35110419453122E-05,1.30369344333303E-05,1.40625,1.66380298808647,0.604016917952314
-2.30807963816915E-05,1.26519689729321E-05,1.40625,1.66671189606922,0.604016917952314
-2.52963400271256E-05,1.44359573823749E-05,1.40625,1.66962987878443,0.604016917952314
-2.61895056610228E-05,1.12108646135312E-05,1.40625,1.67255693638784,0.604016917952314
-2.62788653344614E-05,8.19723027234431E-06,1.40625,1.67549306931395,0.604016917952314
-2.27515320148086E-05,7.87292810855433E-06,1.40625,1.67843827823885,0.604016917952314
-1.98443794943159E-05,1.46434222187963E-05,1.40625,1.68139256404315,0.604016917952314
-1.90121336345328E-05,2.05592095881002E-05,1.40625,1.68435592777484,0.604016917952314
-2.17670985875884E-05,2.46545914706076E-05,1.40625,1.68732837061221,0.604016917952314
-2.46485215029679E-05,2.56343791988911E-05,1.40625,1.69030989382669,0.604016917952314
-2.64445534412516E-05,2.538193075452E-05,1.40625,1.69330049874578,0.604016917952314
-2.01487309823278E-05,2.04299940378405E-05,1.40625,1.69630018671603,0.604016917952314
-2.69334123004228E-05,2.86231261270586E-05,1.40625,1.69930895906621,0.604016917952314
-1.88368576345965E-05,2.25741350732278E-05,1.40625,1.70232681707049,0.604016917952314
-2.50807752308901E-05,3.12574156851042E-05,1.40625,1.70535376191169,0.604016917952314
-2.17628894461086E-05,2.77363924396923E-05,1.40625,1.70838979464438,0.604016917952314
-2.58489417319652E-05,2.52264580922201E-05,1.40625,1.711434916158,0.604016917952314
-2.40407334786141E-05,1.46409493027022E-05,1.40625,1.71448912714008,0.604016917952314
-2.45726041612215E-05,9.15862528927391E-06,1.40625,1.7175524280396,0.604016917952314
-2.30642490350874E-05,6.67283256916562E-06,1.40625,1.72062481903069,0.604016917952314
-2.30200294026872E-05,5.84544341108995E-06,1.40625,1.7237062999768,0.604016917952314
-2.29063607548596E-05,-2.12462168747152E-06,1.40625,1.72679687039543,0.604016917952314
-2.0682331523858E-05,-1.7831544028013E-05,1.40625,1.72989652942356,0.604016917952314
-2.01520833797986E-05,-2.65699054580182E-05,1.40625,1.73300527578391,0.604016917952314
-1.92559346032795E-05,-2.48461183218751E-05,1.40625,1.73612310775242,0.604016917952314
-2.21529244299745E-05,-1.12174620880978E-05,1.40625,1.73925002312748,0.604016917952314
-2.31856593018165E-05,2.83473082163255E-06,1.40625,1.7423860192009,0.604016917952314
-2.52271729550557E-05,1.4644121620222E-05,1.40625,1.74553109273034,0.604016917952314
-2.42066325881751E-05,1.71109804796288E-05,1.40625,1.74868523991265,0.604016917952314
-2.52097051998135E-05,1.62263222591719E-05,1.40625,1.75184845635779,0.604016917952314
-2.36008581850911E-05,1.10775672510499E-05,1.40625,1.75502073706342,0.604016917952314
-2.27642685786122E-05,8.37635252537439E-06,1.40625,1.75820207639031,0.604016917952314
-2.1424953956739E-05,7.58676605983055E-06,1.40625,1.76139246803833,0.604016917952314
-2.12100621865829E-05,7.9048204497667E-06,1.40625,1.76459190502289,0.604016917952314
-1.96710370801156E-05,3.18676188726386E-06,1.40625,1.76780037965167,0.604016917952314
-2.01600614673225E-05,-2.82188625533308E-06,1.40625,1.77101788350179,0.604016917952314
-2.11508649954339E-05,-7.59767499403097E-06,1.40625,1.77424440739752,0.604016917952314
-2.19954872591188E-05,-9.65700746746734E-06,1.40625,1.77747994138876,0.604016917952314
-1.7177895642817E-05,-1.94811309484066E-06,1.40625,1.78072447473026,0.604016917952314
-2.37028380070115E-05,4.36389473179588E-06,1.40625,1.7839779958618,0.604016917952314
-1.7017919162754E-05,1.00930883490946E-05,1.40625,1.78724049238919,0.604016917952314
-2.21484442590736E-05,6.10193819738925E-06,1.40625,1.79051195106599,0.604016917952314
-2.06544646061957E-05,8.52424636832438E-06,1.40625,1.79379235777605,0.604016917952314
-2.51464334724005E-05,1.31255201267777E-05,1.40625,1.79708169751691,0.604016917952314
-2.47221323661506E-05,2.50389748543967E-05,1.40625,1.80037995438407,0.604016917952314
-2.65690923697548E-05,5.08199518662877E-05,1.40625,1.80368711155635,0.604016917952314
-2.633986332512E-05,9.31637623580173E-05,1.40625,1.80700315128301,0.604016917952314
-2.56069197348552E-05,0.000133986366563477,1.40625,1.81032805487332,0.604016917952314
-2.49495515163289E-05,0.000165240911883302,1.40625,1.81366180268968,0.604016917952314
-2.38416214415338E-05,0.000180723698576912,1.40625,1.81700437414541,0.604016917952314
-2.44800721702632E-05,0.000170157756656408,1.40625,1.82035574770786,0.604016917952314
-2.43625854636775E-05,0.000125021557323635,1.40625,1.82371590090704,0.604016917952314
-2.71139451797353E-05,4.82309478684329E-05,1.40625,1.82708481034899,0.604016917952314
-2.77504641417181E-05,-3.63612198270857E-05,1.40625,1.83046245173251,0.604016917952314
-2.8398315407685E-05,-0.000107608735561371,1.40625,1.83384879986807,0.604016917952314
-2.58905638474971E-05,-0.000152981097926386,1.40625,1.83724382869934,0.604016917952314
-2.51386281888699E-05,-0.000173227745108306,1.40625,1.84064751132908,0.604016917952314
-2.50324865191942E-05,-0.000170986211742274,1.40625,1.84405982005099,0.604016917952314
-2.73745299637085E-05,-0.000153952423715964,1.40625,1.84748072638788,0.604016917952314
-2.71601948043099E-05,-0.000120440156024415,1.40625,1.85091020113573,0.604016917952314
-2.59211392403813E-05,-7.43743948987685E-05,1.40625,1.85434821441217,0.604016917952314
-2.29402521654265E-05,-3.38035824825056E-05,1.40625,1.85779473570768,0.604016917952314
-2.18240002141101E-05,-1.65411220223177E-05,1.40625,1.86124973393736,0.604016917952314
-2.26656193262897E-05,-1.7958340322366E-05,1.40625,1.86471317749158,0.604016917952314
-2.33650353038684E-05,-1.73848711710889E-05,1.40625,1.86818503428445,0.604016917952314
-1.86611923709279E-05,-2.42719147536263E-06,1.40625,1.87166527180022,0.604016917952314
-2.72926226898562E-05,7.53557378629921E-06,1.40625,1.87515385713762,0.604016917952314
-2.21173722820822E-05,2.1127611034899E-05,1.40625,1.87865075705253,0.604016917952314
-2.74185331363697E-05,2.48833312070929E-05,1.40625,1.88215593799913,0.604016917952314
-2.44633629336022E-05,3.0863557185512E-05,1.40625,1.88566936616989,0.604016917952314
-2.8908318199683E-05,3.06771180476062E-05,1.40625,1.88919100753441,0.604016917952314
-2.74130161415087E-05,2.12926006497582E-05,1.40625,1.89272082787758,0.604016917952314
-2.64368845819263E-05,-1.49921129377617E-06,1.40625,1.89625879283672,0.604016917952314
-2.31401754717808E-05,-1.52093498400063E-05,1.40625,1.8998048679378,0.604016917952314
-2.15658437809907E-05,-9.9069175121258E-06,1.40625,1.90335901862984,0.604016917952314
-2.21666905417806E-05,3.35185541189276E-06,1.40625,1.90692121031728,0.604016917952314
-2.28092321776785E-05,1.23144973258604E-05,1.40625,1.91049140838989,0.604016917952314
-2.449340900057E-05,1.47177806866239E-05,1.40625,1.91406957825076,0.604016917952314
-2.42148144025123E-05,1.64818229677621E-05,1.40625,1.91765568534255,0.604016917952314
-2.54682072409196E-05,1.86826327990275E-05,1.40625,1.9212496951723,0.604016917952314
-2.35907682508696E-05,2.17017495742766E-05,1.40625,1.92485157333453,0.604016917952314
-2.30720070248935E-05,2.29264169320231E-05,1.40625,1.92846128553293,0.604016917952314
-2.12378545256797E-05,2.58910240518162E-05,1.40625,1.93207879760035,0.604016917952314
-2.18464629142545E-05,3.11940530082211E-05,1.40625,1.93570407551759,0.604016917952314
-2.05799369723536E-05,4.35510519309901E-05,1.40625,1.93933708543107,0.604016917952314
-2.06171334866667E-05,6.09113594691735E-05,1.40625,1.94297779366962,0.604016917952314
-1.96761811821489E-05,7.46711957617663E-05,1.40625,1.94662616676074,0.604016917952314
-2.0250921807019E-05,7.65414661145769E-05,1.40625,1.9502821714466,0.604016917952314
-2.10436828638194E-05,7.18219744157977E-05,1.40625,1.95394577470022,0.604016917952314
-2.2074567823438E-05,6.48423592792824E-05,1.40625,1.9576169437418,0.604016917952314
-2.25828225666191E-05,4.90904094476718E-05,1.40625,1.96129564605497,0.604016917952314
-2.2832664399175E-05,1.62038359121652E-05,1.40625,1.96498184940227,0.604016917952314
-1.94815056602238E-05,-1.71839328686474E-05,1.40625,1.96867552183942,0.604016917952314
-2.79214273177786E-05,-3.22287196468096E-05,1.40625,1.97237663172788,0.604016917952314
-2.11085516639287E-05,-2.79408504866296E-05,1.40625,1.9760851477464,0.604016917952314
-2.58484324149322E-05,-2.13167113543022E-05,1.40625,1.97980103890209,0.604016917952314
-2.24113609874621E-05,-2.28796943702037E-06,1.40625,1.98352427454151,0.604016917952314
-2.56856765190605E-05,1.89553156815236E-05,1.40625,1.98725482436162,0.604016917952314
-2.43712984229205E-05,3.8504815165652E-05,1.40625,1.99099265841998,0.604016917952314
-2.62982175627258E-05,5.53268801013473E-05,1.40625,1.99473774714371,0.604016917952314
-2.63586534856586E-05,6.98533549439162E-05,1.40625,1.99849006133723,0.604016917952314
-2.61602235696046E-05,7.34928908059374E-05,1.40625,2.00224957218901,0.604016917952314
-2.58001127804164E-05,6.3435138144996E-05,1.40625,2.00601625127797,0.604016917952314
-2.53154412348522E-05,4.73982472612988E-05,1.40625,2.00979007057961,0.604016917952314
-2.70746895694174E-05,3.22423729812726E-05,1.40625,2.01357100247176,0.604016917952314
-2.77070139418356E-05,2.13426901609637E-05,1.40625,2.01735901973944,0.604016917952314
-3.02717980957823E-05,9.45727060752688E-06,1.40625,2.02115409557871,0.604016917952314
-2.93625726044411E-05,8.42861936689587E-07,1.40625,2.02495620359948,0.604016917952314
-2.87654984276742E-05,-6.2174144659366E-06,1.40625,2.02876531782805,0.604016917952314
-2.53660473390482E-05,-2.1685957108275E-05,1.40625,2.03258141270957,0.604016917952314
-2.39754317590268E-05,-5.53016361664049E-05,1.40625,2.03640446311071,0.604016917952314
-2.16072185139637E-05,-8.59436331666075E-05,1.40625,2.04023444432259,0.604016917952314
-2.23620208998909E-05,-8.58514104038477E-05,1.40625,2.04407133206452,0.604016917952314
-2.34803974308306E-05,-5.1826147682732E-05,1.40625,2.04791510248903,0.604016917952314
-2.52958707278594E-05,-1.07909609141643E-05,1.40625,2.05176573218868,0.604016917952314
-2.54723763646325E-05,1.58359216584358E-05,1.40625,2.05562319820373,0.604016917952314
-2.5938090402633E-05,2.50520879490068E-05,1.40625,2.05948747802959,0.604016917952314
-2.68055355263641E-05,2.48626329266699E-05,1.40625,2.063358549623,0.604016917952314
-2.78976767731365E-05,2.14243555092253E-05,1.40625,2.06723639140682,0.604016917952314
-2.24742052523652E-05,1.55904381244909E-05,1.40625,2.07112098227377,0.604016917952314
-3.0867235182086E-05,2.3635588149773E-05,1.40625,2.07501230158907,0.604016917952314
-2.14279807551065E-05,2.10831403819611E-05,1.40625,2.07891032919196,0.604016917952314
-2.59132757491898E-05,3.01970812870422E-05,1.40625,2.08281504539587,0.604016917952314
-2.08534620469436E-05,4.11245055147447E-05,1.40625,2.08672643098767,0.604016917952314
-2.5697321689222E-05,6.50405127089471E-05,1.40625,2.09064446722598,0.604016917952314
-2.57558167504612E-05,7.65035074437037E-05,1.40625,2.09456913583922,0.604016917952314
-2.78088427876355E-05,7.56534936954267E-05,1.40625,2.09850041902369,0.604016917952314
-2.61012373812264E-05,6.13501761108637E-05,1.40625,2.10243829944184,0.604016917952314
-2.38291595451301E-05,4.15167742175981E-05,1.40625,2.1063827602209,0.604016917952314
-2.13954554055817E-05,1.71223928191466E-05,1.40625,2.11033378495146,0.604016917952314
-1.94664771697717E-05,-1.51353142427979E-05,1.40625,2.11429135768556,0.604016917952314
-2.18533241422847E-05,-4.83489129692316E-05,1.40625,2.11825546293426,0.604016917952314
-2.4057690097834E-05,-6.99606389389373E-05,1.40625,2.12222608566524,0.604016917952314
-2.77998515230138E-05,-6.964825297473E-05,1.40625,2.12620321130117,0.604016917952314
-2.7037744075642E-05,-6.09823619015515E-05,1.40625,2.13018682571926,0.604016917952314
-2.62786179519026E-05,-4.88968544232193E-05,1.40625,2.1341769152521,0.604016917952314
-2.14208321267506E-05,-3.11073381453753E-05,1.40625,2.13817346668944,0.604016917952314
-1.97786921489751E-05,1.04055743577192E-06,1.40625,2.14217646728039,0.604016917952314
