biceps_emg, triceps_emg, subject_position, position_estimate, brace_position
-2.40399858739693E-05,1.69750765053323E-05,0.87890625,0,0
-2.55582053796388E-05,1.59331048052991E-05,0.87890625,0,0
-2.56629646173678E-05,1.30102480397909E-05,0.87890625,0,0
-2.63049405475613E-05,1.05339831861784E-05,0.87890625,0,0
-2.54001188295661E-05,7.56050667405361E-06,0.87890625,1.63003042260687E-14,0
-2.65645412582671E-05,7.25062045603408E-06,0.87890625,1.0992749656888E-13,0
-2.44933999056229E-05,6.3433262766921E-06,0.87890625,5.41346762421754E-08,0
-2.40752960962709E-05,8.18281932879472E-06,0.87890625,2.95073161724755E-07,0
-2.34239942074055E-05,9.81027278612601E-06,0.87890625,9.43619873681374E-07,0
-2.52081990765873E-05,1.28404362840229E-05,0.87890625,2.31097826452767E-06,0
-2.34451417782111E-05,1.33346520669875E-05,0.87890625,4.7974114401916E-06,0
-2.22471444430994E-05,1.41112095661811E-05,0.87890625,8.88916383048223E-06,0
-2.15380441659363E-05,1.39901721922797E-05,0.87890625,1.51545755578967E-05,0
-2.31211943173548E-05,1.41836226248415E-05,0.87890625,2.42398543467435E-05,0
-2.28166372835403E-05,1.31889373733429E-05,0.87890625,3.68647364701853E-05,0
-2.23774768528529E-05,1.31038887047907E-05,0.87890625,5.38181515666653E-05,0
-2.29326742555713E-05,1.26569721032865E-05,0.87890625,7.59539478399857E-05,0
-2.50876782956766E-05,1.07217711047269E-05,0.87890625,0.000104186705010816,0
-2.20636648009531E-05,7.37790014682105E-06,0.87890625,0.000139487647813279,0
-3.14720455207862E-05,9.50243429542752E-06,0.87890625,0.000182880665543651,0
-2.45999963226495E-05,6.40231337456498E-06,0.87890625,0.00023543843953518,0
-3.16062978527043E-05,8.33942067401949E-06,0.87890625,0.000298278678629522,0
-2.89783674816135E-05,7.04421472619288E-06,0.87890625,0.000372560461824327,0
-3.32924792019185E-05,9.09201753529487E-06,0.87890625,0.000459480686833267,0
-3.04073128063465E-05,9.37624827201944E-06,0.87890625,0.000560270623071092,0
-2.9788901883876E-05,1.15038328658557E-05,0.87890625,0.000676192567474451,0
-2.71303342742613E-05,1.23112704386585E-05,0.87890625,0.000808536601533109,0
-2.60552260442637E-05,1.26045579236234E-05,0.87890625,0.000958617447891184,0
-2.50655521085719E-05,1.30901662487304E-05,0.87890625,0.00112777142486676,0
-2.21850350499153E-05,1.22369756354601E-05,0.87890625,0.00131735349723361,0
-2.08158235182054E-05,1.15205848487676E-05,0.87890625,0.00152873442161978,0
-1.83058637048816E-05,9.21637092687888E-06,0.87890625,0.00176329798490072,0
-1.89121838047868E-05,8.08194181445288E-06,0.87890625,0.00202243833398059,0
-1.79187882167753E-05,8.0232193795382E-06,0.87890625,0.00230755739536281,0
-1.92633578990353E-05,9.51516813074704E-06,0.87890625,0.00262006238292721,0
-1.70717758010142E-05,9.08671518118354E-06,0.87890625,0.00296136339234459,0
-1.64896555361338E-05,8.55263169796672E-06,0.87890625,0.00333287108058522,0
-1.4741342056368E-05,7.59711247155792E-06,0.87890625,0.0037359944289895,0
-1.65059536811896E-05,8.07071046438068E-06,0.87890625,0.00417213858837388,0
-1.78902737388853E-05,8.33662761579035E-06,0.87890625,0.00464270280465647,0
-2.02657447516685E-05,6.52166409054189E-06,0.87890625,0.0051490784234931,0
-2.09559202630771E-05,2.10681719181594E-06,0.87890625,0.00569264697242625,0
-2.13869316212367E-05,4.64945117073512E-07,0.87890625,0.00627477831907863,0
-2.08269084396306E-05,3.42654834639688E-06,0.87890625,0.00689682890394568,0
-2.06054501177277E-05,7.16361864760984E-06,0.87890625,0.00756014004635479,0
-1.75905261130538E-05,7.50260096538113E-06,0.87890625,0.00826603632217519,0
-2.49343374889577E-05,1.15492302938947E-05,0.87890625,0.00901582401186246,0
-1.85497756319819E-05,9.58890086621977E-06,0.87890625,0.00981078961742131,0
-2.2412004909711E-05,1.11990830191644E-05,0.87890625,0.0106521984468883,0
-1.9746124962694E-05,1.06501956906868E-05,0.87890625,0.0115412932649486,0
-2.42878431890858E-05,1.12092629933613E-05,0.87890625,0.0124792930083206,0
-2.41933248616988E-05,8.3908262240584E-06,0.87890625,0.0134673915645709,0
-2.5562068913132E-05,8.49762454890879E-06,0.87890625,0.0145067566130217,0
-2.41576180997072E-05,9.51686979533406E-06,0.87890625,0.0155985285264224,0
-2.32865950238192E-05,9.98101950244745E-06,0.87890625,0.0167438193320975,0
-2.34658873523586E-05,9.51774018176366E-06,0.87890625,0.0179437117312743,0
-2.26136580749881E-05,9.52252412389498E-06,0.87890625,0.0191992581752926,0
-2.26371721510077E-05,1.10714136098977E-05,0.87890625,0.0205114799974464,0
-2.26301199290901E-05,1.25080923680798E-05,0.87890625,0.0218813665992085,0
-2.49853237619391E-05,1.36806520458777E-05,0.87890625,0.023309874689588,0
-2.46743966272334E-05,1.20720715131029E-05,0.87890625,0.0247979275764183,0
-2.67766044999007E-05,1.02761214293423E-05,0.87890625,0.0263464145083615,0
-2.78983425232582E-05,8.02736485638889E-06,0.87890625,0.027956190066405,0
-3.06262263620738E-05,7.468391686416E-06,0.87890625,0.0296280736036841,0
-3.08226190099958E-05,7.47705598769244E-06,0.87890625,0.0313628487324605,0
-3.17035774060059E-05,8.76181547937449E-06,0.87890625,0.0331612628570834,0
-3.07131340377964E-05,9.48074830375845E-06,0.87890625,0.035024026751818,0
-2.99707862723153E-05,1.16678720587515E-05,0.87890625,0.0369518141823987,0
-2.78703901130939E-05,1.48602894114447E-05,0.87890625,0.0389452615701587,0
-2.61985733231995E-05,1.68008937180275E-05,0.87890625,0.0410049676976713,0
-2.59208209172357E-05,1.41416494443547E-05,0.87890625,0.043131493454814,0
-2.63549045484979E-05,9.27918972593034E-06,0.87890625,0.0453253616241534,0
-2.11032820516266E-05,8.59430019772844E-06,0.87890625,0.0475870567046284,0
-2.86782651528483E-05,1.58542843564646E-05,0.87890625,0.0499170247724847,0
-1.86767956620315E-05,1.68081605806947E-05,0.87890625,0.0523156733783944,0
-2.08864439628087E-05,1.93096566363238E-05,0.87890625,0.0547833714797947,0
-1.36886974360095E-05,1.73805947270012E-05,0.87890625,0.0573204494074404,0
-1.5935813280521E-05,1.63515032909345E-05,0.87890625,0.0599271988651331,0
-1.3684347322851E-05,1.39452477014856E-05,0.87890625,0.0626038729616781,0
-1.6182189938263E-05,1.05405142676318E-05,0.87890625,0.0653506862740699,0
-1.9503282601363E-05,3.43236729349883E-06,0.87890625,0.0681678149408929,0
-2.46115396294044E-05,-7.55541009311855E-07,0.87890625,0.0710553967850639,0
-2.8253727577976E-05,1.61643683327384E-07,0.87890625,0.0740135314649986,0
-2.69669708359288E-05,4.17682258557761E-06,0.87890625,0.0770422806532559,0
-2.52919235208537E-05,1.01537370937876E-05,0.87890625,0.0801416682418267,0
-2.32776837947313E-05,1.41831042128615E-05,0.87890625,0.083311680573146,0
-2.65781382040586E-05,1.53413056978025E-05,0.87890625,0.0865522666958665,0
-2.86838749161689E-05,1.29442350953468E-05,0.87890625,0.0898633386446201,0
-3.2017233024817E-05,1.25872111311764E-05,0.87890625,0.0932447717429484,0
-3.19427927024662E-05,1.53292439790675E-05,0.87890625,0.0966964049285148,0
-3.29322210745886E-05,2.11129845411051E-05,0.87890625,0.100218041099841,0
-3.13039636239409E-05,2.65933394985041E-05,0.87890625,0.103809447483732,0
-3.16322038997896E-05,3.30234579450917E-05,0.87890625,0.107470356022514,0
-3.05283101624809E-05,3.80931705876719E-05,0.87890625,0.111200463780381,0
-2.94462643068982E-05,3.95909919461701E-05,0.87890625,0.114999433368068,0
-2.7173271519132E-05,3.17898047796916E-05,0.87890625,0.118866893384999,0
-2.47264360950794E-05,1.47921837196918E-05,0.87890625,0.122802438878238,0
-1.9994795366074E-05,1.23322536182968E-06,0.87890625,0.126805631817497,0
-1.67716334544821E-05,-5.48528930721659E-07,0.87890625,0.130876001585421,0
-1.40506672323681E-05,2.47007938014576E-06,0.87890625,0.135013045482603,0
-2.16147309402004E-05,3.59313958142593E-06,0.87890625,0.139216229246599,0
-1.90903901966522E-05,7.04485319147352E-06,0.87890625,0.143484987584193,0
-2.36360083363252E-05,2.44752700382378E-05,0.87890625,0.147818724716102,0
-2.19485882553272E-05,3.74137816834264E-05,0.87890625,0.152216814933615,0
-2.46297095145565E-05,2.71098288067151E-05,0.87890625,0.156678603166426,0
-2.37118783843471E-05,9.14109386940254E-06,0.87890625,0.161203405561141,0
-2.39280725509161E-05,4.31650869359146E-06,0.87890625,0.165790510069827,0
-2.17340875678929E-05,1.01926398201613E-05,0.87890625,0.170439177047908,0
-2.03355521080084E-05,1.33615658342023E-05,0.87890625,0.175148639860941,0
-2.11748447327409E-05,1.02616813819623E-05,0.87890625,0.179918105499544,0
-2.29981069423957E-05,5.35573508386733E-06,0.87890625,0.184746755201962,0
-2.48906726483256E-05,1.94504838901821E-08,0.87890625,0.18963374508367,0
-2.34775379794883E-05,-9.69089978752891E-06,0.87890625,0.194578206773491,0
-2.25217863771832E-05,-2.17209872062085E-05,0.87890625,0.199579248055644,0
-2.07199936994584E-05,-2.82373312074924E-05,0.87890625,0.204635953517319,0
-2.09030458790949E-05,-2.5029077733052E-05,0.87890625,0.209747385201101,0
-2.00839513126994E-05,-1.56083096953807E-05,0.87890625,0.214912583261803,0
-2.12402828765335E-05,-6.45992122372263E-06,0.87890625,0.220130566627149,0
-2.15300096897408E-05,-4.25387179348036E-06,0.87890625,0.225400333661735,0
-2.24285195145058E-05,-1.17622739708168E-05,0.87890625,0.230720862833931,0
-2.28054414037615E-05,-2.29395609494532E-05,0.87890625,0.236091113385143,0
-2.45506071223645E-05,-2.60988308582455E-05,0.87890625,0.241510026001125,0
-2.51893088716315E-05,-1.76306839421159E-05,0.87890625,0.246976523484917,0
-2.54024034802569E-05,-2.93809443974169E-06,0.87890625,0.25248951143087,0
-2.48318465310149E-05,1.14163658508915E-05,0.87890625,0.258047878899442,0
-2.43705017055618E-05,2.03724357561441E-05,0.87890625,0.26365049909215,0
-1.97374993149424E-05,1.88738376891706E-05,0.87890625,0.269296230026427,0
-2.81948141491739E-05,2.74757003353443E-05,0.87890625,0.274983915209969,0
-2.06876356969588E-05,2.26061911234865E-05,0.87890625,0.28071238431419,0
-2.4601751647424E-05,2.9455066396622E-05,0.87890625,0.286480453846288,0
-2.0331137420726E-05,2.5332388759125E-05,0.87890625,0.292286927819762,0
-2.29641682381043E-05,2.66384831775213E-05,0.87890625,0.2981305984228,0
-2.04125517484499E-05,2.35375155170914E-05,0.87890625,0.30401024668432,0
-2.1497475245269E-05,2.48221167566953E-05,0.87890625,0.309924643137319,0
-2.05378455575556E-05,2.53356120083481E-05,0.87890625,0.315872548479115,0
-1.95449174498208E-05,2.56237599387532E-05,0.87890625,0.321852714228379,0
-1.92884908756241E-05,2.46601503022248E-05,0.87890625,0.327863883378416,0
-1.85984936251771E-05,2.21814225369599E-05,0.87890625,0.333904791046547,0
-2.01795301109087E-05,1.94460862985579E-05,0.87890625,0.339974165119243,0
-2.15576346818125E-05,1.31200577015989E-05,0.87890625,0.346070726892748,0
-2.57419433182804E-05,8.04174578661332E-06,0.87890625,0.352193191708815,0
-2.66782280959887E-05,3.46006868312543E-06,0.87890625,0.358340269585518,0
-2.75118636636762E-05,6.26275868853554E-06,0.87890625,0.364510665842687,0
-2.56384428212186E-05,9.81392713583773E-06,0.87890625,0.370703081721856,0
-2.65025464614155E-05,1.40273350552889E-05,0.87890625,0.376916215000437,0
-2.66163315245649E-05,1.39247440529289E-05,0.87890625,0.38314876059975,0
-2.86824415525189E-05,1.24529169625021E-05,0.87890625,0.389399411186914,0
-2.90062271233182E-05,9.87667954177596E-06,0.87890625,0.395666857770158,0
-2.92863751383265E-05,1.13089117803611E-05,0.87890625,0.401949790287525,0
-2.8671925974777E-05,1.31564556795638E-05,0.87890625,0.408246898188751,0
-2.88369446934666E-05,1.49590960063506E-05,0.87890625,0.414556871010007,0
-2.86122703982983E-05,1.51872454807744E-05,0.87890625,0.420878398941545,0
-2.84321977233049E-05,1.41128130053403E-05,0.87890625,0.427210173387791,0
-2.27424225158757E-05,9.14688280317932E-06,0.87890625,0.433550887519909,0
-3.21794941555709E-05,1.05741200968623E-05,0.87890625,0.439899236820617,0
-2.45724568230798E-05,6.97558289175504E-06,0.87890625,0.446253919621156,0
-3.12985030177515E-05,1.22796509458567E-05,0.87890625,0.452613637630135,0
-2.76779901469126E-05,1.17343488454935E-05,0.87890625,0.458977096454398,0
-3.13103082589805E-05,1.35928085001069E-05,0.87890625,0.465343006111442,0
-2.90423922706395E-05,1.33400462800637E-05,0.87890625,0.471710081533455,0
-3.01843519991962E-05,1.72397558344528E-05,0.87890625,0.478077043062818,0
-2.8163045499241E-05,2.20110505324556E-05,0.87890625,0.484442616938859,0
-2.63980218733195E-05,2.71617409453029E-05,0.87890625,0.490805535776037,0
-2.54831902566366E-05,3.20059771183878E-05,0.87890625,0.497164539033146,0
-2.4604361897218E-05,3.52929273503833E-05,0.87890625,0.503518373473648,0
-2.56031908065779E-05,3.55870215571485E-05,0.87890625,0.509865793616994,0
-2.43759986915393E-05,2.93625525955576E-05,0.87890625,0.516205562180868,0
-2.53048729064176E-05,2.14866413443815E-05,0.87890625,0.522536450514112,0
-2.3672540919506E-05,1.39663379741251E-05,0.87890625,0.528857239020553,0
-2.29863398999441E-05,1.19282258310704E-05,0.87890625,0.535166717573349,0
-1.86189099622425E-05,1.20879340101965E-05,0.87890625,0.541463685920041,0
-1.82753665285418E-05,1.28865631268127E-05,0.87890625,0.54774695407825,0
-1.80804890987929E-05,1.07449395727599E-05,0.87890625,0.554015342721834,0
-2.02328083105385E-05,7.88020679465262E-06,0.87890625,0.560267683557754,0
-1.94882777577732E-05,4.57888882010593E-06,0.87890625,0.566502819693242,0
-1.86926026799483E-05,4.90897764393594E-06,0.87890625,0.572719605993449,0
-1.76500270754332E-05,6.24121094006114E-06,0.87890625,0.578916909429539,0
-1.81870582309784E-05,6.60123805573676E-06,0.87890625,0.58509360941707,0
-1.95107077161083E-05,6.41707174509065E-06,0.87890625,0.591248598144978,0
-2.17789583984995E-05,8.99739643500652E-06,0.87890625,0.597380780894765,0
-1.78546342795016E-05,1.40438914968399E-05,0.87890625,0.60348907635012,0
-2.4542252504034E-05,2.5168035790557E-05,0.87890625,0.609572416896909,0
-1.8321123206988E-05,1.90561859199079E-05,0.87890625,0.615629748913579,0
-2.51434375968529E-05,7.7964259617147E-06,0.87890625,0.621660033051872,0
-2.41905090661021E-05,-3.37148389917274E-06,0.87890625,0.627662244508187,0
-2.77698291029083E-05,1.470618485655E-06,0.87890625,0.63363537328524,0
-2.56075763900299E-05,6.93808897267445E-06,0.87890625,0.639578424444283,0
-2.62752510025166E-05,8.963272193796E-06,0.87890625,0.645490418347857,0
-2.55158502113773E-05,4.92168464916176E-06,0.87890625,0.6513703908929,0
-2.67249870375963E-05,-9.87072894531593E-07,0.87890625,0.657217393734582,0
-2.91893793473719E-05,-5.05844627696206E-06,0.87890625,0.663030494500566,0
-3.00334322673734E-05,-3.94722019336768E-06,0.87890625,0.668808776995981,0
-3.04616351058939E-05,2.45358137362928E-06,0.87890625,0.674551341399127,0
-2.71686621999834E-05,8.7383787104045E-06,0.87890625,0.68025730444793,0
-2.50047633016948E-05,1.46758993651019E-05,0.87890625,0.685925799617026,0
-2.14441424759571E-05,1.72932122950442E-05,0.87890625,0.691555977285875,0
-2.0528097593342E-05,1.96502351172967E-05,0.87890625,0.697147004897598,0
-1.93505657080095E-05,1.909881393658E-05,0.87890625,0.702698067108873,0
-2.19282374018803E-05,1.75068871612893E-05,0.87890625,0.708208365930919,0
-2.30421974265482E-05,1.50115911310422E-05,0.87890625,0.713677120861452,0
-2.41092984651914E-05,1.65861583809601E-05,0.87890625,0.719103569008023,0
-2.24736540985759E-05,1.96468008653028E-05,0.87890625,0.724486965202376,0
-2.10418220376596E-05,1.97550998564111E-05,0.87890625,0.729826582106196,0
-1.88685244211229E-05,1.58229941007448E-05,0.87890625,0.735121710308306,0
-1.73071366589284E-05,1.33805133373244E-05,0.87890625,0.740371658413243,0
-1.63224849529797E-05,1.25359247249435E-05,0.87890625,0.745575753121647,0
-1.75456898432458E-05,1.21563216453069E-05,0.87890625,0.750733339302126,0
-1.60865238285623E-05,1.24144853543839E-05,0.87890625,0.755843780054905,0
-2.39967266679741E-05,2.19229477806948E-05,0.87890625,0.76090645676731,0
-2.00288413907401E-05,1.9620725652203E-05,0.87890625,0.765920769161208,0
-2.41889028984588E-05,1.70610255736392E-05,0.87890625,0.770886135332346,0
-1.97865283553256E-05,3.34468086293782E-06,0.87890625,0.775801991782052,0
-2.0784025764442E-05,-1.00350644061109E-05,0.87890625,0.780667793440975,0
-1.8619606635184E-05,-1.76677185663721E-05,0.87890625,0.785483013685226,0
-2.04576699616155E-05,-1.54083154484397E-05,0.87890625,0.790247144345004,0
-2.38252250710502E-05,-1.05073895610985E-05,0.87890625,0.794959695705655,0
-2.87247421510983E-05,-5.95880055698217E-06,0.87890625,0.799620196501594,0
-3.1436669814866E-05,-1.87435432508209E-06,0.87890625,0.804228193902743,0
-2.89114577753935E-05,3.45672242474393E-06,0.87890625,0.808783253493846,0
-2.51980345638003E-05,1.12038878796739E-05,0.87890625,0.81328495924675,0
-2.17318993236404E-05,1.70736329891952E-05,0.87890625,0.817732913485764,0
-2.41739962802967E-05,2.06074219022412E-05,0.87890625,0.822126736846052,0
-2.61374098045053E-05,2.0106428564759E-05,0.87890625,0.826466068225583,0
-2.741688513197E-05,2.03450381377479E-05,0.87890625,0.830750564730325,0
-2.45125374931376E-05,2.37709391512908E-05,0.87890625,0.834979901613058,0
-2.30819550779415E-05,3.26765948557295E-05,0.87890625,0.839153772205874,0
-2.27465370699065E-05,3.68622204405256E-05,0.87890625,0.843271887846287,0
-2.52068566624075E-05,2.6046969651361E-05,0.87890625,0.847333977797472,0
-2.70366745098727E-05,2.28231374421739E-06,0.87890625,0.85133978916231,0
-2.84163543256E-05,-1.32785626192344E-05,0.87890625,0.855289086791591,0
-2.75994898402132E-05,-1.03924203358474E-05,0.87890625,0.859181653186457,0
-2.7097185011371E-05,8.19449894606805E-07,0.87890625,0.863017288395276,0
-2.69374213530682E-05,7.16931162969559E-06,0.87890625,0.866795809904866,0
-2.61622244579485E-05,8.73132557899226E-06,0.87890625,0.870517052526533,0
-2.05584656214342E-05,8.44637179397978E-06,0.87890625,0.874180868276569,0
-2.94841920549516E-05,1.30443386296974E-05,0.87890625,0.877787126251653,0
-2.31578396778787E-05,1.04240061773453E-05,0.87890625,0.881335712499281,0
-2.75615439022658E-05,1.18331654448411E-05,0.87890625,0.884826529883179,0
-2.0580542695825E-05,1.28354686239618E-05,0.87890625,0.888259497944213,0
-2.1783220290672E-05,2.09856516448781E-05,0.87890625,0.891634552756442,0
-1.96085766219767E-05,2.71854733000509E-05,0.87890625,0.894951646778728,0
-2.18731329368893E-05,2.83433255390264E-05,0.87890625,0.89821074870199,0
-2.2358275600709E-05,2.17111410165671E-05,0.87890625,0.901411843292036,0
-2.2683785573463E-05,7.71370650909375E-06,0.87890625,0.904554931228453,0
-2.23593433474889E-05,-1.24187417895882E-05,0.87890625,0.907640028939198,0
-2.20923848246457E-05,-2.54400165431434E-05,0.87890625,0.910667168431308,0
-2.46419840550516E-05,-1.91164363059215E-05,0.87890625,0.91363639711784,0
-2.52218142122729E-05,-2.42242617787269E-06,0.87890625,0.916547777641217,0
-2.70492346317042E-05,1.02604790299665E-05,0.87890625,0.919401387692848,0
-2.59889329754515E-05,1.2321290341788E-05,0.87890625,0.922197319829484,0
-2.65896105702268E-05,1.06902380139218E-05,0.87890625,0.924935681286003,0
-2.46591553150211E-05,8.34502861835063E-06,0.87890625,0.927616593785068,0
-2.4975339329103E-05,7.88271790952422E-06,0.87890625,0.93024019334376,0
-2.33848204516107E-05,7.51689776734565E-06,0.87890625,0.932806630077105,0
-2.32247348321835E-05,9.44477051234571E-06,0.87890625,0.935316067999021,0
-2.14837418752722E-05,1.20245849757339E-05,0.87890625,0.937768684820351,0
-1.99774713109946E-05,1.48831340993638E-05,0.87890625,0.940164671744387,0
-1.79301023308653E-05,1.73261814779835E-05,0.87890625,0.942504233259916,0
-1.86396391654853E-05,1.91339458979201E-05,0.87890625,0.944787586931954,0
-1.91414383152733E-05,1.72481613844866E-05,0.87890625,0.947014963190065,0
-1.92330517165829E-05,1.20907834570971E-05,0.87890625,0.949186605114776,0
-1.80026345333317E-05,5.02980174132972E-06,0.87890625,0.951302768221721,0
-2.7746185878641E-05,4.27642453360022E-06,0.87890625,0.953363720243886,0
-2.28743574552936E-05,1.62693174843298E-06,0.87890625,0.955369740912062,0
-2.63263427768834E-05,7.59694148655399E-06,0.87890625,0.957321121733463,0
-2.30627811106388E-05,1.18256311907317E-05,0.87890625,0.959218165769026,0
-2.59485896094702E-05,1.68003389262594E-05,0.87890625,0.961061187409028,0
-2.53325142693939E-05,1.64349748956738E-05,0.87890625,0.962850512147373,0
-2.68524017883465E-05,1.53250784933334E-05,0.87890625,0.964586476354662,0
-2.62806279351935E-05,1.31520682771225E-05,0.87890625,0.966269427049953,0
-2.62033754552249E-05,1.13510195660638E-05,0.87890625,0.967899721671717,0
-2.64690479525598E-05,1.03680586107657E-05,0.87890625,0.969477727847613,0
-2.59671378444182E-05,9.87100247584749E-06,0.87890625,0.971003823163447,0
-2.62598969129613E-05,1.01319792520371E-05,0.87890625,0.972478394931376,0
-2.45897645072546E-05,9.82325764198322E-06,0.87890625,0.973901839957485,0
-2.44731108978158E-05,1.04898826975841E-05,0.87890625,0.975274564308666,0
-2.3359403712675E-05,1.22690380521817E-05,0.87890625,0.976596983079279,0
-2.52374666160904E-05,1.79968919837847E-05,0.87890625,0.977869520157245,0
-2.54482783930143E-05,2.56011862802552E-05,0.87890625,0.979092607989944,0
-2.60466513282154E-05,3.41445229423698E-05,0.87890625,0.980266687349981,0
-2.45919309236342E-05,3.97722142224666E-05,0.87890625,0.981392207100744,0
-2.57075680565322E-05,4.23251331085339E-05,0.87890625,0.982469623962245,0
-2.60100041487021E-05,4.06493636546656E-05,0.87890625,0.983499402276838,0
-2.56722050835378E-05,3.56271266355179E-05,0.87890625,0.98448201377516,0
-2.3990582121769E-05,2.52390418609139E-05,0.87890625,0.985417937342294,0
-2.37549884332111E-05,1.19349360829801E-05,0.87890625,0.986307658784263,0
-2.4505345209036E-05,1.11858935269993E-06,0.87890625,0.987151670594787,0
-2.40310819208389E-05,-5.36284596819314E-06,0.87890625,0.987950471722816,0
-1.83849097084021E-05,-9.63881484494777E-06,0.87890625,0.988704567340533,0
-2.63828733295668E-05,-2.20530073420377E-05,0.87890625,0.989414468612137,0
-2.14359806705033E-05,-3.17052436002996E-05,0.87890625,0.990080692463422,0
-2.81131287920289E-05,-3.93062509829178E-05,0.87890625,0.990703761352041,0
-2.60232700384222E-05,-3.20624967571348E-05,0.87890625,0.991284203038891,0
-2.9469427317963E-05,-1.49766156027908E-05,0.87890625,0.991822550360269,0
-2.73780788120348E-05,1.26109980556066E-05,0.87890625,0.992319341001079,0
-2.79400028375676E-05,3.62916362064425E-05,0.87890625,0.99277511726912,0
-2.64156478806399E-05,4.85943273815792E-05,0.87890625,0.993190425870382,0
-2.51055225817254E-05,4.87772813357878E-05,0.87890625,0.993565817685903,0
-2.33912396652158E-05,4.02876758016646E-05,0.87890625,0.993901847549837,0
-2.13880539376987E-05,2.7181173209101E-05,0.87890625,0.994199074028987,0
-2.11450424103532E-05,1.07799287434318E-05,0.87890625,0.994458059203723,0
-1.87761907000095E-05,-3.77635910808749E-06,0.87890625,0.994679368450387,0
-1.90925165952649E-05,-1.37912684294861E-05,0.87890625,0.994863570225099,0
-1.96326182049233E-05,-2.02011378860334E-05,0.87890625,0.995011235849479,0
-2.30596815526951E-05,-2.69307165581267E-05,0.87890625,0.995122939297946,0
-2.27942855417496E-05,-2.89187883026898E-05,0.87890625,0.995199256986848,0
-2.35046645684633E-05,-2.22023918468039E-05,0.87890625,0.995240767565399,0
-2.30195873882622E-05,-6.8178969740984E-06,0.87890625,0.995248051708284,0
-2.39692762988852E-05,8.47842693474377E-06,0.87890625,0.995221691910354,0
-2.31786671065493E-05,2.01753155124607E-05,0.87890625,0.995162272283037,0
-2.23822517000372E-05,2.56298480962869E-05,0.87890625,0.99507037835282,0
-2.04356310860021E-05,2.4651104467921E-05,0.87890625,0.994946596861848,0
-2.04409716388909E-05,2.08154706342611E-05,0.87890625,0.994791515570711,0
-2.15820964513114E-05,1.90094033314381E-05,0.87890625,0.994605723063245,0
-2.31585254368838E-05,1.98332600120921E-05,0.87890625,0.994389808553708,0
-1.92035222426057E-05,1.5598403479089E-05,0.87890625,0.994144361695961,0
-2.67527448158944E-05,2.11302904062904E-05,0.87890625,0.993869972394933,0
-2.05455471586902E-05,1.37922897920362E-05,0.87890625,0.993567230620425,0
-2.65194830717519E-05,1.76249977812404E-05,0.87890625,0.993236726223126,0
-2.19466601265594E-05,1.49911238622735E-05,0.87890625,0.992879048753245,0
-2.36493760894518E-05,1.7901284081745E-05,0.87890625,0.992494787281366,0
-2.09268710023025E-05,1.51001677295426E-05,0.87890625,0.992084530221809,0
-2.16856387851294E-05,1.34442143462365E-05,0.87890625,0.991648865158449,0
-2.19614194065798E-05,1.05073013401125E-05,0.87890625,0.991188378673063,0
-2.46588424488436E-05,1.00350380307646E-05,0.87890625,0.990703656176085,0
-2.80405547528062E-05,1.19032329166657E-05,0.87890625,0.990195281740124,0
-2.93462871923111E-05,1.37517308758106E-05,0.87890625,0.989663837935924,0
-3.08179587591439E-05,1.49774450619589E-05,0.87890625,0.989109905671002,0
-3.02519056276651E-05,1.31646529553109E-05,0.87890625,0.988534064030952,0
-3.07924929074943E-05,1.26350105347228E-05,0.87890625,0.987936890123284,0
-2.76439113804372E-05,1.15861757876701E-05,0.87890625,0.987318958924121,0
-2.66973056568531E-05,1.4127382200968E-05,0.87890625,0.986680843127391,0
-2.46761919697747E-05,1.53242581291124E-05,0.87890625,0.986023112996757,0
-2.49115946644451E-05,1.60228119057138E-05,0.87890625,0.985346336220291,0
-2.35311035794439E-05,1.42358258017339E-05,0.87890625,0.984651077767757,0
-2.43859740294283E-05,1.42588705784874E-05,0.87890625,0.983937899750886,0
-2.40495701291366E-05,1.22239216580056E-05,0.87890625,0.983207361286264,0
-2.34415583690861E-05,1.00361276054173E-05,0.87890625,0.982460018361054,0
-2.06705572054489E-05,1.00792394732707E-05,0.87890625,0.981696423701519,0
-1.79986618604744E-05,1.55950056068832E-05,0.87890625,0.98091712664438,0
-1.64081120601622E-05,2.10083817364648E-05,0.87890625,0.980122673010873,0
-1.82202184078051E-05,2.27266737056198E-05,0.87890625,0.979313604983839,0
-1.89492093340959E-05,1.66078280017246E-05,0.87890625,0.978490460987481,0
-3.08176677208394E-05,2.11126698559383E-05,0.87890625,0.977653775569966,0
-2.80252297670813E-05,1.30992239064653E-05,0.87890625,0.976804079288854,0
-3.20190956699662E-05,1.98538309632568E-05,0.87890625,0.975941898599203,0
-2.82469318335643E-05,2.1159501557122E-05,0.87890625,0.975067755744739,0
-3.11016447085422E-05,2.624937951623E-05,0.87890625,0.974182168651715,0
-2.9564842407126E-05,2.2836973585072E-05,0.87890625,0.973285650825662,0
-3.06674628518522E-05,2.13130460906541E-05,0.87890625,0.972378711250965,0
-2.97965343634132E-05,1.93788710021181E-05,0.87890625,0.971461854293287,0
-2.80487965937937E-05,1.9351951777935E-05,0.87890625,0.970535579604677,0
-2.60719734797021E-05,1.95951197383692E-05,0.87890625,0.969600382031683,0
-2.36907126236474E-05,1.8887691112468E-05,0.87890625,0.968656751526114,0
-2.22628877963871E-05,1.91687340702629E-05,0.87890625,0.967705173058666,0
-1.8312410247745E-05,1.68389378814027E-05,0.87890625,0.9667461265354,0
-1.65934579854365E-05,1.42252638397622E-05,0.87890625,0.965780086716928,0
-1.51750373333925E-05,7.25336940377019E-06,0.87890625,0.964807523140613,0
-1.70243802131154E-05,4.16626244259533E-06,0.87890625,0.963828900045392,0
-1.67525686265435E-05,7.26408916307264E-06,0.87890625,0.962844676299423,0
-1.71822448464809E-05,1.82103303814074E-05,0.87890625,0.961855305330477,0
-1.62573851412162E-05,2.39448563661426E-05,0.87890625,0.960861235058897,0
-1.82156873052008E-05,2.02113697014283E-05,0.87890625,0.959862907833439,0
-2.01747134269681E-05,6.32577666692669E-06,0.87890625,0.958860760369613,0
-2.19458470382961E-05,-3.19591822517395E-06,0.87890625,0.957855223690837,0
-2.15732216020115E-05,-1.0914201311607E-06,0.87890625,0.956846723072297,0
-2.16880362131633E-05,7.39299503038637E-06,0.87890625,0.955835677987349,0
-2.16171556530753E-05,1.33723269755137E-05,0.87890625,0.954822502056715,0
-2.10476664506132E-05,1.49355009853025E-05,0.87890625,0.953807603000333,0
-1.62106643983861E-05,1.10565024442622E-05,0.87890625,0.952791382591577,0
-2.34149501920911E-05,1.3672596651304E-05,0.87890625,0.951774236614211,0
-1.92693078133743E-05,6.70901863486506E-06,0.87890625,0.950756554821859,0
-2.49597214860842E-05,7.06652053850121E-06,0.87890625,0.949738720900157,0
-2.18674722418655E-05,2.56951648225368E-06,0.87890625,0.948721112431257,0
-2.37628682953073E-05,4.1609118852648E-06,0.87890625,0.947704100860976,0
-2.27571363211609E-05,8.0377340054838E-06,0.87890625,0.946688051468509,0
-2.4587710868218E-05,1.71209812833695E-05,0.87890625,0.945673323338375,0
-2.28253375098575E-05,2.25359235628275E-05,0.87890625,0.944660269334906,0
-2.11150327231735E-05,2.09300687856739E-05,0.87890625,0.943649236079208,0
-2.12932445720071E-05,1.3344440048968E-05,0.87890625,0.942640563928319,0
-2.24019422603305E-05,4.26731139668846E-06,0.87890625,0.941634586956872,0
-2.46330382651649E-05,-5.54129826468852E-07,0.87890625,0.940631632940993,0
-2.32880775001831E-05,-1.48149138112785E-06,0.87890625,0.939632023344616,0
-2.287177630933E-05,2.22622861656419E-06,0.87890625,0.938636073307918,0
-2.14149131352315E-05,5.69589838050888E-06,0.87890625,0.937644091638144,0
-2.18746754399035E-05,9.35171738092322E-06,0.87890625,0.936656380802705,0
-2.0805760868825E-05,1.00291235867189E-05,0.87890625,0.935673236924219,0
-2.22711842070566E-05,1.05606886791065E-05,0.87890625,0.934694949777871,0
-2.25163912546122E-05,9.09047685127007E-06,0.87890625,0.933721802790847,0
-2.32043712458108E-05,7.94157494965475E-06,0.87890625,0.932754073044018,0
-2.26506090257317E-05,5.48148273082916E-06,0.87890625,0.931792031275518,0
-2.38238226302201E-05,4.319018444221E-06,0.87890625,0.930835941886501,0
-2.43360118474811E-05,4.02710838898201E-06,0.87890625,0.929886062948983,0
-2.40432091231924E-05,3.64073616765381E-06,0.87890625,0.928942646215487,0
-2.2998365238891E-05,3.23320227835211E-06,0.87890625,0.928005937130775,0
-2.19153516809456E-05,4.46924605057575E-06,0.87890625,0.927076174845562,0
-1.78433110704646E-05,4.78728679809137E-06,0.87890625,0.92615359223193,0
-2.63943311438197E-05,6.48728064334136E-06,0.87890625,0.925238415900738,0
-2.11092410609126E-05,5.43590658708126E-06,0.87890625,0.924330866220805,0
-2.51312358159339E-05,9.35463958740002E-06,0.87890625,0.923431157340004,0
-2.21666359720984E-05,1.19860387712833E-05,0.87890625,0.922539497207942,0
-2.59667140198871E-05,1.78220288944431E-05,0.87890625,0.921656087600508,0
-2.43836566369282E-05,2.59740700130351E-05,0.87890625,0.920781124146208,0
-2.53779544436838E-05,3.00864885502961E-05,0.87890625,0.91991479635399,0
-2.56574985542102E-05,1.90867667697603E-05,0.87890625,0.91905728764288,0
-2.67993018496782E-05,1.31863816932309E-06,0.87890625,0.918208775373134,0
-2.81728571280837E-05,-6.0456145547505E-06,0.87890625,0.917369430879036,0
-2.89013878500555E-05,1.29881272403765E-09,0.87890625,0.916539419503006,0
-3.00999181490624E-05,1.11382923932979E-05,0.87890625,0.915718900631351,0
-2.92638796963729E-05,2.03411091206362E-05,0.87890625,0.914908027731565,0
-2.99193288810784E-05,2.43486229010159E-05,0.87890625,0.914106948390865,0
-2.85762198473094E-05,1.60409799718764E-05,0.87890625,0.913315804356259,0
-2.95444133371348E-05,1.10300186406675E-06,0.87890625,0.912534731576058,0
-2.91267442662502E-05,-5.37096366315382E-06,0.87890625,0.911763860242516,0
-3.09758543153293E-05,2.04220395971788E-06,0.87890625,0.911003314835919,0
-3.08624839817639E-05,8.80772040545708E-06,0.87890625,0.91025321416988,0
-3.05875873891637E-05,6.34139632893493E-06,0.87890625,0.909513671438005,0
-2.78144470939878E-05,3.61177399099688E-06,0.87890625,0.908784794261546,0
-2.56953317148145E-05,9.83450172498124E-06,0.87890625,0.908066684738331,0
-2.33475147979334E-05,1.70914663613075E-05,0.87890625,0.907359439492908,0
-2.24406230699969E-05,1.72973595908843E-05,0.87890625,0.906663149727634,0
-2.35066254390404E-05,1.27919929582276E-05,0.87890625,0.905977901275035,0
-2.5991901566158E-05,1.00212828328949E-05,0.87890625,0.905303774651146,0
-2.15100280911429E-05,6.6700772549666E-06,0.87890625,0.904640845109948,0
-3.0313716706587E-05,7.11653137841495E-06,0.87890625,0.903989182698535,0
-2.2667094526696E-05,-6.56438237101042E-09,0.87890625,0.903348852313337,0
-2.89380022877594E-05,-2.39454902839498E-06,0.87890625,0.902719913757322,0
-2.51634573942283E-05,-4.60197588836309E-06,0.87890625,0.902102421797905,0
-2.75164256891003E-05,-6.51763230052893E-08,0.87890625,0.901496426225871,0
-2.39627279370325E-05,4.73681029689033E-06,0.87890625,0.900901971915051,0
-2.51681249210378E-05,9.5988652901724E-06,0.87890625,0.900319098882858,0
-2.45362516579917E-05,1.14934045996051E-05,0.87890625,0.899747842351385,0
-2.2984720999375E-05,1.31163242258481E-05,0.87890625,0.899188232809337,0
-2.18054174183635E-05,1.66992867889348E-05,0.87890625,0.898640296074728,0
-2.12911563721718E-05,2.28570552280871E-05,0.87890625,0.898104053358077,0
-2.37762378674233E-05,2.98963732348057E-05,0.87890625,0.897579521326355,0
-2.43076428887434E-05,3.63258586730808E-05,0.87890625,0.897066712167604,0
-2.70765722234501E-05,4.2489729821682E-05,0.87890625,0.896565633655928,0
-2.73444529739209E-05,4.36035224993248E-05,0.87890625,0.896076289217155,0
-2.89585168502526E-05,3.95678434870206E-05,0.87890625,0.895598677994919,0
-2.70022846962092E-05,3.00908432109281E-05,0.87890625,0.89513279491731,0
-2.64251066255383E-05,1.97379322344204E-05,0.87890625,0.894678630763751,0
-2.31787817028817E-05,9.6944386314135E-06,0.87890625,0.894236172232367,0
-2.05564792850055E-05,2.63101082964567E-06,0.87890625,0.893805402007762,0
-1.75725217559375E-05,-3.03641809296096E-06,0.87890625,0.893386298829029,0
-1.86008383025182E-05,-1.00303350336617E-05,0.87890625,0.892978837558307,0
-2.08611272682901E-05,-2.15961190406233E-05,0.87890625,0.892582989249631,0
-2.30414589168504E-05,-3.21760817314498E-05,0.87890625,0.892198721218157,0
-2.35698535107076E-05,-3.51636335835792E-05,0.87890625,0.891825997109433,0
-2.29539491556352E-05,-2.84897396340966E-05,0.87890625,0.89146477696898,0
-1.66249701578636E-05,-1.05311082734261E-05,0.87890625,0.891115017312076,0
-2.24120121856686E-05,-3.35117670147156E-06,0.87890625,0.890776671193488,0
-1.62874093803111E-05,1.26009554151096E-05,0.87890625,0.890449688277406,0
-2.06744953175075E-05,1.14428621600382E-05,0.87890625,0.890134014907497,0
-1.75588756974321E-05,1.60349536599824E-05,0.87890625,0.889829594176913,0
-2.14914543903433E-05,1.24515254356083E-05,0.87890625,0.889536365998537,0
-2.05554770218441E-05,1.20608228826313E-05,0.87890625,0.88925426717525,0
-2.23371316678822E-05,7.78053436079063E-06,0.87890625,0.888983231470294,0
-2.20938964048401E-05,6.5980016188405E-06,0.87890625,0.888723189677447,0
-2.25725871132454E-05,5.85806810704526E-06,0.87890625,0.888474069691261,0
-2.27652144531021E-05,5.37599453309667E-06,0.87890625,0.888235796577306,0
-2.30576497415314E-05,3.85103612643434E-06,0.87890625,0.888008292642178,0
-2.53828184213489E-05,-7.81691795737061E-08,0.87890625,0.88779147750354,0
-2.53364396485267E-05,-7.69949565437855E-07,0.87890625,0.887585268159993,0
-2.65225771727273E-05,5.07282493344974E-07,0.87890625,0.887389579060899,0
-2.53271155088441E-05,5.82581333219423E-06,0.87890625,0.887204322175886,0
-2.64672726189019E-05,8.56162205309374E-06,0.87890625,0.88702940706427,0
-2.72268080152571E-05,1.19504284157301E-05,0.87890625,0.886864740944292,0
-3.0263250664575E-05,1.31007473100908E-05,0.87890625,0.886710228761986,0
-2.93961420538835E-05,1.57201757247094E-05,0.87890625,0.886565773259907,0
-2.79016221611528E-05,1.68036694958573E-05,0.87890625,0.886431275045634,0
-2.48917076532962E-05,1.88833619176876E-05,0.87890625,0.886306632659832,0
-2.32619022426661E-05,2.02397332031978E-05,0.87890625,0.886191742644085,0
-2.09402405744186E-05,2.24264040298294E-05,0.87890625,0.886086499608306,0
-2.0033474356751E-05,2.15663985727588E-05,0.87890625,0.885990796297885,0
-2.00830636458704E-05,1.97658628167119E-05,0.87890625,0.885904523660332,0
-1.97057415789459E-05,2.0607614715118E-05,0.87890625,0.885827570911646,0
-1.55354264279595E-05,2.04681364266435E-05,0.87890625,0.885759825602336,0
-2.08615201700013E-05,3.11492985929362E-05,0.87890625,0.885701173682852,0
-1.47325854413793E-05,2.41005400312133E-05,0.87890625,0.885651499568719,0
-2.02126811927883E-05,2.62132361967815E-05,0.87890625,0.88561068620516,0
-1.98012185137486E-05,2.04017305804882E-05,0.87890625,0.885578615131346,0
-2.50380635407055E-05,2.58446743828245E-05,0.87890625,0.885555166543979,0
-2.52694753726246E-05,3.22255182254594E-05,0.87890625,0.885540219360454,0
-2.73391815426294E-05,4.69295555376448E-05,0.87890625,0.885533651281565,0
-2.78567877103342E-05,5.70593001611996E-05,0.87890625,0.88553533885361,0
-2.79568030236987E-05,5.98907899984624E-05,0.87890625,0.885545157530105,0
-2.76030714303488E-05,5.54270518478006E-05,0.87890625,0.885562981733027,0
-2.66560527961701E-05,4.41512129327748E-05,0.87890625,0.885588684913319,0
-2.62917565123644E-05,2.9830898711225E-05,0.87890625,0.885622139610855,0
-2.40300360019319E-05,1.23352756418171E-05,0.87890625,0.88566321751367,0
-2.41841662500519E-05,-1.84896077826124E-06,0.87890625,0.885711789516631,0
-2.34389190154616E-05,-1.63988606800558E-05,0.87890625,0.885767725779429,0
-2.42133828578517E-05,-2.65918024524581E-05,0.87890625,0.885830895784117,0
-2.28578919632128E-05,-3.50044210790657E-05,0.87890625,0.885901168392135,0
-2.31734447879717E-05,-3.62882419722155E-05,0.87890625,0.885978411900567,0
-2.20575020648539E-05,-3.44420186593197E-05,0.87890625,0.886062494097826,0
-2.26929423661204E-05,-2.8394082619343E-05,0.87890625,0.886153282318579,0
-2.2592377717956E-05,-2.139283787983E-05,0.87890625,0.886250643497998,0
-2.22411799768452E-05,-7.77935565565713E-06,0.87890625,0.886354444225151,0
-2.05835876840865E-05,7.85427437222097E-06,0.87890625,0.88614609510104,0
-1.94595886569005E-05,1.94651493075071E-05,0.87890625,0.886243590867506,0
-1.86990582733415E-05,2.23201659537153E-05,0.87890625,0.886195051656044,0
-2.0177552869427E-05,1.64922894327901E-05,0.87890625,0.886219529369953,0
-1.94809854292544E-05,3.83400856662774E-06,0.87890625,0.88628373546603,0
-2.8841737730545E-05,9.30476062421803E-07,0.87890625,0.886370958805602,0
-2.19392677536234E-05,-1.58841407937871E-06,0.87890625,0.886472776826133,0
-2.52910540439188E-05,3.23551353176299E-06,0.87890625,0.886584911155795,0
-2.14221145142801E-05,4.26280439569382E-06,0.87890625,0.886705155447673,0
-2.41079342231387E-05,6.83252937960788E-06,0.87890625,0.886832339322494,0
-2.29090383072617E-05,4.79488380733528E-06,0.87890625,0.886965810365004,0
-2.51872206717962E-05,5.05293655805872E-06,0.87890625,0.887105175146626,0
-2.50539524131455E-05,8.59565898281289E-06,0.87890625,0.887250169760666,0
-2.50027933361707E-05,1.60103281814372E-05,0.87890625,0.887400595113529,0
-2.54180104093393E-05,2.28961544053163E-05,0.87890625,0.887556284593538,0
-2.46747185883578E-05,2.19770990952384E-05,0.87890625,0.887717087927987,0
-2.50958000833634E-05,1.35557402245468E-05,0.87890625,0.887882863134079,0
-2.43395152210724E-05,5.80147707296419E-06,0.87890625,0.888053472516422,0
-2.60340148088289E-05,5.57845532966894E-06,0.87890625,0.88822878068731,0
-2.60605938819936E-05,7.78928551881108E-06,0.87890625,0.888408653598191,0
-2.6955982320942E-05,1.00784154710709E-05,0.87890625,0.888592958076317,0
-2.44643542828271E-05,1.05556891867309E-05,0.87890625,0.888781561613442,0
-2.38445009017596E-05,1.12227407953469E-05,0.87890625,0.888974332280266,0
-2.21376612898894E-05,1.04008613561746E-05,0.87890625,0.889171138703356,0
-2.21301343117375E-05,1.02440662885783E-05,0.87890625,0.889371850072758,0
-2.17837168747792E-05,9.29764519241871E-06,0.87890625,0.889576336164722,0
-2.40971949097002E-05,7.24671326679527E-06,0.87890625,0.889784467371601,0
-2.56930961768376E-05,3.93472691939678E-06,0.87890625,0.889996114734795,0
-2.6210105716018E-05,3.68955693375028E-06,0.87890625,0.890211149979009,0
-2.55867125815712E-05,7.28716395315132E-06,0.87890625,0.890429445546762,0
-2.55649101745803E-05,1.01395298770512E-05,0.87890625,0.890650874632477,0
-2.24692485062405E-05,8.30443150334759E-06,0.87890625,0.890875311216094,0
-3.31067785737105E-05,1.16735645860899E-05,0.87890625,0.891102630096027,0
-2.61882560153026E-05,1.22220808407292E-05,0.87890625,0.891332706921241,0
-3.08469534502365E-05,2.37949934671633E-05,0.87890625,0.891565418222759,0
-2.48979504249291E-05,3.13584969262592E-05,0.87890625,0.89180064144425,0
-2.70300952252001E-05,3.33264979417436E-05,0.87890625,0.892038254971888,0
-2.47545558522688E-05,2.37220301642083E-05,0.87890625,0.892278138163472,0
-2.65798680629814E-05,1.54311728692846E-05,0.87890625,0.892520171376616,0
-2.62151643255493E-05,1.5222934052872E-05,0.87890625,0.892764235996281,0
-2.57924566540169E-05,2.13570911000716E-05,0.87890625,0.893010214461616,0
-2.55998129432555E-05,2.65643338934751E-05,0.87890625,0.893257990291887,0
-2.54141759796767E-05,3.06065412587486E-05,0.87890625,0.893507448111725,0
-2.75767415587325E-05,3.53582181560341E-05,0.87890625,0.893758473675622,0
-2.72575707640499E-05,3.20823637594003E-05,0.87890625,0.894010953891503,0
-2.75776892522117E-05,1.70693510881392E-05,0.87890625,0.894264776843663,0
-2.36595969909104E-05,4.8614236902722E-07,0.87890625,0.894519831814996,0
-2.27377713599708E-05,-1.99215060092683E-06,0.87890625,0.894776009308328,0
-2.17135129787494E-05,4.81131928609102E-06,0.87890625,0.895033201067128,0
-2.33597111218842E-05,1.21773209684761E-05,0.87890625,0.895291300095532,0
-2.24480554606998E-05,1.47974751598667E-05,0.87890625,0.895550200677429,0
-2.38361899391748E-05,1.63461954798549E-05,0.87890625,0.895809798394857,0
-2.43956528720446E-05,1.57208123710006E-05,0.87890625,0.896069990145671,0
-2.59490861935774E-05,7.97547727415804E-06,0.87890625,0.896330674160317,0
-2.64538830379024E-05,-9.17302895686589E-06,0.87890625,0.896591750018014,0
-2.62627145275474E-05,-1.89753445738461E-05,0.87890625,0.896853118662339,0
-2.3616097678314E-05,-1.34762021843926E-05,0.87890625,0.897114682415966,0
-2.02298233489273E-05,-5.34157834408688E-06,0.87890625,0.897376344994824,0
-1.47286409628578E-05,2.36187702284951E-06,0.87890625,0.897638011521599,0
-2.15338513953611E-05,9.28788085730048E-06,0.87890625,0.897899588538268,0
-1.71577776200138E-05,1.53897417476401E-05,0.87890625,0.898160984018031,0
-2.0204832253512E-05,1.79379057954066E-05,0.87890625,0.898422107376606,0
-1.75516706804046E-05,1.85480439540697E-05,0.87890625,0.898682869482648,0
-2.11648402910214E-05,1.68636652233545E-05,0.87890625,0.898943182667659,0
-2.07267312362092E-05,1.56263777171262E-05,0.87890625,0.899202960735318,0
-2.20296387851704E-05,1.33460553115583E-05,0.87890625,0.899462118969926,0
-2.07299544854322E-05,1.07442019725568E-05,0.87890625,0.899720574144317,0
-1.93066662177444E-05,7.71673421695596E-06,0.87890625,0.899978244527188,0
-1.835347393353E-05,6.1012228798063E-06,0.87890625,0.900235049889579,0
-1.83238316822099E-05,6.11537279837648E-06,0.87890625,0.90049091151087,0
-2.11278875212884E-05,7.22329195923521E-06,0.87890625,0.900745752184268,0
-2.25599760597106E-05,8.5013771240483E-06,0.87890625,0.90099949622144,0
-2.43671893258579E-05,9.15558212000178E-06,0.87890625,0.901252069456678,0
-2.40027311519952E-05,9.43557643040549E-06,0.87890625,0.901503399250571,0
-2.53235139098251E-05,9.63830188993597E-06,0.87890625,0.901753414492824,0
-2.46610015892657E-05,1.0491658031242E-05,0.87890625,0.902002045604683,0
-2.47158441197826E-05,1.17020344987395E-05,0.87890625,0.902249224540858,0
-2.29888610192575E-05,1.39091443998041E-05,0.87890625,0.902494884790604,0
-2.25477742787916E-05,1.52773391164374E-05,0.87890625,0.902738961378413,0
-2.18138593481854E-05,1.49205261550378E-05,0.87890625,0.902981390864228,0
-2.22168600885198E-05,1.42032286021276E-05,0.87890625,0.903222111342842,0
-2.15617219510023E-05,1.40676311275456E-05,0.87890625,0.903461062442923,0
-2.12635495699942E-05,1.45106369018322E-05,0.87890625,0.903698185325616,0
-2.15301206480945E-05,1.50921414387994E-05,0.87890625,0.903933422682333,0
-2.14206920645665E-05,1.43750121424091E-05,0.87890625,0.90416671873222,0
-1.78446643985808E-05,1.05883282230934E-05,0.87890625,0.904398019219244,0
-2.66554088739213E-05,1.63109871209599E-05,0.87890625,0.904627271408467,0
-2.30119367188308E-05,1.55919788085157E-05,0.87890625,0.904854424082042,0
-2.8663136617979E-05,2.14724004763411E-05,0.87890625,0.905079427534847,0
-2.52635290962644E-05,2.24619525397429E-05,0.87890625,0.905302233569355,0
-2.77413200819865E-05,2.7029436751036E-05,0.87890625,0.905522795490268,0
-2.61910845438251E-05,2.59859079960734E-05,0.87890625,0.905741068098817,0
-2.65570743067656E-05,2.53520811384078E-05,0.87890625,0.90595700768627,0
-2.32979327847715E-05,2.43829472310608E-05,0.87890625,0.906170572027208,0
-2.13312086998485E-05,2.19293233385542E-05,0.87890625,0.906381720372464,0
-2.13406983675668E-05,1.5468487617909E-05,0.87890625,0.90659041344128,0
-2.31471713050269E-05,7.14745101504377E-06,0.87890625,0.906796613413281,0
-2.72209690592717E-05,-5.25242569437978E-07,0.87890625,0.907000283920188,0
-2.8050280889147E-05,-1.01455816547968E-05,0.87890625,0.907201390036803,0
-2.77964372799033E-05,-1.8246037143399E-05,0.87890625,0.907399898271909,0
-2.38144839386223E-05,-2.4185663278331E-05,0.87890625,0.907595776558858,0
-2.27033615374239E-05,-2.35795450862497E-05,0.87890625,0.907788994245832,0
-2.13883922697278E-05,-1.8760791135719E-05,0.87890625,0.90797952208537,0
-2.21419049921678E-05,-8.75399382493924E-06,0.87890625,0.908167332223987,0
-2.04374809982255E-05,1.13276314550603E-06,0.87890625,0.908352398191112,0
-2.04612442757934E-05,8.18569969851524E-06,0.87890625,0.908534694887742,0
-2.04794941964792E-05,1.0379256309534E-05,0.87890625,0.908714198574801,0
-2.18875120481243E-05,1.21314178613829E-05,0.87890625,0.90889088686098,0
-2.20065339817666E-05,1.25263577501755E-05,0.87890625,0.909064738690724,0
-2.24394116230542E-05,1.12394354800927E-05,0.87890625,0.909235734331624,0
-2.26176416617818E-05,1.02810909083928E-05,0.87890625,0.90940385536163,0
-2.32481907005422E-05,1.152304776042E-05,0.87890625,0.909569084655982,0
-1.98896868823795E-05,1.07606865640264E-05,0.87890625,0.909731406373926,0
-2.8107855541748E-05,1.58080492838053E-05,0.87890625,0.909890805944925,0
-2.08513756660977E-05,1.31804727061535E-05,0.87890625,0.910047270055072,0
-2.55187205766561E-05,1.61060725076823E-05,0.87890625,0.910200786632926,0
-2.12275735975709E-05,1.30908392748097E-05,0.87890625,0.910351344835241,0
-2.54459064308321E-05,1.38054529088549E-05,0.87890625,0.910498935032517,0
-2.57162955676904E-05,1.22572437248891E-05,0.87890625,0.910643548794057,0
-2.66322022071108E-05,1.34297461045207E-05,0.87890625,0.910785178873283,0
-2.44942639255896E-05,1.41557220558752E-05,0.87890625,0.910923819192502,0
-2.36319538089447E-05,1.52905449795071E-05,0.87890625,0.911059464827596,0
-2.38293341681128E-05,1.664684714342E-05,0.87890625,0.911192111992593,0
-2.32192614930682E-05,1.68980386661133E-05,0.87890625,0.911321758023784,0
-2.37994609051384E-05,1.7856655176729E-05,0.87890625,0.911448401364145,0
-2.31523226830177E-05,1.73875669133849E-05,0.87890625,0.911572041547236,0
-2.50527336902451E-05,1.73328244272852E-05,0.87890625,0.911692679181073,0
-2.39454784605186E-05,1.66936897585401E-05,0.87890625,0.911810315931853,0
-2.427313120279E-05,1.83090905920835E-05,0.87890625,0.911924954507608,0
-2.35634270211449E-05,1.84711570909712E-05,0.87890625,0.912036598641446,0
-2.58563504758058E-05,1.85534718184499E-05,0.87890625,0.912145253075178,0
-2.55114737228723E-05,1.80820607056376E-05,0.87890625,0.912250923542437,0
-2.56943076237803E-05,1.90297287190333E-05,0.87890625,0.912353616751838,0
-2.51542151090689E-05,1.81639588845428E-05,0.87890625,0.912453340370096,0
-2.60333854384953E-05,1.63379900186555E-05,0.87890625,0.91255010300477,0
-2.58091331488686E-05,1.36499702421133E-05,0.87890625,0.912643914187428,0
-2.54926981142489E-05,1.20312706712866E-05,0.87890625,0.912734784356332,0
-2.51292822213145E-05,1.15567736429512E-05,0.87890625,0.91282272483919,0
-2.54703245445853E-05,1.1874406482093E-05,0.87890625,0.912907747835865,0
-2.0839594071731E-05,9.67538926488487E-06,0.87890625,0.912989866401091,0
-3.01250329357572E-05,1.2678089660767E-05,0.87890625,0.913069094426849,0
-2.46031631832011E-05,7.30939245841E-06,0.87890625,0.913145446625229,0
-3.00795800285414E-05,9.98180894384859E-06,0.87890625,0.913218938510848,0
-2.37600197579013E-05,1.23267636809032E-05,0.87890625,0.913289586383376,0
-2.57373103522696E-05,1.97971803572727E-05,0.87890625,0.913357407310112,0
-2.37435142480535E-05,2.2238722522161E-05,0.87890625,0.913422419108211,0
-2.61537697952008E-05,2.18155364564154E-05,0.87890625,0.913484640327444,0
-2.74450685537886E-05,1.8331391402171E-05,0.87890625,0.913544090232543,0
-2.86753529508132E-05,1.58285674842773E-05,0.87890625,0.913600788785699,0
-2.9135046133888E-05,1.46224610944046E-05,0.87890625,0.913654756629136,0
-2.81292177533032E-05,1.27498715301044E-05,0.87890625,0.913706015067382,0
-2.8710925107589E-05,1.1378148883523E-05,0.87890625,0.913754586050127,0
-2.76922473858576E-05,9.77844138105866E-06,0.87890625,0.913800492154676,0
-2.89714989776257E-05,8.94717959454283E-06,0.87890625,0.913843756568581,0
-2.715327173064E-05,4.96998518428882E-06,0.87890625,0.913884403072313,0
-2.68326439254452E-05,-1.02570133719837E-07,0.87890625,0.913922456022051,0
-2.39493710978422E-05,-5.10035943079856E-06,0.87890625,0.913957940332213,0
-2.33508089877432E-05,1.18676462079748E-06,0.87890625,0.913990881458614,0
-2.22327762458008E-05,2.33191731240368E-05,0.87890625,0.91402130538126,0
-2.41110374190612E-05,5.05544303450733E-05,0.87890625,0.914049238587349,0
-2.40549725276651E-05,6.23850792180747E-05,0.87890625,0.914074708054401,0
-2.30977566388901E-05,5.56773265998345E-05,0.87890625,0.914097741233197,0
-2.16905718843918E-05,3.70143570762593E-05,0.87890625,0.91411836603139,0
-2.2417860236601E-05,1.58271504915319E-05,0.87890625,0.914136610796715,0
-2.2777983758715E-05,-3.44506383953558E-06,0.87890625,0.914152504300348,0
-2.31163030548487E-05,-1.58568054757779E-05,0.87890625,0.914166075720285,0
-1.89438396773767E-05,-1.45010844789795E-05,0.87890625,0.914177354624948,0
-2.46419876930304E-05,-1.89313996088458E-05,0.87890625,0.91418637095664,0
-1.62659725901904E-05,-1.74739016074454E-05,0.87890625,0.9141931550157,0
-2.18042277992936E-05,-3.04036711895606E-05,0.87890625,0.91419773744432,0
-1.78650952875614E-05,-2.72984707407886E-05,0.87890625,0.914200149210584,0
-2.1174682842684E-05,-1.95438278751681E-05,0.87890625,0.914200421592701,0
-2.10281414183555E-05,-4.46046442448278E-06,0.87890625,0.914198586163014,0
-2.38027150771813E-05,4.27283839599113E-06,0.87890625,0.914194674772659,0
-2.41973448282806E-05,7.6833075581817E-06,0.87890625,0.914188719535845,0
-2.53423222602578E-05,5.65272239327896E-06,0.87890625,0.914180752814402,0
-2.59611970250262E-05,5.90081390328123E-06,0.87890625,0.914170807202591,0
-2.42726018768735E-05,1.01132491181488E-05,0.87890625,0.914158915511796,0
-2.44866114371689E-05,1.24630132631864E-05,0.87890625,0.914145110755948,0
-2.38948305195663E-05,1.52630200318526E-05,0.87890625,0.914129426136656,0
-2.53523212450091E-05,1.73005628312239E-05,0.87890625,0.914111895028652,0
-2.37988242588472E-05,2.18788882193621E-05,0.87890625,0.914092550965384,0
-2.45817082031863E-05,2.480090734025E-05,0.87890625,0.914071427624858,0
-2.38793199969223E-05,3.09170645778067E-05,0.87890625,0.914048558815311,0
-2.55157920037163E-05,3.54153344233055E-05,0.87890625,0.914023978461606,0
-2.55050199484685E-05,3.35969125444535E-05,0.87890625,0.913997720591365,0
-2.61198674706975E-05,1.89614911505487E-05,0.87890625,0.913969819321399,0
-2.3776074158377E-05,7.43100281397346E-06,0.87890625,0.913940308844364,0
-2.17955912376055E-05,1.05472008726792E-05,0.87890625,0.913909223415215,0
-2.02819992409786E-05,2.4372175175813E-05,0.87890625,0.913876597338344,0
-2.09189147426514E-05,2.96968755719718E-05,0.87890625,0.913842464954469,0
-2.22854032472242E-05,1.3733779269387E-05,0.87890625,0.913806860627894,0
-2.40989083977183E-05,-1.21321581900702E-05,0.87890625,0.913769818733984,0
-2.09766039915849E-05,-1.46894371937378E-05,0.87890625,0.9137313736469,0
-3.0185487048584E-05,-6.83943153489963E-06,0.87890625,0.913691559727217,0
-2.25371531996643E-05,1.70290495589143E-05,0.87890625,0.913650411310284,0
-2.63643723883433E-05,1.74224314832827E-05,0.87890625,0.91360796269434,0
-2.06563254323555E-05,1.94079984794371E-05,0.87890625,0.913564248128896,0
-2.14658139157109E-05,1.49177176353987E-05,0.87890625,0.913519301803337,0
-1.8304188415641E-05,1.82579606189393E-05,0.87890625,0.913473157835415,0
-2.18997138290433E-05,1.80055758391973E-05,0.87890625,0.913425850260478,0
-2.52369045483647E-05,1.66009449458215E-05,0.87890625,0.913377413020492,0
-2.75744569080416E-05,1.31923388835276E-05,0.87890625,0.913327879953386,0
-2.81773754977621E-05,9.60709621722344E-06,0.87890625,0.913277284782667,0
-2.7810210667667E-05,7.56072768126614E-06,0.87890625,0.913225661106937,0
-2.87878992821788E-05,1.79132439370733E-06,0.87890625,0.913173042390137,0
-2.59334428847069E-05,-4.49478966402239E-06,0.87890625,0.913119461951595,0
-2.37639014812885E-05,-9.01565817912342E-06,0.87890625,0.913064952956405,0
-2.06637432711432E-05,-3.2687582915969E-06,0.87890625,0.913009548406,0
-2.18462773773354E-05,5.01826161780627E-06,0.87890625,0.912953281128976,0
-2.18445602513384E-05,1.46068769026897E-05,0.87890625,0.912896183771819,0
-2.39699857047526E-05,1.83949941856554E-05,0.87890625,0.912838288790272,0
-2.37843705690466E-05,1.86391898751026E-05,0.87890625,0.912779628440523,0
-2.47196112468373E-05,1.43415927595925E-05,0.87890625,0.912720234770709,0
-2.42393016378628E-05,1.30838170662173E-05,0.87890625,0.912660139612711,0
-2.48322103288956E-05,1.44125433507725E-05,0.87890625,0.912599374573871,0
-2.40725003095577E-05,1.73570479091723E-05,0.87890625,0.912537971029356,0
-2.32144047913607E-05,1.80196147994138E-05,0.87890625,0.912475960114375,0
-2.27235941565596E-05,1.90085047506727E-05,0.87890625,0.912413372716711,0
-2.31621706916485E-05,2.00248086912325E-05,0.87890625,0.912350239469469,0
-1.921741568367E-05,1.41935088322498E-05,0.87890625,0.912286590744087,0
-2.77905182883842E-05,1.73965363501338E-05,0.87890625,0.912222456643282,0
-2.29725428653182E-05,7.32680564397015E-06,0.87890625,0.912157866994626,0
-2.9145823646104E-05,8.99869519344065E-06,0.87890625,0.912092851343953,0
-2.4544448024244E-05,6.18703870713944E-06,0.87890625,0.91202743894908,0
-2.63514339167159E-05,1.23368718050187E-05,0.87890625,0.911961658773798,0
-2.47947264142567E-05,1.72801828739466E-05,0.87890625,0.911895539481813,0
-2.64226837316528E-05,2.64506688836263E-05,0.87890625,0.911829109431284,0
-2.50727080128854E-05,3.49284237017855E-05,0.87890625,0.91176239666922,0
-2.47371299337829E-05,4.16100956499577E-05,0.87890625,0.911695428926197,0
-2.5472500055912E-05,4.26922561018728E-05,0.87890625,0.911628233611309,0
-2.49496461037779E-05,3.82204525521956E-05,0.87890625,0.911560837807349,0
-2.63502297457308E-05,3.37456658598967E-05,0.87890625,0.911493268265947,0
-2.65679682343034E-05,2.77158269454958E-05,0.87890625,0.911425551403236,0
-2.88458322756924E-05,2.00021386262961E-05,0.87890625,0.911357713295359,0
-2.90350053546717E-05,7.78154480940429E-06,0.87890625,0.911289779674242,0
-3.07942682411522E-05,-3.26171152664756E-06,0.87890625,0.911221775923614,0
-2.80039021163248E-05,-1.44730574902496E-05,0.87890625,0.911153727075057,0
-2.43600461544702E-05,-2.20911897486076E-05,0.87890625,0.911085657804671,0
-1.93249961739639E-05,-2.79369651252637E-05,0.87890625,0.911017592429638,0
-1.77372530743014E-05,-2.72158285952173E-05,0.87890625,0.910949554905051,0
-1.6096506442409E-05,-2.09581739909481E-05,0.87890625,0.910881568820961,0
-1.65927067428129E-05,-1.08908170659561E-05,0.87890625,0.910813657399354,0
-1.72469008248299E-05,-3.89290198654635E-06,0.87890625,0.910745843491618,0
-1.76937010110123E-05,4.03151261707535E-07,0.87890625,0.9106781495758,0
-1.70176699612057E-05,1.10979613054951E-06,0.87890625,0.910610597754079,0
-1.73027547134552E-05,-5.88021691783069E-07,0.87890625,0.910543209750382,0
-1.56826827151235E-05,8.7204813326025E-07,0.87890625,0.910476006908248,0
-2.40693952946458E-05,7.41851317798137E-06,0.87890625,0.910409010188695,0
-2.02915471163578E-05,1.75659279193496E-05,0.87890625,0.910342240168627,0
-2.4492512238794E-05,2.39859673456522E-05,0.87890625,0.910275717039163,0
-2.18357763515087E-05,2.37582808040315E-05,0.87890625,0.910209460604244,0
-2.30289915634785E-05,6.86878001943114E-06,0.87890625,0.910143490279479,0
-2.14096853596857E-05,-2.13415860343957E-05,0.87890625,0.910077825090938,0
-2.23371880565537E-05,-3.41632148774806E-05,0.87890625,0.91001248367439,0
-2.1157153241802E-05,-1.84551518032094E-05,0.87890625,0.909947484274424,0
-2.08486235351302E-05,5.1058173085039E-06,0.87890625,0.909882844743848,0
-2.0550198314595E-05,1.7226702766493E-05,0.87890625,0.909818582543223,0
-2.00110625883099E-05,1.6514686649316E-05,0.87890625,0.909754714740532,0
-2.19149824260967E-05,1.06523784779711E-05,0.87890625,0.909691258010805,0
-2.26910087803844E-05,6.13717793385149E-06,0.87890625,0.909628228636213,0
-2.34730978263542E-05,4.63922651761095E-06,0.87890625,0.90956564250607,0
-2.12481008929899E-05,5.13150644110283E-06,0.87890625,0.909503515117016,0
-2.12769227800891E-05,5.6001608754741E-06,0.87890625,0.909441861573375,0
-2.11075675906613E-05,6.1597784224432E-06,0.87890625,0.909380696587479,0
-2.20861529669492E-05,6.9029752012284E-06,0.87890625,0.90932003448042,0
-2.07655466510914E-05,8.08454296929995E-06,0.87890625,0.909259889182722,0
-2.06881886697374E-05,9.38118137128185E-06,0.87890625,0.909200274235213,0
-1.99157675524475E-05,1.05528306448832E-05,0.87890625,0.909141202790076,0
-1.93012147065019E-05,1.05404105852358E-05,0.87890625,0.909082687611859,0
-1.83280844794353E-05,1.03082911664387E-05,0.87890625,0.909024741078886,0
-1.84769724000944E-05,1.08087642729515E-05,0.87890625,0.908967375184561,0
-1.91715680557536E-05,1.36700391522027E-05,0.87890625,0.908910601538874,0
-2.02667397388723E-05,1.68233818840235E-05,0.87890625,0.908854431369994,0
-1.77109614014626E-05,1.68595488503342E-05,0.87890625,0.908798875526022,0
-2.63277379417559E-05,3.19104401569348E-05,0.87890625,0.908743944476693,0
-2.09046811505686E-05,4.1231181967305E-05,0.87890625,0.908689648315469,0
-2.45932787947822E-05,5.79310035391245E-05,0.87890625,0.908635996761566,0
-2.08928195206681E-05,6.43550883978605E-05,0.87890625,0.908582999162196,0
-2.29133875109255E-05,7.27369333617389E-05,0.87890625,0.908530664494953,0
-2.17700071516447E-05,7.08618099451996E-05,0.87890625,0.908479001370138,0
-2.55402374023106E-05,5.79563056817278E-05,0.87890625,0.908428018033372,0
-2.72794222837547E-05,2.24011200771201E-05,0.87890625,0.908377722368057,0
-2.70624041149858E-05,-1.59165447257692E-05,0.87890625,0.908328121897914,0
-2.52095123869367E-05,-3.10283430735581E-05,0.87890625,0.908279223789596,0
-2.33341452258173E-05,-2.60228171100607E-05,0.87890625,0.908231034855494,0
-2.45909704972291E-05,-1.85836433956865E-05,0.87890625,0.908183561556587,0
-2.59718053712277E-05,-2.56731273111654E-05,0.87890625,0.908136810005581,0
-2.95923364319606E-05,-4.19782045355532E-05,0.87890625,0.908090785969875,0
-2.9707252906519E-05,-4.97000728501007E-05,0.87890625,0.90804549487462,0
-2.99774364975747E-05,-2.99407656711992E-05,0.87890625,0.908000941805925,0
-2.81044121948071E-05,2.98830377687409E-06,0.87890625,0.907957131514032,0
-2.81587836070685E-05,3.31274495692924E-05,0.87890625,0.907914068416711,0
-2.62625635514269E-05,5.07682598254178E-05,0.87890625,0.907871756602452,0
-2.5134751922451E-05,5.78049293835647E-05,0.87890625,0.907830199833773,0
-2.35910338233225E-05,4.91999307996593E-05,0.87890625,0.907789401550729,0
-2.47141142608598E-05,2.49815166171175E-05,0.87890625,0.907749364874432,0
-2.60852993960725E-05,-1.48040544445394E-06,0.87890625,0.907710092610802,0
-2.6443283786648E-05,-1.22750880109379E-05,0.87890625,0.907671587254119,0
-2.37981803365983E-05,-1.62896521942457E-05,0.87890625,0.907633850990651,0
-2.08397450478515E-05,-2.18250606849324E-05,0.87890625,0.9075968857024,0
-1.64895445777802E-05,-1.80064889718778E-05,0.87890625,0.907560692971016,0
-2.55044997174991E-05,-2.05767919396749E-05,0.87890625,0.907525274081686,0
-2.24324267037446E-05,-6.31768079983885E-06,0.87890625,0.907490630027241,0
-2.74686608463526E-05,-5.84210738452384E-06,0.87890625,0.907456761512098,0
-2.52574245678261E-05,5.56092754777637E-06,0.87890625,0.907423668956219,0
-2.79771993518807E-05,1.21181237773271E-05,0.87890625,0.907391352499096,0
-2.60517426795559E-05,2.50462744588731E-05,0.87890625,0.907359812003696,0
-2.66518854914466E-05,3.11518742819317E-05,0.87890625,0.907329047060695,0
-2.57623141806107E-05,3.20610379276332E-05,0.87890625,0.907299056992672,0
-2.52444733632728E-05,2.95242607535329E-05,0.87890625,0.907269840858415,0
-2.48461310548009E-05,2.83417830360122E-05,0.87890625,0.907241397457231,0
-2.41174257098464E-05,2.58558084169636E-05,0.87890625,0.907213725333282,0
-2.57128813245799E-05,1.60687577590579E-05,0.87890625,0.907186822779802,0
-2.70738964900374E-05,1.51306278439733E-06,0.87890625,0.907160687843489,0
-2.97003862215206E-05,-1.78839582076762E-05,0.87890625,0.907135318328761,0
-2.88643186650006E-05,-2.75583679467672E-05,0.87890625,0.907110711802102,0
-2.87607908830978E-05,-2.39965393120656E-05,0.87890625,0.907086865596526,0
-2.73293808277231E-05,-8.24787730380194E-06,0.87890625,0.907063776816027,0
-2.72345532721374E-05,4.72135661766515E-06,0.87890625,0.907041442340173,0
-2.4715751351323E-05,1.28155988932122E-05,0.87890625,0.907019858828481,0
-2.30936384468805E-05,8.1105272329296E-06,0.87890625,0.906999022724783,0
-2.14768024306977E-05,-4.48986202172819E-06,0.87890625,0.906978930261618,0
-2.1884954549023E-05,-1.2211246030347E-05,0.87890625,0.906959577464695,0
-2.22344351641368E-05,-2.0292743556638E-06,0.87890625,0.906940960157313,0
-2.31072790484177E-05,1.44337973324582E-05,0.87890625,0.90692307396496,0
-2.38871962210396E-05,2.53545731538907E-05,0.87890625,0.906905914319767,0
-2.43582162511302E-05,2.9708262445638E-05,0.87890625,0.906889476465008,0
-1.94696185644716E-05,2.57592237176141E-05,0.87890625,0.906873755459654,0
-2.79355317616137E-05,3.75328309019096E-05,0.87890625,0.906858746182844,0
-2.19786488742102E-05,3.00123629131122E-05,0.87890625,0.906844443338524,0
-2.79142914223485E-05,3.83973347197752E-05,0.87890625,0.906830841459904,0
-2.48081159952562E-05,3.27536472468637E-05,0.87890625,0.906817934913929,0
-2.84745692624711E-05,3.58232064172626E-05,0.87890625,0.906805717905748,0
-2.63651108980412E-05,3.32285053445958E-05,0.87890625,0.906794184483076,0
-2.65014132310171E-05,3.54461189999711E-05,0.87890625,0.906783328540717,0.548792514025245
-2.62832963926485E-05,3.38067256961949E-05,0.87890625,0.906773143824928,0.548792514025245
-2.84921243292047E-05,3.19746250170283E-05,0.87890625,0.906763623937814,0.548792514025245
-3.06747315335087E-05,3.16013756673783E-05,0.87890625,0.906754762341696,0.548792514025245
-3.02870375890052E-05,2.93088032776723E-05,0.87890625,0.906746552363504,0.548792514025245
-2.94355486403219E-05,2.53786092798691E-05,0.87890625,0.90673898719905,0.548792514025245
-2.63239671767224E-05,1.73802491190145E-05,0.87890625,0.906732059917467,0.548792514025245
-2.63227047980763E-05,1.2444841559045E-05,0.87890625,0.90672576346548,0.548792514025245
-2.49642653216142E-05,7.00885993865086E-06,0.87890625,0.90672009067171,0.548792514025245
-2.54882615990937E-05,8.60387444845401E-06,0.87890625,0.906715034251022,0.548792514025245
-2.38410812016809E-05,1.24369198601926E-05,0.87890625,0.906710586808744,0.548792514025245
-2.39312175835948E-05,1.94055264728377E-05,0.87890625,0.906706740845068,0.548792514025245
-2.23921397264348E-05,1.55848738359055E-05,0.87890625,0.906703488759225,0.548792514025245
-2.40116696659243E-05,3.99692589780898E-06,0.87890625,0.906700822853669,0.548792514025245
-2.58450891124085E-05,-7.40302903068368E-06,0.87890625,0.906698735338221,0.548792514025245
-2.88160536001669E-05,-1.14402701001382E-05,0.87890625,0.906697218334249,0.548792514025245
-2.94945275527425E-05,-1.04942491816473E-05,0.87890625,0.906696263878739,0.548792514025245
-2.86963186226785E-05,4.39482710135053E-06,0.87890625,0.906695863928542,0.548792514025245
-2.80862823274219E-05,2.66867991740583E-05,0.87890625,0.906696010364411,0.548792514025245
-2.76537175523117E-05,3.97930962208193E-05,0.87890625,0.906696694994971,0.548792514025245
-2.13778967008693E-05,2.87198963633273E-05,0.87890625,0.906697909560658,0.548792514025245
-3.09060233121272E-05,3.42658022418618E-05,0.87890625,0.906699645737518,0.548792514025245
-2.4553048206144E-05,1.58713701239321E-05,0.87890625,0.906701895141215,0.548792514025245
-2.95140071102651E-05,1.60884355864255E-05,0.87890625,0.906704649330818,0.548792514025245
-2.22437811316922E-05,3.85313296646927E-06,0.87890625,0.906707899812576,0.548792514025245
-2.30188143177656E-05,1.1152707884321E-05,0.87890625,0.906711638043683,0.548792514025245
-2.06925378734013E-05,2.2655694920104E-05,0.87890625,0.906715855435926,0.548792514025245
-2.28531516768271E-05,5.83425717195496E-05,0.87890625,0.906720543359554,0.548792514025245
-2.31001340580406E-05,0.000100613717222586,0.87890625,0.906725693146921,0.548792514025245
-2.27783111768076E-05,0.000138892966788262,0.87890625,0.906731296096301,0.548792514025245
-2.16855660255533E-05,0.000165909979841672,0.87890625,0.906737343475776,0.548792514025245
-1.93454270629445E-05,0.000175354507518932,0.87890625,0.906743826527012,0.548792514025245
-1.86689794645645E-05,0.000162991578690708,0.87890625,0.906750736469132,0.548792514025245
-1.72002582985442E-05,0.000118970499897841,0.87890625,0.906758064502503,0.548792514025245
-1.90163918887265E-05,5.67555507586803E-05,0.87890625,0.906765801812029,0.548792514025245
-1.85047792911064E-05,-1.16400588012766E-05,0.87890625,0.906773939570337,0.548792514025245
-1.95742504729424E-05,-6.19560159975663E-05,0.87890625,0.906782468940738,0.548792514025245
-1.85475109901745E-05,-9.66286024777219E-05,0.87890625,0.906791381080481,0.548792514025245
-2.1538200599025E-05,-0.000114286325697321,0.87890625,0.906800667144032,0.548792514025245
-2.32913916988764E-05,-0.000133766239741817,0.87890625,0.906810318286623,0.548792514025245
-2.44834300247021E-05,-0.000156369991600513,0.87890625,0.90682032566779,0.548792514025245
-2.29309862334048E-05,-0.000175977271283045,0.87890625,0.906830680454502,0.548792514025245
-2.3239981601364E-05,-0.000171667750691995,0.87890625,0.906841373824306,0.548792514025245
-2.35056813835399E-05,-0.000141752607305534,0.87890625,0.906852396968448,0.548792514025245
-2.48222095251549E-05,-9.08753063413315E-05,0.87890625,0.906863741094545,0.548792514025245
-2.41366706177359E-05,-2.45227747655008E-05,0.87890625,0.906875397429223,0.548792514025245
-2.19168268813519E-05,4.76147688459605E-05,0.87890625,0.906887357220397,0.548792514025245
-1.67592770594638E-05,8.25960232759826E-05,0.87890625,0.906899611739655,0.548792514025245
-2.4974329789984E-05,0.000124062964459881,0.87890625,0.906912152284581,0.548792514025245
-2.1514004401979E-05,9.10918752197176E-05,0.87890625,0.906924970181577,0.548792514025245
-2.80732947430806E-05,9.79209362412803E-05,0.87890625,0.9069380567889,0.548792514025245
-2.65904600382783E-05,6.91396708134562E-05,0.87890625,0.906951403499259,0.548792514025245
-2.95269619527971E-05,5.62032728339545E-05,0.87890625,0.906965001742405,0.548792514025245
-2.7218144168728E-05,1.58053935592761E-05,0.87890625,0.90697884298738,0.548792514025245
-2.71293793048244E-05,-2.16429089050507E-05,0.87890625,0.906992918744777,0.548792514025245
-2.6191002689302E-05,-6.62826860207133E-05,0.87890625,0.907007220568599,0.548792514025245
-2.66851147898706E-05,-9.31751783355139E-05,0.87890625,0.90702174005834,0.548792514025245
-2.63692672888283E-05,-9.5803159638308E-05,0.87890625,0.907036468861368,0.548792514025245
-2.41021425608778E-05,-8.95747143658809E-05,0.87890625,0.907051398675148,0.548792514025245
-2.39652017626213E-05,-8.34895035950467E-05,0.87890625,0.907066521249638,0.548792514025245
-2.30926525546238E-05,-8.96762721822597E-05,0.87890625,0.907081828389625,0.548792514025245
-2.3457167117158E-05,-7.13785630068742E-05,0.87890625,0.907097311956553,0.548792514025245
-2.16338175960118E-05,-4.02260448026937E-05,0.87890625,0.907112963870502,0.548792514025245
-2.0999448679504E-05,-3.39905591317802E-06,0.87890625,0.907128776111951,0.548792514025245
-1.78461996256374E-05,6.97827590556699E-06,0.87890625,0.9071447407237,0.548792514025245
-1.62348078447394E-05,1.29728796309792E-05,0.87890625,0.907160849812503,0.548792514025245
-1.44228242788813E-05,1.20601007438381E-05,0.87890625,0.907177095551018,0.548792514025245
-1.58194561663549E-05,1.63477943715407E-05,0.87890625,0.907193470179897,0.548792514025245
-1.6214184142882E-05,1.18430734801223E-05,0.87890625,0.907209966009442,0.548792514025245
-1.57906288222875E-05,1.18452117021661E-05,0.87890625,0.907226575421415,0.548792514025245
-1.48927911141072E-05,1.44494961205055E-05,0.87890625,0.907243290870599,0.548792514025245
-1.57163412950467E-05,2.54017941188067E-05,0.87890625,0.907260104886497,0.548792514025245
-1.68168553500436E-05,3.94431226595771E-05,0.87890625,0.907277010074621,0.548792514025245
-1.73250518855639E-05,5.2119285101071E-05,0.87890625,0.907293999118005,0.548792514025245
-1.45867497849395E-05,4.5160784793552E-05,0.87890625,0.90731106477884,0.548792514025245
-2.14754672924755E-05,5.81701133341994E-05,0.87890625,0.907328199899703,0.548792514025245
-1.79587495949818E-05,3.29241120198276E-05,0.87890625,0.907345397404961,0.548792514025245
-2.34893395827385E-05,3.4989949199371E-05,0.87890625,0.907362650302223,0.548792514025245
-2.17298784264131E-05,1.64458870131057E-05,0.87890625,0.907379951683273,0.548792514025245
-2.40202953136759E-05,1.75921741174534E-05,0.87890625,0.907397294725246,0.548792514025245
-2.2526022803504E-05,9.66433071880601E-06,0.87890625,0.90741467269156,0.548792514025245
-2.28426433750428E-05,7.69555572333047E-06,0.87890625,0.90743207893308,0.548792514025245
-2.2720823835698E-05,-2.95548875328677E-06,0.87890625,0.907449506888822,0.548792514025245
-2.29340457735816E-05,-1.20892036648002E-05,0.87890625,0.90746695008696,0.548792514025245
-2.35179977607913E-05,-8.68877486936981E-06,0.87890625,0.907484402145997,0.548792514025245
-2.43908325501252E-05,7.02682245901087E-06,0.87890625,0.907501856775493,0.548792514025245
-2.6016485207947E-05,2.81773991446244E-05,0.87890625,0.907519307777104,0.548792514025245
-2.5031349650817E-05,2.83253866655286E-05,0.87890625,0.90753674904535,0.548792514025245
-2.50006560236216E-05,1.76449902937748E-05,0.87890625,0.907554174568617,0.548792514025245
-2.32822021644097E-05,5.84126473768265E-06,0.87890625,0.907571578429632,0.548792514025245
-2.30403566092718E-05,1.34033925860422E-05,0.87890625,0.907588954806197,0.548792514025245
-2.20948531932663E-05,2.1562924302998E-05,0.87890625,0.90760629797203,0.548792514025245
-2.40639110415941E-05,3.03531287499936E-05,0.87890625,0.907623602297033,0.548792514025245
-2.53929592872737E-05,3.09305542032234E-05,0.87890625,0.907640862247955,0.548792514025245
-2.70240270765498E-05,3.29918657371309E-05,0.87890625,0.907658072388859,0.548792514025245
-2.69631327682873E-05,3.07765076286159E-05,0.87890625,0.907675227381898,0.548792514025245
-2.74103786068736E-05,2.9969784009154E-05,0.87890625,0.907692321987506,0.548792514025245
-2.74555113719543E-05,2.86987597064581E-05,0.87890625,0.907709351064876,0.548792514025245
-2.82598430203507E-05,2.99047133012209E-05,0.87890625,0.907726309572573,0.548792514025245
-2.87253569695167E-05,3.00620868074475E-05,0.87890625,0.907743192568505,0.548792514025245
-2.77654307865305E-05,3.14111348416191E-05,0.87890625,0.907759995210246,0.548792514025245
-2.08077908609994E-05,2.68993826466613E-05,0.87890625,0.90777671275551,0.548792514025245
-2.77900671790121E-05,3.75183954020031E-05,0.87890625,0.907793340562003,0.548792514025245
-1.92377610801486E-05,2.74821195489494E-05,0.87890625,0.907809874087694,0.548792514025245
-2.66495571850101E-05,3.08936832880136E-05,0.87890625,0.907826308890841,0.548792514025245
-2.57824758591596E-05,1.78273694473319E-05,0.87890625,0.90784264063036,0.548792514025245
-3.19544815283734E-05,1.36016751639545E-05,0.87890625,0.907858865065553,0.548792514025245
-3.15381221298594E-05,9.26417396840407E-06,0.87890625,0.907874978056242,0.548792514025245
-3.33714851876721E-05,1.49782381413388E-05,0.87890625,0.907890975563136,0.548792514025245
-3.04363384202588E-05,1.89225575013552E-05,0.87890625,0.907906853647511,0.548792514025245
-2.75031234195922E-05,2.28993139899103E-05,0.87890625,0.907922608471334,0.548792514025245
-2.56991097558057E-05,2.66198894678382E-05,0.87890625,0.907938236297021,0.548792514025245
-2.45240480580833E-05,2.7709977075574E-05,0.87890625,0.90795373348752,0.548792514025245
-2.55925478995778E-05,2.82434048131108E-05,0.87890625,0.907969096505648,0.548792514025245
-2.46748804784147E-05,2.40465633396525E-05,0.87890625,0.907984321913883,0.548792514025245
-2.51598776230821E-05,2.12068371183705E-05,0.87890625,0.907999406374411,0.548792514025245
-2.21643367694924E-05,1.61201387527399E-05,0.87890625,0.908014346648432,0.548792514025245
-2.23195329454029E-05,1.66684294526931E-05,0.87890625,0.908029139595938,0.548792514025245
-2.17974356928607E-05,1.61940042744391E-05,0.87890625,0.908043782175758,0.548792514025245
-2.44872535404284E-05,1.80329025170067E-05,0.87890625,0.908058271444798,0.548792514025245
-2.43331433011917E-05,1.6646612493787E-05,0.87890625,0.908072604557847,0.548792514025245
-2.40632070926949E-05,1.8139740859624E-05,0.87890625,0.908086778767013,0.548792514025245
-2.28368080570363E-05,1.80466849997174E-05,0.87890625,0.908100791421592,0.548792514025245
-2.43509839492617E-05,1.82083622348728E-05,0.87890625,0.908114639967089,0.548792514025245
-2.41165107581764E-05,1.64447337738238E-05,0.87890625,0.908128321944762,0.548792514025245
-2.37060339713935E-05,1.55686993821291E-05,0.87890625,0.908141834991429,0.548792514025245
-2.36947562370915E-05,1.54385143105173E-05,0.87890625,0.908155176838417,0.548792514025245
-2.40466160903452E-05,1.80630941031268E-05,0.87890625,0.908168345311157,0.548792514025245
-1.97653735085623E-05,1.95119700947544E-05,0.87890625,0.908181338328434,0.548792514025245
-2.77714170806576E-05,3.31527917296626E-05,0.87890625,0.908194153902122,0.548792514025245
-2.01441671379143E-05,3.28193418681622E-05,0.87890625,0.908206790136013,0.548792514025245
-2.41236102738185E-05,3.59083969669882E-05,0.87890625,0.90821924522521,0.548792514025245
-1.89991478691809E-05,2.56280509347562E-05,0.87890625,0.908231517455816,0.548792514025245
-2.19529811147368E-05,2.04238403966883E-05,0.87890625,0.908243605203718,0.548792514025245
-2.20173988054739E-05,1.3470952580974E-05,0.87890625,0.908255506933939,0.548792514025245
-2.55018130701501E-05,1.16905421236879E-05,0.87890625,0.908267221200265,0.548792514025245
-2.69401298282901E-05,9.0629473561421E-06,0.87890625,0.90827874664394,0.548792514025245
-2.74386347882682E-05,4.24267136622802E-06,0.87890625,0.908290081993092,0.548792514025245
-2.73312471108511E-05,-2.93126186079462E-06,0.87890625,0.908301226061794,0.548792514025245
-2.59197549894452E-05,-6.45325417281128E-06,0.87890625,0.908312177749699,0.548792514025245
-2.53606322075939E-05,2.72451558203102E-07,0.87890625,0.908322936040673,0.548792514025245
-2.31536450883141E-05,8.64094909047708E-06,0.87890625,0.908333500002037,0.548792514025245
-2.44160528382054E-05,1.43441602631356E-05,0.87890625,0.908343868784086,0.548792514025245
-2.46779982262524E-05,1.25897477118997E-05,0.87890625,0.908354041618537,0.548792514025245
-2.57586107181851E-05,9.92842524283333E-06,0.87890625,0.908364017817746,0.548792514025245
-2.38171469391091E-05,5.77824175707065E-06,0.87890625,0.908373796773527,0.548792514025245
-2.46346826315857E-05,4.15424028687994E-06,0.87890625,0.908383377956616,0.548792514025245
-2.45454466494266E-05,1.34122615236265E-06,0.87890625,0.908392760915115,0.548792514025245
-2.56172043009428E-05,6.44021838525077E-07,0.87890625,0.908401945273633,0.548792514025245
-2.47035786742345E-05,-1.10695816601947E-06,0.87890625,0.908410930732771,0.548792514025245
-2.38542925217189E-05,-1.52412223997089E-06,0.87890625,0.908419717067547,0.548792514025245
-2.18521436181618E-05,-8.40036477711692E-07,0.87890625,0.908428304126491,0.548792514025245
-2.21972532017389E-05,1.3895318033974E-06,0.87890625,0.908436691831097,0.548792514025245
-2.46895069722086E-05,4.54601240562624E-06,0.87890625,0.908444880174181,0.548792514025245
-2.58214968198445E-05,8.51064578455407E-06,0.87890625,0.908452869219076,0.548792514025245
-1.81120849447325E-05,1.07937203210895E-05,0.87890625,0.908460659098389,0.548792514025245
-2.27099135372555E-05,1.57720751303714E-05,0.87890625,0.908468250013417,0.548792514025245
-1.58605689648539E-05,1.14465328806546E-05,0.87890625,0.908475642232471,0.548792514025245
-2.47071766352747E-05,1.29414602270117E-05,0.87890625,0.908482836089955,0.548792514025245
-2.27998862101231E-05,1.08406284198281E-05,0.87890625,0.908489831985816,0.548792514025245
-2.65176859102212E-05,1.22262208606116E-05,0.87890625,0.90849663038382,0.548792514025245
-2.56177791015944E-05,1.1961987183895E-05,0.87890625,0.908503231810685,0.548792514025245
-2.75622023764299E-05,1.26058976093191E-05,0.87890625,0.908509636854796,0.548792514025245
-2.69130105152726E-05,1.20610857266001E-05,0.87890625,0.908515846165588,0.548792514025245
-2.67801679001423E-05,1.28730107462616E-05,0.87890625,0.9085218604518,0.548792514025245
-2.69170723186107E-05,1.48066828842275E-05,0.87890625,0.908505625099173,0.641983695652174
-2.63225883827545E-05,1.51860622281674E-05,0.87890625,0.908511812402719,0.641983695652174
-2.7300293368171E-05,1.50245887198253E-05,0.87890625,0.908510558968894,0.641983695652174
-2.67875584540889E-05,1.3898693396186E-05,0.87890625,0.908513034985362,0.641983695652174
-2.77749841188779E-05,1.38418727146927E-05,0.87890625,0.908517278223056,0.641983695652174
-2.52756017289357E-05,1.27531648104195E-05,0.87890625,0.908522307953316,0.641983695652174
-2.50845732807647E-05,1.28142028188449E-05,0.87890625,0.908527634225536,0.641983695652174
-2.41714369622059E-05,1.31301067085587E-05,0.87890625,0.908533012506021,0.641983695652174
-2.54373808274977E-05,1.66421486937907E-05,0.87890625,0.908538320997383,0.641983695652174
-2.38433440244989E-05,1.81808190973243E-05,0.87890625,0.908543499296795,0.641983695652174
-2.33203081734246E-05,1.52219354276895E-05,0.87890625,0.908548517725023,0.641983695652174
-2.18976183532504E-05,9.904711987474E-06,0.87890625,0.908553361990849,0.641983695652174
-2.27438758884091E-05,9.83234713203274E-06,0.87890625,0.908558025521789,0.641983695652174
-2.25326402869541E-05,1.45649910336942E-05,0.87890625,0.908562505629323,0.641983695652174
-2.20572783291573E-05,2.05239593924489E-05,0.87890625,0.908566801591389,0.641983695652174
-2.15665368159534E-05,2.31089361477643E-05,0.87890625,0.908570913692136,0.641983695652174
-2.03404179046629E-05,2.14004321605898E-05,0.87890625,0.908574842741706,0.641983695652174
-1.40390475280583E-05,1.26509194160462E-05,0.87890625,0.908578589836017,0.641983695652174
-1.97871286218287E-05,1.38014183903579E-05,0.87890625,0.90858215623515,0.641983695652174
-1.7162827134598E-05,4.81079587189015E-06,0.87890625,0.90858554330239,0.641983695652174
-2.41433590417728E-05,6.80821494825068E-06,0.87890625,0.908588752473636,0.641983695652174
-2.21905684156809E-05,3.18787579089985E-06,0.87890625,0.908591785240616,0.641983695652174
-2.37996009673225E-05,3.95684310205979E-06,0.87890625,0.90859464314244,0.641983695652174
-2.22447870328324E-05,-8.87956412043422E-06,0.87890625,0.908597327761324,0.641983695652174
-2.4189954274334E-05,-2.77512554021087E-05,0.87890625,0.908599840718955,0.641983695652174
-2.28180506383069E-05,-3.95286624552682E-05,0.87890625,0.908602183674621,0.641983695652174
-1.99736623471836E-05,-3.48779140040278E-05,0.87890625,0.908604358324239,0.641983695652174
-1.88142912520561E-05,-2.09079571504844E-05,0.87890625,0.908606366398412,0.641983695652174
-1.8419035768602E-05,-7.33740398572991E-06,0.87890625,0.908608209661362,0.641983695652174
-1.94729072973132E-05,1.63093216087873E-06,0.87890625,0.90860988991023,0.641983695652174
-1.92689876712393E-05,2.34556296163646E-06,0.87890625,0.908611408973107,0.641983695652174
-2.12571758311242E-05,9.90462822869631E-08,0.87890625,0.908612768707899,0.641983695652174
-2.22213602683041E-05,-2.36016785493121E-06,0.87890625,0.908613971001674,0.641983695652174
-2.46234649239341E-05,1.21624373150553E-06,0.87890625,0.908615017768698,0.641983695652174
-2.48900960286846E-05,4.8543752200203E-06,0.87890625,0.908615910950182,0.641983695652174
-2.54286496783607E-05,7.63953175919596E-06,0.87890625,0.908616652512533,0.641983695652174
-2.34679773711832E-05,7.08427933204803E-06,0.87890625,0.908617244446449,0.641983695652174
-2.27676500799134E-05,8.14467966847587E-06,0.87890625,0.908617688766419,0.641983695652174
-2.24523228098406E-05,8.78635091794422E-06,0.87890625,0.908617987509009,0.641983695652174
-2.3656340999878E-05,9.56904386839597E-06,0.87890625,0.908618142731933,0.641983695652174
-2.40801036852645E-05,8.08161985332845E-06,0.87890625,0.908618156513528,0.641983695652174
-2.44113998633111E-05,8.40127449919237E-06,0.87890625,0.908618030951025,0.641983695652174
-2.46782747126417E-05,1.22921910588047E-05,0.87890625,0.90861776815965,0.641983695652174
-2.553243211878E-05,1.90501268662047E-05,0.87890625,0.908617370272138,0.641983695652174
-2.12289178307401E-05,2.24590385187184E-05,0.87890625,0.908616839437052,0.641983695652174
-2.91455435217358E-05,3.66668464266695E-05,0.87890625,0.90861617781794,0.641983695652174
-2.17262477235636E-05,3.50029113178607E-05,0.87890625,0.90861538759291,0.641983695652174
-2.87965376628563E-05,4.41350639448501E-05,0.87890625,0.90861447095303,0.641983695652174
-2.53894231718732E-05,4.12558765674476E-05,0.87890625,0.908613430101547,0.641983695652174
-2.84722500509815E-05,3.99597229261417E-05,0.87890625,0.90861226725349,0.641983695652174
-2.5139899662463E-05,2.7883250368177E-05,0.87890625,0.908610984634074,0.641983695652174
-2.54472652159166E-05,1.58230068336707E-05,0.87890625,0.908609584477861,0.641983695652174
-2.37927888520062E-05,3.6108367567067E-06,0.87890625,0.908608069028269,0.641983695652174
-2.34074959735153E-05,-6.0037541516067E-06,0.87890625,0.908606440535898,0.641983695652174
-2.42820988205494E-05,-1.49900288306526E-05,0.87890625,0.908604701257687,0.641983695652174
-2.43756476265844E-05,-2.43378544837469E-05,0.87890625,0.908602853456537,0.641983695652174
-2.41970647039125E-05,-2.79878695437219E-05,0.87890625,0.908600899399831,0.641983695652174
-2.05536671273876E-05,-2.31812155107036E-05,0.87890625,0.908598841358763,0.641983695652174
-1.97099634533515E-05,-2.76007199317974E-06,0.87890625,0.908596681608045,0.641983695652174
-1.81560026248917E-05,2.46971703745658E-05,0.87890625,0.908594422424415,0.641983695652174
-2.03661747946171E-05,5.17707849212456E-05,0.87890625,0.908592066085882,0.641983695652174
-2.07129232876468E-05,6.35639880783856E-05,0.87890625,0.908589614871351,0.641983695652174
-2.33454538829392E-05,6.15854442003183E-05,0.87890625,0.908587071059221,0.641983695652174
-2.35763000091538E-05,4.72758583782706E-05,0.87890625,0.908584436926805,0.641983695652174
-2.4808998205117E-05,3.18396960210521E-05,0.87890625,0.908581714750102,0.641983695652174
-2.44974889938021E-05,1.55155630636727E-05,0.87890625,0.908578906802365,0.641983695652174
-2.59722928603878E-05,8.38231585476024E-07,0.87890625,0.908576015353343,0.641983695652174
-2.62069479504135E-05,-1.30187863760511E-05,0.87890625,0.908573042668904,0.641983695652174
-2.59014504990773E-05,-2.42664191318909E-05,0.87890625,0.908569991009634,0.641983695652174
-2.52465906669386E-05,-3.15284778480418E-05,0.87890625,0.908566862630297,0.641983695652174
-2.55222985288128E-05,-3.07409500237554E-05,0.87890625,0.908563659779698,0.641983695652174
-2.00315098481951E-05,-1.71739902725676E-05,0.87890625,0.908560384699465,0.641983695652174
-2.86929771391442E-05,-1.81208779395092E-05,0.87890625,0.908557039623513,0.641983695652174
-2.25842468353221E-05,3.08023345496622E-06,0.87890625,0.908553626777799,0.641983695652174
-2.74193334917072E-05,2.33029804803664E-05,0.87890625,0.908550148378974,0.641983695652174
-2.14848259929568E-05,4.94216365041211E-05,0.87890625,0.908546606633739,0.641983695652174
-2.30890891543822E-05,4.2352588934591E-05,0.87890625,0.908543003738609,0.641983695652174
-2.17171163967578E-05,2.60666638496332E-05,0.87890625,0.908539341878745,0.641983695652174
-2.51503952313215E-05,1.61345742526464E-05,0.87890625,0.908535623227539,0.641983695652174
-2.62929261225509E-05,1.71476112882374E-05,0.87890625,0.908531849946488,0.641983695652174
-2.5583029128029E-05,-1.86534941803984E-06,0.87890625,0.908528024183961,0.641983695652174
-2.20138408622006E-05,-4.24676509283017E-05,0.87890625,0.908524148074646,0.641983695652174
-1.68092356034322E-05,-6.96545539540239E-05,0.87890625,0.908520223739428,0.641983695652174
-1.6211939509958E-05,-6.2320425058715E-05,0.87890625,0.908516253284412,0.641983695652174
-1.77322544914205E-05,-2.89577201328939E-05,0.87890625,0.908512238800766,0.641983695652174
-2.27954515139572E-05,4.29011515734601E-06,0.87890625,0.908508182364842,0.641983695652174
-2.43598278757418E-05,3.03278720821254E-05,0.87890625,0.908504086037138,0.641983695652174
-2.64560858340701E-05,4.18586241721641E-05,0.87890625,0.908499951861771,0.641983695652174
-2.51410892815329E-05,4.62369389424566E-05,0.87890625,0.908495781866302,0.641983695652174
-2.52001955232117E-05,4.53535940323491E-05,0.87890625,0.908491578060718,0.641983695652174
-2.35527368204203E-05,4.83557996631134E-05,0.87890625,0.908487342437146,0.641983695652174
-2.37132971960818E-05,5.25525101693347E-05,0.87890625,0.908483076969855,0.641983695652174
-2.27268883463694E-05,5.65988739253953E-05,0.87890625,0.908478783614284,0.641983695652174
-2.2699399778503E-05,5.28573873452842E-05,0.87890625,0.908474464306706,0.641983695652174
-2.15447180380579E-05,4.3320054828655E-05,0.87890625,0.908470120964209,0.641983695652174
-2.10535945370793E-05,2.69003230641829E-05,0.87890625,0.908465755483758,0.641983695652174
-2.23291717702523E-05,9.32752413973503E-07,0.87890625,0.908461369741849,0.641983695652174
-2.43676204263465E-05,-2.53080288530327E-05,0.87890625,0.908456965594449,0.641983695652174
-2.12528102565557E-05,-2.32625861826818E-05,0.87890625,0.908452544876085,0.641983695652174
-3.08308444800787E-05,-1.70613839145517E-05,0.87890625,0.908448109399646,0.641983695652174
-2.34722010645783E-05,1.47783448483096E-05,0.87890625,0.908443660956321,0.641983695652174
-2.86176236841129E-05,1.88214562513167E-05,0.87890625,0.908439201315514,0.641983695652174
-2.45538521994604E-05,2.79302021226613E-05,0.87890625,0.908434732223915,0.641983695652174
-2.67953600996407E-05,2.61529785348102E-05,0.87890625,0.908430255405605,0.641983695652174
-2.43079939536983E-05,3.04189743474126E-05,0.87890625,0.908425772561502,0.641983695652174
-2.66629886027658E-05,2.61400600720663E-05,0.87890625,0.908421285369092,0.641983695652174
-2.86332415271318E-05,2.09594072657637E-05,0.87890625,0.908416795482282,0.641983695652174
-3.0207627787604E-05,1.27757020891295E-05,0.87890625,0.908412304530774,0.641983695652174
-2.97604474326363E-05,5.8642972362577E-06,0.87890625,0.908407814120302,0.641983695652174
-2.61648056039121E-05,5.90250056120567E-06,0.87890625,0.908403325832218,0.641983695652174
-2.42005353356944E-05,7.70264523453079E-06,0.87890625,0.908398841223336,0.641983695652174
-2.29507604672108E-05,1.20311196951661E-05,0.87890625,0.908394361825769,0.641983695652174
-2.59142070717644E-05,1.15824159365729E-05,0.87890625,0.908389889146869,0.641983695652174
-2.65511316683842E-05,1.32578607008327E-05,0.87890625,0.908385424668689,0.641983695652174
-2.74694302788703E-05,1.07254536487744E-05,0.87890625,0.908380969848246,0.641983695652174
-2.52128247666406E-05,1.00088036560919E-05,0.87890625,0.908376526117159,0.641983695652174
-2.52793597610435E-05,6.65368133923039E-06,0.87890625,0.908372094881514,0.641983695652174
-2.43460872297874E-05,6.53001006867271E-06,0.87890625,0.908367677521854,0.641983695652174
-2.5324761736556E-05,4.19076559410314E-06,0.87890625,0.908363275392752,0.641983695652174
-2.46035870077321E-05,5.23051221534843E-06,0.87890625,0.908358889823156,0.641983695652174
-2.43549402512144E-05,6.69563405608642E-06,0.87890625,0.908354522116151,0.641983695652174
-2.33546870731516E-05,9.14554220798891E-06,0.87890625,0.908350173548892,0.641983695652174
-2.34662838920485E-05,1.12828884084593E-05,0.87890625,0.908345845372647,0.641983695652174
-2.37071253650356E-05,1.56452151713893E-05,0.87890625,0.908341538812407,0.641983695652174
-2.35938496189192E-05,1.83375959750265E-05,0.87890625,0.90833725506723,0.641983695652174
-1.8943579561892E-05,1.39026760734851E-05,0.87890625,0.908332995310028,0.641983695652174
-2.79319392575417E-05,1.74210163095267E-05,0.87890625,0.908328760687563,0.641983695652174
-2.21723712456878E-05,9.99356871034252E-06,0.87890625,0.908324552320449,0.641983695652174
-2.76172904705163E-05,1.47429009302869E-05,0.87890625,0.908320371303231,0.641983695652174
-2.59518037637463E-05,1.26945715237525E-05,0.87890625,0.908316218704063,0.641983695652174
-2.99027760775061E-05,1.56334681378212E-05,0.87890625,0.908312095565067,0.641983695652174
-2.70498203462921E-05,1.36658736664685E-05,0.87890625,0.908308002902197,0.641983695652174
-2.52455592999468E-05,1.45765852721524E-05,0.87890625,0.90830394170529,0.641983695652174
-2.22822509385878E-05,1.32376490000752E-05,0.87890625,0.908299912938209,0.641983695652174
-2.19237499550218E-05,1.04959544842131E-05,0.87890625,0.908295917538611,0.641983695652174
-2.32811034948099E-05,7.04455260347459E-06,0.87890625,0.908291956418363,0.641983695652174
-2.2841179088573E-05,4.80398330182652E-06,0.87890625,0.90828803046347,0.641983695652174
-2.26100237341598E-05,5.15747433382785E-06,0.87890625,0.908284140534176,0.641983695652174
-2.16908647416858E-05,6.16720581092522E-06,0.87890625,0.90828028746507,0.641983695652174
-2.36230516748037E-05,1.08115073089721E-05,0.87890625,0.908276472065273,0.641983695652174
-2.3298187443288E-05,1.25223959912546E-05,0.87890625,0.908272695118252,0.641983695652174
-2.45729643211234E-05,1.0366484275437E-05,0.87890625,0.908268957382253,0.641983695652174
-2.38418724620715E-05,4.26251654062071E-06,0.87890625,0.908265259590233,0.641983695652174
-2.43547365244012E-05,4.12731833421276E-06,0.87890625,0.908261602449961,0.641983695652174
-2.29532470257254E-05,6.78540254739346E-06,0.87890625,0.908257986644215,0.641983695652174
-2.34883609664394E-05,9.70071232586633E-06,0.87890625,0.90825441283066,0.641983695652174
-2.37373205891345E-05,8.45899103296688E-06,0.87890625,0.908250881642323,0.641983695652174
-2.4400464099017E-05,7.4053205025848E-06,0.87890625,0.908247393687592,0.641983695652174
-2.31024841923499E-05,5.49733522348106E-06,0.87890625,0.908243949550366,0.641983695652174
-2.1735922928201E-05,5.47373292647535E-06,0.87890625,0.908240549790286,0.641983695652174
-2.02446917683119E-05,7.69400503486395E-06,0.87890625,0.908237194942647,0.641983695652174
-2.03162999241613E-05,1.09956563392188E-05,0.87890625,0.908233885518907,0.641983695652174
-1.75752775248839E-05,8.86422003532061E-06,0.87890625,0.908230622006747,0.641983695652174
-2.57400297414279E-05,1.01960849860916E-05,0.87890625,0.908227404870283,0.641983695652174
-2.17021897697123E-05,4.14207261201227E-06,0.87890625,0.908224234550279,0.641983695652174
-2.84115849353839E-05,4.50222023573588E-06,0.87890625,0.908221111464402,0.641983695652174
-2.45532937697135E-05,2.3215111468744E-06,0.87890625,0.908218036007176,0.641983695652174
-2.37790136452531E-05,7.86942746344721E-06,0.87890625,0.908215008550491,0.641983695652174
-1.99571259145159E-05,1.21289949674974E-05,0.87890625,0.908212029443693,0.641983695652174
-2.17306860577082E-05,1.59596365847392E-05,0.87890625,0.908209099013802,0.641983695652174
-2.328329901502E-05,1.67947637237376E-05,0.87890625,0.9082062175658,0.641983695652174
-2.4692244551261E-05,1.65178589668358E-05,0.87890625,0.908203385382637,0.641983695652174
-2.48638843913795E-05,1.64079483511159E-05,0.87890625,0.908200602725765,0.641983695652174
-2.35214065469336E-05,1.65758738148725E-05,0.87890625,0.908197869835261,0.641983695652174
-2.36494342971127E-05,1.81441664608428E-05,0.87890625,0.908195186930072,0.641983695652174
-2.26478150580078E-05,1.79348298843252E-05,0.87890625,0.908192554208255,0.641983695652174
-2.37291533267125E-05,1.68000315170502E-05,0.87890625,0.908189971847268,0.641983695652174
-2.32380061788717E-05,1.39423436849029E-05,0.87890625,0.908187440003981,0.641983695652174
-2.42999249167042E-05,1.29838836073759E-05,0.87890625,0.908184958815178,0.641983695652174
-2.36529267567676E-05,1.10067630885169E-05,0.87890625,0.908182528397674,0.641983695652174
-2.53799626079854E-05,9.03298041521339E-06,0.87890625,0.908180148848551,0.641983695652174
-2.58164564002072E-05,6.25164921075339E-06,0.87890625,0.908177820245476,0.641983695652174
-2.6696940039983E-05,7.31818818167085E-06,0.87890625,0.908175542646755,0.641983695652174
-2.44007242145017E-05,1.27363000501646E-05,0.87890625,0.908173316091886,0.641983695652174
-2.26806787395617E-05,2.07579014386283E-05,0.87890625,0.908171140601728,0.641983695652174
-2.19348730752245E-05,2.4346491045435E-05,0.87890625,0.908169016178786,0.641983695652174
-2.27116834139451E-05,2.17437391256681E-05,0.87890625,0.908166942807547,0.641983695652174
-2.33506834774744E-05,9.35790467337938E-06,0.87890625,0.908164920454569,0.641983695652174
-2.44717557507101E-05,-1.11561166704632E-05,0.87890625,0.908162949069022,0.641983695652174
-2.02821120183216E-05,-1.63891454576515E-05,0.87890625,0.908161028582864,0.641983695652174
-2.88378796540201E-05,-1.32373015730991E-05,0.87890625,0.908159158911157,0.641983695652174
-2.19716257561231E-05,8.50325704959687E-06,0.87890625,0.908157339952411,0.641983695652174
-2.71150966000278E-05,9.53955350269098E-06,0.87890625,0.908155571588967,0.641983695652174
-2.2650849132333E-05,1.25523356473423E-05,0.87890625,0.908153853687069,0.641983695652174
-2.61342393059749E-05,8.32501245895401E-06,0.87890625,0.908152186097312,0.641983695652174
-2.47592197410995E-05,1.07459236460272E-05,0.87890625,0.908150568654767,0.641983695652174
-2.60135311691556E-05,1.05662047644728E-05,0.87890625,0.908149001179232,0.641983695652174
-2.4873645088519E-05,1.1581674698391E-05,0.87890625,0.908147483475557,0.641983695652174
-2.41967954934807E-05,1.09405627881642E-05,0.87890625,0.90814601533374,0.641983695652174
-2.38272023125319E-05,9.42283077165484E-06,0.87890625,0.908144596529447,0.641983695652174
-2.31638714467408E-05,9.61366367846495E-06,0.87890625,0.908143226824197,0.641983695652174
-2.48034848482348E-05,9.22681465453934E-06,0.87890625,0.90814190596566,0.641983695652174
-2.46978106588358E-05,1.25178157759365E-05,0.87890625,0.908140633687939,0.641983695652174
-2.75484126177616E-05,1.49751203935011E-05,0.87890625,0.90813940971192,0.641983695652174
-2.84771977021592E-05,1.65736364579061E-05,0.87890625,0.908138233745398,0.641983695652174
-3.03382221318316E-05,1.13444066300872E-05,0.87890625,0.908137105483623,0.641983695652174
-2.81173925031908E-05,7.59784052206669E-06,0.87890625,0.908136024609545,0.641983695652174
-2.63025031017605E-05,6.9463494583033E-06,0.87890625,0.908134990794134,0.641983695652174
-2.24897612497443E-05,1.27270195662277E-05,0.87890625,0.90813400369673,0.641983695652174
-2.17423203139333E-05,1.8837206880562E-05,0.87890625,0.908133062965152,0.641983695652174
-2.13343264476862E-05,2.59230364463292E-05,0.87890625,0.908132168236187,0.641983695652174
-2.18194527406013E-05,2.78879033430712E-05,0.87890625,0.90813131913582,0.641983695652174
-2.08583805942908E-05,2.43693375523435E-05,0.87890625,0.908130515279591,0.641983695652174
-1.96394630620489E-05,1.68658298207447E-05,0.87890625,0.90812975627298,0.641983695652174
-1.69399045262253E-05,1.13394198706374E-05,0.87890625,0.908129041711558,0.641983695652174
-1.51239410115522E-05,7.93043363955803E-06,0.87890625,0.908128371181454,0.641983695652174
-1.35137834149646E-05,4.42971077063703E-06,0.87890625,0.908127744259546,0.641983695652174
-2.20160254684743E-05,6.97605582899996E-06,0.87890625,0.908127160513755,0.641983695652174
-2.16186399484286E-05,5.56722079636529E-06,0.87890625,0.908126619503353,0.641983695652174
-2.58302934526E-05,6.71888255965314E-06,0.87890625,0.908126120779283,0.641983695652174
-2.2492076823255E-05,9.54530332819559E-06,0.87890625,0.908125663884247,0.641983695652174
-2.38227748923237E-05,1.93055639101658E-05,0.87890625,0.908125248353129,0.641983695652174
-2.30421046580886E-05,3.02486478176434E-05,0.87890625,0.908124873713154,0.641983695652174
-2.54768892773427E-05,4.65881785203237E-05,0.87890625,0.908124539484158,0.641983695652174
-2.64036025328096E-05,6.60747100482695E-05,0.87890625,0.90812424517894,0.641983695652174
-2.65049002337037E-05,7.91119746281765E-05,0.87890625,0.908123990303514,0.641983695652174
-2.67063642240828E-05,7.78256653575227E-05,0.87890625,0.908123774357711,0.641983695652174
-2.52881036431063E-05,6.21176004642621E-05,0.87890625,0.908123596835542,0.641983695652174
-2.32724596571643E-05,3.431737786741E-05,0.87890625,0.908123457225548,0.641983695652174
-1.96229011635296E-05,1.52984364376607E-06,0.87890625,0.908123355011029,0.641983695652174
-1.84018554136856E-05,-2.56304501817795E-05,0.87890625,0.908123289670211,0.641983695652174
-1.80055958480807E-05,-4.54499459010549E-05,0.87890625,0.908123260676289,0.641983695652174
-2.0898196453345E-05,-6.11951618338935E-05,0.87890625,0.908123267497939,0.641983695652174
-2.26688771363115E-05,-7.53257118049078E-05,0.87890625,0.908123309599683,0.641983695652174
-2.39946184592554E-05,-7.89695041021332E-05,0.87890625,0.908123386442333,0.641983695652174
-2.25965704885311E-05,-6.40073340036906E-05,0.87890625,0.908123497483396,0.641983695652174
-2.21367299673148E-05,-3.81640275008976E-05,0.87890625,0.908123642177225,0.641983695652174
-2.1662053768523E-05,-2.32160709856544E-05,0.87890625,0.908123819975337,0.641983695652174
-2.2706197341904E-05,-1.9445527868811E-05,0.87890625,0.90812403032637,0.641983695652174
-2.38157663261518E-05,-1.23493109640549E-05,0.87890625,0.908124272676043,0.641983695652174
-2.50805915129604E-05,-1.34844231070019E-06,0.87890625,0.908124546467109,0.641983695652174
-2.62582707364345E-05,5.44322074347292E-06,0.87890625,0.908124851139455,0.641983695652174
-2.69969677901827E-05,9.48512024478987E-06,0.87890625,0.90812518613015,0.641983695652174
-2.20410838664975E-05,1.29310501506552E-05,0.87890625,0.908125550873857,0.641983695652174
-3.07058689941186E-05,2.31179128604708E-05,0.87890625,0.908125944803071,0.641983695652174
-2.19136691157473E-05,2.16447788261576E-05,0.87890625,0.908126367348416,0.641983695652174
-2.73726691375487E-05,2.27455548156286E-05,0.87890625,0.908126817938965,0.641983695652174
-2.37869408010738E-05,2.11169899557717E-05,0.87890625,0.908127296002386,0.641983695652174
-2.76795490208315E-05,2.5513996661175E-05,0.87890625,0.908127800965318,0.641983695652174
-2.52153477049433E-05,2.83875324385008E-05,0.87890625,0.908128332253513,0.641983695652174
-2.63148085650755E-05,3.16106415994E-05,0.87890625,0.908128889292036,0.641983695652174
-2.57682586379815E-05,3.15229881380219E-05,0.87890625,0.908129471505508,0.641983695652174
-2.7334897822584E-05,2.98492432193598E-05,0.87890625,0.908130078318206,0.641983695652174
-2.92050408461364E-05,2.76611917797709E-05,0.87890625,0.908130709154389,0.641983695652174
-2.81320626527304E-05,2.44329567067325E-05,0.87890625,0.908131363438429,0.641983695652174
-2.72928355116164E-05,2.13688381336397E-05,0.87890625,0.908132040594981,0.641983695652174
-2.48225060204277E-05,1.66917343449313E-05,0.87890625,0.908132740049137,0.641983695652174
-2.5951478164643E-05,1.09000739030307E-05,0.87890625,0.908133461226584,0.641983695652174
-2.47276257141493E-05,2.04445268536801E-06,0.87890625,0.908134203553617,0.641983695652174
-2.38865522987908E-05,-4.85078999190591E-06,0.87890625,0.908134966457394,0.641983695652174
-1.99219848582288E-05,-9.49183140619425E-06,0.87890625,0.908135749366061,0.641983695652174
-2.07303401111858E-05,-9.26581105886726E-06,0.87890625,0.908136551708994,0.870770511921459
-2.20184920181055E-05,-5.39543134436826E-06,0.87890625,0.908137372917087,0.870770511921459
-2.47372190642636E-05,2.78319680546701E-06,0.87890625,0.908138212422915,0.870770511921459
-2.37134863709798E-05,9.00946088222554E-06,0.87890625,0.908139069661026,0.870770511921459
-2.20957917917985E-05,1.27498706206097E-05,0.87890625,0.908139944068012,0.870770511921459
-2.01172388187842E-05,1.5457502740901E-05,0.87890625,0.908140835082602,0.870770511921459
-2.16801563510671E-05,1.89968868653523E-05,0.87890625,0.908141742145785,0.870770511921459
-2.42435689870035E-05,2.23825918510556E-05,0.87890625,0.908142664701008,0.870770511921459
-2.57117935689166E-05,2.30147743423004E-05,0.87890625,0.908143602194276,0.870770511921459
-2.08383135031909E-05,1.6182491890504E-05,0.87890625,0.908144554074434,0.870770511921459
-2.82844812318217E-05,2.25234161916887E-05,0.87890625,0.908145519793275,0.870770511921459
-1.94003059732495E-05,1.95493375940714E-05,0.87890625,0.908146498805673,0.870770511921459
-2.49382701440481E-05,2.61480527115054E-05,0.87890625,0.908147490569737,0.870770511921459
-2.02356313820928E-05,2.32169459195575E-05,0.87890625,0.908148494546859,0.870770511921459
-2.15423078770982E-05,2.90482021227945E-05,0.87890625,0.908149510201974,0.870770511921459
-1.88336798601085E-05,2.98458198813023E-05,0.87890625,0.908150537003678,0.870770511921459
-2.11303085961845E-05,3.53361901943572E-05,0.87890625,0.908151574424393,0.870770511921459
-2.29746983677614E-05,4.12660228903405E-05,0.87890625,0.908152621940558,0.870770511921459
-2.43438389588846E-05,4.70384438813198E-05,0.87890625,0.908153679032705,0.870770511921459
-2.40175158978673E-05,5.00924361404032E-05,0.87890625,0.908154745185708,0.870770511921459
-2.30406476475764E-05,5.02011935168412E-05,0.87890625,0.908155819888891,0.870770511921459
-2.45796309172874E-05,4.99015804962255E-05,0.87890625,0.908156902636167,0.870770511921459
-2.47314765147166E-05,3.78542754333466E-05,0.87890625,0.908157992926166,0.870770511921459
-2.65356138697825E-05,1.72209583979566E-05,0.87890625,0.90815909026234,0.870770511921459
-2.55535560427234E-05,1.1503038876981E-06,0.87890625,0.908160194152945,0.870770511921459
-2.57969859376317E-05,3.41721397489891E-06,0.87890625,0.908161304111225,0.870770511921459
-2.29547094932059E-05,4.57732039649272E-06,0.87890625,0.908162419655513,0.870770511921459
-2.32853835768765E-05,-1.00487031886587E-05,0.87890625,0.90816354030941,0.870770511921459
-2.31310186791234E-05,-3.5389432014199E-05,0.87890625,0.908164665601952,0.870770511921459
-2.49104396061739E-05,-4.20457108702976E-05,0.87890625,0.908165795067662,0.870770511921459
-2.52511381404474E-05,-2.38256579905283E-05,0.87890625,0.908166928246812,0.870770511921459
-2.53922498814063E-05,3.18586035064072E-06,0.87890625,0.908168064685561,0.870770511921459
-2.32041511480929E-05,1.90536920854356E-05,0.87890625,0.908169203936043,0.870770511921459
-2.14001101994654E-05,2.39363398577552E-05,0.87890625,0.908170345556328,0.870770511921459
-2.0692770704045E-05,2.30863570322981E-05,0.87890625,0.908171489110332,0.870770511921459
-2.3092477931641E-05,1.78280697582522E-05,0.87890625,0.908172634167675,0.870770511921459
-2.16629377973732E-05,5.59907039132668E-06,0.87890625,0.908173780303786,0.870770511921459
-3.2593456126051E-05,3.18842580782075E-06,0.87890625,0.908174927099879,0.870770511921459
-2.61398909060517E-05,-8.17580314560473E-07,0.87890625,0.908176074142978,0.870770511921459
-2.9083381377859E-05,7.23365383237251E-06,0.87890625,0.908177221026007,0.870770511921459
-2.1461635697051E-05,1.01417390396819E-05,0.87890625,0.908178367347801,0.870770511921459
-2.1716405171901E-05,3.89161357361445E-07,0.87890625,0.908179512713266,0.870770511921459
-1.94530130102066E-05,-2.1372215996962E-05,0.87890625,0.908180656733357,0.870770511921459
-2.23289935092907E-05,-2.52866884693503E-05,0.87890625,0.908181799025129,0.870770511921459
-2.28391709242715E-05,-8.42276676848996E-06,0.87890625,0.908182939211871,0.870770511921459
-2.25455551117193E-05,1.30411954160081E-05,0.87890625,0.908184076923145,0.870770511921459
-2.14086758205667E-05,2.43440845224541E-05,0.87890625,0.908185211794951,0.870770511921459
-2.06606600841042E-05,2.4905071768444E-05,0.87890625,0.908186343469679,0.870770511921459
-2.313502409379E-05,2.152382148779E-05,0.87890625,0.90818747159613,0.870770511921459
-2.3637878257432E-05,1.90418995771324E-05,0.87890625,0.908188595829568,0.870770511921459
-2.45844803430373E-05,2.12393861147575E-05,0.87890625,0.908189715831779,0.870770511921459
-2.20404617721215E-05,2.35779061767971E-05,0.87890625,0.90819083127099,0.870770511921459
-2.2604097466683E-05,2.56793191510951E-05,0.87890625,0.908191941821957,0.870770511921459
-2.19853554881411E-05,2.58121453953208E-05,0.87890625,0.908193047165924,0.870770511921459
-2.30594469030621E-05,2.58129202848068E-05,0.87890625,0.908194146990637,0.870770511921459
-2.21630507439841E-05,2.34437338804128E-05,0.87890625,0.908195240990388,0.870770511921459
-2.38329448620789E-05,2.1016185201006E-05,0.87890625,0.908196328865926,0.870770511921459
-2.41541347349994E-05,1.57633203343721E-05,0.87890625,0.908197410324556,0.870770511921459
-2.46296876866836E-05,8.05978834250709E-06,0.87890625,0.908198485080058,0.870770511921459
-2.44359016505769E-05,-1.30721943492063E-07,0.87890625,0.908199552852664,0.870770511921459
-2.57186038652435E-05,-4.23759729528683E-06,0.87890625,0.908200613369049,0.870770511921459
-2.63528636423871E-05,-2.91075616587477E-06,0.87890625,0.908201666362389,0.870770511921459
-2.69022730208235E-05,-4.33826414791838E-07,0.87890625,0.90820271157232,0.870770511921459
-2.19255653064465E-05,-5.21643926276738E-07,0.87890625,0.908203748745096,0.870770511921459
-3.11505245917942E-05,1.25108527981865E-07,0.87890625,0.908204777633545,0.870770511921459
-2.362413033552E-05,3.80273786504404E-06,0.87890625,0.908205797997042,0.870770511921459
-2.94853052764665E-05,7.98185737949098E-06,0.87890625,0.908206809601505,0.870770511921459
-2.51728397415718E-05,1.06661036625155E-05,0.87890625,0.908207812219257,0.870770511921459
-2.7442420105217E-05,1.16486571641872E-05,0.87890625,0.908208805629101,0.870770511921459
-2.47118205152219E-05,1.18707603178336E-05,0.87890625,0.908209789616232,0.870770511921459
-2.62442408711649E-05,1.14904878500965E-05,0.87890625,0.908210763972206,0.870770511921459
-2.46803028858267E-05,1.17215913633117E-05,0.87890625,0.908211728494914,0.870770511921459
-2.36907817452447E-05,1.19319856821676E-05,0.87890625,0.908212682988574,0.870770511921459
-2.40148965531262E-05,1.16428764158627E-05,0.87890625,0.90821362726361,0.870770511921459
-2.32211641559843E-05,1.04467235360062E-05,0.87890625,0.908214561136746,0.870770511921459
-2.27134878514335E-05,9.44213570619468E-06,0.87890625,0.908215484430936,0.870770511921459
-2.0906918507535E-05,1.03038819361245E-05,0.87890625,0.908216396975346,0.870770511921459
-2.32240327022737E-05,1.13339601739426E-05,0.87890625,0.908217298605363,0.870770511921459
-2.37575641222065E-05,1.11851340989233E-05,0.87890625,0.908218189162461,0.870770511921459
-2.48915439442499E-05,1.02037183751236E-05,0.87890625,0.908219068494307,0.870770511921459
-2.25257226702524E-05,9.8530026662047E-06,0.87890625,0.908219936454654,0.870770511921459
-2.36862870224286E-05,1.10392147689709E-05,0.87890625,0.908220792903301,0.870770511921459
-2.44223228946794E-05,1.50144251165329E-05,0.87890625,0.908221637706069,0.870770511921459
-2.61021959886421E-05,2.02039864234393E-05,0.87890625,0.908222470734657,0.870770511921459
-2.40812569245463E-05,2.23638180614216E-05,0.87890625,0.908223291866749,0.870770511921459
-2.26589818339562E-05,2.06075965252239E-05,0.87890625,0.90822410098595,0.870770511921459
-2.1923331587459E-05,1.70897874340881E-05,0.87890625,0.908224897981774,0.870770511921459
-2.338198646612E-05,1.29768377519213E-05,0.87890625,0.908225682749626,0.870770511921459
-2.27993514272384E-05,8.3186987467343E-06,0.87890625,0.908226455190789,0.870770511921459
-2.16071239265148E-05,2.78746620097081E-06,0.87890625,0.908227215212239,0.870770511921459
-1.94955464394297E-05,-3.68615360457625E-06,0.87890625,0.908227962726722,0.870770511921459
-2.89585805148818E-05,-5.47205900147674E-06,0.87890625,0.908228697652655,0.870770511921459
-2.17649139813147E-05,2.95537097372289E-06,0.87890625,0.908229419914117,0.870770511921459
-2.41322977672098E-05,1.49388770296355E-05,0.87890625,0.908230129440863,0.870770511921459
-2.07410066650482E-05,2.37267067859648E-05,0.87890625,0.908230826168152,0.870770511921459
-2.4679749913048E-05,2.5533487132634E-05,0.87890625,0.908231510036804,0.870770511921459
-2.34326980717015E-05,2.24173672904726E-05,0.87890625,0.908232180993075,0.870770511921459
-2.47713269345695E-05,1.91792805708246E-05,0.87890625,0.908232838988608,0.870770511921459
-2.44666080106981E-05,1.72965010278858E-05,0.87890625,0.908233483980382,0.870770511921459
-2.50823668466182E-05,1.68506867339602E-05,0.87890625,0.908234115930658,0.870770511921459
-2.52263125730678E-05,1.87045316124568E-05,0.87890625,0.908234734806769,0.870770511921459
-2.36595169553766E-05,2.0609359125956E-05,0.87890625,0.908235340581166,0.870770511921459
-2.40663612203207E-05,1.46292040881235E-05,0.87890625,0.908235933231274,0.870770511921459
-2.39411820075475E-05,-2.32390016208228E-06,0.87890625,0.908236512739419,0.870770511921459
-2.49185050051892E-05,-1.7896059944178E-05,0.87890625,0.908237079092796,0.870770511921459
-2.18767472688342E-05,-1.85348926606821E-05,0.87890625,0.908237632283318,0.870770511921459
-2.0887013306492E-05,-7.49225546314847E-06,0.87890625,0.908238172307786,0.870770511921459
-2.04866100830259E-05,4.17586852563545E-06,0.87890625,0.908238699167856,0.870770511921459
-2.3719045202597E-05,1.19912374429987E-05,0.87890625,0.908239212870004,0.870770511921459
-2.51341061812127E-05,1.94722215383081E-05,0.87890625,0.908239713425456,0.870770511921459
-2.68323892669287E-05,2.78755105682649E-05,0.87890625,0.908240200849905,0.870770511921459
-2.62384910456603E-05,3.51552771462593E-05,0.87890625,0.908240675163563,0.870770511921459
-2.6358758987044E-05,3.86772262572777E-05,0.87890625,0.908241136391009,0.870770511921459
-2.47871666942956E-05,3.68117689504288E-05,0.87890625,0.908241584561249,0.870770511921459
-2.31009489652934E-05,2.91109117824817E-05,0.87890625,0.908242019707758,0.870770511921459
-2.16548160096863E-05,1.78684731508838E-05,0.87890625,0.908242441868258,0.870770511921459
-2.08635283343028E-05,6.84565884512267E-06,0.87890625,0.908242851084628,0.870770511921459
-1.73103690030985E-05,-1.23888287362206E-06,0.87890625,0.908243247402891,0.870770511921459
-2.66612933046417E-05,-6.98775556884357E-06,0.87890625,0.908243630872939,0.870770511921459
-2.28156859520823E-05,-1.53035252878908E-05,0.87890625,0.908244001548536,0.870770511921459
-2.68392996076727E-05,-2.27707841986557E-05,0.87890625,0.908244359487258,0.870770511921459
-2.13054299820215E-05,-3.05048142763553E-05,0.87890625,0.908244704750607,0.870770511921459
-2.08746769203572E-05,-3.36541124852374E-05,0.87890625,0.908245037403822,0.870770511921459
-1.90700338862371E-05,-2.88844876195071E-05,0.87890625,0.908245357515896,0.870770511921459
-2.12075628951425E-05,-1.75383484020131E-05,0.87890625,0.908245665159671,0.870770511921459
-2.16041025851155E-05,-4.08979803978582E-06,0.87890625,0.908245960411588,0.870770511921459
-2.2490417904919E-05,1.02663034340367E-05,0.87890625,0.908246243351568,0.870770511921459
-2.42521437030518E-05,2.87898601527559E-05,0.87890625,0.908246514062945,0.870770511921459
-2.57108858932042E-05,4.66095370939001E-05,0.87890625,0.908246772632125,0.870770511921459
-2.75492529908661E-05,5.68541036045644E-05,0.87890625,0.908247019148607,0.870770511921459
-2.65191392827546E-05,5.7523309806129E-05,0.87890625,0.908247253704989,0.870770511921459
-2.65356084128143E-05,5.03066585224587E-05,0.87890625,0.908247476397195,0.870770511921459
-2.57993870036444E-05,3.75231647922192E-05,0.87890625,0.908247687324322,0.870770511921459
-2.78827719739638E-05,2.11504702747334E-05,0.87890625,0.9082478865886,0.870770511921459
-2.74552094197134E-05,4.97013525091461E-06,0.87890625,0.908248074295337,0.870770511921459
-2.68105886789272E-05,-8.43103862280259E-06,0.87890625,0.908248250552502,0.870770511921459
-2.43194244831102E-05,-2.0433935787878E-05,0.87890625,0.908248415470582,0.870770511921459
-2.43677168327849E-05,-3.21640909533016E-05,0.87890625,0.908248569162426,0.870770511921459
-2.45480150624644E-05,-3.84481318178587E-05,0.87890625,0.90824871174336,0.870770511921459
-2.53848793363431E-05,-3.2838259357959E-05,0.87890625,0.908248843331015,0.870770511921459
-2.476797089912E-05,-1.62637825269485E-05,0.87890625,0.908248964045351,0.870770511921459
-2.43628874159185E-05,1.7768624047676E-06,0.87890625,0.908249074008739,0.870770511921459
-2.3965376385604E-05,1.46645297718351E-05,0.87890625,0.908249173345619,0.870770511921459
-2.29574197874172E-05,2.08325891435379E-05,0.87890625,0.908249262182334,0.870770511921459
-1.83840602403507E-05,1.50646919792052E-05,0.87890625,0.908249340647112,0.870770511921459
-2.74355625151657E-05,1.92948045878438E-05,0.87890625,0.908249408869792,0.870770511921459
-2.22031303565018E-05,1.47204536915524E-05,0.87890625,0.908249466981851,0.870770511921459
-2.51433484663721E-05,2.64076443272643E-05,0.87890625,0.908249515116286,0.870770511921459
-1.93407850019867E-05,3.10795112454798E-05,0.87890625,0.908249553407673,0.870770511921459
-2.16494663618505E-05,3.54448784491979E-05,0.87890625,0.908249581991913,0.870770511921459
-2.08231977012474E-05,3.00426036119461E-05,0.87890625,0.90824960100624,0.870770511921459
-2.29599863814656E-05,2.94649071292952E-05,0.87890625,0.908249610589358,0.870770511921459
-2.27825421461603E-05,2.91386186290765E-05,0.87890625,0.908249610881214,0.870770511921459
-2.23921560973395E-05,2.52000809268793E-05,0.87890625,0.908249602022981,0.870770511921459
-2.20823803829262E-05,1.58207221829798E-05,0.87890625,0.908249584156885,0.870770511921459
-2.1750558516942E-05,7.57123507355573E-06,0.87890625,0.908249557426219,0.870770511921459
-2.33397568081273E-05,6.08876962360227E-06,0.87890625,0.908249521975037,0.870770511921459
-2.34161288972246E-05,6.20727087152773E-06,0.87890625,0.908249477948094,0.870770511921459
-2.56435141636757E-05,9.22219987842254E-06,0.87890625,0.908249425490926,0.870770511921459
-2.6861802325584E-05,1.09190759758349E-05,0.87890625,0.908249364749614,0.870770511921459
-2.84921079583E-05,1.46542352013057E-05,0.87890625,0.908249295870772,0.870770511921459
-2.56452403846197E-05,1.65665587701369E-05,0.87890625,0.908249219001638,0.870770511921459
-2.47995922109112E-05,1.90875107364263E-05,0.87890625,0.908249134289822,0.870770511921459
-2.37708663917147E-05,1.68177266459679E-05,0.87890625,0.908249041883321,0.870770511921459
-2.40693461819319E-05,1.30653734231601E-05,0.87890625,0.908248941930382,0.870770511921459
-2.35207407968119E-05,1.0208633284492E-05,0.87890625,0.908248834579577,0.870770511921459
-2.49684762820834E-05,1.35092923301272E-05,0.87890625,0.908248719979545,0.870770511921459
-2.55020913755288E-05,1.88243866432458E-05,0.87890625,0.908248598278983,0.870770511921459
-2.60887718468439E-05,2.39071687246906E-05,0.87890625,0.908248469626749,0.870770511921459
-2.56235853157705E-05,2.55021677730838E-05,0.87890625,0.908248334171641,0.870770511921459
-2.47921998379752E-05,2.34065573749831E-05,0.87890625,0.908248192062456,0.870770511921459
-1.9341787265148E-05,1.42961871461011E-05,0.87890625,0.908248043447912,0.870770511921459
-2.81284719676478E-05,1.53220807987964E-05,0.87890625,0.908247888476768,0.870770511921459
-2.1905207177042E-05,7.34680361347273E-06,0.87890625,0.908247727297587,0.870770511921459
-2.55964223470073E-05,1.39649182528956E-05,0.87890625,0.908247560058723,0.870770511921459
-1.93535142898327E-05,1.20884542411659E-05,0.87890625,0.90824738690843,0.870770511921459
-1.97567751456518E-05,1.34886440719129E-05,0.87890625,0.908247207994639,0.870770511921459
-1.76510275196051E-05,4.90371121486533E-06,0.87890625,0.908247023465013,0.870770511921459
-2.11721999221481E-05,-3.2494724564458E-06,0.87890625,0.908246833466886,0.870770511921459
-2.26238571485737E-05,-7.22021923138527E-06,0.87890625,0.908246638147416,0.870770511921459
-2.28135577344801E-05,-1.77590027305996E-06,0.87890625,0.90824643765341,0.870770511921459
-2.2089740014053E-05,7.52175174056902E-06,0.87890625,0.908246232131344,0.870770511921459
-2.0468598449952E-05,1.17956160465837E-05,0.87890625,0.908246021727457,0.870770511921459
-2.12766462936997E-05,1.12972238639486E-05,0.87890625,0.908245806587465,0.870770511921459
-2.19848643610021E-05,7.46783643990057E-06,0.87890625,0.908245586856493,0.870770511921459
-2.47871630563168E-05,7.82564438850386E-06,0.87890625,0.908245362679116,0.870770511921459
-2.47847783612087E-05,8.99187944014557E-06,0.87890625,0.908245134199113,0.870770511921459
-2.64403588516871E-05,1.19398346214439E-05,0.87890625,0.908244901559491,0.870770511921459
-2.52593181357952E-05,1.15986458695261E-05,0.87890625,0.908244664902419,0.870770511921459
-2.49211843765806E-05,1.19587166409474E-05,0.87890625,0.908244424369346,0.870770511921459
-2.33704176935134E-05,9.79212927632034E-06,0.87890625,0.908244180100799,0.870770511921459
-2.43989888986107E-05,8.76630747370655E-06,0.87890625,0.908243932236379,0.870770511921459
-2.43424146901816E-05,7.72655221226159E-06,0.87890625,0.908243680914858,0.870770511921459
-2.52457157330355E-05,7.24500841897679E-06,0.87890625,0.908243426273949,0.870770511921459
-2.44387938437285E-05,4.97894188811188E-06,0.87890625,0.908243168450346,0.870770511921459
-2.31454105232842E-05,4.77899311590591E-06,0.87890625,0.908242907579659,0.870770511921459
-2.22149064939003E-05,6.93494030201691E-06,0.87890625,0.908242643796541,0.870770511921459
-2.32589209190337E-05,1.26082832139218E-05,0.87890625,0.908242377234481,0.870770511921459
-2.13872735912446E-05,1.45853382491623E-05,0.87890625,0.908242108025813,0.870770511921459
-3.40517508448102E-05,1.0158176337427E-05,0.87890625,0.908241836301837,0.870770511921459
-3.06633628497366E-05,-1.16005630843574E-05,0.87890625,0.908241562192635,0.870770511921459
-3.52401584677864E-05,-7.69558482716093E-06,0.87890625,0.908241285827129,0.870770511921459
-2.77805429504951E-05,3.94283733839984E-06,0.87890625,0.908241007333298,0.870770511921459
-2.66177503362997E-05,1.76551820914028E-05,0.87890625,0.90824072683805,0.870770511921459
-2.34226372413104E-05,1.50626274262322E-05,0.87890625,0.908240444467289,0.870770511921459
-2.50823759415653E-05,6.9552215791191E-06,0.87890625,0.908240160345793,0.870770511921459
-2.42667792917928E-05,8.39024835386226E-07,0.87890625,0.908239874597277,0.870770511921459
-2.34756025747629E-05,4.73148202217999E-06,0.87890625,0.908239587344148,0.870770511921459
-2.17062952287961E-05,1.56710575538455E-05,0.87890625,0.908239298707466,0.870770511921459
-1.94422136701178E-05,2.36108990065986E-05,0.87890625,0.908239008807056,0.870770511921459
-2.08248147828272E-05,2.60640154010616E-05,0.87890625,0.908238717761319,0.870770511921459
-2.20551228267141E-05,2.28333174163708E-05,0.87890625,0.908238425687361,0.870770511921459
-2.4292743546539E-05,2.12727263715351E-05,0.87890625,0.908238132701004,0.870770511921459
-2.27130803978071E-05,2.08067813218804E-05,0.87890625,0.908237838916936,0.870770511921459
-2.27735654334538E-05,2.55194518103963E-05,0.87890625,0.908237544448483,0.870770511921459
-2.09680329135153E-05,2.59301923506428E-05,0.87890625,0.908237249407574,0.870770511921459
-2.16456646739971E-05,1.7105874576373E-05,0.87890625,0.908236953904839,0.870770511921459
-2.11789974855492E-05,4.26658885999132E-07,0.87890625,0.908236658049401,0.870770511921459
-2.19462108361768E-05,-6.25579559709877E-06,0.87890625,0.908236361948884,0.870770511921459
-2.08438123081578E-05,2.82638723092532E-07,0.87890625,0.908236065709529,0.870770511921459
-2.15641866816441E-05,1.16578012239188E-05,0.87890625,0.908235769436025,0.870770511921459
-2.31617195822764E-05,1.70518305822043E-05,0.87890625,0.908235473231586,0.870770511921459
-2.57382835116005E-05,1.80199876922416E-05,0.87890625,0.908235177197871,0.870770511921459
-2.60319047811208E-05,1.71520005096681E-05,0.87890625,0.908234881435064,0.870770511921459
-2.46209219767479E-05,1.67564994626446E-05,0.87890625,0.908234586041657,0.870770511921459
-1.70337953022681E-05,1.45908015838359E-05,0.87890625,0.90823429111447,0.870770511921459
-2.25977255468024E-05,2.55513532465557E-05,0.87890625,0.908233996748777,0.870770511921459
-1.5904441170278E-05,2.86821650661295E-05,0.87890625,0.908233703038117,0.870770511921459
-2.11273163586156E-05,3.48192079400178E-05,0.87890625,0.908233410074387,0.870770511921459
-1.82983276317827E-05,2.78300703939749E-05,0.87890625,0.908233117947847,0.870770511921459
-2.08816418307833E-05,2.37230578932213E-05,0.87890625,0.908232826747302,0.870770511921459
