biceps_emg, triceps_emg, subject_position, position_estimate, brace_position
-2.53813705057837E-05,1.03699840110494E-05,1.40625,1.45315314108804,1.453092128331
-2.42206970142433E-05,8.05321451480268E-06,1.40625,1.45315796826521,1.453092128331
-2.57122574112145E-05,6.1543914853246E-06,1.40625,1.45316762031275,1.453092128331
-2.53914367931429E-05,5.6777475947456E-06,1.40625,1.45318209448646,1.453092128331
-2.5260962502216E-05,7.55756263970397E-06,1.40625,1.4532013876044,1.453092128331
-2.55566501436988E-05,8.65108540892834E-06,1.40625,1.45322549604723,1.453092128331
-2.60897359112278E-05,7.46138175600208E-06,1.40625,1.4532544157593,1.453092128331
-2.74005760729779E-05,6.82470636093058E-06,1.40625,1.45328814225098,1.453092128331
-2.54151891567744E-05,7.58300075176521E-06,1.40625,1.45332667060227,1.453092128331
-2.50558168772841E-05,9.23033076105639E-06,1.40625,1.45336999546801,1.453092128331
-2.28112712647999E-05,8.69701580086257E-06,1.40625,1.45341811108464,1.453092128331
-2.25649891945068E-05,7.43046757634147E-06,1.40625,1.45347101127879,1.453092128331
-2.19546946027549E-05,5.78230446990347E-06,1.40625,1.45352868947775,1.453092128331
-2.5222057956853E-05,7.05772799847182E-06,1.40625,1.45359113872197,1.453092128331
-2.60930028161965E-05,1.0735589057731E-05,1.40625,1.45365835167937,1.453092128331
-2.64562495431164E-05,1.58805814862717E-05,1.40625,1.45373032066161,1.453092128331
-2.42301139223855E-05,2.05156320589595E-05,1.40625,1.45380703764215,1.453092128331
-2.37517524510622E-05,2.51195142482175E-05,1.40625,1.45388849427662,1.453092128331
-2.39381588471588E-05,2.61074455920607E-05,1.40625,1.45397468192556,1.453092128331
-2.50701359618688E-05,2.26944284804631E-05,1.40625,1.45406559168004,1.453092128331
-2.57104766205885E-05,1.79514554474736E-05,1.40625,1.45416121439,1.453092128331
-2.50271186814643E-05,1.4817257579125E-05,1.40625,1.45426154069512,1.453092128331
-1.97535464394605E-05,1.15679313239525E-05,1.40625,1.45436656105765,1.453092128331
-2.85730602627154E-05,2.09270438062958E-05,1.40625,1.45447626579648,1.453092128331
-2.29214583669091E-05,2.50910870818188E-05,1.40625,1.4545906451223,1.453092128331
-2.95525805995567E-05,3.51071612385567E-05,1.40625,1.45470968917357,1.453092128331
-2.71981152764056E-05,4.00425997213461E-05,1.40625,1.45483338805373,1.453092128331
-3.01038307952695E-05,4.586111754179E-05,1.40625,1.45496173187004,1.453092128331
-2.69988195213955E-05,4.2572970414767E-05,1.40625,1.45509471077423,1.453092128331
-2.68403528025374E-05,3.51449089066591E-05,1.40625,1.45523231500532,1.453092128331
-2.49626846198225E-05,2.26494285016088E-05,1.40625,1.455374534934,1.453092128331
-2.40438675973564E-05,9.61798377829837E-06,1.40625,1.45552136110823,1.453092128331
-2.33673563343473E-05,-1.49061781939963E-06,1.40625,1.45567278429858,1.453092128331
-2.24447649088688E-05,-9.48856359173078E-06,1.40625,1.45582879554237,1.453092128331
-2.33879236475332E-05,-1.32368031700025E-05,1.40625,1.45598938618583,1.453092128331
-2.16693115362432E-05,-1.54891713464167E-05,1.40625,1.45615454792437,1.453092128331
-2.16157459362876E-05,-1.70957209775224E-05,1.40625,1.4563242728413,1.453092128331
-1.99812438950175E-05,-2.14150277315639E-05,1.40625,1.45649855344543,1.453092128331
-2.1179388568271E-05,-2.11374972423073E-05,1.40625,1.45667738270739,1.453092128331
-2.11735550692538E-05,-1.54084445966873E-05,1.40625,1.45686075409479,1.453092128331
-2.30669611482881E-05,-5.1141023504897E-06,1.40625,1.45704866160609,1.453092128331
-2.20587662624894E-05,3.34138917423843E-06,1.40625,1.45724109980285,1.453092128331
-2.19717003346886E-05,9.12692939891713E-06,1.40625,1.45743806384025,1.453092128331
-2.12782633752795E-05,1.13466176117072E-05,1.40625,1.45763954949579,1.453092128331
-2.31541816901881E-05,1.33429603010882E-05,1.40625,1.45784555319692,1.453092128331
-2.53338148468174E-05,1.37752422233461E-05,1.40625,1.45805607204793,1.453092128331
-2.71783974312712E-05,1.30674370666384E-05,1.40625,1.45827110385614,1.453092128331
-2.65109956671949E-05,1.13854775918298E-05,1.40625,1.45849064715762,1.453092128331
-2.48440610448597E-05,1.05145400084439E-05,1.40625,1.45871470124201,1.453092128331
-1.89373331522802E-05,9.54109782469459E-06,1.40625,1.45894326617644,1.453092128331
-2.59652388194809E-05,1.49814859469188E-05,1.40625,1.4591763428282,1.453092128331
-1.87978366739117E-05,1.26880077004898E-05,1.40625,1.45941393288625,1.453092128331
-2.46203526330646E-05,1.31643027998507E-05,1.40625,1.45965603888147,1.453092128331
-2.18026398215443E-05,8.76480680744862E-06,1.40625,1.45990266420582,1.453092128331
-2.54157675954048E-05,9.20898310141638E-06,1.40625,1.46015381313017,1.453092128331
-2.42238347709645E-05,1.02602616607328E-05,1.40625,1.46040949082085,1.453092128331
-2.46973413595697E-05,1.29420195662533E-05,1.40625,1.46066970335443,1.453092128331
-2.24572122533573E-05,1.2984179193154E-05,1.40625,1.46093445773091,1.453092128331
-2.24577033804962E-05,1.30676417029463E-05,1.40625,1.46120376188527,1.453092128331
-2.49995700869476E-05,1.40778811328346E-05,1.40625,1.46147762469758,1.453092128331
-2.63608926616143E-05,1.48572980833706E-05,1.40625,1.46175605600163,1.453092128331
-2.65362323261797E-05,1.54208573803771E-05,1.40625,1.46203906659228,1.453092128331
-2.42411242652452E-05,1.47064129123464E-05,1.40625,1.46232666823124,1.453092128331
-2.51231886068126E-05,1.55112338688923E-05,1.40625,1.46261887365158,1.453092128331
-2.4589049644419E-05,1.5695148249506E-05,1.40625,1.46291569656063,1.453092128331
-2.58001255133422E-05,1.57363265316235E-05,1.40625,1.46321715164157,1.453092128331
-2.46568524744362E-05,1.30191110656597E-05,1.40625,1.46352325455357,1.453092128331
-2.52648187597515E-05,1.11504068627255E-05,1.40625,1.46383402193046,1.453092128331
-2.41255002038088E-05,9.93291450868128E-06,1.40625,1.46414947137788,1.453092128331
-2.54015558311949E-05,1.09127095129224E-05,1.40625,1.46446962146868,1.453092128331
-2.60976976278471E-05,1.24381713249022E-05,1.40625,1.46479449173681,1.453092128331
-2.67652285401709E-05,1.6195288480958E-05,1.40625,1.46512410266939,1.453092128331
-2.46774179686327E-05,2.0462950487854E-05,1.40625,1.46545847569736,1.453092128331
-2.29390461754519E-05,2.28027602133807E-05,1.40625,1.46579763318466,1.453092128331
-2.34398376051104E-05,2.03553281608038E-05,1.40625,1.46614159841632,1.453092128331
-2.440408388793E-05,1.3257722457638E-05,1.40625,1.46649039558577,1.453092128331
-1.94820804608753E-05,3.26276381201751E-06,1.40625,1.46684404978119,1.453092128331
-2.79226260317955E-05,2.28677708946634E-06,1.40625,1.46720258697113,1.453092128331
-2.14854608202586E-05,4.01378110836959E-06,1.40625,1.46756603398934,1.453092128331
-2.55678169196472E-05,1.21883722385974E-05,1.40625,1.46793441851924,1.453092128331
-2.07409721042495E-05,1.30667240227922E-05,1.40625,1.46830776907813,1.453092128331
-2.3755244910717E-05,1.37699098559096E-05,1.40625,1.46868611500074,1.453092128331
-2.17927663470618E-05,1.3634356946568E-05,1.40625,1.46906948642196,1.453092128331
-2.36071282415651E-05,1.38880304803024E-05,1.40625,1.46945791425832,1.453092128331
-2.46657655225135E-05,1.17304871309898E-05,1.40625,1.46985143018829,1.453092128331
-2.56438506767154E-05,9.78232401394052E-06,1.40625,1.47025006663151,1.453092128331
-2.63462607108522E-05,8.73725275596371E-06,1.40625,1.47065385672716,1.453092128331
-2.62415833276464E-05,7.99471672507934E-06,1.40625,1.47106283431148,1.453092128331
-2.72306697297608E-05,7.66125413065311E-06,1.40625,1.4714770338948,1.453092128331
-2.56161001743749E-05,8.05090348876547E-06,1.40625,1.47189649063809,1.453092128331
-2.49708755291067E-05,9.79764263320249E-06,1.40625,1.47232124032912,1.453092128331
-2.18391069211066E-05,1.03834390756674E-05,1.40625,1.47275131935826,1.453092128331
-2.15274249057984E-05,1.00955130619695E-05,1.40625,1.47318676469379,1.453092128331
-1.98603702301625E-05,7.66942321206443E-06,1.40625,1.47362761385677,1.453092128331
-2.00452413992025E-05,5.76240745431278E-06,1.40625,1.47407390489533,1.453092128331
-1.91382496268488E-05,4.89737294628867E-06,1.40625,1.4745256763584,1.453092128331
-2.06357544811908E-05,6.86779958414263E-06,1.40625,1.47498296726923,1.453092128331
-2.05285978154279E-05,8.53342044138117E-06,1.40625,1.47544581709852,1.453092128331
-2.17258420889266E-05,9.94492347672349E-06,1.40625,1.47591426573748,1.453092128331
-2.32819238590309E-05,1.07030991784995E-05,1.40625,1.47638835347051,1.453092128331
-2.54525693890173E-05,1.17728031909792E-05,1.40625,1.47686812094752,1.453092128331
-2.56437651842134E-05,1.2092991710233E-05,1.40625,1.4773536091558,1.453092128331
-2.4031041903072E-05,1.05840435935534E-05,1.40625,1.47784485939155,1.453092128331
-1.77093479578616E-05,7.20793786967988E-06,1.40625,1.47834191323096,1.453092128331
-2.46217750827782E-05,1.07908317659167E-05,1.40625,1.47884481250108,1.453092128331
-1.99367987079313E-05,1.00901006589993E-05,1.40625,1.47935359925043,1.453092128331
-2.68589137704112E-05,1.3087151273794E-05,1.40625,1.47986831571931,1.453092128331
-2.36797641264275E-05,1.10925993794808E-05,1.40625,1.4803890043101,1.453092128331
-2.60355845966842E-05,1.19006263048504E-05,1.40625,1.48091570755729,1.453092128331
-2.39815744862426E-05,1.10150067484938E-05,1.40625,1.48144846809755,1.453092128331
-2.54122896876652E-05,1.22058763736277E-05,1.40625,1.48198732863964,1.453092128331
-2.44478524109581E-05,1.22399324027356E-05,1.40625,1.48253233193429,1.453092128331
-2.32568490901031E-05,1.03279653558275E-05,1.40625,1.48308352074409,1.453092128331
-2.24089253606508E-05,8.61371336213779E-06,1.40625,1.48364093781333,1.453092128331
-2.18241384573048E-05,8.54504378366983E-06,1.40625,1.48420462583794,1.453092128331
-2.25209623749834E-05,1.07551368273562E-05,1.40625,1.48477462743562,1.453092128331
-2.14078263525153E-05,1.17532053991454E-05,1.40625,1.48535098511608,1.453092128331
-2.27615746553056E-05,1.19318156066583E-05,1.40625,1.48593374125143,1.453092128331
-2.29785036935937E-05,9.77099352894584E-06,1.40625,1.48652293804683,1.453092128331
-2.58814616245218E-05,7.87368935561972E-06,1.40625,1.48711861751128,1.453092128331
-2.59281478065532E-05,6.18552394371363E-06,1.40625,1.48772082142866,1.453092128331
-2.68955554929562E-05,6.80485800330644E-06,1.40625,1.48832959132907,1.453092128331
-2.58319487329572E-05,8.12964844953967E-06,1.40625,1.48894496846051,1.453092128331
-2.59024345723446E-05,1.0213305358775E-05,1.40625,1.48956699376105,1.453092128331
-2.4750423108344E-05,1.10335386125371E-05,1.40625,1.49019570783121,1.453092128331
-2.49837830779143E-05,1.1013191397069E-05,1.40625,1.4908311509068,1.453092128331
-2.44329203269444E-05,1.0442064194649E-05,1.40625,1.49147336283199,1.453092128331
-2.47277093876619E-05,1.02132325991988E-05,1.40625,1.49212238303275,1.453092128331
-2.49857275775867E-05,1.03142638181453E-05,1.40625,1.49277825049073,1.453092128331
-2.51383171416819E-05,1.09077327579143E-05,1.40625,1.49344100371743,1.453092128331
-2.0563711586874E-05,8.03399507276481E-06,1.40625,1.49411068072884,1.453092128331
-2.94780584226828E-05,1.19443056973978E-05,1.40625,1.49478731902034,1.453092128331
-2.27849996008445E-05,1.13607202365529E-05,1.40625,1.49547095554204,1.453092128331
-2.8203374313307E-05,1.60862819029717E-05,1.40625,1.4961616266745,1.453092128331
-2.37443382502534E-05,1.57033809955465E-05,1.40625,1.49685936820492,1.453092128331
-2.57588908425532E-05,1.83637803274905E-05,1.40625,1.49756421530409,1.453092128331
-2.25522962864488E-05,1.92344123206567E-05,1.40625,1.49827620250409,1.453092128331
-2.33084210776724E-05,2.04650805244455E-05,1.40625,1.49899536367705,1.453092128331
-2.31680132856127E-05,1.93778287211899E-05,1.40625,1.49972173201492,1.453092128331
-2.44403527176473E-05,1.63113181770314E-05,1.40625,1.50045534001029,1.453092128331
-2.60676915786462E-05,1.29083200590685E-05,1.40625,1.50119621943813,1.453092128331
-2.60506294580409E-05,1.1314047696942E-05,1.40625,1.50194440133831,1.453092128331
-2.64651971519925E-05,1.28669416881166E-05,1.40625,1.50269991599866,1.453092128331
-2.4246370230685E-05,1.43252045745612E-05,1.40625,1.50346279293859,1.453092128331
-2.40484623645898E-05,1.62044325406896E-05,1.40625,1.50423306089309,1.453092128331
-2.22443759412272E-05,1.63943605002714E-05,1.40625,1.5050107477972,1.453092128331
-2.35021798289381E-05,1.63817730935989E-05,1.40625,1.50579588077094,1.453092128331
-2.23175120481756E-05,1.44397781696171E-05,1.40625,1.50658848610457,1.453092128331
-2.27058899326948E-05,1.28219990074285E-05,1.40625,1.50738858924439,1.453092128331
-2.16816933971131E-05,1.13785617941176E-05,1.40625,1.50819621477883,1.453092128331
-2.27633900067303E-05,1.15179800559417E-05,1.40625,1.50901138642504,1.453092128331
-2.2567464839085E-05,1.17173194666975E-05,1.40625,1.50983412701601,1.453092128331
-2.25574622163549E-05,1.17969202619861E-05,1.40625,1.51066445848828,1.453092128331
-2.16977714444511E-05,1.11339668364963E-05,1.40625,1.51150240187033,1.453092128331
-2.23292172449874E-05,1.1738583452825E-05,1.40625,1.51234797727152,1.453092128331
-2.3319111278397E-05,1.25510296129505E-05,1.40625,1.5132012038717,1.453092128331
-2.38949105551001E-05,1.26012428154354E-05,1.40625,1.51406209991129,1.453092128331
-1.8669234123081E-05,8.84389191924129E-06,1.40625,1.51493068268204,1.453092128331
-2.55740960710682E-05,1.10073460746207E-05,1.40625,1.51580696851824,1.453092128331
-1.82537005457561E-05,6.78240485285642E-06,1.40625,1.51669097278855,1.453092128331
-2.36293435591506E-05,9.38903122005286E-06,1.40625,1.51758270988845,1.453092128331
-2.11665610549971E-05,8.40102438814938E-06,1.40625,1.51848219323349,1.453092128331
-2.47243424382759E-05,1.1507528142829E-05,1.40625,1.51938943525315,1.453092128331
-2.3007321942714E-05,1.04269120129175E-05,1.40625,1.52030444738543,1.453092128331
-2.38701941270847E-05,1.07428741102922E-05,1.40625,1.52122724007203,1.453092128331
-2.22860635403777E-05,1.05378476291662E-05,1.40625,1.52215782275388,1.453092128331
-2.12650375033263E-05,1.050706487149E-05,1.40625,1.52309620386714,1.453092128331
-2.12788781936979E-05,1.06353627415956E-05,1.40625,1.52404239083952,1.453092128331
-2.14752089959802E-05,9.87388557405211E-06,1.40625,1.52499639008702,1.453092128331
-2.32154816330876E-05,1.00494817161234E-05,1.40625,1.52595820701104,1.453092128331
-2.3546735974378E-05,9.71125427895458E-06,1.40625,1.52692784599589,1.453092128331
-2.60372544289567E-05,1.00131328508724E-05,1.40625,1.52790531040662,1.453092128331
-2.59327280218713E-05,9.22537128644763E-06,1.40625,1.5288906025873,1.453092128331
-2.75877628155285E-05,1.03426191344624E-05,1.40625,1.52988372385955,1.453092128331
-2.76810806099093E-05,1.05379422166152E-05,1.40625,1.53088467452145,1.453092128331
-2.91279484372353E-05,1.11921708594309E-05,1.40625,1.53189345384656,1.453092128331
-2.73873993137386E-05,9.8692144092638E-06,1.40625,1.53291006008317,1.453092128331
-2.74025642283959E-05,8.62409706314793E-06,1.40625,1.53393449045379,1.453092128331
-2.70753025688464E-05,7.85160591476597E-06,1.40625,1.53496674115473,1.453092128331
-2.72245106316404E-05,9.3279049906414E-06,1.40625,1.5360068073561,1.453092128331
-2.49823115154868E-05,1.11802446554066E-05,1.40625,1.53705468320206,1.453092128331
-2.38036172959255E-05,1.24601192510454E-05,1.40625,1.53811036181155,1.453092128331
-2.46613653871464E-05,1.2862503353972E-05,1.40625,1.53917383527938,1.453092128331
-2.67318755504675E-05,1.28050542116398E-05,1.40625,1.54024509467782,1.453092128331
-2.19123776332708E-05,9.39570600166917E-06,1.40625,1.54132413005882,1.453092128331
-3.06380388792604E-05,1.25626038425253E-05,1.40625,1.54241093045668,1.453092128331
-2.28471653827E-05,8.52572793519357E-06,1.40625,1.54350548389132,1.453092128331
-2.9142127459636E-05,9.55618179432349E-06,1.40625,1.54460777737185,1.453092128331
-2.53893213084666E-05,5.32340754944016E-06,1.40625,1.54571779690059,1.453092128331
-2.88309984171065E-05,5.47164017916657E-06,1.40625,1.54683552747732,1.453092128331
-2.59864355030004E-05,4.50992138212314E-06,1.40625,1.54796095310417,1.453092128331
-2.5966821340262E-05,6.72740679874551E-06,1.40625,1.54909405679101,1.453092128331
-2.34132403420517E-05,8.06334082881222E-06,1.40625,1.55023482056146,1.453092128331
-2.27455329877557E-05,8.90122009877814E-06,1.40625,1.55138322545949,1.453092128331
-2.3260527086677E-05,8.75183559401194E-06,1.40625,1.55253925155632,1.453092128331
-2.32623842748581E-05,7.20678735888214E-06,1.40625,1.55370287795759,1.453092128331
-2.49697404797189E-05,7.68703193898546E-06,1.40625,1.55487408281068,1.453092128331
-2.47844345722115E-05,1.08493550214916E-05,1.40625,1.55605284331221,1.453092128331
-2.65185499301879E-05,1.74410361069022E-05,1.40625,1.55723913571571,1.453092128331
-2.54014576057671E-05,2.21468453673879E-05,1.40625,1.55843293533981,1.453092128331
-2.63918973359978E-05,2.34619456023211E-05,1.40625,1.55963421657703,1.453092128331
-2.46140007220674E-05,1.80734004970873E-05,1.40625,1.56084295290387,1.453092128331
-2.55644172284519E-05,1.20460244943388E-05,1.40625,1.56205911689199,1.453092128331
-2.56154999078717E-05,7.72647035773844E-06,1.40625,1.56328268022066,1.453092128331
-2.67503492068499E-05,7.85956854087999E-06,1.40625,1.56451361368982,1.453092128331
-2.4503384338459E-05,9.22097297006985E-06,1.40625,1.56575188723356,1.453092128331
-2.32675192819443E-05,1.08289614217938E-05,1.40625,1.56699746993392,1.453092128331
-2.15952914004447E-05,1.17594054245274E-05,1.40625,1.56825033003491,1.453092128331
-2.18466066144174E-05,1.22769033623626E-05,1.40625,1.56951043495665,1.453092128331
-2.3530337784905E-05,1.13662872536224E-05,1.40625,1.57077775130945,1.453092128331
-2.5666206056485E-05,9.79062770056771E-06,1.40625,1.57205224490782,1.453092128331
-2.08411656785756E-05,5.31958494320861E-06,1.40625,1.57333388078437,1.453092128331
-2.80187650787411E-05,5.43434771316242E-06,1.40625,1.57462262320383,1.453092128331
-1.86414526979206E-05,3.7181034713285E-06,1.40625,1.57591843567728,1.453092128331
-2.29771758313291E-05,9.05915385374101E-06,1.40625,1.57722128097674,1.453092128331
-1.71586307260441E-05,9.5076065917965E-06,1.40625,1.57853112115022,1.453092128331
-1.94959593500244E-05,9.26238863030449E-06,1.40625,1.57984791753695,1.453092128331
-1.88305293704616E-05,6.44093324808637E-06,1.40625,1.58117163078253,1.453092128331
-2.155922811653E-05,5.52606798009947E-06,1.40625,1.58250222085403,1.453092128331
-2.15267536987085E-05,5.06413789480575E-06,1.40625,1.58383964705488,1.453092128331
-2.16590269701555E-05,5.83520750296884E-06,1.40625,1.58518386803989,1.453092128331
-2.21613136091037E-05,6.75103046887671E-06,1.40625,1.5865348418304,1.453092128331
-2.20215206354624E-05,6.98496842232998E-06,1.40625,1.58789252582967,1.453092128331
-2.30673012993066E-05,7.48346155887702E-06,1.40625,1.5892568768384,1.453092128331
-2.18062305066269E-05,7.10006679582875E-06,1.40625,1.59062785107021,1.453092128331
-2.28642111324007E-05,7.04970625520218E-06,1.40625,1.59200540416715,1.453092128331
-2.20873043872416E-05,4.97712517244508E-06,1.40625,1.59338949121507,1.453092128331
-2.33755163208116E-05,3.82422967959428E-06,1.40625,1.59478006675895,1.453092128331
-2.17508859350346E-05,4.73148384116939E-06,1.40625,1.59617708481819,1.453092128331
-2.19672110688407E-05,8.73729641170939E-06,1.40625,1.597580498902,1.453092128331
-2.05560845643049E-05,1.07983460111427E-05,1.40625,1.5989902620248,1.453092128331
-2.09769550565397E-05,9.92866353044519E-06,1.40625,1.60040632672169,1.453092128331
-1.99330279428978E-05,7.4313811637694E-06,1.40625,1.60182864506406,1.453092128331
-2.09391873795539E-05,6.80478933645645E-06,1.40625,1.60325716867534,1.453092128331
-2.11146507353988E-05,7.80774189479416E-06,1.40625,1.60469184874677,1.453092128331
-2.04524749278789E-05,8.833996616886E-06,1.40625,1.60613263605314,1.453092128331
-1.9971334040747E-05,8.12558391771745E-06,1.40625,1.6075794809684,1.453092128331
-2.06783970497781E-05,7.09063670001342E-06,1.40625,1.60903233348123,1.453092128331
-1.79910857696086E-05,1.06467969089863E-05,1.40625,1.61049114321047,1.453092128331
-2.73653349722736E-05,2.41389752773102E-05,1.40625,1.61195585942065,1.453092128331
-2.38051543419715E-05,3.33088282786775E-05,1.40625,1.61342643103761,1.453092128331
-2.97354363283375E-05,4.18254130636342E-05,1.40625,1.61490280666477,1.453092128331
-2.63978272414533E-05,4.2462987039471E-05,1.40625,1.61638493460079,1.453092128331
-2.66414972429629E-05,3.96863142668735E-05,1.40625,1.61787276285907,1.453092128331
-2.25289986701682E-05,2.97161004709778E-05,1.40625,1.61936623918946,1.453092128331
-2.29346969717881E-05,1.74046817846829E-05,1.40625,1.62086531110169,1.453092128331
-2.26413758355193E-05,4.23138180849492E-06,1.40625,1.62236992588994,1.453092128331
-2.29597244469915E-05,-5.05142543261172E-06,1.40625,1.62388003065796,1.453092128331
-2.30187106353696E-05,-9.16277622309281E-06,1.40625,1.62539557234447,1.453092128331
-2.24991999857593E-05,-8.73600038175937E-06,1.40625,1.62691649774963,1.453092128331
-2.38578777498333E-05,-5.25688437846839E-06,1.40625,1.62844275356283,1.453092128331
-2.39013916143449E-05,-5.71990494790953E-06,1.40625,1.62997428639206,1.453092128331
-2.51130950346123E-05,-1.26851227832958E-05,1.40625,1.63151104279441,1.453092128331
-2.35752650041832E-05,-2.33171886065975E-05,1.40625,1.63305296930751,1.453092128331
-2.39204837271245E-05,-2.80551030300558E-05,1.40625,1.63460001248186,1.453092128331
-2.2692309357808E-05,-2.53939560934668E-05,1.40625,1.63615211891428,1.453092128331
-2.29137767746579E-05,-1.58494985953439E-05,1.40625,1.6377092352829,1.453092128331
-2.16179996641586E-05,-4.55895406048512E-06,1.40625,1.63927130838354,1.453092128331
-2.25388357648626E-05,5.95077062826022E-06,1.40625,1.64083828516673,1.453092128331
-2.38233769778162E-05,1.27854946185835E-05,1.40625,1.6424101127744,1.453092128331
-2.6162186259171E-05,1.70654220710276E-05,1.40625,1.64398673857585,1.453092128331
-2.52515928877983E-05,1.85470125870779E-05,1.40625,1.64556811020299,1.453092128331
-2.31997146329377E-05,1.85814824362751E-05,1.40625,1.64715417558537,1.453092128331
-2.20382062252611E-05,1.75897712324513E-05,1.40625,1.64874488298537,1.453092128331
-2.14655119634699E-05,1.71838855749229E-05,1.40625,1.65034018103321,1.453092128331
-1.7309028407908E-05,1.42802873597248E-05,1.40625,1.65194001876201,1.453092128331
-2.63996462308569E-05,2.15186028071912E-05,1.40625,1.6535443456423,1.453092128331
-2.26856973313261E-05,1.85798671736848E-05,1.40625,1.65515311161607,1.453092128331
-2.81330212601461E-05,2.28367953241104E-05,1.40625,1.65676626713005,1.453092128331
-2.50889042945346E-05,1.99820442503551E-05,1.40625,1.65838376316846,1.453092128331
-2.70369309873786E-05,2.30304012802662E-05,1.40625,1.66000555128514,1.453092128331
-2.49804725171998E-05,2.28230856009759E-05,1.40625,1.66163158363494,1.453092128331
-2.53265479841502E-05,2.50250959652476E-05,1.40625,1.66326181300448,1.453092128331
-2.5412009563297E-05,2.50003704422852E-05,1.40625,1.66489619284198,1.453092128331
-2.66394890786614E-05,2.40165481955046E-05,1.40625,1.66653467728643,1.453092128331
-2.73990481218789E-05,2.20046185859246E-05,1.40625,1.66817722119587,1.453092128331
-2.64790669461945E-05,1.86310080607655E-05,1.40625,1.66982378017473,1.453092128331
-2.65661965386244E-05,1.72298441611929E-05,1.40625,1.67147431059994,1.453092128331
-2.58897616731701E-05,1.67942052939907E-05,1.40625,1.67312876964553,1.453092128331
-2.76368573395303E-05,1.86220822797623E-05,1.40625,1.67478711530555,1.453092128331
-2.72090037469752E-05,1.74199321918422E-05,1.40625,1.67644930641523,1.453092128331
-2.67755112872692E-05,1.68271017173538E-05,1.40625,1.67811530267033,1.453092128331
-2.42589503613999E-05,1.55297948367661E-05,1.40625,1.67978506464485,1.453092128331
-2.43572721956298E-05,1.59812007041182E-05,1.40625,1.68145855380712,1.453092128331
-2.35299394262256E-05,1.50149207911454E-05,1.40625,1.68313573253445,1.453092128331
-2.34386698139133E-05,1.56358964886749E-05,1.40625,1.68481656412645,1.453092128331
-2.21349782805191E-05,1.56706173584098E-05,1.40625,1.68650101281702,1.453092128331
-2.22667804337107E-05,1.55810012074653E-05,1.40625,1.68818904378517,1.453092128331
-2.18772984226234E-05,1.29697036754806E-05,1.40625,1.68988062316449,1.453092128331
-2.17757042264566E-05,1.07947580545442E-05,1.40625,1.69157571805157,1.453092128331
-2.20689998968737E-05,1.09883321783855E-05,1.40625,1.6932742965132,1.453092128331
-2.24896157305921E-05,1.2609816621989E-05,1.40625,1.69497632759277,1.453092128331
-1.83846732397797E-05,9.9502667580964E-06,1.40625,1.69668178131587,1.453092128331
-2.61193272308446E-05,1.38533832796384E-05,1.40625,1.69839062869512,1.453092128331
-1.97899735212559E-05,1.01407331385417E-05,1.40625,1.70010284173419,1.453092128331
-2.51968976954231E-05,1.33246676341514E-05,1.40625,1.701818393431,1.453092128331
-2.18616787606152E-05,1.15519405881059E-05,1.40625,1.70353725778017,1.453092128331
-2.39188666455448E-05,1.25396409202949E-05,1.40625,1.70525940977456,1.453092128331
-2.16167882172158E-05,1.15656157504418E-05,1.40625,1.70698482540613,1.453092128331
-2.29297693294939E-05,1.15005250336253E-05,1.40625,1.70871348166586,1.453092128331
-2.29432316700695E-05,1.00188590295147E-05,1.40625,1.71044535654295,1.453092128331
-2.30670939345146E-05,8.5023475548951E-06,1.40625,1.71218042902324,1.453092128331
-2.40102945099352E-05,6.84527140037972E-06,1.40625,1.71391867908691,1.453092128331
-2.48235337494407E-05,4.87597753817681E-06,1.40625,1.71566008770565,1.453092128331
-2.66712304437533E-05,4.40400208390201E-06,1.40625,1.71740463683933,1.453092128331
-2.5907971576089E-05,4.59586226497777E-06,1.40625,1.71915230943239,1.453092128331
-2.61517416220158E-05,6.92886305841967E-06,1.40625,1.72090308940977,1.453092128331
-2.37158019444905E-05,8.65103993419325E-06,1.40625,1.72265696167253,1.453092128331
-2.36740088439547E-05,1.10087376015144E-05,1.40625,1.7244139120929,1.453092128331
-2.37618951359764E-05,1.22372430269024E-05,1.40625,1.72617392750862,1.453092128331
-2.66215465671849E-05,1.38813747980748E-05,1.40625,1.72793699571644,1.453092128331
-2.66469123744173E-05,1.27837047330104E-05,1.40625,1.72970310546487,1.453092128331
-2.65359049080871E-05,1.15448083306546E-05,1.40625,1.73147224644608,1.453092128331
-2.54577444138704E-05,9.98532414087094E-06,1.40625,1.7332444092871,1.453092128331
-2.64639038505265E-05,8.2288215708104E-06,1.40625,1.73501958554024,1.453092128331
-2.64566315308912E-05,5.52405208509299E-06,1.40625,1.73679776767274,1.453092128331
-2.54807691817405E-05,4.38333245256217E-06,1.40625,1.73857894905565,1.453092128331
-2.44836701313034E-05,5.64923539059237E-06,1.40625,1.74036312395224,1.453092128331
-2.43357299041236E-05,8.56494716572342E-06,1.40625,1.74215028750592,1.453092128331
-1.94736767298309E-05,9.53963353822473E-06,1.40625,1.74394043572787,1.453092128331
-2.76683986157877E-05,1.36659964482533E-05,1.40625,1.74573356548408,1.453092128331
-2.04620846488979E-05,9.26291431824211E-06,1.40625,1.74752967448186,1.453092128331
-2.49414551944938E-05,9.0349376478116E-06,1.40625,1.7493287612559,1.453092128331
-2.14746469282545E-05,5.73801344216918E-06,1.40625,1.75113082515383,1.453092128331
-2.52356494456762E-05,7.0720557232562E-06,1.40625,1.75293586632131,1.453092128331
-2.29715369641781E-05,6.18154444964603E-06,1.40625,1.75474388568669,1.453092128331
-2.1832865968463E-05,5.83399469178403E-06,1.40625,1.75655488494522,1.453092128331
-1.94735675904667E-05,4.20474134443793E-06,1.40625,1.75836886654279,1.453092128331
-2.07272914849455E-05,3.83102178602712E-06,1.40625,1.76018583365931,1.453092128331
-2.38471347984159E-05,4.32144270234858E-06,1.40625,1.76200579019174,1.453092128331
-2.51529963861685E-05,4.69121096102754E-06,1.40625,1.76382874073671,1.453092128331
-2.55514678428881E-05,6.94398295308929E-06,1.40625,1.76565469057295,1.453092128331
-2.25826042878907E-05,1.08603471744573E-05,1.40625,1.76748364564332,1.453092128331
-2.2696722226101E-05,1.7166486941278E-05,1.40625,1.76931561253664,1.453092128331
-2.28848493861733E-05,2.21108184632612E-05,1.40625,1.77115059846948,1.453092128331
-2.57448809861671E-05,2.58291511272546E-05,1.40625,1.77298861126825,1.453092128331
-2.57874635281041E-05,2.36058222071733E-05,1.40625,1.77482965935211,1.453092128331
-2.71752924163593E-05,1.80225597432582E-05,1.40625,1.77667375171691,1.453092128331
-2.68423991656164E-05,1.20632967082202E-05,1.40625,1.77852089792013,1.453092128331
-2.69223528448492E-05,1.0485509847058E-05,1.40625,1.78037110806638,1.453092128331
-2.41032303165412E-05,1.03062984635471E-05,1.40625,1.78222439279302,1.453092128331
-2.24434861593181E-05,1.02653830253985E-05,1.40625,1.78408076325538,1.453092128331
-2.2535876269103E-05,1.01070982054807E-05,1.40625,1.78594023111164,1.453092128331
-2.45159262703964E-05,1.1720044312824E-05,1.40625,1.78780280850734,1.453092128331
-2.46742893068586E-05,1.40129077408346E-05,1.40625,1.78966850805951,1.453092128331
-2.4330422093044E-05,1.50453079186263E-05,1.40625,1.7915373428405,1.453092128331
-1.87964888027636E-05,1.18511225082329E-05,1.40625,1.79340932636154,1.453092128331
-2.55141912930412E-05,1.61711832333822E-05,1.40625,1.79528447255614,1.453092128331
-1.83891334017972E-05,1.12521520350128E-05,1.40625,1.79716279576336,1.453092128331
-2.42106034420431E-05,1.4514620488626E-05,1.40625,1.7990443107108,1.453092128331
-2.10092966881348E-05,1.25293772725854E-05,1.40625,1.80092903249743,1.453092128331
-2.52561876550317E-05,1.3637068150274E-05,1.40625,1.80281697657617,1.453092128331
-2.56397579505574E-05,1.07659616332967E-05,1.40625,1.80470815873618,1.453092128331
-2.77991075563477E-05,1.03405582194682E-05,1.40625,1.80660259508508,1.453092128331
-2.61951081483858E-05,1.02265112218447E-05,1.40625,1.80850030203087,1.453092128331
-2.4201628548326E-05,1.10870641947258E-05,1.40625,1.81040129626387,1.453092128331
-2.26544616452884E-05,1.23617674034904E-05,1.40625,1.8123055947386,1.453092128331
-2.16291427932447E-05,1.24573598441202E-05,1.40625,1.81421321465567,1.453092128331
-2.33630453294609E-05,1.15684188131127E-05,1.40625,1.81612417344355,1.453092128331
-2.38280608755304E-05,8.08447475719731E-06,1.40625,1.81803848874046,1.453092128331
-2.55916838796111E-05,6.31004149909131E-06,1.40625,1.81995617837599,1.453092128331
-2.42266560235294E-05,5.08660514242365E-06,1.40625,1.8218772603531,1.453092128331
-2.44446800934384E-05,6.4187120187853E-06,1.40625,1.8238017528303,1.453092128331
-2.34218332479941E-05,6.16146508036763E-06,1.40625,1.8257296741044,1.453092128331
-2.44946277234703E-05,7.32519538360066E-06,1.40625,1.82766104259372,1.453092128331
-2.19856538024032E-05,8.85395820660051E-06,1.40625,1.82959587682177,1.453092128331
-2.00440008484293E-05,1.20868871817947E-05,1.40625,1.83153419540122,1.453092128331
-1.874703411886E-05,1.51930798892863E-05,1.40625,1.83347601701797,1.453092128331
-2.11130918614799E-05,1.8798613382387E-05,1.40625,1.83542136041536,1.453092128331
-2.26686370297102E-05,1.99446294573136E-05,1.40625,1.83737024437852,1.453092128331
-2.23790248128353E-05,1.81478353624698E-05,1.40625,1.83932268771904,1.453092128331
-2.15573763853172E-05,1.31481192511274E-05,1.40625,1.8412787092604,1.453092128331
-2.18346121982904E-05,9.88005467661424E-06,1.40625,1.84323832782383,1.453092128331
-1.86736724572256E-05,7.49869104765821E-06,1.40625,1.84520156221465,1.453092128331
-2.76725022558821E-05,1.05022509160335E-05,1.40625,1.84716843120882,1.453092128331
-2.19468747673091E-05,7.29678185962257E-06,1.40625,1.84913895353957,1.453092128331
-2.57473839155864E-05,9.48287015489768E-06,1.40625,1.8511131478843,1.453092128331
-2.18081258935854E-05,8.39822769194143E-06,1.40625,1.85309103285176,1.453092128331
-2.54324841080233E-05,8.34926413517678E-06,1.40625,1.85507262696925,1.453092128331
-2.52128866122803E-05,7.43443797546206E-06,1.40625,1.85705794867013,1.453092128331
-2.58504096564138E-05,1.00357819974306E-05,1.40625,1.85904701628144,1.453092128331
-2.27711498155259E-05,1.28012525237864E-05,1.40625,1.86103984801168,1.453092128331
-2.04165444301907E-05,1.46671127367881E-05,1.40625,1.86303646193866,1.453092128331
-2.05350479518529E-05,1.42649660119787E-05,1.40625,1.86503687599748,1.453092128331
-2.14959563891171E-05,1.06242277979618E-05,1.40625,1.86704110796857,1.453092128331
-2.3447124476661E-05,7.63387015467742E-06,1.40625,1.86904917546601,1.453092128331
-2.29679317271803E-05,7.33924798623775E-06,1.40625,1.87106109592606,1.453092128331
-2.34906237892574E-05,1.08553531390498E-05,1.40625,1.87307688659578,1.453092128331
-2.2142194211483E-05,1.36147527882713E-05,1.40625,1.875096564522,1.453092128331
-2.41090619965689E-05,1.52204793266719E-05,1.40625,1.87712014654046,1.453092128331
-2.52040172199486E-05,1.50493797264062E-05,1.40625,1.8791476492652,1.453092128331
-2.70462896878598E-05,1.53627624968067E-05,1.40625,1.88117908907826,1.453092128331
-2.65430480794748E-05,1.53969613165827E-05,1.40625,1.88321448211972,1.453092128331
-2.87558486888884E-05,1.59685805556364E-05,1.40625,1.88525384427802,1.453092128331
-3.05044577544322E-05,1.51446847667103E-05,1.40625,1.88729719118057,1.453092128331
-3.15656106977258E-05,1.33965177155915E-05,1.40625,1.88934453818444,1.453092128331
-2.92234890366672E-05,1.20939193948288E-05,1.40625,1.89139590036727,1.453092128331
-2.6819219783647E-05,1.19128571895999E-05,1.40625,1.89345129251806,1.453092128331
-2.45700102823321E-05,1.18953776109265E-05,1.40625,1.89551072912793,1.453092128331
-2.38169177464442E-05,1.14719587145373E-05,1.40625,1.8975742243809,1.453092128331
-2.16521930269664E-05,5.58058945898665E-06,1.40625,1.8996417921448,1.453092128331
-3.28665737470146E-05,3.86104602512205E-06,1.40625,1.90171344596235,1.453092128331
-2.57530173257692E-05,5.04587262639689E-07,1.40625,1.9037891990427,1.453092128331
-2.82598866760964E-05,8.31423221825389E-06,1.40625,1.90586906425355,1.453092128331
-2.13725797948428E-05,1.40365091283456E-05,1.40625,1.90795305411408,1.453092128331
-2.25875046453439E-05,2.01686507352861E-05,1.40625,1.91004118078847,1.453092128331
-2.08145047508879E-05,2.02623014047276E-05,1.40625,1.91213345607987,1.453092128331
-2.24906434596051E-05,1.72667405422544E-05,1.40625,1.91422989142487,1.453092128331
-2.17103497561766E-05,1.05334574982408E-05,1.40625,1.91633049788857,1.453092128331
-2.1649721020367E-05,4.82672749058111E-06,1.40625,1.91843528616008,1.453092128331
-2.2777587219025E-05,9.65607000580349E-07,1.40625,1.92054426654847,1.453092128331
-2.39391229115427E-05,-9.00762586297787E-07,1.40625,1.922657448979,1.453092128331
-2.67514024017146E-05,-1.34112568161981E-07,1.40625,1.92477484299009,1.453092128331
-2.63811543845804E-05,1.41932662245381E-06,1.40625,1.92689645773109,1.453092128331
-2.62223311437992E-05,4.83845269627636E-06,1.40625,1.92902230196106,1.453092128331
-2.2865289793117E-05,7.91652382758912E-06,1.40625,1.93115238404809,1.453092128331
-2.17943415918853E-05,1.09462589534814E-05,1.40625,1.93328671196922,1.453092128331
-2.00381418835605E-05,1.08090598587296E-05,1.40625,1.93542529331025,1.453092128331
-2.1915258912486E-05,9.94721813185606E-06,1.40625,1.93756813526576,1.453092128331
-2.27063119382365E-05,7.35230605641846E-06,1.40625,1.93971524463894,1.453092128331
-2.42793703364441E-05,5.52299388800748E-06,1.40625,1.94186662784143,1.453092128331
-2.40161953115603E-05,3.93367918150034E-06,1.40625,1.94402229089309,1.453092128331
-2.43817557930015E-05,4.65308403363451E-06,1.40625,1.94618223942179,1.453092128331
-2.29476263484685E-05,7.34397553969757E-06,1.40625,1.94834647866322,1.453092128331
-2.27536093007075E-05,9.06467812455958E-06,1.40625,1.9505150134608,1.453092128331
-2.34083272516727E-05,9.41612051974516E-06,1.40625,1.9526878482657,1.453092128331
-2.36775867961114E-05,9.96805374597898E-06,1.40625,1.95486498713682,1.453092128331
-1.79805647348985E-05,7.76988872530637E-06,1.40625,1.95704643374092,1.453092128331
-2.51420824497472E-05,1.03626271084067E-05,1.40625,1.95923219135284,1.453092128331
-1.91548115253681E-05,7.84282656240975E-06,1.40625,1.96142226285576,1.453092128331
-2.54927963396767E-05,1.11205163193517E-05,1.40625,1.96361665074158,1.453092128331
-2.30022742471192E-05,1.08099957287777E-05,1.40625,1.96581535711121,1.453092128331
-2.51916790148243E-05,1.27380899357377E-05,1.40625,1.96801838367513,1.453092128331
-2.21052705455804E-05,1.13507649075473E-05,1.40625,1.97022573175405,1.453092128331
-2.3264412448043E-05,1.13611213237164E-05,1.40625,1.97243740227981,1.453092128331
-2.40714525716612E-05,1.17921163109713E-05,1.40625,1.97465339579659,1.453092128331
-2.37722324527567E-05,1.31754604808521E-05,1.40625,1.97687371246232,1.453092128331
-2.17039978451794E-05,1.36191501951544E-05,1.40625,1.97909835205032,1.453092128331
-1.88666308531538E-05,1.29168129205937E-05,1.40625,1.98132731395113,1.453092128331
-1.94207241293043E-05,1.26044815260684E-05,1.40625,1.98356059717458,1.453092128331
-2.0373719962663E-05,1.13041451186291E-05,1.40625,1.98579820035196,1.453092128331
-2.38009179156506E-05,1.08995982373017E-05,1.40625,1.98804012173838,1.453092128331
-2.41642737819348E-05,8.74081524671055E-06,1.40625,1.99028635921489,1.453092128331
-2.48813830694417E-05,8.77978436619742E-06,1.40625,1.99253691029074,1.453092128331
-2.31737521971809E-05,1.30992111735395E-05,1.40625,1.99479177210526,1.453092128331
-2.34619401453529E-05,2.36305095313583E-05,1.40625,1.99705094142984,1.453092128331
-2.28259596042335E-05,3.41297309205402E-05,1.40625,1.99931441466987,1.453092128331
-2.34906729019713E-05,4.19101343140937E-05,1.40625,2.00158218786728,1.453092128331
-2.24242103286088E-05,4.47493439423852E-05,1.40625,2.00385425670441,1.453092128331
-2.25906260311604E-05,4.3314717913745E-05,1.40625,2.00613061650986,1.453092128331
-2.29216275329236E-05,3.63026629202068E-05,1.40625,2.00841126226663,1.453092128331
-2.40239132835995E-05,2.71277167485096E-05,1.40625,2.01069618862238,1.453092128331
-2.43712947849417E-05,1.88141748367343E-05,1.40625,2.01298538990107,1.453092128331
-2.48685446422314E-05,1.26500599435531E-05,1.40625,2.01527886011531,1.453092128331
-2.13783714571036E-05,6.66767300572246E-06,1.40625,2.01757659297864,1.453092128331
-3.10354553221259E-05,5.93554750594194E-06,1.40625,2.01987858191803,1.453092128331
-2.47473344643367E-05,-4.25790403824067E-06,1.40625,2.02218482008691,1.453092128331
-2.97807946481043E-05,-1.32220975501696E-05,1.40625,2.02449530037905,1.453092128331
-2.45964220084716E-05,-2.53738799074199E-05,1.40625,2.0268100154438,1.453092128331
-2.79072392004309E-05,-2.89225099550094E-05,1.40625,2.02912895770306,1.453092128331
-2.56330440606689E-05,-2.59663065662608E-05,1.40625,2.03145211937071,1.453092128331
-2.65909657173324E-05,-1.5112502296688E-05,1.40625,2.03377949247474,1.453092128331
-2.5471093977103E-05,-4.33959894508007E-06,1.40625,2.03611106888191,1.453092128331
-2.46822728513507E-05,3.58358602170483E-06,1.40625,2.0384468403239,1.453092128331
-2.45972150878515E-05,7.7323502409854E-06,1.40625,2.04078679842398,1.453092128331
-2.39378823607694E-05,8.61170519783627E-06,1.40625,2.04313093472307,1.453092128331
-2.43804988713237E-05,8.49715161166387E-06,1.40625,2.04547924070475,1.453092128331
-2.19227349589346E-05,8.49786101753125E-06,1.40625,2.04783170781933,1.453092128331
-2.17950127989752E-05,1.09473994598375E-05,1.40625,2.05018832750692,1.453092128331
-2.07458815566497E-05,1.31604310809053E-05,1.40625,2.0525490912196,1.453092128331
-2.25286003114888E-05,1.56741389218951E-05,1.40625,2.05491399044273,1.453092128331
-2.10248526855139E-05,1.62580236064969E-05,1.40625,2.05728301671556,1.453092128331
-2.0896470232401E-05,1.57144604600035E-05,1.40625,2.05965616165124,1.453092128331
-1.96098826563684E-05,1.28998653963208E-05,1.40625,2.06203341695647,1.453092128331
-2.07264874916291E-05,1.21325892905588E-05,1.40625,2.06441477445065,1.453092128331
-2.03332365344977E-05,1.31202023112564E-05,1.40625,2.06680022608435,1.453092128331
-2.11368787859101E-05,1.53729124576785E-05,1.40625,2.06918976395706,1.453092128331
-2.22731578105595E-05,1.63742770382669E-05,1.40625,2.07158338033396,1.453092128331
-2.50617940764641E-05,1.65003275469644E-05,1.40625,2.07398106766198,1.453092128331
-2.65939688688377E-05,1.63700751727447E-05,1.40625,2.07638281858516,1.453092128331
-2.71619646809995E-05,1.57528356794501E-05,1.40625,2.07878862595943,1.453092128331
-2.08384190045763E-05,1.18388088594656E-05,1.40625,2.08119848286664,1.453092128331
-2.92073582386365E-05,1.57890226546442E-05,1.40625,2.08361238262782,1.453092128331
-2.14911779039539E-05,9.5285367933684E-06,1.40625,2.08603031881551,1.453092128331
-2.65174039668636E-05,1.14075028250227E-05,1.40625,2.08845228526501,1.453092128331
-2.17094348045066E-05,9.23261177376844E-06,1.40625,2.09087827608458,1.453092128331
-2.47856278292602E-05,1.21816383398254E-05,1.40625,2.0933082856645,1.453092128331
-2.30017922149273E-05,1.15369639388518E-05,1.40625,2.09574230868499,1.453092128331
-2.43678587139584E-05,1.17045547085581E-05,1.40625,2.09818034012318,1.453092128331
-2.31003596127266E-05,1.2511129170889E-05,1.40625,2.10062237525895,1.453092128331
-2.19521607505158E-05,1.57584927364951E-05,1.40625,2.10306840967987,1.453092128331
-2.1762562028016E-05,1.82626663445262E-05,1.40625,2.1055184392852,1.453092128331
-2.09026748052565E-05,1.76655175891938E-05,1.40625,2.10797246028908,1.453092128331
-2.21164809772745E-05,1.61722928169183E-05,1.40625,2.11043046922318,1.453092128331
-2.17278739000903E-05,1.33545690914616E-05,1.40625,2.11289246293879,1.453092128331
-2.33468981605256E-05,1.29256359286956E-05,1.40625,2.11535843860836,1.453092128331
-2.22522430703975E-05,1.20116237667389E-05,1.40625,2.11782839372632,1.453092128331
-2.34374310821295E-05,1.23736772366101E-05,1.40625,2.12030232610924,1.453092128331
-2.34995404753136E-05,1.23233694466762E-05,1.40625,2.12278023389523,1.453092128331
-2.54350306931883E-05,1.39475196192507E-05,1.40625,2.12526211554271,1.453092128331
-2.46384988713544E-05,1.33451540023088E-05,1.40625,1.45315638937752,1.453092128331
-2.55335071415175E-05,1.17316794785438E-05,1.40625,1.45316036882592,1.453092128331
-2.58498457696987E-05,8.82565473148134E-06,1.40625,1.45316832553928,1.453092128331
-2.71280441666022E-05,7.21296100891777E-06,1.40625,1.45318025765571,1.453092128331
-2.66101924353279E-05,5.52069059267524E-06,1.40625,1.45319616363367,1.453092128331
-2.66318165813573E-05,5.14962130182539E-06,1.40625,1.45321604225024,1.453092128331
-2.7265432436252E-05,4.55843337476836E-06,1.40625,1.45323989259885,1.453092128331
-2.76889131782809E-05,3.14441967930179E-06,1.40625,1.45326771408647,1.453092128331
-2.16509924939601E-05,2.34587218983506E-06,1.40625,1.45329950643015,1.453092128331
-2.8134558306192E-05,6.41661063127685E-06,1.40625,1.45333526965293,1.453092128331
-1.68542337632971E-05,1.11643048512633E-05,1.40625,1.45337500407914,1.453092128331
-2.08240817300975E-05,1.27277799037984E-05,1.40625,1.45341871032927,1.453092128331
-1.69246795849176E-05,1.00244296845631E-05,1.40625,1.45346638931483,1.453092128331
-2.18327313632471E-05,1.00192983154557E-05,1.40625,1.4535180422333,1.453092128331
-2.07788725674618E-05,1.2223700650793E-05,1.40625,1.45357367056347,1.453092128331
-2.2540911231772E-05,1.44229006764363E-05,1.40625,1.45363327606114,1.453092128331
-2.17512770177564E-05,1.47508599184221E-05,1.40625,1.45369686075518,1.453092128331
-2.24254199565621E-05,1.37436800287105E-05,1.40625,1.45376442694423,1.453092128331
-2.24754239752656E-05,1.24824036902282E-05,1.40625,1.4538359771942,1.453092128331
-2.14721330848988E-05,1.18760817713337E-05,1.40625,1.45391151433642,1.453092128331
-2.31353733397555E-05,1.24967637020745E-05,1.40625,1.45399104146641,1.453092128331
-2.34332474065013E-05,1.30405624076957E-05,1.40625,1.45407456194324,1.453092128331
-2.61552522715647E-05,1.30808166431962E-05,1.40625,1.45416207938919,1.453092128331
-2.56936273217434E-05,1.28133424368571E-05,1.40625,1.45425359768994,1.453092128331
-2.65426060650498E-05,1.26446711874451E-05,1.40625,1.45434912099518,1.453092128331
-2.45833998633316E-05,1.19232390716206E-05,1.40625,1.45444865371974,1.453092128331
-2.59900134551572E-05,1.10601840788149E-05,1.40625,1.45455220054504,1.453092128331
-2.55556951742619E-05,1.00777915577055E-05,1.40625,1.45465976642091,1.453092128331
-2.6373052605777E-05,9.90897206065711E-06,1.40625,1.45477135656751,1.453092128331
-2.55463455687277E-05,1.09429884105339E-05,1.40625,1.45488697647728,1.453092128331
-2.61566892731935E-05,1.2097282706236E-05,1.40625,1.45500663191685,1.453092128331
-2.62083485722542E-05,1.18574671432725E-05,1.40625,1.45513032892895,1.453092128331
-2.70178315986414E-05,1.04584350992809E-05,1.40625,1.45525807383419,1.453092128331
-2.63504116446711E-05,9.84978032647632E-06,1.40625,1.45538987323287,1.453092128331
-2.48152809945168E-05,1.12761745185708E-05,1.40625,1.45552573400671,1.453092128331
-1.8534026821726E-05,9.10704329726286E-06,1.40625,1.4556656633204,1.453092128331
-2.49853146669921E-05,1.24551788758254E-05,1.40625,1.45580966862283,1.453092128331
-1.76607591129141E-05,8.59604551806115E-06,1.40625,1.45595775764797,1.453092128331
-2.23340121010551E-05,1.09624306787737E-05,1.40625,1.45610993841521,1.453092128331
-1.80316656042123E-05,1.01586292657885E-05,1.40625,1.45626621922931,1.453092128331
-2.18198911170475E-05,1.3351850611798E-05,1.40625,1.45642660867974,1.453092128331
-2.22130547626875E-05,1.24019625218352E-05,1.40625,1.45659111563959,1.453092128331
-2.46619038080098E-05,1.13169944597757E-05,1.40625,1.45675974926402,1.453092128331
-2.29904180741869E-05,1.07625965029001E-05,1.40625,1.4569325189884,1.453092128331
-2.20039528358029E-05,1.25719207062502E-05,1.40625,1.45710943452628,1.453092128331
-2.31297399295727E-05,1.45935264299624E-05,1.40625,1.45729050586695,1.453092128331
-2.42830519709969E-05,1.44754867505981E-05,1.40625,1.45747574327279,1.453092128331
-2.64543341472745E-05,1.28996052808361E-05,1.40625,1.4576651572763,1.453092128331
-2.54104506893782E-05,1.06010220406461E-05,1.40625,1.45785875867696,1.453092128331
-2.54341721301898E-05,1.05543031168054E-05,1.40625,1.45805655853792,1.453092128331
-2.37754084082553E-05,9.48035813053139E-06,1.40625,1.45825856818222,1.453092128331
-2.53811122092884E-05,8.32409750728402E-06,1.40625,1.45846479918848,1.453092128331
-2.48650612775236E-05,7.12587188900216E-06,1.40625,1.45867526338602,1.453092128331
-2.45115825237008E-05,9.26894335862016E-06,1.40625,1.45888997284925,1.453092128331
-2.17324322875356E-05,1.1016109965567E-05,1.40625,1.45910893989141,1.453092128331
-2.21192985918606E-05,1.16726059786743E-05,1.40625,1.45933217705771,1.453092128331
-2.31060057558352E-05,1.02398944363813E-05,1.40625,1.45955969711782,1.453092128331
-2.54607457463862E-05,7.61220326239709E-06,1.40625,1.45979151305796,1.453092128331
-2.70147229457507E-05,3.67646180166048E-06,1.40625,1.46002763807251,1.453092128331
-2.74833455478074E-05,5.4433385230368E-06,1.40625,1.46026808555514,1.453092128331
-2.59490407188423E-05,1.2755334864778E-05,1.40625,1.46051286908966,1.453092128331
-2.43842223426327E-05,1.78219561348669E-05,1.40625,1.46076200244041,1.453092128331
-1.89441561815329E-05,9.63861111813458E-06,1.40625,1.46101549954251,1.453092128331
-2.74054091278231E-05,5.22218442711164E-06,1.40625,1.46127337449198,1.453092128331
-2.15358995774295E-05,-6.64859044263721E-06,1.40625,1.46153564153568,1.453092128331
-2.70847340289038E-05,-4.25725329478155E-06,1.40625,1.46180231506144,1.453092128331
-2.41433335759211E-05,-5.66475182495196E-06,1.40625,1.46207340958832,1.453092128331
-2.59672287938884E-05,1.33089633891359E-06,1.40625,1.46234893975759,1.453092128331
-2.30516834562877E-05,5.2150580813759E-06,1.40625,1.46262892032442,1.453092128331
-2.42257265199441E-05,8.66121808940079E-06,1.40625,1.46291336614976,1.453092128331
-2.32806996791624E-05,8.67569633555831E-06,1.40625,1.46320229219238,1.453092128331
-2.289742405992E-05,9.79430296865758E-06,1.40625,1.46349571350053,1.453092128331
-2.34045837714802E-05,1.16439623525366E-05,1.40625,1.46379364520359,1.453092128331
-2.40514600591268E-05,1.18388024930027E-05,1.40625,1.46409610250351,1.453092128331
-2.64021509792656E-05,1.25377218864742E-05,1.40625,1.4644031006663,1.453092128331
-2.67577852355316E-05,1.27940465972642E-05,1.40625,1.46471465501364,1.453092128331
-2.85336554952664E-05,1.52215970956604E-05,1.40625,1.46503078091446,1.453092128331
-2.64945247181458E-05,1.59685150720179E-05,1.40625,1.46535149377676,1.453092128331
-2.54911610682029E-05,1.64654575200984E-05,1.40625,1.46567680903942,1.453092128331
-2.41416510107229E-05,1.408579373674E-05,1.40625,1.4660067421643,1.453092128331
-2.59130483755143E-05,1.31639544633799E-05,1.40625,1.46634130862843,1.453092128331
-2.58716590906261E-05,1.15009934233967E-05,1.40625,1.46668052391646,1.453092128331
-2.72973175015068E-05,1.12394227471668E-05,1.40625,1.46702440351303,1.453092128331
-2.66197403107071E-05,9.47507578530349E-06,1.40625,1.46737296289492,1.453092128331
-2.54305687121814E-05,8.20583863969659E-06,1.40625,1.46772621752292,1.453092128331
-2.4178139938158E-05,7.03113664712873E-06,1.40625,1.46808418283329,1.453092128331
-2.47325970121892E-05,6.70171175443102E-06,1.40625,1.46844687422891,1.453092128331
-2.58198415394872E-05,6.51801383355632E-06,1.40625,1.46881430707038,1.453092128331
-2.70236305368599E-05,7.58003488954273E-06,1.40625,1.46918649666697,1.453092128331
-2.2475453079096E-05,5.87661270401441E-06,1.40625,1.46956345826763,1.453092128331
-3.31023911712691E-05,8.82673521118704E-06,1.40625,1.46994520705196,1.453092128331
-2.69502033916069E-05,9.65480739978375E-06,1.40625,1.47033175812108,1.453092128331
-3.19774335366674E-05,1.71084993780823E-05,1.40625,1.47072312648843,1.453092128331
-2.58080090134172E-05,2.34200779232197E-05,1.40625,1.47111932707039,1.453092128331
-2.84454854408978E-05,2.86024824163178E-05,1.40625,1.47152037467689,1.453092128331
-2.62541070696898E-05,2.46580839302624E-05,1.40625,1.47192628400258,1.453092128331
-2.72850538749481E-05,1.58821130753495E-05,1.40625,1.47233706961887,1.453092128331
-2.52430290856864E-05,8.0792360677151E-06,1.40625,1.47275274596696,1.453092128331
-2.33523605857044E-05,6.17592149865231E-06,1.40625,1.47317332735139,1.453092128331
-2.12685354199493E-05,8.74259421834722E-06,1.40625,1.47359882793377,1.453092128331
-1.76356752490392E-05,1.21379962365609E-05,1.40625,1.47402926172669,1.453092128331
-1.65828969329596E-05,1.49813995449222E-05,1.40625,1.47446464258763,1.453092128331
-1.58825587277533E-05,1.60752788360696E-05,1.40625,1.47490498421267,1.453092128331
-1.9785831682384E-05,1.69693485077005E-05,1.40625,1.47535030012983,1.453092128331
-2.18162185774418E-05,1.81657906068722E-05,1.40625,1.47580060369192,1.453092128331
-2.42344576690812E-05,2.27435393753694E-05,1.40625,1.476255908069,1.453092128331
-2.17549277294893E-05,2.90873176709283E-05,1.40625,1.47671622624093,1.453092128331
-2.09383015317144E-05,3.65168998541776E-05,1.40625,1.47718157099005,1.453092128331
-1.99796577362577E-05,4.2269028199371E-05,1.40625,1.47765195489466,1.453092128331
-2.2500762497657E-05,4.50848892796785E-05,1.40625,1.47812739032357,1.453092128331
-2.29227844101842E-05,4.21980148530565E-05,1.40625,1.47860788943223,1.453092128331
-2.30759378609946E-05,3.43404390150681E-05,1.40625,1.47909346416054,1.453092128331
-2.2519941921928E-05,2.23489150812384E-05,1.40625,1.47958412623216,1.453092128331
-2.40613717323868E-05,7.87859335105168E-06,1.40625,1.48007988715468,1.453092128331
-2.43346457864391E-05,-5.36630204805988E-06,1.40625,1.48058075822037,1.453092128331
-2.25074672925984E-05,-1.22651881611091E-05,1.40625,1.4810867505076,1.453092128331
-1.70399780472508E-05,-9.88433475868078E-06,1.40625,1.48159787488381,1.453092128331
-2.33786795433844E-05,-1.41831123983138E-05,1.40625,1.48211414201073,1.453092128331
-1.7312282579951E-05,-1.46326601679903E-05,1.40625,1.48263556235208,1.453092128331
-2.2878744857735E-05,-2.50138673436595E-05,1.40625,1.48316214618358,1.453092128331
-2.00991707970388E-05,-2.65586004388751E-05,1.40625,1.48369390360517,1.453092128331
-2.26828051381744E-05,-2.46785839408403E-05,1.40625,1.48423084455534,1.453092128331
-2.14110423257807E-05,-1.37202214318677E-05,1.40625,1.48477297882769,1.453092128331
-2.33462906180648E-05,-3.88489297620254E-06,1.40625,1.48532031608925,1.453092128331
-2.36198702623369E-05,3.21766765409848E-06,1.40625,1.48587286589984,1.453092128331
-2.35768948186887E-05,6.78469405102078E-06,1.40625,1.4864306377313,1.453092128331
-2.26604315685108E-05,9.1721112767118E-06,1.40625,1.48699364098582,1.453092128331
-2.1301799279172E-05,1.17804074761807E-05,1.40625,1.48756188501319,1.453092128331
-2.25308867811691E-05,1.26481163533754E-05,1.40625,1.48813537912719,1.453092128331
-2.24068589886883E-05,1.38153191073798E-05,1.40625,1.48871413262134,1.453092128331
-2.32465099543333E-05,1.33762505356572E-05,1.40625,1.4892981547843,1.453092128331
-2.18867735384265E-05,1.36894313982339E-05,1.40625,1.4898874549148,1.453092128331
-2.34115577768534E-05,1.37896922751679E-05,1.40625,1.49048204233625,1.453092128331
-2.35282132052816E-05,1.57208251039265E-05,1.40625,1.49108192641095,1.453092128331
-2.49628847086569E-05,1.67181297001662E-05,1.40625,1.49168711655377,1.453092128331
-2.43052327277837E-05,1.89202801266219E-05,1.40625,1.49229762224541,1.453092128331
-2.498004505469E-05,1.98306661332026E-05,1.40625,1.49291345304522,1.453092128331
-2.4219270926551E-05,2.02702412934741E-05,1.40625,1.49353461860363,1.453092128331
-2.37827734963503E-05,1.92783882084768E-05,1.40625,1.49416112867425,1.453092128331
-2.29880151891848E-05,1.92873794730986E-05,1.40625,1.49479299312565,1.453092128331
-2.24566374527058E-05,2.01987040782114E-05,1.40625,1.49543022195274,1.453092128331
-2.21646132558817E-05,2.07174452953041E-05,1.40625,1.49607282528768,1.453092128331
-2.31548638112145E-05,1.89733455044916E-05,1.40625,1.49672081341023,1.453092128331
-1.93346841115272E-05,1.17796425911365E-05,1.40625,1.49737419675755,1.453092128331
-2.70826531050261E-05,1.37460347104934E-05,1.40625,1.49803298593317,1.453092128331
-2.04995631065685E-05,8.05845684226369E-06,1.40625,1.49869719171503,1.453092128331
-2.64130194409518E-05,1.33444809762295E-05,1.40625,1.49936682506225,1.453092128331
-2.30593595915707E-05,1.20883632916957E-05,1.40625,1.50004189712075,1.453092128331
-2.58173931797501E-05,1.52300553963869E-05,1.40625,1.50072241922761,1.453092128331
-2.34813651331933E-05,1.33486628328683E-05,1.40625,1.50140840291436,1.453092128331
-2.37956355704227E-05,1.39282747113612E-05,1.40625,1.50209985990893,1.453092128331
-2.21100726776058E-05,1.28489082271699E-05,1.40625,1.50279680213652,1.453092128331
-2.20307101699291E-05,1.22073379316134E-05,1.40625,1.50349924171937,1.453092128331
-2.28210501518333E-05,1.10635264718439E-05,1.40625,1.50420719097546,1.453092128331
-2.35403185797622E-05,9.84667440206977E-06,1.40625,1.50492066241623,1.453092128331
-2.5914818252204E-05,9.58923374128062E-06,1.40625,1.50563966874358,1.453092128331
-2.53104499279289E-05,8.00759880803525E-06,1.40625,1.50636422284611,1.453092128331
-2.55073682637885E-05,8.16504143585917E-06,1.40625,1.50709433779476,1.453092128331
-2.39266100834357E-05,7.08309653418837E-06,1.40625,1.50783002683801,1.453092128331
-2.59584521700162E-05,8.18530861579347E-06,1.40625,1.50857130339647,1.453092128331
-2.66340903181117E-05,8.56741098687053E-06,1.40625,1.50931818105726,1.453092128331
-2.81826105492655E-05,1.1250498573645E-05,1.40625,1.51007067356777,1.453092128331
-2.71887765848078E-05,1.39538879011525E-05,1.40625,1.51082879482904,1.453092128331
-2.72510114882607E-05,1.90782320714789E-05,1.40625,1.51159255888849,1.453092128331
-2.41699926846195E-05,2.19187986658653E-05,1.40625,1.51236197993197,1.453092128331
-2.09535046451492E-05,2.3955806682352E-05,1.40625,1.51313707227549,1.453092128331
-1.83113952516578E-05,2.46790168603184E-05,1.40625,1.51391785035691,1.453092128331
-1.92829829757102E-05,2.55285667662974E-05,1.40625,1.51470432872772,1.453092128331
-2.14429983316222E-05,2.60837095993338E-05,1.40625,1.5154965220451,1.58277086255259
-2.26708452828461E-05,2.54942151514115E-05,1.40625,1.51629444506399,1.58277086255259
-1.92184561456088E-05,1.66023764904821E-05,1.40625,1.51709811262937,1.58277086255259
-2.77887029369595E-05,1.95407301362138E-05,1.40625,1.51790753966847,1.58277086255259
-2.20891561184544E-05,1.13084952317877E-05,1.40625,1.51872274118279,1.58277086255259
-2.72153138212161E-05,1.76021894731093E-05,1.40625,1.51954373223964,1.58277086255259
-2.33679784287233E-05,1.39905077958247E-05,1.40625,1.52037052796335,1.58277086255259
-2.58351810771273E-05,1.50840069181868E-05,1.40625,1.52120314352616,1.58277086255259
-2.3283713744604E-05,1.01110672403593E-05,1.40625,1.52204159413883,1.58277086255259
-2.45385181187885E-05,8.42341160023352E-06,1.40625,1.52288589504113,1.58277086255259
-2.48177166213281E-05,5.26582562088151E-06,1.40625,1.5237360614923,1.58277086255259
-2.53752059506951E-05,3.34276182911708E-06,1.40625,1.52459210876178,1.58277086255259
-2.54937294812407E-05,1.84539521796978E-06,1.40625,1.52545405212043,1.58277086255259
-2.43903432419756E-05,6.34027230717038E-08,1.40625,1.52632190683228,1.58277086255259
-2.4730923541938E-05,1.51226856814901E-06,1.40625,1.5271956881471,1.58277086255259
-2.33563878282439E-05,4.03917147195898E-06,1.40625,1.5280754112935,1.58277086255259
-2.40003555518342E-05,9.34378476813436E-06,1.40625,1.52896109147276,1.58277086255259
-2.28282133321045E-05,1.00366250990191E-05,1.40625,1.52985274385289,1.58277086255259
-2.45364608417731E-05,9.37020467972616E-06,1.40625,1.53075038356265,1.58277086255259
-2.44351267610909E-05,5.25677569385152E-06,1.40625,1.53165402568518,1.58277086255259
-2.55662234849297E-05,5.37705409442424E-06,1.40625,1.53256368525115,1.58277086255259
-2.44006223510951E-05,8.06577554612886E-06,1.40625,1.53347937723152,1.58277086255259
-2.42556743614841E-05,1.5615216398146E-05,1.40625,1.53440111653009,1.58277086255259
-2.30194236792158E-05,2.08222954825033E-05,1.40625,1.53532891797575,1.58277086255259
-2.32967504416592E-05,2.13191015063785E-05,1.40625,1.53626279631471,1.58277086255259
-2.32589700317476E-05,1.51645526784705E-05,1.40625,1.53720276620285,1.58277086255259
-2.34671169891953E-05,7.36780884835753E-06,1.40625,1.53814884219842,1.58277086255259
-2.30334226216655E-05,1.78243863047101E-06,1.40625,1.53910103875509,1.58277086255259
-2.41094621742377E-05,3.56829730208119E-07,1.40625,1.54005937021491,1.58277086255259
-1.98847792489687E-05,3.20229878525424E-06,1.40625,1.54102385080149,1.58277086255259
-2.73259156529093E-05,8.84942528500687E-06,1.40625,1.54199449461332,1.58277086255259
-1.96973523998167E-05,1.08398180600489E-05,1.40625,1.54297131561731,1.58277086255259
-2.59662774624303E-05,9.2298214440234E-06,1.40625,1.54395432764225,1.58277086255259
-2.24117720790673E-05,7.67622077546548E-06,1.40625,1.54494354437203,1.58277086255259
-2.44503517023986E-05,7.53110361984E-06,1.40625,1.54593897933857,1.58277086255259
-2.2404346964322E-05,8.27107123768656E-06,1.40625,1.54694064591438,1.58277086255259
-2.38084503507707E-05,8.0111121860682E-06,1.40625,1.5479485573048,1.58277086255259
-2.19916819332866E-05,7.55805876906379E-06,1.40625,1.54896272653986,1.58277086255259
-2.04406460397877E-05,6.66711275698617E-06,1.40625,1.54998316646576,1.58277086255259
-2.07443608815083E-05,6.95195831212914E-06,1.40625,1.55100988973607,1.58277086255259
-2.095020863635E-05,7.51699872125755E-06,1.40625,1.55204290880251,1.58277086255259
-2.21846585191088E-05,8.21201592771104E-06,1.40625,1.55308223590543,1.58277086255259
-2.15215550269932E-05,8.69667292136E-06,1.40625,1.55412788306395,1.58277086255259
-2.29868783208076E-05,8.75486784934765E-06,1.40625,1.55517986206597,1.58277086255259
-2.2360745788319E-05,8.52582888910547E-06,1.40625,1.55623818445795,1.58277086255259
-2.45527862716699E-05,8.08875665825326E-06,1.40625,1.55730286153478,1.58277086255259
-2.60003016592236E-05,7.42243764761952E-06,1.40625,1.55837390432956,1.58277086255259
-3.01531854347559E-05,7.03821751812939E-06,1.40625,1.55945132360335,1.58277086255259
-3.17295343847945E-05,7.53196763980668E-06,1.40625,1.56053512983475,1.58277086255259
-3.26951922033913E-05,7.81154903961578E-06,1.40625,1.56162533320931,1.58277086255259
-3.02042572002392E-05,8.94415461516473E-06,1.40625,1.56272194360851,1.58277086255259
-2.77921335509745E-05,1.07358628156362E-05,1.40625,1.56382497059856,1.58277086255259
-2.53197795245796E-05,1.2253120985406E-05,1.40625,1.564934423419,1.58277086255259
-2.44464463321492E-05,1.22125884445268E-05,1.40625,1.56605031097144,1.58277086255259
-2.37299009313574E-05,1.19558826554567E-05,1.40625,1.56717264180857,1.58277086255259
-2.44651273533236E-05,1.36656035465421E-05,1.40625,1.56830142412364,1.58277086255259
-2.24786508624675E-05,1.09978864202276E-05,1.40625,1.56943666574032,1.58277086255259
-3.23071399179753E-05,1.14960375867668E-05,1.40625,1.57057837410306,1.58277086255259
-2.32828206208069E-05,2.77357071354345E-06,1.40625,1.5717265562677,1.58277086255259
-2.58380277955439E-05,6.30502199783223E-06,1.40625,1.57288121889239,1.58277086255259
-1.94581880350597E-05,5.45321472600335E-06,1.40625,1.57404236822868,1.58277086255259
-2.15998661587946E-05,7.12829660187708E-06,1.40625,1.57521001011282,1.58277086255259
-1.84185373655055E-05,4.37438256994938E-06,1.40625,1.5763841499573,1.58277086255259
-1.8095603081747E-05,2.88164210360264E-06,1.40625,1.57756479274244,1.58277086255259
-1.62248634296702E-05,-8.49722596285574E-07,1.40625,1.57875194300805,1.58277086255259
-1.67986472661141E-05,-1.65870778801036E-06,1.40625,1.57994560484528,1.58277086255259
-1.80804163392168E-05,2.17208707908867E-06,1.40625,1.58114578188873,1.58277086255259
-1.8627368262969E-05,6.71578936817241E-06,1.40625,1.58235247730906,1.58277086255259
-2.12407030630857E-05,9.2287436928018E-06,1.40625,1.5835656938059,1.58277086255259
-2.17314645851729E-05,7.09445976099232E-06,1.40625,1.58478543360112,1.58277086255259
-2.35970455833012E-05,5.98956330577494E-06,1.40625,1.58601169843226,1.58277086255259
-2.25715557462536E-05,6.30473050478031E-06,1.40625,1.58724448954638,1.58277086255259
-2.39003620663425E-05,1.09826933112345E-05,1.40625,1.588483807694,1.58277086255259
-2.27387972699944E-05,1.45680796777015E-05,1.40625,1.58972965312342,1.58277086255259
-2.45674527832307E-05,1.92996831174241E-05,1.40625,1.59098202557524,1.58277086255259
-2.4674440282979E-05,2.41935667872895E-05,1.40625,1.5922409242776,1.58277086255259
-2.59273183473852E-05,2.78578791039763E-05,1.40625,1.59350634794238,1.58277086255259
-2.57186493399786E-05,2.4356664653169E-05,1.40625,1.59477829476277,1.58277086255259
-2.71608969342196E-05,1.79147828021087E-05,1.40625,1.59605676241212,1.58277086255259
-2.77655417448841E-05,1.32180739456089E-05,1.40625,1.59734174804426,1.58277086255259
-2.76765385933686E-05,1.22668770927703E-05,1.40625,1.59863324829451,1.58277086255259
-2.54890019277809E-05,1.0422271770949E-05,1.40625,1.599931259281,1.58277086255259
-2.38410357269458E-05,8.12708822195418E-06,1.40625,1.60123577660595,1.58277086255259
-1.97606022993568E-05,6.00938301431597E-06,1.40625,1.60254679535679,1.58277086255259
-2.84340385405812E-05,9.41752841754351E-06,1.40625,1.60386431010746,1.58277086255259
-2.21056106965989E-05,1.02461726783076E-05,1.40625,1.60518831491991,1.58277086255259
-2.74801113846479E-05,1.35455238705617E-05,1.40625,1.60651880334588,1.58277086255259
-2.37256135733332E-05,1.25739443319617E-05,1.40625,1.60785576842881,1.58277086255259
-2.67087052634452E-05,1.37072529469151E-05,1.40625,1.60919920270568,1.58277086255259
-2.53978651016951E-05,1.19002470455598E-05,1.40625,1.6105490982088,1.58277086255259
-2.61749046330806E-05,9.40171412366908E-06,1.40625,1.61190544646741,1.58277086255259
-2.4746452254476E-05,5.76356296733138E-06,1.40625,1.61326823850931,1.58277086255259
-2.46188556047855E-05,4.63976266473765E-06,1.40625,1.61463746486244,1.58277086255259
-2.54202950600302E-05,5.86314808970201E-06,1.40625,1.61601311555684,1.58277086255259
-2.53459493251285E-05,6.34054413239937E-06,1.40625,1.61739518012706,1.58277086255259
-2.56569564953679E-05,6.98678923072293E-06,1.40625,1.61878364761507,1.58277086255259
-2.38976990658557E-05,8.06333991931751E-06,1.40625,1.62017850657367,1.58277086255259
-2.47962434514193E-05,1.05446351881255E-05,1.40625,1.62157974507012,1.58277086255259
-2.38796001212904E-05,1.29073814605363E-05,1.40625,1.62298735068992,1.58277086255259
-2.45599730988033E-05,1.56401511048898E-05,1.40625,1.62440131054063,1.58277086255259
-2.46985746343853E-05,1.56262613018043E-05,1.40625,1.6258216112557,1.58277086255259
-2.88871287921211E-05,1.46794282045448E-05,1.40625,1.62724823899842,1.58277086255259
-2.96354592137504E-05,1.28100527945207E-05,1.40625,1.62868117946603,1.58277086255259
-2.90426232822938E-05,1.12722909761942E-05,1.40625,1.63012041789406,1.58277086255259
-2.7471056455397E-05,9.16081262403168E-06,1.40625,1.63156593906056,1.58277086255259
-2.88315459329169E-05,8.54338213684969E-06,1.40625,1.63301772729027,1.58277086255259
-2.97821479762206E-05,9.03244927030755E-06,1.40625,1.6344757664586,1.58277086255259
-2.98756331176264E-05,8.66308710101293E-06,1.40625,1.63594003999569,1.58277086255259
-2.93016601062845E-05,7.79469701228663E-06,1.40625,1.63741053089052,1.58277086255259
-2.93883658741834E-05,8.83836582943331E-06,1.40625,1.63888722169498,1.58277086255259
-2.19152443605708E-05,9.39736855798401E-06,1.40625,1.64037009452808,1.58277086255259
-2.80046751868213E-05,1.49261913975351E-05,1.40625,1.64185913108015,1.58277086255259
-1.63759323186241E-05,1.37379620355205E-05,1.40625,1.64335431261703,1.58277086255259
-2.09666141017806E-05,1.68308961292496E-05,1.40625,1.64485561998418,1.58277086255259
-1.53136352309957E-05,1.51038075273391E-05,1.40625,1.64636303361077,1.58277086255259
-1.71413321368163E-05,1.59379578690277E-05,1.40625,1.64787653351375,1.58277086255259
-1.40783231472597E-05,1.40632737384294E-05,1.40625,1.64939609930183,1.58277086255259
-1.57828126248205E-05,1.35296077132807E-05,1.40625,1.65092171017931,1.58277086255259
-1.55571869981941E-05,1.33296016429085E-05,1.40625,1.6524533449498,1.58277086255259
-1.53365981532261E-05,1.43063498398988E-05,1.40625,1.65399098201956,1.58277086255259
-1.55150482896715E-05,1.45687072290457E-05,1.40625,1.65553459940056,1.58277086255259
-1.60411782417214E-05,1.20948379844776E-05,1.40625,1.65708417471332,1.58277086255259
-1.78829104697797E-05,9.2546479208977E-06,1.40625,1.65863968518948,1.58277086255259
-1.63718486874131E-05,6.6406332734914E-06,1.40625,1.66020110767435,1.58277086255259
-1.67879679793259E-05,6.88078398525249E-06,1.40625,1.6617684186295,1.58277086255259
-1.56757760123583E-05,7.10151971361483E-06,1.40625,1.66334159413567,1.58277086255259
-1.82551684702048E-05,8.48501713335281E-06,1.40625,1.66492060989608,1.58277086255259
-1.87828318303218E-05,8.86457473825431E-06,1.40625,1.66650544124026,1.58277086255259
-2.07150169444503E-05,9.62357808020897E-06,1.40625,1.66809606312808,1.58277086255259
-2.00353661057306E-05,9.9975641205674E-06,1.40625,1.66969245015413,1.58277086255259
-2.15870950341923E-05,1.13890919237747E-05,1.40625,1.67129457655218,1.58277086255259
-2.12109171116026E-05,1.14933636723435E-05,1.40625,1.67290241619966,1.58277086255259
-2.12521390494658E-05,1.1493289093778E-05,1.40625,1.674515942622,1.58277086255259
-2.0512821720331E-05,1.07406376628205E-05,1.40625,1.67613512899695,1.58277086255259
-2.12612139876001E-05,1.13446703835507E-05,1.40625,1.67775994815874,1.58277086255259
-2.17637498280965E-05,1.39533685796778E-05,1.40625,1.67939037260213,1.58277086255259
-2.24118921323679E-05,1.42059261634131E-05,1.40625,1.68102637448643,1.58277086255259
-1.94967815332348E-05,1.0351071068726E-05,1.40625,1.68266792563944,1.58277086255259
-2.84325251413975E-05,1.53613236761885E-05,1.40625,1.68431499756154,1.58277086255259
-2.21393693209393E-05,1.31786837300751E-05,1.40625,1.68596756142975,1.58277086255259
-2.75404709100258E-05,1.68153164850082E-05,1.40625,1.6876255881018,1.58277086255259
-2.51544533966808E-05,1.49204679473769E-05,1.40625,1.68928904812025,1.58277086255259
-2.90653897536686E-05,1.48244680531207E-05,1.40625,1.69095791171659,1.58277086255259
-2.86884205706883E-05,1.08115464172442E-05,1.40625,1.69263214881544,1.58277086255259
-3.04196546494495E-05,9.97161532723112E-06,1.40625,1.69431172903877,1.58277086255259
-2.86373324343003E-05,1.04789005490602E-05,1.40625,1.69599662170997,1.58277086255259
-2.69682732323417E-05,1.25436190501205E-05,1.40625,1.69768679585783,1.58277086255259
-2.76369773928309E-05,1.7035597920767E-05,1.40625,1.69938222022049,1.58277086255259
-2.92476524919039E-05,2.41153757087886E-05,1.40625,1.7010828632494,1.58277086255259
-3.15026518364903E-05,3.20731778629124E-05,1.40625,1.7027886931135,1.58277086255259
-3.01335094263777E-05,3.72879949281923E-05,1.40625,1.70449967770394,1.58277086255259
-3.07651644106954E-05,4.09840358770452E-05,1.40625,1.70621578463994,1.58277086255259
-3.03229608107358E-05,4.00876560888719E-05,1.40625,1.70793698127612,1.58277086255259
-3.19162609230261E-05,3.6593741242541E-05,1.40625,1.70966323471162,1.58277086255259
-3.08549861074425E-05,2.87718430627137E-05,1.40625,1.71139451180096,1.58277086255259
-3.08971430058591E-05,2.0258778022253E-05,1.40625,1.71313077916609,1.58277086255259
-2.89065555989509E-05,1.21558414321044E-05,1.40625,1.71487200320921,1.58277086255259
-2.7745401894208E-05,7.79805213824147E-06,1.40625,1.71661815012576,1.58277086255259
-2.56490075116744E-05,3.48659182236588E-06,1.40625,1.71836918591786,1.58277086255259
-2.54661299550207E-05,-2.59923967860232E-06,1.40625,1.7201250764085,1.58277086255259
-2.31898720812751E-05,-1.28419596876483E-05,1.40625,1.72188578725695,1.58277086255259
-2.05657161131967E-05,-2.57566443906398E-05,1.40625,1.72365128397568,1.58277086255259
-1.93645937542897E-05,-3.65723062714096E-05,1.40625,1.72542153194923,1.58277086255259
-1.93625310203061E-05,-3.74014052795246E-05,1.40625,1.72719649645562,1.58277086255259
-1.71717219927814E-05,-2.18076547753299E-05,1.40625,1.72897614269075,1.58277086255259
-2.66012666543247E-05,-2.20649617403978E-05,1.40625,1.73076043579583,1.58277086255259
-2.24779359996319E-05,-3.81763902623788E-06,1.40625,1.73254934088706,1.58277086255259
-2.58763157034991E-05,-5.06627839058638E-06,1.40625,1.73434282308655,1.68237201963534
-2.1246929463814E-05,6.2763560890744E-06,1.40625,1.73614084755326,1.68237201963534
-2.22229791688733E-05,6.38729989077547E-06,1.40625,1.7379433795132,1.68237201963534
-2.07678531296551E-05,1.24563466670224E-05,1.40625,1.73975038428869,1.68237201963534
-2.26689317059936E-05,1.49221659739851E-05,1.40625,1.74156182732669,1.68237201963534
-2.28406897804234E-05,2.18068962567486E-05,1.40625,1.74337767422677,1.68237201963534
-2.26632691919804E-05,2.53504495049128E-05,1.40625,1.74519789076891,1.68237201963534
-2.21349691855721E-05,2.32117708947044E-05,1.40625,1.7470224429416,1.68237201963534
-2.09629670280265E-05,1.8102287867805E-05,1.40625,1.74885129697044,1.68237201963534
-2.09348545467947E-05,1.22174078569515E-05,1.40625,1.7506844193472,1.68237201963534
-2.01936873054365E-05,1.14858758024639E-05,1.40625,1.75252177685897,1.68237201963534
-2.20552738028346E-05,9.54415190790314E-06,1.40625,1.75436333661676,1.68237201963534
-2.26824613491772E-05,1.06414036054048E-05,1.40625,1.75620906608311,1.68237201963534
-2.417535870336E-05,9.07303456187947E-06,1.40625,1.75805893309848,1.68237201963534
-2.25855364988092E-05,1.14931663119933E-05,1.40625,1.75991290590629,1.68237201963534
-2.24313698709011E-05,1.18947027658578E-05,1.40625,1.76177095317671,1.68237201963534
-2.20793717744527E-05,1.41325081131072E-05,1.40625,1.76363304402929,1.68237201963534
-2.35686238738708E-05,1.29916697915178E-05,1.40625,1.76549914805434,1.68237201963534
-2.31055382755585E-05,1.33734547489439E-05,1.40625,1.76736923533342,1.68237201963534
-2.27190685109235E-05,1.27221892398666E-05,1.40625,1.76924327645875,1.68237201963534
-2.32035617955262E-05,1.3845238754584E-05,1.40625,1.77112124255171,1.68237201963534
-2.59382377407746E-05,1.1975484994764E-05,1.40625,1.77300310528023,1.68237201963534
-2.70024465862662E-05,9.22103026823606E-06,1.40625,1.77488883687517,1.68237201963534
-2.64111022261204E-05,9.28111421671929E-06,1.40625,1.77677841014545,1.68237201963534
-2.04157695407048E-05,1.20295817396254E-05,1.40625,1.7786717984919,1.68237201963534
-2.86397225863766E-05,2.05949527298799E-05,1.40625,1.78056897591975,1.68237201963534
-2.15434320125496E-05,1.87040295713814E-05,1.40625,1.78246991704982,1.68237201963534
-2.60020406130934E-05,2.07498778763693E-05,1.40625,1.78437459712892,1.68237201963534
-2.10698763112305E-05,1.6794661860331E-05,1.40625,1.78628299203961,1.68237201963534
-2.56189759966219E-05,1.54005902004428E-05,1.40625,1.7881950783095,1.68237201963534
-2.47118150582537E-05,1.16604460345116E-05,1.40625,1.7901108331199,1.68237201963534
-2.58286909229355E-05,1.18387370093842E-05,1.40625,1.79203023431371,1.68237201963534
-2.44901202677283E-05,1.27468938444508E-05,1.40625,1.79395326040212,1.68237201963534
-2.43638478423236E-05,1.48233384607011E-05,1.40625,1.79587989057041,1.68237201963534
-2.34580857068067E-05,1.66101417562459E-05,1.40625,1.79781010468249,1.68237201963534
-2.11513488466153E-05,1.68676670000423E-05,1.40625,1.79974388328459,1.68237201963534
-2.21748268813826E-05,1.60350064106751E-05,1.40625,1.80168120760791,1.68237201963534
-2.25630137720145E-05,1.29044792629429E-05,1.40625,1.8036220595704,1.68237201963534
-2.49064923991682E-05,1.01420346254599E-05,1.40625,1.80556642177762,1.68237201963534
-2.40610224864213E-05,5.90286435908638E-06,1.40625,1.80751427752282,1.68237201963534
-2.51003784796922E-05,3.98025485992548E-06,1.40625,1.80946561078629,1.68237201963534
-2.45670726144454E-05,3.61570778295572E-06,1.40625,1.81142040623444,1.68237201963534
-2.61238128587138E-05,6.83373082210892E-06,1.40625,1.81337864921868,1.68237201963534
-2.45418486883864E-05,1.00790530268569E-05,1.40625,1.81534032577433,1.68237201963534
-2.43335416598711E-05,1.27407911350019E-05,1.40625,1.81730542261924,1.68237201963534
-2.32829279411817E-05,1.30594935399131E-05,1.40625,1.81927392715208,1.68237201963534
-2.33670816669473E-05,1.34940137286321E-05,1.40625,1.82124582744983,1.68237201963534
-2.25609619519673E-05,1.36852204377647E-05,1.40625,1.82322111226455,1.68237201963534
-2.30883906624513E-05,1.4526669474435E-05,1.40625,1.8251997710194,1.68237201963534
-2.35922379943077E-05,1.3672612112714E-05,1.40625,1.82718179380388,1.68237201963534
-2.38293796428479E-05,1.23204135888955E-05,1.40625,1.8291671713684,1.68237201963534
-1.90768878383096E-05,8.85159715835471E-06,1.40625,1.8311558951182,1.68237201963534
-2.77341696346411E-05,1.09983566289884E-05,1.40625,1.8331479571066,1.68237201963534
-2.1870328055229E-05,7.04542344465153E-06,1.40625,1.8351433500277,1.68237201963534
-2.62072608165909E-05,9.99866915663006E-06,1.40625,1.83714206720869,1.68237201963534
-2.17969609366264E-05,7.69123471400235E-06,1.40625,1.83914410260167,1.68237201963534
-2.53733433055459E-05,9.50469257077202E-06,1.40625,1.84114945077528,1.68237201963534
-2.45700975938234E-05,9.79912965703988E-06,1.40625,1.84315810690596,1.68237201963534
-2.49936092586722E-05,1.20227932711714E-05,1.40625,1.84517006676881,1.68237201963534
-2.310663148819E-05,1.33922794702812E-05,1.40625,1.84718532672817,1.68237201963534
-2.36728337768E-05,1.38785962917609E-05,1.40625,1.84920388372764,1.68237201963534
-2.59177377301967E-05,1.35472846523044E-05,1.40625,1.85122573527971,1.68237201963534
-2.68284256890183E-05,1.15758075480699E-05,1.40625,1.85325087945502,1.68237201963534
-2.81383290712256E-05,9.80577988229925E-06,1.40625,1.85527931487129,1.68237201963534
-2.67074701696401E-05,7.65122695156606E-06,1.40625,1.85731104068184,1.68237201963534
-2.65870858129347E-05,7.0920395955909E-06,1.40625,1.8593460565637,1.68237201963534
-2.46672534558456E-05,6.09047947364161E-06,1.40625,1.86138436270541,1.68237201963534
-2.50611956289504E-05,6.98955591360573E-06,1.40625,1.86342595979467,1.68237201963534
-2.33782320719911E-05,7.02756642567692E-06,1.40625,1.86547084900599,1.68237201963534
-2.37108979490586E-05,7.49924720366835E-06,1.40625,1.86751903198828,1.68237201963534
-2.27233649638947E-05,6.9773600444023E-06,1.40625,1.86957051085236,1.68237201963534
-2.31590747716837E-05,7.87500721344259E-06,1.40625,1.87162528815844,1.68237201963534
-2.27729251491837E-05,9.48541674006265E-06,1.40625,1.87368336690319,1.68237201963534
-2.4352986656595E-05,1.24028783829999E-05,1.40625,1.8757447505068,1.68237201963534
-2.56853509199573E-05,1.49716752275708E-05,1.40625,1.87780944279961,1.68237201963534
-2.6696818167693E-05,1.71706451510545E-05,1.40625,1.87987744800876,1.68237201963534
-2.60976394201862E-05,1.74057895492297E-05,1.40625,1.8819487707448,1.68237201963534
-2.59100233961362E-05,1.52432085087639E-05,1.40625,1.88402341598866,1.68237201963534
-2.12405630009016E-05,8.84417295310413E-06,1.40625,1.88610138907884,1.68237201963534
-2.97921360470355E-05,1.15348948384053E-05,1.40625,1.88818269569887,1.68237201963534
-2.14251358556794E-05,9.69409484241623E-06,1.40625,1.89026734186478,1.68237201963534
-2.5828427169472E-05,1.47780710904044E-05,1.40625,1.8923553339124,1.68237201963534
-2.16406860999996E-05,1.33110497699818E-05,1.40625,1.89444667848452,1.68237201963534
-2.51582659984706E-05,1.40139909490244E-05,1.40625,1.89654138251788,1.68237201963534
-2.29373436013702E-05,1.23880427054246E-05,1.40625,1.89863945323011,1.68237201963534
-2.41427442233544E-05,1.23420286399778E-05,1.40625,1.90074089810657,1.68237201963534
-2.24177983909613E-05,8.56587575981393E-06,1.40625,1.90284572488719,1.68237201963534
-2.19633784581674E-05,4.56279349236866E-06,1.40625,1.90495394155308,1.68237201963534
-2.28897588385735E-05,3.33981824951479E-06,1.40625,1.90706555631329,1.68237201963534
-2.30674122576602E-05,4.29717692895792E-06,1.40625,1.90918057759151,1.68237201963534
-2.55863160418812E-05,5.72039789403789E-06,1.40625,1.91129901401326,1.68237201963534
-2.62029425357468E-05,6.18592730461387E-06,1.40625,1.9134208743935,1.68237201963534
-2.74212034128141E-05,8.40320262796013E-06,1.40625,1.91554616772452,1.68237201963534
-2.43676386162406E-05,9.4758497652947E-06,1.40625,1.91767490316397,1.68237201963534
-2.32023267017212E-05,1.02046878964757E-05,1.40625,1.91980709002291,1.68237201963534
-2.1270625438774E-05,8.89531020220602E-06,1.40625,1.92194273775367,1.68237201963534
-2.27439122681972E-05,9.13836356630782E-06,1.40625,1.92408185593765,1.68237201963534
-2.20231850107666E-05,9.08273705135798E-06,1.40625,1.92622445427292,1.68237201963534
-2.22946491703624E-05,1.0689474947867E-05,1.40625,1.9283705425617,1.68237201963534
-2.15869058592943E-05,1.05324152173125E-05,1.40625,1.93052013069769,1.68237201963534
-2.18455716094468E-05,9.55447740125237E-06,1.40625,1.93267322865335,1.68237201963534
-1.99647729459684E-05,9.82370056590298E-06,1.40625,1.93482984646711,1.68237201963534
-1.98593243112555E-05,1.24842163131689E-05,1.40625,1.93698999423068,1.68237201963534
-2.06013555725804E-05,1.35508771563764E-05,1.40625,1.93915368207624,1.68237201963534
-2.09324753086548E-05,1.25705637401552E-05,1.40625,1.94132092016381,1.68237201963534
-1.73132775671547E-05,9.40061545406934E-06,1.40625,1.94349171866868,1.68237201963534
-2.45535375142936E-05,1.54514618770918E-05,1.40625,1.94566608776915,1.68237201963534
-1.86272318387637E-05,1.57654412760166E-05,1.40625,1.94784403763433,1.68237201963534
-2.4440811102977E-05,1.98054021893768E-05,1.40625,1.95002557841231,1.68237201963534
-2.24456380237825E-05,1.70406638062559E-05,1.40625,1.95221072021864,1.68237201963534
-2.41884208662668E-05,1.55468933371594E-05,1.40625,1.95439947312545,1.68237201963534
-2.07220309675904E-05,1.29611544252839E-05,1.40625,1.95659184715113,1.68237201963534
-2.15068412217079E-05,1.35343379952246E-05,1.40625,1.95878785225043,1.68237201963534
-2.22518356167711E-05,1.3826233043801E-05,1.40625,1.96098749830479,1.68237201963534
-2.35357329074759E-05,1.41045902637416E-05,1.40625,1.96319079511266,1.68237201963534
-2.56019720836775E-05,1.33019111672183E-05,1.40625,1.96539775237992,1.68237201963534
-2.58200670941733E-05,1.21010534712696E-05,1.40625,1.96760837971019,1.68237201963534
-2.6163525035372E-05,1.2267353667994E-05,1.40625,1.96982268659521,1.68237201963534
-2.39953624259215E-05,1.20252088890993E-05,1.40625,1.97204068240502,1.68237201963534
-2.41360703512328E-05,1.1575499229366E-05,1.40625,1.97426237637818,1.68237201963534
-2.39395867538406E-05,9.1063420768478E-06,1.40625,1.97648777761195,1.68237201963534
-2.6814523153007E-05,9.03611271496629E-06,1.40625,1.97871689505265,1.68237201963534
-2.76356258837041E-05,1.0340577318857E-05,1.40625,1.98094973748623,1.68237201963534
-2.78961997537408E-05,1.29598893181537E-05,1.40625,1.98318631352906,1.68237201963534
-2.53818852797849E-05,1.40242946145008E-05,1.40625,1.98542663161897,1.68237201963534
-2.53943198913476E-05,1.56720452650916E-05,1.40625,1.98767070000641,1.68237201963534
-2.57223018707009E-05,1.66613735927967E-05,1.40625,1.98991852674562,1.68237201963534
-2.53364305535797E-05,1.73006337718107E-05,1.40625,1.99217011968605,1.68237201963534
-2.18915665755048E-05,1.64363300427794E-05,1.40625,1.99442548646399,1.68237201963534
-1.88427529792534E-05,1.52516449816176E-05,1.40625,1.99668463449468,1.68237201963534
-1.88809990504524E-05,1.457140842831E-05,1.40625,1.99894757096462,1.68237201963534
-2.01935654331464E-05,1.50539308378939E-05,1.40625,2.00121430282404,1.68237201963534
-1.63416934810812E-05,1.19775177154224E-05,1.40625,2.00348483677943,1.68237201963534
-2.33505470532691E-05,1.62437190738274E-05,1.40625,2.00575917928592,1.68237201963534
-1.9156672351528E-05,1.06916313598049E-05,1.40625,2.00803733653967,1.68237201963534
-2.52799200097797E-05,1.30761636683019E-05,1.40625,2.01031931447028,1.68237201963534
-2.27630171139026E-05,1.0999867299688E-05,1.40625,2.01260511873342,1.68237201963534
-2.58156815107213E-05,1.41764458021498E-05,1.40625,2.01489475470366,1.68237201963534
-2.47096813836833E-05,1.35383907036157E-05,1.40625,2.01718822746771,1.68237201963534
-2.58870240941178E-05,1.31190545289428E-05,1.40625,2.01948554181775,1.68237201963534
-2.56659113802016E-05,1.037480069499E-05,1.40625,2.02178670224508,1.68237201963534
-2.62607245531399E-05,5.16364752911613E-06,1.40625,2.02409171293378,1.68237201963534
-2.67206323769642E-05,-1.89562251762254E-06,1.40625,2.02640057775479,1.68237201963534
-2.58869768003933E-05,-5.24342567587155E-06,1.40625,2.02871330026053,1.68237201963534
-2.56176444963785E-05,-2.40533950091049E-07,1.40625,2.03102988368062,1.68237201963534
-2.35138431889936E-05,7.29668499843683E-06,1.40625,2.0333503309188,1.68237201963534
-2.31007506954484E-05,1.42248427437153E-05,1.40625,2.03567464455118,1.68237201963534
-2.11467267945409E-05,1.55803536472376E-05,1.40625,2.0380028268252,1.68237201963534
-2.16487405850785E-05,1.56293426698539E-05,1.40625,2.04033487965907,1.68237201963534
-2.08432793442626E-05,1.42263843372348E-05,1.40625,2.04267080464146,1.68237201963534
-2.18604291148949E-05,1.45377352964715E-05,1.40625,2.0450106030316,1.68237201963534
-2.21366171899717E-05,1.54485387611203E-05,1.40625,2.04735427575975,1.68237201963534
-2.3532902559964E-05,2.21338614210254E-05,1.40625,2.04970182342785,1.68237201963534
-2.26270531129558E-05,3.20451945299283E-05,1.40625,2.0520532463106,1.68237201963534
-2.22395556193078E-05,4.13247944379691E-05,1.40625,2.05440854435713,1.68237201963534
-2.1967252905597E-05,4.50668485427741E-05,1.40625,2.05676771719393,1.68237201963534
-2.34041563089704E-05,4.28793682658579E-05,1.40625,2.05913076412958,1.68237201963534
-2.47934531216742E-05,3.43872379744425E-05,1.40625,2.06149768416171,1.68237201963534
-2.61839886661619E-05,2.27736600209028E-05,1.40625,2.06386847598595,1.68237201963534
-2.2189577066456E-05,7.33220485926722E-06,1.40625,2.06624313800629,1.68237201963534
-3.03602664644131E-05,8.32998807709373E-08,1.40625,2.06862166834609,1.68237201963534
-2.0425335605978E-05,-1.44776495289989E-05,1.40625,2.07100406485955,1.68237201963534
-2.52588688454125E-05,-1.64807988767279E-05,1.40625,2.07339032514416,1.68237201963534
-2.04441384994425E-05,-2.03324416361284E-05,1.40625,2.07578044655497,1.68237201963534
-2.40928820858244E-05,-1.9310360585223E-05,1.40625,2.07817442622115,1.68237201963534
-2.32828042499023E-05,-2.59776334132766E-05,1.40625,1.45315627150171,1.65574596774194
-2.48810501943808E-05,-2.9187207474024E-05,1.40625,1.45316013767537,1.65574596774194
-2.37768545048311E-05,-2.52844292845111E-05,1.40625,1.45316786762018,1.65574596774194
-2.35609822993865E-05,-1.14460381155368E-05,1.40625,1.45317945869119,1.65574596774194
-2.39568289543968E-05,3.49807805832825E-06,1.40625,1.45319490801743,1.65574596774194
-2.36464111367241E-05,1.02992289612303E-05,1.40625,1.45321421251963,1.65574596774194
-2.49579061346594E-05,9.78611114987871E-06,1.40625,1.45323736892783,1.65574596774194
-2.37584663409507E-05,6.32704995950917E-06,1.40625,1.45326437379826,1.65574596774194
-2.53334819717566E-05,6.37109405943193E-06,1.40625,1.45329522352895,1.65574596774194
-2.53317011811305E-05,5.34590708411997E-06,1.40625,1.45332991437406,1.65574596774194
-2.7608932214207E-05,5.23034350408125E-06,1.40625,1.45336844245692,1.65574596774194
-2.66373517661123E-05,5.07900631419034E-06,1.40625,1.45341080378189,1.65574596774194
-2.75347210845212E-05,7.90616104495712E-06,1.40625,1.45345699424521,1.65574596774194
-2.66111455857754E-05,8.75230489327805E-06,1.40625,1.45350700964479,1.65574596774194
-2.68232870439533E-05,9.57739575824235E-06,1.40625,1.45356084568915,1.65574596774194
-2.58594191109296E-05,1.06942734419135E-05,1.40625,1.45361849800523,1.65574596774194
-2.66956376435701E-05,1.52404627442593E-05,1.40625,1.45367996214518,1.65574596774194
-2.55879149335669E-05,2.02829542104155E-05,1.40625,1.4537452335919,1.65574596774194
-2.37814929278102E-05,2.38506272580707E-05,1.40625,1.45381430776339,1.65574596774194
-2.35480056289816E-05,2.08077253773808E-05,1.40625,1.45388718001572,1.65574596774194
-2.49055246968055E-05,1.25943770399317E-05,1.40625,1.45396384564478,1.65574596774194
-1.97538847714895E-05,3.4164502267231E-06,1.40625,1.45404429988688,1.65574596774194
-2.765396675386E-05,2.72461875283625E-06,1.40625,1.4541285379184,1.65574596774194
-2.06966087716864E-05,2.41094153352606E-06,1.40625,1.45421655485511,1.65574596774194
-2.53656016866444E-05,7.01652061252389E-06,1.40625,1.45430834575173,1.65574596774194
-2.08980018214788E-05,7.41141366233933E-06,1.40625,1.45440390560185,1.65574596774194
-2.4602184566902E-05,9.08109177544247E-06,1.40625,1.45450322933812,1.65574596774194
-2.33418249990791E-05,9.10189555725083E-06,1.40625,1.45460631183257,1.65574596774194
-2.45919109147508E-05,9.02951614989433E-06,1.40625,1.45471314789669,1.65574596774194
-2.34318013099255E-05,7.75982425693655E-06,1.40625,1.45482373228136,1.65574596774194
-2.27004802582087E-05,7.75514308770653E-06,1.40625,1.4549380596766,1.65574596774194
-2.23735842155293E-05,8.80427342053736E-06,1.40625,1.45505612471124,1.65574596774194
-2.15389627555851E-05,9.91489196167095E-06,1.40625,1.45517792195248,1.65574596774194
-2.31161429837812E-05,1.06687466541189E-05,1.40625,1.45530344590532,1.65574596774194
-2.4067940103123E-05,1.11018925963435E-05,1.40625,1.45543269101187,1.65574596774194
-2.65706294158008E-05,1.25160640891409E-05,1.40625,1.45556565165034,1.65574596774194
-2.55645536526572E-05,1.27947860164568E-05,1.40625,1.45570232213392,1.65574596774194
-2.60127471847227E-05,1.26635331980651E-05,1.40625,1.45584269670923,1.65574596774194
-2.4423339709756E-05,1.17843746920698E-05,1.40625,1.45598676955475,1.65574596774194
-2.50458178925328E-05,1.2088215953554E-05,1.40625,1.45613453477888,1.65574596774194
-2.39964756474365E-05,1.23231448014849E-05,1.40625,1.45628598641797,1.65574596774194
-2.49937111220788E-05,1.38226996568847E-05,1.40625,1.4564411184341,1.65574596774194
-2.53737252933206E-05,1.46683141792892E-05,1.40625,1.45659992471285,1.65574596774194
-2.76485498034162E-05,1.48539093061117E-05,1.40625,1.45676239906075,1.65574596774194
-2.89037125185132E-05,1.46056754601886E-05,1.40625,1.45692853520273,1.65574596774194
-2.97318001685198E-05,1.38478080771165E-05,1.40625,1.4570983267793,1.65574596774194
-2.94684832624625E-05,1.1323867511237E-05,1.40625,1.45727176734365,1.65574596774194
-3.00004867312964E-05,8.19205979496473E-06,1.40625,1.45744885035885,1.65574596774194
-2.43617359956261E-05,6.95520338922506E-06,1.40625,1.45762956919531,1.65574596774194
-3.35959011863451E-05,1.20916483865585E-05,1.40625,1.45781391712858,1.65574596774194
-2.35995939874556E-05,1.16666869871551E-05,1.40625,1.45800188733773,1.65574596774194
-2.89345771307126E-05,1.32151299112593E-05,1.40625,1.45819347290405,1.65574596774194
-2.31956219067797E-05,1.1077127965109E-05,1.40625,1.45838866681005,1.65574596774194
-2.61104087257991E-05,1.04742475741659E-05,1.40625,1.45858746193844,1.65574596774194
-2.24435425479896E-05,1.04528071460663E-05,1.40625,1.45878985107108,1.65574596774194
-2.32903348660329E-05,1.2281229828659E-05,1.40625,1.45899582688797,1.65574596774194
-2.24839768634411E-05,1.32439545268426E-05,1.40625,1.45920538196619,1.65574596774194
-2.16472253669053E-05,1.44906425703084E-05,1.40625,1.4594185087788,1.65574596774194
-2.08035326068057E-05,1.60894105647458E-05,1.40625,1.45963519969361,1.65574596774194
-1.99386013264302E-05,1.617948510102E-05,1.40625,1.45985544697158,1.65574596774194
-2.18972181755817E-05,1.44008918141481E-05,1.40625,1.4600792427649,1.65574596774194
-2.24384366447339E-05,1.02711674117018E-05,1.40625,1.46030657911469,1.65574596774194
-2.53805173997534E-05,8.149156201398E-06,1.40625,1.4605374479486,1.65574596774194
-2.44226448558038E-05,8.65705533215078E-06,1.40625,1.46077184107827,1.65574596774194
-2.49666154559236E-05,1.08895692392252E-05,1.40625,1.46100975019722,1.65574596774194
-2.2515867385664E-05,1.20979639177676E-05,1.40625,1.46125116687912,1.65574596774194
-2.22658927668817E-05,1.34443944261875E-05,1.40625,1.46149608257641,1.65574596774194
-1.9913466530852E-05,1.41981308843242E-05,1.40625,1.46174448861923,1.65574596774194
-2.10031430469826E-05,1.52794946188806E-05,1.40625,1.46199637621414,1.65574596774194
-2.16974858631147E-05,1.5596961020492E-05,1.40625,1.46225173644287,1.65574596774194
-2.28511053137481E-05,1.51957819980453E-05,1.40625,1.46251056026083,1.65574596774194
-2.10850394068984E-05,1.39853063956252E-05,1.40625,1.46277283849569,1.65574596774194
-1.95613956748275E-05,1.37012648337986E-05,1.40625,1.4630385618459,1.65574596774194
-1.94386102521094E-05,1.36896014737431E-05,1.40625,1.46330772087921,1.65574596774194
-1.95975080714561E-05,1.38074283313472E-05,1.40625,1.46358030603121,1.65574596774194
-1.52868997247424E-05,1.12832995000645E-05,1.40625,1.46385630760372,1.65574596774194
-2.18984478124185E-05,1.63425338541856E-05,1.40625,1.46413571576313,1.65574596774194
-1.8456357793184E-05,1.33645244204672E-05,1.40625,1.46441852053872,1.65574596774194
-2.2845479179523E-05,1.77798792719841E-05,1.40625,1.46470471182097,1.65574596774194
-1.88631020137109E-05,1.60085546667688E-05,1.40625,1.46499427935991,1.65574596774194
-2.01288476091577E-05,1.70419734786265E-05,1.40625,1.46528721276356,1.65574596774194
-1.69017293956131E-05,1.58334441948682E-05,1.40625,1.46558350149658,1.65574596774194
-1.71600895555457E-05,1.72686268342659E-05,1.40625,1.46588313487913,1.65574596774194
-1.7054033378372E-05,1.7777372704586E-05,1.40625,1.46618610208584,1.65574596774194
-1.83497850230196E-05,1.82153089554049E-05,1.40625,1.46649239214491,1.65574596774194
-2.07298380701104E-05,1.75324985320913E-05,1.40625,1.4668019939374,1.65574596774194
-2.36847245105309E-05,1.48732260640827E-05,1.40625,1.46711489619663,1.65574596774194
-2.73186105914647E-05,1.19608066597721E-05,1.40625,1.46743108750776,1.65574596774194
-2.77361723419745E-05,8.36207436805125E-06,1.40625,1.46775055630732,1.65574596774194
-2.8690699764411E-05,6.22032439423492E-06,1.40625,1.46807329088275,1.65574596774194
-2.69733482127776E-05,4.58285057902685E-06,1.40625,1.46839927937212,1.65574596774194
-2.59048028965481E-05,7.26140024198685E-06,1.40625,1.46872850976411,1.65574596774194
-2.27237760554999E-05,1.00776360341115E-05,1.40625,1.46906096989854,1.65574596774194
-2.23793704208219E-05,1.2695500117843E-05,1.40625,1.46939664746726,1.65574596774194
-2.16862899833359E-05,1.33619660118711E-05,1.40625,1.46973553001547,1.65574596774194
-2.2324491510517E-05,1.58361963258358E-05,1.40625,1.47007760494299,1.65574596774194
-2.12678023672197E-05,1.77270230778959E-05,1.40625,1.47042285950578,1.65574596774194
-2.07119755941676E-05,1.9032760974369E-05,1.40625,1.47077128081732,1.65574596774194
-2.03019881155342E-05,1.84928085218417E-05,1.40625,1.47112285585047,1.65574596774194
-2.17611141124507E-05,1.66917452588677E-05,1.40625,1.4714775714395,1.65574596774194
-2.34297676797723E-05,1.39927487907698E-05,1.40625,1.47183541428259,1.65574596774194
-2.33734826906584E-05,1.2367992894724E-05,1.40625,1.4721963709446,1.65574596774194
-1.78462178155314E-05,9.40432528295787E-06,1.40625,1.47256042785986,1.65574596774194
-2.56030089076376E-05,1.29473892229726E-05,1.40625,1.47292757133502,1.65574596774194
-2.05985015782062E-05,8.72915643412853E-06,1.40625,1.47329778755189,1.65574596774194
-2.59030002780491E-05,1.12512861960568E-05,1.40625,1.47367106257048,1.65574596774194
-2.26065621973248E-05,1.14813892651E-05,1.40625,1.47404738233214,1.65574596774194
-2.59517928498099E-05,1.44186496982002E-05,1.40625,1.47442673266265,1.65574596774194
-2.42978403548477E-05,1.41405198519351E-05,1.40625,1.47480909927537,1.65574596774194
-2.62129124166677E-05,1.57448648678837E-05,1.40625,1.47519446777423,1.65574596774194
-2.77436356554972E-05,1.60938670887845E-05,1.40625,1.47558282365653,1.65574596774194
-2.89501367660705E-05,1.56932674144628E-05,1.40625,1.47597415231575,1.65574596774194
-2.84528123302152E-05,1.4500079487334E-05,1.40625,1.47636843904422,1.65574596774194
-2.72547731583472E-05,1.16975670607644E-05,1.40625,1.4767656690357,1.65574596774194
-2.82053897535661E-05,8.668866030348E-06,1.40625,1.4771658273878,1.65574596774194
-2.65313901763875E-05,6.52997005090583E-06,1.40625,1.47756889910432,1.65574596774194
-2.55862141784746E-05,8.14301347418223E-06,1.40625,1.47797486909751,1.65574596774194
-2.29358465730911E-05,9.30014448385919E-06,1.40625,1.47838372219068,1.65574596774194
-2.27175351028563E-05,1.04832815850386E-05,1.40625,1.47879544312106,1.65574596774194
-2.10174312087474E-05,1.05154404081986E-05,1.40625,1.47921001654288,1.65574596774194
-2.23622719204286E-05,1.16573773993878E-05,1.40625,1.47962742703056,1.65574596774194
-2.27920045290375E-05,1.00089719126117E-05,1.40625,1.48004765908165,1.65574596774194
-2.4103261239361E-05,8.3639961303561E-06,1.40625,1.48047069711974,1.65574596774194
-2.36177165788831E-05,7.74900126998546E-06,1.40625,1.48089652549708,1.65574596774194
-2.39480395975988E-05,8.04913906904403E-06,1.40625,1.48132512849729,1.65574596774194
-2.34891449508723E-05,8.06277239462361E-06,1.40625,1.48175649033808,1.65574596774194
-2.40387889789417E-05,7.92811897554202E-06,1.40625,1.48219059517407,1.65574596774194
-2.47818461502902E-05,6.78210653859423E-06,1.40625,1.48262742709976,1.65574596774194
-2.48532123805489E-05,4.55775989394169E-06,1.40625,1.48306697015252,1.65574596774194
-2.00172089535045E-05,7.02286399700824E-07,1.40625,1.48350920831567,1.65574596774194
-2.7916506951442E-05,-3.67459932704151E-07,1.40625,1.48395412552176,1.65574596774194
-2.13017847272567E-05,2.39008414837372E-07,1.40625,1.48440170565626,1.65574596774194
-2.70695691142464E-05,4.15067324865959E-06,1.40625,1.4848519325616,1.65574596774194
-2.24037503357977E-05,6.38162691757316E-06,1.40625,1.48530479004184,1.65574596774194
-2.44358834606828E-05,7.33727574697696E-06,1.40625,1.48576026186744,1.65574596774194
-2.13032453757478E-05,7.00391319696791E-06,1.40625,1.48621833178016,1.65574596774194
-2.23549177462701E-05,7.40611130822799E-06,1.40625,1.48667898349787,1.65574596774194
-2.19536104850704E-05,8.52489483804675E-06,1.40625,1.48714220071921,1.65574596774194
-2.30677651416045E-05,1.00158194982214E-05,1.40625,1.48760796712817,1.65574596774194
-2.49421882472234E-05,1.23230274766684E-05,1.40625,1.48807626639862,1.65574596774194
-2.49979111686116E-05,1.68887818290386E-05,1.40625,1.48854708219891,1.65574596774194
-2.55852373811649E-05,2.11011065403E-05,1.40625,1.48902039819678,1.65574596774194
-2.31422563956585E-05,2.01341081265127E-05,1.40625,1.48949619806484,1.65574596774194
-2.32884831348201E-05,1.39286785270087E-05,1.40625,1.48997446548675,1.65574596774194
-2.1370255126385E-05,6.85274699208094E-06,1.40625,1.49045518416425,1.65574596774194
-2.11954757105559E-05,4.28659950557631E-06,1.40625,1.4909383378247,1.65574596774194
-1.9159877410857E-05,5.5447312661272E-06,1.40625,1.49142391022866,1.65574596774194
-1.98229918169091E-05,8.22946003609104E-06,1.40625,1.49191188517748,1.65574596774194
-1.9169203369529E-05,1.04438886410207E-05,1.40625,1.49240224652057,1.65574596774194
-2.03531490114983E-05,1.15015736810165E-05,1.40625,1.49289497816244,1.65574596774194
-2.01534076040844E-05,1.00842989922967E-05,1.40625,1.49339006406929,1.65574596774194
-2.12406230275519E-05,7.26777670934098E-06,1.40625,1.49388748827539,1.65574596774194
-2.17981196328765E-05,5.89420824326226E-06,1.40625,1.49438723488904,1.65574596774194
-2.31394406000618E-05,7.50673552829539E-06,1.40625,1.49488928809836,1.65574596774194
-2.37297317653429E-05,9.47823991737096E-06,1.40625,1.49539363217675,1.65574596774194
-2.4167286028387E-05,9.93288085737731E-06,1.40625,1.49590025148811,1.65574596774194
-2.11152037081774E-05,7.33826891519129E-06,1.40625,1.49640913049185,1.65574596774194
-3.12971496896353E-05,9.01673138287151E-06,1.40625,1.49692025374745,1.65574596774194
-2.42760488617932E-05,6.10505867371103E-06,1.40625,1.49743360591878,1.65574596774194
-2.87007387669291E-05,1.08414933492895E-05,1.40625,1.497949171778,1.65574596774194
-2.43226222664816E-05,1.21783541544573E-05,1.40625,1.49846693620896,1.65574596774194
-2.64303871517768E-05,1.433836769138E-05,1.40625,1.49898688421025,1.65574596774194
-2.44149705395103E-05,1.26036884466885E-05,1.40625,1.49950900089808,1.65574596774194
-2.54208280239254E-05,1.2853860425821E-05,1.40625,1.50003327150913,1.65574596774194
-2.44444327108795E-05,1.30068910948467E-05,1.40625,1.50055968140351,1.65574596774194
-2.49332460953156E-05,1.3233895515441E-05,1.40625,1.50108821606772,1.65574596774194
-2.52271001954796E-05,1.26722734421492E-05,1.40625,1.50161886111769,1.65574596774194
-2.39080163737526E-05,1.10805913209333E-05,1.40625,1.50215160230169,1.65574596774194
-2.36566593230236E-05,1.10797745946911E-05,1.40625,1.50268642550326,1.65574596774194
-2.19390112761175E-05,1.11643821583129E-05,1.40625,1.50322331674392,1.65574596774194
-2.25033036258537E-05,1.12847947093542E-05,1.40625,1.50376226218563,1.65574596774194
-2.13591283682035E-05,9.19154717848869E-06,1.40625,1.50430324813296,1.65574596774194
-2.31547510338714E-05,8.33753620099742E-06,1.40625,1.50484626103495,1.65574596774194
-2.29633133130847E-05,8.97094741958426E-06,1.40625,1.50539128748666,1.65574596774194
-2.43649137701141E-05,1.22292294690851E-05,1.40625,1.50593831423055,1.65574596774194
-2.36770902120043E-05,1.46072707138956E-05,1.40625,1.50648732815771,1.65574596774194
-2.42840160353808E-05,1.58821349032223E-05,1.40625,1.50703831630908,1.65574596774194
-2.38903048739303E-05,1.46151469380129E-05,1.40625,1.50759126587658,1.65574596774194
-2.46307663473999E-05,1.33305929921335E-05,1.40625,1.50814616420431,1.65574596774194
-2.3718179363641E-05,1.23552290460793E-05,1.40625,1.50870299878994,1.65574596774194
-2.35433471971191E-05,1.22524306789273E-05,1.40625,1.50926175728591,1.65574596774194
-2.32620623137336E-05,1.15825105240219E-05,1.40625,1.50982242750062,1.65574596774194
-2.40831541304942E-05,8.58726343722083E-06,1.40625,1.51038499739937,1.65574596774194
-2.05645392270526E-05,5.33238790012547E-06,1.40625,1.51094945510508,1.65574596774194
-3.05303146888036E-05,8.04983210400678E-06,1.40625,1.51151578889905,1.65574596774194
-2.43107733695069E-05,7.93084745964734E-06,1.40625,1.51208398722175,1.65574596774194
-2.89179570245324E-05,1.01752448244952E-05,1.40625,1.51265403867382,1.65574596774194
-2.44480106630363E-05,9.5306377261295E-06,1.40625,1.51322593201709,1.65574596774194
-2.65229173237458E-05,1.08818494481966E-05,1.40625,1.51379965617553,1.65574596774194
-2.41577308770502E-05,1.09610509753111E-05,1.40625,1.51437520023593,1.65574596774194
-2.67159721261123E-05,1.1999967682641E-05,1.40625,1.51495255344839,1.65574596774194
-2.73357527476037E-05,1.21175380627392E-05,1.40625,1.51553170522663,1.65574596774194
-2.81415432255017E-05,1.33638241095468E-05,1.40625,1.51611264514798,1.65574596774194
-2.90050174953649E-05,1.47153159559821E-05,1.40625,1.51669536295324,1.65574596774194
-2.68299045274034E-05,1.42655972013017E-05,1.40625,1.51727984854635,1.65574596774194
-2.49181211984251E-05,1.37966098918696E-05,1.40625,1.51786609199396,1.65574596774194
-2.21342143049696E-05,1.60929866979131E-05,1.40625,1.5184540835249,1.65574596774194
-2.24978648475371E-05,2.10472353501245E-05,1.40625,1.51904381352977,1.65574596774194
-2.06422482733615E-05,2.07416487683076E-05,1.40625,1.51963527256035,1.65574596774194
-2.05863852897892E-05,1.4842197742837E-05,1.40625,1.52022845132932,1.65574596774194
-1.93036048585782E-05,6.4794739955687E-06,1.40625,1.5208233407101,1.65574596774194
-2.15233430935768E-05,1.11436622773908E-06,1.40625,1.52141993173672,1.65574596774194
-2.30548666877439E-05,7.76888839482126E-07,1.40625,1.52201821560395,1.65574596774194
-2.59191929217195E-05,5.71557256989763E-06,1.40625,1.52261818366769,1.65574596774194
-2.67731811618432E-05,9.70250948739704E-06,1.40625,1.52321982744611,1.65574596774194
-2.76834216492716E-05,1.05534891190473E-05,1.40625,1.52382313862131,1.65574596774194
-2.69486699835397E-05,9.28212011785945E-06,1.40625,1.52442810904115,1.65574596774194
-2.61651694017928E-05,9.44458952290006E-06,1.40625,1.52503473072088,1.65574596774194
-2.53053658525459E-05,1.04542523331475E-05,1.40625,1.52564299584451,1.65574596774194
-2.51831079367548E-05,1.050602804753E-05,1.40625,1.52625289676574,1.65574596774194
-1.97501631191699E-05,7.35314870325965E-06,1.40625,1.52686442600877,1.65574596774194
-2.69991760433186E-05,1.11080862552626E-05,1.40625,1.52747757626879,1.65574596774194
-1.96139390027383E-05,1.00552269941545E-05,1.40625,1.52809234041217,1.65574596774194
-2.52792233368382E-05,1.27282428366016E-05,1.40625,1.52870871147649,1.65574596774194
-2.19589819607791E-05,1.33535777422367E-05,1.40625,1.52932668267027,1.65574596774194
-2.55515406024642E-05,2.1944300897303E-05,1.40625,1.52994624737247,1.65574596774194
-2.26413903874345E-05,3.16241166729014E-05,1.40625,1.53056739913212,1.65574596774194
-2.3171052816906E-05,4.0618466300657E-05,1.40625,1.5311901316683,1.65574596774194
-2.38850370806176E-05,4.5276199671207E-05,1.40625,1.5318144388712,1.65574596774194
-2.64795908151427E-05,4.56712150480598E-05,1.40625,1.53244031480487,1.65574596774194
-2.76386435871245E-05,4.03332414862234E-05,1.40625,1.53306775371216,1.65574596774194
-2.5460230972385E-05,2.9977929443703E-05,1.40625,1.53369675002158,1.65574596774194
-2.43959802901372E-05,1.85085918928962E-05,1.40625,1.53432729835587,1.65574596774194
-2.25287221837789E-05,6.46014859739807E-06,1.40625,1.53495939354115,1.65574596774194
-2.3721884645056E-05,-2.88245314550295E-06,1.40625,1.53559303061638,1.65574596774194
-2.21198042709148E-05,-8.84462133399211E-06,1.40625,1.5362282048431,1.65574596774194
-2.20168258238118E-05,-1.05956742117996E-05,1.40625,1.53686491171628,1.65574596774194
-1.98593061213614E-05,-1.38922468977398E-05,1.40625,1.53750314697671,1.65574596774194
-2.03194322239142E-05,-1.98766156245256E-05,1.40625,1.53814290662534,1.65574596774194
-2.02321516553639E-05,-2.7602558475337E-05,1.40625,1.53878418693937,1.65574596774194
-2.23161987378262E-05,-3.10450377583038E-05,1.40625,1.5394269844903,1.65574596774194
-2.20859546971042E-05,-2.60823180724401E-05,1.40625,1.54007129616398,1.65574596774194
-2.27293821808416E-05,-1.37888819153886E-05,1.40625,1.54071711918269,1.65574596774194
-2.35490897466661E-05,-3.17779881697788E-06,1.40625,1.54136445112887,1.65574596774194
-2.40101016970584E-05,4.82665427625761E-06,1.40625,1.54201328996959,1.65574596774194
-2.21166828850983E-05,1.10965183921508E-05,1.40625,1.54266363408056,1.65574596774194
-2.09429890674073E-05,1.5523384718108E-05,1.40625,1.54331548226927,1.65574596774194
-1.75849363586167E-05,1.45523072205833E-05,1.40625,1.54396883379707,1.65574596774194
-2.65201088041067E-05,2.01947295863647E-05,1.40625,1.54462368840084,1.65574596774194
-2.31085796258412E-05,1.50043315443327E-05,1.40625,1.54528004631439,1.65574596774194
-2.85871683445293E-05,1.94207786989864E-05,1.40625,1.54593790828954,1.65574596774194
-2.38078555412358E-05,1.60609342856333E-05,1.40625,1.54659727561705,1.65574596774194
-2.3853810489527E-05,1.61684620252345E-05,1.40625,1.54725815014703,1.65574596774194
-2.18337754631648E-05,1.22880937851733E-05,1.40625,1.54792053430887,1.65574596774194
-2.43227623286657E-05,1.2354565114947E-05,1.40625,1.5485844311304,1.65574596774194
-2.47799580392893E-05,1.29554509840091E-05,1.40625,1.54924984425617,1.65574596774194
-2.49481709033716E-05,1.46137535921298E-05,1.40625,1.54991677796464,1.65574596774194
-2.47727512032725E-05,1.53475539264036E-05,1.40625,1.55058523718422,1.65574596774194
-2.40189274336444E-05,1.53400178533047E-05,1.40625,1.55125522750808,1.65574596774194
-2.48118849413004E-05,1.62129417731194E-05,1.40625,1.55192675520785,1.65574596774194
-2.43432332354132E-05,1.48922272273921E-05,1.40625,1.55259982724632,1.65574596774194
-2.55065606324933E-05,1.47669206853607E-05,1.40625,1.55327445128905,1.65895095546985
-2.40833414864028E-05,1.33969269882073E-05,1.40625,1.55395063571491,1.65895095546985
-2.43629492615582E-05,1.37878341774922E-05,1.40625,1.5546283896254,1.65895095546985
-2.30928417295218E-05,1.23661202451331E-05,1.40625,1.55530772285272,1.65895095546985
-2.37129352171905E-05,1.2484496437537E-05,1.40625,1.55598864596659,1.65895095546985
-2.34314957197057E-05,1.14631657197606E-05,1.40625,1.55667117027961,1.65895095546985
-2.46127492573578E-05,1.22422006825218E-05,1.40625,1.55735530785136,1.65895095546985
-2.39961227634922E-05,1.2911389603687E-05,1.40625,1.55804107149094,1.65895095546985
-2.41102607105859E-05,1.47655400724034E-05,1.40625,1.55872847475833,1.65895095546985
-2.49937038461212E-05,1.49554780364269E-05,1.40625,1.55941753196428,1.65895095546985
-2.75731781584909E-05,1.37290398924961E-05,1.40625,1.56010825816907,1.65895095546985
-2.76586506515741E-05,1.17903218779247E-05,1.40625,1.56080066918023,1.65895095546985
-2.51528927037725E-05,1.13838186734938E-05,1.40625,1.56149478154899,1.65895095546985
-1.75666300492594E-05,9.69096436165273E-06,1.40625,1.56219061256569,1.65895095546985
-2.45676128542982E-05,1.45039712151629E-05,1.40625,1.56288818025405,1.65895095546985
-1.90855316759553E-05,1.18941916298354E-05,1.40625,1.56358750336434,1.65895095546985
-2.45425781031372E-05,1.40443025884451E-05,1.40625,1.56428860136558,1.65895095546985
-2.13739567698212E-05,1.18927073344821E-05,1.40625,1.56499149443661,1.65895095546985
-2.44662205659552E-05,1.24512716865866E-05,1.40625,1.5656962034562,1.65895095546985
-2.2768374037696E-05,1.05163398984587E-05,1.40625,1.56640274999216,1.65895095546985
-2.50466509896796E-05,1.05473409348633E-05,1.40625,1.56711115628972,1.65895095546985
-2.59440348600037E-05,1.00744691735599E-05,1.40625,1.56782144525923,1.65895095546985
-2.70267209998565E-05,9.38704306463478E-06,1.40625,1.56853364046321,1.65895095546985
-2.74088051810395E-05,8.8060378402588E-06,1.40625,1.56924776610289,1.65895095546985
-2.60249835264403E-05,1.05065628304146E-05,1.40625,1.56996384700431,1.65895095546985
-2.54894966928987E-05,1.51580125020701E-05,1.40625,1.57068190860375,1.65895095546985
-2.37252115766751E-05,1.79383387148846E-05,1.40625,1.57140197693282,1.65895095546985
-2.40425815718481E-05,2.04449715965893E-05,1.40625,1.57212407860294,1.65895095546985
-2.19286030187504E-05,2.09010031539947E-05,1.40625,1.57284824078964,1.65895095546985
-2.23805400310084E-05,2.04351090360433E-05,1.40625,1.57357449121666,1.65895095546985
-2.23261977225775E-05,1.74141732713906E-05,1.40625,1.57430285814006,1.65895095546985
-2.43964823312126E-05,1.48482686199713E-05,1.40625,1.57503337033236,1.65895095546985
-2.36864689213689E-05,1.11341432784684E-05,1.40625,1.5757660570663,1.65895095546985
-2.34413801081246E-05,8.18877015262842E-06,1.40625,1.57650094809845,1.65895095546985
-2.12013783311704E-05,6.42826307739597E-06,1.40625,1.57723807365247,1.65895095546985
-1.98720936168684E-05,7.37412528906134E-06,1.40625,1.57797746440235,1.65895095546985
-1.93559753824957E-05,8.15548810351174E-06,1.40625,1.57871915145577,1.65895095546985
-2.11733640753664E-05,7.43232885724865E-06,1.40625,1.57946316633755,1.65895095546985
-2.28695080295438E-05,5.6312956075999E-06,1.40625,1.58020954097317,1.65895095546985
-2.30600744544063E-05,4.99372117701569E-06,1.40625,1.58095830767229,1.65895095546985
-1.72956461028662E-05,5.46978480997495E-06,1.40625,1.58170949911229,1.65895095546985
-2.4573133487138E-05,1.0083746019518E-05,1.40625,1.58246314832198,1.65895095546985
-1.99983896891354E-05,9.99127587419935E-06,1.40625,1.58321928866541,1.65895095546985
-2.65368071268313E-05,1.15681641545962E-05,1.40625,1.58397795382553,1.65895095546985
-2.44425082200905E-05,1.22722212836379E-05,1.40625,1.58473917778756,1.65895095546985
-2.66307870333549E-05,1.05234394141007E-05,1.40625,1.58550299482198,1.65895095546985
-2.23106362682302E-05,4.85725786347757E-06,1.40625,1.58626943946714,1.65895095546985
-2.12671857298119E-05,3.62727564606757E-06,1.40625,1.58703854651146,1.65895095546985
-1.84911477845162E-05,6.55621124678873E-06,1.40625,1.5878103509755,1.65895095546985
-1.71225692611188E-05,9.86600934993476E-06,1.40625,1.58858488809402,1.65895095546985
-1.798141420295E-05,1.06173238236806E-05,1.40625,1.58936219329816,1.65895095546985
-1.8542428733781E-05,1.03050961115514E-05,1.40625,1.59014230219732,1.65895095546985
-1.95711018022848E-05,1.19037295007729E-05,1.40625,1.59092525056092,1.65895095546985
-1.80726401595166E-05,1.44145633385051E-05,1.40625,1.59171107429987,1.65895095546985
-1.89241800399031E-05,1.74884371517692E-05,1.40625,1.59249980944795,1.65895095546985
-1.9088798580924E-05,1.92763527593343E-05,1.40625,1.59329149214325,1.65895095546985
-2.11035167012597E-05,2.00373233383289E-05,1.40625,1.59408615861001,1.65895095546985
-2.08799701795215E-05,2.00592203327687E-05,1.40625,1.59488384514083,1.65895095546985
-2.29504348681076E-05,2.10906073334627E-05,1.40625,1.59568458807965,1.65895095546985
-2.34898798225913E-05,2.11504993785638E-05,1.40625,1.59648842380524,1.65895095546985
-2.4392864361289E-05,2.05417472898262E-05,1.40625,1.5972953887153,1.65895095546985
-2.34812341659563E-05,1.8717681086855E-05,1.40625,1.59810551921094,1.65895095546985
-2.40799909079215E-05,1.63147487910464E-05,1.40625,1.59891885168155,1.65895095546985
-2.43877875618637E-05,1.47963528434047E-05,1.40625,1.59973542248971,1.65895095546985
-2.51481778832385E-05,1.39568010126823E-05,1.40625,1.60055526795612,1.65895095546985
-2.58533036685549E-05,1.2476552001317E-05,1.40625,1.6013784243443,1.65895095546985
-2.59594926319551E-05,9.68843778537121E-06,1.40625,1.60220492784507,1.65895095546985
-2.05651831493014E-05,4.49229219157132E-06,1.40625,1.60303481456101,1.65895095546985
-3.00033207167871E-05,3.4937211239594E-06,1.40625,1.60386812049098,1.65895095546985
-2.4054737878032E-05,-4.71811461011384E-07,1.40625,1.6047048815151,1.65895095546985
-2.91930919047445E-05,2.28074372898845E-06,1.40625,1.60554513338051,1.65895095546985
-2.41675861616386E-05,4.79965410704608E-06,1.40625,1.6063889116878,1.65895095546985
-2.62096273218049E-05,8.34896854939871E-06,1.40625,1.60723625187832,1.65895095546985
-2.32796519412659E-05,6.39123300061328E-06,1.40625,1.60808718922194,1.65895095546985
-2.49742024607258E-05,3.58262559529976E-06,1.40625,1.60894175880515,1.65895095546985
-2.6285115382052E-05,7.88501210990944E-08,1.40625,1.60979999551931,1.65895095546985
-2.73347977781668E-05,-4.24873263682457E-07,1.40625,1.61066193404906,1.65895095546985
-2.64547525148373E-05,2.21250456888811E-06,1.40625,1.61152760886122,1.65895095546985
-2.4444592781947E-05,5.23081280334736E-06,1.40625,1.61239705419405,1.65895095546985
-2.54463211604161E-05,7.88226952863624E-06,1.40625,1.61327030404696,1.65895095546985
-2.51172587013571E-05,9.18551904760534E-06,1.40625,1.61414739217031,1.65895095546985
-2.66042734438088E-05,1.10011205833871E-05,1.40625,1.61502835205523,1.65895095546985
-2.56600596912904E-05,1.16007477117819E-05,1.40625,1.61591321692341,1.65895095546985
-2.62996290985029E-05,1.19986316349241E-05,1.40625,1.61680201971703,1.65895095546985
-2.48492870014161E-05,1.10655637399759E-05,1.40625,1.61769479308884,1.65895095546985
-2.60400483966805E-05,1.03072188721853E-05,1.40625,1.61859156939252,1.65895095546985
-2.48037467827089E-05,8.48315357870888E-06,1.40625,1.6194923806733,1.65895095546985
-2.4426941308775E-05,6.58100861983257E-06,1.40625,1.62039725865869,1.65895095546985
-2.37495805777144E-05,5.47429499420105E-06,1.40625,1.6213062347492,1.65895095546985
-2.4740069420659E-05,7.58936266720411E-06,1.40625,1.622219340009,1.65895095546985
-2.46709569182713E-05,9.616307579563E-06,1.40625,1.62313660515647,1.65895095546985
-2.61003278865246E-05,1.00666011348949E-05,1.40625,1.6240580605546,1.65895095546985
-2.77056515187724E-05,9.33388582780026E-06,1.40625,1.62498373620138,1.65895095546985
-2.8094729714212E-05,9.43083159654634E-06,1.40625,1.6259136617203,1.65895095546985
-2.30189834837802E-05,1.02180611065705E-05,1.40625,1.6268478663509,1.65895095546985
-3.26928311551455E-05,1.63455533765955E-05,1.40625,1.62778637893951,1.65895095546985
-2.54438436968485E-05,1.42507733471575E-05,1.40625,1.62872922793016,1.65895095546985
-3.16459700115956E-05,1.66086410899879E-05,1.40625,1.62967644135579,1.65895095546985
-2.76309638138628E-05,1.53353757923469E-05,1.40625,1.63062804683001,1.65895095546985
-3.2285966881318E-05,1.59766823344398E-05,1.40625,1.63158407153931,1.65895095546985
-2.92464774247492E-05,1.18857624329394E-05,1.40625,1.6325445422358,1.65895095546985
-2.78146999335149E-05,9.70502969721565E-06,1.40625,1.63350948523024,1.65895095546985
-2.29970646614674E-05,9.62146168603795E-06,1.40625,1.63447892638533,1.65895095546985
-2.03079362108838E-05,1.18911875688354E-05,1.40625,1.63545289110888,1.65895095546985
-2.05375963560073E-05,1.51714430103311E-05,1.40625,1.63643140434705,1.65895095546985
-2.16857679333771E-05,1.86560537258629E-05,1.40625,1.63741449057724,1.65895095546985
-2.48295273195254E-05,2.24622017412912E-05,1.40625,1.63840217380103,1.65895095546985
-2.49698769039242E-05,2.11110236705281E-05,1.40625,1.63939447753732,1.65895095546985
-2.71627395704854E-05,1.55018842633581E-05,1.40625,1.64039142481587,1.65895095546985
-2.62313078565057E-05,7.59358636059915E-06,1.40625,1.64139303817162,1.65895095546985
-2.72340075753164E-05,3.49840320268413E-06,1.40625,1.64239933963939,1.65895095546985
-2.54040696745506E-05,3.65270125257666E-06,1.40625,1.643410350749,1.65895095546985
-2.55588620348135E-05,9.19702779356157E-06,1.40625,1.64442609252098,1.65895095546985
-2.3993692593649E-05,1.41664313559886E-05,1.40625,1.64544658546288,1.65895095546985
-2.54735568887554E-05,1.63710719789378E-05,1.40625,1.64647184956616,1.65895095546985
-2.58625022979686E-05,1.44122250276268E-05,1.40625,1.6475019043033,1.65895095546985
-2.70507789537078E-05,1.14026452138205E-05,1.40625,1.64853676862501,1.65895095546985
-2.70543787337374E-05,8.08808817964746E-06,1.40625,1.64957646095752,1.65895095546985
-2.71207518380834E-05,4.68483403892606E-06,1.40625,1.65062099919998,1.65895095546985
-2.56736602750607E-05,2.10911639442202E-06,1.40625,1.65167040072201,1.65895095546985
-2.44380171352532E-05,2.06407867153757E-06,1.40625,1.6527246823617,1.65895095546985
-1.86785619007424E-05,3.70365796698025E-06,1.40625,1.6537838604242,1.65895095546985
-2.54337082878919E-05,7.82688766776118E-06,1.40625,1.65484795068093,1.65895095546985
-1.71852916537318E-05,1.01051837191335E-05,1.40625,1.6559169683692,1.65895095546985
-2.1422880308819E-05,1.29002828543889E-05,1.40625,1.6569909281921,1.65895095546985
-1.76463163370499E-05,1.174657336378E-05,1.40625,1.65806984431816,1.65895095546985
-2.00908161787083E-05,9.42444057727698E-06,1.40625,1.65915373038087,1.65895095546985
-1.84778873517644E-05,9.28500412555877E-06,1.40625,1.66024259947808,1.65895095546985
-2.04195075639291E-05,1.07667665361078E-05,1.40625,1.66133646417105,1.65895095546985
-2.11760325328214E-05,1.08797912616865E-05,1.40625,1.66243533648335,1.65895095546985
-2.15820909943432E-05,1.05074686871376E-05,1.40625,1.66353922789958,1.65895095546985
-2.11754613701487E-05,1.13327187136747E-05,1.40625,1.66464814936387,1.65895095546985
-2.08509009098634E-05,1.17185418275767E-05,1.40625,1.66576211127846,1.65895095546985
-2.33526170632103E-05,1.07099567685509E-05,1.40625,1.66688112350216,1.65895095546985
-2.38620195887052E-05,1.07987461888115E-05,1.40625,1.66800519534896,1.65895095546985
-2.46207364398288E-05,1.6805646737339E-05,1.40625,1.66913433558667,1.65895095546985
-2.2237185476115E-05,2.79171272268286E-05,1.40625,1.67026855243553,1.65895095546985
-2.27952659770381E-05,3.98330485040788E-05,1.40625,1.67140785356732,1.65895095546985
-2.21958816837287E-05,4.73096552013885E-05,1.40625,1.67255224610531,1.65895095546985
-2.28017979679862E-05,4.76458772027399E-05,1.40625,1.67370173662602,1.65895095546985
-2.11241112992866E-05,4.01107572542969E-05,1.40625,1.67485633116341,1.65895095546985
-2.10441121453187E-05,2.79912546830019E-05,1.40625,1.67601603521567,1.65895095546985
-2.08978162845597E-05,1.59375631483272E-05,1.40625,1.67718085375398,1.65895095546985
-2.24274244828848E-05,5.26127087141504E-06,1.40625,1.67835079123237,1.65895095546985
-2.30521636694903E-05,-5.92976357438602E-06,1.40625,1.67952585159811,1.65895095546985
-2.27281561819837E-05,-1.49269508256111E-05,1.40625,1.68070603830269,1.65895095546985
-2.11114256671863E-05,-1.74790930032032E-05,1.40625,1.68189135431436,1.65895095546985
-2.11307560675777E-05,-1.61042480613105E-05,1.40625,1.68308180213267,1.65895095546985
-1.81193136086222E-05,-1.53594610310392E-05,1.40625,1.68427738380555,1.65895095546985
-2.67784307652619E-05,-2.71507724391995E-05,1.40625,1.68547810094863,1.65895095546985
-2.24187915591756E-05,-2.50388256972656E-05,1.40625,1.68668395476678,1.65895095546985
-2.68841540673748E-05,-2.33934515563305E-05,1.40625,1.68789494607744,1.65895095546985
-2.19935882341815E-05,-1.22588735393947E-05,1.40625,1.68911107533568,1.65895095546985
-2.46504696406191E-05,-5.11495090904646E-06,1.40625,1.69033234266053,1.65895095546985
-2.31949870794779E-05,2.20200900002965E-06,1.40625,1.69155874786188,1.65895095546985
-2.37925578403519E-05,5.02139437230653E-06,1.40625,1.69279029046679,1.65895095546985
-2.14485789911123E-05,9.28855388337979E-06,1.40625,1.694026969745,1.65895095546985
-1.94153599295532E-05,1.23329555208329E-05,1.40625,1.69526878473327,1.65895095546985
-1.86650177056436E-05,1.25983424368314E-05,1.40625,1.69651573425917,1.65895095546985
-1.89305974345189E-05,1.19699243441573E-05,1.40625,1.69776781696452,1.65895095546985
-2.13618041016161E-05,1.09665488707833E-05,1.40625,1.69902503132844,1.65895095546985
-2.11648930417141E-05,1.21296125143999E-05,1.40625,1.70028737569024,1.65895095546985
-2.16329972317908E-05,1.27626926769153E-05,1.40625,1.70155484827189,1.65895095546985
-1.98388861463172E-05,1.44953655762947E-05,1.40625,1.70282744720012,1.65895095546985
-2.12106788239907E-05,1.43186407512985E-05,1.40625,1.70410517052803,1.65895095546985
-2.12613613257417E-05,1.49297038660734E-05,1.40625,1.70538801625637,1.65895095546985
-2.24074756260961E-05,1.41968221214483E-05,1.40625,1.7066759823544,1.65895095546985
-2.15429572563153E-05,1.5559697203571E-05,1.40625,1.70796906678033,1.65895095546985
-2.19869471038692E-05,1.66836725838948E-05,1.40625,1.70926726750119,1.65895095546985
-2.14452356885886E-05,1.79191592906136E-05,1.40625,1.71057058251218,1.65895095546985
-2.22041489905678E-05,1.72173513419693E-05,1.40625,1.71187900985544,1.65895095546985
-2.23951628868235E-05,1.54651370394276E-05,1.40625,1.71319254763825,1.65895095546985
-2.40857334574685E-05,1.17613544716733E-05,1.40625,1.71451119405058,1.65895095546985
-2.50303237407934E-05,8.8733468146529E-06,1.40625,1.71583494738192,1.65895095546985
-2.46566069108667E-05,7.89042314863764E-06,1.40625,1.71716380603696,1.65895095546985
-2.1110752641107E-05,5.80097093916265E-06,1.40625,1.71849776855,1.65895095546985
-3.06429210468195E-05,8.6387044575531E-06,1.40625,1.71983683359804,1.65895095546985
-2.28133376367623E-05,6.92251251166454E-06,1.40625,1.72118100001258,1.65895095546985
-2.67124851234257E-05,8.13786300568609E-06,1.40625,1.72253026679025,1.65895095546985
-2.18288114410825E-05,6.58292447042186E-06,1.40625,1.7238846331022,1.65895095546985
