biceps_emg, triceps_emg, subject_position, position_estimate, brace_position
-2.30158966587624E-05,-2.62092526099877E-05,-1.58203125,49.8133364083248,0
-3.10260729747824E-05,-3.48346038663294E-05,-1.58203125,49.8133115548744,0
-2.80868862319039E-05,-2.69245501840487E-05,-1.58203125,49.8132618923804,0
-2.93682642222848E-05,-1.43899806062109E-05,-1.58203125,49.8131874645229,0
-2.45959654421313E-05,2.96250027531642E-06,-1.58203125,49.81308831426,0
-2.27278851525625E-05,1.40570255098282E-05,-1.58203125,49.8129644838334,0
-2.02083374460926E-05,1.96609526028624E-05,-1.58203125,49.812816014777,0
-2.03097060875734E-05,1.88992635230534E-05,-1.58203125,49.8126429479282,0
-2.22483886318514E-05,1.82148651219904E-05,-1.58203125,49.8124453234427,0
-2.45066094066715E-05,2.12775303225499E-05,-1.58203125,49.8122231808141,0
-2.79132909781765E-05,2.53877078648657E-05,-1.58203125,49.8119765588968,0
-2.88886803900823E-05,3.09412062051706E-05,-1.58203125,49.8117054959326,0
-3.04729255731218E-05,3.70459056284744E-05,-1.58203125,49.8114100295803,0
-2.83471199509222E-05,5.58912543056067E-05,-1.58203125,49.8110901969498,0
-2.65024536929559E-05,9.04821426956914E-05,-1.58203125,49.8107460346395,0
-2.32355196203571E-05,0.000131810113089159,-1.58203125,49.8103775787787,0
-2.46385498030577E-05,0.000160625524586067,-1.58203125,49.8099848650765,0
-2.64609661826398E-05,0.000177193389390595,-1.58203125,49.8095679288788,0
-2.91171763819875E-05,0.000179336304427125,-1.58203125,49.8091268052359,0
-2.77057515631896E-05,0.000159632254508324,-1.58203125,49.8086615289813,0
-2.54621045314707E-05,0.000108445608930197,-1.58203125,49.808172134821,0
-2.32790316658793E-05,3.74059272871818E-05,-1.58203125,49.8076586574305,0
-2.34908329730388E-05,-3.07742411678191E-05,-1.58203125,49.8071211315559,0
-2.32830225286307E-05,-7.47553349356167E-05,-1.58203125,49.8065595921124,0
-2.18419991142582E-05,-9.16642966330983E-05,-1.58203125,49.8059740742774,0
-1.68969527294394E-05,-8.00642883405089E-05,-1.58203125,49.8053646135809,0
-2.43755293922732E-05,-0.00012278463691473,-1.58203125,49.8047312459925,0
-2.01414186449256E-05,-0.000106180996226612,-1.58203125,49.8040740080099,0
-2.69077136181295E-05,-0.000125158272567205,-1.58203125,49.8033929367451,0
-2.49297536356607E-05,-9.00561572052538E-05,-1.58203125,49.8026880700122,0
-2.67332980001811E-05,-7.57475427235477E-05,-1.58203125,49.8019594464123,0
-2.41751622525044E-05,-5.75241429032758E-05,-1.58203125,49.8012071054182,0
-2.48533578997012E-05,-6.53693787171505E-05,-1.58203125,49.8004310874532,0
-2.43723388848593E-05,-5.91058196732774E-05,-1.58203125,49.7996314339645,0
-2.45578194153495E-05,-4.00331300625112E-05,-1.58203125,49.7988081874889,0
-2.4425016817986E-05,-1.51872263813857E-05,-1.58203125,49.7979613917129,0
-2.36933119595051E-05,7.32106946088606E-06,-1.58203125,49.7970910915275,0
-2.45438895944972E-05,1.54461104102666E-05,-1.58203125,49.7961973330799,0
-2.3898381186882E-05,2.51238488999661E-05,-1.58203125,49.7952801638257,0
-2.42763017013203E-05,2.47422412940068E-05,-1.58203125,49.7943396325818,0
-2.17105898627779E-05,3.05128687614342E-05,-1.58203125,49.793375789582,0
-2.07123175641755E-05,2.51714591286145E-05,-1.58203125,49.7923886865348,0
-1.90981681953417E-05,2.60638753388776E-05,-1.58203125,49.7913783766835,0
-2.08041674341075E-05,1.90217560884776E-05,-1.58203125,49.790344914868,0
-2.17146007344127E-05,2.05727228603791E-05,-1.58203125,49.7892883575877,0
-2.34079416259192E-05,1.81191153387772E-05,-1.58203125,49.7882087630649,0
-2.26918746193405E-05,2.09265617741039E-05,-1.58203125,49.7871061913075,0
-2.18190361920279E-05,1.87702480616281E-05,-1.58203125,49.7859807041721,0
-2.07754546863725E-05,1.93612759176176E-05,-1.58203125,49.7848323654251,0
-2.26454922085395E-05,1.78228474396747E-05,-1.58203125,49.7836612408035,0
-2.4680286514922E-05,1.67722646438051E-05,-1.58203125,49.7824673980743,0
-2.43408139795065E-05,1.35248637889163E-05,-1.58203125,49.7812509070917,0
-1.79739763552789E-05,1.05205454019597E-05,-1.58203125,49.7800118398525,0
-2.51481778832385E-05,1.97312383534154E-05,-1.58203125,49.7787502705502,0
-1.978203181352E-05,2.259084067191E-05,-1.58203125,49.7774662756248,0
-2.61976656474872E-05,2.99774728773627E-05,-1.58203125,49.7761599338119,0
-2.24523300857982E-05,2.83644239971181E-05,-1.58203125,49.7748313261883,0
-2.35331335716182E-05,2.89637264359044E-05,-1.58203125,49.7734805362163,0
-2.08747860597214E-05,2.69715383183211E-05,-1.58203125,49.7721076497867,0
-2.32466736633796E-05,2.79065425274894E-05,-1.58203125,49.770712755259,0
-2.40864264924312E-05,2.69462925643893E-05,-1.58203125,49.7692959435006,0
-2.55308132182108E-05,2.61423720075982E-05,-1.58203125,49.7678573079231,0
-2.76666523859603E-05,2.50400153163355E-05,-1.58203125,49.7663969445165,0
-2.83515510091092E-05,2.3209844584926E-05,-1.58203125,49.7649149518802,0
-2.93183202302316E-05,2.22001690417528E-05,-1.58203125,49.7634114312521,0
-2.75114107353147E-05,2.15022009797394E-05,-1.58203125,49.761886486534,0
-2.66279494098853E-05,2.25258645514259E-05,-1.58203125,49.7603402243142,0
-2.37227450270439E-05,2.35581846936839E-05,-1.58203125,49.7587727538871,0
-2.37232889048755E-05,2.73256919172127E-05,-1.58203125,49.7571841872692,0
-2.27459568122867E-05,3.17647645715624E-05,-1.58203125,49.7555746392118,0
-2.43986323766876E-05,3.77724718418904E-05,-1.58203125,49.7539442272107,0
-2.49496351898415E-05,4.4270338548813E-05,-1.58203125,49.7522930715134,0
-2.65686376224039E-05,5.20886169397272E-05,-1.58203125,49.7506212951237,0
-2.52480895142071E-05,5.4054082283983E-05,-1.58203125,49.7489290238039,0
-2.41855832427973E-05,4.91987884743139E-05,-1.58203125,49.7472163860765,0
-2.42346195591381E-05,3.95819406548981E-05,-1.58203125,49.7454835132232,0
-2.57293122558622E-05,2.86368540400872E-05,-1.58203125,49.7437305392829,0
-2.61330096691381E-05,1.5535370039288E-05,-1.58203125,49.7419576010475,0
-2.60371489275713E-05,2.97614451483241E-06,-1.58203125,49.7401648380553,0
-2.13809562410461E-05,-8.83059419720666E-06,-1.58203125,49.7383523925833,0
-3.0638329917565E-05,-1.98264278878924E-05,-1.58203125,49.7365204096389,0
-2.37976746575441E-05,-2.39957353187492E-05,-1.58203125,49.7346690369524,0
-2.94919736916199E-05,-2.60277956840582E-05,-1.58203125,49.7327984249715,0
-2.47180341830244E-05,-2.45978462771745E-05,-1.58203125,49.7309087268564,0
-2.73663790721912E-05,-2.40102253883379E-05,-1.58203125,49.7290000984779,0
-2.56139664998045E-05,-1.68589158420218E-05,-1.58203125,49.7270726984162,0
-2.64869868260575E-05,-4.30774980486603E-06,-1.58203125,49.7251266879598,0
-2.44765378738521E-05,9.41878442972666E-06,-1.58203125,49.7231622311056,0
-2.44687398662791E-05,1.67829930433072E-05,-1.58203125,49.7211794945562,0
-2.53826237894828E-05,1.79337075678632E-05,-1.58203125,49.7191786477153,0
-2.51010878855595E-05,1.6693738871254E-05,-1.58203125,49.7171598626801,0
-2.62634857790545E-05,1.23740601338795E-05,-1.58203125,49.7151233142305,0
-2.5071904019569E-05,6.56522979625151E-06,-1.58203125,49.7130691798143,0
-2.5810595616349E-05,2.69226666205213E-06,-1.58203125,49.7109976395306,0
-2.42998703470221E-05,6.54622544971062E-06,-1.58203125,49.7089088761087,0
-2.48641481448431E-05,1.47313576235319E-05,-1.58203125,49.7068030748849,0
-2.25612493522931E-05,2.16657062992454E-05,-1.58203125,49.7046804237761,0
-2.27498676395044E-05,2.24397681449773E-05,-1.58203125,49.7025411132513,0
-2.25839394261129E-05,1.93535342987161E-05,-1.58203125,49.7003853362997,0
-2.40583594859345E-05,1.57243412104435E-05,-1.58203125,49.6982132883984,0
-2.209481135651E-05,1.46820511872647E-05,-1.58203125,49.6960251674768,0
-2.05689375434304E-05,1.46451711771078E-05,-1.58203125,49.6938211738799,0
-1.97385561477859E-05,1.53119690367021E-05,-1.58203125,49.691601510329,0
-2.19019548239885E-05,1.59138908202294E-05,-1.58203125,49.6893663818801,0
-2.33306163863745E-05,1.6004561985028E-05,-1.58203125,49.6871159958804,0
-2.31383128266316E-05,1.45744561450556E-05,-1.58203125,49.6848505619219,0
-1.93505311472109E-05,9.07942012418061E-06,-1.58203125,49.6825702917943,0
-2.8908110834891E-05,1.24836806207895E-05,-1.58203125,49.6802753994346,0
-2.30601417570142E-05,1.05921963040601E-05,-1.58203125,49.6779661008756,0
-2.69714819296496E-05,1.44938758239732E-05,-1.58203125,49.6756426141919,0
-2.30612695304444E-05,1.1559256563487E-05,-1.58203125,49.6733051594449,0
-2.60410906776087E-05,1.23213303595548E-05,-1.58203125,49.6709539586247,0
-2.4182683773688E-05,1.11417939478997E-05,-1.58203125,49.6685892355914,0
-2.51269775617402E-05,1.29756481328513E-05,-1.58203125,49.6662112160142,0
-2.43436843447853E-05,1.36848620968522E-05,-1.58203125,49.663820127309,0
-2.35221796174301E-05,1.39939547807444E-05,-1.58203125,49.6614161985746,0
-2.26728661800735E-05,1.43799798024702E-05,-1.58203125,49.6589996605277,0
-2.21282625716412E-05,1.46843794937013E-05,-1.58203125,49.6565707454367,0
-2.38914599322015E-05,1.54068602569168E-05,-1.58203125,49.6541296870546,0
-2.37282383750426E-05,1.48016397361062E-05,-1.58203125,49.6516767205505,0
-2.49419063038658E-05,1.49908828461776E-05,-1.58203125,49.6492120824413,0
-2.35982242884347E-05,1.44371797432541E-05,-1.58203125,49.6467360105216,0
-2.41705893131439E-05,1.57648064487148E-05,-1.58203125,49.644248743794,0
-2.32501315622358E-05,1.72383843164425E-05,-1.58203125,49.6417505223972,0
-2.44266666413751E-05,2.05523047043243E-05,-1.58203125,49.6392415875355,0
-2.40579702222021E-05,2.02143910428276E-05,-1.58203125,49.6367221814061,0
-2.43750109802932E-05,1.34896772578941E-05,-1.58203125,49.6341925471277,0
-2.27220298256725E-05,2.2494743916468E-06,-1.58203125,49.6316529286675,0
-2.33004248002544E-05,-3.01415502690361E-06,-1.58203125,49.6291035707699,0
-2.42579753830796E-05,-2.052129502772E-06,-1.58203125,49.6265447188841,0
-2.44095481320983E-05,-4.46870558334922E-07,-1.58203125,49.6239766190932,0
-2.32412639888935E-05,-3.78558820557373E-06,-1.58203125,49.6213995180441,0
-2.32075781241292E-05,-6.63570062897634E-06,-1.58203125,49.6188136628788,0
-1.90669070434524E-05,4.66883960825726E-07,-1.58203125,49.6162193011661,0
-2.62965641013579E-05,8.01394253358012E-06,-1.58203125,49.6136166808346,0
-1.83709780685604E-05,1.53090441017412E-05,-1.58203125,49.611006050106,0
-2.23698298214003E-05,1.28073479572777E-05,-1.58203125,49.6083876574292,0
-1.79389735421864E-05,2.98186137115408E-06,-1.58203125,49.6057617514142,0
-2.02830760827055E-05,-8.06886237114668E-06,-1.58203125,49.6031285807664,0
-1.70092571352143E-05,-1.6251195802397E-06,-1.58203125,49.6004883942211,0
-1.61125954036834E-05,1.31486567624961E-05,-1.58203125,49.5978414404784,0
-1.50330270116683E-05,2.25681142183021E-05,-1.58203125,49.5951879681386,0
-1.69821178133134E-05,2.19315606955206E-05,-1.58203125,49.5925282256383,0
-2.03998515644344E-05,1.30721173263737E-05,-1.58203125,49.5898624611865,0
-2.23909664782695E-05,1.16942987915536E-06,-1.58203125,49.5871909227029,0
-2.39549262914807E-05,-5.86834357818589E-06,-1.58203125,49.584513857756,0
-2.23405495489715E-05,-4.37314156442881E-06,-1.58203125,49.5818315135028,0
-2.28221742872847E-05,2.06878621611395E-06,-1.58203125,49.5791441366285,0
-2.2373777028406E-05,1.04870869108709E-05,-1.58203125,49.5764519732869,0
-2.40346653299639E-05,1.66590452863602E-05,-1.58203125,49.5737552690418,0
-2.26939337153453E-05,1.89775819308124E-05,-1.58203125,49.5710542688087,0
-2.30986988754012E-05,1.67808011610759E-05,-1.58203125,49.5683492167964,0
-2.23556126002222E-05,1.36420530907344E-05,-1.58203125,49.5656403564511,0
-2.35046081797918E-05,1.25311153169605E-05,-1.58203125,49.5629279303999,0
-2.38444208662258E-05,1.3833390767104E-05,-1.58203125,49.5602121803963,0
-2.50849370786455E-05,1.38284831336932E-05,-1.58203125,49.5574933472659,0
-2.44886578002479E-05,1.26655140775256E-05,-1.58203125,49.5547716708527,0
-2.47122770815622E-05,1.13731175588327E-05,-1.58203125,49.5520473899656,0
-2.53996040555649E-05,1.09547845568159E-05,-1.58203125,49.5493207423258,0
-2.67522627837025E-05,8.65525271365186E-06,-1.58203125,49.5465919645141,0
-2.24596533371368E-05,3.10271275338891E-06,-1.58203125,49.5438612919182,0
-2.99607108900091E-05,4.21999084210256E-06,-1.58203125,49.5411289586812,0
-1.94460226339288E-05,6.39284689896158E-06,-1.58203125,49.5383951976497,0
-2.58774143730989E-05,1.40313404699555E-05,-1.58203125,49.5356602403224,0
-2.34273284149822E-05,1.98254183487734E-05,-1.58203125,49.5329243167999,0
-2.75130405498203E-05,2.57829306065105E-05,-1.58203125,49.5301876557347,0
-2.38824686675798E-05,2.53180787694873E-05,-1.58203125,49.5274504842827,0
-2.35479219554691E-05,1.90948958334047E-05,-1.58203125,49.5247130280553,0
-2.34745821217075E-05,7.76863907958614E-06,-1.58203125,49.5219755110739,0
-2.55940576607827E-05,-1.93715936802619E-06,-1.58203125,49.5192381557253,0
-2.70064156211447E-05,-1.57946033141343E-06,-1.58203125,49.5165011827181,0
-2.53426424023928E-05,8.77734328241786E-06,-1.58203125,49.5137648110409,0
-2.5138051569229E-05,1.88740705198143E-05,-1.58203125,49.5110292579209,0
-2.32558177231113E-05,2.13979201362235E-05,-1.58203125,49.5082947387846,0
-2.34632898354903E-05,2.14490428334102E-05,-1.58203125,49.5055614672184,0
-2.13518469536211E-05,2.42025125771761E-05,-1.58203125,49.5028296549314,0
-2.188639700762E-05,2.87732291326392E-05,-1.58203125,49.500099511718,0
-2.08799865504261E-05,3.04822624457302E-05,-1.58203125,49.4973712454233,0
-2.29752076847944E-05,3.34751457558014E-05,-1.58203125,49.4946450619082,0
-2.31596877711127E-05,4.36936097685248E-05,-1.58203125,49.4919211650174,0
-2.46402432821924E-05,6.30058348178864E-05,-1.58203125,49.4891997565485,0
-2.4390912585659E-05,8.43293892103247E-05,-1.58203125,49.4864810362234,0
-2.50584598688874E-05,9.5950519607868E-05,-1.58203125,49.4837652016633,0
-2.37430631386815E-05,8.95537668839097E-05,-1.58203125,49.4810524483675,0
-2.33794526138809E-05,6.63936152704991E-05,-1.58203125,49.4783429696981,0
-2.47439456870779E-05,3.20075851050206E-05,-1.58203125,49.4756369568697,0
-2.72558827418834E-05,-6.67733911541291E-06,-1.58203125,49.4729345989413,0
-2.41102898144163E-05,-4.49041799583938E-05,-1.58203125,49.4702360828125,0
-3.31852643284947E-05,-9.00354716577567E-05,-1.58203125,49.4675415932213,0
-2.19380635826383E-05,-9.95713126030751E-05,-1.58203125,49.4648513127471,0
-2.52515401371056E-05,-0.000111796856799629,-1.58203125,49.4621654218231,0
-2.07730008696672E-05,-0.000101273748441599,-1.58203125,49.4594840987576,0
-2.72158413281431E-05,-8.96318306331523E-05,-1.58203125,49.4568075197663,0
-2.555676837801E-05,-5.93618096900173E-05,-1.58203125,49.4541358590123,0
-2.46399904426653E-05,-2.89663639705395E-05,-1.58203125,49.4514692886542,0
-2.21547361434205E-05,-4.7401326810359E-06,-1.58203125,49.4488079788965,0
-2.21829304791754E-05,1.03169222711585E-05,-1.58203125,49.4461520980406,0
-2.35786283155903E-05,2.04668049264001E-05,-1.58203125,49.4435018125341,0
-2.37350595853059E-05,2.78976640402107E-05,-1.58203125,49.4408572870191,0
-2.44319890043698E-05,2.84588204522152E-05,-1.58203125,49.4382186843796,0
-2.28522403631359E-05,2.95274403470103E-05,-1.58203125,49.4355861657898,0
-2.47767929977272E-05,2.64774207607843E-05,-1.58203125,49.4329598907621,0
-2.50709399551852E-05,2.68082967522787E-05,-1.58203125,49.430340017197,0
-2.88127375824843E-05,2.43818813032703E-05,-1.58203125,49.4277267014317,0
-2.95807876682375E-05,2.49868462560698E-05,-1.58203125,49.4251200982898,0
-3.0726041586604E-05,2.17258548218524E-05,-1.58203125,49.4225203611286,0
-2.79609121207614E-05,1.77729161805473E-05,-1.58203125,49.4199276418869,0
-2.7067813789472E-05,4.48495256932802E-06,-1.58203125,49.4173420911297,0
-2.46140516537707E-05,-1.53361543198116E-05,-1.58203125,49.4147638580918,0
-2.3183254597825E-05,-2.99653129332E-05,-1.58203125,49.4121930907181,0
-2.16768257814692E-05,-2.24516406888142E-05,-1.58203125,49.4096299357016,0
-2.17070373764727E-05,-2.78514266938146E-06,-1.58203125,49.4070745385195,0
-2.13942912523635E-05,1.31347460410325E-05,-1.58203125,49.404527043467,0
-2.19482517422875E-05,1.65865603776183E-05,-1.58203125,49.4019875936895,0
-1.99052028619917E-05,1.06306324596517E-05,-1.58203125,49.3994563312123,0
-2.98023405775893E-05,1.42292146847467E-05,-1.58203125,49.3969333969681,0
-2.42327914747875E-05,1.18364059744636E-05,-1.58203125,49.3944189308231,0
-2.87732200376922E-05,1.9083123333985E-05,-1.58203125,49.3919130716006,0
-2.48947726504412E-05,1.91700837604003E-05,-1.58203125,49.3894159571028,0
-2.7111536837765E-05,2.25112671614625E-05,-1.58203125,49.3869277241313,0
-2.3799468181096E-05,2.17495053220773E-05,-1.58203125,49.3844485085053,0
-2.34349536185618E-05,2.33929349633399E-05,-1.58203125,49.3819784450783,0
-2.16390344576212E-05,2.37429958360735E-05,-1.58203125,49.3795176677544,0
-2.14863230212359E-05,2.57835563388653E-05,-1.58203125,49.3770663095022,0
-2.34800045291195E-05,2.71647259069141E-05,-1.58203125,49.3746245023674,0
-2.47438529186184E-05,2.53698253800394E-05,-1.58203125,49.3721923774846,0
-2.60420001723105E-05,2.01033617486246E-05,-1.58203125,49.3697700650864,0
-2.52345580520341E-05,1.17201952889445E-05,-1.58203125,49.3673576945121,0
-2.67899940809002E-05,7.24681467545452E-06,-1.58203125,49.364955394214,0
-2.64020527538378E-05,6.91254126650165E-06,-1.58203125,49.3625632917614,0
-2.8066413506167E-05,1.18917723739287E-05,-1.58203125,49.3601815138435,0
-2.75943621090846E-05,1.45815456562559E-05,-1.58203125,49.3578101862694,0
-2.8308237233432E-05,1.54395747813396E-05,-1.58203125,49.3554494339671,0
-2.62102603301173E-05,1.4068694326852E-05,-1.58203125,49.3530993809807,0
-2.5133733288385E-05,1.40581314553856E-05,-1.58203125,49.3507601504644,0
-2.41596153500723E-05,1.23237659863662E-05,-1.58203125,49.3484318646759,0
-2.59309945249697E-05,1.16838609756087E-05,-1.58203125,49.3461146449672,0
-2.66398510575527E-05,1.09835282273707E-05,-1.58203125,49.3438086117737,0
-2.53710804827278E-05,1.10097316792235E-05,-1.58203125,49.3415138846024,0
-2.20137644646456E-05,1.13206278911093E-05,-1.58203125,49.3392305820187,0
-2.02793817152269E-05,1.35467480504303E-05,-1.58203125,49.3369588216318,0
-1.70369330589892E-05,1.51208469105768E-05,-1.58203125,49.3346987200796,0
-2.4433184080408E-05,2.35719362535747E-05,-1.58203125,49.3324503930114,0
-1.75717923411867E-05,1.94405238289619E-05,-1.58203125,49.3302139550706,0
-2.09779955184786E-05,2.178523936891E-05,-1.58203125,49.3279895198746,0
-1.86336874321569E-05,1.71305055118864E-05,-1.58203125,49.3257771999954,0
-2.17964206967736E-05,1.75832446984714E-05,-1.58203125,49.3235771069374,0
-1.99282985704485E-05,1.74245815287577E-05,-1.58203125,49.3213893511162,0
-2.04028401640244E-05,2.00382801267551E-05,-1.58203125,49.3192140418346,0
-2.0164616216789E-05,1.99454898393014E-05,-1.58203125,49.3170512872589,0
-2.15162708627759E-05,1.83420033863513E-05,-1.58203125,49.3149011943939,0
-2.35376483033178E-05,1.68843034771271E-05,-1.58203125,49.3127638690569,0
-2.37632139032939E-05,1.63667991728289E-05,-1.58203125,49.3106394158521,0
-2.34199633268872E-05,1.77206165972166E-05,-1.58203125,49.3085279381431,0
-2.09423706110101E-05,1.76090725290123E-05,-1.58203125,49.306429538026,0
-2.2085994714871E-05,1.74090910149971E-05,-1.58203125,49.3043443163023,0
-2.24211307795485E-05,1.42021772262524E-05,-1.58203125,49.3022723724509,0
-2.3871150915511E-05,1.28455676531303E-05,-1.58203125,49.3002138046004,0
-2.29519191634608E-05,1.2479324141168E-05,-1.58203125,49.298168709502,0
-2.29510224016849E-05,1.69619997905102E-05,-1.58203125,49.2961371825011,0
-2.18278073589318E-05,2.4006913008634E-05,-1.58203125,49.294119317511,0
-2.24629693548195E-05,3.2390085834777E-05,-1.58203125,49.2921152069853,0
-2.19717439904343E-05,3.67926550097764E-05,-1.58203125,49.2901249418914,0
-2.189874794567E-05,3.93280279240571E-05,-1.58203125,49.2881486116844,0
-2.14571664400864E-05,3.86260253435466E-05,-1.58203125,49.2861863042817,0
-2.15112158912234E-05,3.3866675948957E-05,-1.58203125,49.2842381060398,0
-2.0303348719608E-05,2.42324495047797E-05,-1.58203125,49.2823041017314,0
-1.86350316653261E-05,1.30555554278544E-05,-1.58203125,49.2803843745241,0
-1.47243536048336E-05,1.24565292480838E-06,-1.58203125,49.2784790059596,0
-2.16687058127718E-05,-3.79805987904547E-06,-1.58203125,49.2765880759339,0
-1.79789058165625E-05,-9.46014188230038E-06,-1.58203125,49.2747116626783,0
-2.23926654143725E-05,-1.23218387670931E-05,-1.58203125,49.272849842743,0
-2.04024090635357E-05,-2.06654203793732E-05,-1.58203125,49.2710026909834,0
-2.34152685152367E-05,-2.68362382485066E-05,-1.58203125,49.2691702805485,0
-2.22787439270178E-05,-2.90524403681047E-05,-1.58203125,49.2673526828731,0
-2.38584234466543E-05,-2.42931346292607E-05,-1.58203125,49.2655499676724,0
-2.51910478255013E-05,-1.63798285939265E-05,-1.58203125,49.26376220294,0
-2.69470638158964E-05,-8.24340622784803E-06,-1.58203125,49.2619894549482,0
-2.69869506155374E-05,-3.34860305883922E-06,-1.58203125,49.2602317882501,0
-2.57521860476118E-05,-2.33412606576167E-06,-1.58203125,49.2584892656817,0
-2.63216697931057E-05,-2.04091520572547E-06,-1.58203125,49.2567619483644,0
-2.65367016254459E-05,-1.36977769216173E-06,-1.58203125,49.255049895706,0
-2.80844687949866E-05,4.31788009791489E-07,-1.58203125,49.2533531654015,0
-2.66927381744608E-05,3.96974701288855E-06,-1.58203125,49.2516718134323,0
-2.56844159594039E-05,1.10023911474855E-05,-1.58203125,49.2500058940654,0
-2.30149507842725E-05,1.79138678504387E-05,-1.58203125,49.2483554598519,0
-2.30689311138121E-05,2.09761146834353E-05,-1.58203125,49.2467205616265,0
-2.32048314501299E-05,1.79119178937981E-05,-1.58203125,49.245101248507,0
-2.46676954702707E-05,1.53283799591009E-05,-1.58203125,49.243497567896,0
-2.46110448642867E-05,1.69008289958583E-05,-1.58203125,49.241909565483,0
-2.50444045377662E-05,1.98107300093398E-05,-1.58203125,49.2403372852487,0
-2.49438635364641E-05,1.95937609532848E-05,-1.58203125,49.2387807694688,0
-2.57441279245541E-05,1.81415834958898E-05,-1.58203125,49.2372400587198,0
-2.61284640146187E-05,1.7326057786704E-05,-1.58203125,49.2357151918846,0
-2.42646565311588E-05,1.69528975675348E-05,-1.58203125,49.2342062061594,0
-1.72970012499718E-05,1.31828919620602E-05,-1.58203125,49.2327131370606,0
-2.4176084480132E-05,1.95844331756234E-05,-1.58203125,49.2312360184322,0
-1.90496484719915E-05,1.53003002196783E-05,-1.58203125,49.2297748824524,0
-2.56388029811205E-05,1.6477120880154E-05,-1.58203125,49.2283297596411,0
-2.32846978178713E-05,1.1256110155955E-05,-1.58203125,49.2269006788666,0
-2.54349688475486E-05,1.17976660476415E-05,-1.58203125,49.2254876673521,0
-2.34124308917671E-05,8.67965081852162E-06,-1.58203125,49.224090750682,0
-2.57426272582961E-05,8.5782749010832E-06,-1.58203125,49.2227099528078,0
-2.58241343544796E-05,1.05583303593448E-05,-1.58203125,49.2213452960534,0
-2.58527888945537E-05,1.6203293853323E-05,-1.58203125,49.2199968011192,0
-2.5986546461354E-05,2.01774018933065E-05,-1.58203125,49.2186644870872,0
-2.52545469265897E-05,1.82495332410326E-05,-1.58203125,49.2173483714241,0
-2.54048281931318E-05,1.38317509481567E-05,-1.58203125,49.2160484699859,0
-2.32279180636397E-05,8.35236187413102E-06,-1.58203125,49.2147647970213,0
-2.31422836804995E-05,7.39484494260978E-06,-1.58203125,49.2134973651761,0
-2.20697365875822E-05,8.94821187102934E-06,-1.58203125,49.2122461854968,0
-2.37832173297647E-05,1.33668690978084E-05,-1.58203125,49.211011267434,0
-2.36788000620436E-05,1.42806911753723E-05,-1.58203125,49.2097926188469,0
-2.48564683715813E-05,1.59980882017408E-05,-1.58203125,49.208590246006,0
-2.39230084844166E-05,2.80169515463058E-05,-1.58203125,49.2074041535969,0
-2.42783662542934E-05,6.4083666075021E-05,-1.58203125,49.2062343447234,0
-2.33874488912988E-05,0.000109409840661101,-1.58203125,49.2050808209124,0
-2.28924145631026E-05,0.000143268058309332,-1.58203125,49.2039435821205,0
-2.20111014641589E-05,0.000159844144945964,-1.58203125,49.2028226267475,0
-2.24491086555645E-05,0.000159948773216456,-1.58203125,49.2017179516564,0
-2.27967193495715E-05,0.000136280737933703,-1.58203125,49.2006295522049,0
-2.38528555200901E-05,8.54905010783114E-05,-1.58203125,49.1995574222855,0
-2.01575003302423E-05,2.96899702334485E-06,-1.58203125,49.1985015543718,0
-2.92902113869786E-05,-4.58578469988424E-05,-1.58203125,49.1974619395703,0
-2.25368694373174E-05,-0.000100225777714513,-1.58203125,49.1964385676732,0
-2.66849547188031E-05,-0.000110124929051381,-1.58203125,49.195431427217,0
-2.17110919038532E-05,-0.000123902267660014,-1.58203125,49.1944405055508,0
-2.42052374233026E-05,-0.000122844881843776,-1.58203125,49.1934657889147,0
-2.23399492824683E-05,-0.000133335488499142,-1.58203125,49.1925072625311,0
-2.41030666074948E-05,-0.00012781129044015,-1.58203125,49.191564910706,0
-2.42855185206281E-05,-0.000106661398604047,-1.58203125,49.1906387169393,0
-2.53266480285674E-05,-6.73787217237987E-05,-1.58203125,49.1897286640424,0
-2.68282637989614E-05,-3.14928074658383E-05,-1.58203125,49.1888347342596,0
-2.66408569586929E-05,-8.84498786035692E-06,-1.58203125,49.1879569093911,0
-2.74885405815439E-05,4.15589647673187E-06,-1.58203125,49.1870951709122,0
-2.62973517237697E-05,6.39301515548141E-06,-1.58203125,49.1862495000887,0
-2.64690279436763E-05,7.85428073868388E-06,-1.40625,49.1854198780877,0
-2.38406191783724E-05,6.48378818368656E-06,-1.40625,49.1846062860854,0
-2.36609721468994E-05,1.04943974292837E-05,-1.40625,49.1838087053719,0
-2.28980388783384E-05,1.10418695840053E-05,-1.40625,49.1830271174526,0
-2.48420401476324E-05,1.58421953528887E-05,-1.40625,49.1822615041469,0
-2.42781934503E-05,1.95366283151088E-05,-1.40625,49.1815118476841,0
-2.39896689890884E-05,2.57522679021349E-05,-1.40625,49.1807781307964,0
-2.17925862671109E-05,2.73253062914591E-05,-1.40625,49.1800603368084,0
-2.12747145269532E-05,2.99049861496314E-05,-1.40625,49.1793584497256,0
-2.21728387259645E-05,2.99991934298305E-05,-1.40625,49.1786724543194,0
-2.39817309193313E-05,2.94730871246429E-05,-1.40625,49.1780023362099,0
-2.3502747353632E-05,2.55480936175445E-05,-1.40625,49.1773480819468,0
-2.21111513383221E-05,2.19914345507277E-05,-1.40625,49.1767096790864,0
-1.81279956450453E-05,1.63945114763919E-05,-1.40625,49.1760871162663,0
-2.69002939603524E-05,2.14525371120544E-05,-1.40625,49.1754803832753,0
-2.24933628487634E-05,1.07226760519552E-05,-1.40625,49.1748894711202,0
-2.86571321339579E-05,8.25133884063689E-06,-1.40625,49.174314372087,0
-2.56466155406088E-05,5.65141772312927E-06,-1.40625,49.173755079797,0
-2.62053472397383E-05,1.70809053088306E-05,-1.40625,49.1732115892587,0
-2.24275499931537E-05,1.67535381478956E-05,-1.40625,49.1726838969129,0
-2.29403722187271E-05,3.76392245016177E-06,-1.40625,49.1721720006733,0
-2.2446694856626E-05,-7.67738856666256E-06,-1.40625,49.1716758999618,0
-2.22427079279441E-05,-1.31509227685456E-06,-1.40625,49.1711955957396,0
-2.21737336687511E-05,1.47397377077141E-05,-1.40625,49.1707310905335,0
-2.13558196264785E-05,2.53165617323248E-05,-1.40625,49.170282388458,0
-2.17032447835663E-05,2.62426292465534E-05,-1.40625,49.1698494952337,0
-2.10151119972579E-05,1.91918243217515E-05,-1.40625,49.1694324182021,0
-2.23845581786009E-05,1.49196639540605E-05,-1.40625,49.1690311663366,0
-2.24390896619298E-05,1.16332166726352E-05,-1.40625,49.168645750251,0
-2.46403687924612E-05,1.06393072201172E-05,-1.40625,49.168276182204,0
-2.3737999072182E-05,8.00650013843551E-06,-1.40625,49.1679224761,0
-2.27629898290616E-05,9.20942693483084E-06,-1.40625,49.1675846474857,0
-2.01587954506977E-05,1.31008664538967E-05,-1.40625,49.1672627135434,0
-2.13137718674261E-05,2.27109430852579E-05,-1.40625,49.1669566930805,0
-2.3015421902528E-05,3.17077538056765E-05,-1.40625,49.1666666065161,0
-2.5254692445742E-05,3.73222355847247E-05,-1.40625,49.1663924758643,0
-2.49361637543188E-05,3.67400316463318E-05,-1.40625,49.1661343247152,0
-2.25801377382595E-05,3.31726587319281E-05,-1.40625,49.1658921782144,0
-2.05334581551142E-05,2.83445369859692E-05,-1.40625,49.1656660630408,0
-2.17337019421393E-05,2.53568723564968E-05,-1.40625,49.165456007383,0
-1.89315142051782E-05,1.91902945516631E-05,-1.40625,49.1652620409134,0
-2.71539756795391E-05,2.57148221862735E-05,-1.40625,49.1650841947605,0
-2.15234667848563E-05,1.72324071172625E-05,-1.40625,49.1649225014775,0
-2.63879737758543E-05,2.08728997677099E-05,-1.40625,49.16477699501,0
-2.20372221519938E-05,1.50923578985385E-05,-1.40625,49.1646477106598,0
-2.55342220043531E-05,1.63967797561781E-05,-1.40625,49.1645346850483,0
-2.42951791733503E-05,1.33647463371744E-05,-1.40625,49.1644379560772,0
-2.51825185841881E-05,1.48043754961691E-05,-1.40625,49.164357562888,0
-2.36538671742892E-05,1.44477662615827E-05,-1.40625,49.1642935458209,0
-2.34987473959336E-05,1.51857648233999E-05,-1.40625,49.164245946372,0
-2.50667017098749E-05,1.59548344527138E-05,-1.40625,49.1642148071493,0
-2.54895676334854E-05,1.51487329276279E-05,-1.40625,49.1642001718288,0
-2.69182601186913E-05,1.55941415869165E-05,-1.40625,49.1642020851081,0
-2.73745135928039E-05,1.45502081068116E-05,-1.40625,49.1642205926604,0
-2.99336315947585E-05,1.60908748512156E-05,-1.40625,49.1642557410863,0
-2.86642043647589E-05,1.58590191858821E-05,-1.40625,49.1643075778654,0
-2.74033991445322E-05,1.82359290192835E-05,-1.40625,49.164376151307,0
-2.45923456532182E-05,1.7989654224948E-05,-1.40625,49.1644615104989,0
-2.53917860391084E-05,1.84391010407126E-05,-1.40625,49.1645637052565,0
-2.41856232605642E-05,1.63263866852503E-05,-1.40625,49.16468278607,0
-2.31031681323657E-05,1.60654508363223E-05,-1.40625,49.1648188040515,0
-2.11391288758023E-05,1.50352052514791E-05,-1.40625,49.1649718108807,0
-2.16720090975286E-05,1.54008994286414E-05,-1.40625,49.1651418587505,0
-2.16703756450443E-05,1.36671424115775E-05,-1.40625,49.1653290003119,0
-2.15679865505081E-05,1.15023958642269E-05,-1.40625,49.1655332886188,0
-1.9855053324136E-05,1.06644583866E-05,-1.40625,49.1657547770721,0
-1.88276117114583E-05,9.5736759249121E-06,-1.40625,49.1659935193636,0
-1.63534587045433E-05,5.08359335071873E-06,-1.40625,49.1662495694206,0
-2.37312742683571E-05,5.01047315992764E-06,-1.40625,49.16652298135,0
-1.82259482244262E-05,2.95340578304604E-06,-1.40625,49.1668138093824,0
-2.40575318457559E-05,6.6874658841698E-06,-1.40625,49.167122107818,0
-2.47644802584546E-05,7.22241929906886E-06,-1.40625,49.1674479309713,0
-3.02394219033886E-05,9.25638596527278E-06,-1.40625,49.1677913331182,0
-2.98561189993052E-05,8.07860124041326E-06,-1.40625,49.1681523684415,0
-2.82895889540669E-05,6.71093084747554E-06,-1.40625,49.1685310909782,0
-2.53741654887563E-05,6.172709618113E-06,-1.40625,49.1689275545656,0
-2.56432667811168E-05,6.9440884544747E-06,-1.40625,49.1693418127878,0
-2.6121027985937E-05,6.9395273385453E-06,-1.40625,49.169773918922,0
-2.36740088439547E-05,6.41309088678099E-06,-1.40625,49.1702239258857,0
-2.08892997761723E-05,7.62089484851458E-06,-1.40625,49.1706918861836,0
-1.7542215573485E-05,9.72462021309184E-06,-1.40625,49.1711778518544,0
-1.68508195201866E-05,1.18368061521323E-05,-1.40625,49.1716818744187,0
-1.52776901813922E-05,1.08203330455581E-05,-1.40625,49.1722040048265,0
-1.64896900969325E-05,9.89466025203001E-06,-1.40625,49.1727442934043,0
-1.68336391652701E-05,8.66442860569805E-06,-1.40625,49.1733027898033,0
-1.8842250938178E-05,7.98159817350097E-06,-1.40625,49.1738795429475,0
-1.9226241420256E-05,7.51150810174295E-06,-1.40625,49.1744746009819,0
-2.08117944566766E-05,9.01328166946769E-06,-1.40625,49.175088011221,0
-2.1764626580989E-05,1.01122295745881E-05,-1.40625,49.175719820098,0
-2.31709018407855E-05,9.0460680439719E-06,-1.40625,49.1763700731142,0
-2.25702679017559E-05,6.00350676904782E-06,-1.40625,49.1770388147897,0
-2.17963515751762E-05,5.6742364904494E-06,-1.40625,49.1777260886137,0
-2.06995646294672E-05,8.04011142463423E-06,-1.40625,49.1784319369965,0
-1.93798023246927E-05,9.99388339550933E-06,-1.40625,49.1791564012218,0
-1.53906730702147E-05,7.89926434663357E-06,-1.40625,49.1798995214001,0
-2.2255580915953E-05,1.03011034298106E-05,-1.40625,49.1806613364222,0
-1.74980850715656E-05,7.0935498115432E-06,-1.40625,49.1814418839145,0
-2.04721472982783E-05,1.03809825304779E-05,-1.40625,49.182241200195,0
-1.53024539031321E-05,9.35793377720984E-06,-1.40625,49.1830593202299,0
-1.64003486133879E-05,9.97119786916301E-06,-1.40625,49.1838962775919,0
-1.57277318066917E-05,9.2913305707043E-06,-1.40625,49.1847521044192,0
-1.95421544049168E-05,1.0165913408855E-05,-1.40625,49.1856268313757,0
-2.24046543735312E-05,8.43015641294187E-06,-1.40625,49.1865204876118,0
-2.45765822910471E-05,6.90728984409361E-06,-1.40625,49.1874331007275,0
-2.52804165938869E-05,7.69860344007611E-06,-1.40625,49.1883646967348,0
-2.4876322640921E-05,9.33077080844669E-06,-1.40625,49.1893153000227,0
-2.70806267508306E-05,1.12805491880863E-05,-1.40625,49.1902849333216,0
-2.85233363683801E-05,1.20570502986084E-05,-1.40625,49.1912736176695,0
-2.9928265576018E-05,1.29743575598695E-05,-1.40625,49.192281372379,0
-2.86759550363058E-05,1.21705716082943E-05,-1.40625,49.193308215005,0
-2.95593654300319E-05,1.16135042844689E-05,-1.40625,49.1943541613142,0
-2.95855916192522E-05,1.17136987682898E-05,-1.40625,49.1954192252555,0
-3.16313162329607E-05,1.87497371371137E-05,-1.40625,49.1965034189312,0
-3.27339621435385E-05,3.17758094752207E-05,-1.40625,49.19760675257,0
-3.40631922881585E-05,4.40268413512968E-05,-1.40625,49.1987292345016,0
-3.22481901093852E-05,4.66716119262856E-05,-1.40625,49.1998708711326,0
-3.05743196804542E-05,4.01318611693569E-05,-1.40625,49.2010316669262,0
-2.87027069134638E-05,2.70822911261348E-05,-1.40625,49.202211624385,0
-2.879805106204E-05,1.1767332580348E-05,-1.40625,49.2034107440372,0
-2.98952745652059E-05,-5.68292580283014E-06,-1.40625,49.2046290244246,0
-3.01326981571037E-05,-1.93326159205753E-05,-1.40625,49.2058664620935,0
-2.32682614296209E-05,-2.0491699615377E-05,-1.40625,49.2071230515867,0
-3.38946592819411E-05,-2.99424700642703E-05,-1.40625,49.2083987854396,0
-2.79953328572446E-05,-2.37973144976422E-05,-1.40625,49.2096936541798,0
-3.39090656780172E-05,-2.86187587335007E-05,-1.40625,49.2110076463303,0
-2.70381642621942E-05,-1.74796859937487E-05,-1.40625,49.2123407484175,0
-2.99178700515768E-05,-7.31812087906292E-06,-1.40625,49.2136929449816,0
-2.80367439700058E-05,8.38654523249716E-06,-1.40625,49.2150642185894,0
-2.99936673400225E-05,1.69871873367811E-05,-1.40625,49.216454549849,0
-2.75767724815523E-05,2.08278270292794E-05,-1.40625,49.2178639174253,0
-2.60680553765269E-05,1.72276468219934E-05,-1.40625,49.2192922980554,0
-2.61753993981984E-05,1.15537168312585E-05,-1.40625,49.2207396665661,0
-2.56166895269416E-05,9.60500437940937E-06,-1.40625,49.2222059958922,0
-2.63275032921229E-05,9.11595634534024E-06,-1.40625,49.2236912570952,0
-2.35180305026006E-05,1.11385161289945E-05,-1.40625,49.2251954193826,0
-2.36841860896675E-05,1.00969036793686E-05,-1.40625,49.2267184501272,0
-2.29213510465343E-05,1.1170161087648E-05,-1.40625,49.2282603148862,0
-2.54297410720028E-05,1.11087219920591E-05,-1.40625,49.2298209774198,0
-2.46513936872361E-05,1.2960147614649E-05,-1.40625,49.2314003997104,0
-2.61287914327113E-05,1.12511161205475E-05,-1.40625,49.2329985419817,0
-2.61549594142707E-05,9.74529393715784E-06,-1.40625,49.234615362717,0
-2.80157019005856E-05,6.55296707918751E-06,-1.40625,49.2362508186784,0
-2.70735272351885E-05,7.86791770224227E-06,-1.40625,49.237904864926,0
-2.57686715485761E-05,1.07818641481572E-05,-1.40625,49.239577454836,0
-2.32985803449992E-05,1.46522379509406E-05,-1.40625,49.2412685401194,0
-2.2193999029696E-05,1.65865512826713E-05,-1.40625,49.2429780708405,0
-2.07351076824125E-05,1.71709780261153E-05,-1.40625,49.2447059954346,0
-1.99250971490983E-05,1.6524643797311E-05,-1.40625,49.2464522607273,0
-1.71872452483512E-05,1.12180150608765E-05,-1.40625,49.2482168119523,0
-2.47435527853668E-05,1.44351179187652E-05,-1.40625,49.2499995927713,0
-1.8810729670804E-05,9.42560473049525E-06,-1.40625,49.2518005452921,0
-2.29815104830777E-05,1.29911304611596E-05,-1.40625,49.2536196100876,0
-2.01412767637521E-05,1.15003540486214E-05,-1.40625,49.2554567262143,0
-2.26539250434143E-05,1.86501056305133E-05,-1.40625,49.2573118312303,0
-1.9727936887648E-05,2.5386983907083E-05,-1.40625,49.2591848612132,0
-1.94409694813658E-05,3.3913180232048E-05,-1.40625,49.2610757507783,0
-1.93058094737353E-05,3.79382727260236E-05,-1.40625,49.2629844330972,0
-2.04598509299103E-05,3.90220193366986E-05,-1.40625,49.2649108399176,0
-2.24651030293899E-05,3.59355290129315E-05,-1.40625,49.2668549015849,0
-2.29894885706017E-05,2.77164872386493E-05,-1.40625,49.2688165470648,0
-2.37659169215476E-05,1.6516742107342E-05,-1.40625,49.2707957039679,0
-2.18490731640486E-05,3.66169024346164E-06,-1.40625,49.2727922985749,0
-2.1786690922454E-05,-4.66996198156266E-06,-1.40625,49.2748062558619,0
-2.09773916139966E-05,-1.13581454570522E-05,-1.40625,49.2768374995267,0
-2.20773054024903E-05,-1.39413023134694E-05,-1.23046875,-0.326744718160505,0.0463490532959327
-2.11596106964862E-05,-1.47394675877877E-05,-1.23046875,-0.326727206737245,0.0463490532959327
-2.19610301428474E-05,-1.23834552141489E-05,-1.23046875,-0.32669225761011,0.0463490532959327
-2.24155792238889E-05,-1.10048640635796E-05,-1.23046875,-0.326639945802997,0.0463490532959327
-2.44890779868001E-05,-8.04469163995236E-06,-1.23046875,-0.326570347616934,0.0463490532959327
-2.44038892560638E-05,-4.23250730818836E-06,-1.23046875,-0.326483540600354,0.0463490532959327
-2.52626850851811E-05,3.21160337080073E-06,-1.23046875,-0.326379603516524,0.0463490532959327
-2.49149798037251E-05,1.05758717836579E-05,-1.23046875,-0.326258616307852,0.0463490532959327
-2.34730669035343E-05,1.51384256241727E-05,-1.23046875,-0.326120660056985,0.0463490532959327
-2.21309419430327E-05,1.59946084750118E-05,-1.23046875,-0.325965816944776,0.0463490532959327
-2.15440941246925E-05,1.54383051267359E-05,-1.23046875,-0.325794170205158,0.0463490532959327
-1.70136772794649E-05,1.27994380818564E-05,-1.23046875,-0.325605804076767,0.0463490532959327
-2.36690993915545E-05,1.79244671016932E-05,-1.23046875,-0.325400803751007,0.0463490532959327
-1.75397071870975E-05,1.10819346446078E-05,-1.23046875,-0.325179255316213,0.0463490532959327
-2.22882990783546E-05,1.15465736598708E-05,-1.23046875,-0.324941245697626,0.0463490532959327
-1.95142365555512E-05,8.98583130037878E-06,-1.23046875,-0.324686862592944,0.0463490532959327
-2.28107510338305E-05,1.27419662021566E-05,-1.23046875,-0.32441619440321,0.0463490532959327
-2.02424635062926E-05,1.38014047479373E-05,-1.23046875,-0.324129330158899,0.0463490532959327
-2.04879124794388E-05,1.58627717610216E-05,-1.23046875,-0.323826359441281,0.0463490532959327
-2.02471710508689E-05,1.63560798682738E-05,-1.23046875,-0.323507372299318,0.0463490532959327
-2.07801967917476E-05,1.61263233167119E-05,-1.23046875,-0.323172459162451,0.0463490532959327
-2.12829963857075E-05,1.53550354298204E-05,-1.23046875,-0.322821710749601,0.0463490532959327
-2.1229872800177E-05,1.58723887579981E-05,-1.23046875,-0.322455217974629,0.0463490532959327
-2.30846853810363E-05,2.12249178730417E-05,-1.23046875,-0.322073071848464,0.0463490532959327
-2.35366496781353E-05,2.76433856924996E-05,-1.23046875,-0.321675363378203,0.0463490532959327
-2.50080938712927E-05,2.97878250421491E-05,-1.23046875,-0.321262183463681,0.0463490532959327
-2.32711590797408E-05,2.14568717638031E-05,-1.23046875,-0.320833622792186,0.0463490532959327
-2.29448542086175E-05,1.15864777399111E-05,-1.23046875,-0.320389771731871,0.0463490532959327
-2.20583606278524E-05,6.47671959086438E-06,-1.23046875,-0.319930720223965,0.0463490532959327
-2.42755704675801E-05,8.73860062711174E-06,-1.23046875,-0.319456557673458,0.0463490532959327
-2.42919377342332E-05,1.08238718894427E-05,-1.23046875,-0.318967372837895,0.0463490532959327
-2.41566758631961E-05,1.29901363834506E-05,-1.23046875,-0.318463253714346,0.0463490532959327
-2.27371310757007E-05,1.28076871988014E-05,-1.23046875,-0.317944287425039,0.0463490532959327
-2.29976121772779E-05,1.2617562788364E-05,-1.23046875,-0.317410560102314,0.0463490532959327
-2.34721137530869E-05,1.20769609566196E-05,-1.23046875,-0.316862156773435,0.0463490532959327
-2.40976914938074E-05,1.10607488750247E-05,-1.23046875,-0.316299161245656,0.0463490532959327
-2.23111910599982E-05,1.06380221041036E-05,-1.23046875,-0.315721655991883,0.0463490532959327
-2.06516906473553E-05,1.25862998174853E-05,-1.23046875,-0.315129722037243,0.0463490532959327
-1.73029893630883E-05,1.00707102319575E-05,-1.23046875,-0.314523438846893,0.0463490532959327
-2.48261003434891E-05,1.2089173651475E-05,-1.23046875,-0.313902884215453,0.0463490532959327
-1.87471669050865E-05,7.66464381740661E-06,-1.23046875,-0.313268134158441,0.0463490532959327
-2.38850825553527E-05,1.28652782223071E-05,-1.23046875,-0.312619262805978,0.0463490532959327
-2.23345650738338E-05,1.34712263388792E-05,-1.23046875,-0.311956342299012,0.0463490532959327
-2.55722952715587E-05,1.69414342963137E-05,-1.23046875,-0.311279442688342,0.0463490532959327
-2.38015418290161E-05,1.46720176417148E-05,-1.23046875,-0.310588631836849,0.0463490532959327
-2.50845532718813E-05,1.42690032589599E-05,-1.23046875,-0.309883975325375,0.0463490532959327
-2.55198356171604E-05,1.46730681080953E-05,-1.23046875,-0.309165536362557,0.0463490532959327
-2.53199068538379E-05,1.46128786582267E-05,-1.23046875,-0.308433375698775,0.0463490532959327
-2.47449079324724E-05,1.23779673231184E-05,-1.23046875,-0.307687551544302,0.0463490532959327
-2.46937033807626E-05,9.42169663176173E-06,-1.23046875,-0.306928119491763,0.0463490532959327
-2.6145769879804E-05,8.85592817212455E-06,-1.23046875,-0.306155132442918,0.0463490532959327
-2.477733323758E-05,7.58722126192879E-06,-1.23046875,-0.305368640539724,0.0463490532959327
-2.44164148170967E-05,5.97439793637022E-06,-1.23046875,-0.304568691099614,0.0463490532959327
-2.25807161768898E-05,1.49812603922328E-06,-1.23046875,-0.303755328554971,0.0463490532959327
-2.26769097935176E-05,-9.00738427844772E-07,-1.23046875,-0.302928594396766,0.0463490532959327
-2.15674026549095E-05,-1.6548996200072E-06,-1.23046875,-0.30208852712229,0.0463490532959327
-2.3224205506267E-05,2.23191318582394E-06,-1.23046875,-0.301235162186887,0.0463490532959327
-2.35748175327899E-05,6.82009249430848E-06,-1.23046875,-0.300368531959715,0.0463490532959327
-2.50823541136924E-05,9.87756629911019E-06,-1.23046875,-0.299488665683768,0.0463490532959327
-2.56652328971541E-05,8.66293885337655E-06,-1.23046875,-0.298595589440535,0.0463490532959327
-2.70739656116348E-05,7.11727261659689E-06,-1.23046875,-0.297689326119673,0.0463490532959327
-2.68593030341435E-05,6.05975765211042E-06,-1.23046875,-0.29676989539392,0.0463490532959327
-2.58517848124029E-05,7.79834772401955E-06,-1.23046875,-0.29583731369923,0.0463490532959327
-2.42933037952753E-05,1.10608416434843E-05,-1.23046875,-0.294891594220016,0.0463490532959327
-2.35911884374218E-05,1.31587530631805E-05,-1.23046875,-0.293932746879458,0.0463490532959327
-1.86470497283153E-05,1.10353921627393E-05,-1.23046875,-0.292960778334943,0.0463490532959327
-2.73073001153534E-05,1.67202560987789E-05,-1.23046875,-0.291975691978764,0.0463490532959327
-2.26087740884395E-05,1.37321494548814E-05,-1.23046875,-0.290977487944081,0.0463490532959327
-2.84303860098589E-05,1.54695699166041E-05,-1.23046875,-0.289966163115928,0.0463490532959327
-2.44980365096126E-05,1.19809756142786E-05,-1.23046875,-0.288941711146973,0.0463490532959327
-2.70246746367775E-05,1.27420917124255E-05,-1.23046875,-0.287904122477734,0.0463490532959327
-2.48907181230607E-05,1.11547324195271E-05,-1.23046875,-0.286853384361136,0.0463490532959327
-2.51988076342968E-05,1.18325006042141E-05,-1.23046875,-0.285789480891269,0.0463490532959327
-2.29776251217118E-05,1.16043356683804E-05,-1.23046875,-0.284712393036204,0.0463490532959327
-2.20243036892498E-05,1.13284613689757E-05,-1.23046875,-0.283622098674679,0.0463490532959327
-2.29321358347079E-05,1.13016612885986E-05,-1.23046875,-0.282518572636489,0.0463490532959327
-2.33197442867095E-05,1.00585875770776E-05,-1.23046875,-0.28140178674641,0.0463490532959327
-2.4279946956085E-05,9.63071761361789E-06,-1.23046875,-0.280271709871501,0.0463490532959327
-2.33284699788783E-05,1.01996192825027E-05,-1.23046875,-0.279128307971614,0.0463490532959327
-2.46329127548961E-05,1.32833392854081E-05,-1.23046875,-0.277971544152937,0.0463490532959327
-2.37085132539505E-05,1.52366856127628E-05,-1.23046875,-0.276801378724356,0.0463490532959327
-2.47272291744594E-05,1.69566192198545E-05,-1.23046875,-0.275617769256323,0.0463490532959327
-2.46796498686308E-05,1.53893597598653E-05,-1.23046875,-0.274420670641892,0.0463490532959327
-2.68793046416249E-05,1.39761559694307E-05,-1.23046875,-0.273210035159616,0.0463490532959327
-2.63847214228008E-05,1.3130069419276E-05,-1.23046875,-0.271985812538163,0.0463490532959327
-2.59325697697932E-05,1.51572103277431E-05,-1.23046875,-0.270747950022638,0.0463490532959327
-2.42228506976971E-05,1.70044440892525E-05,-1.23046875,-0.26949639244262,0.0463490532959327
-2.4867713364074E-05,1.79260896402411E-05,-1.23046875,-0.268231082281815,0.0463490532959327
-2.52889840339776E-05,1.66295794770122E-05,-1.23046875,-0.266951959749096,0.0463490532959327
-2.60081524174893E-05,1.38686364152818E-05,-1.23046875,-0.265658962850738,0.0463490532959327
-2.60369160969276E-05,9.47576427279273E-06,-1.23046875,-0.264352027463761,0.0463490532959327
-2.5665111024864E-05,6.32994670013431E-06,-1.23046875,-0.263031087410453,0.0463490532959327
-2.09684039873537E-05,6.69763949190383E-06,-1.23046875,-0.261696074534181,0.0463490532959327
-2.92725944746053E-05,1.23474464999163E-05,-1.23046875,-0.260346918776484,0.0463490532959327
-2.1573787307716E-05,1.06952247733716E-05,-1.23046875,-0.258983548255357,0.0463490532959327
-2.68594467343064E-05,7.36568790671299E-06,-1.23046875,-0.257605889344626,0.0463490532959327
-2.29574743570993E-05,-1.54114468386979E-06,-1.23046875,-0.256213866754326,0.0463490532959327
-2.72754041361623E-05,-1.07650557765737E-05,-1.23046875,-0.254807403611865,0.0463490532959327
-2.62001012742985E-05,-1.35482259793207E-05,-1.23046875,-0.253386421543568,0.0463490532959327
-2.78604511549929E-05,-6.35536571280682E-06,-1.23046875,-0.251950840755988,0.0463490532959327
-2.78447350865463E-05,1.10236101136252E-06,-1.23046875,-0.250500580116589,0.0463490532959327
-2.91683409159305E-05,5.58510419068625E-06,-1.23046875,-0.249035557233883,0.0463490532959327
-2.92753466055729E-05,9.66078914643731E-06,-1.23046875,-0.2475556885375,0.0463490532959327
-2.71250246441923E-05,1.41727659865865E-05,-1.23046875,-0.246060889358547,0.0463490532959327
-2.72659908659989E-05,1.77915208041668E-05,-1.23046875,-0.244551074010119,0.0463490532959327
-2.61508066614624E-05,1.89861566468608E-05,-1.23046875,-0.24302615586755,0.0463490532959327
-2.62615576502867E-05,1.91655653907219E-05,-1.23046875,-0.241486047447984,0.0463490532959327
-2.31862104556058E-05,1.80341012310237E-05,-1.23046875,-0.239930660489023,0.0463490532959327
-2.29762026719982E-05,1.67806610988919E-05,-1.23046875,-0.238359906026388,0.0463490532959327
-2.13077273656381E-05,1.43669494718779E-05,-1.23046875,-0.236773694470733,0.0463490532959327
-2.26970987569075E-05,1.19174510473385E-05,-1.23046875,-0.235171935683838,0.0463490532959327
-2.32532511290628E-05,9.25800486584194E-06,-1.23046875,-0.233554539054428,0.0463490532959327
-2.54215556196868E-05,7.85593510954641E-06,-1.23046875,-0.231921413573858,0.0463490532959327
-2.47395546466578E-05,7.34055993234506E-06,-1.23046875,-0.230272467911816,0.0463490532959327
-2.48171836574329E-05,7.0231176323432E-06,-1.23046875,-0.228607610492119,0.0463490532959327
-2.41651523538167E-05,6.08815116720507E-06,-1.23046875,-0.226926749568527,0.0463490532959327
-2.38612155953888E-05,7.35681396690779E-06,-1.23046875,-0.225229793300487,0.0463490532959327
-2.41797315538861E-05,9.69160009844927E-06,-1.23046875,-0.223516649828732,0.0463490532959327
-2.45689443545416E-05,1.12509496830171E-05,-1.23046875,-0.221787227350684,0.0463490532959327
-1.79830603883602E-05,9.65490562521154E-06,-1.23046875,-0.220041434195583,0.0463490532959327
-2.43505946855294E-05,1.48041372085572E-05,-1.23046875,-0.218279178899205,0.0463490532959327
-1.83916563400999E-05,1.42634135045228E-05,-1.23046875,-0.21650037027806,0.0463490532959327
-2.54003134614322E-05,1.92202132893726E-05,-1.23046875,-0.214704917502926,0.0463490532959327
-2.21613117901143E-05,1.66313511726912E-05,-1.23046875,-0.212892730171509,0.0463490532959327
-2.34986018767813E-05,1.53522541950224E-05,-1.23046875,-0.211063718380024,0.0463490532959327
-2.02375122171361E-05,1.24705793496105E-05,-1.23046875,-0.209217792793571,0.0463490532959327
-2.1351350369514E-05,1.38356690513319E-05,-1.23046875,-0.207354864715397,0.0463490532959327
-2.16208318306599E-05,1.57422400661744E-05,-1.23046875,-0.205474846155238,0.0463490532959327
-2.21980826609069E-05,1.56804817379452E-05,-1.23046875,-0.203577649896869,0.0463490532959327
-2.22035996557679E-05,1.34352949316963E-05,-1.23046875,-0.20166318956481,0.0463490532959327
-2.05600008484907E-05,1.13966152639478E-05,-1.23046875,-0.199731379690118,0.0463490532959327
-2.07956036319956E-05,1.18494799608015E-05,-1.23046875,-0.197782135775236,0.0463490532959327
-2.12983741221251E-05,1.27592120406916E-05,-1.23046875,-0.195815374357967,0.0463490532959327
-2.42007154156454E-05,1.4761515558348E-05,-1.23046875,-0.193831013074584,0.0463490532959327
-2.3345750378212E-05,1.42633743962506E-05,-1.23046875,-0.191828970722052,0.0463490532959327
-2.32569727813825E-05,1.36582566483412E-05,-1.23046875,-0.189809167319323,0.0463490532959327
-2.17481938307174E-05,1.23863956105197E-05,-1.23046875,-0.187771524167657,0.0463490532959327
-2.28657736442983E-05,1.27274997794302E-05,-1.23046875,-0.185715963909962,0.0463490532959327
-2.2515037926496E-05,1.21900766316685E-05,-1.23046875,-0.183642410589098,0.0463490532959327
-2.34304407058517E-05,1.22061137517449E-05,-1.23046875,-0.181550789705089,0.0463490532959327
-2.25244166358607E-05,1.1716287190211E-05,-1.23046875,-0.179441028271184,0.0463490532959327
-2.20254823943833E-05,1.13506430352572E-05,-1.23046875,-0.177313054868725,0.0463490532959327
-2.19105641008355E-05,1.01756277217646E-05,-1.23046875,-0.175166799700782,0.0463490532959327
-2.36778760154266E-05,1.03707989183022E-05,-1.23046875,-0.17300219464447,0.0463490532959327
-2.41015859501204E-05,1.12469324449194E-05,-1.23046875,-0.170819173301887,0.0463490532959327
-2.32890852203127E-05,1.1526734851941E-05,-1.23046875,-0.168617671049649,0.0463490532959327
-1.86682136700256E-05,8.57386476127431E-06,-1.23046875,-0.166397625087038,0.0463490532959327
-2.68897183559602E-05,1.11435392682324E-05,-1.23046875,-0.16415897448279,0.0463490532959327
-2.05418036784977E-05,7.50718572817277E-06,-1.23046875,-0.161901660220459,0.0463490532959327
-2.49642980634235E-05,1.04807941170293E-05,-1.23046875,-0.159625625242318,0.0463490532959327
-2.11542665056186E-05,8.93677224667044E-06,-1.23046875,-0.157330814491767,0.0463490532959327
-2.37436543102376E-05,1.00559000202338E-05,-1.23046875,-0.155017174954259,0.0463490532959327
-2.19565281440737E-05,9.33553201321047E-06,-1.23046875,-0.152684655696756,0.0463490532959327
-2.28442077059299E-05,1.00580391517724E-05,-1.23046875,-0.150333207905731,0.0463490532959327
-2.22697126446292E-05,8.45735212351428E-06,-1.23046875,-0.147962784923755,0.0463490532959327
-2.25322128244443E-05,7.17289140084176E-06,-1.23046875,-0.145573342284643,0.0463490532959327
-2.29662000492681E-05,8.12939742900198E-06,-1.23046875,-0.143164837747154,0.0463490532959327
-2.30585737881484E-05,9.66165043791989E-06,-1.23046875,-0.140737231327177,0.0463490532959327
-2.47400366788497E-05,1.06250090539106E-05,-1.23046875,-0.138290485328426,0.0463490532959327
-2.43348822550615E-05,1.01493878901238E-05,-1.23046875,-0.135824564371716,0.0463490532959327
-2.57705814874498E-05,1.1342113793944E-05,-1.23046875,-0.133339435422949,0.0463490532959327
-2.4984674382722E-05,1.19435053420602E-05,-1.23046875,-0.130835067819876,0.0463490532959327
-2.52437657763949E-05,1.31026299641235E-05,-1.23046875,-0.12831143329763,0.0463490532959327
-2.31743943004403E-05,1.28036590467673E-05,-1.23046875,-0.125768506012978,0.0463490532959327
-2.29169945669128E-05,1.31504557430162E-05,-1.23046875,-0.123206262567194,0.0463490532959327
-2.04724237846676E-05,1.24025482364232E-05,-1.23046875,-0.120624682027496,0.0463490532959327
-2.00509657588555E-05,1.12276975414716E-05,-1.23046875,-0.118023745947021,0.0463490532959327
-2.10099933610763E-05,8.5083029262023E-06,-1.23046875,-0.115403438383406,0.0463490532959327
-2.31089052249445E-05,9.16667977435282E-06,-1.23046875,-0.112763745916064,0.0463490532959327
-2.24916384468088E-05,1.72250092873583E-05,-1.23046875,-0.110104657662175,0.0463490532959327
-2.20177989831427E-05,3.25277214869857E-05,-1.23046875,-0.107426165291308,0.0463490532959327
-2.23698425543262E-05,4.54799628641922E-05,-1.23046875,-0.10472826303836,0.0463490532959327
-2.32917063840432E-05,4.89254707645159E-05,-1.23046875,-0.102010947714078,0.0463490532959327
-1.92095885722665E-05,3.42322018695995E-05,-1.23046875,-0.0992742187122692,0.0463490532959327
-2.79306477750652E-05,3.91106950701214E-05,-1.23046875,-0.0965180780132183,0.0463490532959327
-2.18887889786856E-05,9.68199765338795E-06,-1.23046875,-0.093742530183641,0.0463490532959327
-2.65687194769271E-05,2.44452598963107E-06,-1.23046875,-0.0909475823740261,0.0463490532959327
-2.27085893129697E-05,-1.88957419595681E-05,-1.23046875,-0.0881332443140019,0.0463490532959327
-2.60500764852623E-05,-2.04512161872117E-05,-1.23046875,-0.0852995283054894,0.0463490532959327
-2.51328783633653E-05,-2.6259156584274E-05,-1.23046875,-0.0824464492127507,0.0463490532959327
-2.63217370957136E-05,-2.44023249251768E-05,-1.23046875,-0.0795740244485603,0.0463490532959327
-2.55791619565571E-05,-2.66188253590371E-05,-1.23046875,-0.0766822739562791,0.0463490532959327
-2.56468829320511E-05,-2.23615897994023E-05,-1.23046875,-0.0737712201880753,0.0463490532959327
-2.54394944931846E-05,-1.09100010377006E-05,-1.23046875,-0.0708408880797705,0.0463490532959327
-2.46772015088936E-05,7.93391450315539E-07,-1.23046875,-0.0678913050229824,0.0463490532959327
-2.55857812589966E-05,1.09447864815593E-05,-1.23046875,-0.0649225008354746,0.0463490532959327
-2.48627766268328E-05,1.18860371003393E-05,-1.23046875,-0.0619345077306049,0.0463490532959327
-2.58572672464652E-05,1.22003248179681E-05,-1.23046875,-0.0589273602862861,0.0463490532959327
-2.42812784563284E-05,7.007369731582E-06,-1.23046875,-0.0559010954133902,0.0463490532959327
-2.45605551754124E-05,7.48875390854664E-06,-1.23046875,-0.0528557523235091,0.0463490532959327
-2.43002632487332E-05,5.95315168538946E-06,-1.23046875,-0.0497913724962338,0.0463490532959327
-2.66745901171817E-05,8.94079221325228E-06,-1.23046875,-0.0467079996462,0.0463490532959327
-2.6688605430536E-05,7.81233757152222E-06,-1.23046875,-0.043605679690052,0.0463490532959327
-2.75406218861463E-05,8.52073480928084E-06,-1.23046875,-0.0404844607133472,0.0463490532959327
-2.64922837232007E-05,5.72872522752732E-06,-1.23046875,-0.0373443929373859,0.0463490532959327
-2.65823837253265E-05,6.2633275774715E-06,-1.23046875,-0.0341855286859948,0.0463490532959327
-2.48958003794542E-05,6.81657138557057E-06,-1.23046875,-0.0310079223523368,0.0463490532959327
-2.33605005632853E-05,8.6355221355916E-06,-1.23046875,-0.027811630365812,0.0463490532959327
-2.36866908380762E-05,8.48734089231584E-06,-1.23046875,-0.0245967111590555,0.0463490532959327
-2.43627055169782E-05,7.34953482606215E-06,-1.23046875,-0.0213632251349957,0.0463490532959327
-1.94767690118169E-05,5.40702512807911E-06,-1.23046875,-0.0181112346339506,0.0463490532959327
-2.6743493435788E-05,6.79136974213179E-06,-1.23046875,-0.0148408039008137,0.0463490532959327
-1.78659684024751E-05,4.51491132480442E-06,-1.23046875,-0.011551999052437,0.0463490532959327
-2.0421233784873E-05,7.20929028830142E-06,-1.23046875,-0.00824488804531212,0.0463490532959327
-1.65014498634264E-05,1.00789075077046E-05,-1.23046875,-0.00491954064359647,0.0463490532959327
-2.18124314415036E-05,1.61046609719051E-05,-1.23046875,-0.00157602838745863,0.0463490532959327
-2.08254641620442E-05,2.16236840060446E-05,-1.23046875,0.00178557543843352,0.0463490532959327
-2.13395178434439E-05,2.49369859375292E-05,-1.23046875,0.00516519583665837,0.0463490532959327
-1.95164011529414E-05,2.29947254410945E-05,-1.23046875,0.00856275612947969,0.0463490532959327
-1.97529025172116E-05,2.02745013666572E-05,-1.23046875,0.0119781779922892,0.0463490532959327
-2.17516389966477E-05,2.07487464649603E-05,-1.23046875,0.015411381488052,0.0463490532959327
-2.23373717744835E-05,2.09344652830623E-05,-1.23046875,0.0188622851025075,0.0463490532959327
-2.38773882301757E-05,2.20204365177779E-05,-1.23046875,0.0223308057798488,0.0463490532959327
-2.3133081413107E-05,2.64153131865896E-05,-1.23046875,0.0258168589587286,0.0463490532959327
-2.46150102611864E-05,3.44948311976623E-05,-1.23046875,0.0293203586085718,0.0463490532959327
-2.42206024267944E-05,4.15545473515522E-05,-1.23046875,0.0328412172663269,0.0463490532959327
-2.55452214332763E-05,4.64759868918918E-05,-1.23046875,0.036379346073969,0.0463490532959327
-2.47660227614688E-05,4.55098816019017E-05,-1.23046875,0.0399346548171577,0.0463490532959327
-2.61064851656556E-05,3.80240562662948E-05,-1.23046875,0.043507051965316,0.0463490532959327
-2.4712686354178E-05,2.48681080847746E-05,-1.23046875,0.0470964447130192,0.0463490532959327
-2.42387013713596E-05,1.02669600892114E-05,-1.23046875,0.0507027390221561,0.0463490532959327
-2.32144830079051E-05,-2.33801983995363E-06,-1.23046875,0.0543258396642793,0.0463490532959327
-2.42580572376028E-05,-8.18138414615532E-06,-1.23046875,0.0579656502631541,0.0463490532959327
-2.49054355663247E-05,-7.08834750184906E-06,-1.23046875,0.0616220733381784,0.0463490532959327
-2.57228621194372E-05,-5.20606954523828E-06,-1.23046875,0.0652950103493778,0.0463490532959327
-2.58605286944658E-05,-7.78734829509631E-06,-1.23046875,0.0689843617441633,0.0463490532959327
-2.60949545918265E-05,-1.4091639968683E-05,-1.23046875,0.0726900270056078,0.0463490532959327
-2.12430386454798E-05,-1.45130225064349E-05,-1.23046875,0.0764119047019496,0.0463490532959327
-2.93949487968348E-05,-1.66797490237514E-05,-1.23046875,0.0801498925372324,0.0463490532959327
-2.13615276152268E-05,-5.81388974296715E-07,-1.23046875,0.083903887403075,0.0463490532959327
-2.78312836599071E-05,7.71876966609852E-06,-1.23046875,0.0876737854312972,0.0463490532959327
-2.44334569288185E-05,1.80275274033193E-05,-1.23046875,0.0914594820467081,0.0463490532959327
-2.7176589355804E-05,1.74764591065468E-05,-1.23046875,0.0952608720192493,0.0463490532959327
-2.50101875280961E-05,1.93485429917928E-05,-1.23046875,0.0990778495150962,0.0463490532959327
-2.67450286628446E-05,2.011011565628E-05,-1.23046875,0.102910308146772,0.0463490532959327
-2.55879804171855E-05,2.10558391700033E-05,-1.23046875,0.106758141022419,0.0463490532959327
-2.41404195548967E-05,1.78577411134029E-05,-1.23046875,0.110621240794261,0.0463490532959327
-2.33764185395557E-05,1.3790359844279E-05,-1.23046875,0.11449949970622,0.0463490532959327
-2.29424622375518E-05,1.11449826363241E-05,-1.23046875,0.118392809640544,0.0463490532959327
-2.40798526647268E-05,5.89401906836429E-06,-1.23046875,0.122301062163161,0.0463490532959327
-2.30888817895902E-05,9.00515431112581E-07,-1.23046875,0.126224148567562,0.0463490532959327
-2.46097242779797E-05,-2.49340200753068E-06,-1.23046875,0.130161959917295,0.0463490532959327
-2.39264918491244E-05,1.57782994847366E-06,-1.23046875,0.134114387087375,0.0463490532959327
-2.57864248851547E-05,7.46894102121587E-06,-1.23046875,0.13808132080492,0.0463490532959327
-2.5741252102307E-05,1.21613147712196E-05,-1.23046875,0.142062651689001,0.0463490532959327
-2.72090874204878E-05,9.85382575890981E-06,-1.23046875,0.146058270289435,0.0463490532959327
-2.53637426794739E-05,7.30768078938127E-06,-1.23046875,0.150068067124264,0.0463490532959327
-2.51783822022844E-05,5.73798979530693E-06,-1.23046875,0.154091932715811,0.0463490532959327
-2.5016479412443E-05,7.27521592125413E-06,-1.23046875,0.158129757625325,0.0463490532959327
-2.64094160229433E-05,7.48910451875417E-06,-1.23046875,0.162181432486235,0.0463490532959327
-2.54988881351892E-05,6.48329250907409E-06,-1.23046875,0.166246848036027,0.0463490532959327
-2.44437105720863E-05,6.05256127528264E-06,-1.23046875,0.170325895146749,1.19250197230014
-2.36110117839416E-05,9.67950199992629E-06,-0.703125,0.174418464854131,1.19250197230014
-2.27723085117759E-05,1.3838935046806E-05,-0.703125,0.178524448385354,1.19250197230014
-1.86756897164742E-05,1.45041412906721E-05,-0.703125,0.182643737185595,1.19250197230014
-2.75394122581929E-05,2.41875750361942E-05,-0.703125,0.186776222943542,1.19250197230014
-2.22633771045366E-05,2.334148666705E-05,-0.703125,0.190921797616228,1.19250197230014
-2.6958556190948E-05,2.74340200121515E-05,-0.703125,0.195080353453544,1.19250197230014
-2.30501391342841E-05,2.08794372156262E-05,-0.703125,0.199251783022788,1.19250197230014
-2.55744253081502E-05,1.78648624569178E-05,-0.703125,0.203435979233346,1.19250197230014
-2.38153734244406E-05,1.40400015880005E-05,-0.703125,0.207632835361324,1.19250197230014
-2.46807812800398E-05,1.46972024595016E-05,-0.703125,0.211842245073709,1.19250197230014
-2.50851680902997E-05,1.5773033737787E-05,-0.703125,0.216064102451639,1.19250197230014
-2.80480398942018E-05,1.81091654667398E-05,-0.703125,0.220298302012555,1.19250197230014
-3.04310578940203E-05,1.93067298823735E-05,-0.703125,0.224544738731189,1.19250197230014
-2.89607214654097E-05,1.79920261871303E-05,-0.703125,0.228803308059487,1.19250197230014
-2.71554945356911E-05,1.69655631907517E-05,-0.703125,0.233073905945534,1.19250197230014
-2.39295677602058E-05,1.49112111103022E-05,-0.703125,0.237356428851479,1.19250197230014
-2.37120748352027E-05,1.41732261909056E-05,-0.703125,0.241650773770441,1.19250197230014
-2.26151714741718E-05,1.26311406347668E-05,-0.703125,0.245956838242376,1.19250197230014
-2.35782081290381E-05,1.3046322237642E-05,-0.703125,0.250274520368936,1.19250197230014
-2.13432394957636E-05,1.20686636364553E-05,-0.703125,0.254603718827411,1.19250197230014
-1.98303278011736E-05,1.22502424346749E-05,-0.703125,0.25894433288383,1.19250197230014
-1.79180897248443E-05,1.20698077807901E-05,-0.703125,0.263296262405273,1.19250197230014
-1.89302027138183E-05,1.42429207699024E-05,-0.703125,0.267659407871382,1.19250197230014
-2.00113572645932E-05,1.51692365761846E-05,-0.703125,0.272033670385035,1.19250197230014
-2.34791186812799E-05,1.45661433634814E-05,-0.703125,0.276418951682113,1.19250197230014
-2.55263566941721E-05,1.20161776067107E-05,-0.703125,0.280815154140364,1.19250197230014
-2.63292768067913E-05,1.02121721283766E-05,-0.703125,0.285222180787405,1.19250197230014
-2.54574733844493E-05,1.01829964478384E-05,-0.703125,0.289639935308028,1.19250197230014
-2.49155327765038E-05,1.11529534478905E-05,-0.703125,0.294068322050956,1.19250197230014
-2.02884857571917E-05,9.69148277363274E-06,-0.703125,0.298507246035173,1.19250197230014
-2.79104187939083E-05,1.52920038090087E-05,-0.703125,0.302956612955872,1.19250197230014
-1.95039010577602E-05,1.29141990328208E-05,-0.703125,0.307416329189981,1.19250197230014
-2.42401420109672E-05,1.43885608849814E-05,-0.703125,0.311886301801181,1.19250197230014
-2.09994650504086E-05,1.18067864605109E-05,-0.703125,0.316366438544286,1.19250197230014
-2.5316188839497E-05,1.20188387882081E-05,-0.703125,0.320856647868983,1.19250197230014
-2.34216149692656E-05,1.17390418381547E-05,-0.703125,0.325356838922963,1.19250197230014
-2.37968215515139E-05,1.40040510814288E-05,-0.703125,0.329866921554543,1.19250197230014
-2.26960037252866E-05,1.39157609737595E-05,-0.703125,0.334386806314818,1.19250197230014
-2.38909997278824E-05,1.33169942273526E-05,-0.703125,0.338916404459307,1.19250197230014
-2.54651131399442E-05,1.42660574056208E-05,-0.703125,0.343455627949069,1.19250197230014
-2.51369910984067E-05,1.55170564539731E-05,-0.703125,0.348004389451278,1.19250197230014
-2.53646358032711E-05,1.60521740326658E-05,-0.703125,0.352562602339258,1.19250197230014
-2.39433156821178E-05,1.38136347231921E-05,-0.703125,0.357130180692031,1.19250197230014
-2.54980495810742E-05,1.25921260405448E-05,-0.703125,0.361707039293428,1.19250197230014
-2.44000602833694E-05,1.1917187293875E-05,-0.703125,0.366293093630807,1.19250197230014
-2.43789818341611E-05,1.30173175421078E-05,-0.703125,0.370888259893395,1.19250197230014
-2.21380996663356E-05,1.30350072140573E-05,-0.703125,0.375492454970307,1.19250197230014
-2.31149242608808E-05,1.29134305097978E-05,-0.703125,0.380105596448265,1.19250197230014
-2.28460939979414E-05,1.09806378532085E-05,-0.703125,0.384727602609018,1.19250197230014
-2.4170756660169E-05,1.09496068034787E-05,-0.703125,0.389358392426454,1.19250197230014
-2.42187597905286E-05,1.32390059661702E-05,-0.703125,0.393997885563459,1.19250197230014
-2.49971217272105E-05,1.54895078594564E-05,-0.703125,0.398646002368591,1.19250197230014
-2.43189224420348E-05,1.24269508887664E-05,-0.703125,0.403302663872542,1.19250197230014
-2.50870652962476E-05,4.6345576265594E-06,-0.703125,0.407967791784386,1.19250197230014
-2.61871427937876E-05,-1.95955112758384E-06,-0.703125,0.41264130848766,1.19250197230014
-2.58454856520984E-05,-3.42876705872186E-06,-0.703125,0.417323137036569,1.19250197230014
-1.98912439373089E-05,-2.14403894460702E-06,-0.703125,0.422013201152735,1.19250197230014
-2.7845022486872E-05,-1.41978796364128E-06,-0.703125,0.426711425222808,1.19250197230014
-1.99617606995162E-05,3.69602207683783E-06,-0.703125,0.431417734296998,1.19250197230014
-2.45891751546878E-05,6.44878082312061E-06,-0.703125,0.436132054088263,1.19250197230014
-2.05564392672386E-05,7.26143935025902E-06,-0.703125,0.440854310971793,1.19250197230014
-2.24144278035965E-05,5.75018793824711E-06,-0.703125,0.44558443198438,1.19250197230014
-1.82524709089193E-05,5.27775046066381E-06,-0.703125,0.450322344823418,1.19250197230014
-1.77173114934703E-05,5.88216107644257E-06,-0.703125,0.455067977845429,1.19250197230014
-1.67363286891487E-05,8.11291374702705E-06,-0.703125,0.459821260064085,1.19250197230014
-1.61359148478368E-05,8.47546289151069E-06,-0.703125,0.464582121147713,1.19250197230014
-1.56612131831935E-05,5.37610276296618E-06,-0.703125,0.469350491416323,1.19250197230014
-1.56249425344868E-05,1.79589801518887E-06,-0.703125,0.474126301838213,1.19250197230014
-1.86468660103856E-05,1.12630789317336E-06,-0.703125,0.478909484026207,1.19250197230014
-1.9965902538388E-05,3.58104898623424E-06,-0.703125,0.483699970233566,1.19250197230014
-2.30918885790743E-05,5.47417221241631E-06,-0.703125,0.488497693349695,1.19250197230014
-2.45200426434167E-05,5.71008513361448E-06,-0.703125,0.493302586895707,1.19250197230014
-2.84609741356689E-05,5.71041027797037E-06,-0.703125,0.498114585019783,1.19250197230014
-3.0040295314393E-05,7.96082986198599E-06,-0.703125,0.502933622492294,1.19250197230014
-3.22758860420436E-05,1.13702108137659E-05,-0.703125,0.507759634700665,1.19250197230014
-3.09063252643682E-05,1.51379726958112E-05,-0.703125,0.512592557644016,1.19250197230014
-2.8837004720117E-05,1.8911783627118E-05,-0.703125,0.517432327927763,1.19250197230014
-2.45232022280106E-05,2.23264287342317E-05,-0.703125,0.522278882758457,1.19250197230014
-2.23299575736746E-05,2.21424925257452E-05,-0.703125,0.527132159939268,1.19250197230014
-2.03578074433608E-05,1.81153773155529E-05,-0.703125,0.53199209786641,1.19250197230014
-1.93833093362628E-05,1.3055388990324E-05,-0.703125,0.536858635526616,1.19250197230014
-1.89030361070763E-05,7.420912879752E-06,-0.703125,0.541731712495385,1.19250197230014
-1.80831630132161E-05,9.495641961621E-07,-0.703125,0.546611268935546,1.19250197230014
-1.32270160975168E-05,-1.90498212759849E-06,-0.703125,0.551497245595764,1.19250197230014
-1.94099484360777E-05,-3.36818743562617E-06,-0.703125,0.556389583809028,1.19250197230014
-1.71751944435528E-05,-3.52361735167506E-06,-0.703125,0.561288225491337,1.19250197230014
-2.28295539272949E-05,-4.80452172268997E-06,-0.703125,0.566193113140803,1.19250197230014
-2.12748072954128E-05,-5.05006391904317E-06,-0.703125,0.571104189837271,1.19250197230014
-2.30697351071285E-05,-4.59871716884663E-06,-0.703125,0.576021399242476,1.19250197230014
-2.08353048947174E-05,-2.15620684684836E-06,-0.703125,0.580944685600681,1.19250197230014
-2.17557972064242E-05,3.79353110702141E-07,-0.703125,0.585873993739676,1.19250197230014
-2.15758755075512E-05,1.58634315994277E-06,-0.703125,0.590809269071915,1.19250197230014
-2.15811433008639E-05,2.05181049750536E-06,-0.703125,0.595750457595542,1.19250197230014
-2.20095625991235E-05,3.28461464960128E-06,-0.703125,0.60069750589508,1.19250197230014
-2.15666368603706E-05,5.00724127050489E-06,-0.703125,0.60565036114167,1.19250197230014
-2.196672539867E-05,4.5764863898512E-06,-0.703125,0.610608971092904,1.19250197230014
-2.08763667615131E-05,3.00441524814232E-06,-0.703125,0.615573284092339,1.19250197230014
-2.03678882826352E-05,1.89143429452088E-06,-0.703125,0.620543249068785,1.19250197230014
-1.84467808139743E-05,8.84791688804398E-07,-0.703125,0.625518815535346,1.19250197230014
-1.91460676433053E-05,-1.13959583813994E-06,-0.703125,0.630499933588119,1.19250197230014
-1.97524532268289E-05,-2.85455848825222E-06,-0.703125,0.635486553904502,1.19250197230014
-2.25827152462443E-05,-2.61359173236997E-06,-0.703125,0.640478627741132,1.19250197230014
-2.43615231738659E-05,-4.77664286790969E-07,-0.703125,0.645476106931566,1.19250197230014
-2.63315123447683E-05,1.59848946168495E-06,-0.703125,0.650478943883746,1.19250197230014
-2.65432499872986E-05,4.38282677350799E-06,-0.703125,0.655487091577162,1.19250197230014
-2.7295389372739E-05,9.77529634837992E-06,-0.703125,0.660500503559674,1.19250197230014
-2.79672040051082E-05,1.65497804118786E-05,-0.703125,0.665519133944117,1.19250197230014
-2.91587493848056E-05,2.36232863244368E-05,-0.703125,0.670542937405038,1.19250197230014
-2.89609833998838E-05,3.13856216962449E-05,-0.703125,0.675571869176044,1.19250197230014
-2.87670900434023E-05,3.5731092793867E-05,-0.703125,0.680605885048282,1.19250197230014
-2.35339812206803E-05,2.57855881500291E-05,-0.703125,0.685644941370523,1.19250197230014
-3.32344425260089E-05,3.33019379468169E-05,-0.703125,0.69068899505107,1.19250197230014
-2.43558861257043E-05,2.43034646700835E-05,-0.703125,0.695738003561374,1.19250197230014
-3.05893117911182E-05,3.4396111004753E-05,-0.703125,0.700791924940945,1.19250197230014
-2.60906454059295E-05,2.51070705417078E-05,-0.703125,0.705850717803165,1.19250197230014
-2.85125388472807E-05,2.24664527195273E-05,-0.703125,0.710914341341731,1.19250197230014
-2.48278265644331E-05,1.39150897666696E-05,-0.703125,0.715982755337452,1.19250197230014
-2.59322696365416E-05,1.42136550493888E-05,-0.703125,0.721055920164972,1.19250197230014
-2.53620801231591E-05,1.28611882246332E-05,-0.703125,0.726133796799077,1.19250197230014
-2.58639829553431E-05,1.16695837277803E-05,-0.703125,0.731216346820482,1.19250197230014
-2.69430020125583E-05,1.06360166682862E-05,-0.703125,0.736303532421204,1.19250197230014
-2.60748602158856E-05,1.12289681055699E-05,-0.703125,0.741395316409625,1.19250197230014
-2.65015569311799E-05,1.49876495925128E-05,-0.703125,0.746491662215314,1.19250197230014
-2.47925272560678E-05,1.49234956552391E-05,-0.703125,0.751592533893623,1.19250197230014
-2.53857779171085E-05,1.59919909492601E-05,-0.703125,0.756697896129915,1.19250197230014
-2.35959923884366E-05,1.30604094010778E-05,-0.703125,0.761807714243273,1.19250197230014
-2.46135987254092E-05,1.42382605190505E-05,-0.703125,0.766921954189576,1.19250197230014
-2.33825849136338E-05,1.36382986966055E-05,-0.703125,0.772040582563966,1.19250197230014
-2.45868577621877E-05,1.59421342686983E-05,-0.703125,0.777163566602776,1.19250197230014
-2.44368111452786E-05,1.4518636817229E-05,-0.703125,0.782290874184944,1.19250197230014
-2.64315458480269E-05,1.53833534568548E-05,-0.703125,0.78742247383289,1.19250197230014
-2.67898922174936E-05,1.51646381709725E-05,-0.703125,0.792558334712859,1.19250197230014
-2.81165757769486E-05,1.65511428349419E-05,-0.703125,0.797698426634743,1.19250197230014
-2.80007261608262E-05,1.54643184941961E-05,-0.703125,0.802842720051411,1.19250197230014
-2.81749125861097E-05,1.62186024681432E-05,-0.703125,0.807991186057545,1.19250197230014
-2.81657921732403E-05,1.79721027961932E-05,-0.703125,0.813143796387942,1.19250197230014
-2.8918406314915E-05,1.87910900422139E-05,-0.703125,0.818300523415286,1.19250197230014
-2.41093966906192E-05,1.40777428896399E-05,-0.703125,0.823461340147356,1.19250197230014
-3.30559596477542E-05,1.72457166627282E-05,-0.703125,0.828626220223666,1.19250197230014
-2.19969897443661E-05,8.89961756911362E-06,-0.703125,0.833795137911639,1.19250197230014
-2.66979604930384E-05,1.15993361760047E-05,-0.703125,0.838968068102471,1.19250197230014
-2.31044614338316E-05,9.76908540906152E-06,-0.703125,0.844144986306869,1.19250197230014
-2.81739776255563E-05,1.45010299092974E-05,-0.703125,0.84932586865077,1.19250197230014
-2.53332145803142E-05,1.63690074259648E-05,-0.703125,0.85451069187106,1.19250197230014
-2.4361776013393E-05,1.91627805179451E-05,-0.703125,0.859699433311147,1.19250197230014
-2.11965198104735E-05,1.8837828974938E-05,-0.703125,0.86489207091619,1.19250197230014
-2.05520227609668E-05,1.75120821950259E-05,-0.703125,0.870088583227855,1.19250197230014
-2.15534273593221E-05,1.62622545758495E-05,-0.703125,0.875288949378485,1.19250197230014
-2.17922788579017E-05,1.45750682349899E-05,-0.703125,0.880493149084662,1.19250197230014
-2.32185539061902E-05,1.47658820424112E-05,-0.703125,0.885701162640172,1.19250197230014
-2.23153710976476E-05,1.44989835462184E-05,-0.703125,0.89091297090849,1.19250197230014
-2.43778304138687E-05,1.54086992552038E-05,-0.703125,0.896128555314924,1.19250197230014
-2.37187468883349E-05,1.37353126774542E-05,-0.703125,0.901347897838513,1.19250197230014
-2.50990487984382E-05,1.30116059153806E-05,-0.703125,0.906570981003691,1.19250197230014
-2.34372255363269E-05,1.02499770946451E-05,-0.703125,0.911797787871804,1.19250197230014
-2.36610922002001E-05,9.03270756680286E-06,-0.703125,0.91702830203256,1.19250197230014
-2.19546964217443E-05,7.61122464609798E-06,-0.703125,0.922262507595564,1.19250197230014
-2.3223894459079E-05,8.47549563331995E-06,-0.703125,0.927500389182047,1.19250197230014
-2.34044200624339E-05,9.51976653595921E-06,-0.703125,0.932741931916847,1.19250197230014
-2.45837745751487E-05,1.13557380245766E-05,-0.703125,0.937987121420625,1.19250197230014
-2.42546248045983E-05,1.11842218757374E-05,-0.703125,0.943235943802202,1.19250197230014
-2.39490072999615E-05,1.01446730695898E-05,-0.703125,0.948488385650894,1.19250197230014
-2.29329725698335E-05,8.71847714734031E-06,-0.703125,0.953744434028715,1.19250197230014
-2.17995966522722E-05,9.43877239478752E-06,-0.703125,0.959004076462448,1.19250197230014
-1.71890005731257E-05,1.03754764495534E-05,-0.703125,0.96426730093559,1.19250197230014
-2.42165588133503E-05,2.17834840441355E-05,-0.703125,0.969534095880177,1.19250197230014
-1.76678950083442E-05,3.457162893028E-05,-0.703125,0.974804450168482,1.19250197230014
-2.1087877030368E-05,4.87392135255504E-05,-0.703125,0.980078353104859,1.19250197230014
-1.8771324903355E-05,4.64059157820884E-05,-0.703125,0.985355794418513,1.19250197230014
-2.24845571210608E-05,3.76352036255412E-05,-0.703125,0.99063676425804,1.19250197230014
-2.00853573915083E-05,2.17867618630407E-05,-0.703125,0.995921253188148,1.19250197230014
-2.10417529160623E-05,8.77272850630106E-06,-0.703125,1.00120925218809,1.19250197230014
-2.12015420402167E-05,-2.64666095972643E-06,-0.703125,1.00650075265098,1.19250197230014
-2.19590165215777E-05,-1.14523400043254E-05,-0.703125,1.01179574638359,1.19250197230014
-2.24776940740412E-05,-1.6740508726798E-05,-0.703125,1.01709422560705,1.19250197230014
-2.15597065107431E-05,-1.84085820364999E-05,-0.703125,1.02239618295914,1.19250197230014
-2.26045940507902E-05,-1.64273224072531E-05,-0.703125,1.02770161149867,1.19250197230014
-2.29992110689636E-05,-1.43128090712707E-05,-0.703125,1.03301050471195,1.19250197230014
-2.51358105742838E-05,-1.0360104170104E-05,-0.703125,1.03832285652114,1.19250197230014
-2.50510693149408E-05,-4.59779266748228E-06,-0.703125,1.04363866129382,1.19250197230014
-2.66739116341341E-05,4.64729009763687E-06,-0.703125,1.04895791385319,1.19250197230014
-2.5633418772486E-05,1.21133525681216E-05,-0.703125,1.0542806094881,1.19250197230014
-2.54191527346848E-05,1.72493273566943E-05,-0.703125,1.05960674396247,1.19250197230014
-2.38033735513454E-05,1.52102011270472E-05,-0.703125,1.06493631352389,1.19250197230014
-2.50065368163632E-05,8.37202969705686E-06,-0.703125,1.07026931491167,1.19250197230014
-2.6471230739844E-05,1.94805215869565E-06,-0.703125,1.0756057453646,1.19250197230014
-2.83068256976549E-05,1.96556311493623E-06,-0.703125,1.08094560262818,1.19250197230014
-2.72293564194115E-05,5.24276674696011E-06,-0.703125,1.08628888496088,1.19250197230014
-2.57928622886539E-05,8.43003454065183E-06,-0.703125,1.09163559113925,1.19250197230014
-2.53836169576971E-05,9.15985219762661E-06,-0.703125,1.09698572046187,1.19250197230014
-2.63196543528466E-05,9.11642018763814E-06,-0.703125,1.10233927275229,1.19250197230014
-2.13681760214968E-05,8.58700514072552E-06,-0.703125,1.10769624836115,1.19250197230014
-2.86790818790905E-05,1.2443329069356E-05,-0.703125,1.11305664816777,1.19250197230014
-1.97823173948564E-05,9.43258146435255E-06,-0.703125,1.11842047358108,1.19250197230014
-2.60464676102856E-05,9.89611271506874E-06,-0.703125,1.12378772654016,1.19250197230014
-2.22940416279016E-05,6.78449032420758E-06,-0.703125,1.12915840951424,1.19250197230014
-2.57022493315162E-05,8.94332151801791E-06,-0.703125,1.13453252550218,1.19250197230014
-2.34449635172496E-05,1.04707805803628E-05,-0.703125,1.13991007803132,1.19250197230014
-2.42323148995638E-05,1.28727851915755E-05,-0.703125,1.14529107115563,1.19250197230014
-2.36639079957968E-05,1.28231240523746E-05,-0.703125,1.15067550945335,1.19250197230014
-2.50915509241167E-05,1.26209624795592E-05,-0.703125,1.15606339802415,1.19250197230014
-2.65299549937481E-05,1.30479911604198E-05,-0.703125,1.16145474248604,1.19250197230014
-2.66459792328533E-05,1.35085674628499E-05,-0.703125,1.16684954897188,1.19250197230014
-2.79111409327015E-05,1.39307467179606E-05,-0.703125,1.17224782412567,1.19250197230014
-2.76970276900101E-05,1.21742577903206E-05,-0.703125,1.17764957509832,1.19250197230014
-3.00199735647766E-05,1.11215849756263E-05,-0.703125,1.18305480954309,1.19250197230014
-2.96647813229356E-05,1.01178575278027E-05,-0.703125,1.18846353561042,1.19250197230014
-3.15204124490265E-05,1.09633137981291E-05,-0.703125,1.19387576194214,1.19250197230014
-3.11086005240213E-05,1.05408325907774E-05,-0.703125,1.19929149766489,1.19250197230014
-3.29539325321093E-05,9.5690602393006E-06,-0.703125,1.20471075238273,1.19250197230014
-3.25319597322959E-05,6.9527077357634E-06,-0.703125,1.21013353616886,1.19250197230014
-3.40279839292634E-05,6.67463518766453E-06,-0.703125,1.21555985955654,1.19250197230014
-3.32558374793734E-05,7.87613043939928E-06,-0.703125,1.22098973352919,1.19250197230014
-3.21465959132183E-05,9.03064574231394E-06,-0.703125,1.22642316950985,1.19250197230014
-2.81361863017082E-05,7.6086716944701E-06,-0.703125,1.23186017934996,1.19250197230014
-2.34903654927621E-05,6.54219002171885E-06,-0.703125,1.23730077531755,1.19250197230014
-1.96739765669918E-05,6.67797485220945E-06,-0.703125,1.24274497008487,1.19250197230014
-1.73295775311999E-05,6.13128850091016E-06,-0.703125,1.2481927767154,1.19250197230014
-1.29667605506256E-05,4.50608604296576E-06,-0.703125,1.25364420865029,1.19250197230014
-1.78244990820531E-05,8.08367985882796E-06,-0.703125,1.25909927969414,1.19250197230014
-1.226889071404E-05,8.75082696438767E-06,-0.703125,1.26455800400005,1.19250197230014
-1.40850843308726E-05,9.70709879766218E-06,-0.703125,1.27002039605397,1.19250197230014
-1.01250207080739E-05,8.62866545503493E-06,-0.703125,1.27548647065831,1.19250197230014
-1.11813651528792E-05,9.93633511825465E-06,-0.703125,1.28095624291492,1.19250197230014
-1.01521909527946E-05,1.16747196443612E-05,-0.703125,1.28642972820737,1.19250197230014
-1.24560647236649E-05,1.46392894748715E-05,-0.703125,1.29190694218275,1.19250197230014
-1.31090837385273E-05,1.55173420353094E-05,-0.703125,1.29738790073295,1.19250197230014
-1.2972675904166E-05,1.69784671015805E-05,-0.703125,1.30287261997599,1.19250197230014
-1.26884306155262E-05,2.24611176236067E-05,-0.703125,1.3083611162373,1.19250197230014
-1.25230426419876E-05,3.11376170429867E-05,-0.703125,1.3138534060315,1.19250197230014
-1.53170658450108E-05,3.8600992411375E-05,-0.703125,1.31934950604486,1.19250197230014
-1.72362852026708E-05,4.1867715481203E-05,-0.703125,1.32484943311887,1.19250197230014
-1.99746664293343E-05,4.08726482419297E-05,-0.703125,1.33035320423564,1.19250197230014
-2.00170161406277E-05,3.49257716152351E-05,-0.703125,1.33586083650515,1.19250197230014
-1.98040797840804E-05,2.60034776147222E-05,-0.703125,1.34137234715465,1.19250197230014
-1.7825868781074E-05,1.48758399518556E-05,-0.703125,1.34688775351916,1.19250197230014
-1.80881470441818E-05,4.0731697481533E-06,-0.703125,1.35240707303268,1.19250197230014
-1.84493001142982E-05,-5.85647876505391E-06,-0.703125,1.35793032321966,1.19250197230014
-2.05405613087351E-05,-1.18373727673315E-05,-0.703125,1.36345752168699,1.19250197230014
-2.14437550312141E-05,-1.45020412674057E-05,-0.703125,1.36898868611761,1.19250197230014
-2.18855529965367E-05,-1.56686091941083E-05,-0.703125,1.37452383426602,1.19250197230014
-2.18438053707359E-05,-1.71034098457312E-05,-0.703125,1.38006298395613,1.19250197230014
-2.10720936593134E-05,-1.82060557563091E-05,-0.703125,1.38560615308114,1.19250197230014
-1.89955553651089E-05,-1.60196050273953E-05,-0.703125,1.39115335960542,1.19250197230014
-1.77171696122969E-05,-9.04515945876483E-06,-0.703125,1.39670462156811,1.19250197230014
-1.33505964186043E-05,1.7090169990297E-07,-0.703125,1.40225995708786,1.19250197230014
-1.85630324267549E-05,5.15271904077963E-06,-0.703125,1.40781938436842,1.19250197230014
-1.38870464070351E-05,9.7180836746702E-06,-0.703125,1.41338292170409,1.19250197230014
-1.94809199456358E-05,9.23097286431585E-06,0,-0.738671235024101,4.30996888148668
-1.91390918189427E-05,8.19615070213331E-06,0,-0.738667179585702,4.30996888148668
-2.24582636292325E-05,5.12340830027824E-06,0,-0.738659050590239,4.30996888148668
-2.33486171055119E-05,6.39014206171851E-06,0,-0.738646829833969,4.30996888148668
-2.74909070867579E-05,1.03896845757845E-05,0,-0.738630499023305,4.30996888148668
-3.03082233585883E-05,1.54170866153436E-05,0,-0.738610039770266,4.30996888148668
-3.1619711080566E-05,1.91445706150262E-05,0,-0.738585433587199,4.30996888148668
-3.24925276800059E-05,2.01120983547298E-05,0,-0.738556661879751,4.30996888148668
-3.28272362821735E-05,1.95225347852102E-05,0,-0.738523705937169,4.30996888148668
-3.35437143803574E-05,1.81464038178092E-05,0,-0.738486546919225,4.30996888148668
-3.21727202390321E-05,1.7355770978611E-05,0,-0.73844516583934,4.30996888148668
-3.24760840157978E-05,1.71502106240951E-05,0,-0.738399543543704,4.30996888148668
-3.2592946809018E-05,1.73813314177096E-05,0,-0.738349660686283,4.30996888148668
-3.34053911501542E-05,1.75284440047108E-05,0,-0.738295497699651,4.30996888148668
-3.17763369821478E-05,1.73080989043228E-05,0,-0.738237034761587,4.30996888148668
-3.14897879434284E-05,1.58739858306944E-05,0,-0.738174251757438,4.30996888148668
-3.08309972751886E-05,1.46841512105311E-05,0,-0.738107128238333,4.30996888148668
-3.16026125801727E-05,1.40475403895834E-05,0,-0.738035643375458,4.30996888148668
-3.17497833748348E-05,1.48020999404253E-05,0,-0.737959775910684,4.30996888148668
-3.18521015287843E-05,1.59823721332941E-05,0,-0.737879504103807,4.30996888148668
-3.09255337924697E-05,1.72044256032677E-05,0,-0.737794805676659,4.30996888148668
-3.0748105928069E-05,1.91163926501758E-05,0,-0.737705657754224,4.30996888148668
-3.01682775898371E-05,2.04035441129236E-05,0,-0.73761203680292,4.30996888148668
-3.09583010675851E-05,1.86079760169378E-05,0,-0.737513918566231,4.30996888148668
-2.62497578660259E-05,1.28921501527657E-05,0,-0.737411277997898,4.30996888148668
-3.73747352568898E-05,1.7374175513396E-05,0,-0.737304089193063,4.30996888148668
-2.86931172013283E-05,1.29490736071602E-05,0,-0.737192325317825,4.30996888148668
-3.5103686968796E-05,1.72792624653084E-05,0,-0.737075958537668,4.30996888148668
-2.78949755738722E-05,1.42040908031049E-05,0,-0.736954959945076,4.30996888148668
-3.01333657262148E-05,1.53477922140155E-05,0,-0.736829299486622,4.30996888148668
-2.66778479272034E-05,1.24542257253779E-05,0,-0.736698945889846,4.30996888148668
-2.76182963716565E-05,1.29155141621595E-05,0,-0.736563866590335,4.30996888148668
-2.51478904829128E-05,1.19645892482367E-05,0,-0.736424027659402,4.30996888148668
-2.49328986683395E-05,1.07899850263493E-05,0,-0.736279393732759,4.30996888148668
-2.57955161941936E-05,9.30619080463657E-06,0,-0.736129927940545,4.30996888148668
-2.39336040976923E-05,8.39942094899016E-06,0,-0.735975591839013,4.30996888148668
-2.30348341574427E-05,9.73154146777233E-06,0,-0.735816345344204,4.30996888148668
-2.15449435927439E-05,1.02950152722769E-05,0,-0.735652146667862,4.30996888148668
-2.59766729868716E-05,1.11042554635787E-05,0,-0.735482952255788,4.30996888148668
-2.80627973552328E-05,9.29892939893762E-06,0,-0.735308716728751,4.30996888148668
-3.10729119519237E-05,9.61647765507223E-06,0,-0.735129392825984,4.30996888148668
-2.99853818432894E-05,9.01784551388118E-06,0,-0.734944931351307,4.30996888148668
-3.16652076435275E-05,1.02228777905111E-05,0,-0.734755281121936,4.30996888148668
-2.99084586004028E-05,1.00415754786809E-05,0,-0.734560388920082,4.30996888148668
-2.88497867586557E-05,1.0177736839978E-05,0,-0.73436019944743,4.30996888148668
-2.63618403550936E-05,8.36309391161194E-06,0,-0.734154655282614,4.30996888148668
-2.66136812570039E-05,7.91905677033355E-06,0,-0.733943696841828,4.30996888148668
-2.61756395047996E-05,7.20590560376877E-06,0,-0.733727262342789,4.30996888148668
-2.52094432653394E-05,7.30058764020214E-06,0,-0.733505287772262,4.30996888148668
-2.24020859604934E-05,8.11308200354688E-06,0,-0.733277706857287,4.30996888148668
-1.98200814338634E-05,8.4379698819248E-06,0,-0.73304445104022,4.30996888148668
-1.36501312226756E-05,7.92510581959505E-06,0,-0.732805449457618,4.30996888148668
-1.7871156160254E-05,1.1324013939884E-05,0,-0.732560628923065,4.30996888148668
-1.17952422442613E-05,7.89253499533515E-06,0,-0.732309913913957,4.30996888148668
-1.32956902234582E-05,9.07909270608798E-06,0,-0.732053226562296,4.30996888148668
-6.61349849906401E-06,8.11392692412483E-06,0,-0.731790486649447,4.30996888148668
-6.33853142062435E-06,9.0266257757321E-06,0,-0.731521611604939,4.30996888148668
-5.31192563357763E-06,8.89896364242304E-06,0,-0.731246516509328,4.30996888148668
-7.90887679613661E-06,1.13486048576306E-05,0,-0.730965114101161,4.30996888148668
-8.15331441117451E-06,1.29549771372695E-05,0,-0.730677314787936,4.30996888148668
-8.50164542498533E-06,1.31540055008372E-05,0,-0.730383026660832,4.30996888148668
-1.02481662906939E-05,1.20859594971989E-05,0,-0.730082155512946,4.30996888148668
-1.17072486318648E-05,1.12248717414332E-05,0,-0.729774604860807,4.30996888148668
-1.40367474159575E-05,1.16899582280894E-05,0,-0.729460275969038,4.30996888148668
-1.50649675560999E-05,1.26736231322866E-05,0,-0.729139067878104,4.30996888148668
-1.75891418621177E-05,1.42529133881908E-05,0,-0.728810877435095,4.30996888148668
-1.83775682671694E-05,1.41791088026366E-05,0,-0.728475599327445,4.30996888148668
-2.10283469641581E-05,1.5022595107439E-05,0,-0.728133126119541,4.30996888148668
-2.2090172933531E-05,1.50501145981252E-05,0,-0.72778334829216,4.30996888148668
-2.3768041501171E-05,1.52975317178061E-05,0,-0.727426154284732,4.30996888148668
-2.37780186580494E-05,1.42678763950244E-05,0,-0.727061430540402,4.30996888148668
-2.55360810115235E-05,1.38461982714944E-05,0,-0.726689061553918,4.30996888148668
-2.72843499260489E-05,1.31543283714564E-05,0,-0.726308929922319,4.30996888148668
-2.92471668217331E-05,1.31399510792107E-05,0,-0.725920916398447,4.30996888148668
-2.92960867227521E-05,1.17819545266684E-05,0,-0.725524899947297,4.30996888148668
-2.77825856755953E-05,9.95821937976871E-06,0,-0.72512075780517,4.30996888148668
-2.60393262578873E-05,8.49905518407468E-06,0,-0.724708365541491,4.30996888148668
-2.71500375674805E-05,6.65634252072778E-06,0,-0.724287597122996,4.30996888148668
-2.34126218856545E-05,3.55411839336739E-06,0,-0.72385832497989,4.30996888148668
-3.34201722580474E-05,3.96512086808798E-06,0,-0.72342042007357,4.30996888148668
-2.49228560278425E-05,2.57478291132429E-06,0,-0.722973751965601,4.30996888148668
-3.09073220705613E-05,5.88223838349222E-06,0,-0.722518188887705,4.30996888148668
-2.71572389465291E-05,8.46810689836275E-06,0,-0.722053597812686,4.30996888148668
-3.12661832140293E-05,1.16251467261463E-05,0,-0.721579844526297,4.30996888148668
-2.91509259113809E-05,1.20069089462049E-05,0,-0.72109679370017,4.30996888148668
-3.01356030831812E-05,1.17267545647337E-05,0,-0.720604308965938,4.30996888148668
-2.94500423478894E-05,1.23160607472528E-05,0,-0.720102252990636,4.30996888148668
-3.03924662148347E-05,1.62974902195856E-05,0,-0.719590487553288,4.30996888148668
-3.17690610245336E-05,2.11901515285717E-05,0,-0.719068873622501,4.30996888148668
-3.12507654598448E-05,2.19941721297801E-05,0,-0.718537271434828,4.30996888148668
-3.07377158605959E-05,1.7953134374693E-05,0,-0.717995540573536,4.30996888148668
-2.8034270144417E-05,1.35362706714659E-05,0,-0.717443540047544,4.30996888148668
-2.89199761027703E-05,1.28977781059803E-05,0,-0.716881128370443,4.30996888148668
-2.84192738035927E-05,1.42284188768826E-05,0,-0.716308163639658,4.30996888148668
-3.01863619824871E-05,1.61266489158152E-05,0,-0.715724503615707,4.30996888148668
-2.84307607216761E-05,1.60452855197946E-05,0,-0.715130005801494,4.30996888148668
-2.82874134427402E-05,1.47162336361362E-05,0,-0.714524527521648,4.30996888148668
-2.62373869190924E-05,1.23456420624279E-05,0,-0.713907926001899,4.30996888148668
-2.62670764641371E-05,1.04031360024237E-05,0,-0.7132800584484,4.30996888148668
-2.47910920734284E-05,8.64101548359031E-06,0,-0.7126407821268,4.30996888148668
-2.47822226810968E-05,8.32599835121073E-06,0,-0.711989954440866,4.30996888148668
-2.42872411035933E-05,8.38061168906279E-06,0,-0.711327433010441,4.30996888148668
-2.43947870330885E-05,7.75549415266141E-06,0,-0.710653075748656,4.30996888148668
-2.33548762480496E-05,6.18499962001806E-06,0,-0.709966740938311,4.30996888148668
-2.25170588237233E-05,4.43132012151182E-06,0,-0.709268287307413,4.30996888148668
-1.81318991963053E-05,2.73502905656642E-06,0,-0.708557574103799,4.30996888148668
-2.57129195233574E-05,5.56881650481955E-06,0,-0.707834461168761,4.30996888148668
-2.03996478376212E-05,7.71874783822568E-06,0,-0.707098809009629,4.30996888148668
-2.64964255620725E-05,9.00543182069669E-06,0,-0.706350478871332,4.30996888148668
-2.40028221014654E-05,6.35801325188368E-06,0,-0.705589332807045,4.30996888148668
-2.77870840363903E-05,5.18984006703249E-06,0,-0.704815233748026,4.30996888148668
-2.74290214292705E-05,6.30252407063381E-06,0,-0.704028045572594,4.30996888148668
-2.937803765235E-05,9.43713621381903E-06,0,-0.703227633174164,4.30996888148668
-2.77106373687275E-05,1.17110939754639E-05,0,-0.702413862528278,4.30996888148668
-2.6059058654937E-05,1.23361587611726E-05,0,-0.701586600758751,4.30996888148668
-2.65211638179608E-05,1.12323141365778E-05,0,-0.700745716202988,4.30996888148668
-2.68706589849899E-05,9.18535806704313E-06,0,-0.699891078476463,4.30996888148668
-2.68590993073303E-05,9.1176316345809E-06,0,-0.699022558536278,4.30996888148668
-2.4027620384004E-05,1.29119180201087E-05,0,-0.698140028743839,4.30996888148668
-2.34538329095813E-05,1.904269993247E-05,0,-0.697243362926618,4.30996888148668
-2.14668161788723E-05,2.1224977899692E-05,0,-0.696332436438901,4.30996888148668
-2.16093812923646E-05,1.75137483893195E-05,0,-0.695407126221285,4.30996888148668
-2.03517120098695E-05,1.10342216430581E-05,0,-0.694467310858678,4.30996888148668
-2.17043998418376E-05,6.64664003124926E-06,0,-0.693512870636802,4.30996888148668
-2.18054392462363E-05,5.38812673767097E-06,0,-0.692543687597387,4.30996888148668
-2.37329059018521E-05,6.48919240120449E-06,0,-0.691559645592127,4.30996888148668
-2.39638138737064E-05,7.7572294685524E-06,0,-0.690560630335283,4.30996888148668
-2.39863475144375E-05,8.50731248647207E-06,0,-0.689546529454845,4.30996888148668
-2.37640015257057E-05,8.06997650215635E-06,0,-0.688517232542281,4.30996888148668
-2.43625217990484E-05,6.70106828692951E-06,0,-0.687472631200969,4.30996888148668
-2.58577238128055E-05,6.13686233918997E-06,0,-0.686412619093351,4.30996888148668
-2.77434428426204E-05,6.55922895020922E-06,0,-0.685337091986779,4.30996888148668
-2.15179534279741E-05,5.99137638346292E-06,0,-0.684245947798027,4.30996888148668
-2.93855955533218E-05,8.6441914390889E-06,0,-0.683139086636449,4.30996888148668
-1.98195812117774E-05,7.1894564825925E-06,0,-0.682016410845825,4.30996888148668
-2.19750327232759E-05,1.00716124507017E-05,0,-0.680877825044939,4.30996888148668
-1.27566727314843E-05,1.01551813713741E-05,0,-0.679723236166984,4.30996888148668
-1.25184396893019E-05,1.01824707599008E-05,0,-0.678552553497875,4.30996888148668
-9.14483098313212E-06,7.98155542724999E-06,0,-0.677365688713559,4.30996888148668
-1.08126387203811E-05,8.45169142849045E-06,0,-0.676162555916386,4.30996888148668
-9.4687229648116E-06,8.34646561997943E-06,0,-0.674943071670642,4.30996888148668
-7.25485551811289E-06,7.70789756643353E-06,0,-0.673707155037251,4.30996888148668
-6.46235685053398E-06,7.54791199142346E-06,0,-0.672454727607637,4.30996888148668
-7.10836638972978E-06,8.24977723823395E-06,0,-0.6711857135367,4.30996888148668
-1.06429688457865E-05,1.04580212791916E-05,0,-0.669900039574844,4.30996888148668
-1.18478383228648E-05,1.1548323527677E-05,0,-0.668597635098988,4.30996888148668
-1.44429304782534E-05,1.22922583614127E-05,0,-0.667278432142351,4.30996888148668
-1.3666058293893E-05,1.24135558507987E-05,0,-0.66594236542278,4.30996888148668
-1.54016361193499E-05,1.27524444906157E-05,0,-0.664589372369413,4.30996888148668
-1.60336185217602E-05,1.13597907329677E-05,0,-0.663219393147624,4.30996888148668
-1.92951665667351E-05,1.0460414159752E-05,0,-0.661832370682291,4.30996888148668
-2.03203799173934E-05,1.0019297405961E-05,0,-0.660428250679528,4.30996888148668
-2.25058283831459E-05,1.07880050563836E-05,0,-0.659006981647043,4.30996888148668
-2.2712250938639E-05,9.77339368546382E-06,0,-0.657568514913296,4.30996888148668
-2.36319592659129E-05,7.6849510151078E-06,0,-0.656112804645557,4.30996888148668
-2.37596359511372E-05,7.35675985197304E-06,0,-0.654639807866913,4.30996888148668
-2.52758381975582E-05,7.91703860159032E-06,0,-0.653149484472194,4.30996888148668
-2.79489886452211E-05,6.83631515130401E-06,0,-0.651641797242767,4.30996888148668
-3.07329319184646E-05,7.19354829925578E-06,0,-0.650116711860166,4.30996888148668
-2.54664064414101E-05,6.6744132709573E-06,0,-0.648574196918583,4.30996888148668
-3.48645662597846E-05,9.21582341106841E-06,0,-0.647014223936256,4.30996888148668
-2.49208533205092E-05,6.84876431478187E-06,0,-0.645436767365785,4.30996888148668
-3.14485296257772E-05,9.17829584068386E-06,0,-0.643841804603383,4.30996888148668
-2.57538067671703E-05,9.08383208297892E-06,0,-0.642229315997078,4.30996888148668
-2.9082213586662E-05,1.18115731311264E-05,0,-0.640599284853816,4.30996888148668
-2.65210219367873E-05,1.1621683370322E-05,0,-0.638951697445358,4.30996888148668
-2.81054344668519E-05,1.18235602712957E-05,0,-0.637286543012838,4.30996888148668
-2.71093558694702E-05,1.21399325507809E-05,0,-0.635603813769861,4.30996888148668
-2.85744754364714E-05,1.20213644549949E-05,0,-0.633903504904086,4.30996888148668
-3.15601828333456E-05,1.12121351776295E-05,0.87890625,-0.632185614577302,4.30996888148668
-3.26553818013053E-05,1.0110223229276E-05,0.87890625,-0.630450143924051,4.30996888148668
-3.44270447385497E-05,1.03635356936138E-05,0.87890625,-0.628697097048906,4.30996888148668
-3.34316937369294E-05,1.11096760520013E-05,0.87890625,-0.626926481022556,4.30996888148668
-3.56499003828503E-05,1.24136868180358E-05,0.87890625,-0.625138305876783,4.30996888148668
-3.54878975485917E-05,1.17260415208875E-05,0.87890625,-0.62333258459835,4.30996888148668
-3.82107464247383E-05,1.12184197860188E-05,0.87890625,-0.621509333121753,4.30996888148668
-3.78428849217016E-05,1.01251343949116E-05,0.87890625,-0.61966857032082,4.30996888148668
-3.92874499084428E-05,9.76188584900228E-06,0.87890625,-0.617810317999196,4.30996888148668
-3.74472801922821E-05,1.01298337540356E-05,0.87890625,-0.615934600879798,4.30996888148668
-3.61736529157497E-05,1.30314665511833E-05,0.87890625,-0.614041446593233,4.30996888148668
-3.1428222428076E-05,1.50190926433424E-05,0.87890625,-0.612130885665139,4.30996888148668
-2.76909522654023E-05,1.47285209095571E-05,0.87890625,-0.610202951502342,4.30996888148668
-2.43350459641078E-05,1.31836832224508E-05,0.87890625,-0.60825768037768,4.30996888148668
-2.2723717847839E-05,1.23727768368553E-05,0.87890625,-0.606295111413547,4.30996888148668
-2.01186467165826E-05,1.24999651234248E-05,0.87890625,-0.60431528656433,4.30996888148668
-1.8902579540736E-05,1.29424142869539E-05,0.87890625,-0.602318250597991,4.30996888148668
-1.66554582392564E-05,1.02069607237354E-05,0.87890625,-0.600304051076981,4.30996888148668
-2.35615534620592E-05,1.3860023500456E-05,0.87890625,-0.598272738338562,4.30996888148668
-1.77883957803715E-05,1.01037048807484E-05,0.87890625,-0.596224365474563,4.30996888148668
-2.1608269889839E-05,1.32658960865228E-05,0.87890625,-0.594158988310508,4.30996888148668
-1.61326570378151E-05,1.05887047538999E-05,0.87890625,-0.592076665384058,4.30996888148668
-1.41915834319661E-05,1.08081476355437E-05,0.87890625,-0.58997745792272,4.30996888148668
-8.97719291970134E-06,9.45915689953836E-06,0.87890625,-0.587861429820836,4.30996888148668
-7.38191283744527E-06,1.10924174805405E-05,0.87890625,-0.585728647615892,4.30996888148668
-5.0745734370139E-06,1.13682872324716E-05,0.87890625,-0.583579180464194,4.30996888148668
-4.42431701230817E-06,1.13661626528483E-05,0.87890625,-0.581413100116005,4.30996888148668
-4.77339654025855E-06,1.13628502731444E-05,0.87890625,-0.579230480890238,4.30996888148668
-5.08440143676125E-06,1.11355921035283E-05,0.87890625,-0.577031399648734,4.30996888148668
-8.39861331769498E-06,1.14313725134707E-05,0.87890625,-0.5748159357701,4.30996888148668
-1.12188208731823E-05,1.01367122624652E-05,0.87890625,-0.572584171122993,4.30996888148668
-1.62926062330371E-05,1.01081877801334E-05,0.87890625,-0.570336190038733,4.30996888148668
-1.9014911231352E-05,9.8344316938892E-06,0.87890625,-0.568072079283039,4.30996888148668
-2.17716024053516E-05,1.08498643385246E-05,0.87890625,-0.565791928026779,4.30996888148668
-2.156782829843E-05,1.06691904875333E-05,0.87890625,-0.563495827815704,4.30996888148668
-2.29265369853238E-05,1.19590931717539E-05,0.87890625,-0.561183872539279,4.30996888148668
-2.33758419199148E-05,1.1431078746682E-05,0.87890625,-0.558856158398773,4.30996888148668
-2.56225430348422E-05,1.07962687252439E-05,0.87890625,-0.556512783874694,4.30996888148668
-2.68877065536799E-05,1.02433541542268E-05,0.87890625,-0.554153849693654,4.30996888148668
-2.75461588898906E-05,1.08586764326901E-05,0.87890625,-0.551779458794694,4.30996888148668
-2.67963150690775E-05,1.15238262878847E-05,0.87890625,-0.5493897162951,4.30996888148668
-2.64450663962634E-05,1.29620520965545E-05,0.87890625,-0.546984729455723,4.30996888148668
-2.68786825472489E-05,1.35369273266406E-05,0.87890625,-0.544564607645825,4.30996888148668
-2.84379293589154E-05,1.36185344672413E-05,0.87890625,-0.542129462307402,4.30996888148668
-2.46466588578187E-05,9.12244922801619E-06,0.87890625,-0.539679406918945,4.30996888148668
-3.56785312760621E-05,1.0599113011267E-05,0.87890625,-0.537214556958617,4.30996888148668
-2.765604040178E-05,5.30554052602383E-06,0.87890625,-0.534735029866889,4.30996888148668
-3.43351894116495E-05,8.15144358057296E-06,0.87890625,-0.532240945008603,4.30996888148668
-2.99638159049209E-05,7.59309659770224E-06,0.87890625,-0.529732423634437,4.30996888148668
-3.29407703247853E-05,1.10905793917482E-05,0.87890625,-0.527209588841726,4.30996888148668
-2.92549138976028E-05,1.05247690953547E-05,0.87890625,-0.524672565534696,4.30996888148668
-2.95643167191884E-05,1.04088121588575E-05,0.87890625,-0.522121480384216,4.30996888148668
-2.8409989681677E-05,9.69652955973288E-06,0.87890625,-0.519556461787169,4.30996888148668
-2.74447556876112E-05,1.05519948192523E-05,0.87890625,-0.516977639825411,4.30996888148668
-2.58848904195474E-05,1.14736167233787E-05,0.87890625,-0.514385146224297,4.30996888148668
-2.38983138842741E-05,1.13075666376972E-05,0.87890625,-0.511779114310733,4.30996888148668
-2.54651204159018E-05,1.18826901598368E-05,0.87890625,-0.509159678970733,4.30996888148668
-2.62460525846109E-05,1.17149083962431E-05,0.87890625,-0.506526976606486,4.30996888148668
-2.77416274911957E-05,1.23071595226065E-05,0.87890625,-0.503881145092963,4.30996888148668
-2.44315579038812E-05,1.16304954644875E-05,0.87890625,-0.501222323734048,4.30996888148668
-2.49211152549833E-05,1.24194039017311E-05,0.87890625,-0.498550653218205,4.30996888148668
-2.47132320509991E-05,1.22417177408352E-05,0.87890625,-0.495866275573731,4.30996888148668
-2.64060963672819E-05,1.28351557577844E-05,0.87890625,-0.49316933412364,4.30996888148668
-2.52796689892421E-05,1.26851136883488E-05,0.87890625,-0.490459973440252,4.30996888148668
-2.62736630247673E-05,1.30646194520523E-05,0.87890625,-0.487738339299467,4.30996888148668
-2.65165435848758E-05,1.16125393105904E-05,0.87890625,-0.485004578634751,4.30996888148668
-2.71395929303253E-05,1.07418600236997E-05,0.87890625,-0.482258839490861,4.30996888148668
-2.50578050327022E-05,1.03041829788708E-05,0.87890625,-0.479501270977362,4.30996888148668
-2.49298027483746E-05,1.07998776002205E-05,0.87890625,-0.476732023222,4.30996888148668
-2.65101807599422E-05,1.22530582302716E-05,0.87890625,-0.473951247323951,4.30996888148668
-2.87115071841981E-05,1.44664281833684E-05,0.87890625,-0.471159095307,4.30996888148668
-2.46634135692148E-05,1.32152899823268E-05,0.87890625,-0.468355720072644,4.30996888148668
-3.5662258596858E-05,1.88919366337359E-05,0.87890625,-0.465541275353078,4.30996888148668
-2.90635634883074E-05,1.57744343596278E-05,0.87890625,-0.462715915663988,4.30996888148668
-3.80960264010355E-05,2.11672595469281E-05,0.87890625,-0.459879796257112,4.30996888148668
-3.5305209166836E-05,1.91390536201652E-05,0.87890625,-0.457033073072579,4.30996888148668
-3.93836853618268E-05,1.95300508494256E-05,0.87890625,-0.454175902691044,4.30996888148668
-3.69641384168062E-05,1.58735874720151E-05,0.87890625,-0.451308442285687,4.30996888148668
-3.8068465073593E-05,1.4018694855622E-05,0.87890625,-0.448430849574191,4.30996888148668
-3.56857781298459E-05,1.03109150586533E-05,0.87890625,-0.445543282770903,4.30996888148668
-3.28248352161609E-05,9.33948012971086E-06,0.87890625,-0.44264590053925,4.30996888148668
-3.05084977298975E-05,1.09785378299421E-05,0.87890625,-0.439738861944334,4.30996888148668
-2.76043592748465E-05,1.13603282443364E-05,0.87890625,-0.436822326405536,6.98366825911641
-2.59601420111721E-05,9.72127054410521E-06,0.87890625,-0.433896453649098,6.98366825911641
-2.21235859498847E-05,6.16215265836217E-06,0.87890625,-0.430961403660822,6.98366825911641
-2.17061133298557E-05,6.32220553598017E-06,0.87890625,-0.428017336638995,6.98366825911641
-1.94744698092109E-05,6.31363764114212E-06,0.87890625,-0.425064412947546,6.98366825911641
-1.99010337382788E-05,7.54020766180474E-06,0.87890625,-0.422102793069432,6.98366825911641
-1.69445538631408E-05,7.11545817466686E-06,0.87890625,-0.419132637560267,6.98366825911641
-1.59251776494784E-05,8.03508737590164E-06,0.87890625,-0.416154107002345,6.98366825911641
-1.31929755298188E-05,7.24286064723856E-06,0.87890625,-0.41316736195915,6.98366825911641
-1.37876995722763E-05,6.83366852172185E-06,0.87890625,-0.410172562930508,6.98366825911641
-1.30123808048666E-05,5.12196311319713E-06,0.87890625,-0.407169870308423,6.98366825911641
-1.224116931553E-05,5.13322447659448E-06,0.87890625,-0.404159444333601,6.98366825911641
-1.14833355837618E-05,4.4580920075532E-06,0.87890625,-0.401141445052626,6.98366825911641
-1.38903633342125E-05,4.52065523859346E-06,0.87890625,-0.398116032275697,6.98366825911641
-1.55221532622818E-05,5.58549663765007E-06,0.87890625,-0.395083365534904,6.98366825911641
-1.50347605085699E-05,6.81763231114019E-06,0.87890625,-0.392043604043019,6.98366825911641
-1.18886009659036E-05,7.51080460759113E-06,0.87890625,-0.388996906652801,6.98366825911641
-1.69233262568014E-05,1.21978137030965E-05,0.87890625,-0.385943431816871,6.98366825911641
-1.35718064484536E-05,1.09322791104205E-05,0.87890625,-0.382883337548188,6.98366825911641
-1.74418019014411E-05,1.31117785713286E-05,0.87890625,-0.379816781381038,6.98366825911641
-1.59240953507833E-05,1.21403299999656E-05,0.87890625,-0.376743920332381,6.98366825911641
-1.87483110494213E-05,1.31185743157403E-05,0.87890625,-0.373664910863415,6.98366825911641
-1.84201562660746E-05,1.29770687635755E-05,0.87890625,-0.370579908841334,6.98366825911641
-1.95836382772541E-05,1.32529876282206E-05,0.87890625,-0.3674890695013,6.98366825911641
-2.15515283343848E-05,1.2200599485368E-05,0.87890625,-0.364392547408723,6.98366825911641
-2.52417994488496E-05,1.08312979136826E-05,0.87890625,-0.361290496421928,6.98366825911641
-2.88756873487728E-05,9.21552873478504E-06,0.87890625,-0.358183069655376,6.98366825911641
-3.09061288135126E-05,6.96773577146814E-06,0.87890625,-0.355070419443636,6.98366825911641
-3.20347207889427E-05,6.93437596055446E-06,0.87890625,-0.351952697306344,6.98366825911641
-3.06538713630289E-05,7.60568673285889E-06,0.87890625,-0.348830053914219,6.98366825911641
-3.07133996102493E-05,9.24568485061172E-06,0.87890625,-0.345702639056173,6.98366825911641
-3.08414018945768E-05,1.03253150882665E-05,0.87890625,-0.342570601607454,6.98366825911641
-3.35748809447978E-05,1.19106998681673E-05,0.87890625,-0.339434089498815,6.98366825911641
-3.41181075782515E-05,1.21218736239825E-05,0.87890625,-0.336293249686657,6.98366825911641
-3.283895784989E-05,1.19111564345076E-05,0.87890625,-0.333148228124067,6.98366825911641
-2.90360949293245E-05,1.00778788691969E-05,0.87890625,-0.329999169732665,6.98366825911641
-2.6884488761425E-05,8.27281110105105E-06,0.87890625,-0.326846218375243,6.98366825911641
-2.57516585406847E-05,6.96247025189223E-06,0.87890625,-0.323689516829129,6.98366825911641
-2.56692437687889E-05,6.49070079816738E-06,0.87890625,-0.320529206760215,6.98366825911641
-2.43891790887574E-05,5.88936291023856E-06,0.87890625,-0.317365428697494,6.98366825911641
-2.4358616428799E-05,5.49927881365875E-06,0.87890625,-0.314198322008014,6.98366825911641
-2.36724918067921E-05,5.20111052537686E-06,0.87890625,-0.311028024872204,6.98366825911641
-2.06560816877754E-05,4.15055956182186E-06,0.87890625,-0.307854674259588,6.98366825911641
-1.53868168126792E-05,3.82600228476804E-06,0.87890625,-0.304678405904937,6.98366825911641
-2.26545434998116E-05,6.85073428030591E-06,0.87890625,-0.301499354284906,6.98366825911641
-1.90781738638179E-05,7.50890103518032E-06,0.87890625,-0.298317652595272,6.98366825911641
-2.37718795688124E-05,9.63233742368175E-06,0.87890625,-0.295133432728854,6.98366825911641
-2.05043834284879E-05,1.00893203125452E-05,0.87890625,-0.291946825254162,6.98366825911641
-2.3555692678201E-05,1.07902988020214E-05,0.87890625,-0.288757959394677,6.98366825911641
-2.26836637011729E-05,1.00062197816442E-05,0.87890625,-0.285566963008648,6.98366825911641
-2.24143168452429E-05,1.13533315015957E-05,0.87890625,-0.282373962569351,6.98366825911641
-1.99497626454104E-05,1.45187950693071E-05,0.87890625,-0.279179083145751,6.98366825911641
-1.96763285202906E-05,1.72584641404683E-05,0.87890625,-0.275982448383572,6.98366825911641
-2.25348467211006E-05,1.78655063791666E-05,0.87890625,-0.272784180486669,6.98366825911641
-2.49232762143947E-05,1.57944414240774E-05,0.87890625,-0.269584400198578,6.98366825911641
-2.58921736531192E-05,1.41328400786733E-05,0.87890625,-0.266383226784143,6.98366825911641
-2.45580067712581E-05,1.4647756870545E-05,0.87890625,-0.263180778011275,6.98366825911641
-2.54462047450943E-05,1.71845294971718E-05,0.87890625,-0.259977170133017,6.98366825911641
-2.50424800469773E-05,1.79368635144783E-05,0.87890625,-0.256772517870089,6.98366825911641
-2.57453466474544E-05,1.67546877491986E-05,0.87890625,-0.253566934393896,6.98366825911641
-2.3083539417712E-05,1.50564319483237E-05,0.87890625,-0.250360531309971,6.98366825911641
-1.93980449694209E-05,1.46588918141788E-05,0.87890625,-0.247153418641847,6.98366825911641
-1.33111907416605E-05,1.44759287650231E-05,0.87890625,-0.24394570481551,6.98366825911641
-9.72860470938031E-06,1.42612880154047E-05,0.87890625,-0.240737496644642,6.98366825911641
-7.0446858444484E-06,1.37330453071627E-05,0.87890625,-0.237528899316891,6.98366825911641
-7.77192690293305E-06,1.2791924746125E-05,0.87890625,-0.234320016381362,6.98366825911641
-9.98526866169414E-06,1.12815532702371E-05,0.87890625,-0.23111094973741,6.98366825911641
-1.31238139147172E-05,1.06858287836076E-05,0.87890625,-0.227901799624676,6.98366825911641
-1.57685062731616E-05,1.18035886771395E-05,0.87890625,-0.224692664614159,6.98366825911641
-1.85866829269798E-05,1.30437701955088E-05,0.87890625,-0.221483641600082,6.98366825911641
-1.7292075426667E-05,1.22436285892036E-05,0.87890625,-0.218274825792397,6.98366825911641
-2.53631333180238E-05,1.7291858966928E-05,0.87890625,-0.215066310709869,6.98366825911641
-2.0385619791341E-05,1.18131401904975E-05,0.87890625,-0.211858188173859,6.98366825911641
-2.72727811534423E-05,1.40030451802886E-05,0.87890625,-0.208650548302887,6.98366825911641
-2.68169351329561E-05,1.11392346298089E-05,0.87890625,-0.205443479508062,6.98366825911641
-2.9716700737481E-05,1.32132890939829E-05,0.87890625,-0.202237068489379,6.98366825911641
-2.84613943222212E-05,1.38884479383705E-05,0.87890625,-0.19903140023288,6.98366825911641
-3.02045591524802E-05,1.50269897858379E-05,0.87890625,-0.195826558008691,6.98366825911641
-2.93314733426087E-05,1.3597181350633E-05,0.87890625,-0.192622623369989,6.98366825911641
-2.85714922938496E-05,1.25601818581345E-05,0.87890625,-0.18941967615292,6.98366825911641
-2.88355950033292E-05,1.29934423966915E-05,0.87890625,-0.186217794477424,6.98366825911641
-2.84867583104642E-05,1.38104587676935E-05,0.87890625,-0.183017054748843,6.98366825911641
-2.86215781670762E-05,1.44061277751462E-05,0.87890625,-0.179817531660223,6.98366825911641
-2.67066097876523E-05,1.29488353195484E-05,0.87890625,-0.176619298195252,6.98366825911641
-2.66141341853654E-05,1.31405595311662E-05,0.87890625,-0.173422425631837,6.98366825911641
-2.5645629648352E-05,1.24803791550221E-05,1.58203125,-0.17022698354624,6.98366825911641
-2.73160130745964E-05,1.30788139358629E-05,1.58203125,-0.167033039817692,6.98366825911641
-2.76595437753713E-05,1.33746534629609E-05,1.58203125,-0.163840660633398,6.98366825911641
-2.93962093564915E-05,1.5409119441756E-05,1.58203125,-0.160649910493904,6.98366825911641
-2.87135244434467E-05,1.48142562466091E-05,1.58203125,-0.157460852218904,6.98366825911641
-2.86857466562651E-05,1.29402133097756E-05,1.58203125,-0.154273546953511,6.98366825911641
-2.83505669358419E-05,1.04251521406695E-05,1.58203125,-0.151088054175037,6.98366825911641
-3.01131713058567E-05,1.01912810350768E-05,1.58203125,-0.147904431700199,6.98366825911641
-3.20909639413003E-05,1.01949162853998E-05,1.58203125,-0.144722735692608,6.98366825911641
-3.47961758961901E-05,1.06700435935636E-05,1.58203125,-0.141543020670449,6.98366825911641
-3.5372213460505E-05,1.15107895908295E-05,1.58203125,-0.138365339514331,6.98366825911641
-3.3481639547972E-05,1.25077376651461E-05,1.58203125,-0.135189743475438,6.98366825911641
-2.65366488747532E-05,9.5354107543244E-06,1.58203125,-0.132016282184051,6.98366825911641
-3.80094170395751E-05,1.2621292626136E-05,1.58203125,-0.128845003658493,6.98366825911641
-2.86262111330871E-05,8.61194348544814E-06,1.58203125,-0.125675954314403,6.98366825911641
-3.46233755408321E-05,1.0626203220454E-05,1.58203125,-0.122509178974268,6.98366825911641
-2.94213459710591E-05,8.62050364958122E-06,1.58203125,-0.119344720877178,6.98366825911641
-3.44785148627125E-05,1.0583361472527E-05,1.58203125,-0.116182621688771,6.98366825911641
-3.1273808417609E-05,9.21077207749477E-06,1.58203125,-0.113022921511323,6.98366825911641
-2.9225850084913E-05,9.72199541138252E-06,1.58203125,-0.109865658894003,6.98366825911641
-2.39601176872384E-05,9.77149284153711E-06,1.58203125,-0.10671087084334,6.98366825911641
-2.24204359255964E-05,1.08078656921862E-05,1.58203125,-0.103558592833988,6.98366825911641
-2.39048731600633E-05,1.11980089059216E-05,1.58203125,-0.100408858819961,6.98366825911641
-2.44866059802007E-05,1.02996546047507E-05,1.58203125,-0.0972617012464563,6.98366825911641
-2.72246252279729E-05,1.03149541246239E-05,1.58203125,-0.0941171510623663,6.98366825911641
-2.82721666735597E-05,1.00062134151813E-05,1.58203125,-0.0909752377334075,6.98366825911641
-3.2527073926758E-05,1.13229407361359E-05,1.58203125,-0.0878359892557664,6.98366825911641
-3.26222179864999E-05,1.16111968964105E-05,1.58203125,-0.0846994321701359,6.98366825911641
-3.21461011481006E-05,1.31550286823767E-05,1.58203125,-0.0815655915760582,6.98366825911641
-2.52587487921119E-05,1.40395131893456E-05,1.58203125,-0.0784344911464975,6.98366825911641
-1.94289186765673E-05,1.48655772136408E-05,1.58203125,-0.0753061531425696,6.98366825911641
-1.21479115477996E-05,1.26026397992973E-05,1.58203125,-0.0721805984284101,6.98366825911641
-8.30860608402872E-06,1.1088960491179E-05,1.58203125,-0.0690578464863095,6.98366825911641
-4.55492090623011E-06,1.04368955362588E-05,1.58203125,-0.0659379154323779,6.98366825911641
-3.26928943650273E-06,1.15409557110979E-05,1.58203125,-0.0628208220330172,6.98366825911641
-7.31560419353627E-07,1.11701965579414E-05,1.58203125,-0.0597065817223684,6.98366825911641
-2.96264744292785E-07,1.03539332485525E-05,1.58203125,-0.0565952086207826,6.98366825911641
-8.38536095670861E-07,1.05758208519546E-05,1.58203125,-0.0534867155542847,6.98366825911641
-2.27079613068781E-06,1.20412560136174E-05,1.58203125,-0.0503811140749485,6.98366825911641
-3.7489317037398E-06,1.04861610452645E-05,1.58203125,-0.0472784144820559,6.98366825911641
-7.51986453906284E-06,1.41082173286122E-05,1.58203125,-0.0441786258438723,6.98366825911641
-1.05246599559905E-05,9.2029922598158E-06,1.58203125,-0.041081756019837,6.98366825911641
-1.56368350872071E-05,1.09950242404011E-05,1.58203125,-0.0379878116829438,6.98366825911641
-2.02037390408805E-05,7.4387171480339E-06,1.58203125,-0.034896798342126,6.98366825911641
-2.29180895985337E-05,7.51800143916626E-06,1.58203125,-0.0318087203645478,6.98366825911641
-2.29513989324914E-05,6.63922173771425E-06,1.58203125,-0.0287235809978082,6.98366825911641
-2.36666128330398E-05,9.11357165023219E-06,1.58203125,-0.0256413823921046,6.98366825911641
-2.42170463025104E-05,1.08928188637947E-05,1.58203125,-0.0225621256224083,6.98366825911641
-2.37788608501432E-05,1.20170188893098E-05,1.58203125,-0.019485810710723,6.98366825911641
-2.27143718802836E-05,1.16036244435236E-05,1.58203125,-0.0164124366484748,6.98366825911641
-2.22041708184406E-05,1.0104608918482E-05,1.58203125,-0.0133420014190051,6.98366825911641
-2.25941039388999E-05,9.55687028181273E-06,1.58203125,-0.0102745020201085,6.98366825911641
-2.36305095313583E-05,8.13256247056415E-06,1.58203125,-0.00720993448659281,6.98366825911641
-2.51969740929781E-05,8.91753279574914E-06,1.58203125,-0.00414829391286658,6.98366825911641
-2.58116106124362E-05,9.03450563782826E-06,1.58203125,-0.00108957447553968,6.98366825911641
-2.63283600361319E-05,1.00785082395305E-05,1.58203125,0.00196623054396426,6.98366825911641
-2.67224513663678E-05,9.88939245871734E-06,1.58203125,0.00501912873675383,6.98366825911641
-2.72187990049133E-05,1.04825085145421E-05,1.58203125,0.0080691285437518,6.98366825911641
-2.69318297796417E-05,1.03014617707231E-05,1.58203125,0.0111162392329345,6.98366825911641
-2.70203236141242E-05,1.08707172330469E-05,1.58203125,0.0141604708765778,6.98366825911641
-2.7262962248642E-05,1.06377192423679E-05,1.58203125,0.0172018343285622,6.98366825911641
-2.74597550742328E-05,1.03166139524546E-05,1.58203125,0.0202403412017868,6.98366825911641
-2.74717494903598E-05,7.42067823011894E-06,1.58203125,0.0232760038457251,6.98366825911641
-2.77255494438577E-05,4.67441668661195E-06,1.58203125,0.0263088353241393,6.98366825911641
-2.76904211204965E-05,3.80871324523469E-06,1.58203125,0.0293388493930138,6.98366825911641
-2.78370553132845E-05,3.7267857351253E-06,1.58203125,0.0323660604788576,6.98366825911641
-2.26958618441131E-05,3.84368877348606E-06,1.58203125,0.0353904836575424,6.98366825911641
-3.1304527510656E-05,6.83327698425273E-06,1.58203125,0.0384121346337614,6.98366825911641
-2.18007262446918E-05,5.754079666076E-06,1.58203125,0.0414310297210827,6.98366825911641
-2.74872672889614E-05,4.18196032114793E-06,1.58203125,0.0444471858224972,6.98366825911641
-2.31156845984515E-05,1.71067915744061E-06,1.58203125,0.0474606204113744,6.98366825911641
-2.69356041826541E-05,1.81732241344434E-06,1.58203125,0.050471351512856,6.98366825911641
-2.58506061072694E-05,2.57817850979336E-06,1.58203125,0.0534793976858007,6.98366825911641
-2.85887799691409E-05,4.00407179768081E-06,1.58203125,0.0564847780053488,6.98366825911641
-2.85433325188933E-05,5.94127050135285E-06,1.58203125,0.0594875120460406,6.98366825911641
-2.87378479697509E-05,7.74419004301308E-06,1.58203125,0.0624876198653271,6.98366825911641
-2.86720623989822E-05,8.87056648934959E-06,1.58203125,0.0654851219873558,6.98366825911641
-2.82966702798149E-05,9.11113329493674E-06,1.58203125,0.068480039387051,6.98366825911641
-3.00878418784123E-05,8.12757207313553E-06,1.58203125,0.0714723934745955,6.98366825911641
-2.91263786493801E-05,6.89320177116315E-06,1.58203125,0.0744622060803834,6.98366825911641
-2.88918417936657E-05,8.75348086992744E-06,1.58203125,0.0774494994404192,6.98366825911641
-2.60585075011477E-05,1.37567431011121E-05,1.58203125,0.0804342961821085,6.98366825911641
-2.67563555098604E-05,2.00581907847663E-05,1.58203125,0.0834166193104748,6.98366825911641
-2.5946199457394E-05,2.26967913476983E-05,1.58203125,0.0863964921950118,6.98366825911641
-2.73996702162549E-05,2.02253613679204E-05,1.58203125,0.0893739385574981,6.98366825911641
-2.56567818723852E-05,1.45886888276436E-05,1.58203125,0.0923489824610216,6.98366825911641
-2.49460663326317E-05,1.04092605397454E-05,1.58203125,0.0953216483001712,6.98366825911641
-2.31282319873571E-05,1.00449851743178E-05,1.58203125,0.098291960792023,6.98366825911641
-2.34658436966129E-05,1.15210368676344E-05,1.58203125,0.101259944967413,6.98366825911641
-2.30082205234794E-05,1.15560469566844E-05,1.58203125,0.104225626162124,6.98366825911641
-2.27203927352093E-05,1.09809743662481E-05,1.58203125,0.107189030007855,6.98366825911641
-2.21219306695275E-05,1.11294393718708E-05,1.58203125,0.11015018242298,6.98366825911641
-2.33235587074887E-05,1.07361202026368E-05,1.58203125,0.113109109603095,6.98366825911641
-2.08567907975521E-05,8.02556860435288E-06,1.58203125,0.116065838011368,6.98366825911641
-2.98421728075482E-05,1.19510650620214E-05,1.58203125,0.119020394368704,6.98366825911641
-2.18387540371623E-05,1.05962917587021E-05,1.58203125,0.121972805643801,6.98366825911641
-2.5930847186828E-05,1.32575323732453E-05,1.58203125,0.124923099043184,6.98366825911641
-2.1794177882839E-05,1.11317604023498E-05,1.58203125,0.127871302001255,6.98366825911641
-2.50342873187037E-05,1.30323023768142E-05,1.58203125,0.130817442170338,6.98366825911641
-2.47569969360484E-05,1.3546999070968E-05,1.58203125,0.133761547410735,6.98366825911641
-2.84368179563899E-05,1.40680767799495E-05,1.58203125,0.136703645780784,6.98366825911641
-3.04125187540194E-05,1.30848811750184E-05,1.58203125,0.139643765526982,6.98366825911641
-3.26499284710735E-05,1.33663406813866E-05,1.58203125,0.142581935074215,6.98366825911641
-3.37355959345587E-05,1.43142433444154E-05,1.58203125,0.145518183016016,6.98366825911641
-3.32725649059284E-05,1.38067007355858E-05,1.58203125,0.148452538104771,6.98366825911641
-3.43641513609327E-05,1.28229967231164E-05,1.58203125,0.151385029241795,6.98366825911641
-3.354132786626E-05,1.14340100481058E-05,1.58203125,0.154315685467286,6.98366825911641
-3.46986198564991E-05,1.13369014798081E-05,1.58203125,0.15724453595015,6.98366825911641
