biceps_emg, triceps_emg, subject_position, position_estimate, brace_position
-2.47341540671187E-05,-1.22511773952283E-05,3.515625,0,0
-2.51506444328697E-05,-1.41225782499532E-05,3.515625,0,0
-2.3140379198594E-05,-1.60848921950674E-05,3.515625,0,0
-2.46225590672111E-05,-2.0415283870534E-05,3.515625,0,0
-2.4768394723651E-05,-2.78610659734113E-05,3.515625,0,0
-2.65793933067471E-05,-3.00117753795348E-05,3.515625,0,0
-2.64328591583762E-05,-2.54275309998775E-05,3.515625,0,0
-2.83407098322641E-05,-1.4349395314639E-05,3.515625,0,0
-2.87366619886598E-05,-3.34511264554749E-06,3.515625,0,0
-2.9167897082516E-05,5.29874296262278E-06,3.515625,0,0
-2.80837411992252E-05,9.18606565392111E-06,3.515625,0,0
-2.67066006927053E-05,1.06206443888368E-05,3.515625,0,0
-2.41386387642706E-05,1.14942386062467E-05,3.515625,0,0
-2.25072926696157E-05,1.37108181661461E-05,3.515625,0,0
-1.75756686076056E-05,1.3614201634482E-05,3.515625,0,0
-2.58729578490602E-05,1.92184870684287E-05,3.515625,0,0
-2.07511366170365E-05,1.32958839458297E-05,3.515625,0,0
-2.52890531555749E-05,1.55887901200913E-05,3.515625,0,0
-2.17541619349504E-05,1.37307524710195E-05,3.515625,0,0
-2.34024137171218E-05,1.75441273313481E-05,3.515625,0,0
-2.12227951124078E-05,1.66260924743256E-05,3.515625,0,0
-2.26382235268829E-05,1.61469106387813E-05,3.515625,0,0
-2.21574464376317E-05,1.56164005602477E-05,3.515625,0,0
-2.26515148824546E-05,1.71364572452148E-05,3.515625,0,0
-2.42472797253868E-05,1.76249814103357E-05,3.515625,0,0
-2.50529610639205E-05,1.52052361954702E-05,3.515625,0,0
-2.53002526733326E-05,1.32473705889424E-05,3.515625,0,0
-2.28602020797553E-05,1.16184428406996E-05,3.515625,0,0
-2.29360030061798E-05,1.39234425660106E-05,3.515625,0,0
-2.23507231567055E-05,1.70538878592197E-05,3.515625,0,0
-2.36745818256168E-05,2.24262348638149E-05,3.515625,0,0
-2.29451688937843E-05,2.51890978688607E-05,3.515625,0,0
-2.39305663853884E-05,2.67768682533642E-05,3.515625,0,0
-2.33543942158576E-05,2.35105562751414E-05,3.515625,0,0
-2.42967271333328E-05,1.76488520082785E-05,3.515625,0,0
-2.43587055592798E-05,1.05430726762279E-05,3.515625,0,0
-2.47165353357559E-05,8.27923577162437E-06,3.515625,0,0
-2.33800001296913E-05,1.18801617645659E-05,3.515625,0,0
-2.38540742429905E-05,2.1044483219157E-05,3.515625,0,0
-2.4957065761555E-05,2.8163338356535E-05,3.515625,0,0
-2.53146499744616E-05,2.7768692234531E-05,3.515625,0,0
-2.01478524104459E-05,1.6721649444662E-05,3.515625,0,0
-2.74581561825471E-05,2.01485618163133E-05,3.515625,0,0
-1.98565594473621E-05,1.20066579256672E-05,3.515625,0,0
-2.60525266639888E-05,1.68006808962673E-05,3.515625,0,0
-2.4428469259874E-05,1.04499649751233E-05,3.515625,0,0
-2.97495862469077E-05,1.01135456134216E-05,3.515625,0,0
-2.62945559370564E-05,5.96346308157081E-06,3.515625,0,0
-2.46803119807737E-05,7.15866462996928E-06,3.515625,0,0
-2.19466564885806E-05,6.14595319348155E-06,3.515625,0,0
-2.15950440178858E-05,4.48614446213469E-06,3.515625,0,0
-2.22493672481505E-05,3.36647576659743E-06,3.515625,0,0
-2.20241327042459E-05,3.32201329911186E-06,3.515625,0,0
-2.26761058002012E-05,6.12656549492385E-06,3.515625,0,0
-2.11959304579068E-05,7.32072612663615E-06,3.515625,0,0
-2.27005875785835E-05,9.01465318747796E-06,3.515625,0,0
-2.25710773520404E-05,6.84824817653862E-06,3.515625,0,0
-2.42285514104879E-05,6.52806647849502E-06,3.515625,0,0
-2.25247040361864E-05,5.16334102940164E-06,3.515625,0,0
-2.30285750149051E-05,7.6448886829894E-06,3.515625,0,0
-2.28115713980515E-05,9.17773832043167E-06,3.515625,0,0
-2.44016828219173E-05,1.08631520561175E-05,3.515625,0,0
-2.27840409934288E-05,1.01594241641578E-05,3.515625,0,0
-2.21441587200388E-05,1.0469672815816E-05,3.515625,0,0
-2.24073282879544E-05,9.33612500375602E-06,3.515625,0,0
-2.51093351835152E-05,7.91519414633513E-06,3.515625,0,0
-2.81724387605209E-05,5.71328155274387E-06,3.515625,0,0
-2.99693438137183E-05,3.12906695398851E-06,3.515625,0,0
-2.46462841460016E-05,1.27904263536038E-06,3.515625,0,0
-3.38375066348817E-05,4.05701575800776E-06,3.515625,0,0
-2.33391219808254E-05,8.73469161888352E-06,3.515625,0,0
-2.72340967057971E-05,1.24586385936709E-05,3.515625,0,0
-1.99039313883986E-05,1.43581401061965E-05,3.515625,0,0
-2.35889656323707E-05,1.53200035128975E-05,3.515625,0,0
-2.21612644963898E-05,1.39157473313389E-05,3.515625,0,0
-2.43730355578009E-05,1.235156742041E-05,3.515625,0,0
-2.44044258579379E-05,1.1155211723235E-05,3.515625,0,0
-2.55892482527997E-05,9.76162391452817E-06,3.515625,0,0
-2.55692066275515E-05,8.74083161761519E-06,3.515625,0,0
-2.32349775615148E-05,8.17116688267561E-06,3.515625,0,0
-2.4161439796444E-05,8.12060170574114E-06,3.515625,0,0
-2.41739271586994E-05,7.84733947511995E-06,3.515625,0,0
-2.66301922238199E-05,7.79176934884163E-06,3.515625,0,0
-2.51758901868016E-05,7.89868954598205E-06,3.515625,0,0
-2.64399950538063E-05,9.09283880901057E-06,3.515625,0,0
-2.48850410571322E-05,1.02296162367566E-05,3.515625,0,0
-2.51765286520822E-05,1.039614835463E-05,3.515625,0,0
-2.28267836064333E-05,1.07536143332254E-05,3.515625,0,0
-2.26478550757747E-05,1.26610502775293E-05,3.515625,0,0
-2.15855434362311E-05,1.44207406265195E-05,3.515625,0,0
-2.26434804062592E-05,1.45155427162535E-05,3.515625,0,0
-2.40050449065166E-05,1.37443366838852E-05,3.515625,0,0
-2.58303953160066E-05,1.17839717859169E-05,3.515625,0,0
-2.5428691515117E-05,9.70901783148292E-06,3.515625,0,0
-2.49245240411256E-05,9.44752628129208E-06,3.515625,0,0
-1.94884778466076E-05,8.56250971992267E-06,3.515625,0,0
-2.6602327125147E-05,1.22057326734648E-05,3.515625,0,0
-1.97075187315932E-05,9.151744961855E-06,3.515625,0,0
-2.54699025390437E-05,1.15111533887102E-05,3.515625,0,0
-2.16431653825566E-05,9.15994678507559E-06,3.515625,0,0
-2.53295456786873E-05,8.19379692984512E-06,3.515625,0,0
-2.33637383644236E-05,4.48140690423315E-06,3.515625,0,0
-2.40870285779238E-05,1.81777159014018E-06,3.515625,0,0
-2.39343316934537E-05,-1.11856809326127E-06,3.515625,0,0
-2.54722181125544E-05,-1.69479267242423E-06,3.515625,0,0
-2.75040656561032E-05,-4.46037432766389E-07,3.515625,0,0
-2.73353525699349E-05,1.74957415310928E-06,3.515625,0,0
-2.68290696112672E-05,4.95187032356625E-06,3.515625,0,0
-2.26762022066396E-05,7.53815220377874E-06,3.515625,0,0
-1.97635927179363E-05,1.1547192116268E-05,3.515625,0,0
-1.70915081980638E-05,1.43356719490839E-05,3.515625,0,0
-1.97520057554357E-05,1.73418902704725E-05,3.515625,0,0
-2.0423149180715E-05,1.82584190042689E-05,3.515625,0,0
-2.09359550353838E-05,1.77371912286617E-05,3.515625,0,0
-1.81127161340555E-05,1.44644236570457E-05,3.515625,0,0
-1.74218221218325E-05,1.18943489724188E-05,3.515625,0,0
-1.83713145816E-05,1.0316140105715E-05,3.515625,0,0
-2.18968925764784E-05,1.04990494946833E-05,3.515625,0,0
-2.29026700253598E-05,1.02869817055762E-05,3.515625,0,0
-2.38183256442426E-05,8.69947689352557E-06,3.515625,0,0
-2.50017637881683E-05,5.45021975995041E-06,3.515625,0,0
-2.55708473559935E-05,4.08978348787059E-06,3.515625,0,0
-1.97535682673333E-05,3.68973564945918E-06,3.515625,0,0
-2.76539030892309E-05,5.73776060264208E-06,3.515625,0,0
-2.04439056687988E-05,5.26420626556501E-06,3.515625,0,0
-2.42588321270887E-05,6.7849891820515E-06,3.515625,0,0
-1.72642739926232E-05,9.33146293391474E-06,3.515625,0,0
-1.80348524736473E-05,1.5294101103791E-05,3.515625,0,0
-1.64082757692086E-05,1.85871213034261E-05,3.515625,0,0
-1.89583151950501E-05,2.028806375165E-05,3.515625,0,0
-1.90216378541663E-05,2.01659713638946E-05,3.515625,0,0
-1.88689991773572E-05,1.88357298611663E-05,3.515625,0,0
-1.9195802451577E-05,1.67527050507488E-05,3.515625,0,0
-1.97725912585156E-05,1.50307805597549E-05,3.515625,0,0
-2.22764083446236E-05,1.39368003146956E-05,3.515625,0,0
-2.30195546464529E-05,1.21124066936318E-05,3.515625,0,0
-2.53600701398682E-05,1.10431410575984E-05,3.515625,0,0
-2.46720446739346E-05,1.03660495369695E-05,3.515625,0,0
-2.5555722459103E-05,1.12220122900908E-05,3.515625,0,0
-2.47021289396798E-05,1.19333290058421E-05,3.515625,0,0
-2.59185853792587E-05,1.15151942736702E-05,3.515625,0,0
-2.42838905251119E-05,9.75892999122152E-06,3.515625,0,0
-2.39638338825898E-05,8.40336178953294E-06,3.515625,0,0
-2.43219674302964E-05,7.42573820389225E-06,3.515625,0,0
-2.70489399554208E-05,7.48007869333378E-06,3.515625,0,0
-2.84454981738236E-05,8.44939040689496E-06,3.515625,0,0
-3.01926938846009E-05,1.04782220660127E-05,3.515625,0,0
-3.16320583806373E-05,1.11003910205909E-05,3.515625,0,0
-3.1459243473364E-05,1.06009420051123E-05,3.515625,0,0
-2.36933428823249E-05,8.29846794658806E-06,3.515625,0,0
-3.36691300617531E-05,8.78442187968176E-06,3.515625,0,0
-2.65503367700148E-05,1.74984393197519E-07,3.515625,0,0
-3.31416486005764E-05,-1.7626603039389E-06,3.515625,0,0
-2.67581726802746E-05,-4.20643482357264E-06,3.515625,0,0
-2.83957051578909E-05,3.98349357055849E-07,3.515625,0,0
-2.48749256570591E-05,4.91099262944772E-06,3.515625,0,0
-2.48220094363205E-05,9.07236881175777E-06,3.515625,0,0
-2.04787011170993E-05,8.49609841679921E-06,3.515625,0,0
-1.73309199453797E-05,3.60920648745378E-06,3.515625,0,0
-1.63821823662147E-05,-3.65979099115066E-06,3.515625,0,0
-1.5984656783985E-05,-7.46502246329328E-06,3.515625,0,0
-1.80569440999534E-05,-1.79842504621774E-06,3.515625,0,0
-1.76303801708855E-05,1.46599059007713E-05,3.515625,0,0
-1.93937157746404E-05,3.79942284780554E-05,3.515625,0,0
-1.88132071343716E-05,5.62160785193555E-05,3.515625,0,0
-2.12667255254928E-05,6.54742761980742E-05,3.515625,0,0
-2.15991658478742E-05,6.41680235275999E-05,3.515625,0,0
-2.45006685872795E-05,5.69453586649615E-05,3.515625,0,0
-2.42095975409029E-05,4.41751180915162E-05,3.515625,0,0
-2.41248762904434E-05,3.04330787912477E-05,3.515625,0,0
-2.24920440814458E-05,1.72795480466448E-05,3.515625,0,0
-2.3875176339061E-05,7.08486822986742E-06,3.515625,0,0
-2.48120268224739E-05,-2.60029037235654E-06,3.515625,0,0
-2.57452247751644E-05,-1.10236296677613E-05,3.515625,0,0
-2.53364196396433E-05,-1.6108302588691E-05,3.515625,0,0
-2.48515279963613E-05,-1.70363691722741E-05,3.515625,0,0
-1.89446946023963E-05,-1.36943244797294E-05,3.515625,0,0
-2.43797148868907E-05,-2.15753698284971E-05,3.515625,0,0
-1.49963043440948E-05,-1.94734784599859E-05,3.515625,0,0
-1.93372761714272E-05,-2.21492282435065E-05,3.515625,0,0
-1.57122321979841E-05,-1.55990910570836E-05,3.515625,0,0
-1.97867339011282E-05,-1.09756983874831E-05,3.515625,0,0
-1.88864705705782E-05,2.07425000553485E-06,3.515625,0,0
-2.08350120374234E-05,1.25888955153641E-05,3.515625,0,0
-2.17720335058402E-05,1.81258819793584E-05,3.515625,0,0
-2.37482599914074E-05,1.60319414135301E-05,3.515625,0,0
-2.50129014602862E-05,1.19431751954835E-05,3.515625,0,0
-2.46417585003655E-05,1.10660721475142E-05,3.515625,0,0
-2.48638589255279E-05,1.13038122435682E-05,3.515625,0,0
-2.32886814046651E-05,1.23170611914247E-05,3.515625,0,0
-2.52018398896325E-05,1.08278663901729E-05,3.515625,0,0
-2.54610058618709E-05,1.19341575555154E-05,3.515625,0,0
-2.67087052634452E-05,1.63493314175867E-05,3.515625,0,0
-2.45116571022663E-05,2.8306569220149E-05,3.515625,0,0
-2.50431385211414E-05,4.01662582589779E-05,3.515625,0,0
-2.52153677138267E-05,4.73569452879019E-05,3.515625,0,0
-2.71298504230799E-05,4.50841725978535E-05,3.515625,0,0
-2.74133853963576E-05,3.79941557184793E-05,3.515625,0,0
-2.87244911305606E-05,2.76478458545171E-05,3.515625,0,0
-2.88257469946984E-05,1.65786368597765E-05,3.515625,0,0
-2.84111883956939E-05,4.22202492700308E-06,3.515625,0,0
-2.71276985586155E-05,-7.26507505532936E-06,3.515625,0,0
-2.68963285634527E-05,-1.61083426064579E-05,3.515625,0,0
-2.35617699217983E-05,-1.67465586855542E-05,3.515625,0,0
-3.32041054207366E-05,-2.43265676544979E-05,3.515625,0,0
-2.29957367992029E-05,-1.72624841070501E-05,3.515625,0,0
-2.73889436357422E-05,-1.75656932697166E-05,3.515625,0,0
-2.452152693877E-05,-8.68669576448156E-06,3.515625,0,0
-2.93357115879189E-05,-5.06161859448184E-06,3.515625,0,0
-2.66193492279854E-05,1.70933378740301E-06,3.515625,0,0
-2.76694991043769E-05,8.82019230630249E-06,3.515625,0,0
-2.69214706349885E-05,2.05033102247398E-05,3.515625,0,0
-2.7218040486332E-05,2.9238777642604E-05,3.515625,0,0
-2.7641954147839E-05,3.08773487631697E-05,3.515625,0,0
-2.70836299023358E-05,2.66953738901066E-05,3.515625,0,0
-2.83204171864782E-05,1.96794098883402E-05,3.515625,0,0
-2.70361288130516E-05,1.66053541761357E-05,3.515625,0,0
-2.75496513495455E-05,1.43483939609723E-05,3.515625,0,0
-2.46510080614826E-05,1.50836558532319E-05,3.515625,0,0
-2.37517197092529E-05,1.56926726049278E-05,3.515625,0,0
-2.03062536456855E-05,1.8971932149725E-05,3.515625,0,0
-1.80558363354066E-05,2.01092589122709E-05,3.515625,0,0
-1.31920432977495E-05,2.19444518734235E-05,3.515625,0,0
-1.27368493849644E-05,2.28328117373167E-05,3.515625,0,0
-1.39286721605458E-05,2.35449515457731E-05,3.515625,0,0
-1.71248339029262E-05,2.09406334761297E-05,3.515625,0,0
-1.83152806130238E-05,1.86569159268402E-05,3.515625,0,0
-1.93822415894829E-05,1.63726763275918E-05,3.515625,0,0
-1.95748834812548E-05,1.46703787322622E-05,3.515625,0,0
-1.93396263057366E-05,1.30946318677161E-05,3.515625,0,0
-1.56915339175612E-05,7.81738344812766E-06,3.515625,0,0
-2.20876954699634E-05,9.59528460953152E-06,3.515625,0,0
-1.71846786543028E-05,7.63757270760834E-06,3.515625,0,0
-2.29522775043733E-05,1.34170531964628E-05,3.515625,0,0
-2.16608350456227E-05,1.22988676594105E-05,3.515625,0,0
-2.42968435486546E-05,1.36657008624752E-05,3.515625,0,0
-2.28078606596682E-05,1.26847635328886E-05,3.515625,0,0
-2.43679005507147E-05,1.43684746944928E-05,3.515625,0,0
-2.52190257015172E-05,1.49252318806248E-05,3.515625,0,0
-2.62827888946049E-05,1.51739786815597E-05,3.515625,0,0
-2.58361851592781E-05,1.52847678691614E-05,3.515625,0,0
-2.3382306608255E-05,1.43882534757722E-05,3.515625,0,0
-2.24724280997179E-05,1.32694831336266E-05,3.515625,0,0
-2.13874845940154E-05,1.15991470011068E-05,3.515625,0,0
-2.25436797336442E-05,1.1837670172099E-05,3.515625,0,0
-2.23759634536691E-05,1.16724640975008E-05,3.515625,0,0
-2.4703220333322E-05,1.14344356916263E-05,3.515625,0,0
-2.51312230830081E-05,9.46093496168032E-06,3.515625,0,0
-2.56754374277079E-05,9.34374656935688E-06,3.515625,0,0
-2.48730466410052E-05,9.45317151490599E-06,3.515625,0,0
-2.60241158684948E-05,1.1573574738577E-05,3.515625,0,0
-2.51042329182383E-05,1.33128460220178E-05,3.515625,0,0
-2.34510243899422E-05,1.51581598402117E-05,3.515625,0,0
-2.16599746636348E-05,1.59846822498366E-05,3.515625,0,0
-2.23543083848199E-05,1.52401162267779E-05,3.515625,0,0
-2.33443806791911E-05,1.20618706205278E-05,3.515625,0,0
-2.44761540670879E-05,9.54778079176322E-06,3.515625,0,0
-2.15113996091532E-05,6.40473899693461E-06,3.515625,0,0
-3.09684801322874E-05,1.01428668131121E-05,3.515625,0,0
-2.36253254115582E-05,1.08663471110049E-05,3.515625,0,0
-2.93178582069231E-05,1.40158581416472E-05,3.515625,0,0
-2.51678138738498E-05,1.16744968181592E-05,3.515625,0,0
-2.66183160420042E-05,1.24764110296383E-05,3.515625,0,0
-2.26405354624148E-05,1.27099810924847E-05,3.515625,0,0
-2.20252495637396E-05,1.46324846355128E-05,3.515625,0,0
-1.96778655663366E-05,1.7549269614392E-05,3.515625,0,0
-1.98912948690122E-05,2.11283786484273E-05,3.515625,0,0
-2.14340416277992E-05,2.24459126911825E-05,3.515625,0,0
-2.1626205125358E-05,1.93823343579425E-05,3.515625,0,0
-2.24581308430061E-05,1.34362926473841E-05,3.515625,0,0
-2.2512445866596E-05,5.34193395651528E-06,3.515625,0,0
-2.56412404269213E-05,4.18355554643313E-08,3.515625,0,0
-2.45751052716514E-05,-9.29115117287438E-07,3.515625,0,0
-2.37709318753332E-05,2.56698444900394E-06,3.515625,0,0
-2.12580816878472E-05,5.5488098951173E-06,3.515625,0,0
-2.238578053948E-05,6.86424573359545E-06,3.515625,0,0
-2.31690301006893E-05,5.16867794431164E-06,3.515625,0,0
-2.58096933976049E-05,4.08721143685398E-06,3.515625,0,0
-2.63178753812099E-05,4.36822620031307E-06,3.515625,0,0
-2.77842500508996E-05,5.47848458154476E-06,3.515625,0,0
-2.67368395725498E-05,6.74460034133517E-06,3.515625,0,0
-2.51322380790953E-05,7.71842314861715E-06,3.515625,0,0
-2.33409555221442E-05,8.43630004965235E-06,3.515625,0,0
-2.23797778744483E-05,9.68563199421624E-06,3.515625,0,0
-1.75849836523412E-05,8.58263592817821E-06,3.515625,0,0
-2.46786912612151E-05,1.13956511995639E-05,3.515625,0,0
-1.89185357157839E-05,7.26866119293845E-06,3.515625,0,0
-2.32537549891276E-05,9.94541005638894E-06,3.515625,0,0
-1.85365643119439E-05,9.3239550551516E-06,3.515625,0,0
-2.17392753256718E-05,1.17581812446588E-05,3.515625,0,0
-2.18700715777231E-05,1.13311634777347E-05,3.515625,0,0
-2.34843209909741E-05,1.01582445495296E-05,3.515625,0,0
-2.33054906857433E-05,7.58826172386762E-06,3.515625,0,0
-2.45643987000221E-05,5.68741415918339E-06,3.515625,0,0
-2.53135822276818E-05,6.79354798194254E-06,3.515625,0,0
-2.45039555011317E-05,1.11139497676049E-05,3.515625,0,0
-2.53207417699741E-05,1.71866286109434E-05,3.515625,0,0
-2.44249658862827E-05,1.94992935576011E-05,3.515625,0,0
-2.51387627940858E-05,1.79067501449026E-05,3.515625,0,0
-2.44529874180444E-05,1.30328480736353E-05,3.515625,0,0
-2.56005387200275E-05,1.06200386653654E-05,3.515625,0,0
-2.44182538153837E-05,1.00995875982335E-05,3.515625,0,0
-2.5163812097162E-05,1.12563193397364E-05,3.515625,0,0
-2.48261567321606E-05,9.99406438495498E-06,3.515625,0,0
-2.54060960287461E-05,6.43665680399863E-06,3.515625,0,0
-2.49328568315832E-05,9.82367851065646E-07,3.515625,0,0
-2.67257491941564E-05,-7.94411789684091E-07,3.515625,0,0
-2.79371215583524E-05,4.39722316514235E-06,3.515625,0,0
-2.8418342481018E-05,1.38871719173039E-05,3.515625,0,0
-2.70824275503401E-05,1.93502819456626E-05,3.515625,0,0
-2.6336298105889E-05,1.88110716408119E-05,3.515625,0,0
-1.98770521819824E-05,1.44179321068805E-05,3.515625,0,0
-2.61506502283737E-05,2.06577060453128E-05,3.515625,0,0
-1.80975657713134E-05,1.4292936612037E-05,3.515625,0,0
-2.55439517786726E-05,1.55367470142664E-05,3.515625,0,0
-2.32045804295922E-05,1.22157180157956E-05,3.515625,0,0
-2.62047215073835E-05,1.43440884130541E-05,3.515625,0,0
-2.33334394579288E-05,1.10924293039716E-05,3.515625,0,0
-2.4684681193321E-05,9.01530529517913E-06,3.515625,0,0
-2.39907076320378E-05,6.64067965772119E-06,3.515625,0,0
-2.36302257690113E-05,6.93553965902538E-06,3.515625,0,0
-2.40162644331576E-05,7.27705673853052E-06,3.515625,0,0
-2.36194664466893E-05,6.14823466094094E-06,3.515625,0,0
-2.41790785366902E-05,5.94026596445474E-06,3.515625,0,0
-2.28611861530226E-05,6.38283108855831E-06,3.515625,0,0
-2.38681295741117E-05,1.0325069524697E-05,3.515625,0,0
-2.21960181079339E-05,1.29276440929971E-05,3.515625,0,0
-2.28325625357684E-05,1.45057201734744E-05,3.515625,0,0
-2.17395117942942E-05,1.00380202638917E-05,3.515625,0,0
-2.32131096709054E-05,5.55406222702004E-06,3.515625,0,0
-2.33135979215149E-05,4.82093719256227E-06,3.515625,0,0
-2.51080309681129E-05,1.2754807357851E-05,3.515625,0,0
-2.44959519477561E-05,2.14490009966539E-05,3.515625,0,0
-2.2487618480227E-05,2.58907966781408E-05,3.515625,0,0
-1.94763706531376E-05,2.3342779968516E-05,3.515625,0,0
-1.94144158740528E-05,1.77573529072106E-05,3.515625,0,0
-2.07718530873535E-05,1.22720957733691E-05,3.515625,0,0
-2.27371310757007E-05,7.73674582887907E-06,3.515625,0,0
-1.89482379937544E-05,4.6685449888173E-06,3.515625,0,0
-2.71380304184277E-05,1.08817539512529E-05,3.515625,0,0
-2.17914439417655E-05,1.94468830159167E-05,3.515625,0,0
-2.77234667009907E-05,3.08780763589311E-05,3.515625,0,0
-2.32627935474738E-05,3.75614472432062E-05,3.515625,0,0
-2.41839316004189E-05,4.3369520426495E-05,3.515625,0,0
-1.99745954887476E-05,4.61420531792101E-05,3.515625,0,0
-1.9164997866028E-05,4.35275833297055E-05,3.515625,0,0
-1.9035713194171E-05,3.45096486853436E-05,3.515625,0,0
-2.16197695408482E-05,2.25156709348084E-05,3.515625,0,0
-2.42489059019135E-05,9.01282237464329E-06,3.515625,0,0
-2.3488169972552E-05,-4.47068032372044E-06,3.515625,0,0
-2.34274139074842E-05,-1.39643007059931E-05,3.515625,0,0
-2.31488429562887E-05,-1.89356505870819E-05,3.515625,0,0
-2.54563747148495E-05,-2.15097661566688E-05,3.515625,0,0
-2.51592318818439E-05,-2.64904374489561E-05,3.515625,0,0
-2.6070854801219E-05,-3.3848911698442E-05,3.515625,0,0
-2.48955493589165E-05,-3.99441451008897E-05,3.515625,0,0
-2.60253891610773E-05,-3.83747174055316E-05,3.515625,0,0
-2.59214612015057E-05,-2.90018797386438E-05,3.515625,0,0
-2.65005346591352E-05,-1.59635510499356E-05,3.515625,0,0
-2.50033590418752E-05,-5.34028140464216E-06,3.515625,0,0
-2.46632789639989E-05,4.69696402660702E-07,3.515625,0,0
-2.39604378293734E-05,1.73147111581784E-06,3.515625,0,0
-2.45646442635916E-05,1.85115698059235E-06,3.515625,0,0
-2.52513473242288E-05,2.40925510297529E-06,3.515625,0,0
-2.50817556661787E-05,1.70387716025289E-06,3.515625,0,0
-1.92029438039754E-05,-1.26709139181003E-07,3.515625,0,0
-2.64911977865268E-05,-1.78089624114364E-06,3.515625,0,0
-1.97819681488909E-05,-9.10253845631814E-07,3.515625,0,0
-2.58998479694128E-05,4.03909916713019E-06,3.515625,0,0
-2.31280500884168E-05,6.78973037793185E-06,3.515625,0,0
-2.67998857452767E-05,6.12002850175486E-06,3.515625,0,0
-2.57230112765683E-05,3.4762001632771E-06,3.515625,0,0
-2.79830255749403E-05,2.19834305426048E-06,3.515625,0,0
-2.66281131189317E-05,5.53210884390865E-06,3.515625,0,0
-2.43402118940139E-05,1.31120132209617E-05,3.515625,0,0
-2.18677832890535E-05,2.13529547181679E-05,3.515625,0,0
-1.8884815290221E-05,2.70777782134246E-05,3.515625,0,0
-1.87027762876824E-05,2.94615983875701E-05,3.515625,0,0
-1.92586267075967E-05,2.83360768662533E-05,3.515625,0,0
-2.24843006435549E-05,2.45456249103881E-05,3.515625,0,0
-2.28569369937759E-05,2.06574022740824E-05,3.515625,0,0
-2.52312584052561E-05,1.90984883374767E-05,3.515625,0,0
-2.54385595326312E-05,1.86476681847125E-05,3.515625,0,0
-2.67380564764608E-05,1.89375859918073E-05,3.515625,0,0
-2.50545599556062E-05,2.03359722945606E-05,3.515625,0,0
-2.37825952353887E-05,2.27356704272097E-05,3.515625,0,0
-2.14118736039381E-05,2.51127730734879E-05,3.515625,0,0
-2.19612757064169E-05,2.59614062088076E-05,3.515625,0,0
-2.23445149458712E-05,2.39601195062278E-05,3.515625,0,0
-2.31784397328738E-05,2.09202407859266E-05,3.515625,0,0
-2.27657492359867E-05,1.87547720997827E-05,3.515625,0,0
-2.31256690312875E-05,1.70435814652592E-05,3.515625,0,0
-1.97524241229985E-05,1.2078734471288E-05,3.515625,0,0
-2.81796073977603E-05,1.5157381312747E-05,3.515625,0,0
-2.08293186005903E-05,9.14897736947751E-06,3.515625,0,0
-2.45326355070574E-05,1.3872734598408E-05,3.515625,0,0
-2.01239017769694E-05,1.25732703963877E-05,3.515625,0,0
-2.33810278587043E-05,1.51948570419336E-05,3.515625,0,0
-2.16697244468378E-05,1.47571317938855E-05,3.515625,0,0
-2.28222488658503E-05,1.61534881044645E-05,3.515625,0,0
-2.20665915549034E-05,1.58198672579601E-05,3.515625,0,0
-2.22652688535163E-05,1.55557536345441E-05,3.515625,0,0
-2.31799494940788E-05,1.45320118463133E-05,3.515625,0,0
-2.3293756385101E-05,1.24512907859753E-05,3.515625,0,0
-2.47661919274833E-05,1.20360900837113E-05,3.515625,0,0
-2.39478758885525E-05,1.20590866572456E-05,3.515625,0,0
-2.46495292230975E-05,1.43807155836839E-05,3.515625,0,0
-2.30358255066676E-05,1.46435359056341E-05,3.515625,0,0
-2.2781576262787E-05,1.45559670272633E-05,3.515625,0,0
-2.08515812119003E-05,1.32100121845724E-05,3.515625,0,0
-2.30515634029871E-05,1.40984848258086E-05,3.515625,0,0
-2.43360882450361E-05,1.22257333714515E-05,3.515625,0,0
-2.53525540756527E-05,9.02435658645118E-06,3.515625,0,0
-2.34495109907584E-05,4.54039854957955E-06,3.515625,0,0
-2.34608269238379E-05,2.8975348413951E-06,3.515625,0,0
-2.4009581466089E-05,4.02637351726298E-06,3.515625,0,0
-2.47545285674278E-05,7.7543081715703E-06,3.515625,0,0
-2.45749179157428E-05,1.12406578409718E-05,3.515625,0,0
-2.36685973504791E-05,1.31688047986245E-05,3.515625,0,0
-1.83953707164619E-05,1.130979944719E-05,3.515625,0,0
-2.53192665695678E-05,1.60512590809958E-05,3.515625,0,0
-1.72638428921346E-05,1.26323329823208E-05,3.515625,0,0
-1.89324400707847E-05,1.51843360072235E-05,3.515625,0,0
-1.20986942420132E-05,1.10943019535625E-05,3.515625,0,0
-1.44851846926031E-05,1.15024395199725E-05,3.515625,0,0
-1.51947278936859E-05,1.18214566100505E-05,3.515625,0,0
-1.96322234842228E-05,1.67466259881621E-05,3.515625,0,0
-2.17662545765052E-05,1.99075766431633E-05,3.515625,0,0
-2.34637082030531E-05,1.93022642633878E-05,3.515625,0,0
-2.40393601416145E-05,1.54957870108774E-05,3.515625,0,0
-2.35787028941559E-05,1.15398797788657E-05,3.515625,0,0
-2.42819314735243E-05,1.02192188933259E-05,3.515625,0,0
-2.29654306167504E-05,8.52836546982871E-06,3.515625,0,0
-2.42782516579609E-05,7.93368690210627E-06,3.515625,0,0
-2.44747679971624E-05,6.93772972226725E-06,3.515625,0,0
-2.61848163063405E-05,8.48637228045845E-06,3.515625,0,0
-2.52586542046629E-05,8.18902026367141E-06,3.515625,0,0
-2.57670908467844E-05,7.59114118409343E-06,3.515625,0,0
-2.32841975957854E-05,6.03632088314043E-06,3.515625,0,0
-2.25781659537461E-05,6.14032796875108E-06,3.515625,0,0
-2.30431942327414E-05,6.2348549363378E-06,3.515625,0,0
-2.56527855526656E-05,8.74428951647133E-06,3.515625,0,0
-2.58286854659673E-05,1.30943872136413E-05,3.515625,0,0
-2.41790748987114E-05,2.27415839617606E-05,3.515625,0,0
-2.22398957703263E-05,3.51206035702489E-05,3.515625,0,0
-2.27903510676697E-05,4.22020893893205E-05,3.515625,0,0
-1.94786043721251E-05,3.34336764353793E-05,3.515625,0,0
-2.76625632977812E-05,4.1217001125915E-05,3.515625,0,0
-2.13544262805954E-05,1.6247544408543E-05,3.515625,0,0
-2.72265260718996E-05,1.0970987204928E-05,3.515625,0,0
-2.3919692466734E-05,-9.21789887797786E-06,3.515625,0,0
-2.74192643701099E-05,-1.36496109917061E-05,3.515625,0,0
-2.65670205408242E-05,-2.39856890402734E-05,3.515625,0,0
-2.77491217275383E-05,-2.55214035860263E-05,3.515625,0,0
-2.60384713328676E-05,-2.69217289314838E-05,3.515625,0,0
-2.52293448284036E-05,-2.52308964263648E-05,3.515625,0,0
-2.46373256231891E-05,-2.25181702262489E-05,3.515625,0,0
-2.32839101954596E-05,-1.95831707969774E-05,3.515625,0,0
-2.43450504058274E-05,-1.07882642623736E-05,3.515625,0,0
-2.38213178818114E-05,-1.68883104834094E-06,3.515625,0,0
-2.43517260969384E-05,1.22130850286339E-05,3.515625,0,0
-2.23678962356644E-05,1.96118216990726E-05,3.515625,0,0
-2.35527604672825E-05,2.54299666266888E-05,3.515625,0,0
-2.35589177464135E-05,2.37432068388443E-05,3.515625,0,0
-2.50044831773266E-05,2.64835780399153E-05,3.515625,0,0
-2.39938890445046E-05,2.98508784908336E-05,3.515625,0,0
-2.47001098614419E-05,3.61580714525189E-05,3.515625,0,0
-2.44969487539493E-05,3.43253268511035E-05,3.515625,0,0
-2.53507878369419E-05,2.71319295279682E-05,3.515625,0,0
-2.53083180723479E-05,1.36942271637963E-05,3.515625,0,0
-2.60507331404369E-05,1.0149186664421E-06,3.515625,0,0
-2.66054794337833E-05,-7.08636525814654E-06,3.515625,0,0
-2.6118377718376E-05,-6.96306778991129E-06,3.515625,0,0
-2.05652704607928E-05,6.7230490685688E-07,3.515625,0,0
-2.94769943138817E-05,6.03459784542792E-06,3.515625,0,0
-2.44307266257238E-05,8.79962317412719E-06,3.515625,0,0
-3.12623051286209E-05,6.03292528467136E-06,3.515625,0,0
-2.68821640929673E-05,7.62962645239895E-06,3.515625,0,0
-3.00139909086283E-05,7.55700739318854E-06,3.515625,0,0
-2.77388662652811E-05,8.28734755486948E-06,3.515625,0,0
-2.82924083876424E-05,8.528822036169E-06,3.515625,0,0
-2.65484977717279E-05,9.9543676697067E-06,3.515625,0,0
-2.64586196863092E-05,1.11553381429985E-05,3.515625,0,0
-2.7138514269609E-05,1.10487562778872E-05,3.515625,0,0
-2.65354337898316E-05,9.94266611087369E-06,3.515625,0,0
-2.62186440522783E-05,9.0977282525273E-06,3.515625,0,0
-2.21471618715441E-05,9.49014975049067E-06,3.515625,0,0
-2.06502209039172E-05,1.02716330729891E-05,3.515625,0,0
-1.86437373486115E-05,1.08419544631033E-05,3.515625,0,0
-1.96054097614251E-05,1.00298811958055E-05,3.515625,0,0
-1.7919792298926E-05,1.15812454168918E-05,3.515625,0,0
-1.80810275196563E-05,1.6902842617128E-05,3.515625,0,0
-1.73238731804304E-05,2.19632966036443E-05,3.515625,0,0
-1.99670485017123E-05,2.14185274671763E-05,3.515625,0,0
-2.11963124456815E-05,1.76282410393469E-05,3.515625,0,0
-2.21749160118634E-05,1.43673987622606E-05,3.515625,0,0
-2.13459079532186E-05,1.30558428281802E-05,3.515625,0,0
-2.03827694349457E-05,1.23982308650739E-05,3.515625,0,0
-1.98018005903577E-05,1.31849901663372E-05,3.515625,0,0
-2.15469717659289E-05,1.49619145304314E-05,3.515625,0,0
-1.96287965081865E-05,1.39803023557761E-05,3.515625,0,0
-2.77092003670987E-05,1.95790216821479E-05,3.515625,0,0
-1.95555621758103E-05,1.36936623675865E-05,3.515625,0,0
-2.43605336436303E-05,1.7904772903421E-05,3.515625,0,0
-2.24611067096703E-05,1.74216329469346E-05,3.515625,0,0
-2.6032892492367E-05,2.25400181079749E-05,3.515625,0,0
-2.40574372583069E-05,2.30085097427946E-05,3.515625,0,0
-2.52603240369353E-05,2.33015707635786E-05,3.515625,0,0
-2.52943755185697E-05,2.06834993150551E-05,3.515625,0,0
-2.58832078543492E-05,1.73160242411541E-05,3.515625,0,0
-2.59220742009347E-05,1.42310927913059E-05,3.515625,0,0
-2.40536446654005E-05,1.25759424918215E-05,3.515625,0,0
-2.38115389947779E-05,1.39299145303085E-05,3.515625,0,0
-2.31372505368199E-05,1.44319765240652E-05,3.515625,0,0
-2.54628539551049E-05,1.48495864777942E-05,3.515625,0,0
-2.50354987656465E-05,1.27607245303807E-05,3.515625,0,0
-2.56351213465678E-05,1.32555351228802E-05,3.515625,0,0
-2.41330435528653E-05,1.28710225908435E-05,3.515625,0,0
-2.48457999987295E-05,1.33640978674521E-05,3.515625,0,0
-2.44494913204107E-05,1.25370224850485E-05,3.515625,0,0
-2.54319966188632E-05,1.24068374134367E-05,3.515625,0,0
-2.41365050897002E-05,1.08402473415481E-05,3.515625,0,0
-2.32489946938585E-05,1.0318454769731E-05,3.515625,0,0
-2.2172471290105E-05,9.56405347096734E-06,3.515625,0,0
-2.26871161430608E-05,8.96206074685324E-06,3.515625,0,0
-2.36747819144512E-05,9.38992889132351E-06,3.515625,0,0
-2.46641902776901E-05,1.04258060673601E-05,3.515625,0,0
-2.05598225875292E-05,7.77974491938949E-06,3.515625,0,0
-2.86929589492502E-05,1.07488058347371E-05,3.515625,0,0
-2.03704639716307E-05,8.92841762833996E-06,3.515625,0,0
-2.55437244049972E-05,1.20760769277695E-05,3.515625,0,0
-2.21357040572912E-05,1.00788884083158E-05,3.515625,0,0
-2.51279634539969E-05,9.88822375802556E-06,3.515625,0,0
-2.4180921172956E-05,7.63292428018758E-06,3.515625,0,0
-2.64837963186437E-05,7.49885839468334E-06,3.515625,0,0
-2.42231435549911E-05,6.68009533910663E-06,3.515625,0,0
-2.30147106776712E-05,5.11537609781954E-06,3.515625,0,0
-2.40591216424946E-05,3.56731629835849E-06,3.515625,0,0
-2.45335977524519E-05,2.85842179437168E-06,3.515625,0,0
-2.59040043601999E-05,3.69096301255922E-06,3.515625,0,0
-2.42659534706036E-05,3.92471702070907E-06,3.515625,0,0
-2.38275388255715E-05,4.4896110011905E-06,3.515625,0,0
-2.22635153477313E-05,3.65591063200554E-06,3.515625,0,0
-2.53718026215211E-05,4.83922849525698E-06,3.515625,0,0
-2.67205832642503E-05,7.42540942155756E-06,3.515625,0,0
-2.73353398370091E-05,1.29302625282435E-05,3.515625,0,0
-2.46865329245338E-05,1.90412538358942E-05,3.515625,0,0
-2.502066672605E-05,2.62120847764891E-05,3.515625,0,0
-2.50502343988046E-05,3.00660976790823E-05,3.515625,0,0
-2.58671407209476E-05,2.71472945314599E-05,3.515625,0,0
-2.51193414442241E-05,1.83374813786941E-05,3.515625,0,0
-2.44894163188292E-05,1.15211460069986E-05,3.515625,0,0
-2.25032981688855E-05,1.01258665381465E-05,3.515625,0,0
-2.15373165701749E-05,1.06092911664746E-05,3.515625,0,0
-1.82607764145359E-05,7.90064132161206E-06,3.515625,0,0
-2.68345538643189E-05,9.50983758229995E-06,3.515625,0,0
-2.09896516025765E-05,5.57167777515133E-06,3.515625,0,0
-2.36220985243563E-05,8.79124036146095E-06,3.515625,0,0
-1.7508977180114E-05,9.49372770264745E-06,3.515625,0,0
-1.97850986296544E-05,1.37273691507289E-05,3.515625,0,0
-2.02938153961441E-05,1.35523350763833E-05,3.515625,0,0
-2.30187524721259E-05,1.24649013741873E-05,3.515625,0,0
-2.15807031054283E-05,1.33776584334555E-05,3.515625,0,0
-2.10455746127991E-05,1.99656224140199E-05,3.515625,0,0
-2.27969521802152E-05,2.76110058621271E-05,3.515625,0,0
-2.35898078244645E-05,3.36222219630145E-05,3.515625,0,0
-2.37452895817114E-05,3.90420755138621E-05,3.515625,0,0
-2.13675666600466E-05,4.06825602112804E-05,3.515625,0,0
-2.15791023947531E-05,3.77036885765847E-05,3.515625,0,0
-2.0734258214361E-05,2.93623070319882E-05,3.515625,0,0
-2.19872981688241E-05,2.11052210943308E-05,3.515625,0,0
-2.10170092032058E-05,1.16686633191421E-05,3.515625,0,0
-2.22699436562834E-05,2.69465749624942E-06,3.515625,0,0
-2.25240819418104E-05,-5.70709835301386E-06,3.515625,0,0
-2.3897637220216E-05,-9.37511322263163E-06,3.515625,0,0
-2.31772501138039E-05,-1.15252696559764E-05,3.515625,0,0
-2.21120335481828E-05,-1.50032010424184E-05,3.515625,0,0
-2.06293498195009E-05,-2.21283007704187E-05,3.515625,0,0
-2.13105868169805E-05,-3.03106589853996E-05,3.515625,0,0
-2.31306457862956E-05,-3.39760081260465E-05,3.515625,0,0
-2.43475133174798E-05,-2.98577251669485E-05,3.515625,0,0
-2.02960127353435E-05,-1.59786595759215E-05,3.515625,0,0
-2.80328331427881E-05,-1.63491713465191E-05,3.515625,0,0
-1.93253636098234E-05,-2.70852433459368E-06,3.515625,0,0
-2.4056162146735E-05,-2.46416311711073E-06,3.515625,0,0
-2.16923399420921E-05,5.89909677728429E-06,3.515625,0,0
-2.55949034908554E-05,4.76428840556764E-06,3.515625,0,0
-2.22875623876462E-05,8.34677666716743E-06,3.515625,0,0
-2.19490339077311E-05,9.84469534159871E-06,3.515625,0,0
-2.07951852644328E-05,1.36990292958217E-05,3.515625,0,0
-2.2293808797258E-05,1.35990740091074E-05,3.515625,0,0
-2.44340481003746E-05,1.15005605039187E-05,3.515625,0,0
-2.40130448219134E-05,9.4824181360309E-06,3.515625,0,0
-2.48170199483866E-05,6.84150199958822E-06,3.515625,0,0
-2.44562143052462E-05,7.12654491508147E-06,3.515625,0,0
-2.62340599874733E-05,7.47849026083713E-06,3.515625,0,0
-2.47647294600029E-05,1.17057488751016E-05,3.515625,0,0
-2.50190969381947E-05,1.31035076265107E-05,3.515625,0,0
-2.36628602579003E-05,1.5152468222368E-05,3.515625,0,0
-2.51000274147373E-05,1.47999608088867E-05,3.515625,0,0
-2.54550050158286E-05,1.69420800375519E-05,3.515625,0,0
-2.86593331111362E-05,1.57730410137447E-05,3.515625,0,0
-3.00101273751352E-05,1.30462840388645E-05,3.515625,0,0
-2.93257016892312E-05,8.76830108609283E-06,3.515625,0,0
-2.6406452889205E-05,8.52432640385814E-06,3.515625,0,0
-2.51418368861778E-05,1.21649727589102E-05,3.515625,0,0
-2.51672518061241E-05,1.67832695296966E-05,3.515625,0,0
-2.61843688349472E-05,1.71325027622515E-05,3.515625,0,0
-2.24722789425869E-05,1.31192055050633E-05,3.515625,0,0
-3.19208738801535E-05,1.72788986674277E-05,3.515625,0,0
-2.34598155657295E-05,1.0034789738711E-05,3.515625,0,0
-2.85961032204796E-05,1.19229980555247E-05,3.515625,0,0
-2.32162037718808E-05,9.02963802218437E-06,3.515625,0,0
-2.43029662669869E-05,1.36157550514326E-05,3.515625,0,0
-1.98765392269706E-05,1.50621690409025E-05,3.515625,0,0
-1.9545008399291E-05,1.69707072927849E-05,3.515625,0,0
-1.84577875188552E-05,1.51539052239968E-05,3.515625,0,0
-1.855578921095E-05,1.45620415423764E-05,3.515625,0,0
-1.90708942682249E-05,1.4769554582017E-05,3.515625,0,0
-1.856594462879E-05,1.39372741614352E-05,3.515625,0,0
-1.99236255866708E-05,1.29411118905409E-05,3.515625,0,0
-2.02613955480047E-05,1.04594482763787E-05,3.515625,0,0
-2.36098749155644E-05,1.03693701021257E-05,3.515625,0,0
-2.44579132413492E-05,8.82407039171085E-06,3.515625,0,0
-2.64195405179635E-05,9.07830417418154E-06,3.515625,0,0
-2.56684907071758E-05,9.61375917540863E-06,3.515625,0,0
-2.7845946533489E-05,1.42204708026838E-05,3.515625,0,0
-2.76910486718407E-05,1.91682938748272E-05,3.515625,0,0
-2.72755733021768E-05,2.50531356869033E-05,3.515625,0,0
-2.5289504264947E-05,2.58505624515237E-05,3.515625,0,0
-2.51574365393026E-05,2.10013549803989E-05,3.515625,0,0
-2.30282257689396E-05,1.42040062200977E-05,3.515625,0,0
-2.16625867324183E-05,1.16295486805029E-05,3.515625,0,0
-2.0364150259411E-05,1.21606290122145E-05,3.515625,0,0
-1.90271020983346E-05,1.40860665851505E-05,3.515625,0,0
-1.52765223901952E-05,1.18535008368781E-05,3.515625,0,0
-2.32246711675543E-05,1.57744725584053E-05,3.515625,0,0
-2.07330122066196E-05,1.01753767012269E-05,3.515625,0,0
-2.65005946857855E-05,1.35519385366933E-05,3.515625,0,0
-2.37796029978199E-05,1.16360342872213E-05,3.515625,0,0
-2.50670327659464E-05,1.25645201478619E-05,3.515625,0,0
-2.44972525251796E-05,1.10844266600907E-05,3.515625,0,0
-2.6423689632793E-05,1.26751501738909E-05,3.515625,0,0
-2.61078912444646E-05,1.27056018754956E-05,3.515625,0,0
-2.60784945567138E-05,1.18412845040439E-05,3.515625,0,0
-2.48551004915498E-05,1.25131537060952E-05,3.515625,0,0
-2.22424296225654E-05,1.37277147587156E-05,3.515625,0,0
-2.14914416574175E-05,1.41785149025964E-05,3.515625,0,0
-2.09603022085503E-05,1.18064481284819E-05,3.515625,0,0
-2.25389449042268E-05,1.12118950710283E-05,3.515625,0,0
-2.19393059524009E-05,1.12194829853252E-05,3.515625,0,0
-2.20884976442903E-05,1.27563962450949E-05,3.515625,0,0
-2.11395890801214E-05,1.22651090350701E-05,3.515625,0,0
-2.26559586735675E-05,1.25432079585153E-05,3.515625,0,0
-2.31238045671489E-05,1.18488333100686E-05,3.515625,0,0
-2.41136876866221E-05,1.3354198927118E-05,3.515625,0,0
-2.33138071052963E-05,1.64097327797208E-05,3.515625,0,0
-2.40816425502999E-05,1.95941374840913E-05,3.515625,0,0
-2.44510774791706E-05,1.88688773050671E-05,3.515625,0,0
-2.56534367508721E-05,1.55341931531439E-05,3.515625,0,0
-2.70833952527028E-05,1.27917046484072E-05,3.515625,0,0
-2.66562929027714E-05,1.31442366182455E-05,3.515625,0,0
-2.02744486159645E-05,1.06285906440462E-05,3.515625,0,0
-2.83195004158188E-05,1.28487517940812E-05,3.515625,0,0
-2.08210858545499E-05,6.24499898549402E-06,3.515625,0,0
-2.58356267295312E-05,9.95933987724129E-06,3.515625,0,0
-2.13927796721691E-05,1.05176241049776E-05,3.515625,0,0
-2.45544979406986E-05,1.31711731228279E-05,3.515625,0,0
-2.25056555791525E-05,1.14931199277635E-05,3.515625,0,0
-2.46035870077321E-05,1.0956006917695E-05,3.515625,0,0
-2.43977774516679E-05,9.73182977759279E-06,3.515625,0,0
-2.40066547121387E-05,1.02515841717832E-05,3.515625,0,0
-2.41285997617524E-05,1.16167857413529E-05,3.515625,0,0
-2.25111507461406E-05,1.23417958093341E-05,3.515625,0,0
-2.24152590817539E-05,1.43036149893305E-05,3.515625,0,0
-2.21061181946425E-05,1.50589357872377E-05,3.515625,0,0
-2.54545229836367E-05,1.59172104758909E-05,3.515625,0,0
-2.63704987446545E-05,1.39796893563471E-05,3.515625,0,0
-2.84737197944196E-05,1.23861318570562E-05,3.515625,0,0
-2.68482326646335E-05,9.80589265964227E-06,3.515625,0,0
-2.60907054325799E-05,9.03576165001141E-06,3.515625,0,0
-2.36819432757329E-05,8.74883517099079E-06,3.515625,0,0
-2.31084413826466E-05,1.04434375316487E-05,3.515625,0,0
-2.12240138353081E-05,1.20534596135258E-05,3.515625,0,0
-2.04933730856283E-05,1.42288981805905E-05,3.515625,0,0
-1.9516106476658E-05,1.40513302540057E-05,3.515625,0,0
-1.95816392078996E-05,1.22190085676266E-05,3.515625,0,0
-1.84731088666013E-05,1.08728354462073E-05,3.515625,0,0
-1.79595626832452E-05,1.03178554127226E-05,3.515625,0,0
-1.64977336680749E-05,6.40885218672338E-06,3.515625,0,0
-2.45736955548637E-05,6.32465480521205E-06,3.515625,0,0
-1.87038513104199E-05,2.42558144236682E-06,3.515625,0,0
-2.24591640289873E-05,6.78608193993568E-06,3.515625,0,0
-2.17220731428824E-05,7.95739742898149E-06,3.515625,0,0
-2.53800499194767E-05,1.04663777165115E-05,3.515625,0,0
-2.40632671193453E-05,9.73230180534301E-06,3.515625,0,0
-2.54197475442197E-05,9.63235379458638E-06,3.515625,0,0
-2.52654062933289E-05,8.3904669736512E-06,3.515625,0,0
-2.4804508939269E-05,6.70943882141728E-06,3.515625,0,0
-2.44282182393363E-05,5.25269069839851E-06,3.515625,0,0
-2.37096901400946E-05,3.88910939363996E-06,3.515625,0,0
-2.46645740844542E-05,3.70104226021795E-06,3.515625,0,0
-2.43466511165025E-05,4.17629144067178E-06,3.515625,0,0
-2.54535043495707E-05,6.38175743006286E-06,3.515625,0,0
-2.47968291660072E-05,6.98782969266176E-06,3.515625,0,0
-2.53206289926311E-05,7.21365040590172E-06,3.515625,0,0
-2.47038296947721E-05,6.07348420089693E-06,3.515625,0,0
-2.65451872110134E-05,5.43653368367814E-06,3.515625,0,0
-2.68425337708322E-05,3.73871853298624E-06,3.515625,0,0
-2.77035251201596E-05,2.0658487756009E-06,3.515625,0,0
-2.69015108642634E-05,8.55063788662846E-08,3.515625,0,0
-2.58316922554513E-05,-2.79855981943911E-07,3.515625,0,0
-2.45915889536263E-05,2.33085734180349E-06,3.515625,0,0
-2.48915148404194E-05,9.5886589406291E-06,3.515625,0,0
-2.50172270170879E-05,1.70772673300235E-05,3.515625,0,0
-2.54165206570178E-05,1.89417842193507E-05,3.515625,0,0
-2.164410034311E-05,8.96439178177388E-06,3.515625,0,0
-3.02444095723331E-05,7.6697688200511E-06,3.515625,0,0
-2.12954018934397E-05,2.26028237193532E-06,3.515625,0,0
-2.46919935307233E-05,9.22185699891998E-06,3.515625,0,0
-1.92825209524017E-05,9.41178677749122E-06,3.515625,0,0
-2.44352540903492E-05,1.1617926247709E-05,3.515625,0,0
-2.58845157077303E-05,9.94039328361396E-06,3.515625,0,0
-2.92651820927858E-05,1.13667083496694E-05,3.515625,0,0
-2.93949051410891E-05,1.11033104985836E-05,3.515625,0,0
-2.96882190014003E-05,1.18722655315651E-05,3.515625,0,0
-2.82657256320817E-05,1.38865334520233E-05,3.515625,0,0
-2.49852892011404E-05,1.63665463333018E-05,3.515625,0,0
-2.34021117648808E-05,2.0573659639922E-05,3.515625,0,0
-2.09113841265207E-05,2.30306595767615E-05,3.515625,0,0
-2.11893329833401E-05,2.33603241213132E-05,3.515625,0,0
-1.95096235984238E-05,1.92620154848555E-05,3.515625,0,0
-2.14278625207953E-05,1.64226712513482E-05,3.515625,0,0
-2.15247473533964E-05,1.44134310176014E-05,3.515625,0,0
-2.27890614041826E-05,1.80645911314059E-05,3.515625,0,0
-2.07666544156382E-05,2.42467976931948E-05,3.515625,0,0
-1.98013494809857E-05,2.91879005089868E-05,3.515625,0,0
-1.74616088770563E-05,2.52551362791564E-05,3.515625,0,0
-1.67076359502971E-05,1.63009844982298E-05,3.515625,0,0
-1.48933031596243E-05,7.04303511156468E-06,3.515625,0,0
-1.50312689584098E-05,1.41179054935492E-06,3.515625,0,0
-1.57955400936771E-05,2.99984126428399E-09,3.515625,0,0
-1.5423980585183E-05,3.24611528412788E-06,3.515625,0,0
-1.17474082799163E-05,6.69166183797643E-06,3.515625,0,0
-1.75247969309567E-05,9.85358838079264E-06,3.515625,0,0
-1.58283455675701E-05,6.68568691253313E-06,3.515625,0,0
-2.11435435630847E-05,6.87114834363456E-06,3.515625,0,0
-2.08608689717948E-05,5.43301075595082E-06,3.515625,0,0
-2.38863758568186E-05,7.42710608392372E-06,3.515625,0,0
-2.34013205044903E-05,9.26938537304522E-06,3.515625,0,0
-2.40567715081852E-05,1.06101269921055E-05,3.515625,0,0
-2.32689872063929E-05,1.01345440270961E-05,3.515625,0,0
-2.28357330342988E-05,9.7646634458215E-06,3.515625,0,0
-2.26239262701711E-05,9.56374879024224E-06,3.515625,0,0
-2.19387802644633E-05,8.93648939381819E-06,3.515625,0,0
-2.23352708417224E-05,8.81671985553112E-06,3.515625,0,0
-2.19230059883557E-05,8.44517126097344E-06,3.515625,0,0
-2.31677022384247E-05,9.05224806047045E-06,3.515625,0,0
-2.36795694945613E-05,8.01411442807876E-06,3.515625,0,0
-2.53060661634663E-05,6.43331441096962E-06,3.515625,0,0
-2.52502541115973E-05,5.3802423281013E-06,3.515625,0,0
-2.54327624134021E-05,7.61753835831769E-06,3.515625,0,0
-2.45796218223404E-05,9.6310322987847E-06,3.515625,0,0
-2.62515914073447E-05,1.00171437225072E-05,3.515625,0,0
-2.8103348086006E-05,9.33896990318317E-06,3.515625,0,0
-3.02259613818023E-05,9.83374866336817E-06,3.515625,0,0
-3.11064613924827E-05,9.78467778622871E-06,3.515625,0,0
-3.12716147163883E-05,8.3561481005745E-06,3.515625,0,0
-2.94915225822479E-05,6.52932931188843E-06,3.515625,0,0
-2.70185228146147E-05,5.64924039281323E-06,3.515625,0,0
-1.98562793229939E-05,6.13390602666186E-06,3.515625,0,0
-2.78816678473959E-05,1.0277833098371E-05,3.515625,0,0
-2.09368608921068E-05,9.69586471910588E-06,3.515625,0,0
-2.67423074546969E-05,1.26388367789332E-05,3.515625,0,0
-2.37149088206934E-05,1.32933801069157E-05,3.515625,0,0
-2.75397615041584E-05,1.34286701722885E-05,3.515625,0,0
-2.5915120204445E-05,1.02444810181623E-05,3.515625,0,0
-2.68609546765219E-05,8.13305177871371E-06,3.515625,0,0
-2.4291319277836E-05,8.13885162642691E-06,3.515625,0,0
-2.30527894018451E-05,8.55947564559756E-06,3.515625,0,0
-2.33891551033594E-05,8.69055384100648E-06,3.515625,0,0
-2.35760944633512E-05,8.89874263521051E-06,3.515625,0,0
-2.43155191128608E-05,9.56185704126256E-06,3.515625,0,0
-2.29102552111726E-05,9.7613301477395E-06,3.515625,0,0
-2.41497418755898E-05,9.86050145002082E-06,3.515625,0,0
-2.35431580222212E-05,8.82877338881372E-06,3.515625,0,0
-2.52245827141451E-05,8.6340851339628E-06,3.515625,0,0
-2.50271659751888E-05,9.24883261177456E-06,3.515625,0,0
-2.67866744252387E-05,1.11704621303943E-05,3.515625,0,0
-2.59139287663857E-05,1.1766167517635E-05,3.515625,0,0
-2.53846446867101E-05,1.10335749923252E-05,3.515625,0,0
-2.28498520300491E-05,8.39151834952645E-06,3.515625,0,0
-2.2887958039064E-05,6.36142931398354E-06,3.515625,0,0
-2.35274819715414E-05,5.76885122427484E-06,3.515625,0,0
-2.50233642873354E-05,5.06522610521642E-06,3.515625,0,0
-2.48424512392376E-05,5.7012694014702E-06,3.515625,0,0
-2.42008536588401E-05,8.83202847035136E-06,3.515625,0,0
-1.94832027773373E-05,9.65703111432958E-06,3.515625,0,0
-2.71315966529073E-05,1.38788454933092E-05,3.515625,0,0
-1.98368306882912E-05,1.11626723082736E-05,3.515625,0,0
-2.52475001616403E-05,1.45505000546109E-05,3.515625,0,0
-2.15659474633867E-05,1.25692513393005E-05,3.515625,0,0
-2.38407592405565E-05,1.20034619612852E-05,3.515625,0,0
-2.22416656470159E-05,8.94505683390889E-06,3.515625,0,0
-2.45390565396519E-05,9.53172093431931E-06,3.515625,0,0
-2.37973490584409E-05,1.02931589935906E-05,3.515625,0,0
-2.25418734771665E-05,1.21892453535111E-05,3.515625,0,0
-2.24837840505643E-05,1.61087573360419E-05,3.515625,0,0
-2.28683056775481E-05,2.18416535062715E-05,3.515625,0,0
-2.49202385020908E-05,2.94346264126943E-05,3.515625,0,0
-2.48510023084236E-05,3.49649671989027E-05,3.515625,0,0
-2.65064772975165E-05,3.72836802853271E-05,3.515625,0,0
-2.55278882832499E-05,3.42588464263827E-05,3.515625,0,0
-2.60423366853502E-05,3.0187646189006E-05,3.515625,0,0
-2.40469853451941E-05,2.30317218665732E-05,3.515625,0,0
-2.40947938436875E-05,1.47054151966586E-05,3.515625,0,0
-2.30591831495985E-05,4.40335088569555E-06,3.515625,0,0
-2.34329691011226E-05,-4.61412446384202E-06,3.515625,0,0
-2.18393379327608E-05,-1.24335992950364E-05,3.515625,0,0
-2.14540195884183E-05,-1.69633531186264E-05,3.515625,0,0
-2.06455824809382E-05,-1.90652226592647E-05,3.515625,0,0
-2.02265073312446E-05,-2.27002237807028E-05,3.515625,0,0
-1.97471563296858E-05,-3.10369832732249E-05,3.515625,0,0
-2.09976569749415E-05,-3.52823008142877E-05,3.515625,0,0
-2.00299964490114E-05,-1.7569833289599E-05,3.515625,0,0
-3.02698026644066E-05,-9.11596634978196E-06,3.515625,0,0
-2.36127343669068E-05,1.43084753290168E-05,3.515625,0,0
-2.57464253081707E-05,1.1570000424399E-05,3.515625,0,0
-2.04269344976638E-05,1.79603794094874E-05,3.515625,0,0
-2.3290871467907E-05,1.49846309795976E-05,3.515625,0,0
-2.19470621232176E-05,2.03027575480519E-05,3.515625,0,0
-2.32408492593095E-05,1.92687857634155E-05,3.515625,0,0
-2.25866206164937E-05,1.91593935596757E-05,3.515625,0,0
-2.24000814341707E-05,1.84822911251104E-05,3.515625,0,0
-2.24655686906772E-05,1.92503357538953E-05,3.515625,0,0
-2.24493433051975E-05,2.12694158108206E-05,3.515625,0,0
-2.47889202000806E-05,2.04266980290413E-05,3.515625,0,0
-2.44194561673794E-05,2.07485791179352E-05,3.515625,0,0
-2.44123166339705E-05,1.82097737706499E-05,3.515625,0,0
-2.27206546696834E-05,1.8849021216738E-05,3.515625,0,0
-2.44239599851426E-05,1.65927413036115E-05,3.515625,0,0
-2.54963724728441E-05,1.63589902513195E-05,3.515625,0,0
-2.87015609501395E-05,1.32935929286759E-05,3.515625,0,0
-2.89995132334298E-05,1.40909369292785E-05,3.515625,0,0
-2.96186517516617E-05,1.47993005157332E-05,3.515625,0,0
-2.8512193239294E-05,1.78205264091957E-05,3.515625,0,0
-2.73598889179993E-05,1.85620247066254E-05,3.515625,0,0
-2.48740343522513E-05,2.07539978873683E-05,3.515625,0,0
-2.3873224563431E-05,2.1269710487104E-05,3.515625,0,0
-2.43627328018192E-05,2.15201216633432E-05,3.515625,0,0
-2.53240850724978E-05,2.03196268557804E-05,3.515625,0,0
-2.04299976758193E-05,1.33695593831362E-05,3.515625,0,0
-2.94144119834527E-05,1.55850248120259E-05,3.515625,0,0
-2.3208902348415E-05,5.60710668651154E-06,3.515625,0,0
-2.92211389023578E-05,7.58638861952932E-06,3.515625,0,0
-2.601842788863E-05,4.27890881837811E-06,3.515625,0,0
-2.8666219805018E-05,7.49957553125569E-06,3.515625,0,0
-2.45888659264892E-05,8.63558489072602E-06,3.515625,0,0
-2.42471305682557E-05,1.46242655318929E-05,3.515625,0,0
-2.32398069783812E-05,1.82186704478227E-05,3.515625,0,0
-2.29987235798035E-05,2.1111307432875E-05,3.515625,0,0
-2.13982875720831E-05,2.18636596400756E-05,3.515625,0,0
-1.8334145352128E-05,1.86922206921736E-05,3.515625,0,0
-1.84810196515173E-05,1.56261230586097E-05,3.515625,0,0
-1.91317285498371E-05,1.15985894808546E-05,3.515625,0,0
-2.23735041799955E-05,9.55934592639096E-06,3.515625,0,0
-2.22718535951572E-05,6.41402175460826E-06,3.515625,0,0
-2.43072190642124E-05,6.51555092190392E-06,3.515625,0,0
-2.48749238380697E-05,7.29477960703662E-06,3.515625,0,0
-2.7319085347699E-05,1.0003469469666E-05,3.515625,0,0
-2.7421252525528E-05,8.9992818175233E-06,3.515625,0,0
-2.79961295746034E-05,7.44901944926823E-06,3.515625,0,0
-2.49901531788055E-05,7.5453681347426E-06,3.515625,0,0
-2.07868379220599E-05,1.29804184325621E-05,3.515625,0,0
-1.54731278598774E-05,1.81555606104666E-05,3.515625,0,0
-1.42573017001268E-05,1.94134590856265E-05,3.515625,0,0
-1.59003739099717E-05,1.53434502863092E-05,3.515625,0,0
-1.8618975445861E-05,1.02684552985011E-05,3.515625,0,0
-1.67657271958888E-05,4.23418941863929E-06,3.515625,0,0
-2.35191055253381E-05,4.93666721013142E-06,3.515625,0,0
-1.87921923497925E-05,2.03997274184076E-06,3.515625,0,0
-2.54705228144303E-05,2.00764202418213E-06,3.515625,0,0
-2.29160650633276E-05,1.96343899006024E-06,3.515625,0,0
-2.59587322943844E-05,5.34285754838493E-06,3.515625,0,0
-2.5461438781349E-05,6.93679385221913E-06,3.515625,0,0
-2.66838178504258E-05,9.3392945927917E-06,3.515625,0,0
-2.63482052105246E-05,1.18159769044723E-05,3.515625,0,0
-2.64455520664342E-05,1.67550133483019E-05,3.515625,0,0
-2.64791269728448E-05,2.31847043323796E-05,3.515625,0,0
-2.53586986218579E-05,2.61684435827192E-05,3.515625,0,0
-2.52833488048054E-05,2.36499290622305E-05,3.515625,0,0
-2.34058388741687E-05,1.90607970580459E-05,3.515625,0,0
-2.27756299864268E-05,1.69470222317614E-05,3.515625,0,0
-1.99033856915776E-05,1.63253880600678E-05,3.515625,0,0
-1.9823906768579E-05,1.75172990566352E-05,3.515625,0,0
-1.9697565221577E-05,1.93326250155224E-05,3.515625,0,0
-2.15020518226083E-05,2.1834628569195E-05,3.515625,0,0
-2.13072908081813E-05,2.1453950466821E-05,3.515625,0,0
-2.16925800486933E-05,1.82159928954206E-05,3.515625,0,0
-2.02124665520387E-05,1.32654840854229E-05,3.515625,0,0
-2.00127324205823E-05,9.81892662821338E-06,3.515625,0,0
-2.10611051443266E-05,8.53803248901386E-06,3.515625,0,0
-2.40197296079714E-05,8.98495909495978E-06,3.515625,0,0
-2.64410937234061E-05,9.80492586677428E-06,3.515625,0,0
-2.78883835562738E-05,1.05668814285309E-05,3.515625,0,0
-2.24545819946798E-05,8.57344275573269E-06,3.515625,0,0
-3.04932673316216E-05,1.33795147121418E-05,3.515625,0,0
-2.13407165574608E-05,1.26496988741565E-05,3.515625,0,0
-2.66032639046898E-05,1.41563004945056E-05,3.515625,0,0
-2.16882490349235E-05,9.59171120484825E-06,3.515625,0,0
-2.63458405243E-05,9.52701611822704E-06,3.515625,0,0
-2.533011684136E-05,8.56427868711762E-06,3.515625,0,0
-2.61422865150962E-05,1.02153244370129E-05,3.515625,0,0
-2.30634959734743E-05,1.11419240056421E-05,3.515625,0,0
-2.16850457945839E-05,1.17349609354278E-05,3.515625,0,0
-2.15792479139054E-05,1.22956353152404E-05,3.515625,0,0
-2.12968898267718E-05,1.21767943710438E-05,3.515625,0,0
-2.28567860176554E-05,1.16959035949549E-05,3.515625,0,0
-2.23710922000464E-05,9.49585410126019E-06,3.515625,0,0
-2.44334150920622E-05,8.16601459519006E-06,3.515625,0,0
-2.33545069932006E-05,6.48001014269539E-06,3.515625,0,0
-2.48521846515359E-05,6.50031415716512E-06,3.515625,0,0
-2.39522378251422E-05,5.84122744839988E-06,3.515625,0,0
-2.44633502006764E-05,6.18064950685948E-06,3.515625,0,0
-2.19536814256571E-05,5.64437368666404E-06,3.515625,0,0
-2.15822237805696E-05,6.01427927904297E-06,3.515625,0,0
-2.02017436095048E-05,7.1678559834254E-06,3.515625,0,0
-2.08889850910055E-05,9.28241752262693E-06,3.515625,0,0
-2.16531170735834E-05,9.52246500673937E-06,3.515625,0,0
-2.30783480219543E-05,8.31966099212877E-06,3.515625,0,0
-2.32442307606107E-05,6.91418063070159E-06,3.515625,0,0
-2.27533328143181E-05,6.68556094751693E-06,3.515625,0,0
-1.7726501027937E-05,5.86938631386147E-06,3.515625,0,0
-2.47351763391634E-05,8.70038002176443E-06,3.515625,0,0
-1.86276101885596E-05,7.05631282471586E-06,3.515625,0,0
-2.41197612922406E-05,8.03151760919718E-06,3.515625,0,0
-2.13586772588314E-05,6.6770539888239E-06,3.515625,0,0
-2.45099272433436E-05,8.49335810926277E-06,3.515625,0,0
-2.34561521210708E-05,8.63533477968303E-06,3.515625,0,0
-2.47255975409644E-05,9.3808457677369E-06,3.515625,0,0
-2.40117988141719E-05,1.01778514363104E-05,3.515625,0,0
-2.37361855397467E-05,1.25488213598146E-05,3.515625,0,0
-2.42336136579979E-05,1.56847363541601E-05,3.515625,0,0
-2.48281048698118E-05,1.56532405526377E-05,3.515625,0,0
-2.62878802459454E-05,1.40178544825176E-05,3.515625,0,0
-2.45049959630705E-05,1.19420201372122E-05,3.515625,0,0
-2.39824275922729E-05,1.11163608380593E-05,3.515625,0,0
-2.18268705793889E-05,9.20190268516308E-06,3.515625,0,0
-2.22528651647735E-05,6.76349554851186E-06,3.515625,0,0
-2.23295010073343E-05,3.98378006138955E-06,3.515625,0,0
-2.52907339017838E-05,4.12678036809666E-06,3.515625,0,0
-2.55681825365173E-05,5.66532207812998E-06,3.515625,0,0
-2.59740299952682E-05,7.03191153661464E-06,3.515625,0,0
-2.58306463365443E-05,7.39551114747883E-06,3.515625,0,0
-2.62335379375145E-05,7.89133173384471E-06,3.515625,0,0
-2.54687802225817E-05,8.09875291452045E-06,3.515625,0,0
-2.53213820542442E-05,9.53474864218151E-06,3.515625,0,0
-2.49443182838149E-05,1.18167454274953E-05,3.515625,0,0
-2.50185312324902E-05,1.25846017908771E-05,3.515625,0,0
-1.97482095245505E-05,9.65463641477982E-06,3.515625,0,0
-2.67377763520926E-05,1.42789067467675E-05,3.515625,0,0
-1.98636789718876E-05,1.31190881802468E-05,3.515625,0,0
-2.62879348156275E-05,1.74492906808155E-05,3.515625,0,0
-2.19820976781193E-05,1.52141028593178E-05,3.515625,0,0
-2.51204965024954E-05,1.6081721696537E-05,3.515625,0,0
-2.46161762333941E-05,1.35630680233589E-05,3.515625,0,0
-2.74695648840861E-05,1.17439376481343E-05,3.515625,0,0
-2.66033621301176E-05,9.65073832048802E-06,3.515625,0,0
-2.6056124625029E-05,8.5529281932395E-06,3.515625,0,0
-2.57777919614455E-05,7.96748281572945E-06,3.515625,0,0
-2.38465527218068E-05,8.04199771664571E-06,3.515625,0,0
-2.3694114133832E-05,9.4874949354562E-06,3.515625,0,0
-2.191957719333E-05,9.93025514617329E-06,3.515625,0,0
-2.24438936129445E-05,1.01140249171294E-05,3.515625,0,0
-2.14409901673207E-05,7.65687582315877E-06,3.515625,0,0
-2.36771593336016E-05,5.85131374464254E-06,3.515625,0,0
-2.3813387088012E-05,3.39722691933275E-06,3.515625,0,0
-2.53012858593138E-05,3.29644603880297E-06,3.515625,0,0
-2.43187696469249E-05,3.60148465006205E-06,3.515625,0,0
-2.47196676355088E-05,4.80305698147276E-06,3.515625,0,0
-2.40008303080685E-05,5.68988753002486E-06,3.515625,0,0
-2.44474504143E-05,7.30724923414527E-06,3.515625,0,0
-2.41402140090941E-05,8.37557126942556E-06,3.515625,0,0
-2.44772199948784E-05,9.90257194644073E-06,3.515625,0,0
-2.44145467149792E-05,1.05444596556481E-05,3.515625,0,0
-2.43813574343221E-05,1.05767439890769E-05,3.515625,0,0
-1.89412749023177E-05,1.10468317870982E-05,3.515625,0,0
-2.66198421741137E-05,1.94679487321991E-05,3.515625,0,0
-2.11461265280377E-05,1.96542387129739E-05,3.515625,0,0
-2.76859191217227E-05,2.22782527998788E-05,3.515625,0,0
-2.3122745915316E-05,1.81118175532902E-05,3.515625,0,0
-2.3905236957944E-05,1.51114090840565E-05,3.515625,0,0
-2.06886907108128E-05,1.00578463388956E-05,3.515625,0,0
-2.1450479835039E-05,7.78212233853992E-06,3.515625,0,0
-2.14157062146114E-05,7.28627765056444E-06,3.515625,0,0
-2.22364415094489E-05,8.92062143975636E-06,3.515625,0,0
-2.30592140724184E-05,1.09185330074979E-05,3.515625,0,0
-2.25846451940015E-05,1.21502216643421E-05,3.515625,0,0
-2.26274969463702E-05,1.39958938234486E-05,3.515625,0,0
-2.13096282095648E-05,1.53550827235449E-05,3.515625,0,0
-2.22353864955949E-05,1.74358865479007E-05,3.515625,0,0
-2.03924282686785E-05,1.67791167768883E-05,3.515625,0,0
-2.06728000193834E-05,1.59016581164906E-05,3.515625,0,0
-1.98997386178235E-05,1.48269327837625E-05,3.515625,0,0
-2.1559359083767E-05,1.52619722939562E-05,3.515625,0,0
-2.11715178011218E-05,1.3856681107427E-05,3.515625,0,0
-2.17552988033276E-05,1.2233813322382E-05,3.515625,0,0
-2.13213443203131E-05,1.28774518088903E-05,3.515625,0,0
-2.17815741052618E-05,1.94462118088268E-05,3.515625,0,0
-2.09569461731007E-05,2.80228541669203E-05,3.515625,0,0
-2.26827123697149E-05,3.58846045855898E-05,3.515625,0,0
-2.52412337431451E-05,4.18385243392549E-05,3.515625,0,0
-2.65811759163626E-05,4.4285388867138E-05,3.515625,0,0
-2.19223020394566E-05,3.34228461724706E-05,3.515625,0,0
-3.08899179799482E-05,4.14924797951244E-05,3.515625,0,0
-2.31142639677273E-05,2.00324448087486E-05,3.515625,0,0
-2.93623579636915E-05,1.97785320779076E-05,3.515625,0,0
-2.4868137188605E-05,1.49771187807346E-06,3.515625,0,0
-2.69644497166155E-05,-4.5107976802683E-06,3.515625,0,0
-2.4351336833206E-05,-1.63425720529631E-05,3.515625,0,0
-2.56663679465419E-05,-1.65024393936619E-05,3.515625,0,0
-2.50007342401659E-05,-1.96051805687603E-05,3.515625,0,0
-2.55608047154965E-05,-2.53289235843113E-05,3.515625,0,0
-2.69142747129081E-05,-3.30799230141565E-05,3.515625,0,0
-2.71960689133266E-05,-3.57448479917366E-05,3.515625,0,0
-2.84649504465051E-05,-2.66077531705378E-05,3.515625,0,0
-2.69407501036767E-05,-1.81470713869203E-05,3.515625,0,0
-2.65751350525534E-05,-8.80898915056605E-06,3.515625,0,0
-2.22227135964204E-05,-5.16373893333366E-06,3.515625,0,0
-1.9045066437684E-05,2.98748045679531E-06,3.515625,0,0
-1.42140088428278E-05,7.35854382583057E-06,3.515625,0,0
-1.38015211632592E-05,1.41637447086396E-05,3.515625,0,0
-1.28306573969894E-05,1.40664569698856E-05,3.515625,0,0
-1.43022671181825E-05,1.34862184495432E-05,3.515625,0,0
-1.58506954903714E-05,1.03130823845277E-05,3.515625,0,0
-1.9831366444123E-05,1.166572656075E-05,3.515625,0,0
-2.31425765377935E-05,1.21808361654985E-05,3.515625,0,0
-2.51652327278862E-05,1.2136946679675E-05,3.515625,0,0
-2.44966449827189E-05,1.24088010124979E-05,3.515625,0,0
-2.28288699872792E-05,1.45932690429618E-05,3.515625,0,0
-1.97705448954366E-05,1.26022105177981E-05,3.515625,0,0
-2.89479794446379E-05,1.77262700162828E-05,3.515625,0,0
-2.09845075005433E-05,1.60492163558956E-05,3.515625,0,0
-2.26846314035356E-05,2.45304399868473E-05,3.515625,0,0
-1.73427652043756E-05,2.41213201661594E-05,3.515625,0,0
-2.04860825760989E-05,2.17293745663483E-05,3.515625,0,0
-2.07058074011002E-05,1.44797095344984E-05,3.515625,0,0
-2.33316750382073E-05,1.10227510958794E-05,3.515625,0,0
-2.30237546929857E-05,8.97181598702446E-06,3.515625,0,0
-2.28877706831554E-05,7.17309376341291E-06,3.515625,0,0
-2.4289480279549E-05,5.81481572226039E-06,3.515625,0,0
-2.56573111983016E-05,5.93953154748306E-06,3.515625,0,0
-2.77655544778099E-05,8.82474978425307E-06,3.515625,0,0
-2.73510231636465E-05,1.05083272501361E-05,3.515625,0,0
-2.89289819193073E-05,1.3367205610848E-05,3.515625,0,0
-2.82671480817953E-05,1.47950295286137E-05,3.515625,0,0
-2.84512752841692E-05,1.65013916557655E-05,3.515625,0,0
-2.64492446149234E-05,1.6175108612515E-05,3.515625,0,0
-2.7071519070887E-05,1.64220764418133E-05,3.515625,0,0
-2.67462728515966E-05,1.52216789501836E-05,3.515625,0,0
-2.77112958428916E-05,1.48297249324969E-05,3.515625,0,0
-2.65982671407983E-05,1.32325722006499E-05,3.515625,0,0
-2.59646658378188E-05,1.34469701151829E-05,3.515625,0,0
-2.53733669524081E-05,1.44000641739694E-05,3.515625,0,0
-2.50145385507494E-05,1.51723488670541E-05,3.515625,0,0
-2.39867076743394E-05,1.45357580549899E-05,3.515625,0,0
-2.42668957071146E-05,1.32837367345928E-05,3.515625,0,0
-1.92052775673801E-05,1.03570846476941E-05,3.515625,0,0
-2.58309391938383E-05,1.44346849992871E-05,3.515625,0,0
-1.781828723324E-05,1.07097757791053E-05,3.515625,0,0
-2.30313562497031E-05,1.60070758283837E-05,3.515625,0,0
-1.87965088116471E-05,2.08623187063495E-05,3.515625,0,0
-2.09923728107242E-05,2.85241312667495E-05,3.515625,0,0
-1.99168316612486E-05,2.70622313109925E-05,3.515625,0,0
-2.4410448531853E-05,2.20572837861255E-05,3.515625,0,0
-2.64822865574388E-05,1.66894096764736E-05,3.515625,0,0
-2.62584962911205E-05,1.54862045746995E-05,3.515625,0,0
-2.44371822191169E-05,1.64600169227924E-05,3.515625,0,0
-2.20818892557872E-05,1.50471041706624E-05,3.515625,0,0
-2.36293872148963E-05,1.23583149616024E-05,3.515625,0,0
-2.43747690547025E-05,9.66523475653958E-06,3.515625,0,0
-2.60826946032466E-05,9.51012862060452E-06,3.515625,0,0
-2.43971371673979E-05,9.4355282271863E-06,3.515625,0,0
-2.47728403337533E-05,1.16901428555138E-05,3.515625,0,0
-2.38756474573165E-05,1.6301264622598E-05,3.515625,0,0
-2.52735353569733E-05,2.81744105450343E-05,3.515625,0,0
-2.53660273301648E-05,4.00909084419254E-05,3.515625,0,0
-2.67264331341721E-05,4.52097883680835E-05,3.515625,0,0
-2.63246292888653E-05,4.22167795477435E-05,3.515625,0,0
-2.7132649847772E-05,3.50688133039512E-05,3.515625,0,0
-2.66269780695438E-05,2.37390249822056E-05,3.515625,0,0
-2.66580009338213E-05,1.19429259939352E-05,3.515625,0,0
-2.62555713561596E-05,-1.02188096207101E-06,3.515625,0,0
-2.56376424658811E-05,-1.39938783831894E-05,3.515625,0,0
-2.01527509489097E-05,-1.96828950720374E-05,3.515625,0,0
-2.71909793809755E-05,-3.17965714202728E-05,3.515625,0,0
-1.78331356437411E-05,-2.64267582679167E-05,3.515625,0,0
-2.15976942854468E-05,-2.82958899333607E-05,3.515625,0,0
-1.72715263033751E-05,-2.23890056076925E-05,3.515625,0,0
-2.11075202969369E-05,-2.32943657465512E-05,3.515625,0,0
-2.03272629732965E-05,-1.79826038220199E-05,3.515625,0,0
-2.21846130443737E-05,-1.04532546174596E-05,3.515625,0,0
-2.17208253161516E-05,2.52070640271995E-06,3.515625,0,0
-2.17872693610843E-05,1.48491881191148E-05,3.515625,0,0
-2.1233776351437E-05,2.35654479183722E-05,3.515625,0,0
-2.09375102713238E-05,2.65652870439226E-05,3.515625,0,0
-2.36047653743299E-05,2.1412941350718E-05,3.515625,0,0
-2.4816805307637E-05,1.56882633746136E-05,3.515625,0,0
-2.72659872280201E-05,1.05055423773592E-05,3.515625,0,0
-2.63324509433005E-05,9.34742820390966E-06,3.515625,0,0
-2.69210067926906E-05,6.57898863209994E-06,3.515625,0,0
-2.46419676841469E-05,4.82171435578493E-06,3.515625,0,0
-2.40731042140396E-05,2.26165002459311E-06,3.515625,0,0
-2.22199651034316E-05,4.69413726023049E-06,3.515625,0,0
-2.27402269956656E-05,7.88925444794586E-06,3.515625,0,0
-2.14756837522145E-05,1.14320082502672E-05,3.515625,0,0
-2.07525572477607E-05,1.30550142785069E-05,3.515625,0,0
-2.00991962628905E-05,1.41049313242547E-05,3.515625,0,0
-2.26185147766955E-05,1.27786215671222E-05,3.515625,0,0
-2.47491243499098E-05,1.08185286080698E-05,3.515625,0,0
-2.4874172595446E-05,1.01152763818391E-05,3.515625,0,0
-1.90694991033524E-05,8.36680010252167E-06,3.515625,0,0
-2.72160814347444E-05,1.11513527372153E-05,3.515625,0,0
-2.21110458369367E-05,7.23017728887498E-06,3.515625,0,0
-2.85827663901728E-05,1.11052686406765E-05,3.515625,0,0
-2.43983886321075E-05,1.24205607789918E-05,3.515625,0,0
-2.61747354670661E-05,1.60944182425737E-05,3.515625,0,0
-2.34349899983499E-05,1.53513392433524E-05,3.515625,0,0
-2.44168513745535E-05,1.51015228766482E-05,3.515625,0,0
-2.32849197345786E-05,1.38047234941041E-05,3.515625,0,0
-2.23215738515137E-05,1.35875925479922E-05,3.515625,0,0
-2.24920077016577E-05,1.38581563078333E-05,3.515625,0,0
-2.25408784899628E-05,1.50833766383585E-05,3.515625,0,0
-2.3481106836698E-05,1.74477809196105E-05,3.515625,0,0
-2.21554637391819E-05,1.72916934388923E-05,3.515625,0,0
-2.38433258346049E-05,1.63627646543318E-05,3.515625,0,0
-2.35293664445635E-05,1.34069177875062E-05,3.515625,0,0
-2.36743471759837E-05,1.06275474536233E-05,3.515625,0,0
-2.13494458876085E-05,6.85598206473514E-06,3.515625,0,0
-2.20281126530608E-05,5.83093924433342E-06,3.515625,0,0
-2.25557614612626E-05,7.10761969457963E-06,3.515625,0,0
-2.60200904449448E-05,1.11861081677489E-05,3.515625,0,0
-2.82170221908018E-05,1.50546984514222E-05,3.515625,0,0
-2.92454096779693E-05,1.80693295988021E-05,3.515625,0,0
-2.73871537501691E-05,1.85317403520457E-05,3.515625,0,0
-2.53086691373028E-05,1.85367207450327E-05,3.515625,0,0
-2.31983703997685E-05,1.8390805053059E-05,3.515625,0,0
-2.23442784772487E-05,1.80553743120981E-05,3.515625,0,0
-1.81242976395879E-05,1.44255200211774E-05,3.515625,0,0
-2.57207011600258E-05,1.93335545191076E-05,3.515625,0,0
-2.02653245651163E-05,1.16352357508731E-05,3.515625,0,0
-2.64369227807038E-05,1.37463703140384E-05,3.515625,0,0
-2.49617060035234E-05,1.06904608401237E-05,3.515625,0,0
-2.84633242699783E-05,1.25633105199086E-05,3.515625,0,0
-2.63428319158265E-05,9.60409488470759E-06,3.515625,0,0
-2.79914547718363E-05,7.85471820563544E-06,3.515625,0,0
-2.71339558821637E-05,5.59741783945356E-06,3.515625,0,0
-2.53033795161173E-05,6.32368164588115E-06,3.515625,0,0
-2.26731826842297E-05,9.02907413546927E-06,3.515625,0,0
-2.01474849745864E-05,1.04487889984739E-05,3.515625,0,0
-2.00038975890493E-05,1.15346292659524E-05,3.515625,0,0
-1.84627260750858E-05,1.05294084278285E-05,3.515625,0,0
-1.89893817150733E-05,1.15658576760325E-05,3.515625,0,0
-1.83582178578945E-05,1.12984889710788E-05,3.515625,0,0
-2.03320378204808E-05,1.22893043226213E-05,3.515625,0,0
-1.98803827515803E-05,1.23325544336694E-05,3.515625,0,0
-2.07218326977454E-05,1.60451654664939E-05,3.515625,0,0
-1.9520199202816E-05,2.01168259081896E-05,3.515625,0,0
-2.06646564038238E-05,2.31522299145581E-05,3.515625,0,0
-2.16927801375277E-05,2.10409307328518E-05,3.69140625,0,0
-2.26088814088143E-05,1.72691634361399E-05,3.69140625,0,0
-2.06715976673877E-05,1.38144741868018E-05,3.69140625,0,0
-2.04391126317205E-05,1.16771998364129E-05,3.69140625,0,0
-2.19763169297948E-05,1.10592472992721E-05,3.69140625,0,0
-2.27091441047378E-05,1.5074409020599E-05,3.69140625,0,0
-1.88039375643712E-05,1.94874028238701E-05,3.69140625,0,0
-2.69511765509378E-05,3.39640937454533E-05,3.69140625,0,0
-2.1006029783166E-05,3.59695186489262E-05,3.69140625,0,0
-2.63577094301581E-05,4.66452002001461E-05,3.69140625,0,0
-2.27875298151048E-05,4.67936515633482E-05,3.69140625,0,0
-2.49843851634068E-05,4.68478392576799E-05,3.69140625,0,0
-2.29036395467119E-05,3.70416528312489E-05,3.69140625,0,0
-2.37921558436938E-05,2.55521244980628E-05,3.69140625,0,0
-2.36486430367222E-05,1.1511941011122E-05,3.69140625,0,0
-2.45417959376937E-05,-1.14444742393971E-06,3.69140625,0,0
-2.48527339863358E-05,-9.68004223977914E-06,3.69140625,0,0
-2.41948418988613E-05,-1.46704705912271E-05,3.69140625,0,0
-2.54320621024817E-05,-1.61362022481626E-05,3.69140625,0,0
-2.65787075477419E-05,-2.08814180950867E-05,3.69140625,0,0
-3.02304651995655E-05,-2.75701822829433E-05,3.69140625,0,0
-3.11965886794496E-05,-3.5631255741464E-05,3.69140625,0,0
-3.22274572681636E-05,-3.561547055142E-05,3.69140625,0,0
-2.91466640192084E-05,-2.94108031084761E-05,3.69140625,0,0
-2.75543006864609E-05,-1.81360410351772E-05,3.69140625,0,0
-2.49919685302302E-05,-9.92253626463935E-06,3.69140625,0,0
-2.37661006394774E-05,-2.59042326433701E-06,3.69140625,0,0
-1.99311998585472E-05,4.20778360421536E-06,3.69140625,0,0
-1.85550707101356E-05,1.07408141047927E-05,3.69140625,0,0
-2.03113431780366E-05,1.30109256133437E-05,3.69140625,0,0
-2.30052701226668E-05,1.45627845995477E-05,3.69140625,0,0
-2.30437544814777E-05,1.58463044499513E-05,3.69140625,0,0
-2.32138991123065E-05,1.50994519572123E-05,3.69140625,0,0
-1.96146011148812E-05,1.07722380562336E-05,3.69140625,0,0
-2.8250491595827E-05,1.4746126907994E-05,3.69140625,0,0
-2.20748315769015E-05,1.03962829598458E-05,3.69140625,0,0
-2.77375893347198E-05,1.3622448022943E-05,3.69140625,0,0
-2.37360218307003E-05,1.31543001771206E-05,3.69140625,0,0
-2.61401401076E-05,1.56057794811204E-05,3.69140625,0,0
-2.49449749389896E-05,1.40178217407083E-05,3.69140625,0,0
-2.64702321146615E-05,1.50126234075287E-05,3.69140625,0,0
-2.56509265454952E-05,1.4787895452173E-05,3.69140625,0,0
-2.59786374954274E-05,1.26728400573484E-05,3.69140625,0,0
-2.66988336079521E-05,9.58827149588615E-06,3.69140625,0,0
-2.60645138041582E-05,7.49272976463544E-06,3.69140625,0,0
-2.71104072453454E-05,9.19099056773121E-06,3.69140625,0,0
-2.65903654508293E-05,1.09871689346619E-05,3.69140625,0,0
-2.73218811344123E-05,1.25419182950282E-05,3.69140625,0,0
-2.55023878708016E-05,1.13546948341536E-05,3.69140625,0,0
-2.618402504595E-05,9.97215920506278E-06,3.69140625,0,0
-2.52624213317176E-05,6.48392870061798E-06,3.69140625,0,0
-2.62622743321117E-05,3.94231028622016E-06,3.69140625,0,0
-2.55675604421413E-05,2.17886190512218E-06,3.69140625,0,0
-2.6567344320938E-05,5.65895697945962E-06,3.69140625,0,0
-2.61721779679647E-05,1.40373213071143E-05,3.69140625,0,0
-2.52985119004734E-05,2.55261802522E-05,3.69140625,0,0
-2.23411134356866E-05,3.18915226671379E-05,3.69140625,0,0
-1.96527616935782E-05,3.0345314371516E-05,3.69140625,0,0
-1.76646717591211E-05,2.34411490964703E-05,3.69140625,0,0
-1.7695800124784E-05,1.60621821123641E-05,3.69140625,0,0
-1.40427791848197E-05,1.04931732494151E-05,3.69140625,0,0
-1.89925249287626E-05,1.60748804773903E-05,3.69140625,0,0
-1.32406521515804E-05,1.24503667393583E-05,3.69140625,0,0
-1.82368003152078E-05,1.23467125376919E-05,3.69140625,0,0
-1.85621283890214E-05,8.38135656522354E-06,3.69140625,0,0
-2.25779585889541E-05,1.09227339635254E-05,3.69140625,0,0
-2.09766367333941E-05,1.22727560665226E-05,3.69140625,0,0
-2.04834250325803E-05,1.36859607664519E-05,3.69140625,0,0
-1.8985454516951E-05,1.25688193293172E-05,3.69140625,0,0
-1.89551501534879E-05,1.01549094324582E-05,3.69140625,0,0
-1.95462380361278E-05,7.93443177826703E-06,3.69140625,0,0
-1.99804399017012E-05,6.44804777039099E-06,3.69140625,0,0
-2.14195442822529E-05,7.28273653294309E-06,3.69140625,0,0
-2.1428812033264E-05,8.21131561679067E-06,3.69140625,0,0
-2.27700766117778E-05,8.94523691385984E-06,3.69140625,0,0
-2.28194930969039E-05,7.19439867680194E-06,3.69140625,0,0
-2.46603067353135E-05,6.80222365190275E-06,3.69140625,0,0
-2.5213052140316E-05,6.51123855277547E-06,3.69140625,0,0
-2.6435909603606E-05,7.66264747653622E-06,3.69140625,0,0
-2.57233023148729E-05,8.07876494945958E-06,3.69140625,0,0
-2.61534696619492E-05,8.57922350405715E-06,3.69140625,0,0
-2.61388049693778E-05,7.6442183853942E-06,3.69140625,0,0
-2.72352390311426E-05,7.21524747859803E-06,3.69140625,0,0
-2.70800956059247E-05,8.18060652818531E-06,3.69140625,0,0
-2.75930942734703E-05,1.10663249870413E-05,3.69140625,0,0
-2.76307946478482E-05,1.20009181046044E-05,3.69140625,0,0
-2.72644319920801E-05,1.13840287667699E-05,3.69140625,0,0
-2.15060299524339E-05,8.30364388093585E-06,3.69140625,0,0
-3.03177221212536E-05,1.11495128294337E-05,3.69140625,0,0
-2.29162615141831E-05,7.1530321292812E-06,3.69140625,0,0
-2.87115344690392E-05,8.64779030962382E-06,3.69140625,0,0
-2.40650952036958E-05,7.50049139242037E-06,3.69140625,0,0
-2.61522582150064E-05,1.00866700449842E-05,3.69140625,0,0
-2.22935886995401E-05,1.00134384410921E-05,3.69140625,0,0
-2.25016428885283E-05,1.0693448530219E-05,3.69140625,0,0
-2.08690471481532E-05,9.43959184951382E-06,3.69140625,0,0
-2.03628005692735E-05,8.63496461533941E-06,3.69140625,0,0
-2.08431411010679E-05,9.03521413420094E-06,3.69140625,0,0
-2.06526510737604E-05,9.55422001425177E-06,3.69140625,0,0
-2.20548554352717E-05,1.06039342426811E-05,3.69140625,0,0
-2.14626379602123E-05,1.04842511063907E-05,3.69140625,0,0
-2.30482819461031E-05,1.14744252641685E-05,3.69140625,0,0
-2.24815994442906E-05,1.17991658044048E-05,3.69140625,0,0
-2.48741216637427E-05,1.26869344967417E-05,3.69140625,0,0
-2.48134947469225E-05,1.22257742987131E-05,3.69140625,0,0
-2.56168095802423E-05,1.32985614982317E-05,3.69140625,0,0
-2.35849129239796E-05,1.39557423608494E-05,3.69140625,0,0
-2.39833443629323E-05,1.37275501401746E-05,3.69140625,0,0
-2.33490191021701E-05,1.17872832561261E-05,3.69140625,0,0
-2.36148098338163E-05,1.13242449515383E-05,3.69140625,0,0
-2.36017494898988E-05,1.22234077934991E-05,3.69140625,0,0
-2.49521053774515E-05,1.34322499434347E-05,3.69140625,0,0
-2.617932841531E-05,1.24836515169591E-05,3.69140625,0,0
-2.62971134361578E-05,1.17517820399371E-05,3.69140625,0,0
-2.12562972592423E-05,1.00697234302061E-05,3.69140625,0,0
-3.14860662911087E-05,1.41937962325756E-05,3.69140625,0,0
-2.48073629336432E-05,9.45280589803588E-06,3.69140625,0,0
-2.79885425698012E-05,1.04608061519684E-05,3.69140625,0,0
-2.22333146666642E-05,7.47182093618903E-06,3.69140625,0,0
-2.55676241067704E-05,8.26207815407543E-06,3.69140625,0,0
-2.38278553297278E-05,8.22600850369781E-06,3.69140625,0,0
-2.50128450716147E-05,1.18037078209454E-05,3.69140625,0,0
-2.42522983171511E-05,1.39367757583386E-05,3.69140625,0,0
-2.46164345298894E-05,1.52823340613395E-05,3.69140625,0,0
-2.52138615906006E-05,1.68136812135344E-05,3.69140625,0,0
-2.42595288000302E-05,1.82293733814731E-05,3.69140625,0,0
-2.56894345511682E-05,2.12653285416309E-05,3.69140625,0,0
-2.53947218880057E-05,2.25986350415042E-05,3.69140625,0,0
-2.58332074736245E-05,2.24492741836002E-05,3.69140625,0,0
-2.3314878490055E-05,1.94674667000072E-05,3.69140625,0,0
-2.33433456742205E-05,1.77053752850043E-05,3.69140625,0,0
-2.17268152482575E-05,1.56855421664659E-05,3.69140625,0,0
-2.22755097638583E-05,1.49220923049143E-05,3.69140625,0,0
-2.07951525226235E-05,1.3664856851392E-05,3.69140625,0,0
-2.10787475225516E-05,1.36994403874269E-05,3.69140625,0,0
-2.0959354515071E-05,1.38105970108882E-05,3.69140625,0,0
-2.29241140914382E-05,1.41663158501615E-05,3.69140625,0,0
-2.36285577557283E-05,1.28395922729396E-05,3.69140625,0,0
-2.26681149797514E-05,1.13271335067111E-05,3.69140625,0,0
-2.08086985367117E-05,9.44435760175111E-06,3.69140625,0,0
-2.032191514445E-05,8.44469286676031E-06,3.69140625,0,0
-1.60884465003619E-05,8.04128194431541E-06,3.69140625,0,0
-2.37336535064969E-05,1.16707369670621E-05,3.69140625,0,0
-2.06579334189883E-05,8.33469948702259E-06,3.69140625,0,0
-2.67372852249537E-05,1.0474619557499E-05,3.69140625,0,0
-2.41984271269757E-05,9.8859854915645E-06,3.69140625,0,0
-2.64431055256864E-05,1.14160357043147E-05,3.69140625,0,0
-2.42484657064779E-05,1.08384620034485E-05,3.69140625,0,0
-2.42960741161369E-05,1.03674929050612E-05,3.69140625,0,0
-2.26480879064184E-05,1.02398744274979E-05,3.69140625,0,0
-2.20649726543343E-05,1.18551606647088E-05,3.69140625,0,0
-2.21048740058905E-05,1.32447294163285E-05,3.69140625,0,0
-2.11850565392524E-05,1.30924099721597E-05,3.69140625,0,0
-2.09914578590542E-05,1.38259474624647E-05,3.69140625,0,0
-1.96964119822951E-05,1.39753738039872E-05,3.69140625,0,0
-2.20605979848187E-05,1.38032846734859E-05,3.69140625,0,0
-2.37556796491845E-05,1.21989060062333E-05,3.69140625,0,0
-2.55504237429705E-05,1.27521698232158E-05,3.69140625,0,0
-2.42071437241975E-05,1.44888899740181E-05,3.69140625,0,0
-2.48738761001732E-05,1.68045207828982E-05,3.69140625,0,0
-2.46500985667808E-05,1.71585361385951E-05,3.69140625,0,0
-2.52402496698778E-05,1.78620721271727E-05,3.69140625,0,0
-2.44341408688342E-05,1.85134504135931E-05,3.69140625,0,0
-2.48340747930342E-05,1.84679320227588E-05,3.69140625,0,0
-2.54685892286943E-05,1.6813886759337E-05,3.69140625,0,0
-2.71799763140734E-05,1.47344053402776E-05,3.69140625,0,0
-2.75282200163929E-05,1.40808188007213E-05,3.69140625,0,0
-2.5260254915338E-05,1.66263325809268E-05,4.21875,0,0
-1.72948621184332E-05,1.82310395757668E-05,4.21875,0,0
-2.37850836128928E-05,2.60704455286032E-05,4.21875,0,0
-1.87255172932055E-05,1.43827792271622E-05,4.21875,0,0
-2.47216121351812E-05,9.16231965675252E-06,4.21875,0,0
-2.14989831874846E-05,-6.04796525749407E-07,4.21875,0,0
-2.47760872298386E-05,1.33059154450166E-06,4.21875,0,0
-2.28856424655532E-05,4.20897276853793E-06,4.21875,0,0
-2.41111811192241E-05,9.56306575972121E-06,4.21875,0,0
-2.27278997044778E-05,1.0574337466096E-05,4.21875,0,0
-2.18432141991798E-05,1.01559544418706E-05,4.21875,0,0
-2.17256420000922E-05,8.30673070595367E-06,4.21875,0,0
-2.02970968530281E-05,5.85133648201008E-06,4.21875,0,0
-2.04083426069701E-05,4.96433722219081E-06,4.21875,0,0
-2.01248658413533E-05,3.5736068184633E-06,4.21875,0,0
-2.27015043492429E-05,4.65142920802464E-06,4.21875,0,0
-2.315338315384E-05,3.61115871783113E-06,4.21875,0,0
-2.45976098085521E-05,4.54911241831724E-06,4.21875,0,0
-2.30965051741805E-05,4.61676108898246E-06,4.21875,0,0
-2.38957109104376E-05,7.2836382969399E-06,4.21875,0,0
-2.42926471401006E-05,8.7635107774986E-06,4.21875,0,0
-2.64617719949456E-05,1.19915057439357E-05,4.21875,0,0
-2.65542348643066E-05,1.39106659844401E-05,4.21875,0,0
-2.60460128629347E-05,1.52580196299823E-05,4.21875,0,0
-2.38430548051838E-05,1.38847572088707E-05,4.21875,0,0
-2.28094431804493E-05,1.32528675749199E-05,4.21875,0,0
-2.25449548452161E-05,1.27595822050353E-05,4.21875,0,0
-2.22629205381963E-05,1.16773953777738E-05,4.21875,0,0
-1.71693409356521E-05,7.78268440626562E-06,4.21875,0,0
-2.42372007051017E-05,8.37775769468863E-06,4.21875,0,0
-1.76468565769028E-05,2.8401691452018E-06,4.21875,0,0
-2.1959180230624E-05,4.19846446675365E-06,4.21875,0,0
-2.00566282728687E-05,1.99838586922851E-06,4.21875,0,0
-2.40229401242686E-05,3.54391613655025E-06,4.21875,0,0
-2.24728628381854E-05,3.74727437701949E-06,4.21875,0,0
-2.33242681133561E-05,4.98011377203511E-06,4.21875,0,0
-2.34752078540623E-05,4.39900713899988E-06,4.21875,0,0
-2.46034560404951E-05,4.32135766459396E-06,4.21875,0,0
-2.53244579653256E-05,5.19300829182612E-06,4.21875,0,0
-2.48318556259619E-05,6.01545934841852E-06,4.21875,0,0
-2.65166090684943E-05,7.56612098484766E-06,4.21875,0,0
-2.68561088887509E-05,8.27862822916359E-06,4.21875,0,0
-2.76291411864804E-05,9.57104748522397E-06,4.21875,0,0
-2.5258821551688E-05,8.6352656580857E-06,4.21875,0,0
-2.50983557634754E-05,8.15082785265986E-06,4.21875,0,0
-2.46349954977632E-05,6.82707150190254E-06,4.21875,0,0
-2.58567579294322E-05,6.53002189210383E-06,4.21875,0,0
-2.45852297666715E-05,5.30368015461136E-06,4.21875,0,0
-2.4866081730579E-05,4.73417549073929E-06,4.21875,0,0
-2.54450460488442E-05,4.70460281576379E-06,4.21875,0,0
-2.71191984211328E-05,6.62351567370933E-06,4.21875,0,0
-2.68873118329793E-05,8.41099335957551E-06,4.21875,0,0
-2.64911413978552E-05,8.77547518030042E-06,4.21875,0,0
-2.65836242760997E-05,6.72961323289201E-06,4.21875,0,0
-2.67343111772789E-05,4.73851241622469E-06,4.21875,0,0
-2.04185507755028E-05,3.28322266796022E-06,4.21875,0,0
-2.67952673311811E-05,5.02438842886477E-06,4.21875,0,0
-1.71035153471166E-05,5.644018528983E-06,4.21875,0,0
-2.30823261517799E-05,7.59289241614169E-06,4.21875,0,0
-2.02539031306515E-05,7.91608090366935E-06,4.21875,0,0
-2.3843258531997E-05,9.34882427827688E-06,4.21875,0,0
-2.20513738895534E-05,1.06207507997169E-05,4.21875,0,0
-2.32738584600156E-05,1.74488886841573E-05,4.21875,0,0
-2.22686994675314E-05,2.58606614806922E-05,4.21875,0,0
-2.27150121645536E-05,3.31918090523686E-05,4.21875,0,0
-2.43922622757964E-05,3.89997803722508E-05,4.21875,0,0
-2.43180111283436E-05,4.30476575274952E-05,4.21875,0,0
-2.38879747485043E-05,4.46191879746038E-05,4.21875,0,0
-2.16546322917566E-05,4.08372143283486E-05,4.21875,0,0
-2.24197519855807E-05,3.16088226099964E-05,4.21875,0,0
-2.10932539630448E-05,1.85340541065671E-05,4.21875,0,0
-2.20289712160593E-05,6.53399365546647E-06,4.21875,0,0
-2.05117430596147E-05,-3.27160182678199E-06,4.21875,0,0
-2.14847968891263E-05,-9.0376061052666E-06,4.21875,0,0
-2.16328862734372E-05,-1.11382114482694E-05,4.21875,0,0
-2.28947956202319E-05,-1.15849052235717E-05,4.21875,0,0
-2.16283442568965E-05,-1.54771660163533E-05,4.21875,0,0
-2.16978532989742E-05,-2.171845153498E-05,4.21875,0,0
-2.20527454075636E-05,-2.45554019784322E-05,4.21875,0,0
-2.3657350538997E-05,-2.04941552510718E-05,4.21875,0,0
-2.37670665228507E-05,-1.31041260829079E-05,4.21875,0,0
-2.42846654145978E-05,-5.19090235684416E-06,4.21875,0,0
-2.0568038962665E-05,3.01959562420961E-06,4.21875,0,0
-2.98688810289605E-05,8.30638145998819E-06,4.21875,0,0
-2.36137311731E-05,1.07099067463423E-05,4.21875,0,0
-2.81772227026522E-05,1.18874131658231E-05,4.21875,0,0
-2.37543190451106E-05,1.24063899420435E-05,4.21875,0,0
-2.79257601505378E-05,1.2348597010714E-05,4.21875,0,0
-2.62440953520127E-05,1.35715508804424E-05,4.21875,0,0
-2.74484209512593E-05,1.45337917274446E-05,4.21875,0,0
-2.602233143989E-05,1.50043533722055E-05,4.21875,0,0
-2.47071056946879E-05,1.53446126205381E-05,4.21875,0,0
-2.42770092881983E-05,1.61023508553626E-05,4.21875,0,0
-2.33230839512544E-05,1.67334856087109E-05,4.21875,0,0
-2.43416670855368E-05,1.79282542376313E-05,4.21875,0,0
-2.32108432101086E-05,1.93231408047723E-05,4.21875,0,0
-2.39757937379181E-05,2.02946284844074E-05,4.21875,0,0
-2.23248152906308E-05,1.99675559997559E-05,4.21875,0,0
-2.34207745961612E-05,1.89786278497195E-05,4.21875,0,0
-2.31033718591789E-05,1.82440744538326E-05,4.21875,0,0
-2.43397116719279E-05,1.73854841705179E-05,4.21875,0,0
-2.22571525227977E-05,1.58009279402904E-05,4.21875,0,0
-2.19523553823819E-05,1.50640053107054E-05,4.21875,0,0
-2.1979887605994E-05,1.69946015375899E-05,4.21875,0,0
-2.2924721633899E-05,1.79003527591703E-05,4.21875,0,0
-2.12664999708068E-05,1.57574031618424E-05,4.21875,0,0
-1.91782237379812E-05,1.48409180837916E-05,4.21875,0,0
-1.86657034646487E-05,2.26445099542616E-05,4.21875,0,0
-2.06447220989503E-05,3.68309156328905E-05,4.21875,0,0
-1.75739060068736E-05,3.7901376344962E-05,4.21875,0,0
-2.40323479374638E-05,5.51237280888017E-05,4.21875,0,0
-1.85859571502078E-05,4.00687240471598E-05,4.21875,0,0
-2.62523371930001E-05,4.26432343374472E-05,4.21875,0,0
-2.499593392713E-05,2.35015850194031E-05,4.21875,0,0
-2.80728945654118E-05,1.47951823237236E-05,4.21875,0,0
-2.58653126365971E-05,-3.10347218146489E-06,4.21875,0,0
-2.63322763203178E-05,-1.2269372746232E-05,4.21875,0,0
-2.44325347011909E-05,-1.89794136531418E-05,4.21875,0,0
-2.31867979891831E-05,-1.94217645912431E-05,4.21875,0,0
-2.23390270548407E-05,-2.02691044250969E-05,4.21875,0,0
-2.10600737773348E-05,-2.58094351011096E-05,4.21875,0,0
-2.19556004594779E-05,-2.56348648690619E-05,4.21875,0,0
-2.20038982661208E-05,-1.89663678611396E-05,4.21875,0,0
-2.41821689996868E-05,-2.20113065552141E-06,4.21875,0,0
-2.42184705712134E-05,1.05475364762242E-05,4.21875,0,0
-2.58303753071232E-05,2.38886786974035E-05,4.21875,0,0
-2.48963860940421E-05,2.77197013929253E-05,4.21875,0,0
-2.49431941483635E-05,2.80789499811362E-05,4.21875,0,0
-2.33843584283022E-05,1.95710144907935E-05,4.21875,0,0
-2.39462715398986E-05,1.34500678541372E-05,4.21875,0,0
-2.37679505517008E-05,8.65806850924855E-06,4.21875,0,0
-2.46500876528444E-05,9.18523346626898E-06,4.21875,0,0
-2.38953707594192E-05,9.61501791607589E-06,4.21875,0,0
-2.27878135774517E-05,1.1623757018242E-05,4.21875,0,0
-2.13326766242972E-05,1.22449109767331E-05,4.21875,0,0
-2.09622503462015E-05,1.24830157801625E-05,4.21875,0,0
-1.62148699018871E-05,8.52282119012671E-06,4.21875,0,0
-2.28848493861733E-05,9.41790040087653E-06,4.21875,0,0
-1.82566418516217E-05,3.44601608048833E-06,4.21875,0,0
-2.34936633205507E-05,4.64611503048218E-06,4.21875,0,0
-2.00951126316795E-05,3.95289362131734E-06,4.21875,0,0
-2.26003794523422E-05,7.65775985200889E-06,4.21875,0,0
-2.20763795368839E-05,9.8038590294891E-06,4.21875,0,0
-2.52240861300379E-05,1.35933669298538E-05,4.21875,0,0
-2.65751787082991E-05,1.60002546181204E-05,4.21875,0,0
-2.76062419288792E-05,1.83001102413982E-05,4.21875,0,0
-2.78050865745172E-05,2.02751289180014E-05,4.21875,0,0
-2.66311162704369E-05,1.93768246390391E-05,4.21875,0,0
-2.68305575445993E-05,1.64836110343458E-05,4.21875,0,0
-2.62725607171888E-05,1.14346848931746E-05,4.21875,0,0
-2.76376467809314E-05,7.66128596296767E-06,4.21875,0,0
-2.58926356764277E-05,4.20761944042169E-06,4.21875,0,0
-2.48064916377189E-05,5.078677986603E-06,4.21875,0,0
-2.29193137784023E-05,7.39326469556545E-06,4.21875,0,0
-2.41315337916603E-05,9.76750834524864E-06,4.21875,0,0
-2.42072565015405E-05,9.156002306554E-06,4.21875,0,0
-2.58267136814538E-05,8.95904940989567E-06,4.21875,0,0
-2.51074379775673E-05,9.32892271521268E-06,4.21875,0,0
-2.35053521464579E-05,1.0937187653326E-05,4.21875,0,0
-2.30602927331347E-05,1.33813964566798E-05,4.21875,0,0
-2.55882823694265E-05,1.67650669027353E-05,4.21875,0,0
-2.67193445324665E-05,2.08169331017416E-05,4.21875,0,0
-2.66284150711726E-05,2.49633631028701E-05,4.21875,0,0
-2.02745322894771E-05,2.03937161131762E-05,4.21875,0,0
-2.67418054136215E-05,2.36624273384223E-05,5.44921875,0,0
-1.8403439753456E-05,7.94571224105312E-06,5.44921875,0,0
-2.4822038540151E-05,8.34286402096041E-06,5.44921875,0,0
-2.17177075683139E-05,1.84040652584372E-06,5.44921875,0,0
-2.58867748925695E-05,4.22661150878412E-06,5.44921875,0,0
-2.38822958635865E-05,1.53268649683014E-06,5.44921875,0,0
-2.51602177741006E-05,4.20384048993583E-06,5.44921875,0,0
-2.39966047956841E-05,4.72429837827804E-06,5.44921875,0,0
-2.44840011873748E-05,4.66625169792678E-06,5.44921875,0,0
-2.54806673183339E-05,4.61161744169658E-06,5.44921875,0,0
-2.41892412304878E-05,4.20596825279063E-06,5.44921875,0,0
-2.35033749049762E-05,6.36940512777073E-06,5.44921875,0,0
-2.18456207221607E-05,9.23293737287167E-06,5.44921875,0,0
-2.4368478989345E-05,1.70908788277302E-05,5.44921875,0,0
-2.47379630309297E-05,2.14465399039909E-05,5.44921875,0,0
-2.65883609245066E-05,2.41480083786882E-05,5.44921875,0,0
-2.50771026912844E-05,2.11592578125419E-05,5.44921875,0,0
-2.48769374593394E-05,1.91859162441688E-05,5.44921875,0,0
-2.29788620345062E-05,1.54845038196072E-05,5.44921875,0,0
-2.43481354118558E-05,1.42785547723179E-05,5.44921875,0,0
-2.61178811342688E-05,1.24156313177082E-05,5.44921875,0,0
-2.96729740512092E-05,1.14108042907901E-05,5.44921875,0,0
-3.06772562908009E-05,9.15024975256529E-06,5.44921875,0,0
-2.86626145680202E-05,9.37397999223322E-06,5.44921875,0,0
-2.44754010054749E-05,9.14249903871678E-06,5.44921875,0,0
-2.23870938498294E-05,1.073281691788E-05,5.44921875,0,0
-1.81332779902732E-05,1.28397941807634E-05,5.44921875,0,0
-2.58429899986368E-05,1.98558573174523E-05,5.44921875,0,0
-1.9706116290763E-05,1.55044181155972E-05,5.44921875,0,0
-2.41098568949383E-05,1.68676760949893E-05,5.44921875,0,0
-1.99776950466912E-05,1.41746086228522E-05,5.44921875,0,0
-2.24533923756098E-05,1.53083346958738E-05,5.44921875,0,0
-2.0309600586188E-05,1.3776871128357E-05,5.44921875,0,0
-2.05211599677568E-05,1.47012715387973E-05,5.44921875,0,0
-2.03626077563968E-05,1.51721087604528E-05,5.44921875,0,0
-2.15764212043723E-05,1.28756764752325E-05,5.44921875,0,0
-2.36252235481516E-05,8.10687834018609E-06,5.44921875,0,0
-2.41802245000144E-05,3.79242533199431E-06,5.44921875,0,0
-2.43192862399155E-05,4.57134228781797E-06,5.44921875,0,0
-2.28259614232229E-05,7.23411949365982E-06,5.44921875,0,0
-2.50521134148585E-05,1.00284978543641E-05,5.44921875,0,0
-2.5980718419305E-05,9.48951310419943E-06,5.44921875,0,0
-2.79719261015998E-05,9.52973277890123E-06,5.44921875,0,0
-2.696760748222E-05,9.05934575712308E-06,5.44921875,0,0
-2.62938083324116E-05,9.74461090663681E-06,5.44921875,0,0
-2.35831357713323E-05,9.6646826932556E-06,5.44921875,0,0
-2.25829626288032E-05,1.19445112432004E-05,5.44921875,0,0
-2.15195723285433E-05,1.45240355777787E-05,5.44921875,0,0
-2.24396189878462E-05,1.58206767082447E-05,5.44921875,0,0
-2.22547259909334E-05,1.43314755405299E-05,5.44921875,0,0
-2.23642546188785E-05,1.24368807519204E-05,5.44921875,0,0
-2.24925097427331E-05,9.71320332610048E-06,5.44921875,0,0
-2.26006886805408E-05,8.08173081168206E-06,5.44921875,0,0
-1.78403442987474E-05,8.59179090184625E-06,5.44921875,0,0
-2.4557150027249E-05,1.40168831421761E-05,5.44921875,0,0
-1.89387556019938E-05,1.22332785394974E-05,5.44921875,0,0
-2.57368883467279E-05,1.26876557260402E-05,5.44921875,0,0
-2.27452383114723E-05,9.5968671303126E-06,5.44921875,0,0
-2.49728527705884E-05,1.00835131888743E-05,5.44921875,0,0
-2.22714170377003E-05,9.92252807918703E-06,5.44921875,0,0
-2.28108765440993E-05,1.18140114864218E-05,5.44921875,0,0
-2.20085730688879E-05,1.30219477796345E-05,5.44921875,0,0
-2.15260861295974E-05,1.41348573379219E-05,5.44921875,0,0
-2.18869499803986E-05,1.55803172674496E-05,5.44921875,0,0
-2.23085771722253E-05,1.5999536117306E-05,5.44921875,0,0
-2.3685157430009E-05,1.53430228237994E-05,5.44921875,0,0
-2.24016530410154E-05,1.394114769937E-05,5.44921875,0,0
-2.26046358875465E-05,1.35405516630271E-05,5.44921875,0,0
-2.0760726329172E-05,1.17079034680501E-05,5.44921875,0,0
-2.15261734410888E-05,1.12440520751989E-05,5.44921875,0,0
-2.16031439776998E-05,1.11243543869932E-05,5.44921875,0,0
-2.43131980823819E-05,1.19420737973996E-05,5.44921875,0,0
-2.46053259616019E-05,1.24118487292435E-05,5.44921875,0,0
-2.4042630684562E-05,1.36978878799709E-05,5.44921875,0,0
-2.18736549868481E-05,1.28529500216246E-05,5.44921875,0,0
-2.2439198801294E-05,1.08494696178241E-05,5.44921875,0,0
-2.22794042201713E-05,8.95708399184514E-06,5.44921875,0,0
-2.14134888665285E-05,8.95584707905073E-06,5.44921875,0,0
-2.03030213015154E-05,1.0122641469934E-05,5.44921875,0,0
-1.96784603758715E-05,1.06151719592162E-05,5.44921875,0,0
-1.6083768059616E-05,6.80409084452549E-06,5.44921875,0,0
-2.334227974643E-05,8.49732532515191E-06,5.44921875,0,0
-1.88181475095917E-05,7.16867180017289E-06,5.44921875,0,0
-2.35519182751887E-05,1.13163578134845E-05,5.44921875,0,0
-2.10644011531258E-05,9.61649220698746E-06,5.44921875,0,0
-2.36862415476935E-05,1.01638206615462E-05,5.44921875,0,0
-2.16653370443964E-05,9.01512703421758E-06,5.44921875,0,0
-2.26034080696991E-05,1.03349466371583E-05,5.44921875,0,0
-2.26988340727985E-05,1.13190026240773E-05,5.44921875,0,0
-2.34038216149202E-05,1.26508375615231E-05,5.44921875,0,0
-2.48991545959143E-05,1.4075568287808E-05,5.44921875,0,0
-2.58301552094053E-05,1.47837617987534E-05,5.44921875,0,0
-2.6416955734021E-05,1.43286943057319E-05,5.44921875,0,0
-2.47540028794901E-05,1.12639381768531E-05,5.44921875,0,0
-2.54437836701982E-05,9.40540303417947E-06,5.44921875,0,0
-2.53510079346597E-05,7.33677643438568E-06,5.44921875,0,0
-2.67707455350319E-05,5.82410757488105E-06,5.44921875,0,0
-2.57555584539659E-05,3.32496847477159E-06,5.44921875,0,0
-2.58999443758512E-05,3.45355988429219E-06,5.44921875,0,0
-2.48702417593449E-05,5.71470309296274E-06,5.44921875,0,0
-2.62689609371591E-05,9.17205397854559E-06,5.44921875,0,0
-2.7395208235248E-05,1.0144861334993E-05,5.44921875,0,0
-2.88413812086219E-05,1.04062592072296E-05,5.44921875,0,0
-2.84057514363667E-05,9.91513843473513E-06,5.44921875,0,0
-2.71815497399075E-05,9.78845582721988E-06,5.44921875,0,0
-2.56566654570634E-05,9.12081668502651E-06,5.44921875,0,0
-2.52156369242584E-05,9.29463203647174E-06,5.44921875,0,0
-2.08351011679042E-05,8.16405281511834E-06,5.44921875,0,0
-2.92071381409187E-05,1.03003403637558E-05,5.44921875,0,0
-2.13679504668107E-05,5.54460757484776E-06,5.44921875,0,0
-2.6079887902597E-05,8.17471391201252E-06,5.44921875,0,0
-2.15420532185817E-05,9.09394657355733E-06,5.44921875,0,0
-2.48424403253011E-05,1.25908545669517E-05,5.44921875,0,0
-2.30676068895264E-05,1.20833910841611E-05,5.44921875,0,0
-2.44735201704316E-05,1.25845090224175E-05,5.44921875,0,0
-2.44118982664077E-05,1.33567536977353E-05,5.44921875,0,0
-2.55318518611602E-05,1.56508340296568E-05,5.44921875,0,0
-2.62767625827109E-05,1.82729509106139E-05,5.44921875,0,0
-2.53749312832952E-05,1.7241072782781E-05,5.44921875,0,0
-2.6153247745242E-05,1.42820435939939E-05,5.44921875,0,0
-2.52995796472533E-05,1.1245963833062E-05,5.44921875,0,0
-2.62301837210543E-05,1.04086875580833E-05,5.44921875,0,0
-2.45330011239275E-05,9.24422420212068E-06,5.44921875,0,0
-2.48057694989257E-05,9.55103587330086E-06,5.44921875,0,0
-2.26562788157025E-05,9.66112293099286E-06,5.44921875,0,0
-2.33164537348785E-05,1.09276779767242E-05,5.44921875,0,0
-2.31068788707489E-05,1.2211325156386E-05,5.44921875,0,0
-2.45386927417712E-05,1.65496840054402E-05,5.44921875,0,0
-2.35447787417797E-05,2.23259085032623E-05,5.44921875,0,0
-2.33079390454805E-05,2.83672798104817E-05,5.44921875,0,0
-2.19253524846863E-05,3.34778997057583E-05,5.44921875,0,0
-2.24166906264145E-05,3.73850161849987E-05,5.44921875,0,0
-2.47229309024988E-05,3.91712055716198E-05,5.44921875,0,0
-2.65365506493254E-05,3.71175738109741E-05,5.44921875,0,0
-2.08297315111849E-05,2.4045204554568E-05,5.44921875,0,0
-2.75046240858501E-05,2.69411320914514E-05,5.44921875,0,0
-1.8498751160223E-05,5.87385511607863E-06,5.44921875,0,0
-2.46689614868956E-05,6.55250289582909E-07,5.44921875,0,0
-2.20256915781647E-05,-1.27471639643773E-05,5.44921875,0,0
-2.63338642980671E-05,-1.01540790637955E-05,5.44921875,0,0
-2.27824166358914E-05,-1.30256885313429E-05,5.44921875,0,0
-2.21769842028152E-05,-1.47326472870191E-05,5.44921875,0,0
-2.0565163140418E-05,-2.36914656852605E-05,5.44921875,0,0
-2.12258219107753E-05,-3.04827826766996E-05,5.44921875,0,0
-2.27248128794599E-05,-3.09873867081478E-05,5.44921875,0,0
-2.25839958147844E-05,-2.64760001300601E-05,5.44921875,0,0
-2.35849074670114E-05,-1.70771982084261E-05,5.44921875,0,0
-2.27988566621207E-05,-1.04153132269857E-05,5.44921875,0,0
-2.42019541474292E-05,-3.1715876502858E-06,5.44921875,0,0
-2.2230717149796E-05,-1.16613239242724E-06,5.44921875,0,0
-2.16900480154436E-05,1.45691672059911E-06,5.44921875,0,0
-1.98529523913749E-05,-1.68590474913799E-07,5.44921875,0,0
-2.24137274926761E-05,1.53026076077367E-06,5.44921875,0,0
-2.28548724408029E-05,2.44750208366895E-06,5.44921875,0,0
-2.41303441725904E-05,7.77663899498293E-06,5.44921875,0,0
-2.43736776610604E-05,1.16098090074956E-05,5.44921875,0,0
-2.620509803819E-05,1.54716672113864E-05,5.44921875,0,0
-2.51190631388454E-05,1.56493824761128E-05,5.44921875,0,0
-2.35971783695277E-05,1.46600777952699E-05,5.44921875,0,0
-2.3699951270828E-05,1.25561718959943E-05,5.44921875,0,0
-2.49408512900118E-05,1.18103762360988E-05,5.44921875,0,0
-1.94677413674071E-05,1.06724955912796E-05,5.44921875,0,0
-2.58338277490111E-05,1.56973965204088E-05,5.44921875,0,0
-1.74035558302421E-05,1.28923584270524E-05,5.44921875,0,0
-2.32568490901031E-05,1.4730988368683E-05,5.44921875,0,0
-2.03126146516297E-05,1.15861976155429E-05,5.44921875,0,0
-2.3381166101899E-05,1.2174607036286E-05,5.44921875,0,0
-2.13291259569814E-05,1.07873920569546E-05,5.44921875,0,0
-2.33562768698903E-05,1.25166670841281E-05,5.44921875,0,0
-2.27090167754795E-05,1.28363444673596E-05,5.44921875,0,0
-2.16544958675513E-05,1.19062033263617E-05,5.44921875,0,0
-2.12745071621612E-05,1.09597194750677E-05,5.44921875,0,0
-2.12061186175561E-05,1.03192933238461E-05,5.44921875,0,0
-2.32086295000045E-05,1.22615219879663E-05,5.44921875,0,0
-2.39935179706663E-05,1.38762216010946E-05,5.44921875,0,0
-2.68053336185403E-05,1.64498396770796E-05,5.44921875,0,0
-2.61874338320922E-05,1.76308967638761E-05,5.44921875,0,0
-2.6509909730521E-05,1.95938355318503E-05,5.44921875,0,0
-2.50340162892826E-05,1.95527700270759E-05,5.44921875,0,0
-2.54047336056829E-05,1.97123899852159E-05,5.44921875,0,0
-2.30976438615471E-05,1.81207306013675E-05,5.44921875,0,0
-2.29920242418302E-05,1.68673304870026E-05,5.44921875,0,0
-2.21170575969154E-05,1.5254919162544E-05,5.44921875,0,0
-2.2288490072242E-05,1.47144510265207E-05,5.44921875,0,0
-2.2157772036735E-05,1.44466803249088E-05,5.44921875,0,0
-2.40188692259835E-05,1.39731855597347E-05,5.44921875,0,0
-2.51174587901914E-05,1.2959845662408E-05,5.44921875,0,0
-2.32512738875812E-05,1.24226944535621E-05,5.44921875,0,0
-1.64961693371879E-05,1.03578968264628E-05,5.44921875,0,0
-2.3788465114194E-05,1.50910054799169E-05,5.44921875,0,0
-1.95777629414806E-05,1.21717876027105E-05,5.44921875,0,0
-2.45848423219286E-05,1.5322106264648E-05,5.44921875,0,0
-2.04910065804143E-05,1.25017886603018E-05,5.44921875,0,0
-2.2038340830477E-05,1.28217507153749E-05,5.44921875,0,0
-2.06681015697541E-05,1.18427942652488E-05,5.44921875,0,0
-2.2094463929534E-05,1.20459753816249E-05,5.44921875,0,0
-2.14671672438271E-05,1.14775484689744E-05,5.44921875,0,0
-2.23616589209996E-05,1.15685252239928E-05,5.44921875,0,0
-2.48591113631846E-05,1.25460292110802E-05,5.44921875,0,0
-2.6413976229378E-05,1.4425734661927E-05,5.44921875,0,0
-2.73265395662747E-05,1.79896087502129E-05,5.44921875,0,0
-2.5984387320932E-05,2.12827453651698E-05,5.44921875,0,0
-2.64750051428564E-05,2.42855076066917E-05,5.44921875,0,0
-2.53085672738962E-05,2.42934002017137E-05,5.44921875,0,0
-2.56009989243466E-05,2.42149544646963E-05,5.44921875,0,0
-2.44615748670185E-05,2.2413758415496E-05,5.44921875,0,0
-2.54553033300908E-05,2.11567021324299E-05,5.44921875,0,0
-2.37805379583733E-05,1.91014623851515E-05,5.44921875,0,0
-2.26628635573434E-05,1.78663140104618E-05,5.44921875,0,0
-2.14221527130576E-05,1.61741136253113E-05,5.44921875,0,0
-2.24968571274076E-05,1.60155050252797E-05,5.44921875,0,0
-2.29318338824669E-05,1.56760852405569E-05,5.44921875,0,0
-2.35830302699469E-05,1.41777672979515E-05,5.44921875,0,0
-2.43373433477245E-05,1.19966471174848E-05,5.44921875,0,0
-2.57948704529554E-05,1.12352236101287E-05,5.44921875,0,0
-2.21871305257082E-05,1.07689429569291E-05,5.44921875,0,0
-3.11517324007582E-05,1.69821832969319E-05,5.44921875,0,0
-2.16946991713485E-05,1.35164082166739E-05,5.44921875,0,0
-2.61056811723392E-05,1.35470927489223E-05,5.44921875,0,0
-2.17757005884778E-05,9.80287495622179E-06,5.44921875,0,0
-2.53189191425918E-05,1.13116939246538E-05,5.44921875,0,0
-2.34597719099838E-05,1.22057590488112E-05,5.44921875,0,0
-2.4189512259909E-05,1.35359450723627E-05,5.44921875,0,0
-2.29222787311301E-05,1.217256703967E-05,5.44921875,0,0
-2.29382803809131E-05,9.86402756097959E-06,5.44921875,0,0
-2.27313594223233E-05,7.7394333857228E-06,5.44921875,0,0
-2.12423874472734E-05,6.71941279506427E-06,5.44921875,0,0
-2.19762314372929E-05,7.69969847169705E-06,5.44921875,0,0
-2.21484715439146E-05,8.69207360665314E-06,5.44921875,0,0
-2.51945530180819E-05,1.10623313958058E-05,5.44921875,0,0
-2.48699398071039E-05,1.20107097245636E-05,5.44921875,0,0
-2.60760407400085E-05,1.24266725833877E-05,5.44921875,0,0
-2.44240036408883E-05,1.13076212073793E-05,5.44921875,0,0
-2.50273624260444E-05,1.153867742687E-05,5.44921875,0,0
-2.46386825892841E-05,1.04661785371718E-05,5.44921875,0,0
-2.58470736298477E-05,8.89738930709427E-06,5.44921875,0,0
-2.49734184762929E-05,5.92855712966411E-06,5.44921875,0,0
-2.49580061790766E-05,4.49686240244773E-06,5.44921875,0,0
-2.37284875765909E-05,4.05792889068834E-06,5.44921875,0,0
-2.36075084103504E-05,3.92548099625856E-06,5.44921875,0,0
-2.3898475774331E-05,3.492579480735E-06,5.44921875,0,0
-2.37408366956515E-05,5.1630636335176E-06,5.44921875,0,0
-1.92182324099122E-05,6.68538950776565E-06,5.44921875,0,0
-2.72635734290816E-05,9.20306683838135E-06,5.44921875,0,0
-2.04384141397895E-05,5.85042289458215E-06,5.44921875,0,0
-2.56622315646382E-05,8.14065788290463E-06,5.44921875,0,0
-2.20205383811845E-05,1.11925382952904E-05,5.44921875,0,0
-2.45562823693035E-05,1.50279611261794E-05,5.44921875,0,0
-2.26088377530687E-05,1.35313594000763E-05,5.44921875,0,0
-2.25899420911446E-05,1.23297131722211E-05,5.44921875,0,0
-2.08942092285724E-05,1.09032353066141E-05,5.44921875,0,0
-2.11041970032966E-05,9.98907216853695E-06,5.44921875,0,0
-2.27961045311531E-05,9.7996016847901E-06,7.734375,0,0
-2.29830784519436E-05,1.07709392977995E-05,7.734375,0,0
-2.33815117098857E-05,1.23890340546495E-05,7.734375,0,0
-2.17283250094624E-05,1.22613528219517E-05,7.734375,0,0
-2.19354333239608E-05,1.21879875223385E-05,7.734375,0,0
-2.03908875846537E-05,1.17044082799111E-05,7.734375,0,0
-2.21657701331424E-05,1.27879975480027E-05,7.734375,0,0
-2.29781326197553E-05,1.31226779558347E-05,7.734375,0,0
-2.48357064265292E-05,1.41963801070233E-05,7.734375,0,0
-2.43758422584506E-05,1.49516899909941E-05,7.734375,0,0
-2.52622194238938E-05,1.55089182953816E-05,7.734375,0,0
-2.46886957029346E-05,1.37721153805614E-05,7.734375,0,0
-2.54508740908932E-05,1.18521047625109E-05,7.734375,0,0
-2.60044453170849E-05,1.10893306555226E-05,7.734375,0,0
-2.6339381292928E-05,1.07164223663858E-05,7.734375,0,0
-2.50576140388148E-05,1.05244589576614E-05,7.734375,0,0
-2.34397248277674E-05,1.1342604921083E-05,7.734375,0,0
-1.86639390449272E-05,8.02660724730231E-06,7.734375,0,0
-2.7025975214201E-05,1.03731817944208E-05,7.734375,0,0
-2.14868923649192E-05,7.16578415449476E-06,7.734375,0,0
-2.67368250206346E-05,9.52139271248598E-06,7.734375,0,0
-2.28706521738786E-05,7.09548248778447E-06,7.734375,0,0
-2.60835477092769E-05,8.02791782916756E-06,7.734375,0,0
-2.43101894739084E-05,7.75498483562842E-06,7.734375,0,0
-2.41284287767485E-05,9.06464174477151E-06,7.734375,0,0
-2.39811397477752E-05,8.18858734419337E-06,7.734375,0,0
-2.52072204602882E-05,7.48822412788286E-06,7.734375,0,0
-2.57282736129127E-05,7.56661711420747E-06,7.734375,0,0
-2.46770014200592E-05,7.33449405743158E-06,7.734375,0,0
-2.49361364694778E-05,7.02468832969316E-06,7.734375,0,0
-2.40157496591564E-05,6.22802008365397E-06,7.734375,0,0
-2.50908069574507E-05,6.78331707604229E-06,7.734375,0,0
-2.36010710068513E-05,6.54582709103124E-06,7.734375,0,0
-2.34485632972792E-05,7.87715998740168E-06,7.734375,0,0
-2.15930249396479E-05,8.3886716311099E-06,7.734375,0,0
-2.19209705392132E-05,8.84819019120187E-06,7.734375,0,0
-2.11160095204832E-05,7.60272905608872E-06,7.734375,0,0
-2.29503966693301E-05,7.52672349335626E-06,7.734375,0,0
-2.39434411923867E-05,8.0181889643427E-06,7.734375,0,0
-2.34815652220277E-05,9.81807443167781E-06,7.734375,0,0
-2.15965847019106E-05,1.04134014691226E-05,7.734375,0,0
-2.201930146839E-05,9.70417295320658E-06,7.734375,0,0
-2.23305996769341E-05,7.85312840889674E-06,7.734375,0,0
-2.25760013563558E-05,6.70288090987015E-06,7.734375,0,0
-1.94809726963285E-05,6.2765884649707E-06,7.734375,0,0
-2.89752952085109E-05,9.28093959373655E-06,7.734375,0,0
-2.40245517488802E-05,8.38569121697219E-06,7.734375,0,0
-2.9368364266702E-05,1.1844163054775E-05,7.734375,0,0
-2.46205763687612E-05,1.15438606371754E-05,7.734375,0,0
-2.65430408035172E-05,1.27286084534717E-05,7.734375,0,0
-2.47532952926122E-05,1.22278715934954E-05,7.734375,0,0
-2.5600747903809E-05,1.19856149467523E-05,7.734375,0,0
-2.40802692133002E-05,1.10727251012577E-05,7.734375,0,0
-2.33621594816213E-05,9.55232189880917E-06,7.734375,0,0
-2.42801161220996E-05,8.37108473206172E-06,7.734375,0,0
-2.46575236815261E-05,7.66185621614568E-06,7.734375,0,0
-2.57031824730802E-05,8.34966704132967E-06,7.734375,0,0
-2.47644547926029E-05,9.10609287529951E-06,7.734375,0,0
-2.57835363299819E-05,1.09070797407185E-05,7.734375,0,0
-2.45560349867446E-05,1.1714128049789E-05,7.734375,0,0
-2.52248537435662E-05,1.23802192319999E-05,7.734375,0,0
-2.40119788941229E-05,1.07641581053031E-05,7.734375,0,0
-2.44763359660283E-05,8.14506802271353E-06,7.734375,0,0
-2.29249981202884E-05,6.52370044917916E-06,7.734375,0,0
-2.3077580408426E-05,7.62312538427068E-06,7.734375,0,0
-2.25369512918405E-05,8.48784020490712E-06,7.734375,0,0
-2.32429865718586E-05,8.65864967636298E-06,7.734375,0,0
-2.2911379346624E-05,7.87615408626152E-06,7.734375,0,0
-2.26219490286894E-05,7.27229689800879E-06,7.734375,0,0
-2.17311880987836E-05,7.47597141526057E-06,7.734375,0,0
-2.06588701985311E-05,7.30351212041569E-06,7.734375,0,0
-1.70303428603802E-05,5.58814690521103E-06,7.734375,0,0
-2.48345459112898E-05,7.27022825230961E-06,7.734375,0,0
-2.02887913474115E-05,6.49121830065269E-06,7.734375,0,0
-2.57336905633565E-05,1.103263002733E-05,7.734375,0,0
-2.31971025641542E-05,1.18061570901773E-05,7.734375,0,0
-2.60127180808922E-05,1.26398599604727E-05,7.734375,0,0
-2.36914165725466E-05,1.04890032162075E-05,7.734375,0,0
-2.3903208784759E-05,9.83416612143628E-06,7.734375,0,0
-2.30188397836173E-05,9.62068770604674E-06,7.734375,0,0
-2.19978974200785E-05,1.02799285741639E-05,7.734375,0,0
-2.16551197809167E-05,1.15154180093668E-05,7.734375,0,0
-2.17799606616609E-05,1.30598955365713E-05,7.734375,0,0
-2.33975933952024E-05,1.50076457430259E-05,7.734375,0,0
-2.30985278903972E-05,1.60326162585989E-05,7.734375,0,0
-2.36581399803981E-05,1.68902643054025E-05,7.734375,0,0
-2.2417851141654E-05,1.58376096806023E-05,7.734375,0,0
-2.33397477131803E-05,1.46143984238734E-05,7.734375,0,0
-2.28680146392435E-05,1.33318580992636E-05,7.734375,0,0
-2.37040749198059E-05,1.43775350807118E-05,7.734375,0,0
-2.27276905206963E-05,1.55422039824771E-05,7.734375,0,0
-2.29448360187234E-05,1.74302058439935E-05,7.734375,0,0
-2.15608670259826E-05,1.83658576133894E-05,7.734375,0,0
-2.15247109736083E-05,1.76434987224638E-05,7.734375,0,0
-2.13549647014588E-05,1.46893198689213E-05,7.734375,0,0
-2.16639728023438E-05,1.30569487737375E-05,7.734375,0,0
-2.09841746254824E-05,1.29434756672708E-05,7.734375,0,0
-1.98995603568619E-05,1.24525940918829E-05,7.734375,0,0
-1.66263125720434E-05,9.65737399383215E-06,7.734375,0,0
-2.46434428845532E-05,1.32222103275126E-05,7.734375,0,0
-2.05509877559962E-05,9.4471242846339E-06,7.734375,0,0
-2.48433425440453E-05,1.13362839329056E-05,7.734375,0,0
-2.00760696316138E-05,8.57956820254913E-06,7.734375,0,0
-2.09517602343112E-05,1.04939826996997E-05,7.734375,0,0
-1.91922354133567E-05,9.91458909993526E-06,7.734375,0,0
-2.07724351639627E-05,1.01227897175704E-05,7.734375,0,0
-2.15937398024835E-05,9.72712768998463E-06,7.734375,0,0
-2.35113129747333E-05,1.14633348857751E-05,7.734375,0,0
-2.43801969190827E-05,1.4052823644306E-05,7.734375,0,0
-2.35937750403536E-05,1.50194437082973E-05,7.734375,0,0
-2.46097297349479E-05,1.51190251926892E-05,7.734375,0,0
-2.42358455579961E-05,1.33966750581749E-05,7.734375,0,0
-2.48682972596725E-05,1.2624461305677E-05,7.734375,0,0
-2.30760942940833E-05,1.21191278594779E-05,7.734375,0,0
-2.29127908824012E-05,1.37102169901482E-05,7.734375,0,0
-2.18349177885102E-05,1.35767268147902E-05,7.734375,0,0
-2.33248247241136E-05,1.35303780552931E-05,7.734375,0,0
-2.34944291150896E-05,1.17986428449512E-05,7.734375,0,0
-2.53210055234376E-05,1.03115207821247E-05,7.734375,0,0
-2.61341392615577E-05,8.38060350361047E-06,7.734375,0,0
-2.69423799181823E-05,7.98066412244225E-06,7.734375,0,0
-2.70647888100939E-05,7.59622434998164E-06,7.734375,0,0
-2.78120787697844E-05,7.3842088568199E-06,7.734375,0,0
-2.82542114291573E-05,7.82324605097529E-06,7.734375,0,0
-2.84196885331767E-05,9.40915015235078E-06,7.734375,0,0
-2.19132489291951E-05,8.5886367742205E-06,7.734375,0,0
-3.12953998218291E-05,1.27057974168565E-05,7.734375,0,0
-2.49399217864266E-05,9.81386892817682E-06,7.734375,0,0
-3.15896650135983E-05,1.20193599286722E-05,7.734375,0,0
-2.62639550783206E-05,1.18060243039508E-05,7.734375,0,0
-2.81378361250972E-05,1.41793316288386E-05,7.734375,0,0
-2.51835317612858E-05,1.43674487844692E-05,7.734375,0,0
-2.67457944573835E-05,1.58678558364045E-05,7.734375,0,0
-2.61715904343873E-05,1.58762813953217E-05,7.734375,0,0
-2.62783305515768E-05,1.51905669554253E-05,7.734375,0,0
-2.66231309069553E-05,1.46532438520808E-05,7.734375,0,0
-2.57739884546027E-05,1.47283544720267E-05,7.734375,0,0
-2.60740562225692E-05,1.52026595969801E-05,7.734375,0,0
-2.42206424445612E-05,1.48071094372426E-05,7.734375,0,0
-2.53147463809E-05,1.51914755406324E-05,7.734375,0,0
-2.38987740885932E-05,1.37067509058397E-05,7.734375,0,0
-2.33162245422136E-05,1.19953629109659E-05,7.734375,0,0
-1.99901096493704E-05,9.87122894002823E-06,7.734375,0,0
-2.07074244826799E-05,9.80969616648508E-06,7.734375,0,0
-2.05403011932503E-05,9.50820049183676E-06,7.734375,0,0
-2.14347764995182E-05,9.59910357778426E-06,7.734375,0,0
-2.03774998226436E-05,8.63859077071538E-06,7.734375,0,0
-2.08235342142871E-05,8.33619651530171E-06,7.734375,0,0
-2.0297889932408E-05,9.60151282924926E-06,7.734375,0,0
-2.01808525162051E-05,1.16790952233714E-05,7.734375,0,0
-2.07558659894858E-05,1.22079718494206E-05,7.734375,0,0
-2.27482796617551E-05,1.12285188151873E-05,7.734375,0,0
-2.00328831851948E-05,7.09262712916825E-06,7.734375,0,0
-2.77682302112225E-05,9.65628078120062E-06,7.734375,0,0
-1.97362514882116E-05,8.87937130755745E-06,7.734375,0,0
-2.54352089541499E-05,1.39142421176075E-05,7.734375,0,0
-2.22013532038545E-05,1.32959821712575E-05,7.734375,0,0
-2.41556681430666E-05,1.34382225951413E-05,7.734375,0,0
-2.10038051591255E-05,1.13729329314083E-05,7.734375,0,0
-2.16709995584097E-05,1.12614825411583E-05,7.734375,0,0
-2.1803607523907E-05,1.1434567568358E-05,7.734375,0,0
-2.28931749006733E-05,1.1821616681118E-05,7.734375,0,0
-2.36962605413282E-05,1.21836865218938E-05,7.734375,0,0
-2.27662130782846E-05,1.21174061860074E-05,7.734375,0,0
-2.34704584727297E-05,1.2273059837753E-05,7.734375,0,0
-2.27582404477289E-05,1.12975785668823E-05,7.734375,0,0
-2.44600614678347E-05,1.11278150143335E-05,7.734375,0,0
-2.39169985434273E-05,1.0571226994216E-05,7.734375,0,0
-2.55129998549819E-05,1.0462478712725E-05,7.734375,0,0
-2.52136178460205E-05,9.61399655352579E-06,7.734375,0,0
-2.60717424680479E-05,1.04324444691883E-05,7.734375,0,0
-2.43585964199156E-05,1.02931389847072E-05,7.734375,0,0
-2.4021386707318E-05,9.92248806142015E-06,7.734375,0,0
-2.32342772505945E-05,9.3490407380159E-06,7.734375,0,0
-2.3869943106547E-05,1.03268275779556E-05,7.734375,0,0
-2.35699735640083E-05,1.11596536953584E-05,7.734375,0,0
-2.40324297919869E-05,1.122088633565E-05,7.734375,0,0
-2.39586697716732E-05,1.17407116704271E-05,7.734375,0,0
-2.30987334361998E-05,1.1895183888555E-05,7.734375,0,0
-1.83972388185794E-05,9.53558173932834E-06,7.734375,0,0
-2.67652685579378E-05,1.31448368847487E-05,7.734375,0,0
-2.12609211303061E-05,9.12673294806154E-06,7.734375,0,0
-2.58408072113525E-05,1.20571621664567E-05,7.734375,0,0
-2.25442745431792E-05,1.06827292256639E-05,7.734375,0,0
-2.60879423876759E-05,1.13436144602019E-05,7.734375,0,0
-2.47802836383926E-05,9.98231553239748E-06,7.734375,0,0
-2.65192211372778E-05,9.82095752988243E-06,7.734375,0,0
-2.69991251116153E-05,8.33951798995258E-06,7.734375,0,0
-2.75879538094159E-05,7.28170789443539E-06,7.734375,0,0
-2.69362863036804E-05,7.32454418539419E-06,7.734375,0,0
-2.57458686974132E-05,7.56907911636517E-06,7.734375,0,0
-2.68481053353753E-05,7.9366773206857E-06,7.734375,0,0
-2.61319801211357E-05,6.75604178468348E-06,7.734375,0,0
-2.73594487225637E-05,6.07822676101932E-06,7.734375,0,0
-2.68282274191733E-05,4.96364555147011E-06,7.734375,0,0
-2.71452954621054E-05,4.9377367759007E-06,7.734375,0,0
-2.42043388425373E-05,2.88641854240268E-06,7.734375,0,0
-2.34442250075517E-05,1.92554284694779E-06,7.734375,0,0
-2.2340926079778E-05,2.18028708331985E-06,7.734375,0,0
-2.36632695305161E-05,4.11183464166243E-06,7.734375,0,0
-2.35717325267615E-05,4.5866954678786E-06,7.734375,0,0
-2.37108633882599E-05,4.96016355100437E-06,7.734375,0,0
-2.26058982661925E-05,4.88379873786471E-06,7.734375,0,0
-2.24587820412125E-05,5.66803646506742E-06,7.734375,0,0
-2.33442769967951E-05,7.49589980841847E-06,7.734375,0,0
-2.37345520872623E-05,1.02614285424352E-05,7.734375,0,0
-1.86606193892658E-05,9.94206311588641E-06,7.734375,0,0
-2.59769058175152E-05,1.33329103846336E-05,7.734375,0,0
-1.98308607650688E-05,9.12110499484697E-06,7.734375,0,0
-2.51088094955776E-05,1.24705056805396E-05,7.734375,0,0
-2.13575603993377E-05,1.19906389954849E-05,7.734375,0,0
-2.45159699261421E-05,1.56206951942295E-05,7.734375,0,0
-2.31668727792567E-05,1.56432379299076E-05,7.734375,0,0
-2.56744697253453E-05,1.55496654770104E-05,7.734375,0,0
-2.58289692283142E-05,1.55429916048888E-05,7.734375,0,0
-2.52155477937777E-05,1.56539754243568E-05,7.734375,0,0
-2.38190768868662E-05,1.51011718116933E-05,7.734375,0,0
-2.26271440624259E-05,1.39357916850713E-05,7.734375,0,0
-2.38508346228627E-05,1.32018512886134E-05,7.734375,0,0
-2.31500562222209E-05,1.15828461275669E-05,7.734375,0,0
-2.44744333031122E-05,1.15835155156674E-05,7.734375,0,0
-2.36526939261239E-05,1.15013235699735E-05,7.734375,0,0
-2.44474886130774E-05,1.27060893646558E-05,7.734375,0,0
-2.29626039072173E-05,1.1957256901951E-05,7.734375,0,0
-2.34005747188348E-05,1.11716790343053E-05,7.734375,0,0
-2.22110884351423E-05,9.75231159827672E-06,7.734375,0,0
-2.31346257351106E-05,1.01026853371877E-05,7.734375,0,0
-2.35929401242174E-05,1.00100705822115E-05,7.734375,0,0
-2.50589928327827E-05,9.77057516138302E-06,7.734375,0,0
-2.46509898715885E-05,8.92075604497222E-06,7.734375,0,0
-2.46691324718995E-05,9.25887889025034E-06,7.734375,0,0
-2.45944884227356E-05,1.00644638223457E-05,7.734375,0,0
-2.30567238759249E-05,1.09499387690448E-05,7.734375,0,0
-1.64995362865739E-05,9.67198047874263E-06,7.734375,0,0
-2.24693212658167E-05,1.36018188641174E-05,7.734375,0,0
-1.72941181517672E-05,1.00345341706998E-05,7.734375,0,0
-2.34876952163177E-05,1.27432649605908E-05,7.734375,0,0
-2.11148271773709E-05,1.09792226794525E-05,7.734375,0,0
-2.43569156737067E-05,1.24012194646639E-05,7.734375,0,0
-2.33801729336847E-05,1.15848870336777E-05,7.734375,0,0
-2.43468421103898E-05,1.20926633826457E-05,7.734375,0,0
-2.36612304433947E-05,1.22541086966521E-05,7.734375,0,0
-2.41843390540453E-05,1.32977274915902E-05,7.734375,0,0
-2.41774596361211E-05,1.43444294735673E-05,7.734375,0,0
-2.30181376537075E-05,1.36750386445783E-05,7.734375,0,0
-2.30149344133679E-05,1.36272801682935E-05,7.734375,0,0
-2.1632051357301E-05,1.37086544782505E-05,7.734375,0,0
-2.253484854009E-05,1.4349715456774E-05,7.734375,0,0
-2.22756825678516E-05,1.30065836856375E-05,10.01953125,0,0
-2.5023362468346E-05,1.28464571389486E-05,10.01953125,0,0
-2.55267714237561E-05,1.24001098811277E-05,10.01953125,0,0
-2.54362948908238E-05,1.30525822896743E-05,10.01953125,0,0
-2.24519608309492E-05,1.28069996208069E-05,10.01953125,0,0
-2.19933717744425E-05,1.27799039546517E-05,10.01953125,0,0
-2.16475582419662E-05,1.15657294372795E-05,10.01953125,0,0
-2.24954910663655E-05,1.05554590845713E-05,10.01953125,0,0
-2.24342129513389E-05,9.85646966000786E-06,10.01953125,0,0
-2.30246278078994E-05,1.04226483017555E-05,10.01953125,0,0
-2.33157352340641E-05,1.05593653643155E-05,10.01953125,0,0
-2.33058490266558E-05,1.04152441053884E-05,10.01953125,0,0
-1.89304300874937E-05,9.13410258363001E-06,10.01953125,0,0
-2.75505153695121E-05,1.33468884087051E-05,10.01953125,0,0
-2.20932452066336E-05,1.00883544291719E-05,10.01953125,0,0
-2.76912996923784E-05,1.13195947051281E-05,10.01953125,0,0
-2.48149026447209E-05,8.441921636404E-06,10.01953125,0,0
-2.81158390862402E-05,9.35944717639359E-06,10.01953125,0,0
-2.53005764534464E-05,8.81687356013572E-06,10.01953125,0,0
-2.52259142143885E-05,9.30518945096992E-06,10.01953125,0,0
-2.44666207436239E-05,8.90328192326706E-06,10.01953125,0,0
-2.43345821218099E-05,9.40070094657131E-06,10.01953125,0,0
-2.3606695322087E-05,1.03139645943884E-05,10.01953125,0,0
-2.2043186618248E-05,1.00600200312329E-05,10.01953125,0,0
-2.23727383854566E-05,1.03593538369751E-05,10.01953125,0,0
-2.1373009076342E-05,9.93615412880899E-06,10.01953125,0,0
-2.27936052397126E-05,9.9833005151595E-06,10.01953125,0,0
-2.16754851862788E-05,8.9532177298679E-06,10.01953125,0,0
-2.217553628725E-05,9.28006920730695E-06,10.01953125,0,0
-2.15746895264601E-05,8.81245614436921E-06,10.01953125,0,0
-2.38003030972322E-05,8.90469709702302E-06,10.01953125,0,0
-2.42007627093699E-05,7.9472411016468E-06,10.01953125,0,0
-2.48820906563196E-05,7.95685355114983E-06,10.01953125,0,0
-2.44775983446743E-05,8.69973791850498E-06,10.01953125,0,0
-2.61279747064691E-05,9.8334048743709E-06,10.01953125,0,0
-2.59824282693444E-05,8.99277256394271E-06,10.01953125,0,0
-2.41395719058346E-05,7.96148651716067E-06,10.01953125,0,0
-2.3036111088004E-05,7.7227068686625E-06,10.01953125,0,0
-2.36668802244822E-05,8.14695795270382E-06,10.01953125,0,0
-1.86645793291973E-05,6.40572807242279E-06,10.01953125,0,0
-2.50525790761458E-05,8.5630381363444E-06,10.01953125,0,0
-1.77390775206732E-05,6.42708255327307E-06,10.01953125,0,0
-2.36541527556255E-05,8.15857038105605E-06,10.01953125,0,0
-2.06476270250278E-05,6.77844536767225E-06,10.01953125,0,0
-2.40248791669728E-05,8.62395245349035E-06,10.01953125,0,0
-2.27868713409407E-05,8.33282956591574E-06,10.01953125,0,0
-2.5617615392548E-05,8.79950857779477E-06,10.01953125,0,0
-2.67410123342415E-05,1.00232591648819E-05,10.01953125,0,0
-2.70000491582323E-05,1.33709481815458E-05,10.01953125,0,0
-2.64868231170112E-05,1.6173571566469E-05,10.01953125,0,0
-2.51302117248997E-05,1.66092650033534E-05,10.01953125,0,0
-2.58852069237037E-05,1.55104698933428E-05,10.01953125,0,0
-2.5071660274989E-05,1.36691005536704E-05,10.01953125,0,0
-2.54221395152854E-05,1.32648192447959E-05,10.01953125,0,0
-2.25201638386352E-05,1.17720628622919E-05,10.01953125,0,0
-2.22981652768794E-05,1.03479624158354E-05,10.01953125,0,0
-2.1623649445246E-05,8.93707510840613E-06,10.01953125,0,0
-2.40054905589204E-05,9.4768784038024E-06,10.01953125,0,0
-2.48542182816891E-05,9.07965113583487E-06,10.01953125,0,0
-2.63075253315037E-05,8.0566151154926E-06,10.01953125,0,0
-2.52466579695465E-05,6.35162541584577E-06,10.01953125,0,0
-2.49948552664137E-05,7.13792633177945E-06,10.01953125,0,0
-2.46132440224756E-05,7.95498453953769E-06,10.01953125,0,0
-2.49241038545733E-05,6.66868663756759E-06,10.01953125,0,0
-2.41024936258327E-05,4.94888263347093E-06,10.01953125,0,0
-2.26909942284692E-05,5.38128824700834E-06,10.01953125,0,0
-1.83899719559122E-05,5.31953764948412E-06,10.01953125,0,0
-2.69036372628761E-05,8.58941893966403E-06,10.01953125,0,0
-2.08127130463254E-05,7.92114497016883E-06,10.01953125,0,0
-2.48104097408941E-05,8.68490769789787E-06,10.01953125,0,0
-2.11233837035252E-05,7.3751589297899E-06,10.01953125,0,0
-2.35263341892278E-05,8.92710158950649E-06,10.01953125,0,0
-2.09447607630864E-05,8.73475619300734E-06,10.01953125,0,0
-2.13599469134351E-05,9.27938071981771E-06,10.01953125,0,0
-2.07755674637156E-05,9.51311267272104E-06,10.01953125,0,0
-2.14692299778108E-05,9.87818657449679E-06,10.01953125,0,0
-2.25850817514583E-05,1.12129400804406E-05,10.01953125,0,0
-2.22361777559854E-05,1.24744119602838E-05,10.01953125,0,0
-2.2680909751216E-05,1.31613169287448E-05,10.01953125,0,0
-2.19497760554077E-05,1.24073449114803E-05,10.01953125,0,0
-2.35982497542864E-05,1.21332286653342E-05,10.01953125,0,0
-2.23655115405563E-05,1.18242833195836E-05,10.01953125,0,0
-2.26106803893344E-05,1.31675560623989E-05,10.01953125,0,0
-2.2292213543551E-05,1.47093624036643E-05,10.01953125,0,0
-2.44944512814982E-05,1.7000398656819E-05,10.01953125,0,0
-2.45415612880606E-05,1.79123107955093E-05,10.01953125,0,0
-2.4707849661354E-05,1.73911066667642E-05,10.01953125,0,0
-2.28172266361071E-05,1.58334514708258E-05,10.01953125,0,0
-2.23147362703457E-05,1.50402247527381E-05,10.01953125,0,0
-2.25782932830043E-05,1.53995970322285E-05,10.01953125,0,0
-2.39400687860325E-05,1.68696751643438E-05,10.01953125,0,0
-2.36140203924151E-05,1.79088383447379E-05,10.01953125,0,0
-2.32176043937216E-05,1.72480795299634E-05,10.01953125,0,0
-1.87907171493862E-05,1.27766252262518E-05,10.01953125,0,0
-2.67035447905073E-05,1.75545646925457E-05,10.01953125,0,0
-2.12401246244553E-05,1.22553710752982E-05,10.01953125,0,0
-2.78692896245047E-05,1.42492754093837E-05,10.01953125,0,0
-2.48197320615873E-05,1.04710061350488E-05,10.01953125,0,0
-2.68794119619997E-05,1.31324668473098E-05,10.01953125,0,0
-2.42888181674061E-05,1.33649273266201E-05,10.01953125,0,0
-2.62857247435022E-05,1.56317637447501E-05,10.01953125,0,0
-2.68288622464752E-05,1.48933440868859E-05,10.01953125,0,0
-2.66654515144182E-05,1.35280297399731E-05,10.01953125,0,0
-2.54209280683426E-05,1.21867369671236E-05,10.01953125,0,0
-2.39726050494937E-05,1.07559153548209E-05,10.01953125,0,0
-2.50917255470995E-05,1.06524612419889E-05,10.01953125,0,0
-2.46499348577345E-05,9.9350809250609E-06,10.01953125,0,0
-2.56693747360259E-05,1.12010402517626E-05,10.01953125,0,0
-2.39669971051626E-05,1.12867091957014E-05,10.01953125,0,0
-2.43105423578527E-05,1.33616895254818E-05,10.01953125,0,0
-2.34848630498163E-05,1.3761930858891E-05,10.01953125,0,0
-2.52320187428268E-05,1.35859327201615E-05,10.01953125,0,0
-2.47603820753284E-05,1.07481191662373E-05,10.01953125,0,0
-2.46185518335551E-05,1.01617742984672E-05,10.01953125,0,0
-2.28543813136639E-05,1.02871863418841E-05,10.01953125,0,0
-2.29081088036764E-05,1.07748446680489E-05,10.01953125,0,0
-2.35375919146463E-05,1.02806961876922E-05,10.01953125,0,0
-2.40830740949605E-05,1.06776624306804E-05,10.01953125,0,0
-2.27260279643815E-05,1.08899866972934E-05,10.01953125,0,0
-2.24118048208766E-05,1.17887584565324E-05,10.01953125,0,0
-1.81198229256552E-05,1.07750065581058E-05,10.01953125,0,0
-2.55943214142462E-05,1.7109579857788E-05,10.01953125,0,0
-1.85503085958771E-05,1.53546934598126E-05,10.01953125,0,0
-2.19645789911738E-05,1.73628050106345E-05,10.01953125,0,0
-1.87348305189516E-05,1.34720858113724E-05,10.01953125,0,0
-2.31095618801191E-05,1.34550282382406E-05,10.01953125,0,0
-2.23568222281756E-05,1.20921640700544E-05,10.01953125,0,0
-2.3549517209176E-05,1.31314645841485E-05,10.01953125,0,0
