biceps_emg, triceps_emg, subject_position, position_estimate, brace_position
-2.83060307992855E-05,8.61576700117439E-05,0,8.53822889938062,0
-2.92749682557769E-05,6.32626106380485E-05,0,8.53764642567926,0
-2.90867756120861E-05,4.13198649766855E-05,0,8.53793248306388,0
-2.82827895716764E-05,2.63874371739803E-05,0,8.53778427620829,0
-2.490545011824E-05,9.27191103983205E-06,0,8.53742429791894,0
-2.01240272872383E-05,-6.21312892690185E-06,0,8.53696379264359,0
-1.02283447631635E-05,-1.34322344820248E-05,0,8.53645787038302,0
-1.09503007479361E-05,-3.59099904017057E-05,0,8.53593308870694,0
-5.66368862564559E-06,-6.21986473561265E-05,0,8.53540126821286,0
-1.28648016470834E-05,-8.52677840157412E-05,0,8.53486642410508,0
-1.6104710084619E-05,-8.73685421538539E-05,0,8.53432825523109,0
-2.14613210118841E-05,-8.23833615868352E-05,0,8.53378391125572,0
-2.09292047657073E-05,-6.35057222098112E-05,0,8.53322889832472,0
-2.09641621040646E-05,-3.96840332541615E-05,0,8.53265755339496,0
-1.94685635506175E-05,-2.15324143937323E-05,0,8.53206330233178,0
-1.91086273844121E-05,-1.19986225399771E-05,0,8.53143880933603,0
-1.96862783923279E-05,-4.80360586152528E-06,0,8.53077607148307,0
-2.0125004084548E-05,2.94596497951716E-06,0,8.53006648527681,0
-2.0505014617811E-05,9.15157033887226E-06,0,8.52930089868249,0
-1.98140787688317E-05,1.28829960885923E-05,0,8.52846965537097,0
-2.08957990253111E-05,1.3614235285786E-05,0,8.52756263455262,0
-2.10582165891537E-05,1.60112849698635E-05,0,8.52656928810222,0
-2.27866785280639E-05,1.77525907929521E-05,0,8.52547867582581,0
-2.27776436076965E-05,1.93455070984783E-05,0,8.52427949930696,0
-2.33110149565618E-05,1.94572330656229E-05,0,8.52296013456295,0
-2.30411169468425E-05,2.05015021492727E-05,0,8.52150866362641,0
-2.46004528889898E-05,2.03654963115696E-05,0,8.51991290512199,0
-2.46607942244736E-05,2.09347563213669E-05,0,8.51816044388423,0
-2.416883216938E-05,2.16575263038976E-05,0,8.51623865964007,0
-2.3438109565177E-05,2.29819997912273E-05,0,8.51413475477911,0
-2.40738536376739E-05,2.29264060180867E-05,0,8.51183578123454,0
-2.45180290221469E-05,2.21873378905002E-05,0,8.50932866648623,0
-2.37296990235336E-05,2.3035921913106E-05,0,8.50660023870303,0
-1.76939884113381E-05,1.91174403880723E-05,0,8.50363725104427,0
-2.50310858973535E-05,2.61817349382909E-05,0,8.50042640512757,0
-2.07485099963378E-05,1.86204633791931E-05,0,8.49695437368616,0
-2.68481107923435E-05,2.41673369600903E-05,0,8.49320782242411,0
-2.29776651394786E-05,2.02719184017042E-05,0,8.48917343108529,0
-2.62165631284006E-05,2.29090910579544E-05,0,8.48483791375427,0
-2.45305836870102E-05,1.99444002646487E-05,0,8.48018803839845,0
-2.52715708484175E-05,2.09603658731794E-05,0,8.47521064566632,0
-2.42000514845131E-05,2.02652245206991E-05,0,8.46989266696016,0
-2.51284982368816E-05,1.90120808838401E-05,0,8.46422114179167,0
-2.61980912910076E-05,1.63258828251855E-05,0,8.4581832344353,0
-2.54772130574565E-05,1.57509985001525E-05,0,8.45176624989704,0
-2.64398022409296E-05,2.04840798687655E-05,0,8.44495764920683,0
-2.6200788852293E-05,2.52841364272172E-05,0,8.43774506404902,0
-2.7644924557535E-05,2.99653129332E-05,0,8.43011631074812,0
-2.65683229372371E-05,2.73998302873224E-05,0,8.42205940361783,0
-2.7906879040529E-05,2.20607907976955E-05,0,8.41356256768725,0
-2.73684727289947E-05,1.27678704302525E-05,0,8.40461425082109,0
-2.80807780654868E-05,9.33024784899317E-06,0,8.3952031352415,0
-2.61301502177957E-05,9.90827447822085E-06,0,8.38531814846495,0
-2.50840530497953E-05,1.44542345879017E-05,0,8.37494847367084,0
-2.4164599381038E-05,1.65556757565355E-05,0,8.36408355950881,0
-2.55318318522768E-05,1.84301679837517E-05,0,8.35271312935822,0
-2.52654626820004E-05,1.82022668013815E-05,0,8.34082719005557,0
-2.4651510102558E-05,1.71837800735375E-05,0,8.32841604009691,0
-2.37976546486607E-05,1.52128313857247E-05,0,8.3154702773278,0
-2.3669665097259E-05,1.46811007653014E-05,0,8.30198080613661,0
-1.948441422428E-05,1.07886189653073E-05,0,8.28793884415746,0
-2.76567807304673E-05,1.51240765262628E-05,0,8.27333592849547,0
-2.18662335100817E-05,1.19976039059111E-05,0,8.25816392148924,0
-2.88259725493845E-05,1.43500128615415E-05,0,8.2424150160169,0
-2.60700144281145E-05,1.06176867120666E-05,0,8.22608174035761,0
-2.76839655271033E-05,1.20982203952735E-05,0,8.2091569626234,0
-2.40739191212924E-05,1.31242095449124E-05,0,8.19163389476698,0
-2.50546054303413E-05,1.74438882822869E-05,0,8.17350609617744,0
-2.49078857450513E-05,2.00151862372877E-05,0,8.15476747687787,0
-2.50300927291391E-05,2.1594625650323E-05,0,8.13541230033054,0
-2.45304454438156E-05,2.27586260734824E-05,0,8.11543518586094,0
-2.37889471463859E-05,2.22104390559252E-05,0,8.09483111071433,0
-2.62658650171943E-05,2.15424206544412E-05,0,8.07359541175019,0
-2.78285770036746E-05,1.97193257918116E-05,0,8.05172378678525,0
-3.04947607219219E-05,1.87995501619298E-05,0,8.02921229559867,0
-2.94108667731052E-05,1.71756128111156E-05,0,8.00605736060408,0
-2.96097568934783E-05,1.56709884322481E-05,0,7.98225576719926,0
-2.80958483926952E-05,5.42305497219786E-06,0,7.957804663806,0
-2.84800335066393E-05,-9.90433818515157E-06,0,7.93270156160518,0
-2.65035323536722E-05,-1.62066480697831E-05,0,7.90694433397685,0
-2.65993712673662E-05,-4.72735655421275E-06,0,7.88053121565783,0
-2.6298939701519E-05,8.53274195833365E-06,0,7.85346080162138,0
-2.7106934794574E-05,1.31643091663136E-05,0,7.8257320456883,0
-2.62081830442185E-05,1.12487305159448E-05,0,7.79734425888162,0
-2.56158582487842E-05,9.30648002395174E-06,0,7.76829710752893,0
-2.53324524237541E-05,8.29904638521839E-06,0,7.73859061112179,0
-2.56108323810622E-05,1.25954211398493E-05,0,7.70822513994368,0
-2.2067288227845E-05,3.01381605822826E-05,0,7.6772014124704,0
-3.2783569622552E-05,6.33516974630766E-05,0,7.64552049255192,0
-2.49934037128696E-05,6.98441290296614E-05,0,7.61318378638642,0
-2.74367503152462E-05,8.44869791762903E-05,0,7.58019303929064,0
-2.16576663660817E-05,0.000106211002275813,0,7.54655033227475,0
-2.65427697740961E-05,0.000126508937682956,0,7.51225807843239,0
-2.67360992438626E-05,0.000112601541331969,0,7.47731901914914,0
-2.75529964710586E-05,7.24728452041745E-05,0,7.44173622013791,0
-2.50343673542375E-05,2.65805283561349E-05,0,7.40551306731073,0
-2.36660798691446E-05,-1.15206430564285E-05,0,7.36865326249063,0
-2.35898951359559E-05,-4.80238850286696E-05,0,7.33116081897127,0
-2.23713814193616E-05,-8.82641397765838E-05,0,7.29304005693404,0
-2.1335858036764E-05,-0.000119013100629672,0,7.254295598726,0
-1.76375488081248E-05,-0.000127018429338932,0,7.21493236400621,0
-1.64176071848487E-05,-0.000113479494757485,0,7.17495556476698,0
-1.37617207656149E-05,-9.9944620160386E-05,0,7.13437070023788,0
-1.4762040336791E-05,-8.88242793735117E-05,0,7.09318355167482,0
-1.53850778588094E-05,-7.66254743211903E-05,0,7.05140017704389,0
-1.91230519703822E-05,-5.83638575335499E-05,0,7.00902690560425,0
-2.10166199394735E-05,-4.43836397607811E-05,0,6.96607033239621,0
-2.37845160881989E-05,-3.56375530827791E-05,0,6.92253731264139,0
-2.40450663113734E-05,-2.95408335659886E-05,0,6.87843495605818,0
-2.47642983595142E-05,-1.75762397702783E-05,0,6.83377062110094,0
-2.5317707695649E-05,-2.29539546126034E-06,0,6.78855190912682,0
-2.55262257269351E-05,9.58657255978324E-06,0,6.74278665849588,0
-2.43323793256423E-05,1.39541889438988E-05,0,6.6964829386096,0
-2.45900646405062E-05,1.44803780131042E-05,0,6.64964904389379,0
-2.13959356187843E-05,1.19919668577495E-05,0,6.60229348772861,0
-3.12804186251014E-05,1.79397229658207E-05,0,6.55442499633318,0
-2.31223366427002E-05,1.95127431652509E-05,0,6.50605250260801,0
-2.63164711213904E-05,3.25817600241862E-05,0,6.45718513994026,0
-2.16622374864528E-05,3.74115697923116E-05,0,6.40783223597736,0
-2.46654726652196E-05,4.26558217441197E-05,0,6.35800330637137,0
-2.25050262088189E-05,3.88630069210194E-05,0,6.30770804850088,0
-2.16446642298251E-05,2.4669188860571E-05,0,6.25695633517334,0
-1.86907909665024E-05,8.91513991518877E-06,0,6.20575820831219,0
-1.87210134754423E-05,7.61623869038885E-06,0,6.15412387263365,0
-2.07634184334893E-05,1.57432168634841E-05,0,6.10206368931546,0
-2.27155378524913E-05,2.26123320317129E-05,0,6.0495881696635,0
-2.46474519371986E-05,2.60730521404184E-05,0,5.99670796877895,0
-2.2771033400204E-05,2.61846907960717E-05,0,5.94343387923007,0
-2.23711504077073E-05,2.75396141660167E-05,0,5.88977682473201,0
-2.08639357879292E-05,2.79107680398738E-05,0,5.83574785383889,0
-2.31417398026679E-05,2.87484108412173E-05,0,5.78135813364998,0
-2.3029999283608E-05,2.68398835032713E-05,0,5.72661894353511,0
-2.36083615163807E-05,2.5563304006937E-05,0,5.67154166888149,0
-2.16674452531151E-05,2.47024036070798E-05,0,5.61613779486543,0
-2.07023149414454E-05,2.66093975369586E-05,0,5.56041890025225,0
-1.84098771569552E-05,2.80272670352133E-05,0,5.50439665122662,0
-1.8800186808221E-05,2.89706695184577E-05,0,5.4480827952572,0
-1.94075109902769E-05,2.74788308161078E-05,0,5.39148915499782,0
-1.9938473997172E-05,2.65626131294994E-05,0,5.33462762222802,0
-1.95244465430733E-05,2.6556697775959E-05,0,5.27751015183572,0
-1.87894493137719E-05,2.91407468466787E-05,0,5.22014875584454,0
-1.52816592162708E-05,3.47178247466218E-05,0,5.16255549748792,0
-2.30869136430556E-05,6.53862880426459E-05,0,5.10474248533309,0
-1.96633918676525E-05,7.0266098191496E-05,0,5.04672186745672,0
-2.49015192821389E-05,7.74601721786894E-05,0,4.98850582567478,0
-2.352153933316E-05,6.29700516583398E-05,0,4.9301065698286,0
-2.62234589172294E-05,5.59004038223065E-05,0,4.87153633212924,0
-2.43456106545636E-05,4.45302976004314E-05,0,4.81280736156208,0
-2.43116228375584E-05,3.71638780052308E-05,0,4.75393191835362,0
-2.44370257860282E-05,2.40670542552834E-05,0,4.69492226850234,0
-2.66262868535705E-05,4.42503278463846E-06,0,4.6357906783755,0
-2.86402555502718E-05,-2.72538873105077E-05,0,4.57654940937363,0
-2.7413369025453E-05,-6.37884440948255E-05,0,4.51721071266439,0
-2.59648531937273E-05,-7.68110185163096E-05,0,4.45778682398742,0
-2.27603213716066E-05,-6.1799626564607E-05,0,4.39828995853143,0
-2.14427127502859E-05,-3.44813452102244E-05,0,4.33873230588519,0
-1.98077959794318E-05,-2.25350686378079E-05,0,4.27912602506325,0
-1.99041896848939E-05,-1.56155838340055E-05,0,4.21948323960817,0
-1.88582653208869E-05,-6.35703963780543E-06,0,4.15981603277015,0
-2.15985346585512E-05,1.07707928691525E-05,0,4.10013644276543,0
-2.45018454734236E-05,2.53010784945218E-05,0,4.0404564581149,0
-2.62806170212571E-05,3.81179706891999E-05,0,3.98078801306329,0
-2.47626976488391E-05,4.46095618826803E-05,0,3.9211429830811,0
-2.41333436861169E-05,4.97826913488097E-05,0,3.86153318044896,0
-2.4737099010963E-05,5.51231605641078E-05,0,3.80197034992601,0
-2.57791216426995E-05,6.30006325081922E-05,0,3.7424661645028,0
-2.49326276389183E-05,6.93422116455622E-05,0,3.68303222123953,0
-2.36940413742559E-05,7.25342615623958E-05,0,3.62368003718979,0
-2.0012654204038E-05,5.99809172854293E-05,0,3.5644210454117,0
-2.89724575850414E-05,8.38194027892314E-05,0,3.50526659106558,0
-2.16864864341915E-05,5.58652172912844E-05,0,3.44622792759946,0
-2.59660955634899E-05,5.4448792070616E-05,0,3.3873162130229,0
-2.20214387809392E-05,4.49704793936689E-06,0,3.32854250626882,0
-2.41632678807946E-05,-4.33635250374209E-05,0,3.26991776364507,0
-1.96873479580972E-05,-8.74901525094174E-05,0,3.21145283537477,0
-1.86323068191996E-05,-8.41982473502867E-05,0,3.15315846222651,0
-1.92310399143025E-05,-7.17183720553294E-05,0,3.09504527223459,0
-2.28733078984078E-05,-6.09891285421327E-05,0,3.03712377750857,0
-2.55962477240246E-05,-5.52145429537632E-05,0,2.97940437113372,0
-2.37366057262989E-05,-5.03557348565664E-05,0,2.92189732416046,0
-2.10323469218565E-05,-3.57540739059914E-05,0,2.86461278268418,0
-1.70943148987135E-05,-2.29505294555565E-05,0,2.80756076501515,0
-1.72816780832363E-05,-5.06118340126704E-06,0,2.75075115893865,0
-1.69627182913246E-05,2.44895682044444E-06,0,2.6941937190645,0
-1.94767744687852E-05,1.11687650132808E-05,0,2.63789806426759,0
-2.04910811589798E-05,9.39570327318506E-06,0,2.58187367521734,0
-2.37760868913028E-05,1.34201018227031E-05,0,2.52612989199696,0
-2.44129514612723E-05,1.27043040265562E-05,0,2.47067591181205,0
-2.49082477239426E-05,1.65857563843019E-05,0,2.41552078678736,0
-2.39765304286266E-05,1.60640865942696E-05,0,2.36067342185354,0
-2.47403640969424E-05,1.80402221303666E-05,0,2.30614257272102,0
-2.60753604379715E-05,1.72615327755921E-05,0,2.25193684394204,0
-2.88420014840085E-05,1.93534870049916E-05,0,2.19806468706016,0
-2.90716125164181E-05,1.98472716874676E-05,0,2.14453439884682,0
-2.65884555119555E-05,1.9948052795371E-05,0,2.09135411962355,0
-1.98806719708955E-05,1.52465909195598E-05,0,2.03853183167156,0
-2.81193915725453E-05,2.00313479581382E-05,0,1.98607535772557,0
-2.18502773350338E-05,1.54788849613396E-05,0,1.93399235955269,0
-2.78927218460012E-05,2.16544194699964E-05,0,1.88229033661574,0
-2.32656493608374E-05,1.92328479897697E-05,0,1.83097662481911,0
-2.51215860771481E-05,2.09731351787923E-05,0,1.78005839533922,0
-2.26515094254864E-05,1.97410354303429E-05,0,1.72954265353584,0
-2.41620109591167E-05,2.06919630727498E-05,0,1.67943623794524,0
-2.46684758167248E-05,1.98281577468151E-05,0,1.62974581935432,0
-2.49365348281572E-05,1.95194352272665E-05,0,1.58047789995369,0
-2.43569083977491E-05,1.91137914953288E-05,0,1.53163881257157,0
-2.43555805354845E-05,1.66130648722174E-05,0,1.48323471998474,0
-2.68625735770911E-05,1.54977442434756E-05,0,1.43527161430738,0
-2.61393233813578E-05,1.36165517687914E-05,0,1.38775531645661,0
-2.65489597950364E-05,1.40198435474304E-05,0,1.34069147569404,0
-2.54993556154659E-05,1.27074072224787E-05,0,1.29408556924112,0
-2.68973290076246E-05,1.39019703055965E-05,0,1.24794290197037,0
-2.48757714871317E-05,1.44391069625271E-05,0,1.20226860616821,0
-2.43163012783043E-05,1.56820333359065E-05,0,1.15706764137034,0
-2.29096767725423E-05,1.4222348909243E-05,0,1.11234479426856,0
-2.33570135605987E-05,1.45929270729539E-05,0,1.06810467868658,0
-2.22576472879155E-05,1.62927244673483E-05,0,1.02435173562708,0
-2.26207557716407E-05,2.01185521291336E-05,0,0.981090233385288,0
-2.31266749324277E-05,2.17329197766958E-05,0,0.938324267730315,0
-2.47803363890853E-05,2.0766581656062E-05,0,0.896057762152579,0
-2.63832498603733E-05,1.96400742424885E-05,0,0.854294468176586,0
-2.73329715128057E-05,2.13780676858732E-05,0,0.813037965736535,0
-1.97373337869067E-05,2.07021603273461E-05,0,0.772291663616979,0
-2.56991006608587E-05,3.01940272038337E-05,0,0.73205879995375,0
-1.83215524884872E-05,2.24350351345493E-05,0,0.692342442796235,0
-2.53487614827463E-05,2.60016458923928E-05,0,0.653145490729684,0
-2.15842374018393E-05,2.0970735931769E-05,0,0.61447067355489,0
-2.51767050940543E-05,2.40905865211971E-05,0,0.57632055302753,0
-2.33504524658201E-05,2.44148704950931E-05,0,0.538697523652197,0
-2.57818010140909E-05,2.84491889033234E-05,0,0.50160381353225,0
-2.59027601714479E-05,2.77454164461233E-05,0,0.465041485273839,0
-2.64821337623289E-05,1.27251523736049E-05,0,0.429012436943284,0
-2.69525044132024E-05,-1.48451917993953E-05,0,0.393518403075067,0
-2.53065518336371E-05,-3.21913466905244E-05,0,0.358560955732865,0
-2.44001221290091E-05,-2.70889195235213E-05,0,0.324141505618511,0
-2.20142610487528E-05,-1.61887146532536E-05,0,0.290261303230029,0
-2.27222226385493E-05,-8.90890623850282E-06,0,0.256921440067245,0
-2.1526111595449E-05,-8.10214714874746E-06,0,0.224122849882159,0
-2.24355826503597E-05,-3.13573559651559E-06,0,0.191866309976516,0
-2.17011602217099E-05,3.5757827845373E-06,0,0.160152442541433,0
-2.46239869738929E-05,1.45913445521728E-05,0,0.128981716040323,0
-2.63875717791962E-05,2.3709872039035E-05,0,0.0983544466336907,0
-2.88084684143541E-05,2.98999439110048E-05,0,0.0682707996430671,0
-2.77393919532187E-05,2.44982838921715E-05,0,0.0387307910565692,0
-2.71391618298367E-05,9.85413771559251E-06,0,0.00973428907083766,0
-2.55740615102695E-05,-1.13077419428009E-06,0,-0.018718984329488,0
-2.55620816460578E-05,1.98920042748796E-06,0,-0.046629451756522,0
-2.7005835363525E-05,6.67650192553992E-06,0,-0.0739976787689253,0
-3.05660469166469E-05,4.32972501585027E-06,0,-0.100824372189468,0
-2.81844859273406E-05,4.71303792437539E-07,0,-0.127110378387822,0
-3.79469529434573E-05,3.15078295898275E-06,0,-0.152856681533865,0
-2.24250616156496E-05,8.11200879979879E-06,0,-0.178064401820192,0
-2.44023813138483E-05,7.93916024122154E-06,0,-0.202734793655287,0
-1.61322623171145E-05,1.24324151329347E-06,0,-0.226869243830108,0
-2.02094488486182E-05,-3.79176867681963E-06,0,-0.250469269655529,0
-1.93155756278429E-05,-1.36739640765882E-06,0,-0.273536517075857,0
-2.21132067963481E-05,7.00898226568825E-06,0,-0.296072758757105,0
-2.23192419070983E-05,2.15307773032691E-05,0,-0.318079892151762,0
-2.48350224865135E-05,4.20057767769322E-05,0,-0.339559937540816,0
-2.83502777165268E-05,6.71088200761005E-05,0,-0.360515036055723,0
-2.92339409497799E-05,9.03893960639834E-05,0,-0.380947447677663,0
-3.09758870571386E-05,9.89962063613348E-05,0,-0.400859549219272,0
-2.91923770419089E-05,8.93576216185465E-05,0,-0.420253832287538,0
-2.94579458568478E-05,6.8864603235852E-05,0,-0.43913290122928,0
-2.55550439760555E-05,4.53434477094561E-05,0,-0.457499471061973,0
-2.44129441853147E-05,2.12184331758181E-05,0,-0.475356365387335,0
-2.13789135159459E-05,-8.11393874755595E-06,0,-0.492706514292775,0
-2.27048676606501E-05,-4.42417767771985E-05,0,-0.509552952239131,0
-2.30510668188799E-05,-7.61469636927359E-05,0,-0.525898815935825,0
-2.5070425181184E-05,-9.16248027351685E-05,0,-0.54174734220605,0
-2.35802162933396E-05,-9.02317915461026E-05,0,-0.557101865839441,0
-2.31794201681623E-05,-7.46861260267906E-05,0,-0.571965817437434,0
-2.22509825107409E-05,-4.4859556510346E-05,0,-0.586342721249976,0
-2.27666096179746E-05,-1.34860201796982E-05,0,-0.60023619300514,0
-2.38642714975867E-05,1.56766304826306E-07,0,-0.613649937732297,0
-2.59863463725196E-05,-8.58507462453417E-07,0,-0.626587747581278,0
-2.30330442718696E-05,-1.76042726707237E-06,0,-0.639053499634749,0
-3.20211220241617E-05,-6.82910695104511E-07,0,-0.651051153718638,0
-2.31114845519187E-05,3.41925488100969E-06,0,-0.662584750209151,0
-3.01451764244121E-05,5.00202577313758E-06,0,-0.673658407837591,0
-2.67693249043077E-05,6.33676972938702E-06,0,-0.684276321495431,0
-2.78550724033266E-05,7.97566735855071E-06,0,-0.694442760037016,0
-2.12357026612153E-05,1.12808811536524E-05,0,-0.704162064084702,0
-2.0347139070509E-05,1.45459898703848E-05,0,-0.713438643834956,0
-2.12077920878073E-05,1.80250062840059E-05,0,-0.722276976866798,0
-2.33578502957243E-05,2.13741550396662E-05,0,-0.730681605953052,0
-2.38119409914361E-05,2.46929539571283E-05,0,-0.73865713687677,0
-2.0534913346637E-05,2.74532958428608E-05,0,-0.746208236250189,0
-1.92341631191084E-05,2.86703925667098E-05,0,-0.753339629340853,0
-1.73672160599381E-05,2.74738267762586E-05,0,-0.76005609790337,0
-1.87041187018622E-05,2.50030534516554E-05,0,-0.766362478017814,0
-1.80449642357416E-05,2.64423651969992E-05,0,-0.772263657936984,0
-2.02418668777682E-05,3.30736475007143E-05,0,-0.777764575939927,0
-1.99078986042878E-05,3.60698104486801E-05,0,-0.78287021819617,0
-2.10772905120393E-05,2.22816397581482E-05,0,-0.787585616639137,0
-2.03891868295614E-05,-1.86641022992262E-06,0,-0.791915846849678,0
-2.1494806787814E-05,-1.22889814520022E-05,0,-0.795866025951834,0
-2.15334748645546E-05,-2.88031742456951E-07,0,-0.7994413105182,0
-2.34736507991329E-05,1.61350690177642E-05,0,-0.802646894489149,0
-2.5187102437485E-05,2.43018112087157E-05,0,-0.805488007104402,0
-2.69552056124667E-05,2.74782214546576E-05,0,-0.807969910848101,0
-2.59942480624886E-05,2.79324540315429E-05,0,-0.810097899407698,0
-2.3002872694633E-05,2.43941121880198E-05,0,-0.811877295648582,0
-1.62281157827238E-05,1.98287016246468E-05,0,-0.813313449601933,0
-2.30038367590168E-05,2.93510111077921E-05,0,-0.814411736469885,0
-1.75732511706883E-05,2.04873158509145E-05,0,-0.815177554646481,0
-2.20699039346073E-05,2.02586415980477E-05,0,-0.815616323755133,0
-2.04806437977823E-05,1.46725606100517E-05,0,-0.815733482704451,0
-2.53251400863519E-05,2.38120737776626E-05,0,-0.815534487759892,0
-2.48713895416586E-05,3.80374440283049E-05,0,-0.815024810635132,0
-2.59240860032151E-05,5.94569573877379E-05,0,-0.81420993660158,0
-2.48106789513258E-05,7.68539975979365E-05,0,-0.813095362616959,0
-2.3759215764585E-05,9.12503091967665E-05,0,-0.811686595473128,0
-2.43011872953502E-05,9.62375270319171E-05,0,-0.809989149964886,0
-2.56306757364655E-05,8.815366163617E-05,0,-0.80800854707733,0
-2.724531077547E-05,7.79656911618076E-05,0,-0.805750312195464,0
-2.52784775511827E-05,7.27107690181583E-05,0,-0.803219973334562,0
-2.40149711316917E-05,6.94917325745337E-05,0,-0.800423059391883,0
-2.19101093534846E-05,4.69815022370312E-05,0,-0.797365098421307,0
-2.36731102631893E-05,-4.81785264128121E-07,0,-0.794051615928395,0
-2.50119883276057E-05,-6.64867475279607E-05,0,-0.790488133189263,0
-2.65571961790556E-05,-0.000122419776744209,0,-0.7866801655916,0
-2.52325844485313E-05,-0.000154635374201462,0,-0.782633220998528,0
-2.49194163188804E-05,-0.000156116395373829,0,-0.778352798135448,0
-2.25282201427035E-05,-0.000134347050334327,0,-0.773844385001541,0
-1.99854366655927E-05,-9.75570292212069E-05,0,-0.769113457303727,0
-1.74511260411236E-05,-6.18221165495925E-05,0,-0.764165476916412,0
-1.73778062162455E-05,-3.87353029509541E-05,0,-0.759005890365483,0
-1.85263288585702E-05,-3.1969877454685E-05,0,-0.753640127336856,0
-2.12080885830801E-05,-3.00822812278057E-05,0,-0.748073599210812,0
-2.11084679904161E-05,-1.60720246640267E-05,0,-0.742311697619629,0
-3.11698677251115E-05,-1.00088591352687E-05,0,-0.73635979303153,0
-2.39567198150326E-05,1.22945011753473E-05,0,-0.730223233359396,0
-2.66613678832073E-05,1.41986047310638E-05,0,-0.723907342594636,0
-1.85859280463774E-05,2.26257325266488E-05,0,-0.717417419467511,0
-1.92925344890682E-05,2.02724295377266E-05,0,-0.710758736131694,0
-1.9093617083854E-05,2.32297752518207E-05,0,-0.703936536875994,0
-2.2487307433039E-05,2.23426650336478E-05,0,-0.696956036861772,0
-2.31023386731977E-05,2.38381817325717E-05,0,-0.689822420886516,0
-2.38096636167029E-05,2.36535834119422E-05,0,-0.682540842173503,0
-2.41519683186198E-05,2.42342885030666E-05,0,-0.675116421188617,0
-2.28134886128828E-05,2.59928056038916E-05,0,-0.667554244482072,0
-2.2864072889206E-05,2.52038353210082E-05,0,-0.659859363557704,0
-2.20973197428975E-05,2.57146002695663E-05,0,-0.652036793768361,0
-2.3659527869313E-05,2.40291974478168E-05,0,-0.644091513237624,0
-2.33308946917532E-05,2.44905404542806E-05,0,-0.636028461808881,0
-2.58170675806468E-05,2.1865378585062E-05,0,-0.62785254001952,0
-2.59277403529268E-05,2.17449505726108E-05,0,-0.619568608102795,0
-2.68693711404921E-05,2.06595523195574E-05,0,-0.61118148501586,0
-2.52346453635255E-05,2.38746561080916E-05,0,-0.602695947494337,0
-2.54992555710487E-05,2.63833644567057E-05,0,-0.594116729133222,0
-2.50670218520099E-05,3.04246441373834E-05,0,-0.585448519495036,0
-2.61244567809626E-05,3.42550229106564E-05,0,-0.576695963243058,0
-2.59098997048568E-05,4.01281067752279E-05,0,-0.567863659301994,0
-2.56757830356946E-05,4.39244686276652E-05,0,-0.558956160044607,0
-2.48832711804425E-05,4.60864903288893E-05,0,-0.549977970504422,0
-2.38751072174637E-05,4.3439467845019E-05,0,-0.540933547615356,0
-1.92064726434182E-05,2.9396369427559E-05,0,-0.531827299476169,0
-2.75385264103534E-05,3.89868764614221E-05,0,-0.522663584641945,0
-2.1567620933638E-05,2.49974855250912E-05,0,-0.513446711441169,0
-2.66188926616451E-05,3.05618596030399E-05,0,-0.504180937318452,0
-2.33521859627217E-05,2.08251549338456E-05,0,-0.494870468203626,0
-2.77528324659215E-05,1.84814653039211E-05,0,-0.485519457905113,0
-2.58857617154717E-05,7.12120311163744E-07,0,-0.476132007529776,0
-2.59766802628292E-05,-4.43496492152917E-06,0,-0.466712164927263,0
-2.51248093263712E-05,1.40226984512992E-06,0,-0.457263924159407,0
-2.51911696977913E-05,1.2573348612932E-05,0,-0.447791224995467,0
-2.51475830737036E-05,1.90537666640012E-05,0,-0.438297952431432,0
-2.38187876675511E-05,1.84178607014474E-05,0,-0.428787936233648,0
-2.4260956706712E-05,1.71454048540909E-05,0,-0.419264950508113,0
-2.3291164325201E-05,1.38004043037654E-05,0,-0.4097327132931,0
-2.33077062148368E-05,1.70966650330229E-05,0,-0.400194886176254,0
-2.07986431632889E-05,1.80206861841725E-05,0,-0.390655073934874,0
-2.12733175430913E-05,1.73097650986165E-05,0,-0.381116824200987,0
-2.04811021831119E-05,7.22951835996355E-06,0,-0.371583627149136,0
-2.14787996810628E-05,1.03054310329753E-06,0,-0.362058915207066,0
-2.09835161513183E-05,-1.78141306150792E-06,0,-0.352546062790542,0
-2.2767913833377E-05,3.56486657437927E-06,0,-0.343048386060231,0
-2.36723826674279E-05,6.77784282743232E-06,0,-0.33356914270083,0
-2.47904044954339E-05,5.88675402468652E-06,0,-0.324111531723689,0
-2.22109192691278E-05,1.66843881288514E-06,0,-0.314678693290719,0
-1.88173489732435E-05,3.90192190025118E-06,0,-0.305273708560624,0
-1.83234969881596E-05,8.4919383880333E-06,0,-0.295899599556105,0
-2.01720449695131E-05,1.06475035863696E-05,0,-0.286559329053492,0
-1.75832956301747E-05,9.06172863324173E-06,0,-0.277255800492796,0
-2.52050522249192E-05,1.25628093883279E-05,0,-0.267991857908315,0
-1.9303193766973E-05,1.00004635896767E-05,0,-0.258770285880905,0
-2.29209672397701E-05,1.40363526952569E-05,0,-0.249593809509781,0
-1.83670781552792E-05,1.42379003591486E-05,0,-0.240465094404767,0
-2.0326950107119E-05,1.57803533511469E-05,0,-0.231386746697734,0
-1.84323034773115E-05,1.44250143421232E-05,0,-0.222361313074547,0
-2.02344908757368E-05,1.5446752513526E-05,0,-0.213391280825566,0
-2.07259599847021E-05,1.77800520759774E-05,0,-0.204479077914771,0
-2.12525428651134E-05,1.87670175364474E-05,0,-0.195627073068592,0
-2.18127242987975E-05,1.802892802516E-05,0,-0.186837575882448,0
-2.14691208384465E-05,1.74309207068291E-05,0,-0.178112836945062,0
-2.27155942411628E-05,1.84115069714608E-05,0,-0.169455047981562,0
-2.20514029933838E-05,1.78689406311605E-05,0,-0.160866342013307,0
-2.26817683142144E-05,1.72215495695127E-05,0,-0.152348793535301,0
-2.13884031836642E-05,1.3916009265813E-05,0,-0.143904418709951,0
-2.25702951865969E-05,7.67769233789295E-06,0,-0.135535175578413,0
-2.33004739129683E-05,-3.13961709252908E-06,0,-0.1272429642876,0
-2.65098897216376E-05,-1.00429915619316E-05,0,-0.119029627332868,0
-2.71319186140317E-05,-6.81685969539103E-06,0,-0.110896949817307,0
-2.67797422566218E-05,4.00054159399588E-06,0,-0.102846659725631,0
-2.35908773902338E-05,9.06975037651137E-06,0,-0.0948804282135395,0
-2.20634865399916E-05,5.81225958740106E-06,0,-0.0869998699113659,0
-2.18473142012954E-05,5.30367856299563E-07,0,-0.079206543243208,0
-2.34282870223979E-05,1.76313028532604E-06,0,-0.0715019507596062,0
-2.41065481532132E-05,9.36411925067659E-06,0,-0.0638875394837224,0
-2.46266718022525E-05,1.44917194120353E-05,0,-0.0563647012719533,0
-2.19213343370939E-05,7.33383967599366E-06,0,-0.0489347731871128,0
-3.2994728826452E-05,2.18556147046911E-06,0,-0.0415990378842022,0
-2.56613639066927E-05,-4.8414217417303E-06,0,-0.0343587240097012,0
-2.73609839496203E-05,5.68308314541355E-06,0,-0.0272150066123883,0
-2.04058978852117E-05,1.22783239930868E-05,0,-0.0201690075664762,0
-2.34388699027477E-05,1.74812939803815E-05,0,-0.0132217960058857,0
-2.20595193241024E-05,1.12870620796457E-05,0,-0.00637438877080719,0
-2.3965132641024E-05,5.79990819460363E-06,0,0.00037224913533192,0
-2.40841836784966E-05,4.28831845056266E-06,0,0.00701720407848308,0
-2.51917026616866E-05,8.23370555735892E-06,0,0.0135596133152328,0
-2.59427415585378E-05,1.20137883641291E-05,0,0.0199986645046731,0
-2.51206529355841E-05,1.18719872261863E-05,0,0.0263335952101523,0
-2.56817766057793E-05,1.07669438875746E-05,0,0.0325636923921107,0
-2.47455409407848E-05,9.45693318499252E-06,0,0.0386882918908392,0
-2.62473367911298E-05,1.04079035736504E-05,0,0.0447067779009636,0
-2.54768892773427E-05,9.54742517933482E-06,0,0.0506185824376478,0
-2.73113346338505E-05,9.58436885412084E-06,0,0.0564231847936227,0
-2.63727069977904E-05,7.47214107832406E-06,0,0.0621201109889806,0
-2.6731517209555E-05,6.8445215219981E-06,0,0.0677089332129718,0
-2.49210988840787E-05,1.18293883133447E-05,0,0.0731892692589661,0
-2.48195210588165E-05,3.0739298381377E-05,0,0.0785607819514465,0
-2.42261976381997E-05,5.43256428500172E-05,0,0.0838231785668596,0
-2.64024038187927E-05,7.14456036803313E-05,0,0.0889762102483553,0
-2.81799020740436E-05,7.91802012827247E-05,0,0.0940196714135197,0
-2.81083266600035E-05,8.15632229205221E-05,0,0.0989533991568546,0
-2.59005500993226E-05,7.85591910243966E-05,0,0.103777272646924,0
-2.44196908170125E-05,6.66191044729203E-05,0,0.108491212517203,0
-2.03052622964606E-05,3.29852300637867E-05,0,0.113095180252497,0
-2.96023190458072E-05,2.55602335528238E-05,0,0.117589177570172,0
-2.41544639720814E-05,-1.79648704943247E-05,0,0.121973245797371,0
-3.0226428862079E-05,-3.98443662561476E-05,0,0.126247465243192,0
-2.56320181506453E-05,-8.79306171555072E-05,0,0.130411954567685,0
-2.63415349763818E-05,-0.000106613799289335,0,0.134466870147668,0
-2.20242473005783E-05,-0.000104430451756343,0,0.138412405438373,0
-2.16312291740905E-05,-6.89239677740261E-05,0,0.142248790332673,0
-2.02506271307357E-05,-3.65813757525757E-05,0,0.145976290516976,0
-2.07097909878939E-05,-1.717996019579E-05,0,0.14959520682482,0
-2.1676783944713E-05,-9.07558114704443E-06,0,0.153105874587,0
-2.15106447285507E-05,-3.91692947232514E-06,0,0.156508662980102,0
-2.30173791351262E-05,7.08759625922539E-06,0,0.159803974373566,0
-2.2602163880947E-05,1.90098253369797E-05,0,0.162992243674426,0
-2.37549538724124E-05,4.14401001762599E-05,0,0.166073937671472,0
-2.24479936150601E-05,5.90792042203248E-05,0,0.169049554378721,0
-2.35238167078933E-05,6.88883155817166E-05,0,0.171919622377232,0
-2.27043292397866E-05,5.95243618590757E-05,0,0.174684700157068,0
-2.44359107455239E-05,5.14122184540611E-05,0,0.177345375458509,0
-2.47150219365722E-05,4.48441387561616E-05,0,0.179902264613561,0
-2.58641448454E-05,4.53440043202136E-05,0,0.182356011886542,0
-2.47538901021471E-05,3.9982329326449E-05,0,0.184707288815495,0
-2.49564509431366E-05,2.89820800389862E-05,0,0.18695679355441,0
-2.53616417467128E-05,7.32245052859071E-06,0,0.189105250215314,0
-2.71958560915664E-05,-1.50642472362961E-05,0,0.191153408212029,0
-2.84174166154116E-05,-3.39718790201005E-05,0,0.193102041604808,0
-2.78415627690265E-05,-4.03888188884594E-05,0,0.194951948446985,0
-1.94677249965025E-05,-1.78712089109467E-05,0,0.196703950132433,0
-2.46511535806349E-05,-8.49302705319133E-06,0,0.19835889074537,0
-1.63169079314685E-05,1.08257154352032E-05,0,0.199917636412334,0
-2.34610415645875E-05,-4.49220397058525E-06,0,0.201381074655311,0
-2.02508708753157E-05,-9.63123329711379E-06,0,0.202750113747762,0
-2.37795702560106E-05,-2.42959358729422E-05,0,0.204025682073527,0
-2.2366893972503E-05,-2.98895247397013E-05,0,0.205208727487644,0
-2.41416128119454E-05,-3.7977792089805E-05,0,0.206300216680867,0
-2.19923949771328E-05,-3.5416549508227E-05,0,0.207301134546961,0
-2.02872142835986E-05,-2.6085959689226E-05,0,0.208212483553772,0
-1.95324173546396E-05,-1.06505622170516E-05,0,0.209035283116799,0
-1.79153958015377E-05,4.91667651658645E-06,0,0.209770568976895,0
-1.78072332346346E-05,1.43211082104244E-05,0,0.210419392581974,0
-1.6469832189614E-05,2.21915615838952E-05,0,0.210982820471774,0
-1.82315961865243E-05,2.42783662542934E-05,0,0.211461933667444,0
-1.8447455659043E-05,2.64533027802827E-05,0,0.211857827065057,0
-2.11818914976902E-05,2.35854477068642E-05,0,0.212171608833983,0
-2.15232721529901E-05,2.37222502619261E-05,0,0.212404399818827,0
-2.36888372455724E-05,2.21014179260237E-05,0,0.212557332946553,0
-2.31687172345119E-05,2.44708298851037E-05,0,0.212631552638667,0
-2.43331960518844E-05,2.54613842116669E-05,0,0.212628214227422,0
-2.41762882069452E-05,2.95974386972375E-05,0,0.212548483377671,0
-2.40196641243529E-05,3.1658240914112E-05,0,0.212393535514183,0
-2.24955547309946E-05,3.34201649820898E-05,0,0.21216455525337,0
-2.23288407141808E-05,3.08765775116626E-05,0,0.211862735841114,0
-2.12351587833837E-05,2.81889224424958E-05,0,0.211489278595763,0
-2.04369080165634E-05,2.75056427199161E-05,0,0.21104539235725,0
-1.67686685017543E-05,2.56032635661541E-05,0,0.210532292941035,0
-2.47007064899663E-05,4.05155697080772E-05,0,0.209951202598475,0
-2.07640732696746E-05,2.98698651022278E-05,0,0.209303349483452,0
-2.63455713138683E-05,1.74242777575273E-05,0,0.208589967124161,0
-2.40128847508458E-05,-1.03571283034398E-05,0,0.207812293901764,0
-2.76276714430423E-05,-1.10173214125098E-05,0,0.206971572534916,0
-2.66586703219218E-05,7.67453002481489E-07,0,0.206069049571183,0
-2.63714009633986E-05,1.8016500689555E-05,0,0.205105974883962,0
-2.36927771766204E-05,2.15113341255346E-05,0.17578125,0.207031315695811,0.00443767531556802
-2.29091001529014E-05,1.94829262909479E-05,0.17578125,0.20612754197312,0.00443767531556802
-2.38241500483127E-05,1.98549314518459E-05,0.17578125,0.206580868913114,0.00443767531556802
-2.395117735432E-05,2.06045751838246E-05,0.17578125,0.206355646982956,0.00443767531556802
-2.42624282691395E-05,1.85434855666244E-05,0.17578125,0.205760873302337,0.00443767531556802
-2.26203028432792E-05,1.06974594018538E-05,0.17578125,0.204951672922989,0.00443767531556802
-2.32480106205912E-05,7.41061694498057E-06,0.17578125,0.204006246910249,0.00443767531556802
-2.25910080189351E-05,6.52396283840062E-06,0.17578125,0.202964345582254,0.00443767531556802
-2.36598461924586E-05,1.12675443233456E-05,0.17578125,0.201846504358006,0.00443767531556802
-2.3114005671232E-05,1.29081954582944E-05,0.17578125,0.200663660931947,0.00443767531556802
-2.41569487116067E-05,1.53835881064879E-05,0.17578125,0.199421963132397,0.00443767531556802
-2.30035457207123E-05,1.44934019772336E-05,0.17578125,0.198125172139671,0.00443767531556802
-2.33767168538179E-05,1.51406293298351E-05,0.17578125,0.196775863399691,0.00443767531556802
-2.39527435041964E-05,1.464118486183E-05,0.17578125,0.195376026402578,0.00443767531556802
-2.68052717729006E-05,1.60680883709574E-05,0.17578125,0.193927363909508,0.00443767531556802
-2.82861037703697E-05,1.66829795489321E-05,0.17578125,0.192431440918178,0.00443767531556802
-2.82425917248474E-05,1.78581121872412E-05,0.17578125,0.190889758513937,0.00443767531556802
-2.66552851826418E-05,1.83465563168284E-05,0.17578125,0.189303790178875,0.00443767531556802
-2.44448765442939E-05,1.9846367649734E-05,0.17578125,0.187674999343759,0.00443767531556802
-1.94660879060393E-05,1.92373190657236E-05,0.17578125,0.186004847577222,0.00443767531556802
-2.8859294616268E-05,3.01352465612581E-05,0.17578125,0.184294798108188,0.00443767531556802
-2.48304022534285E-05,2.55462382483529E-05,0.17578125,0.182546317028315,0.00443767531556802
-3.22005325870123E-05,3.08621783915441E-05,0.17578125,0.180760873349832,0.00443767531556802
-2.90405132545857E-05,2.58209420280764E-05,0.17578125,0.178939938505235,0.00443767531556802
-3.02985954476753E-05,1.4612835002481E-05,0.17578125,0.177084985580799,0.00443767531556802
-2.54018523264676E-05,-4.07522111345315E-06,0.17578125,0.175197488431841,0.00443767531556802
-2.45966512011364E-05,-7.96077074483037E-06,0.17578125,0.173278920752488,0.00443767531556802
-2.44607181230094E-05,-2.45551268562849E-06,0.17578125,0.171330755135111,0.00443767531556802
-2.72849774773931E-05,4.34280627814587E-06,0.17578125,0.169354462139011,0.00443767531556802
-3.0458390028798E-05,6.51432401355123E-06,0.17578125,0.167351509376882,0.00443767531556802
-3.12014308292419E-05,5.20537105330732E-06,0.17578125,0.165323360622073,0.00443767531556802
-3.12574411509559E-05,1.40280189953046E-05,0.17578125,0.163271474940181,0.00443767531556802
-2.76487880910281E-05,4.3381853174651E-05,0.17578125,0.161197305845518,0.00443767531556802
-2.57332121691434E-05,8.6193234892562E-05,0.17578125,0.159102300481367,0.00443767531556802
-2.33807313634316E-05,0.000112557914690115,0.17578125,0.156987898826347,0.00443767531556802
-2.42735441133846E-05,0.000118846437544562,0.17578125,0.154855532924283,0.00443767531556802
-2.25962085096398E-05,0.00011456339416327,0.17578125,0.152706626139079,0.00443767531556802
-2.26451684284257E-05,0.000111877561721485,0.17578125,0.150542592433898,0.00443767531556802
-2.16591106436681E-05,9.9787961516995E-05,0.17578125,0.148364835673027,0.00443767531556802
-2.33211212616879E-05,7.17754228389822E-05,0.17578125,0.146174748947666,0.00443767531556802
-2.43729919020552E-05,2.59673015534645E-05,0.17578125,0.143973713925042,0.00443767531556802
-2.53519428952131E-05,-2.94066921924241E-05,0.17578125,0.141763100219325,0.00443767531556802
-2.44547190959565E-05,-9.17687721084803E-05,0.17578125,0.139544264785729,0.00443767531556802
-2.38916163652902E-05,-0.000148204358993098,0.17578125,0.137318551337323,0.00443767531556802
-2.25145031436114E-05,-0.000170719635207206,0.17578125,0.135087289783026,0.00443767531556802
-2.13873736356618E-05,-0.000143836965435185,0.17578125,0.132851795687878,0.00443767531556802
-1.71727042470593E-05,-6.35082324151881E-05,0.17578125,0.130613369754759,0.00443767531556802
-2.42327059822856E-05,-6.14116797805764E-05,0.17578125,0.128373297325758,0.00443767531556802
-1.91708277270664E-05,-1.72957388713257E-05,0.17578125,0.126132847904401,0.00443767531556802
-2.47021544055315E-05,-3.99437885789666E-05,0.17578125,0.123893274698244,0.00443767531556802
-2.12329669011524E-05,-1.76874036696972E-05,0.17578125,0.121655814180458,0.00443767531556802
-2.23485403694212E-05,-2.09893278224627E-05,0.17578125,0.119421685671853,0.00443767531556802
-1.88532430911437E-05,1.99363014985465E-07,0.17578125,0.11719209094276,0.00443767531556802
-1.92131101357518E-05,1.67829057318158E-06,0.17578125,0.114968213833118,0.00443767531556802
-1.90491718967678E-05,8.54481913847849E-06,0.17578125,0.112751219892041,0.00443767531556802
-2.08225173992105E-05,8.66546724864747E-06,0.17578125,0.110542256036193,0.00443767531556802
-2.26775009650737E-05,9.58702639763942E-06,0.17578125,0.108342450225288,0.00443767531556802
-2.23359711526427E-05,1.49761262946413E-05,0.17578125,0.106152911156026,0.00443767531556802
-2.29611232498428E-05,1.51480662680115E-05,0.17578125,0.10397472797382,0.00443767531556802
-2.29315974138444E-05,2.20985239138827E-05,0.17578125,0.101808970000732,0.00443767531556802
-2.5103785446845E-05,2.07543362193974E-05,0.17578125,0.0996566864809535,0.00443767531556802
-2.50201173912501E-05,2.76529626717092E-05,0.17578125,0.0975189063432038,0.00443767531556802
-2.61525510723004E-05,2.2902346245246E-05,0.17578125,0.0953966379784384,0.00443767531556802
-2.52322752203327E-05,2.3709881133982E-05,0.17578125,0.093290869034203,0.00443767531556802
-2.67616705968976E-05,1.43163406391977E-05,0.17578125,0.0912025662250106,0.00443767531556802
-2.60134565905901E-05,1.72434974956559E-05,0.17578125,0.0891326751570963,0.00443767531556802
-2.511310231057E-05,1.74336000782205E-05,0.17578125,0.0870821201689254,0.00443767531556802
-2.2463940695161E-05,1.8194439689978E-05,0.17578125,0.0850518041868514,0.00443767531556802
-2.10843991226284E-05,6.92013645675615E-06,0.17578125,0.083042608594301,0.00443767531556802
-2.13240036828211E-05,1.68072847372969E-06,0.17578125,0.0810553931158776,0.00443767531556802
-2.4085005861707E-05,-3.22264986607479E-06,0.17578125,0.0790909957157591,0.00443767531556802
-2.47848165599862E-05,-4.71245857625036E-06,0.17578125,0.0771502325087437,0.00443767531556802
-2.32100392167922E-05,-1.11785834633338E-06,0.17578125,0.0752338976853724,0.00443767531556802
-1.67542075359961E-05,9.70778819464613E-06,0.17578125,0.0733427634505354,0.00443767531556802
-2.32696202147054E-05,2.52707923209528E-05,0.17578125,0.0714775799739088,0.00443767531556802
-1.80158367584227E-05,3.2713058317313E-05,0.17578125,0.0696390753536634,0.00443767531556802
-2.51069614023436E-05,3.83943188353442E-05,0.17578125,0.0678279555928434,0.00443767531556802
-2.4340983145521E-05,3.9260685298359E-05,0.17578125,0.0660449045867246,0.00443767531556802
-2.79079577012453E-05,3.89633351005614E-05,0.17578125,0.0642905841225722,0.00443767531556802
-2.59208591160132E-05,3.58955803676508E-05,0.17578125,0.0625656338911744,0.00443767531556802
-2.59730859397678E-05,2.88793580693891E-05,0.17578125,0.06087067150848,0.00443767531556802
-2.48149699473288E-05,6.34888010608847E-06,0.17578125,0.0592062925488133,0.00443767531556802
-2.50675529969158E-05,-2.24782997975126E-05,0.17578125,0.0575730705890593,0.00443767531556802
-2.64236441580579E-05,-3.84393206331879E-05,0.17578125,0.0559715572621869,0.00443767531556802
-2.77113413176266E-05,-3.29502909153234E-05,0.17578125,0.0544022823216952,0.00443767531556802
-2.97357892122818E-05,-1.36723401737981E-05,0.17578125,0.0528657537163842,0.00443767531556802
-2.90564130409621E-05,5.60312219022308E-06,0.17578125,0.0513624576736657,0.00443767531556802
-2.84242905763676E-05,1.9395025447011E-05,0.17578125,0.0498928587928513,0.00443767531556802
-2.42294081544969E-05,2.92302684101742E-05,0.17578125,0.0484574001478202,0.00443767531556802
-2.25182757276343E-05,3.75147938029841E-05,0.17578125,0.0470565033974539,0.00443767531556802
-2.14953670365503E-05,3.96372088289354E-05,0.17578125,0.0456905689054761,0.00443767531556802
-2.30560999625595E-05,3.39083417202346E-05,0.17578125,0.0443599758691068,0.00443767531556802
-2.19395187741611E-05,2.13182611332741E-05,0.17578125,0.0430650824547694,0.00443767531556802
-2.02795527002309E-05,7.76626893639332E-06,0.17578125,0.0418062259423774,0.00443767531556802
-1.71296014741529E-05,6.79831771321915E-07,0.17578125,0.040583722877596,0.00443767531556802
-1.70602215803228E-05,3.34531864609744E-06,0.17578125,0.0393978692304063,0.00443767531556802
-1.80584720510524E-05,8.01598980615381E-06,0.17578125,0.0382489405616452,0.00443767531556802
-2.04556963581126E-05,9.81159064394888E-06,0.17578125,0.037137192196909,0.00443767531556802
-2.23990919039352E-05,7.8008370110183E-06,0.17578125,0.036062859406033,0.00443767531556802
-2.26815063797403E-05,5.26941994394292E-06,0.17578125,0.0350261575897705,0.00443767531556802
-1.83851770998444E-05,2.03603804038721E-06,0.17578125,0.0340272824728197,0.00443767531556802
-2.61188051808858E-05,1.59417220402247E-06,0.17578125,0.0330664103029751,0.00443767531556802
-1.91577637451701E-05,1.05638196146174E-06,0.17578125,0.0321436980551321,0.00443767531556802
-2.27955770242261E-05,5.67367987969192E-06,0.17578125,0.0312592836423439,0.00443767531556802
-1.92146180779673E-05,1.07740470411954E-05,0.17578125,0.0304132861313603,0.00443767531556802
-2.3624554160051E-05,1.50077812577365E-05,0.17578125,0.0296058059636292,0.00443767531556802
-2.45808696490712E-05,1.51935655594571E-05,0.17578125,0.0288369251814205,0.00443767531556802
-2.81114589597564E-05,1.61536536325002E-05,0.17578125,0.0281067076580511,0.00443767531556802
-2.82396376860561E-05,2.14858828258002E-05,0.17578125,0.0274151993338831,0.00443767531556802
-2.8104997909395E-05,3.50042028003372E-05,0.17578125,0.0267624284558045,0.00443767531556802
-2.74819449259667E-05,5.42498091817833E-05,0.17578125,0.0261484058212068,0.00443767531556802
-2.56515741057228E-05,7.32016997062601E-05,0.17578125,0.0255731250259682,0.00443767531556802
-2.58041545748711E-05,8.67977578309365E-05,0.17578125,0.0250365627164108,0.00443767531556802
-2.47590705839684E-05,9.18342993827537E-05,0.17578125,0.0245386788441818,0.00443767531556802
-2.55883987847483E-05,8.88454596861266E-05,0.17578125,0.0240794169257341,0.00443767531556802
-2.3700640667812E-05,7.75698717916384E-05,0.17578125,0.023658704304039,0.00443767531556802
-2.37392578128492E-05,5.98252845520619E-05,0.17578125,0.0232764524135625,0.00443767531556802
-2.34438084589783E-05,3.68087567039765E-05,0.17578125,0.0229325570481661,0.00443767531556802
-2.66093411482871E-05,1.34810215968173E-05,0.17578125,0.0226268986309158,0.00443767531556802
-2.65649159700843E-05,-4.61520494354772E-06,0.17578125,0.0223593424876353,0.00443767531556802
-2.50378034252208E-05,-1.18741781989229E-05,0.17578125,0.0221297391219497,0.00443767531556802
-2.09662848646985E-05,-1.08766462290077E-05,0.17578125,0.0219379244929306,0.00443767531556802
-1.72810923686484E-05,-7.66567973187193E-06,0.17578125,0.0217837202949443,0.00443767531556802
-1.48486069520004E-05,-5.42674206371885E-06,0.17578125,0.0216669342385873,0.00443767531556802
-1.6310608771164E-05,-5.97124062551302E-06,0.17578125,0.0215873603344905,0.00443767531556802
-1.82975109055405E-05,-1.18689713417552E-05,0.17578125,0.0215447791776264,0.00443767531556802
-2.03406289074337E-05,-1.76375961018493E-05,0.17578125,0.0215389582332596,0.00443767531556802
-1.86636461876333E-05,1.59963724399859E-06,0.17578125,0.0215696521240813,0.00443767531556802
-2.75512829830404E-05,2.56866369454656E-05,0.17578125,0.0216366029185432,0.00443767531556802
-2.18722871068167E-05,3.74895280401688E-05,0.17578125,0.0217395404193333,0.00443767531556802
-2.7861420676345E-05,1.18667167043895E-05,0.17578125,0.0218781824538585,0.00443767531556802
-2.63366146100452E-05,-1.24240950754029E-05,0.17578125,0.0220522351643895,0.00443767531556802
-3.02841217489913E-05,-3.71781134163029E-05,0.17578125,0.022261393299079,0.00443767531556802
-2.93430948659079E-05,-5.44653994438704E-05,0.17578125,0.0225053405035818,0.00443767531556802
-2.91531068796758E-05,-7.01512399245985E-05,0.17578125,0.0227837496122467,0.00443767531556802
-2.53162579610944E-05,-7.82420975156128E-05,0.17578125,0.0230962829407141,0.00443767531556802
-2.1811292754137E-05,-8.28018601168878E-05,0.17578125,0.0234425925774202,0.00443767531556802
-2.04333191504702E-05,-8.56715414556675E-05,0.17578125,0.0238223206751629,0.00443767531556802
-1.89733545994386E-05,-7.86792661529034E-05,0.17578125,0.0242350997422868,0.00443767531556802
-1.88225003512343E-05,-5.23303897352889E-05,0.17578125,0.0246805529335621,0.00443767531556802
-1.84340715350118E-05,-9.95212667476153E-06,0.17578125,0.0251582943397043,0.00443767531556802
-2.1632606149069E-05,2.43841150222579E-05,0.17578125,0.0256679292774551,0.00443767531556802
-2.24442774197087E-05,3.60814265150111E-05,0.17578125,0.0262090545778666,0.00443767531556802
-2.32395104831085E-05,2.65351900452515E-05,0.17578125,0.0267812588741453,0.00443767531556802
-2.15659310924821E-05,1.59359115059488E-05,0.17578125,0.027384122888784,0.00443767531556802
-2.24866525968537E-05,1.28441815832048E-05,0.17578125,0.028017219718818,0.00443767531556802
-2.29690940614091E-05,1.76685243786778E-05,0.17578125,0.0286801151211017,0.00443767531556802
-2.49485929089133E-05,2.08115852728952E-05,0.17578125,0.029372367795186,0.00443767531556802
-2.54101887549041E-05,2.12455197470263E-05,0.17578125,0.0300935296651301,0.00443767531556802
-2.58366526395548E-05,1.90899008885026E-05,0.17578125,0.0308431461600265,0.00443767531556802
-2.53229791269405E-05,1.82056337507674E-05,0.17578125,0.0316207564921897,0.00443767531556802
-2.6085526769748E-05,1.86189918167656E-05,0.17578125,0.0324258939349785,0.00443767531556802
-2.70812906819629E-05,2.08801502594724E-05,0.17578125,0.0332580860977796,0.00443767531556802
-2.72427405434428E-05,2.43600043177139E-05,0.17578125,0.0341168551994529,0.00443767531556802
-2.09629815799417E-05,2.21011650864966E-05,0.17578125,0.0350017183398367,0.00443767531556802
-2.91485666821245E-05,3.0975050322013E-05,0.17578125,0.0359121877694012,0.00443767531556802
-2.20065412577242E-05,2.0848627173109E-05,0.17578125,0.0368477711560127,0.00443767531556802
-2.81488810287556E-05,2.4106731871143E-05,0.17578125,0.0378079718508475,0.00443767531556802
-2.33380796998972E-05,1.75022523762891E-05,0.17578125,0.0387922891509862,0.00443767531556802
-2.53851485467749E-05,1.99341375264339E-05,0.17578125,0.0398002185600011,0.00443767531556802
-2.14530246012146E-05,1.91613144124858E-05,0.17578125,0.0408312520462999,0.00443767531556802
-2.20457968680421E-05,2.30982150242198E-05,0.17578125,0.0418848782982163,0.00443767531556802
-2.23177939915331E-05,2.40954959735973E-05,0.17578125,0.0429605829779356,0.00443767531556802
-2.33013070101151E-05,2.57638803304872E-05,0.17578125,0.0440578489717782,0.00443767531556802
-2.37693384406157E-05,2.6766716473503E-05,0.17578125,0.045176156638168,0.00443767531556802
-2.32365346164443E-05,2.5167810235871E-05,0.17578125,0.046314984052868,0.00443767531556802
-2.49754702963401E-05,2.49572676693788E-05,0.17578125,0.0474738072516,0.00443767531556802
-2.45819555857452E-05,2.54728583968244E-05,0.17578125,0.0486521004690324,0.00443767531556802
-2.63281690422446E-05,2.76920436590444E-05,0.17578125,0.0498493363762424,0.00443767531556802
-2.58628097071778E-05,2.36078067246126E-05,0.52734375,0.0510649863141743,0.00443767531556802
-2.68702387984376E-05,2.0253279217286E-05,0.52734375,0.0522985218778208,0.00443767531556802
-2.47867192229023E-05,1.68806436704472E-05,0.52734375,0.0535494211676325,0.00443767531556802
-2.55214617936872E-05,1.98433681362076E-05,0.52734375,0.054817179813813,0.00443767531556802
-2.55759641731856E-05,2.28093704208732E-05,0.52734375,0.0561013212887793,0.00443767531556802
-2.63341735262657E-05,2.59314965660451E-05,0.52734375,0.0574014025516012,0.00443767531556802
-2.35123607126297E-05,2.28216576942941E-05,0.52734375,0.0587170159619762,0.00443767531556802
-2.06916083698161E-05,1.69437516888138E-05,0.52734375,0.0600477893529368,0.00443767531556802
-1.87459900189424E-05,1.46295433296473E-05,0.52734375,0.0613933852056259,0.00443767531556802
-2.21316859096987E-05,2.04504103749059E-05,0.52734375,0.0627534994000913,0.00443767531556802
-2.76626633421984E-05,2.60523811448365E-05,0.52734375,0.0641278597751134,0.00443767531556802
-3.06653419102076E-05,2.78916559182107E-05,0.52734375,0.0655162246158186,0.00443767531556802
-2.24600698857103E-05,2.11204223887762E-05,0.52734375,0.0669183811270231,0.00443767531556802
-2.82538021565415E-05,2.83985773421591E-05,0.52734375,0.0683341439212937,0.00443767531556802
-1.67064026754815E-05,2.08419096452417E-05,0.52734375,0.0697633535347859,0.00443767531556802
-2.22236321860692E-05,2.75024412985658E-05,0.52734375,0.0712058749796908,0.00443767531556802
-1.7655178453424E-05,2.35517563851317E-05,0.52734375,0.0726615963337898,0.00443767531556802
-2.23208207899006E-05,2.86652648355812E-05,0.52734375,0.0741304273696737,0.00443767531556802
-2.05342148547061E-05,3.11265757773072E-05,0.52734375,0.0756122982236386,0.00443767531556802
-2.26089032366872E-05,3.43842184520327E-05,0.52734375,0.0771071581030071,0.00443767531556802
-2.29338929784717E-05,2.12207996810321E-05,0.52734375,0.0786149740336027,0.00443767531556802
-2.39873679674929E-05,4.8575307118881E-06,0.52734375,0.0801357296443282,0.00443767531556802
-2.36836585827405E-05,5.2052064347663E-06,0.52734375,0.081669423989684,0.00443767531556802
-2.16703774640337E-05,1.8087814169121E-05,0.52734375,0.0832160704092344,0.00443767531556802
-2.29394172492903E-05,3.09977440338116E-05,0.52734375,0.084775695423517,0.00443767531556802
-2.29849629249657E-05,3.30157599819358E-05,0.52734375,0.086348337664688,0.00443767531556802
-2.53601992881158E-05,3.25397049891762E-05,0.52734375,0.0879340468434286,0.00443767531556802
-2.47049283643719E-05,2.7896412575501E-05,0.52734375,0.089532882749018,0.00443767531556802
-2.7457470423542E-05,2.40515691984911E-05,0.52734375,0.0911449142833965,0.00443767531556802
-2.81963293673471E-05,1.58075326908147E-05,0.52734375,0.0927702185284047,0.00443767531556802
-2.98892682621954E-05,6.89243506712955E-06,0.52734375,0.0944088798445855,0.00443767531556802
-2.73842342721764E-05,-1.02047024483909E-05,0.52734375,0.0960609890031315,0.00443767531556802
-2.56766306847567E-05,-2.87992552330252E-05,0.52734375,0.0977266423478709,0.00443767531556802
-2.19057310459903E-05,-3.60484882548917E-05,0.52734375,0.0994059409881073,0.00443767531556802
-1.99418791453354E-05,-2.16088428715011E-05,0.52734375,0.10109899002151,0.00443767531556802
-1.8338179870625E-05,2.39026036297219E-07,0.52734375,0.102805897785442,0.00443767531556802
-1.94029889826197E-05,1.24616171888192E-05,0.52734375,0.104526775138286,0.00443767531556802
-2.16007774724858E-05,6.95354538038373E-06,0.52734375,0.106261734767646,0.00443767531556802
-2.40280860452913E-05,-3.67487700714264E-06,0.52734375,0.108010890526336,0.00443767531556802
-2.13944804272614E-05,-2.48968513005821E-06,0.52734375,0.109774356795293,0.00443767531556802
-3.08876806229819E-05,2.66975121121504E-06,0.52734375,0.111552247873079,0.00443767531556802
-2.39397850236855E-05,9.30252099351492E-06,0.52734375,0.113344677390446,0.00443767531556802
-3.01303462038049E-05,4.3386572201598E-07,0.52734375,0.115151757751561,0.00443767531556802
-2.59090193139855E-05,-1.44476543937344E-05,0.52734375,0.116973599598842,0.00443767531556802
-2.71175194939133E-05,-2.29629240493523E-05,0.52734375,0.118810311302317,0.00443767531556802
-2.2990292563918E-05,-1.25342194223776E-05,0.52734375,0.120661998472798,0.00443767531556802
-2.15947620745283E-05,2.57698116001848E-06,0.52734375,0.122528763497358,0.00443767531556802
-1.88509220606647E-05,1.40981464937795E-05,0.52734375,0.124410705098729,0.00443767531556802
-1.86439683602657E-05,1.80888619070174E-05,0.52734375,0.126307917915631,0.00443767531556802
-2.05631440621801E-05,1.65864166774554E-05,0.52734375,0.12822049210502,0.00443767531556802
-2.18342629523249E-05,1.17892459456925E-05,0.52734375,0.130148512965382,0.00443767531556802
-2.35765528486809E-05,7.1201234277396E-06,0.52734375,0.13209206058074,0.00443767531556802
-2.1889376512263E-05,6.01613282924518E-06,0.52734375,0.134051209483864,0.00443767531556802
-2.21630016312702E-05,6.58120961816167E-06,0.52734375,0.136026028340358,0.00443767531556802
-2.17073502426501E-05,8.76186641107779E-06,0.52734375,0.138016579650771,0.00443767531556802
-2.45738992816769E-05,1.06260931715951E-05,0.52734375,0.140022919471689,0.00443767531556802
-2.45575138251297E-05,1.4241467397369E-05,0.52734375,0.142045097155178,0.00443767531556802
-2.57102801697329E-05,1.76824451045832E-05,0.52734375,0.144083155105162,0.00443767531556802
-2.5143370294245E-05,1.96280343516264E-05,0.52734375,0.14613712855241,0.00443767531556802
-2.58684503933182E-05,1.85389999387553E-05,0.52734375,0.148207045345255,0.00443767531556802
-2.45693681790726E-05,1.71846186276525E-05,0.52734375,0.150292925757005,0.00443767531556802
-2.3657445126446E-05,1.50819623740972E-05,0.52734375,0.152394782309236,0.00443767531556802
-2.1527035642066E-05,1.28314386529382E-05,0.52734375,0.154512619610724,0.00443767531556802
-2.04601510631619E-05,9.54702318267664E-06,0.52734375,0.15664643421064,0.00443767531556802
-2.05982378247427E-05,5.50793993170373E-06,0.52734375,0.15879621446773,0.00443767531556802
-2.15329055208713E-05,3.57638185732867E-07,0.52734375,0.160961940432682,0.00443767531556802
-1.83980919246096E-05,2.04734010367247E-06,0.52734375,0.163143583744682,0.00443767531556802
-2.59739499597345E-05,1.1840122169815E-05,0.52734375,0.165341107541574,0.00443767531556802
-1.88537796930177E-05,2.01309921976645E-05,0.52734375,0.167554466382314,0.00443767531556802
-2.28084354603197E-05,1.74987635546131E-05,0.52734375,0.169783606183386,0.00443767531556802
-1.92206880456069E-05,1.06127636172459E-05,0.52734375,0.172028464166467,0.00443767531556802
-2.30320147238672E-05,2.59498392551905E-06,0.52734375,0.174288968818335,0.00443767531556802
-2.32990787480958E-05,-2.94303981718258E-06,0.52734375,0.176565039862448,0.00443767531556802
-2.59332700807136E-05,-6.30417707725428E-06,0.52734375,0.178856588240926,0.00443767531556802
-2.67850045929663E-05,-6.89842909196159E-06,0.52734375,0.181163516108659,0.00443767531556802
-2.84145990008255E-05,-6.07876381764072E-06,0.52734375,0.183485716836882,0.00443767531556802
-2.97176648018649E-05,-5.42984071216779E-06,0.52734375,0.185823075027194,0.00443767531556802
-2.87918319372693E-05,-2.34324761549942E-06,0.52734375,0.188175466535316,0.00443767531556802
-2.82644941762555E-05,4.09315180149861E-06,0.52734375,0.190542758504425,0.00443767531556802
-2.62756893789629E-05,1.14085423774668E-05,0.52734375,0.192924809406825,0.00443767531556802
-2.63208312389907E-05,1.48033468576614E-05,0.52734375,0.195321469095631,0.00443767531556802
-2.43664926529163E-05,1.45161247928627E-05,0.52734375,0.197732578863931,0.00443767531556802
-2.55287104664603E-05,1.27056691781036E-05,0.52734375,0.200157971512414,0.880138937587658
-2.59196167462505E-05,1.1359100426489E-05,0.52734375,0.202597471425003,0.880138937587658
-2.70684377028374E-05,1.06621555460151E-05,0.52734375,0.205050894651299,0.880138937587658
-2.48577689490048E-05,1.11694635052118E-05,0.52734375,0.207518048997491,0.880138937587658
-2.35754650930176E-05,1.25370133901015E-05,0.52734375,0.209998734123231,0.880138937587658
-2.25084731937386E-05,1.45969870573026E-05,0.52734375,0.21249274164549,0.880138937587658
-2.41290290432516E-05,1.60332474479219E-05,0.52734375,0.214999855248791,0.880138937587658
-2.45928622462088E-05,1.85681910807034E-05,0.52734375,0.217519850801713,0.880138937587658
-2.47409661824349E-05,2.4732298697927E-05,0.52734375,0.220052496478518,0.880138937587658
-2.49640415859176E-05,3.1696014048066E-05,0.52734375,0.222597552887546,0.880138937587658
-2.50079083343735E-05,3.5930559533881E-05,0.52734375,0.225154773203951,0.880138937587658
-1.97435620066244E-05,3.27500747516751E-05,0.52734375,0.227723903307801,0.880138937587658
-2.6742163754534E-05,4.98511726618744E-05,0.52734375,0.230304681927125,0.880138937587658
-1.87206987902755E-05,3.83004080504179E-05,0.52734375,0.232896840784815,0.880138937587658
-2.54446676990483E-05,3.84442500944715E-05,0.52734375,0.235500104751002,0.880138937587658
-2.52951558650238E-05,1.95884003915126E-05,0.52734375,0.238114191998531,0.880138937587658
-3.17078483931255E-05,1.1552580872376E-05,0.52734375,0.24073881416252,0.880138937587658
-2.97192727884976E-05,7.99566350906389E-07,0.52734375,0.243373676503638,0.880138937587658
-2.77352828561561E-05,2.5530896436976E-06,0.52734375,0.246018478074142,0.880138937587658
-2.31392914429307E-05,1.24525622595684E-05,0.52734375,0.248672911888268,0.880138937587658
-2.08690998988459E-05,3.06308356812224E-05,0.52734375,0.251336665094668,0.880138937587658
-2.08093479159288E-05,4.44934958068188E-05,0.52734375,0.254009419151826,0.880138937587658
-2.06112108571688E-05,4.53395805379841E-05,0.52734375,0.25669085000599,0.880138937587658
-2.10827238333877E-05,4.22963275923394E-05,0.52734375,0.259380628271634,0.880138937587658
-1.91661638382357E-05,4.06787985411938E-05,0.52734375,0.262078419413439,0.880138937587658
-2.01914335775655E-05,4.56760644738097E-05,0.52734375,0.264783883931312,0.880138937587658
-2.04713505809195E-05,4.18263189203572E-05,0.52734375,0.267496677546258,0.880138937587658
-2.38488828472327E-05,2.27619711949956E-05,0.52734375,0.270216451388095,0.880138937587658
-2.42400947172428E-05,-2.92217227979563E-05,0.52734375,0.272942852184692,0.880138937587658
-2.48151482082903E-05,-8.51902586873621E-05,0.52734375,0.275675522451871,0.880138937587658
-2.26665924856206E-05,-9.73584392340854E-05,0.52734375,0.278414100685575,0.880138937587658
-2.22524249693379E-05,-4.83570438518655E-05,0.52734375,0.281158221554255,0.880138937587658
-2.11460501304828E-05,1.3080380995234E-05,0.52734375,0.283907516092255,0.880138937587658
-2.2038660972612E-05,5.62553614145145E-05,0.52734375,0.286661611893542,0.880138937587658
-2.20487381739076E-05,8.37769475765526E-05,0.52734375,0.289420133305726,0.880138937587658
-2.14855554077076E-05,0.00010904369992204,0.52734375,0.292182701623741,0.880138937587658
-2.05390861083288E-05,0.000123278339742683,0.52734375,0.294948935284862,0.880138937587658
-1.97909957933007E-05,0.000115968730824534,0.52734375,0.297718450063044,0.880138937587658
-1.54120280058123E-05,5.57702296646312E-05,0.52734375,0.300490859263373,0.880138937587658
-2.28926528507145E-05,2.92326749331551E-05,0.52734375,0.303265773916242,0.880138937587658
-1.97370536625385E-05,-5.60257540200837E-05,0.52734375,0.306042802970342,0.880138937587658
-2.46689214691287E-05,-7.91157581261359E-05,0.52734375,0.308821553486065,0.880138937587658
-2.21471873373957E-05,-0.000133290261146612,0.52734375,0.311601630827639,0.880138937587658
-2.47729785769479E-05,-0.000142018776386976,0.52734375,0.314382638855006,0.880138937587658
-2.27688324230257E-05,-0.00014669488882646,0.52734375,0.317164180115061,0.880138937587658
-2.29686102102278E-05,-0.000118894982733764,0.52734375,0.319945856031257,0.880138937587658
-2.15034870052477E-05,-9.62799458648078E-05,0.52734375,0.322727267092862,0.880138937587658
-2.1236868633423E-05,-7.36548681743443E-05,0.52734375,0.325508013041999,0.880138937587658
-2.28380995395128E-05,-5.29774479218759E-05,0.52734375,0.32828769305939,0.880138937587658
-2.45295868808171E-05,-3.28621681546792E-05,0.52734375,0.331065905948579,0.880138937587658
-2.68468211288564E-05,-7.69728012528503E-06,0.52734375,0.333842250318756,0.880138937587658
-2.60448359767906E-05,3.05383559862094E-06,0.52734375,0.336616324765595,0.880138937587658
-2.5073499273276E-05,1.29347217807663E-05,0.52734375,0.339387728051508,0.880138937587658
-2.21342124859802E-05,9.27888595469994E-06,0.52734375,0.342156059283569,0.880138937587658
-2.24030609388137E-05,1.47779092003475E-05,0.52734375,0.34492091808985,0.880138937587658
-2.25774638238363E-05,1.40594138429151E-05,0.52734375,0.347681904793879,0.880138937587658
-2.41506149905035E-05,2.17280576180201E-05,0.52734375,0.350438620586524,0.880138937587658
-2.37604326684959E-05,2.01819839276141E-05,0.52734375,0.353190667696645,0.880138937587658
-2.49047261604574E-05,2.83908320852788E-05,0.52734375,0.355937649558898,0.880138937587658
-2.45446735789301E-05,4.23140918428544E-05,0.52734375,0.358679170979547,0.880138937587658
-2.34614417422563E-05,6.84971528244205E-05,0.52734375,0.361414838299998,0.880138937587658
-2.22129528992809E-05,8.18236367194913E-05,0.52734375,0.364144259558131,0.880138937587658
-2.32893362408504E-05,8.3422361058183E-05,0.52734375,0.366867044646775,0.880138937587658
-2.41604702750919E-05,7.35711873858236E-05,0.52734375,0.369582805470576,0.880138937587658
-2.39970268012257E-05,5.87059585086536E-05,0.52734375,0.372291156099648,0.880138937587658
-2.02869396161987E-05,3.12914344249293E-05,0.52734375,0.374991712920749,0.880138937587658
-2.96207163046347E-05,2.60542346950388E-05,0.52734375,0.377684094785833,0.880138937587658
-2.36302330449689E-05,-9.79111246124376E-06,0.52734375,0.380367923157383,0.880138937587658
-2.87604561890475E-05,-1.66049048857531E-05,0.52734375,0.383042822251858,0.880138937587658
-2.38897191593423E-05,-3.5092729376629E-05,0.52734375,0.385708419179893,0.880138937587658
-2.61641507677268E-05,-3.15525030600838E-05,0.52734375,0.388364344084062,0.880138937587658
-2.43733848037664E-05,-1.90955706784735E-05,0.52734375,0.391010230273899,0.880138937587658
-2.57189494732302E-05,2.08489436772652E-05,0.52734375,0.393645714358141,0.880138937587658
-2.57551309914561E-05,5.6098975619534E-05,0.52734375,0.396270436373538,0.880138937587658
-2.68146577582229E-05,6.84814440319315E-05,0.52734375,0.398884039911494,0.880138937587658
-2.64462796621956E-05,6.00274688622449E-05,0.52734375,0.401486172241204,0.880138937587658
-2.40806512010749E-05,4.62173047708347E-05,0.52734375,0.404076484430147,0.880138937587658
-2.26374158955878E-05,4.11856672144495E-05,0.52734375,0.406654631461667,0.880138937587658
-1.95227767108008E-05,2.98639133688994E-05,0.52734375,0.409220272349042,0.880138937587658
-1.90051196113927E-05,1.36002008730429E-05,0.52734375,0.411773070247189,0.880138937587658
-1.70900511875516E-05,-4.56377301816246E-06,0.52734375,0.414312692560765,0.880138937587658
-1.89803595276317E-05,-3.16032037517289E-06,0.52734375,0.41683881104949,0.880138937587658
-2.01841758098453E-05,4.74924308946356E-06,0.52734375,0.419351101930588,0.880138937587658
-2.31489811994834E-05,1.40455849759746E-05,0.52734375,0.42184924597777,0.880138937587658
-2.36381474678637E-05,1.33741914396523E-05,0.52734375,0.424332928617804,0.880138937587658
-2.55955546890618E-05,1.43198585647042E-05,0.703125,0.426801840023344,0.880138937587658
-2.59435819316423E-05,1.54473491420504E-05,0.703125,0.429255675879509,0.880138937587658
-2.6092098778463E-05,2.12802642636234E-05,0.703125,0.431694140482446,0.880138937587658
-2.32187157962471E-05,2.74183839792386E-05,0.703125,0.434116952223318,0.880138937587658
-2.05052347155288E-05,3.26611334457994E-05,0.703125,0.436523848713746,0.880138937587658
-1.90308728633681E-05,3.22979467455298E-05,0.703125,0.438914589576999,0.880138937587658
-2.00609647436067E-05,2.85079258901533E-05,0.703125,0.441288957371755,0.880138937587658
-1.86750312423101E-05,1.87196910701459E-05,0.703125,0.443646757593895,0.880138937587658
-2.84602519968757E-05,2.17109882214572E-05,0.703125,0.44598781822837,0.880138937587658
-2.28401349886553E-05,6.56530437481706E-06,0.703125,0.448311989086541,0.880138937587658
-2.59036423813086E-05,3.92441006624722E-06,0.703125,0.450619141047903,0.880138937587658
-2.19188295886852E-05,-2.3311545191973E-06,0.703125,0.45290916526366,0.880138937587658
-2.42609403358074E-05,4.89935018777032E-06,0.703125,0.455181972352057,0.880138937587658
-2.27905256906524E-05,8.75116438692203E-06,0.703125,0.457437491599656,0.880138937587658
-2.48999003815698E-05,1.31160250020912E-05,0.703125,0.459675670175673,0.880138937587658
-2.61771656369092E-05,1.43799124998623E-05,0.703125,0.461896472362232,0.880138937587658
-2.80158601526637E-05,1.59815263032215E-05,0.703125,0.464099878803154,0.880138937587658
-2.89222116407473E-05,1.7565929738339E-05,0.703125,0.46628588577067,0.880138937587658
-2.79653286270332E-05,1.76045741682174E-05,0.703125,0.468454504450908,0.880138937587658
-2.78060033451766E-05,2.00818794837687E-05,0.703125,0.470605760247972,0.880138937587658
-2.59819917118875E-05,2.4116887288983E-05,0.703125,0.4727396921059,0.880138937587658
-2.62667454080656E-05,3.06743968394585E-05,0.703125,0.474856351849312,0.880138937587658
-2.53836242336547E-05,3.04742898151744E-05,0.703125,0.476955803541267,0.880138937587658
-2.63499096035957E-05,2.46174622589024E-05,0.703125,0.479038122858726,0.880138937587658
-2.46163726842497E-05,1.0407322406536E-05,0.703125,0.481103396485244,0.880138937587658
-2.44955463131191E-05,-1.20949906090573E-07,0.703125,0.483151721520083,0.880138937587658
-2.32937054533977E-05,-2.79111554846168E-06,0.703125,0.48518320490454,0.880138937587658
-2.32123311434407E-05,2.69816200670903E-06,0.703125,0.487197962863928,0.880138937587658
-2.22525322897127E-05,5.84269264436443E-06,0.703125,0.489196120365915,0.880138937587658
-2.34153503697598E-05,8.93349533725996E-06,0.703125,0.491177810594495,0.880138937587658
-2.41526304307627E-05,1.47104965435574E-05,0.703125,0.493143174438756,0.880138937587658
-2.44604580075247E-05,2.45687861024635E-05,0.703125,0.495092359997122,0.880138937587658
-2.42534624703694E-05,3.04556779155973E-05,0.703125,0.497025522096604,0.880138937587658
-2.40690933424048E-05,2.96925391012337E-05,0.703125,0.498942821825916,0.880138937587658
-1.86580964509631E-05,2.21999907807913E-05,0.703125,0.500844426083409,0.880138937587658
-2.61117129412014E-05,3.10093128064182E-05,0.703125,0.502730507138753,0.880138937587658
-2.03974468604429E-05,2.26517076953314E-05,0.703125,0.504601242208713,0.880138937587658
-2.66791903413832E-05,2.67957857431611E-05,0.703125,0.506456813045656,0.880138937587658
-2.28295320994221E-05,1.85158605745528E-05,0.703125,0.508297405539677,0.880138937587658
-2.45521750912303E-05,9.92160039459122E-06,0.703125,0.510123209333863,0.880138937587658
-2.22722155740485E-05,-1.79649505298585E-05,0.703125,0.511934417451548,0.880138937587658
-2.35524057643488E-05,-4.19539283029735E-05,0.703125,0.513731225936491,0.880138937587658
-2.21115187741816E-05,-4.83866097056307E-05,0.703125,0.51551383350555,0.880138937587658
-2.18296190723777E-05,-3.35702534357551E-05,0.703125,0.51728244121267,0.880138937587658
-2.25886942644138E-05,-1.30101152535644E-05,0.703125,0.519037252125081,0.880138937587658
-2.18117820622865E-05,-8.73292549385951E-07,0.703125,0.520778471010576,0.880138937587658
-2.12551640288439E-05,4.06848266720772E-06,0.703125,0.522506304036242,0.880138937587658
-1.92392617464066E-05,2.50124230660731E-06,0.703125,0.524220958477387,0.880138937587658
-2.09523368539521E-05,3.28296778207005E-06,0.703125,0.525922642437692,0.880138937587658
-2.16835542232729E-05,1.54836595811503E-06,0.703125,0.527611564580203,0.880138937587658
-2.37643344007665E-05,1.01673970220872E-06,0.703125,0.529287933867945,0.880138937587658
-2.25599669647636E-05,-1.32624609250342E-06,0.703125,0.530951959315201,0.880138937587658
-2.3375621822197E-05,5.95645360590424E-07,0.703125,0.532603849748373,0.880138937587658
-2.38112806982826E-05,1.07573009699991E-06,0.703125,0.534243813576923,0.880138937587658
-2.64612208411563E-05,2.53205053013517E-06,0.703125,0.535872058573049,0.880138937587658
-2.63185229414376E-05,3.52325605490478E-06,0.703125,0.537488791661071,0.880138937587658
-2.58833861153107E-05,8.75882324180566E-06,0.703125,0.539094218716107,0.880138937587658
-2.5162189558614E-05,1.63569475262193E-05,0.703125,0.540688544370843,0.880138937587658
-2.50802640948677E-05,2.3269871235243E-05,0.703125,0.542271971831409,0.880138937587658
-2.43074773607077E-05,2.20726815314265E-05,0.703125,0.54384470270191,0.880138937587658
-2.34274521062616E-05,1.5759975212859E-05,0.703125,0.545406936816453,0.880138937587658
-1.89391212188639E-05,8.89456259756116E-06,0.703125,0.546958872079758,0.880138937587658
-2.66197948803892E-05,1.27990560940816E-05,0.703125,0.548500704315292,0.880138937587658
-1.9756091205636E-05,1.12732268462423E-05,0.703125,0.550032627121457,0.880138937587658
-2.45143928623293E-05,1.50548248711857E-05,0.703125,0.551554831734491,0.880138937587658
-2.04785683308728E-05,1.35513237182749E-05,0.703125,0.553067506899166,0.880138937587658
-2.39845594478538E-05,1.43207089422503E-05,0.703125,0.554570838746866,0.880138937587658
-2.46471554419259E-05,1.30081689349026E-05,0.703125,0.556065010679866,0.880138937587658
-2.85959467873909E-05,1.38516470542527E-05,0.703125,0.557550203262966,0.880138937587658
-2.90565440081991E-05,1.21824432426365E-05,0.703125,0.559026594121432,0.880138937587658
-2.77046601695474E-05,9.23024890653323E-06,0.703125,0.560494357845809,0.880138937587658
-2.62085977738025E-05,7.94961124483962E-06,0.703125,0.561953665902239,0.880138937587658
-2.43928843701724E-05,8.05727268016199E-06,0.703125,0.56340468654934,0.880138937587658
-2.47828356805258E-05,1.09374068415491E-05,0.703125,0.564847584761249,0.880138937587658
-2.41292982536834E-05,1.32192135424702E-05,0.703125,0.566282522155649,0.880138937587658
-2.61062468780437E-05,1.58265775098698E-05,0.703125,0.567709656927942,0.880138937587658
-2.62830344581744E-05,1.6718859114917E-05,0.703125,0.569129143791159,0.880138937587658
-2.76213795586955E-05,1.89411839528475E-05,0.703125,0.570541133920435,0.880138937587658
-2.57639949268196E-05,2.2706386516802E-05,0.703125,0.571945774903273,0.880138937587658
-2.54019505518954E-05,3.03299875668017E-05,0.703125,0.573343210694523,0.880138937587658
-2.43621325353161E-05,3.90491150028538E-05,0.703125,0.574733581576698,0.880138937587658
-2.49898712354479E-05,4.77722824143711E-05,0.703125,0.576117024124228,0.880138937587658
-2.29843026318122E-05,5.21487127116416E-05,0.703125,0.57749367117285,0.880138937587658
-2.14188476093113E-05,4.55178305855952E-05,0.703125,0.578863651793719,0.880138937587658
-2.09827649086947E-05,2.06185177376028E-05,0.703125,0.580227091271041,0.880138937587658
-2.38370357692475E-05,-6.16412080489681E-06,0.703125,0.581584111084456,0.880138937587658
-2.67768664343748E-05,-1.22609353638836E-05,0.703125,0.582934828895142,0.880138937587658
-2.65877351921517E-05,-3.32930517288332E-06,0.703125,0.584279358536304,0.880138937587658
-1.98840134544298E-05,-1.3623484846903E-06,0.703125,0.585617810006714,0.880138937587658
-2.890585710702E-05,-1.5219920896925E-05,0.703125,0.586950289468445,0.880138937587658
-2.38830998569028E-05,-3.5172539355699E-05,0.703125,0.588276899248407,0.880138937587658
-3.01107302220771E-05,-4.33359928138088E-05,0.703125,0.589597737842498,0.880138937587658
-2.62324247159995E-05,-3.91718458558898E-05,0.703125,0.590912899923779,0.880138937587658
-2.90652278636117E-05,-2.3118012904888E-05,0.703125,0.592222476353586,0.880138937587658
-2.59898133663228E-05,-5.27771499037044E-06,0.703125,0.593526554196149,0.880138937587658
-2.52238805842353E-05,6.14378768659662E-06,0.703125,0.594825216735254,0.880138937587658
-2.28913304454181E-05,9.491704076936E-06,0.703125,0.596118543494205,0.880138937587658
-2.35276656894712E-05,9.82221445156028E-06,0.703125,0.597406610258803,0.880138937587658
-2.54890601354418E-05,1.15766788439942E-05,0.703125,0.598689489102246,0.880138937587658
-2.49167114816373E-05,1.44675959745655E-05,0.703125,0.599967248413178,0.880138937587658
-2.35097595577827E-05,1.88612575584557E-05,0.703125,0.601239952926498,0.880138937587658
-1.96016062545823E-05,2.34817543969257E-05,0.703125,0.602507663755686,0.880138937587658
-1.92353272723267E-05,2.88207429548493E-05,0.703125,0.603770438428065,0.880138937587658
-1.94123404071433E-05,3.45755943271797E-05,0.703125,0.605028330921935,0.880138937587658
-2.32814527407754E-05,4.42009513790254E-05,0.703125,0.606281391706274,0.880138937587658
-2.4303917598445E-05,5.98797050770372E-05,0.703125,0.60752966778156,0.880138937587658
-2.50253742706263E-05,7.95238811406307E-05,0.703125,0.608773202723015,0.880138937587658
-2.26475422095973E-05,9.58883829298429E-05,0.703125,0.610012036725907,0.880138937587658
-2.26649008254753E-05,0.000101935074781068,0.703125,0.611246206651768,0.880138937587658
-2.1986063075019E-05,9.3599250249099E-05,0.703125,0.612475746076907,0.880138937587658
-2.21877508010948E-05,7.36267320462503E-05,0.703125,0.61370068534211,0.880138937587658
-2.12309441849357E-05,4.8734167648945E-05,0.703125,0.614921051604173,0.880138937587658
-1.95205175259616E-05,2.14580668398412E-05,0.703125,0.616136868887853,0.880138937587658
-1.73356402228819E-05,-1.43248744279845E-05,0.703125,0.617348158139586,0.880138937587658
-1.76493358594598E-05,-5.86556052439846E-05,0.703125,0.618554937282783,0.880138937587658
-1.66423924383707E-05,-9.11139868549071E-05,0.703125,0.619757221273655,0.880138937587658
-2.60738597717136E-05,-0.000146166436024942,0.703125,0.620955022158867,0.880138937587658
-2.12742579606129E-05,-0.000100106190075167,0.703125,0.622148349134567,0.880138937587658
-2.30654677579878E-05,-7.02732577337883E-05,0.703125,0.623337208605457,0.880138937587658
-2.01127040782012E-05,-1.53144610521849E-05,0.703125,0.624521604245173,0.880138937587658
-2.43369340751087E-05,-5.63831645195023E-06,0.703125,0.625701537056808,0.880138937587658
-2.53096495725913E-05,6.79975801176624E-06,0.703125,0.626877005434386,0.880138937587658
-2.66906154138269E-05,6.87617693984066E-06,0.703125,0.628048005224149,0.880138937587658
-2.50304692599457E-05,1.65513338288292E-05,0.703125,0.629214529787192,0.880138937587658
-2.41731504502241E-05,2.61952245637076E-05,0.703125,0.630376570063118,0.880138937587658
-2.35551397054223E-05,3.01794316328596E-05,0.703125,0.631534114633458,0.880138937587658
-2.27959917538101E-05,2.51633573498111E-05,0.703125,0.63268714978621,0.880138937587658
-2.38201901083812E-05,1.49519773913198E-05,0.703125,0.633835659580459,0.880138937587658
-2.32255151786376E-05,2.74661451840075E-05,0.703125,0.634979625911752,0.880138937587658
-2.32944476010744E-05,4.06097315135412E-05,0.703125,0.636119028576886,0.880138937587658
-2.14561750908615E-05,5.57313323952258E-05,0.703125,0.637253845339465,0.880138937587658
-2.21797363337828E-05,5.32777739863377E-05,0.703125,0.638384051995939,0.880138937587658
-2.29123015742516E-05,5.16178552061319E-05,0.703125,0.639509622440993,0.880138937587658
-2.5133977032965E-05,3.89123015338555E-05,0.703125,0.640630528733538,0.880138937587658
-2.40668978221947E-05,3.15919751301408E-05,0.703125,0.641746741162947,0.880138937587658
-2.35079169215169E-05,1.475781937188E-05,0.703125,0.64285822831435,0.880138937587658
-2.2140025976114E-05,-5.40521796210669E-06,0.703125,0.643964957134478,0.880138937587658
-2.1766398276668E-05,-3.29354697896633E-05,0.703125,0.645066892997078,0.880138937587658
-2.06659042305546E-05,-4.89282065245789E-05,0.703125,0.646163999768743,0.880138937587658
-2.02553546841955E-05,-5.17411681357771E-05,0.703125,0.64725623987387,0.880138937587658
-2.00469985429663E-05,-4.15058675571345E-05,0.703125,0.648343574360007,0.880138937587658
-1.95907596207689E-05,-2.85898386209738E-05,0.703125,0.649425962963159,0.880138937587658
-1.56553560373141E-05,-1.19916703624767E-05,0.703125,0.650503364171875,0.880138937587658
-2.25191852223361E-05,-5.9091576076753E-06,0.703125,0.651575735291497,0.880138937587658
-1.73408079717774E-05,1.07813693830394E-05,0.703125,0.652643032507655,0.880138937587658
-2.1413959984784E-05,1.06990382846561E-05,0.703125,0.653705210949813,0.880138937587658
-1.86630168172996E-05,1.28575647977414E-05,0.703125,0.654762224753636,0.880138937587658
-2.19103294512024E-05,9.45637748372974E-06,0.703125,0.65581402712349,0.880138937587658
-2.16165826714132E-05,1.27959001474665E-05,0.703125,0.656860570394768,0.880138937587658
-2.32553120440571E-05,1.46347856571083E-05,0.703125,0.657901806094871,0.880138937587658
-2.38165994232986E-05,1.7344804291497E-05,0.703125,0.658937685004177,0.880138937587658
-2.52631616604049E-05,1.86517099791672E-05,0.703125,0.659968157216713,0.880138937587658
-2.65239523287164E-05,1.83646679943195E-05,0.703125,0.660993172199424,0.880138937587658
-2.67904997599544E-05,1.87327987077879E-05,0.703125,0.662012678851463,0.880138937587658
-2.63578003796283E-05,1.80298629857134E-05,0.703125,0.663026625562509,0.880138937587658
-2.38249431276927E-05,1.96512901311507E-05,0.703125,0.664034960270862,0.880138937587658
-2.34948620345676E-05,1.97564222617075E-05,0.703125,0.665037630520007,0.880138937587658
-2.24246359721292E-05,2.0735042198794E-05,0.703125,0.666034583514981,0.880138937587658
-2.36096584558254E-05,1.91895596799441E-05,0.703125,0.667025766178245,0.880138937587658
-2.30515306611778E-05,1.95894554053666E-05,0.703125,0.668011125204004,0.880138937587658
-2.4041404685704E-05,1.76228986674687E-05,0.703125,0.668990607112397,0.880138937587658
-2.34064536925871E-05,1.63064651133027E-05,0.703125,0.669964158302599,0.880138937587658
-2.36028390645515E-05,1.58797993208282E-05,0.703125,0.670931725105584,0.880138937587658
-2.30488367378712E-05,1.8683302187128E-05,0.703125,0.671893253835271,0.880138937587658
-2.4222164938692E-05,1.97705667233095E-05,1.23046875,0.669967150831895,2.38130588183731
-2.55007471423596E-05,2.02717383217532E-05,1.23046875,0.670934773428175,2.38130588183731
-2.67109262495069E-05,1.99882360902848E-05,1.23046875,0.670452239243206,2.38130588183731
-2.59981734416215E-05,1.92667394003365E-05,1.23046875,0.670694783109526,2.38130588183731
-2.48054730036529E-05,1.87729419849347E-05,1.23046875,0.671296846711946,2.38130588183731
-1.93332271010149E-05,1.4209439541446E-05,1.23046875,0.672075624170144,2.38130588183731
-2.8005151762045E-05,1.882541073428E-05,1.23046875,0.672939718279499,2.38130588183731
-2.2212876501726E-05,1.21026123451884E-05,1.23046875,0.673843467088694,2.38130588183731
-2.70583805104252E-05,1.61671778187156E-05,1.23046875,0.674764105668709,2.38130588183731
-2.17767865251517E-05,1.35816235342645E-05,1.23046875,0.67569034550703,2.38130588183731
-2.35066963796271E-05,1.66746031027287E-05,1.23046875,0.676616662749308,2.38130588183731
-2.2887363229529E-05,1.57642625708831E-05,1.23046875,0.677540440900113,2.38130588183731
-2.68233598035295E-05,1.62021133292001E-05,1.23046875,0.678460540788109,2.38130588183731
-2.70601758529665E-05,1.38681925818673E-05,1.23046875,0.67937658420011,2.38130588183731
-2.54456044785911E-05,1.28469400806352E-05,1.23046875,0.680288594384989,2.38130588183731
-2.40864883380709E-05,1.30916323541896E-05,1.23046875,0.681196815026638,2.38130588183731
-2.42124424403301E-05,1.35779819174786E-05,1.23046875,0.682101618486916,2.38130588183731
-2.67478844762081E-05,1.48546905620606E-05,1.23046875,0.683003458717628,2.38130588183731
-2.5805475161178E-05,1.37152992465417E-05,1.23046875,0.683902846539609,2.38130588183731
-2.53734433499631E-05,1.31354217955959E-05,1.23046875,0.684800336139236,2.38130588183731
-2.36648393183714E-05,1.00982852018205E-05,1.23046875,0.685696517206117,2.38130588183731
-2.52696117968298E-05,7.94457082520239E-06,1.23046875,0.686592009922394,2.38130588183731
-2.49479635385796E-05,4.70640907224151E-06,1.23046875,0.687487461410204,2.38130588183731
-2.60194956354098E-05,5.71802274862421E-06,1.23046875,0.688383542939122,2.38130588183731
-2.49927270488115E-05,8.3700488175964E-06,1.23046875,0.689280947543054,2.38130588183731
-2.55739178101067E-05,1.34593074108125E-05,1.23046875,0.690180387872644,2.38130588183731
-2.47084935836028E-05,1.6379979570047E-05,1.23046875,0.691082594194813,2.38130588183731
-2.47970365307992E-05,1.74421493284171E-05,1.23046875,0.691988312493816,2.38130588183731
-2.47533826041035E-05,1.45387139127706E-05,1.23046875,0.692898302652365,2.38130588183731
-2.48642027145252E-05,1.04958053270821E-05,1.23046875,0.693813336700691,2.38130588183731
-2.45678438659525E-05,7.8412103903247E-06,1.23046875,0.694734197126103,2.38130588183731
-2.48643646045821E-05,9.22954404813936E-06,1.23046875,0.695661675240635,2.38130588183731
-1.97520093934145E-05,7.22870890967897E-06,1.23046875,0.696596569604209,2.38130588183731
-2.72597353614401E-05,5.63969297218136E-06,1.23046875,0.697539684500514,2.38130588183731
-2.05047872441355E-05,3.92006484162266E-07,1.23046875,0.698491828466271,2.38130588183731
-2.65729340753751E-05,1.7310434486717E-05,1.23046875,0.699453812870715,2.38130588183731
-2.13263301702682E-05,4.23822821176145E-05,1.23046875,0.700426450545773,2.38130588183731
-2.20843667193549E-05,6.13598094787449E-05,1.23046875,0.701410554465716,2.38130588183731
-1.95744432858191E-05,6.23045998509042E-05,1.23046875,0.702406936474347,2.38130588183731
-2.22845173993846E-05,5.38882741238922E-05,1.23046875,0.703416406060173,2.38130588183731
-2.29876368393889E-05,4.03511039621662E-05,1.23046875,0.70443976917834,2.38130588183731
-2.30314872169402E-05,2.5816865672823E-05,1.23046875,0.705477827117325,2.38130588183731
-2.31798112508841E-05,9.45151350606466E-06,1.23046875,0.70653137541075,2.38130588183731
-2.18619989027502E-05,-3.31615950699415E-07,1.23046875,0.707601202793277,2.38130588183731
-2.25755666178884E-05,4.64952245238237E-06,1.23046875,0.708688090198783,2.38130588183731
-2.35551087826025E-05,1.07582636701409E-05,1.23046875,0.709792809801259,2.38130588183731
-2.74441154033411E-05,1.26355671454803E-05,1.23046875,0.710916124097265,2.38130588183731
-2.74324120255187E-05,2.42990736296633E-05,1.23046875,0.712058785028023,2.38130588183731
-2.68848689302104E-05,5.96429672441445E-05,1.23046875,0.713221533141597,2.38130588183731
-2.33349783229642E-05,9.54748174990527E-05,1.23046875,0.714405096794147,2.38130588183731
-2.31962367251981E-05,9.81520788627677E-05,1.23046875,0.715610191388499,2.38130588183731
-2.24996019824175E-05,5.6575325288577E-05,1.23046875,0.71683751865058,2.38130588183731
-2.31086924031843E-05,-4.49142135039438E-06,1.23046875,0.718087765942543,2.38130588183731
-2.26572083192877E-05,-5.40826695214491E-05,1.23046875,0.719361605610638,2.38130588183731
-2.32039965339936E-05,-7.91636048234068E-05,1.23046875,0.720659694368414,2.38130588183731
-2.24565210373839E-05,-8.70029980433173E-05,1.23046875,0.721982672714396,2.38130588183731
-2.22746621147962E-05,-8.19471024442464E-05,1.23046875,0.723331164382471,2.38130588183731
-2.18019704334438E-05,-6.92553003318608E-05,1.23046875,0.72470577582533,2.38130588183731
-2.19369885599008E-05,-5.0771650421666E-05,1.23046875,0.72610709572985,2.38130588183731
-1.92202187463408E-05,-3.11001422232948E-05,1.23046875,0.727535694562666,2.38130588183731
-2.98922859656159E-05,-5.71568562008906E-05,1.23046875,0.72899212414652,2.38130588183731
-2.64078062173212E-05,-5.73858342249878E-05,1.23046875,0.730476917266503,2.38130588183731
-3.01637501252117E-05,-4.42333621322177E-05,1.23046875,0.731990587304553,2.38130588183731
-2.3290880562854E-05,-3.84234181183274E-06,1.23046875,0.733533627902821,2.38130588183731
-2.44923485297477E-05,1.25694123198627E-05,1.23046875,0.735106512654909,2.38130588183731
-2.35385487030726E-05,2.1253672457533E-05,1.23046875,0.736709694823225,2.38130588183731
-2.46072850131895E-05,1.96532218978973E-05,1.23046875,0.738343607083129,2.38130588183731
-2.19769535760861E-05,2.10774142033188E-05,1.23046875,0.74000866129297,2.38130588183731
-1.94696458493127E-05,1.88488411367871E-05,1.23046875,0.741705248288274,2.38130588183731
-1.90876162378117E-05,1.32429859149852E-05,1.23046875,0.743433737700674,2.38130588183731
-2.06230615731329E-05,3.36329253514123E-06,1.23046875,0.745194477800676,2.38130588183731
-2.4840312107699E-05,-1.62278884090483E-05,1.23046875,0.746987795362616,2.38130588183731
-2.64642785623437E-05,-3.48554567608517E-05,1.23046875,0.748813995552436,2.38130588183731
-2.7034602680942E-05,-4.05540959036443E-05,1.23046875,0.750673361837427,2.38130588183731
-2.38452230405528E-05,-2.19734847632935E-05,1.23046875,0.752566155916394,2.38130588183731
-2.34996623476036E-05,6.64323067667283E-07,1.23046875,0.754492617670914,2.38130588183731
-2.27280070248526E-05,1.83627944352338E-05,1.23046875,0.756452965136778,2.38130588183731
-2.44140010181582E-05,2.58713880612049E-05,1.23046875,0.758447394494038,2.38130588183731
-2.47341977228643E-05,3.6454206565395E-05,1.23046875,0.760476080076398,2.38130588183731
-2.58483723882819E-05,4.59615039289929E-05,1.23046875,0.762539174399143,2.38130588183731
-2.47354746534256E-05,5.36041188752279E-05,1.23046875,0.764636808203981,2.38130588183731
-2.4698136257939E-05,5.30208671989385E-05,1.23046875,0.766769090521471,2.38130588183731
-2.43717186094727E-05,5.1476810767781E-05,1.23046875,0.768936108750241,2.38130588183731
-2.44790608121548E-05,4.98210574733093E-05,1.23046875,0.771137928751423,2.38130588183731
-2.34264152823016E-05,4.78969814139418E-05,1.23046875,0.773374594959031,2.38130588183731
-2.24700688704615E-05,4.24840945925098E-05,1.23046875,0.775646130505548,2.38130588183731
-1.86621255124919E-05,2.50100765697425E-05,1.23046875,0.777952537361187,2.38130588183731
-2.70271448243875E-05,2.49337736022426E-05,1.23046875,0.78029379648761,2.38130588183731
-2.09801382879959E-05,-3.14460010031326E-07,1.23046875,0.782669868005359,2.38130588183731
-2.52535573963542E-05,-7.20763227946009E-06,1.23046875,0.785080691373508,2.38130588183731
-2.12615123018622E-05,-2.65457474597497E-05,1.23046875,0.787526185582379,2.38130588183731
-2.36247778957477E-05,-2.33516966545722E-05,1.23046875,0.790006249358621,2.38130588183731
-2.15415166167077E-05,-1.96050841623219E-05,1.23046875,0.792520761381153,2.38130588183731
-2.35802162933396E-05,-1.20043296192307E-05,1.23046875,0.7950695805087,2.38130588183731
-2.50204266194487E-05,-9.62541253102245E-06,1.23046875,0.797652546018183,2.38130588183731
-2.7747100830311E-05,-1.44586590522522E-06,1.23046875,0.800269477852479,2.38130588183731
-2.965677776956E-05,1.06222214526497E-05,1.23046875,0.802920176878436,2.38130588183731
-2.85307396552525E-05,2.05175329028862E-05,1.23046875,0.80560442515448,2.38130588183731
-2.75468100880971E-05,2.76607770501869E-05,1.23046875,0.808321986206399,2.38130588183731
-2.49686199822463E-05,2.73985187959624E-05,1.23046875,0.811072605312186,2.38130588183731
-2.46025192609522E-05,2.84070629277267E-05,1.23046875,0.813856009795052,2.38130588183731
-2.2437963707489E-05,2.63908841589E-05,1.23046875,0.816671909324171,2.38130588183731
-2.28736462304369E-05,2.68064723059069E-05,1.23046875,0.819519996222033,2.38130588183731
-2.15609870792832E-05,2.21359041461255E-05,1.23046875,0.82239994577966,2.38130588183731
-2.23134957195725E-05,2.09436238947092E-05,1.23046875,0.825311416577751,2.38130588183731
-2.22943617700366E-05,2.13978673855308E-05,1.23046875,0.828254050814186,2.38130588183731
-2.38158499996644E-05,3.42656821885612E-05,1.23046875,0.831227474637433,2.38130588183731
-2.33936589211226E-05,5.39654320164118E-05,1.23046875,0.834231298484969,2.38130588183731
-2.36250907619251E-05,7.09689265931956E-05,1.23046875,0.837265117427615,2.38130588183731
-2.29169636440929E-05,7.23109551472589E-05,1.23046875,0.840328511518081,2.38130588183731
-2.29826364375185E-05,6.42689774394967E-05,1.23046875,0.84342104614418,2.38130588183731
-2.24850318772951E-05,5.15861065650824E-05,1.23046875,0.846542272386113,2.38130588183731
-2.11167152883718E-05,3.90487184631638E-05,1.23046875,0.849691727377552,2.38130588183731
-1.56693386088591E-05,1.6469435649924E-05,1.23046875,0.852868934669635,2.38130588183731
-2.11903807212366E-05,8.16931151348399E-06,1.23046875,0.856073404598856,2.38130588183731
-1.62046981131425E-05,-1.83526717592031E-05,1.23046875,0.859304634657249,2.38130588183731
-2.29785473493394E-05,-2.90846364805475E-05,1.23046875,0.862562109865413,2.38130588183731
-2.08702367672231E-05,-4.62028219772037E-05,1.23046875,0.865845303147955,2.38130588183731
-2.25915155169787E-05,-3.83432270609774E-05,1.23046875,0.869153675710472,2.38130588183731
-2.03084564418532E-05,-2.28420394705608E-05,1.23046875,0.872486677418966,2.38130588183731
-2.16754506254802E-05,-3.61333218279469E-06,1.23046875,0.875843747180006,2.38130588183731
-2.25434014282655E-05,2.13489784073317E-06,1.23046875,0.879224313322131,2.38130588183731
-2.3311520635616E-05,-5.01104523209506E-07,1.23046875,0.882627793978162,2.38130588183731
-2.4277485863422E-05,8.31189623795581E-08,1.23046875,0.886053597467693,2.38130588183731
-2.51602486969205E-05,6.21271965428605E-06,1.23046875,0.889501122680809,2.38130588183731
-2.64450500253588E-05,1.46711900015362E-05,1.23046875,0.892969759461428,2.38130588183731
-2.51402616413543E-05,1.75505283550592E-05,1.23046875,0.896458888990814,2.38130588183731
-2.49960903602187E-05,2.09231911867391E-05,1.23046875,0.899967884170806,2.38130588183731
-2.42516507569235E-05,2.07701850740705E-05,1.23046875,0.903496110006666,2.38130588183731
-2.61930872511584E-05,2.04970401682658E-05,1.23046875,0.907042923988744,2.38130588183731
-2.61366312770406E-05,1.28280689750682E-05,1.23046875,0.910607676473975,2.38130588183731
-2.62343583017355E-05,5.27552037965506E-06,1.23046875,0.914189711065599,2.38130588183731
-2.39100536418846E-05,1.60890488132281E-06,1.23046875,0.917788364991703,2.38130588183731
-2.39453602262074E-05,1.02206868177745E-05,1.23046875,0.921402969482322,2.38130588183731
-2.41249708778923E-05,2.1428406398627E-05,1.23046875,0.925032850144351,2.38130588183731
-2.50494686042657E-05,2.94402179861208E-05,1.23046875,0.928677327335325,2.38130588183731
-2.48585656663636E-05,3.53151117451489E-05,1.23046875,0.932335716534518,2.38130588183731
-2.49850108957617E-05,4.80314738524612E-05,1.23046875,0.936007328712009,2.38130588183731
-2.36978703469504E-05,6.35085598332807E-05,1.23046875,0.939691470695346,2.38130588183731
-2.18188597500557E-05,7.33589913579635E-05,1.23046875,0.943387445533742,2.38130588183731
-1.75739805854391E-05,5.96831523580477E-05,1.23046875,0.947094552859061,2.38130588183731
-2.54773967753863E-05,8.12244688859209E-05,1.23046875,0.950812089244689,2.38130588183731
-1.98023280972848E-05,5.49541218788363E-05,1.23046875,0.954539348560708,2.38130588183731
-2.37824278883636E-05,6.40283687971532E-05,1.23046875,0.958275622325997,2.38130588183731
-2.01317598111928E-05,4.04806341975927E-05,1.23046875,0.962020200057044,2.38130588183731
-2.29537909035571E-05,3.61391103069764E-05,1.23046875,0.9657723696128,2.38130588183731
-2.19497887883335E-05,8.62119759403868E-06,1.23046875,0.969531417536703,2.38130588183731
-2.4050117644947E-05,-1.97483313968405E-05,1.23046875,0.973296629394424,2.38130588183731
-2.41703128267545E-05,-5.57103121536784E-05,1.23046875,0.977067290108085,2.38130588183731
-2.47280167968711E-05,-7.65532240620814E-05,1.23046875,0.980842684286786,2.38130588183731
-2.45485171035398E-05,-7.80637346906587E-05,1.23046875,0.984622096552725,2.38130588183731
-2.1836674932274E-05,-6.77159769111313E-05,1.23046875,0.988404811863976,2.38130588183731
-2.08205710805487E-05,-4.53284592367709E-05,1.23046875,0.992190115832281,2.38130588183731
-2.06090553547256E-05,-2.89126255665906E-05,1.23046875,0.995977295036549,2.38130588183731
-2.35644129134016E-05,-1.07452906377148E-05,1.23046875,0.999765637331739,2.38130588183731
-2.40758527070284E-05,-5.733691068599E-06,1.23046875,1.00355443215323,2.38130588183731
-2.56916573562194E-05,-8.65993456500291E-07,1.23046875,1.00734297081607,2.38130588183731
-2.48134037974523E-05,-5.19723653269466E-06,1.23046875,1.01113054681042,2.38130588183731
-2.42451151279965E-05,-2.05430978894583E-06,1.23046875,1.01491645609169,2.38130588183731
-2.16045482375193E-05,-4.76812283523032E-06,1.23046875,1.01869999736611,2.38130588183731
-2.15231793845305E-05,-5.24494771525497E-06,1.23046875,1.02248047237162,2.38130588183731
-2.18658387893811E-05,-9.04746229934972E-06,1.23046875,1.02625718615326,2.38130588183731
-2.37172589550028E-05,-4.34707453678129E-06,1.23046875,1.03002944733439,2.38130588183731
-2.48789929173654E-05,1.83770771400305E-06,1.23046875,1.03379656838227,2.38130588183731
-2.64354603132233E-05,9.22909657674609E-06,1.23046875,1.03755786586868,2.38130588183731
-2.69439569819951E-05,1.15258753794478E-05,1.23046875,1.04131266072536,2.38130588183731
-2.7045776732848E-05,9.56730127654737E-06,1.23046875,1.04506027849444,2.38130588183731
-2.1103991457494E-05,6.56507154417341E-06,1.23046875,1.04880004957317,2.38130588183731
-2.93369303108193E-05,1.02450358099304E-05,1.23046875,1.05253130945401,2.38130588183731
-2.20327692659339E-05,1.07729574665427E-05,1.23046875,1.05625339895886,2.38130588183731
-2.81385964626679E-05,1.38288241942064E-05,1.23046875,1.059965664468,2.38130588183731
-2.33475911954883E-05,1.49147399497451E-05,1.23046875,1.06366745814384,2.38130588183731
-2.54878432315309E-05,1.89250586117851E-05,1.23046875,1.06735813814876,2.38130588183731
-2.40880672208732E-05,2.23211827687919E-05,1.23046875,1.07103706885836,2.38130588183731
-2.72532797680469E-05,2.42377282120287E-05,1.23046875,1.07470362106861,2.38130588183731
-2.6686680939747E-05,2.24875293497462E-05,1.23046875,1.07835717219774,2.38130588183731
-2.5707580789458E-05,1.84851942321984E-05,1.23046875,1.08199710648279,2.38130588183731
-2.46967138082255E-05,1.5892212104518E-05,1.23046875,1.08562281517021,2.38130588183731
-2.34512062888825E-05,1.65938581631053E-05,1.23046875,1.08923369670166,2.38130588183731
-2.42351216002135E-05,2.02521514438558E-05,1.23046875,1.09282915689379,2.38130588183731
-2.37690619542263E-05,2.23644965444691E-05,1.23046875,1.09640860911262,2.38130588183731
-2.58550753642339E-05,2.27100481424714E-05,1.23046875,1.09997147444253,2.38130588183731
-2.46485305979149E-05,2.05403521249536E-05,1.23046875,1.10351718184983,2.38130588183731
-2.45269347942667E-05,1.95842876564711E-05,1.23046875,1.10704516834043,2.38130588183731
-2.19585781451315E-05,1.92660299944691E-05,1.23046875,1.1105548791128,2.38130588183731
-2.29895067604957E-05,1.96408818737837E-05,1.23046875,1.11404576770482,2.38130588183731
-2.34989984164713E-05,1.90114060387714E-05,1.23046875,1.11751729613547,2.38130588183731
-2.51350775215542E-05,1.73521948454436E-05,1.23046875,1.12096893504112,2.38130588183731
-2.40636836679187E-05,1.28221900013159E-05,1.23046875,1.12440016380596,2.38130588183731
-2.44456423388328E-05,8.61168518895283E-06,1.23046875,1.12781047068791,2.38130588183731
-2.36059349845164E-05,7.79331730882404E-06,1.23046875,1.1311993529384,2.38130588183731
-2.37427611864405E-05,8.57665054354584E-06,1.23046875,1.13456631691715,2.38130588183731
-2.42156547756167E-05,9.84396865533199E-06,1.23046875,1.13791087820164,2.38130588183731
-2.3646402041777E-05,1.05311519291718E-05,1.23046875,1.14123256169135,2.38130588183731
-1.86741708603222E-05,8.30338831292465E-06,1.23046875,1.14453090170634,2.38130588183731
-2.75418206001632E-05,1.37814949994208E-05,1.23046875,1.14780544208134,2.38130588183731
-2.2133697711979E-05,1.76740431925282E-05,1.23046875,1.15105573625406,2.38130588183731
-2.67736540990882E-05,3.07556001644116E-05,1.23046875,1.15428134734858,2.38130588183731
-2.30107380048139E-05,3.89776396332309E-05,1.23046875,1.15748184825367,2.38130588183731
-2.50264383794274E-05,4.21766708313953E-05,1.23046875,1.16065682169567,2.38130588183731
-2.25760522880591E-05,3.51608177879825E-05,1.23046875,1.16380586030711,2.38130588183731
-2.40735571424011E-05,2.7682093787007E-05,1.23046875,1.1669285666898,2.38130588183731
-2.38150041695917E-05,2.45926494244486E-05,1.23046875,1.17002455347305,2.38130588183731
-2.29020060942275E-05,3.11739786411636E-05,1.23046875,1.17309344336714,2.38130588183731
-2.25282710744068E-05,3.94740382034797E-05,1.23046875,1.17613486921145,2.38130588183731
-2.29699489864288E-05,4.28789317084011E-05,1.23046875,1.1791484740185,2.38130588183731
-2.62157791439677E-05,5.7409837609157E-05,1.23046875,1.18213391101283,2.38130588183731
-2.75437887466978E-05,9.17570650926791E-05,1.23046875,1.18509084366532,2.38130588183731
-2.80058484349865E-05,0.000129286112496629,1.23046875,1.18801894572299,2.38130588183731
-2.35652951232623E-05,0.000144927675137296,1.23046875,1.19091790123435,2.38130588183731
-2.13429957511835E-05,0.000133675726829097,1.23046875,1.19378740456987,2.38130588183731
-2.00111153390026E-05,0.000100181743619032,1.23046875,1.19662716043871,2.38130588183731
-2.18887489609187E-05,5.35079234396107E-05,1.23046875,1.19943688390033,2.38130588183731
-2.2861913748784E-05,-8.35610717331292E-06,1.23046875,1.20221630037164,2.38130588183731
-2.56197272392455E-05,-8.2255071902182E-05,1.23046875,1.20496514562996,2.38130588183731
-2.65582875726977E-05,-0.000144078934681602,1.23046875,1.20768316581144,2.38130588183731
-2.72025336016668E-05,-0.000165251069120131,1.23046875,1.21037011740632,2.38130588183731
-2.56186012848048E-05,-0.00015403026191052,1.23046875,1.21302576724982,2.38130588183731
-2.5084304070333E-05,-0.000137696086312644,1.23046875,1.21564989250899,2.38130588183731
-2.51543369813589E-05,-0.000123844496556558,1.23046875,1.21824228066538,2.38130588183731
-2.33724422287196E-05,-9.87531311693601E-05,1.23046875,1.22080272949358,2.38130588183731
-1.66255704243667E-05,-3.66351850971114E-05,1.23046875,1.22333104703516,2.38130588183731
-2.41210345848231E-05,-1.76122284756275E-05,1.23046875,1.22582705156953,2.38130588183731
-1.99080241145566E-05,2.8241336622159E-05,1.23046875,1.22829057158035,2.38130588183731
-2.54125843639486E-05,1.72933414432919E-05,1.23046875,1.23072144571863,2.38130588183731
-2.19155226659495E-05,2.53014841291588E-05,1.23046875,1.23311952276248,2.38130588183731
-2.37702861340949E-05,9.13418534764787E-06,1.23046875,1.23548466157317,2.38130588183731
-2.27542459469987E-05,1.38299092213856E-05,1.23046875,1.23781673104838,2.38130588183731
-2.47895059146686E-05,1.25871083582751E-05,1.23046875,1.24011561007162,2.38130588183731
-2.49163331318414E-05,1.89867496374063E-05,1.23046875,1.24238118745832,2.38130588183731
-2.52376739808824E-05,2.20227229874581E-05,1.23046875,1.24461336189883,2.38130588183731
-2.47414500336163E-05,2.94462461170042E-05,1.23046875,1.24681204189823,2.38130588183731
-2.3527074517915E-05,4.99261077493429E-05,1.23046875,1.24897714571277,2.38130588183731
-2.40511308220448E-05,7.91326965554617E-05,1.23046875,1.25110860128395,2.38130588183731
-2.29514553211629E-05,0.000111985878902487,1.23046875,1.25320634616906,2.38130588183731
-2.32606780627975E-05,0.000123101359349675,1.23046875,1.25527032746922,2.38130588183731
-2.22227645281237E-05,0.000124465470435098,1.23046875,1.25730050175454,2.38130588183731
-2.39705932472134E-05,0.000110780048999004,1.23046875,1.25929683498624,2.38130588183731
-2.47533498622943E-05,9.30422320379876E-05,1.23046875,1.26125930243662,2.38130588183731
-2.66964161710348E-05,5.17320186190773E-05,1.23046875,1.26318788860569,2.38130588183731
-2.53710331890034E-05,5.93253434999497E-06,1.23046875,1.26508258713529,2.38130588183731
-2.4478169507347E-05,-4.10962529713288E-05,1.23046875,1.2669434007207,2.38130588183731
-2.30834320973372E-05,-7.73747888160869E-05,1.23046875,1.26877034101955,2.38130588183731
-2.34019171330146E-05,-0.00011014429765055,1.23046875,1.27056342855937,2.38130588183731
-2.43140948441578E-05,-0.00012910102668684,1.23046875,1.2723226926425,2.38130588183731
-2.55872218986042E-05,-0.000128009807667695,1.23046875,1.27404817124901,2.38130588183731
-2.5241160983569E-05,-9.71763583947904E-05,1.23046875,1.27573991093756,2.38130588183731
-2.40497247432359E-05,-5.47329291293863E-05,1.23046875,1.27739796674395,2.38130588183731
-1.77053934748983E-05,-1.51918129631667E-05,1.23046875,1.27902240207716,2.38130588183731
-2.50205466727493E-05,-1.2863875781477E-05,1.23046875,1.28061328861391,2.38130588183731
-2.01253023988102E-05,-2.63052515947493E-06,1.23046875,1.28217070619067,2.38130588183731
-2.48033538809977E-05,-6.57422651784145E-06,1.23046875,1.28369474269429,2.20207310659187
-2.00819085875992E-05,-4.17114051742828E-06,2.109375,1.28518549395096,2.20207310659187
-2.27471737161977E-05,-2.51420206041075E-05,2.109375,1.28664306699679,2.20207310659187
-1.99313726625405E-05,-4.16416514781304E-05,2.109375,1.28806759502267,2.20207310659187
-2.06863769562915E-05,-4.22211887780577E-05,2.109375,1.28945926425905,2.20207310659187
-2.09648205782287E-05,-2.19775811274303E-05,2.109375,1.29081833908417,2.20207310659187
-2.20805759454379E-05,1.84011287274188E-06,2.109375,1.29214517547153,2.20207310659187
-2.28984390560072E-05,1.93243686226197E-05,2.109375,1.29344022511714,2.20207310659187
-2.25590029003797E-05,3.50382906617597E-05,2.109375,1.29470403496964,2.20207310659187
-2.36619653151138E-05,4.92099716211669E-05,2.109375,1.29593724452517,2.20207310659187
-2.34318649745546E-05,6.24542008154094E-05,2.109375,1.29714058206557,2.20207310659187
-2.53405614785152E-05,6.70221634209156E-05,2.109375,1.2983148604291,2.20207310659187
-2.42080805037403E-05,6.58120043226518E-05,2.109375,1.29946097260745,2.20207310659187
-2.33490791288204E-05,5.46024675713852E-05,2.109375,1.30057988731412,2.20207310659187
-2.04338830371853E-05,3.98912852688227E-05,2.109375,1.30167264459757,2.20207310659187
-2.16932330658892E-05,2.3766211597831E-05,2.109375,1.30274035153284,2.20207310659187
-2.36538962781196E-05,1.38957720992039E-05,2.109375,1.30378417800922,2.20207310659187
-2.70206801360473E-05,-5.40748487765086E-07,2.109375,1.30480535262149,2.20207310659187
-2.75253023573896E-05,-1.97499666683143E-05,2.109375,1.30580515866701,2.20207310659187
-2.76464106718777E-05,-3.12151860271115E-05,2.109375,1.30678493025063,2.20207310659187
-2.56663915934041E-05,-1.94476360775298E-05,2.109375,1.30774604849565,2.20207310659187
-2.49557488132268E-05,4.0254603845824E-06,2.109375,1.30868993786025,2.20207310659187
-2.4426923118881E-05,2.11492279049708E-05,2.109375,1.30961806255796,2.20207310659187
-2.3632203010493E-05,2.82171586150071E-05,2.109375,1.31053192308043,2.20207310659187
-1.92024945135927E-05,2.37018648476806E-05,2.109375,1.31143305282081,2.20207310659187
-2.68848707491998E-05,3.2146544981515E-05,2.109375,1.31232301479709,2.20207310659187
-1.95972315850668E-05,2.2767035261495E-05,2.109375,1.31320339847265,2.20207310659187
-2.41214966081316E-05,3.52311435563024E-05,2.109375,1.31407581667329,2.20207310659187
-2.02723076654365E-05,3.77703036065213E-05,2.109375,1.31494190259867,2.20207310659187
-2.39636028709356E-05,4.44112920376938E-05,2.109375,1.31580330692661,2.20207310659187
-2.38640768657206E-05,4.04807979066391E-05,2.109375,1.31666169500927,2.20207310659187
-2.58676791418111E-05,3.9111193473218E-05,2.109375,1.31751874415889,2.20207310659187
-2.37739222939126E-05,3.64760380762164E-05,2.109375,1.31837614102197,2.20207310659187
-2.23191236727871E-05,3.36211305693723E-05,2.109375,1.31923557904025,2.20207310659187
-2.30984460358741E-05,2.82457021967275E-05,2.109375,1.32009875599714,2.20207310659187
-2.42253809119575E-05,2.04491389013128E-05,2.109375,1.32096737164753,2.20207310659187
-2.58884301729267E-05,1.45625090226531E-05,2.109375,1.32184312543071,2.20207310659187
-2.46986601268873E-05,9.14513111638371E-06,2.109375,1.32272771426364,2.20207310659187
-2.56090133916587E-05,9.46541058510775E-06,2.109375,1.32362283041393,2.20207310659187
-2.45783703576308E-05,1.09963675640756E-05,2.109375,1.3245301594509,2.20207310659187
-2.5478779207333E-05,1.94586937141139E-05,2.109375,1.32545137827277,2.20207310659187
-2.43103913817322E-05,2.67586656264029E-05,2.109375,1.32638815320975,2.20207310659187
-2.4891287466744E-05,3.3286716643488E-05,2.109375,1.32734213820015,2.20207310659187
-2.33052960538771E-05,3.17960730171762E-05,2.109375,1.32831497303914,2.20207310659187
-2.32749116548803E-05,2.74046251433901E-05,2.109375,1.32930828169848,2.20207310659187
-2.25308922381373E-05,1.89904440048849E-05,2.109375,1.33032367071554,2.20207310659187
-2.35474435612559E-05,1.3998219401401E-05,2.109375,1.33136272765129,2.20207310659187
-2.36863434111001E-05,1.68244077940471E-05,2.109375,1.33242701961473,2.20207310659187
-2.28309618250933E-05,2.63506281044101E-05,2.109375,1.33351809185307,2.20207310659187
-2.14830761251505E-05,3.04490113194333E-05,2.109375,1.33463746640625,2.20207310659187
-2.15907548408723E-05,2.28566477744607E-05,2.109375,1.3357866408244,2.20207310659187
-1.79881808435312E-05,2.46437093665008E-06,2.109375,1.33696708694669,2.20207310659187
-2.61847890214995E-05,-1.13859341581701E-05,2.109375,1.33818024974128,2.20207310659187
-2.018614395638E-05,-2.37165349972202E-05,2.109375,1.33942754620393,2.20207310659187
-2.4103270334308E-05,-1.45980620800401E-05,2.109375,1.34071036431482,2.20207310659187
-2.0712590412586E-05,-5.69282474316424E-06,2.109375,1.3420300620521,2.20207310659187
-2.34257495321799E-05,4.98114650326897E-06,2.109375,1.34338796646041,2.20207310659187
-2.17069955397164E-05,8.92174557520775E-06,2.109375,1.3447853727743,2.20207310659187
-2.291279452038E-05,1.09120519482531E-05,2.109375,1.34622354359407,2.20207310659187
-2.29075230890885E-05,1.09912371044629E-05,2.109375,1.3477037081136,2.20207310659187
-2.52339705184568E-05,1.56582209456246E-05,2.109375,1.34922706139893,2.20207310659187
-2.85232290480053E-05,2.48891610681312E-05,2.109375,1.35079476371653,2.20207310659187
-2.883126217057E-05,3.14927019644529E-05,2.109375,1.35240793990957,2.20207310659187
-2.6867139240494E-05,3.09557690343354E-05,2.109375,1.35406767882225,2.20207310659187
-2.20020865526749E-05,2.33043974731117E-05,2.109375,1.35577503276976,2.20207310659187
-2.09529607673176E-05,1.58179154823301E-05,2.109375,1.35753101705341,2.20207310659187
-2.07344801310683E-05,1.07931264210492E-05,2.109375,1.35933660951976,2.20207310659187
-2.27592136070598E-05,1.27648581838002E-05,2.109375,1.36119275016212,2.20207310659187
-2.15584186662454E-05,1.84048076334875E-05,2.109375,1.36310034076457,2.20207310659187
-2.16429853026057E-05,2.61690474872012E-05,2.109375,1.36506024458623,2.20207310659187
-2.13993516808841E-05,3.08756352751516E-05,2.109375,1.36707328608532,2.20207310659187
-2.37084786931518E-05,3.52892202499788E-05,2.109375,1.36914025068199,2.20207310659187
-2.41052075580228E-05,4.03893136535771E-05,2.109375,1.37126188455891,2.20207310659187
-2.44153998210095E-05,4.62081698060501E-05,2.109375,1.37343889449805,2.20207310659187
-2.34831568377558E-05,4.66719575342722E-05,2.109375,1.37567194775391,2.20207310659187
-2.27654127229471E-05,4.09783278882969E-05,2.109375,1.37796167196078,2.20207310659187
-2.34705330512952E-05,3.27573688991833E-05,2.109375,1.38030865507396,2.20207310659187
-2.49775530392071E-05,2.38920820265776E-05,2.109375,1.38271344534366,2.20207310659187
-2.05650303541915E-05,9.0784448047998E-07,2.109375,1.38517655132034,2.20207310659187
-2.92134100163821E-05,-2.35812713071937E-05,2.109375,1.38769844189166,2.20207310659187
-2.25316907744855E-05,-5.55323058506474E-05,2.109375,1.39027954634888,2.20207310659187
-2.76043410849525E-05,-6.62923630443402E-05,2.109375,1.39292025448263,2.20207310659187
-2.29054785449989E-05,-6.94372865837067E-05,2.109375,1.39562091670708,2.20207310659187
-2.61941186181502E-05,-5.61809247301426E-05,2.109375,1.39838184421088,2.20207310659187
-2.39773053181125E-05,-3.91795765608549E-05,2.109375,1.40120330913521,2.20207310659187
-2.44946895691101E-05,-1.6974967365968E-05,2.109375,1.40408554477666,2.20207310659187
-2.26997544814367E-05,-6.51475318136363E-07,2.109375,1.40702874581485,2.20207310659187
-2.23902643483598E-05,9.28079589357367E-06,2.109375,1.41003306856386,2.20207310659187
-2.27911987167317E-05,1.27924422486103E-05,2.109375,1.41309863124694,2.20207310659187
-2.27778873522766E-05,1.27469056678819E-05,2.109375,1.416225514293,2.20207310659187
-2.59267580986489E-05,1.36393100547139E-05,2.109375,1.41941376065565,2.20207310659187
-2.63450165221002E-05,1.34536876430502E-05,2.109375,1.42266337615219,2.20207310659187
-2.6961206458509E-05,1.55175275722286E-05,2.109375,1.42597432982283,2.20207310659187
-2.39490946114529E-05,1.68982096511172E-05,2.109375,1.42934655430909,2.20207310659187
-2.30505265790271E-05,1.77043493749807E-05,2.109375,1.43277994625022,2.20207310659187
-2.083981053147E-05,1.37824381454266E-05,2.109375,1.43627436669809,2.20207310659187
-2.22935395868262E-05,1.08809636003571E-05,2.109375,1.43982964154835,2.20207310659187
-2.33736245718319E-05,1.03029387901188E-05,2.109375,1.44344556198814,2.20207310659187
-2.60541091847699E-05,1.33733619804843E-05,2.109375,1.44712188495926,2.20207310659187
-2.58605632552644E-05,1.38809919008054E-05,2.109375,1.45085833363631,2.20207310659187
-2.51417241088348E-05,1.29814570755116E-05,2.109375,1.45465459791862,2.20207310659187
-2.35694824368693E-05,1.17538083941326E-05,2.109375,1.45851033493643,2.20207310659187
-2.33954342547804E-05,1.30663947857101E-05,2.109375,1.46242516956942,2.20207310659187
-2.2043064745958E-05,1.36781509354478E-05,2.109375,1.46639869497763,2.20207310659187
-2.1148242012714E-05,1.24642056107405E-05,2.109375,1.47043047314403,2.20207310659187
-1.75766508618835E-05,1.06312973002787E-05,2.109375,1.47452003542773,2.20207310659187
-2.63980673480546E-05,1.71863539435435E-05,2.109375,1.47866688312825,2.20207310659187
-2.21481568587478E-05,1.67210127983708E-05,2.109375,1.48287048805905,2.20207310659187
-2.62231496890308E-05,2.02758710656781E-05,2.109375,1.4871302931304,2.20207310659187
-2.11428196053021E-05,1.75326276803389E-05,2.109375,1.4914457129409,2.20207310659187
-2.28787102969363E-05,1.72223863046383E-05,2.109375,1.49581613437674,2.20207310659187
-2.21426689677173E-05,1.49878551383154E-05,2.109375,1.50024091721913,2.20207310659187
-2.40928457060363E-05,1.65621931955684E-05,2.109375,1.50471939475798,2.20207310659187
-2.36681007663719E-05,2.45377686951542E-05,2.109375,1.50925087441251,2.20207310659187
-2.42553142015822E-05,5.41025256097782E-05,2.109375,1.51383463835772,2.20207310659187
-2.49817785515916E-05,0.000102151963801589,2.109375,1.51846994415577,2.20207310659187
-2.41109446506016E-05,0.000140872158226557,2.109375,1.52315602539285,2.20207310659187
-2.39376004174119E-05,0.000153639644850045,2.109375,1.52789209232086,2.20207310659187
-2.23429069592385E-05,0.000142242512083612,2.109375,1.53267733250228,2.20207310659187
-2.28284443437587E-05,0.000115539871330839,2.109375,1.53751091145916,2.20207310659187
-2.17563338082982E-05,6.83557082084008E-05,2.109375,1.54239197332447,2.20207310659187
-2.28743065235903E-05,-4.05198676389773E-07,2.109375,1.54731964149636,2.20207310659187
-2.22317848965758E-05,-8.1005782703869E-05,2.109375,1.55229301929347,2.20207310659187
-2.3501917894464E-05,-0.000147680533700623,2.109375,1.55731119061269,2.20207310659187
-2.43607828451786E-05,-0.000183488271431997,2.109375,1.56237322058877,2.20207310659187
-2.67063333012629E-05,-0.00018104660557583,2.109375,1.56747815625431,2.20207310659187
-2.66959814325674E-05,-0.000147849554196,2.109375,1.57262502720083,2.20207310659187
-2.66550359810935E-05,-9.69094107858837E-05,2.109375,1.57781284623978,2.20207310659187
-2.5903558707796E-05,-4.15361246268731E-05,2.109375,1.58304061006224,2.20207310659187
-2.69813481281744E-05,4.47526372227003E-06,2.109375,1.58830729989804,2.20207310659187
-2.78159732260974E-05,2.81419088423718E-05,2.109375,1.59361188217347,2.20207310659187
-2.71206426987192E-05,3.18269594572484E-05,2.109375,1.59895330916791,2.20207310659187
-2.08260516956216E-05,1.89007805602159E-05,2.109375,1.60433051966851,2.20207310659187
-2.89552790491143E-05,2.06131080631167E-05,2.109375,1.60974243962335,2.20207310659187
-2.11000351555413E-05,9.91873912425945E-06,2.109375,1.61518798279259,2.20207310659187
-2.67115592578193E-05,1.73750595422462E-05,2.109375,1.62066605139611,2.20207310659187
-2.26682223001262E-05,1.30818179968628E-05,2.109375,1.62617553675872,2.20207310659187
-2.58990003203508E-05,1.4853338143439E-05,2.109375,1.63171531995175,2.20207310659187
-2.36376981774811E-05,9.73998339759419E-06,2.109375,1.63728427243156,2.20207310659187
-2.50750999839511E-05,1.03969987321761E-05,2.109375,1.64288125667344,2.20207310659187
-2.59820080827922E-05,1.13720871013356E-05,2.109375,1.64850512680183,2.20207310659187
-2.67431096290238E-05,1.43513161674491E-05,2.109375,1.65415472921633,2.20207310659187
-2.60189935943345E-05,1.64213724929141E-05,2.109375,1.65982890321242,2.20207310659187
-2.47228163061664E-05,1.57097656483529E-05,2.109375,1.66552648159769,2.20207310659187
-2.48733722401084E-05,1.4763421859243E-05,2.109375,1.67124629130312,2.20207310659187
-2.28489625442307E-05,1.17116205728962E-05,2.109375,1.67698715398839,2.20207310659187
-2.35674378927797E-05,1.42634253279539E-05,2.109375,1.68274788664198,2.20207310659187
-2.26636329898611E-05,1.96038672584109E-05,2.109375,1.68852730217525,2.20207310659187
-2.44204293267103E-05,3.06033434753772E-05,2.109375,1.69432421001086,2.20207310659187
-2.38052125496324E-05,3.46378328686114E-05,2.109375,1.70013741666431,2.20207310659187
-2.45472092501586E-05,3.28306014125701E-05,2.109375,1.70596572631949,2.20207310659187
-2.26589818339562E-05,2.52459376497427E-05,2.109375,1.7118079413979,2.20207310659187
-2.27208547585178E-05,2.13054172490956E-05,2.109375,1.71766286312026,2.20207310659187
-2.34686685871566E-05,1.85872977453982E-05,2.109375,1.72352929206181,2.20207310659187
-2.59891912719468E-05,1.75453824340366E-05,2.109375,1.72940602870004,2.20207310659187
-2.49637523666024E-05,1.44150762935169E-05,2.109375,1.7352918739556,2.20207310659187
-2.3174306988949E-05,1.23686559163616E-05,2.109375,1.74118562972505,2.20207310659187
-2.2414164050133E-05,1.12711013571243E-05,2.109375,1.74708609940656,2.20207310659187
-2.2359785361914E-05,1.11765230030869E-05,2.109375,1.75299208841805,2.20207310659187
-1.70347138919169E-05,9.16527278604917E-06,2.109375,1.75890240470696,2.20207310659187
-2.35165352933109E-05,1.34487472678302E-05,2.109375,1.76481585925246,2.20207310659187
-1.81287177838385E-05,1.19519936561119E-05,2.109375,1.77073126655977,2.20207310659187
-2.31288449867861E-05,1.53536529978737E-05,2.109375,1.77664744514565,2.20207310659187
-1.98422003450105E-05,1.32061386466376E-05,2.109375,1.78256321801612,2.20207310659187
-2.33047485380666E-05,1.30056796479039E-05,2.109375,1.78847741313545,2.20207310659187
-2.17947781493422E-05,1.10434739326593E-05,2.109375,1.79438886388709,2.20207310659187
-2.46193048951682E-05,1.23728241305798E-05,2.109375,1.80029640952536,2.20207310659187
-2.55476788879605E-05,1.5176621673163E-05,2.109375,1.806198895619,2.20207310659187
-2.38942830037558E-05,1.90609134733677E-05,2.109375,1.81209517448607,2.20207310659187
-2.11808928725077E-05,2.09661429835251E-05,2.109375,1.81798410561958,2.20207310659187
-1.9118624550174E-05,1.93285231944174E-05,2.109375,1.82386455610466,2.20207310659187
-1.95815609913552E-05,1.67893158504739E-05,2.109375,1.82973540102663,2.20207310659187
-1.88431113201659E-05,1.4141191059025E-05,2.109375,1.83559552387039,2.20207310659187
-2.05575379368383E-05,1.35283335112035E-05,2.109375,1.84144381691033,2.20207310659187
-1.99126861843979E-05,1.233282728208E-05,2.109375,1.8472791815915,2.20207310659187
-2.07993271033047E-05,1.23958643598598E-05,2.109375,1.85310052890181,2.20207310659187
-2.01595848920988E-05,1.14944550659857E-05,2.109375,1.85890677973471,2.20207310659187
-2.19357443711488E-05,1.08500535134226E-05,2.109375,1.86469686524299,2.20207310659187
-2.22689250222174E-05,8.61803437146591E-06,2.109375,1.87046972718331,2.20207310659187
-2.40451227000449E-05,8.54159861773951E-06,2.109375,1.87622431825186,2.20207310659187
-2.41709276451729E-05,1.10606579255546E-05,2.109375,1.88195960241024,2.20207310659187
-2.42438036366366E-05,1.60849831445375E-05,2.109375,1.88767455520255,2.20207310659187
-2.39101136685349E-05,1.89662532648072E-05,2.109375,1.89336816406345,2.20207310659187
-2.47072621277766E-05,1.87148270924808E-05,2.109375,1.89903942861643,2.20207310659187
-2.48283377004555E-05,1.80398546945071E-05,2.109375,1.90468736096324,2.20207310659187
-2.46631861955393E-05,1.9068234905717E-05,2.109375,1.91031098596433,2.20207310659187
-2.13864605029812E-05,2.49322911258787E-05,2.109375,1.91590934150957,2.20207310659187
-3.01047821267275E-05,4.77515750390012E-05,2.109375,1.92148147878024,2.20207310659187
-2.21575210161973E-05,5.2678762585856E-05,2.109375,1.92702646250175,2.20207310659187
-2.76836835837457E-05,5.85450834478252E-05,2.109375,1.93254337118754,2.20207310659187
-2.52230020123534E-05,4.77025059808511E-05,2.109375,1.93803129737351,2.20207310659187
-3.00505180348409E-05,3.99470154661685E-05,2.109375,1.94348934784364,2.20207310659187
-2.75422971753869E-05,2.76728569588158E-05,2.109375,1.94891664384676,2.20207310659187
-2.81281190837035E-05,2.1234322048258E-05,2.109375,1.95431232130371,2.20207310659187
-2.78702336800052E-05,1.94095719052712E-05,2.109375,1.95967553100599,2.20207310659187
-2.86701197182992E-05,1.94029944395879E-05,2.109375,1.96500543880534,2.20207310659187
-2.82855453406228E-05,1.43937422762974E-05,2.109375,1.97030122579482,2.20207310659187
-2.52603713306598E-05,5.08020457345992E-06,2.109375,1.97556208848066,2.20207310659187
-2.43220638367347E-05,2.8449662750063E-06,2.109375,1.98078723894573,2.20207310659187
-2.26621523324866E-05,7.96557833382394E-06,2.109375,1.98597590500447,2.20207310659187
-2.36608211707789E-05,1.85146272997372E-05,2.109375,1.99112733034888,2.20207310659187
-2.20859074033797E-05,2.16254957194906E-05,2.109375,1.99624077468611,2.20207310659187
-2.33793252846226E-05,1.46483916978468E-05,2.109375,2.00131551386782,2.20207310659187
-2.30283148994204E-05,-9.57757401920389E-06,2.109375,2.00635084001059,2.20207310659187
-2.52266272582347E-05,-4.41595984739251E-05,2.109375,2.01134606160846,2.20207310659187
-2.47132029471686E-05,-7.63482166803442E-05,2.109375,2.01630050363709,2.20207310659187
-2.37394051509909E-05,-8.28475385787897E-05,2.109375,2.02121350765016,2.20207310659187
-2.19006433326285E-05,-6.55164767522365E-05,2.109375,2.02608443186735,2.20207310659187
-2.35351599258138E-05,-3.80819037673064E-05,2.109375,2.03091265125445,2.20207310659187
-2.4815173674142E-05,-1.50957439473132E-05,2.109375,2.03569755759566,2.20207310659187
-2.57743286056211E-05,1.20388176583219E-06,2.109375,2.04043855955729,2.20207310659187
-2.55805025517475E-05,1.1861936400237E-05,2.109375,2.04513508274401,2.20207310659187
-2.46679337578826E-05,2.07198190764757E-05,2.109375,2.04978656974721,2.20207310659187
-1.92195529962191E-05,2.49158929364057E-05,2.109375,2.0543924801863,2.20207310659187
-2.62103440036299E-05,3.75114359485451E-05,2.109375,2.05895229074212,2.20207310659187
-1.87860096048098E-05,2.701734774746E-05,2.109375,2.06346549518339,2.20207310659187
-2.39096643781522E-05,2.73224577540532E-05,2.109375,2.067931604386,2.20207310659187
-2.04398456844501E-05,1.80137958523119E-05,2.109375,2.07235014634468,2.20207310659187
-2.35746629186906E-05,1.21073580885422E-05,2.109375,2.07672066617772,2.20207310659187
-2.18235072679818E-05,-1.18447505883523E-05,2.109375,2.08104272612489,2.20207310659187
-2.43380654865177E-05,-3.61629972758237E-05,2.109375,2.08531590553799,2.20207310659187
-2.50856028287672E-05,-4.23683886765502E-05,2.109375,2.08953980086495,2.20207310659187
-2.52522695518564E-05,-2.29073302762117E-05,2.109375,2.09371402562727,2.20207310659187
-2.45395203819498E-05,3.409150394873E-06,2.109375,2.09783821039107,2.20207310659187
-2.3114844225347E-05,1.70353268913459E-05,2.109375,2.10191200273139,2.20207310659187
-2.33488553931238E-05,2.02469309442677E-05,2.109375,2.10593506719024,2.20207310659187
-2.09461122722132E-05,1.7778927940526E-05,2.109375,2.10990708522854,2.20207310659187
-2.06221120606642E-05,1.92169809452025E-05,2.109375,2.11382775517174,2.20207310659187
-1.9325992980157E-05,1.88804951903876E-05,2.109375,2.11769679214953,2.20207310659187
-2.11532751563936E-05,1.93078012671322E-05,2.109375,2.12151392802965,2.20207310659187
-2.11442220461322E-05,1.64731809491059E-05,2.109375,2.12527891134603,2.20207310659187
-2.33478203881532E-05,1.61325315275462E-05,2.109375,2.12899150722081,2.20207310659187
