biceps_emg, triceps_emg, subject_position, position_estimate, brace_position
-2.40361878240947E-05,1.4187701708579E-05,2.28515625,0,0.00887535063113605
-2.18199402297614E-05,1.43761544677545E-05,2.28515625,0,0.00887535063113605
-2.41841516981367E-05,1.37197584990645E-05,2.28515625,0,0.00887535063113605
-2.33387745538494E-05,9.76170849753544E-06,2.28515625,0,0.00887535063113605
-2.18653731280938E-05,6.84250744598103E-06,2.28515625,0,0.00887535063113605
-2.09423997148406E-05,5.62266404813272E-06,2.28515625,0,0.00887535063113605
-2.10603357118089E-05,3.40126007358776E-06,2.28515625,0,0.00887535063113605
-2.38483153225388E-05,5.16661259553075E-07,2.28515625,0,0.00887535063113605
-2.31901904044207E-05,-1.31767831135221E-06,2.28515625,0,0.00887535063113605
-2.30966688832268E-05,1.44808961977105E-06,2.28515625,0,0.00887535063113605
-2.13610310311196E-05,5.62866716791177E-06,2.28515625,0,0.00887535063113605
-2.33173705055378E-05,1.05238332253066E-05,2.28515625,0,0.00887535063113605
-2.25695675908355E-05,1.15186066977913E-05,2.28515625,0,0.00887535063113605
-2.30263485718751E-05,1.17812805910944E-05,2.28515625,0,0.00887535063113605
-2.16393418668304E-05,1.05312465166207E-05,2.28515625,0,0.00887535063113605
-2.2836860807729E-05,9.42233600653708E-06,2.28515625,0,0.00887535063113605
-2.30501445912523E-05,7.93606886873022E-06,2.28515625,0,0.00887535063113605
-2.48088890657527E-05,7.15883697921527E-06,2.28515625,0,0.00887535063113605
-2.54581773333484E-05,5.37653113497072E-06,2.28515625,0,0.00887535063113605
-2.56299626926193E-05,3.80546271117055E-06,2.28515625,0,0.00887535063113605
-2.36053056141827E-05,2.81293978332542E-06,2.28515625,0,0.00887535063113605
-2.12806280615041E-05,2.41766019826173E-06,2.28515625,0,0.00887535063113605
-1.62238920893287E-05,2.07036327992682E-06,2.28515625,0,0.00887535063113605
-2.32696602324722E-05,2.8737435968651E-06,2.28515625,0,0.00887535063113605
-1.87127734534442E-05,4.64580807602033E-06,2.28515625,0,0.00887535063113605
-2.32584061450325E-05,9.71012013906147E-06,2.28515625,0,0.00887535063113605
-1.97519912035204E-05,1.12893612822518E-05,2.28515625,0,0.00887535063113605
-2.20481506403303E-05,1.20670092655928E-05,2.28515625,0,0.00887535063113605
-2.11582264455501E-05,1.29400041259942E-05,2.28515625,0,0.00887535063113605
-2.38137799897231E-05,1.27680805235286E-05,2.28515625,0,0.00887535063113605
-2.41810139414156E-05,1.24754751595901E-05,2.28515625,0,0.00887535063113605
-2.44535785896005E-05,1.29721893245005E-05,2.28515625,0,0.00887535063113605
-2.44501352426596E-05,1.39802468765993E-05,2.28515625,0,0.00887535063113605
-2.35150000662543E-05,1.52387547132093E-05,2.28515625,0,0.00887535063113605
-2.39094006246887E-05,1.55363959493116E-05,2.28515625,0,0.00887535063113605
-2.30327405006392E-05,1.36099197334261E-05,2.28515625,0,0.00887535063113605
-2.47150419454556E-05,1.18782954814378E-05,2.28515625,0,0.00887535063113605
-2.47444368142169E-05,1.25947472042753E-05,2.28515625,0,0.00887535063113605
-2.53650887316326E-05,1.60132494784193E-05,2.28515625,0,0.00887535063113605
-2.29288798436755E-05,1.88767717190785E-05,2.28515625,0,0.00887535063113605
-2.1949497750029E-05,1.79858616320416E-05,2.28515625,0,0.00887535063113605
-2.09421541512711E-05,1.31612641780521E-05,2.28515625,0,0.00887535063113605
-2.26530592044583E-05,9.36167543841293E-06,2.28515625,0,0.00887535063113605
-2.29008455789881E-05,7.87311273597879E-06,2.28515625,0,0.00887535063113605
-2.3856280677137E-05,7.29986822989304E-06,2.28515625,0,0.00887535063113605
-2.42642345256172E-05,6.00361636315938E-06,2.28515625,0,0.00887535063113605
-2.48098604060942E-05,5.16936370331678E-06,2.28515625,0,0.00887535063113605
-2.44338498305297E-05,5.84786448598607E-06,2.28515625,0,0.00887535063113605
-2.42259775404818E-05,7.82828374212841E-06,2.28515625,0,0.00887535063113605
-2.055808181467E-05,9.65126218943624E-06,2.28515625,0,0.00887535063113605
-2.86933809547918E-05,1.61203734023729E-05,2.28515625,0,0.00887535063113605
-2.02446644834708E-05,1.38951818371424E-05,2.28515625,0,0.00887535063113605
-2.45029714278644E-05,1.50127179949777E-05,2.28515625,0,0.00887535063113605
-1.97495719476137E-05,1.33403673316934E-05,2.28515625,0,0.00887535063113605
-2.18387849599821E-05,1.56233618326951E-05,2.28515625,0,0.00887535063113605
-1.9984950995422E-05,1.52874727064045E-05,2.28515625,0,0.00887535063113605
-2.149582542188E-05,1.56310779857449E-05,2.28515625,0,0.00887535063113605
-1.95975153474137E-05,1.54311164806131E-05,2.28515625,0,0.00887535063113605
-1.83191059477394E-05,1.53577257151483E-05,2.28515625,0,0.00887535063113605
-1.85264634637861E-05,1.62850483320653E-05,2.28515625,0,0.00887535063113605
-1.98366706172237E-05,1.5886253095232E-05,2.28515625,0,0.00887535063113605
-2.27434393309522E-05,1.49329089254024E-05,2.28515625,0,0.00887535063113605
-2.1885982278036E-05,1.32433151520672E-05,2.28515625,0,0.00887535063113605
-2.14519968722016E-05,1.25081987789599E-05,2.28515625,0,0.00887535063113605
-1.94009953702334E-05,1.13416226668051E-05,2.28515625,0,0.00887535063113605
-2.16991466004401E-05,1.15931570690009E-05,2.28515625,0,0.00887535063113605
-2.23819333768915E-05,1.14493886940181E-05,2.28515625,0,0.00887535063113605
-2.41733177972492E-05,1.19659798656357E-05,2.28515625,0,0.00887535063113605
-2.35372444876703E-05,1.06849884105031E-05,2.28515625,0,0.00887535063113605
-2.48979740717914E-05,9.00160557648633E-06,2.28515625,0,0.00887535063113605
-2.53251400863519E-05,8.06968455435708E-06,2.28515625,0,0.00887535063113605
-2.64426216745051E-05,1.00464812931023E-05,2.28515625,0,0.00887535063113605
-2.47489606408635E-05,1.22609062600532E-05,2.28515625,0,0.00887535063113605
-2.34486633416964E-05,1.32980785565451E-05,2.28515625,0,0.00887535063113605
-2.34883191296831E-05,1.42616545417695E-05,2.28515625,0,0.00887535063113605
-2.4359220333281E-05,1.56008354679216E-05,2.28515625,0,0.00887535063113605
-1.94747372006532E-05,1.51029535118141E-05,2.28515625,0,0.00887535063113605
-2.63519850705052E-05,2.14861156564439E-05,2.28515625,0,0.00887535063113605
-1.89347229024861E-05,1.37110373543692E-05,2.28515625,0,0.00887535063113605
-2.46145391429309E-05,1.30155394799658E-05,2.28515625,0,0.00887535063113605
-2.05834057851462E-05,8.10731125966413E-06,2.28515625,0,0.00887535063113605
-2.35553961829282E-05,1.24127245726413E-05,2.28515625,0,0.00887535063113605
-2.17345368582755E-05,1.37382858156343E-05,2.28515625,0,0.00887535063113605
-2.27248619921738E-05,1.28174160636263E-05,2.28515625,0,0.00887535063113605
-2.06190561584663E-05,6.8062749960518E-06,2.28515625,0,0.00887535063113605
-1.93880368897226E-05,1.71291367223603E-06,2.28515625,0,0.00887535063113605
-2.00035483430838E-05,1.15782700049749E-06,2.28515625,0,0.00887535063113605
-2.05907854251564E-05,5.16706450071069E-06,2.28515625,0,0.00887535063113605
-2.26640440814663E-05,1.03673364719725E-05,2.28515625,0,0.00887535063113605
-2.27177297347225E-05,1.09825541585451E-05,2.28515625,0,0.00887535063113605
-2.42520345636876E-05,1.02414387583849E-05,2.28515625,0,0.00887535063113605
-2.30773075600155E-05,6.33797844784567E-06,2.28515625,0,0.00887535063113605
-2.45151550188893E-05,4.87989836983616E-06,2.28515625,0,0.00887535063113605
-2.40840781771112E-05,3.99186137656216E-06,2.28515625,0,0.00887535063113605
-2.56295716098975E-05,5.10090285388287E-06,2.28515625,0,0.00887535063113605
-2.50951088673901E-05,3.9474580262322E-06,2.28515625,0,0.00887535063113605
-2.59431308222702E-05,3.45671173818118E-06,2.28515625,0,0.00887535063113605
-2.47208463406423E-05,2.67279460786085E-06,2.28515625,0,0.00887535063113605
-2.44139628193807E-05,3.51449943991611E-06,2.28515625,0,0.00887535063113605
-2.44098519033287E-05,4.19759817305021E-06,2.28515625,0,0.00887535063113605
-2.53362504736288E-05,5.103712737764E-06,2.28515625,0,0.00887535063113605
-2.65224571194267E-05,4.79597974845092E-06,2.28515625,0,0.00887535063113605
-2.73754430963891E-05,3.996114628535E-06,2.28515625,0,0.00887535063113605
-2.15160634979839E-05,3.58527199750824E-06,2.28515625,0,0.00887535063113605
-2.93868015432963E-05,7.61672890803311E-06,2.28515625,0,0.00887535063113605
-2.15906984522007E-05,1.07322603071225E-05,2.28515625,0,0.00887535063113605
-2.86242957372451E-05,1.23766867545783E-05,2.28515625,0,0.00887535063113605
-2.46457220782759E-05,1.01583445939468E-05,2.28515625,0,0.00887535063113605
-2.62610938079888E-05,9.51764468481997E-06,2.28515625,0,0.00887535063113605
-2.2700418412569E-05,8.30482076707995E-06,2.28515625,0,0.00887535063113605
-2.37631247728132E-05,6.8074036789767E-06,2.28515625,0,0.00887535063113605
-2.27347991312854E-05,5.90096078667557E-06,2.28515625,0,0.00887535063113605
-2.29779452638468E-05,6.85479562889668E-06,2.28515625,0,0.00887535063113605
-2.30569094128441E-05,1.00040433608228E-05,2.28515625,0,0.00887535063113605
-2.20941237785155E-05,1.24452590171131E-05,2.28515625,0,0.00887535063113605
-2.31385438382858E-05,1.30239523059572E-05,2.28515625,0,0.00887535063113605
-2.28378285100916E-05,1.16667051770492E-05,2.28515625,0,0.00887535063113605
-2.44784787355457E-05,1.03416377896792E-05,2.28515625,0,0.00887535063113605
-2.31801059271675E-05,9.90843636827776E-06,2.28515625,0,0.00887535063113605
-2.46951221924974E-05,1.08922731669736E-05,2.28515625,0,0.00887535063113605
-2.38730845012469E-05,1.19485821414855E-05,2.28515625,0,0.00887535063113605
-2.51239416684257E-05,1.25550404845853E-05,2.28515625,0,0.00887535063113605
-2.40390090766596E-05,1.17147237688187E-05,2.28515625,0,0.00887535063113605
-2.44693183049094E-05,1.09992497527855E-05,2.28515625,0,0.00887535063113605
-2.27570162678603E-05,1.12323814391857E-05,2.28515625,0,0.00887535063113605
-2.23661445488688E-05,1.24439611681737E-05,2.28515625,0,0.00887535063113605
-2.24763462028932E-05,1.39662060973933E-05,2.28515625,0,0.00887535063113605
-2.36872292589396E-05,1.4302125237009E-05,2.28515625,0,0.00887535063113605
-2.44958064286038E-05,1.35755817609606E-05,2.28515625,0,0.00887535063113605
-2.50659468292724E-05,1.2858160516771E-05,2.28515625,0,0.00887535063113605
-2.04453663172899E-05,5.96292829868617E-06,2.28515625,0,0.00887535063113605
-2.99241928587435E-05,7.36507445253665E-06,2.28515625,0,0.00887535063113605
-2.39889868680621E-05,7.5170223681198E-06,2.28515625,0,0.00887535063113605
-2.79815612884704E-05,1.24996204249328E-05,2.28515625,0,0.00887535063113605
-2.1634548829752E-05,1.11869330794434E-05,2.28515625,0,0.00887535063113605
-2.31815683946479E-05,1.36988355734502E-05,2.28515625,0,0.00887535063113605
-2.05081196327228E-05,1.29880418171524E-05,2.28515625,0,0.00887535063113605
-2.18784625758417E-05,1.12890602395055E-05,2.28515625,0,0.00887535063113605
-2.25065614358755E-05,8.81879077496706E-06,2.28515625,0,0.00887535063113605
-2.41211364482297E-05,8.13892347650835E-06,2.28515625,0,0.00887535063113605
-2.45140545303002E-05,8.19022079667775E-06,2.28515625,0,0.00887535063113605
-2.2588794308831E-05,8.5379506344907E-06,2.28515625,0,0.00887535063113605
-2.30434543482261E-05,9.81115044851322E-06,2.28515625,0,0.00887535063113605
-2.20729052671231E-05,1.23686895676656E-05,2.28515625,0,0.00887535063113605
-2.27624095714418E-05,1.62181986524956E-05,2.28515625,0,0.00887535063113605
-2.1794177882839E-05,1.65823712450219E-05,2.28515625,0,0.00887535063113605
-2.32718321058201E-05,1.5713178072474E-05,2.28515625,0,0.00887535063113605
-2.16867647395702E-05,1.40058118631714E-05,2.28515625,0,0.00887535063113605
-2.22734579438111E-05,1.37236047521583E-05,2.28515625,0,0.00887535063113605
-2.23356564674759E-05,1.29280751934857E-05,2.28515625,0,0.00887535063113605
-2.45512328547193E-05,1.30077514768345E-05,2.28515625,0,0.00887535063113605
-2.48240121436538E-05,1.35067020892166E-05,2.28515625,0,0.00887535063113605
-2.57220199273434E-05,1.47079381349613E-05,2.28515625,0,0.00887535063113605
-2.67533869191539E-05,1.43238075906993E-05,2.28515625,0,0.00887535063113605
-2.84045145235723E-05,1.30811413328047E-05,2.28515625,0,0.00887535063113605
-2.87900529656326E-05,1.14316890176269E-05,2.28515625,0,0.00887535063113605
-2.81460597761907E-05,9.59543740464142E-06,2.28515625,0,0.00887535063113605
-2.11058322747704E-05,6.4163805291173E-06,2.28515625,0,0.00887535063113605
-2.8940943593625E-05,9.20893762668129E-06,2.28515625,0,0.00887535063113605
-2.2220589016797E-05,8.02633439889178E-06,2.28515625,0,0.00887535063113605
-2.91843116428936E-05,1.09316424641293E-05,2.28515625,0,0.00887535063113605
-2.35749394050799E-05,9.0878766059177E-06,2.28515625,0,0.00887535063113605
-2.6226607587887E-05,8.35134505905444E-06,2.28515625,0,0.00887535063113605
-2.56144612649223E-05,8.02225895313313E-06,2.28515625,0,0.00887535063113605
-2.76644077530364E-05,1.0795097296068E-05,2.28515625,0,0.00887535063113605
-2.59073513007024E-05,1.2384305591695E-05,2.28515625,0,0.00887535063113605
-2.51465262408601E-05,1.26075983644114E-05,2.28515625,0,0.00887535063113605
-2.49313980020816E-05,1.16556075226981E-05,2.28515625,0,0.00887535063113605
-2.35049319599057E-05,9.74177055468317E-06,2.28515625,0,0.00887535063113605
-2.46206200245069E-05,9.03035561350407E-06,2.28515625,0,0.00887535063113605
-2.44071179622551E-05,7.56938106860616E-06,2.28515625,0,0.00887535063113605
-2.52541485679103E-05,6.03111629970954E-06,2.28515625,0,0.00887535063113605
-2.29574943659827E-05,3.70609927813348E-06,2.28515625,0,0.00887535063113605
-2.33630562433973E-05,3.57038925358211E-06,2.28515625,0,0.00887535063113605
-2.13997500395635E-05,4.4433136281441E-06,2.28515625,0,0.00887535063113605
-2.15382078749826E-05,6.69363271299517E-06,2.28515625,0,0.00887535063113605
-2.06571967282798E-05,6.89854778102017E-06,2.28515625,0,0.00887535063113605
-2.21458067244384E-05,4.87648276248365E-06,2.28515625,0,0.00887535063113605
-2.21248174057109E-05,2.13971179618966E-06,2.28515625,0,0.00887535063113605
-2.34662802540697E-05,1.15070861284039E-06,2.28515625,0,0.00887535063113605
-2.36803498410154E-05,2.38310553868359E-06,2.28515625,0,0.00887535063113605
-2.3359922124655E-05,6.04103570367442E-06,2.28515625,0,0.00887535063113605
-2.23876268137246E-05,1.09439270090661E-05,2.28515625,0,0.00887535063113605
-2.19282410398591E-05,1.47503869811771E-05,2.28515625,0,0.00887535063113605
-1.77295260073151E-05,1.12863735921565E-05,2.28515625,0,0.00887535063113605
-2.56522798736114E-05,1.31831575345132E-05,2.28515625,0,0.00887535063113605
-2.03469862753991E-05,5.75000240132795E-06,2.28515625,0,0.00887535063113605
-2.50015891651856E-05,6.86031125951558E-06,2.28515625,0,0.00887535063113605
-2.12708346225554E-05,3.14132807943679E-06,2.28515625,0,0.00887535063113605
-2.34562012337847E-05,6.3740303630766E-06,2.28515625,0,0.00887535063113605
-2.17444830923341E-05,7.20884963811841E-06,2.28515625,0,0.00887535063113605
-2.26804240810452E-05,1.00570296126534E-05,2.28515625,0,0.00887535063113605
-2.19971316255396E-05,1.11342942545889E-05,2.28515625,0,0.00887535063113605
-2.29291290452238E-05,1.02470976344193E-05,2.28515625,0,0.00887535063113605
-2.46171148319263E-05,9.56940584728727E-06,2.28515625,0,0.00887535063113605
-2.48390697379364E-05,1.08628682937706E-05,2.28515625,0,0.00887535063113605
-2.53046709985938E-05,1.34576503114658E-05,2.28515625,0,0.00887535063113605
-2.34517374337884E-05,1.37103279485018E-05,2.28515625,0,0.00887535063113605
-2.32973598031094E-05,1.34855645228527E-05,2.28515625,0,0.00887535063113605
-2.15321360883536E-05,1.13136075015063E-05,2.28515625,0,0.00887535063113605
-2.2707310563419E-05,1.16874698505853E-05,2.28515625,0,0.00887535063113605
-2.25769490498351E-05,1.21186540127383E-05,2.28515625,0,0.00887535063113605
-2.40909175772686E-05,1.45635585795389E-05,2.28515625,0,0.00887535063113605
-2.39980199694401E-05,1.61198004207108E-05,2.28515625,0,0.00887535063113605
-2.44905186264077E-05,1.84136879397556E-05,2.28515625,0,0.00887535063113605
-2.26595730055124E-05,1.84895634447457E-05,2.28515625,0,0.00887535063113605
-2.17879096453544E-05,1.7257281797356E-05,2.28515625,0,0.00887535063113605
-2.12238919630181E-05,1.46162583405385E-05,2.28515625,0,0.00887535063113605
-2.23654533328954E-05,1.20783879538067E-05,2.28515625,0,0.00887535063113605
-2.2721464119968E-05,9.92595869320212E-06,2.28515625,0,0.00887535063113605
-2.16810058191186E-05,1.14885215225513E-05,2.28515625,0,0.00887535063113605
-1.75702589331195E-05,1.34949032144505E-05,2.28515625,0,0.00887535063113605
-2.50873727054568E-05,2.12429113162216E-05,2.28515625,0,0.00887535063113605
-1.88450376299443E-05,1.76764679054031E-05,2.28515625,0,0.00887535063113605
-2.35015158978058E-05,1.92130228242604E-05,2.28515625,0,0.00887535063113605
-2.05946798814693E-05,1.62148480740143E-05,2.28515625,0,0.00887535063113605
-2.41990492213517E-05,1.85176686500199E-05,2.28515625,0,0.00887535063113605
-2.43942340603098E-05,1.71856881934218E-05,2.28515625,0,0.00887535063113605
-2.65124162979191E-05,1.57392914843513E-05,2.28515625,0,0.00887535063113605
-2.54516908171354E-05,1.15264774649404E-05,2.28515625,0,0.00887535063113605
-2.41525158344302E-05,8.93266133061843E-06,2.28515625,0,0.00887535063113605
-2.40500921790954E-05,9.0031307991012E-06,2.28515625,0,0.00887535063113605
-2.46627896558493E-05,1.01314699350041E-05,2.28515625,0,0.00887535063113605
-2.6885318220593E-05,1.23557465485646E-05,2.28515625,0,0.00887535063113605
-2.60045144386822E-05,1.19622864076518E-05,2.28515625,0,0.00887535063113605
-2.59036951320013E-05,1.26724316942273E-05,2.28515625,0,0.00887535063113605
-2.45447699853685E-05,1.29094323710888E-05,2.28515625,0,0.00887535063113605
-2.50105658778921E-05,1.45306839840487E-05,2.28515625,0,0.00887535063113605
-2.27106993406778E-05,1.51909871419775E-05,2.28515625,0,0.00887535063113605
-2.20059064304223E-05,1.79802809725516E-05,2.28515625,0,0.00887535063113605
-2.13220082514454E-05,1.86967517947778E-05,2.28515625,0,0.00887535063113605
-2.32808724831557E-05,1.76737721631071E-05,2.28515625,0,0.00887535063113605
-2.36283540289151E-05,1.50165969898808E-05,2.28515625,0,0.00887535063113605
-2.26797728828387E-05,1.55408415594138E-05,2.28515625,0,0.00887535063113605
-2.02991868718527E-05,1.73525531863561E-05,2.28515625,0,0.00887535063113605
-2.02639366762014E-05,1.82368439709535E-05,2.28515625,0,0.00887535063113605
-2.16152529901592E-05,1.73448261193698E-05,2.28515625,0,0.00887535063113605
-2.37305412156275E-05,1.58762795763323E-05,2.28515625,0,0.00887535063113605
-2.19254761759657E-05,1.15750854092767E-05,2.28515625,0,0.00887535063113605
-3.2463427487528E-05,1.56580299517373E-05,2.28515625,0,0.00887535063113605
-2.51571618719026E-05,1.01268842627178E-05,2.28515625,0,0.00887535063113605
-2.99262646876741E-05,1.111855453928E-05,2.28515625,0,0.00887535063113605
-2.57937172136735E-05,7.81868766353E-06,2.28515625,0,0.00887535063113605
-2.88625778921414E-05,1.03803286037873E-05,2.28515625,0,0.00887535063113605
-2.69153588305926E-05,9.87184012046782E-06,2.28515625,0,0.00887535063113605
-2.73116056632716E-05,1.07721643871628E-05,2.28515625,0,0.00887535063113605
-2.488044265192E-05,9.60447414399823E-06,2.28515625,0,0.00887535063113605
-2.42183377849869E-05,8.79169783729594E-06,2.28515625,0,0.00887535063113605
-2.59377957263496E-05,8.45261092763394E-06,2.28515625,0,0.00887535063113605
-2.71205190074397E-05,7.9768933574087E-06,2.28515625,0,0.00887535063113605
-2.88580486085266E-05,8.99326369108167E-06,2.28515625,0,0.00887535063113605
-2.75407819572138E-05,8.73754015628947E-06,2.28515625,0,0.00887535063113605
-2.76091832347447E-05,9.20571710594231E-06,2.28515625,0,0.00887535063113605
-2.53684374911245E-05,7.99219287728192E-06,2.28515625,0,0.00887535063113605
-2.64256032096455E-05,7.78206867835252E-06,2.28515625,0,0.00887535063113605
-2.5427483706153E-05,6.14749887972721E-06,2.28515625,0,0.00887535063113605
-2.52861536864657E-05,6.52833568892675E-06,2.28515625,0,0.00887535063113605
-2.3846661861171E-05,6.63362015984603E-06,2.28515625,0,0.00887535063113605
-2.52203954005381E-05,6.88716636432218E-06,2.28515625,0,0.00887535063113605
-2.45105038629845E-05,4.83908070236794E-06,2.28515625,0,0.00887535063113605
-2.43531067098957E-05,3.37989376930636E-06,2.28515625,0,0.00887535063113605
-2.47629686782602E-05,2.79982305073645E-06,2.28515625,0,0.00887535063113605
-2.62933408521349E-05,2.30733962780505E-06,2.28515625,0,0.00887535063113605
-2.60696706391172E-05,1.22354578024897E-07,2.28515625,0,0.00887535063113605
-2.50359753408702E-05,1.66425408565374E-07,2.28515625,0,0.00887535063113605
-2.04339739866555E-05,4.66795745523996E-06,2.28515625,0,0.00887535063113605
-2.95412555715302E-05,1.00885772553738E-05,2.28515625,0,0.00887535063113605
-2.25190869969083E-05,1.13497826532694E-05,2.28515625,0,0.00887535063113605
-2.71949520538328E-05,1.13339510789956E-05,2.28515625,0,0.00887535063113605
-2.39542478084331E-05,1.06845673144562E-05,2.28515625,0,0.00887535063113605
-2.80060030490858E-05,1.28468054754194E-05,2.28515625,0,0.00887535063113605
-2.6022773454315E-05,1.37323004310019E-05,2.28515625,0,0.00887535063113605
-2.60878678091103E-05,1.27552284538979E-05,2.28515625,0,0.00887535063113605
-2.44856710196473E-05,1.20884960779222E-05,2.28515625,0,0.00887535063113605
-2.40136978391092E-05,1.13824207801372E-05,2.28515625,0,0.00887535063113605
-2.32563834288158E-05,1.12312645796919E-05,2.28515625,0,0.00887535063113605
-2.17195120058022E-05,1.07605319499271E-05,2.28515625,0,0.00887535063113605
-2.25607363972813E-05,9.65141225606203E-06,2.28515625,0,0.00887535063113605
-2.23564111365704E-05,7.41145322535886E-06,2.28515625,0,0.00887535063113605
-2.32455768127693E-05,6.94667460265919E-06,2.28515625,0,0.00887535063113605
-2.08594792638905E-05,8.6914897110546E-06,2.28515625,0,0.00887535063113605
-2.09952268050984E-05,1.03481352198287E-05,2.28515625,0,0.00887535063113605
-1.9788792997133E-05,9.5930681709433E-06,2.28515625,0,0.00887535063113605
-1.99271944438806E-05,7.76943488745019E-06,2.28515625,0,0.00887535063113605
-1.81767536560073E-05,6.72360420139739E-06,2.28515625,0,0.00887535063113605
-1.8722585082287E-05,7.99207373347599E-06,2.28515625,0,0.00887535063113605
-1.77435194927966E-05,1.14599351945799E-05,2.28515625,0,0.00887535063113605
-1.86254328582436E-05,1.39404073706828E-05,2.28515625,0,0.00887535063113605
-2.0148416297161E-05,1.2521223652584E-05,2.28515625,0,0.00887535063113605
-2.21671798499301E-05,9.96905509964563E-06,2.28515625,0,0.00887535063113605
-2.20130841626087E-05,1.05610479295137E-05,2.28515625,0,0.00887535063113605
-2.16245971387252E-05,1.40034035212011E-05,2.28515625,0,0.00887535063113605
-1.79915277840337E-05,1.26336117318715E-05,2.28515625,0,0.00887535063113605
-2.59178887063172E-05,1.93423929886194E-05,2.28515625,0,0.00887535063113605
-2.03148938453523E-05,1.81242721737362E-05,2.28515625,0,0.00887535063113605
-2.47964162554126E-05,2.1403673599707E-05,2.28515625,0,0.00887535063113605
-2.04027637664694E-05,1.31876122395624E-05,2.28515625,0,0.00887535063113605
-2.26563533942681E-05,8.42201916384511E-06,2.28515625,0,0.00887535063113605
-2.10099588002777E-05,3.51661492459243E-06,2.28515625,0,0.00887535063113605
-2.1489762730198E-05,5.70605698158033E-06,2.28515625,0,0.00887535063113605
-2.123818921973E-05,8.30589851830155E-06,2.28515625,0,0.00887535063113605
-2.28197623073356E-05,9.38809171202593E-06,2.28515625,0,0.00887535063113605
-2.39941000472754E-05,8.56635142554296E-06,2.28515625,0,0.00887535063113605
-2.28396038437495E-05,7.88300894782878E-06,2.28515625,0,0.00887535063113605
-2.28983462875476E-05,1.00114639280946E-05,2.28515625,0,0.00887535063113605
-2.24593550228747E-05,1.037804850057E-05,2.28515625,0,0.00887535063113605
-2.4297363779624E-05,9.82386791292811E-06,2.28515625,0,0.00887535063113605
-2.38446027651662E-05,7.95938285591546E-06,2.28515625,0,0.00887535063113605
-2.47023563133553E-05,9.43138638831442E-06,2.28515625,0,0.00887535063113605
-2.37273961829487E-05,1.08746125988546E-05,2.28515625,0,0.00887535063113605
-2.52264653681777E-05,1.35998870973708E-05,2.28515625,0,0.00887535063113605
-2.53941107075661E-05,1.4521488083119E-05,2.28515625,0,0.00887535063113605
-2.54764690907905E-05,1.54077297338517E-05,2.28515625,0,0.00887535063113605
-2.29691941058263E-05,1.34586680360371E-05,2.28515625,0,0.00887535063113605
-2.32068432524102E-05,1.2145193068136E-05,2.28515625,0,0.00887535063113605
-2.41223988268757E-05,1.19567212095717E-05,2.28515625,0,0.00887535063113605
-2.40187127928948E-05,1.13861397039727E-05,2.28515625,0,0.00887535063113605
-2.39741530094761E-05,9.97532515611965E-06,2.28515625,0,0.00887535063113605
-2.54773785854923E-05,1.07105506685912E-05,2.28515625,0,0.00887535063113605
-2.11000260605942E-05,8.58651674207067E-06,2.28515625,0,0.00887535063113605
-2.86819376924541E-05,1.12623438326409E-05,2.28515625,0,0.00887535063113605
-1.94321310118539E-05,8.09014181868406E-06,2.28515625,0,0.00887535063113605
-2.39658693317324E-05,9.60512988967821E-06,2.28515625,0,0.00887535063113605
-1.9442002667347E-05,4.36588197771925E-06,2.28515625,0,0.00887535063113605
-2.23132428800454E-05,3.20925619234913E-06,2.28515625,0,0.00887535063113605
-2.02177379833302E-05,3.29939985022065E-06,2.28515625,0,0.00887535063113605
-2.21803129534237E-05,7.94937204773305E-06,2.28515625,0,0.00887535063113605
-2.21016543946462E-05,1.02494313978241E-05,2.28515625,0,0.00887535063113605
-2.27358395932242E-05,9.08437232283177E-06,2.28515625,0,0.00887535063113605
-2.25405492528807E-05,8.40598659124225E-06,2.28515625,0,0.00887535063113605
-2.16551070479909E-05,9.79278411250561E-06,2.28515625,0,0.00887535063113605
-2.37509830185445E-05,1.27055709526758E-05,2.28515625,0,0.00887535063113605
-2.39738128584577E-05,1.38685163619812E-05,2.28515625,0,0.00887535063113605
-2.51146811933722E-05,1.49845282066963E-05,2.28515625,0,0.00887535063113605
-2.32349957514089E-05,1.48619456012966E-05,2.28515625,0,0.00887535063113605
-2.39759428950492E-05,1.51153608385357E-05,2.28515625,0,0.00887535063113605
-2.29321412916761E-05,1.28211722767446E-05,2.28515625,0,0.00887535063113605
-2.46405088546453E-05,1.04153486972791E-05,2.28515625,0,0.00887535063113605
-2.3987724489416E-05,7.2390344030282E-06,2.28515625,0,0.00887535063113605
-2.46840718318708E-05,6.32430692348862E-06,2.28515625,0,0.00887535063113605
-2.3518117814092E-05,6.39039262750885E-06,2.28515625,0,0.00887535063113605
-2.34108320000814E-05,8.05438412498916E-06,2.28515625,0,0.00887535063113605
-2.32122456509387E-05,1.03881984614418E-05,2.28515625,0,0.00887535063113605
-2.40169119933853E-05,1.1131463907077E-05,2.28515625,0,0.00887535063113605
-2.51526707870653E-05,8.87556234374642E-06,2.28515625,0,0.00887535063113605
-2.59025819104863E-05,6.35663491266314E-06,2.28515625,0,0.00887535063113605
-1.94794083654415E-05,5.19043032909394E-06,2.28515625,0,0.00887535063113605
-2.55583654507063E-05,9.57271822699113E-06,2.28515625,0,0.00887535063113605
-1.67815687746042E-05,1.0257010217174E-05,2.28515625,0,0.00887535063113605
-2.20812162297079E-05,1.12185261968989E-05,2.28515625,0,0.00887535063113605
-1.85632889042608E-05,1.00250463219709E-05,2.28515625,0,0.00887535063113605
-2.21948757825885E-05,1.12580928544048E-05,2.28515625,0,0.00887535063113605
-2.10121634154348E-05,9.20967067941092E-06,2.28515625,0,0.00887535063113605
-2.32610855164239E-05,6.94402569934027E-06,2.28515625,0,0.00887535063113605
-2.37045587709872E-05,6.91332934366073E-06,2.28515625,0,0.00887535063113605
-2.37536969507346E-05,7.45449369787821E-06,2.28515625,0,0.00887535063113605
-2.31763460760703E-05,8.57677423482528E-06,2.28515625,0,0.00887535063113605
-2.27896325668553E-05,1.01457735581789E-05,2.28515625,0,0.00887535063113605
-2.39088076341432E-05,1.05869667095249E-05,2.28515625,0,0.00887535063113605
-2.25624226004584E-05,8.47230876388494E-06,2.28515625,0,0.00887535063113605
-2.40162844420411E-05,7.41167241358198E-06,2.28515625,0,0.00887535063113605
-2.42465139308479E-05,7.62658646635828E-06,2.28515625,0,0.00887535063113605
-2.68510138994316E-05,8.29904729471309E-06,2.28515625,0,0.00887535063113605
-2.66528459178517E-05,7.54383609091747E-06,2.28515625,0,0.00887535063113605
-2.81967222690582E-05,6.8901763370377E-06,2.28515625,0,0.00887535063113605
-2.81582470051944E-05,6.44844476482831E-06,2.28515625,0,0.00887535063113605
-2.96666657959577E-05,6.68580514684436E-06,2.28515625,0,0.00887535063113605
-2.90151219815016E-05,7.9084093158599E-06,2.28515625,0,0.00887535063113605
-2.87539969576756E-05,1.01876712506055E-05,2.28515625,0,0.00887535063113605
-2.70395394181833E-05,1.0241578820569E-05,2.28515625,0,0.00887535063113605
-2.49990043812431E-05,8.73325552674942E-06,2.28515625,0,0.00887535063113605
-2.29963206948014E-05,8.30409589980263E-06,2.28515625,0,0.00887535063113605
-2.22037124331109E-05,8.75066689332016E-06,2.28515625,0,0.00887535063113605
-1.86751567525789E-05,8.0219851952279E-06,2.28515625,0,0.00887535063113605
-2.8329359338386E-05,1.06378474811208E-05,2.28515625,0,0.00887535063113605
-2.40400549955666E-05,8.05469426268246E-06,2.28515625,0,0.00887535063113605
-2.85590031126048E-05,1.26373870443786E-05,2.28515625,0,0.00887535063113605
-2.35919160331832E-05,1.31042497741873E-05,2.28515625,0,0.00887535063113605
-2.4861546989996E-05,1.47265018313192E-05,2.28515625,0,0.00887535063113605
-2.28895332838874E-05,1.18981215564418E-05,2.28515625,0,0.00887535063113605
-2.37756830756553E-05,1.03548181868973E-05,2.28515625,0,0.00887535063113605
-2.42297483055154E-05,9.51392757997382E-06,2.28515625,0,0.00887535063113605
-2.7335596314515E-05,9.05206343304599E-06,2.28515625,0,0.00887535063113605
-2.88576193270274E-05,8.92750995262759E-06,2.28515625,0,0.00887535063113605
-2.67805917246733E-05,9.61015939537901E-06,2.28515625,0,0.00887535063113605
-2.59589542110916E-05,1.12917232399923E-05,2.28515625,0,0.00887535063113605
-2.49225668085273E-05,1.06523984868545E-05,2.28515625,0,0.00887535063113605
-2.60355100181187E-05,1.12485795398243E-05,2.28515625,0,0.00887535063113605
-2.42571113631129E-05,1.2246539881744E-05,2.28515625,0,0.00887535063113605
-2.42512433032971E-05,1.36789112730185E-05,2.28515625,0,0.00887535063113605
-2.389387373114E-05,1.22369419841561E-05,2.28515625,0,0.00887535063113605
-2.59216176345944E-05,1.04109185485868E-05,2.28515625,0,0.00887535063113605
-2.47514035436325E-05,9.25063159229467E-06,2.28515625,0,0.00887535063113605
-2.42792248172918E-05,1.01122632258921E-05,2.28515625,0,0.00887535063113605
-2.32963884627679E-05,9.83206700766459E-06,2.28515625,0,0.00887535063113605
-2.30580099014333E-05,1.00565566754085E-05,2.28515625,0,0.00887535063113605
-2.1585074136965E-05,1.14920339910896E-05,2.28515625,0,0.00887535063113605
-2.13552575587528E-05,1.29289337564842E-05,2.28515625,0,0.00887535063113605
-2.14010688068811E-05,1.28392603073735E-05,2.28515625,0,0.00887535063113605
-2.24025097850244E-05,1.14820295493701E-05,2.28515625,0,0.00887535063113605
-1.94734402612085E-05,8.17778982309392E-06,2.28515625,0,0.00887535063113605
-2.83256158581935E-05,1.09444445115514E-05,2.28515625,0,0.00887535063113605
-2.1290634322213E-05,7.90374997450272E-06,2.28515625,0,0.00887535063113605
-2.53793241427047E-05,1.20798013085732E-05,2.28515625,0,0.00887535063113605
-2.21620175580028E-05,1.30109438032378E-05,2.28515625,0,0.00887535063113605
-2.58744385064347E-05,1.45067488119821E-05,2.28515625,0,0.00887535063113605
-2.40890494751511E-05,1.29111513160751E-05,2.28515625,0,0.00887535063113605
-2.49352196988184E-05,1.44151663334924E-05,2.28515625,0,0.00887535063113605
-2.51575256697834E-05,1.69895738508785E-05,2.28515625,0,0.00887535063113605
-2.61925870290725E-05,1.84407490451122E-05,2.28515625,0,0.00887535063113605
-2.59646531048929E-05,1.60808413056657E-05,2.28515625,0,0.00887535063113605
-2.39824385062093E-05,1.21054963528877E-05,2.28515625,0,0.00887535063113605
-2.4787979782559E-05,1.11457338789478E-05,2.28515625,0,0.00887535063113605
-2.53273829002865E-05,1.18325469884439E-05,2.28515625,0,0.00887535063113605
-2.70502023340669E-05,1.32713612401858E-05,2.28515625,0,0.00887535063113605
-2.56813891610364E-05,1.20591121230973E-05,2.28515625,0,0.00887535063113605
-2.61748646153137E-05,9.45076226344099E-06,2.28515625,0,0.00887535063113605
-2.50108623731649E-05,5.57560633751564E-06,2.28515625,0,0.00887535063113605
-2.62387711700285E-05,5.2452223826549E-06,2.28515625,0,0.00887535063113605
-2.58085201494396E-05,7.16722479410237E-06,2.28515625,0,0.00887535063113605
-2.58139207289787E-05,1.0274075975758E-05,2.28515625,0,0.00887535063113605
-2.44050315814093E-05,1.28107585624093E-05,2.28515625,0,0.00887535063113605
-2.52992867899593E-05,1.61087700689677E-05,2.28515625,0,0.00887535063113605
-2.61361183220288E-05,1.81619652721565E-05,2.28515625,0,0.00887535063113605
-2.64684549620142E-05,1.81413033715216E-05,2.28515625,0,0.00887535063113605
-2.60244069067994E-05,1.57092035806272E-05,2.28515625,0,0.00887535063113605
-2.65653507085517E-05,1.40162210300332E-05,2.28515625,0,0.00887535063113605
-2.13737184822094E-05,1.2261300071259E-05,2.28515625,0,0.00887535063113605
-2.90681200567633E-05,1.75376662809867E-05,2.28515625,0,0.00887535063113605
-1.98540001292713E-05,1.17050731205381E-05,2.28515625,0,0.00887535063113605
-2.48861961154034E-05,1.19537007776671E-05,2.28515625,0,0.00887535063113605
-2.12799714063294E-05,8.25182996777585E-06,2.28515625,0,0.00887535063113605
-2.51543788181152E-05,1.07680425571743E-05,2.28515625,0,0.00887535063113605
-2.31273315876024E-05,1.15260318125365E-05,2.28515625,0,0.00887535063113605
-2.48199121415382E-05,1.32916502479929E-05,2.28515625,0,0.00887535063113605
-2.41296856984263E-05,1.29869595184573E-05,2.28515625,0,0.00887535063113605
-2.39211603911826E-05,1.32223531181808E-05,2.28515625,0,0.00887535063113605
-2.35524221352534E-05,1.46441288961796E-05,2.28515625,0,0.00887535063113605
-2.29974539251998E-05,1.57115664478624E-05,2.28515625,0,0.00887535063113605
-2.48846336035058E-05,1.58347484102705E-05,2.28515625,0,0.00887535063113605
-2.42866644839523E-05,1.28254259834648E-05,2.28515625,0,0.00887535063113605
-2.45665323745925E-05,1.12724801510922E-05,2.28515625,0,0.00887535063113605
-2.20110723603284E-05,9.48265187616926E-06,2.28515625,0,0.00887535063113605
-2.27969703701092E-05,1.02005369626568E-05,2.28515625,0,0.00887535063113605
-2.22221442527371E-05,1.06028383015655E-05,2.28515625,0,0.00887535063113605
-2.42012192757102E-05,1.18278330774046E-05,2.28515625,0,0.00887535063113605
-2.33515766012715E-05,1.08937056211289E-05,2.28515625,0,0.00887535063113605
-2.42320129473228E-05,1.04280734376516E-05,2.28515625,0,0.00887535063113605
-2.37155836657621E-05,9.24937648960622E-06,2.28515625,0,0.00887535063113605
-2.26172396651236E-05,8.4511029854184E-06,2.28515625,0,0.00887535063113605
-2.04433526960202E-05,8.26421364763519E-06,2.28515625,0,0.00887535063113605
-2.07636639970588E-05,8.60062209540047E-06,2.28515625,0,0.00887535063113605
-2.0502346160356E-05,6.63688115309924E-06,2.28515625,0,0.00887535063113605
-1.92214520211564E-05,3.46670140061178E-06,2.28515625,0,0.00887535063113605
-1.51384501805296E-05,3.85309886041796E-06,2.28515625,0,0.00887535063113605
-2.25066560233245E-05,1.05065491879941E-05,2.28515625,0,0.00887535063113605
-1.89351158041973E-05,1.38904706545873E-05,2.28515625,0,0.00887535063113605
-2.37908643612172E-05,1.15468910735217E-05,2.28515625,0,0.00887535063113605
-2.13679450098425E-05,9.46119689615443E-06,2.28515625,0,0.00887535063113605
-2.28592016355833E-05,1.43760225910228E-05,2.28515625,0,0.00887535063113605
-2.02593582798727E-05,1.90787613973953E-05,2.28515625,0,0.00887535063113605
-2.06649438041495E-05,1.89191505342023E-05,2.28515625,0,0.00887535063113605
-2.05988653760869E-05,1.63895001605852E-05,2.28515625,0,0.00887535063113605
-2.14019146369537E-05,1.46512102219276E-05,2.28515625,0,0.00887535063113605
-2.22780017793411E-05,1.3615272109746E-05,2.28515625,0,0.00887535063113605
-2.22887701966101E-05,1.20398708531866E-05,2.28515625,0,0.00887535063113605
-2.27215823542792E-05,9.92657805909403E-06,2.28515625,0,0.00887535063113605
-2.13623807212571E-05,7.39869847166119E-06,2.28515625,0,0.00887535063113605
-2.27803520829184E-05,6.17754267295823E-06,2.28515625,0,0.00887535063113605
-2.33555692830123E-05,5.0628291319299E-06,2.28515625,0,0.00887535063113605
-2.42848054767819E-05,3.73101738659898E-06,2.28515625,0,0.00887535063113605
-2.20913152588764E-05,2.53289522333944E-06,2.28515625,0,0.00887535063113605
-2.11496717383852E-05,2.01111856767966E-06,2.28515625,0,0.00887535063113605
-1.99442620214541E-05,2.42428177443799E-06,2.28515625,0,0.00887535063113605
-2.07878892979352E-05,3.78900517716829E-06,2.28515625,0,0.00887535063113605
-2.07384164241375E-05,5.48249909115839E-06,2.28515625,0,0.00887535063113605
-2.09672816708917E-05,8.50335709401406E-06,2.28515625,0,0.00887535063113605
-2.06618915399304E-05,1.2776838048012E-05,2.28515625,0,0.00887535063113605
-2.17112828977406E-05,1.59215487656184E-05,2.28515625,0,0.00887535063113605
-2.30312580242753E-05,1.70018338394584E-05,2.28515625,0,0.00887535063113605
-2.32369420700707E-05,1.43837241921574E-05,2.28515625,0,0.00887535063113605
-1.8654165614862E-05,7.74960335547803E-06,2.28515625,0,0.00887535063113605
-2.72989764198428E-05,9.4645120043424E-06,2.28515625,0,0.00887535063113605
-2.21117570617935E-05,5.59714317205362E-06,2.28515625,0,0.00887535063113605
-2.63299953076057E-05,7.68270274420502E-06,2.28515625,0,0.00887535063113605
-2.05686410481576E-05,5.95895744481822E-06,2.28515625,0,0.00887535063113605
-2.33586615649983E-05,8.39393942442257E-06,2.28515625,0,0.00887535063113605
-2.32510719797574E-05,9.94300535239745E-06,2.28515625,0,0.00887535063113605
-2.52351474046009E-05,1.37312154038227E-05,2.28515625,0,0.00887535063113605
-2.46885974775068E-05,1.53466298797866E-05,2.28515625,0,0.00887535063113605
-2.43990416493034E-05,1.54887711687479E-05,2.28515625,0,0.00887535063113605
-2.42275764321676E-05,1.50778951137909E-05,2.28515625,0,0.00887535063113605
-2.35439492826117E-05,1.48846283991588E-05,2.28515625,0,0.00887535063113605
-2.46169984166045E-05,1.49916368172853E-05,2.28515625,0,0.00887535063113605
-2.33271439356031E-05,1.41415594043792E-05,2.28515625,0,0.00887535063113605
-2.39785276789917E-05,1.42465778480982E-05,2.28515625,0,0.00887535063113605
-2.34517192438943E-05,1.31214474095032E-05,2.28515625,0,0.00887535063113605
-2.53036796493689E-05,1.26774666568963E-05,2.28515625,0,0.00887535063113605
-2.51832643698435E-05,1.07430105344974E-05,2.28515625,0,0.00887535063113605
-2.62336052401224E-05,9.63208731263876E-06,2.28515625,0,0.00887535063113605
-2.48048581852345E-05,8.26343602966517E-06,2.28515625,0,0.00887535063113605
-2.45698574872222E-05,8.15153453004314E-06,2.28515625,0,0.00887535063113605
-2.3552316633868E-05,6.69450128043536E-06,2.28515625,0,0.00887535063113605
-2.38285683735739E-05,6.5357489802409E-06,2.28515625,0,0.00887535063113605
-2.41736579482676E-05,8.57513077789918E-06,2.28515625,0,0.00887535063113605
-2.51763613050571E-05,1.19525020636502E-05,2.28515625,0,0.00887535063113605
-2.59452117461478E-05,1.37895940497401E-05,2.28515625,0,0.00887535063113605
-2.7520769435796E-05,1.22462670333334E-05,2.28515625,0,0.00887535063113605
-2.27358850679593E-05,6.2582989812654E-06,2.28515625,0,0.00887535063113605
-3.17919038934633E-05,7.59350041334983E-06,2.28515625,0,0.00887535063113605
-2.36131199926604E-05,6.38569099464803E-06,2.28515625,0,0.00887535063113605
-2.81035918305861E-05,1.18925026981742E-05,2.28515625,0,0.00887535063113605
-2.11019432754256E-05,1.23266718219384E-05,2.28515625,0,0.00887535063113605
-2.4372346160817E-05,1.28392885017092E-05,2.28515625,0,0.00887535063113605
-2.36957330344012E-05,1.06400057120482E-05,2.28515625,0,0.00887535063113605
-2.55580489465501E-05,1.11476419988321E-05,2.28515625,0,0.00887535063113605
-2.3987215172383E-05,1.22854598885169E-05,2.28515625,0,0.00887535063113605
-2.45220326178242E-05,1.26695385915809E-05,2.28515625,0,0.00887535063113605
-2.5640896637924E-05,1.10648043118999E-05,2.28515625,0,0.00887535063113605
-2.50914581556572E-05,9.11174174689222E-06,2.28515625,0,0.00887535063113605
-2.54262831731467E-05,8.41875680634985E-06,2.28515625,0,0.00887535063113605
-2.35875850194134E-05,7.62861463954323E-06,2.28515625,0,0.00887535063113605
-2.47816205956042E-05,8.18984699435532E-06,2.28515625,0,0.00887535063113605
-2.37387048400706E-05,8.65237507241545E-06,2.28515625,0,0.00887535063113605
-2.54725800914457E-05,9.73720943875378E-06,2.28515625,0,0.00887535063113605
-2.53258040174842E-05,9.14338579605101E-06,2.28515625,0,0.00887535063113605
-2.80107433354715E-05,1.01139421531116E-05,2.28515625,0,0.00887535063113605
-2.84239140455611E-05,1.15494312922237E-05,2.28515625,0,0.00887535063113605
-2.95956015179399E-05,1.26618924696231E-05,2.28515625,0,0.00887535063113605
-2.76890696113696E-05,1.19555625133216E-05,2.28515625,0,0.00887535063113605
-2.62655175902182E-05,1.11476547317579E-05,2.28515625,0,0.00887535063113605
-2.45433238887927E-05,1.00706565717701E-05,2.28515625,0,0.00887535063113605
-2.51228138949955E-05,9.21195533010177E-06,2.28515625,0,0.00887535063113605
-2.56371622526785E-05,7.28005534256226E-06,2.28515625,0,0.00887535063113605
-2.64073805738008E-05,5.36135394213488E-06,2.28515625,0,0.00887535063113605
-2.1939031285001E-05,3.96501536670257E-06,2.28515625,0,0.00887535063113605
-3.08731105178595E-05,4.80493781651603E-06,2.28515625,0,0.00887535063113605
-2.26245592784835E-05,1.37897905005957E-06,2.28515625,0,0.00887535063113605
-2.81062293652212E-05,2.49477056968317E-06,2.28515625,0,0.00887535063113605
-2.34135623031762E-05,5.82762822887162E-06,2.28515625,0,0.00887535063113605
-2.50989705818938E-05,1.02320773294196E-05,2.28515625,0,0.00887535063113605
-2.15658783417894E-05,1.06347570181242E-05,2.28515625,0,0.00887535063113605
-2.1905170797254E-05,9.55091218202142E-06,2.28515625,0,0.00887535063113605
-2.05865835596342E-05,8.54817881190684E-06,2.28515625,0,0.00887535063113605
-2.11944188777125E-05,8.65113088366343E-06,2.28515625,0,0.00887535063113605
-2.34491526498459E-05,1.05105891634594E-05,2.28515625,0,0.00887535063113605
-2.41666002693819E-05,1.30408889162936E-05,2.28515625,0,0.00887535063113605
-2.47633888648124E-05,1.36553690026631E-05,2.28515625,0,0.00887535063113605
-2.20558322325815E-05,1.21044913612423E-05,2.28515625,0,0.00887535063113605
-2.28525004786206E-05,1.17183863039827E-05,2.28515625,0,0.00887535063113605
-2.34963990806136E-05,1.20412069009035E-05,2.28515625,0,0.00887535063113605
-2.62993107753573E-05,1.2565084034577E-05,2.28515625,0,0.00887535063113605
-2.44041711994214E-05,1.18324596769526E-05,2.28515625,0,0.00887535063113605
-2.35405823332258E-05,1.08026979432907E-05,2.28515625,0,0.00887535063113605
-2.25344901991775E-05,9.07912635739194E-06,2.28515625,0,0.00887535063113605
-2.42188398260623E-05,8.22766196506564E-06,2.28515625,0,0.00887535063113605
-2.42736441578018E-05,1.0072632903757E-05,2.28515625,0,0.00887535063113605
-2.44769653363619E-05,1.29890813695965E-05,2.28515625,0,0.00887535063113605
-2.20983238250483E-05,1.36733224280761E-05,2.28515625,0,0.00887535063113605
-2.01632137759589E-05,1.45664753290475E-05,2.28515625,0,0.00887535063113605
-1.94511903828243E-05,1.53282126120757E-05,2.28515625,0,0.00887535063113605
-2.01797429326689E-05,1.41820282806293E-05,2.28515625,0,0.00887535063113605
-1.70443981915014E-05,1.03388292700402E-05,2.28515625,0,0.00887535063113605
-2.40319022850599E-05,1.5373816495412E-05,2.28515625,0,0.00887535063113605
-1.75113891600631E-05,1.24069583762321E-05,2.28515625,0,0.00887535063113605
-2.24925697693834E-05,1.46025004141848E-05,2.28515625,0,0.00887535063113605
-2.09147729037795E-05,1.18541793199256E-05,2.28515625,0,0.00887535063113605
-2.34579765674425E-05,1.3641929399455E-05,2.28515625,0,0.00887535063113605
-2.05637534236303E-05,1.33456769617624E-05,2.28515625,0,0.00887535063113605
-2.01086768356618E-05,1.32482418848667E-05,2.28515625,0,0.00887535063113605
-1.95471402548719E-05,1.07035693872604E-05,2.28515625,0,0.00887535063113605
-2.08688925340539E-05,8.82530184753705E-06,2.28515625,0,0.00887535063113605
-2.19713419937762E-05,1.00546558314818E-05,2.28515625,0,0.00887535063113605
-2.13305866054725E-05,1.39168987516314E-05,2.28515625,0,0.00887535063113605
-2.16487860598136E-05,1.76026715053013E-05,2.28515625,0,0.00887535063113605
-2.08311575988773E-05,1.77572546817828E-05,2.28515625,0,0.00887535063113605
-2.27527198148891E-05,1.73771877598483E-05,2.28515625,0,0.00887535063113605
-2.3091950424714E-05,1.53645396494539E-05,2.28515625,0,0.00887535063113605
-2.43243393924786E-05,1.45267349580536E-05,2.28515625,0,0.00887535063113605
-2.30791629292071E-05,1.37083889057976E-05,2.28515625,0,0.00887535063113605
-2.32476540986681E-05,1.43091410791385E-05,2.28515625,0,0.00887535063113605
-2.22734470298747E-05,1.25265278256848E-05,2.28515625,0,0.00887535063113605
-2.32972670346498E-05,1.03897418739507E-05,2.28515625,0,0.00887535063113605
-2.36180603678804E-05,8.32407204143237E-06,2.28515625,0,0.00887535063113605
-2.36787000176264E-05,9.64428636507364E-06,2.28515625,0,0.00887535063113605
-2.27257351070875E-05,1.42267081173486E-05,2.28515625,0,0.00887535063113605
-2.29954512178665E-05,1.89249894901877E-05,2.28515625,0,0.00887535063113605
-2.2514510419569E-05,2.00809081434272E-05,2.28515625,0,0.00887535063113605
-2.16900134546449E-05,1.77904712472809E-05,2.28515625,0,0.00887535063113605
-1.75726090674289E-05,1.07568384919432E-05,2.28515625,0,0.00887535063113605
-2.62697831203695E-05,1.44993573485408E-05,2.28515625,0,0.00887535063113605
-2.14486608456355E-05,1.18961570478859E-05,2.28515625,0,0.00887535063113605
-2.5442164769629E-05,1.5074851035024E-05,2.28515625,0,0.00887535063113605
-2.13547555176774E-05,1.17426043289015E-05,2.28515625,0,0.00887535063113605
-2.4114124244079E-05,1.58238053700188E-05,2.28515625,0,0.00887535063113605
-2.29451561608585E-05,1.6669713659212E-05,2.28515625,0,0.00887535063113605
-2.29982979362831E-05,1.6888878235477E-05,2.28515625,0,0.00887535063113605
-2.1869678676012E-05,1.38203213282395E-05,2.28515625,0,0.00887535063113605
-2.26253559958423E-05,1.10001492430456E-05,2.28515625,0,0.00887535063113605
-2.35221687034937E-05,9.42298083828064E-06,2.28515625,0,0.00887535063113605
-2.33033733820776E-05,8.0823147072806E-06,2.28515625,0,0.00887535063113605
-2.39410419453634E-05,7.3397095547989E-06,2.28515625,0,0.00887535063113605
-2.36699779634364E-05,5.7905067478714E-06,2.28515625,0,0.00887535063113605
-2.55075592576759E-05,6.87558531353716E-06,2.28515625,0,0.00887535063113605
-2.50871271418873E-05,7.48202955946908E-06,2.28515625,0,0.00887535063113605
-2.53154430538416E-05,1.04947903309949E-05,2.28515625,0,0.00887535063113605
-2.33161736105103E-05,1.19544683911954E-05,2.28515625,0,0.00887535063113605
-2.3975107978913E-05,1.26936311062309E-05,2.28515625,0,0.00887535063113605
-2.43393533310154E-05,1.14033828140236E-05,2.28515625,0,0.00887535063113605
-2.64611171587603E-05,1.13365222205175E-05,2.28515625,0,0.00887535063113605
-2.70658183580963E-05,1.02117610367713E-05,2.28515625,0,0.00887535063113605
-2.83059143839637E-05,9.16506996873068E-06,2.28515625,0,0.00887535063113605
-2.87294624286005E-05,7.14966199666378E-06,2.28515625,0,0.00887535063113605
-2.83190747722983E-05,6.19736238149926E-06,2.28515625,0,0.00887535063113605
-2.67071372945793E-05,6.77858179187751E-06,2.28515625,0,0.00887535063113605
-2.61875029536895E-05,7.83044106356101E-06,2.28515625,0,0.00887535063113605
-2.16494627238717E-05,6.01097326580202E-06,2.28515625,0,0.00887535063113605
-3.0634029826615E-05,8.36377967061708E-06,2.28515625,0,0.00887535063113605
-2.26316478801891E-05,7.58210944695747E-06,2.28515625,0,0.00887535063113605
-2.76055634458316E-05,1.0769284926937E-05,2.28515625,0,0.00887535063113605
-2.29088600463001E-05,1.04099890450016E-05,2.28515625,0,0.00887535063113605
-2.54075894190464E-05,1.32731338453596E-05,2.28515625,0,0.00887535063113605
-2.23916049435502E-05,1.36993357955362E-05,2.28515625,0,0.00887535063113605
-2.2643069314654E-05,1.34758556669112E-05,2.28515625,0,0.00887535063113605
-2.14176452573156E-05,1.24845555546926E-05,2.28515625,0,0.00887535063113605
-2.29005108849378E-05,1.11783811007626E-05,2.28515625,0,0.00887535063113605
-2.56977673416259E-05,9.95647951640422E-06,2.28515625,0,0.00887535063113605
-2.63055371760856E-05,8.1151983977179E-06,2.28515625,0,0.00887535063113605
-2.61134937318275E-05,7.05312004356529E-06,2.28515625,0,0.00887535063113605
-2.31453614105703E-05,6.45969066681573E-06,2.28515625,0,0.00887535063113605
-2.3562859496451E-05,6.41610995444353E-06,2.28515625,0,0.00887535063113605
-2.27320415433496E-05,4.91943274028017E-06,2.28515625,0,0.00887535063113605
-2.42950318352086E-05,4.48949958808953E-06,2.28515625,0,0.00887535063113605
-2.33910814131377E-05,4.75367369290325E-06,2.28515625,0,0.00887535063113605
-2.4779794330243E-05,6.04432125328458E-06,2.28515625,0,0.00887535063113605
-2.42202404479031E-05,6.07432275501196E-06,2.28515625,0,0.00887535063113605
-2.49154745688429E-05,6.17301475358545E-06,2.28515625,0,0.00887535063113605
-2.35762636293657E-05,6.33047238807194E-06,2.28515625,0,0.00887535063113605
-2.31396916205995E-05,7.29918565411936E-06,2.28515625,0,0.00887535063113605
-2.20198162423912E-05,6.97106725056074E-06,2.28515625,0,0.00887535063113605
-2.29720699280733E-05,4.70538088848116E-06,2.28515625,0,0.00887535063113605
-2.3820279238862E-05,3.30322495756263E-06,2.28515625,0,0.00887535063113605
-2.36529267567676E-05,5.1681190598174E-06,2.28515625,0,0.00887535063113605
-1.86656998266699E-05,7.76942033553496E-06,2.28515625,0,0.00887535063113605
-2.64986956608482E-05,1.28602841868997E-05,2.28515625,0,0.00887535063113605
-1.94587701116689E-05,1.15979146357859E-05,2.28515625,0,0.00887535063113605
-2.31578196689952E-05,1.2816346497857E-05,2.28515625,0,0.00887535063113605
-1.88321482710307E-05,1.15481843749876E-05,2.28515625,0,0.00887535063113605
-2.27560813073069E-05,1.24898124340689E-05,2.28515625,0,0.00887535063113605
-2.31572885240894E-05,1.052138304658E-05,2.28515625,0,0.00887535063113605
-2.50357043114491E-05,8.59009469422745E-06,2.28515625,0,0.00887535063113605
-2.43284284806577E-05,7.12355222276528E-06,2.28515625,0,0.00887535063113605
-2.46301769948332E-05,8.36209437693469E-06,2.28515625,0,0.00887535063113605
-2.59524804278044E-05,9.7674328571884E-06,2.28515625,0,0.00887535063113605
-2.63453239313094E-05,9.86108807410346E-06,2.28515625,0,0.00887535063113605
-2.7294267056277E-05,9.7616903076414E-06,2.28515625,0,0.00887535063113605
-2.55792347161332E-05,8.33779631648213E-06,2.28515625,0,0.00887535063113605
-2.4833419956849E-05,7.8359753388213E-06,2.28515625,0,0.00887535063113605
-2.29045672313077E-05,8.22909896669444E-06,2.28515625,0,0.00887535063113605
-2.50764169322792E-05,1.04851415017038E-05,2.28515625,0,0.00887535063113605
-2.53793532465352E-05,1.1860536687891E-05,2.28515625,0,0.00887535063113605
-2.57063529716106E-05,1.3541601219913E-05,2.28515625,0,0.00887535063113605
-2.41363086388446E-05,1.36275712065981E-05,2.28515625,0,0.00887535063113605
-2.46301751758438E-05,1.2872960724053E-05,2.28515625,0,0.00887535063113605
-2.41336165345274E-05,1.04509517768747E-05,2.28515625,0,0.00887535063113605
-2.47154439421138E-05,9.68640870269155E-06,2.28515625,0,0.00887535063113605
-2.47136358666467E-05,1.21163775474997E-05,2.28515625,0,0.00887535063113605
-2.50164466706337E-05,1.66286135936389E-05,2.28515625,0,0.00887535063113605
-2.44390521402238E-05,2.02940391318407E-05,2.28515625,0,0.00887535063113605
-2.45154606091091E-05,2.01705624931492E-05,2.28515625,0,0.00887535063113605
-2.15165782719851E-05,1.23709996842081E-05,2.28515625,0,0.00887535063113605
-3.08313392451964E-05,1.3947192201158E-05,2.28515625,0,0.00887535063113605
-2.28076351049822E-05,6.2857689044904E-06,2.28515625,0,0.00887535063113605
-2.80975673376815E-05,8.67553262651199E-06,2.28515625,0,0.00887535063113605
-2.46291729126824E-05,4.64890717921662E-06,2.28515625,0,0.00887535063113605
-2.82168657577131E-05,5.50153890799265E-06,2.28515625,0,0.00887535063113605
-2.5478251700406E-05,9.22693175198219E-07,2.28515625,0,0.00887535063113605
-2.35466086451197E-05,6.54385360121523E-07,2.28515625,0,0.00887535063113605
-2.04048574232729E-05,2.67637983597524E-06,2.28515625,0,0.00887535063113605
-2.04622447199654E-05,6.73876638757065E-06,2.28515625,0,0.00887535063113605
-2.22078051592689E-05,8.9405994003755E-06,2.28515625,0,0.00887535063113605
-2.30327568715438E-05,8.69931500346866E-06,2.28515625,0,0.00887535063113605
-2.47052739723586E-05,9.39989786274964E-06,2.28515625,0,0.00887535063113605
-2.42569858528441E-05,9.04770149645628E-06,2.28515625,0,0.00887535063113605
-2.5729099434102E-05,1.04109822132159E-05,2.28515625,0,0.00887535063113605
-2.44406946876552E-05,1.02169015008258E-05,2.28515625,0,0.00887535063113605
-2.50062585109845E-05,1.130406599259E-05,2.28515625,0,0.00887535063113605
-2.32652218983276E-05,1.007730497804E-05,2.28515625,0,0.00887535063113605
-2.3609882191522E-05,1.04650544017204E-05,2.28515625,0,0.00887535063113605
-2.2578346033697E-05,1.00000952443224E-05,2.28515625,0,0.00887535063113605
-2.32052843784913E-05,1.10295322883758E-05,2.28515625,0,0.00887535063113605
-2.18636396311922E-05,1.14662052510539E-05,2.28515625,0,0.00887535063113605
-2.12426821235567E-05,1.27090543173836E-05,2.28515625,0,0.00887535063113605
-2.04587395273848E-05,1.24678781503462E-05,2.28515625,0,0.00887535063113605
-2.07925877475645E-05,1.23404315672815E-05,2.28515625,0,0.00887535063113605
-2.09595964406617E-05,1.21905259220512E-05,2.28515625,0,0.00887535063113605
-2.21430200326722E-05,1.19727583296481E-05,2.28515625,0,0.00887535063113605
-1.98988418560475E-05,6.54681070955121E-06,2.28515625,0,0.00887535063113605
-2.88877563434653E-05,5.72861790715251E-06,2.28515625,0,0.00887535063113605
-2.2005440769135E-05,9.21096670936095E-07,2.28515625,0,0.00887535063113605
-2.53158450504998E-05,4.71046087113791E-06,2.28515625,0,0.00887535063113605
-1.92489515029592E-05,5.48244724996039E-06,2.28515625,0,0.00887535063113605
-2.13447056012228E-05,7.65464574215002E-06,2.28515625,0,0.00887535063113605
-1.98684429051355E-05,6.40148891761783E-06,2.28515625,0,0.00887535063113605
-2.05029737117002E-05,8.57111808727495E-06,2.28515625,0,0.00887535063113605
-1.97480312635889E-05,1.05224225990241E-05,2.28515625,0,0.00887535063113605
-2.08288729481865E-05,1.12930711111403E-05,2.28515625,0,0.00887535063113605
-2.16835887840716E-05,1.11069002741715E-05,2.28515625,0,0.00887535063113605
-2.03320014406927E-05,1.02974317996996E-05,2.28515625,0,0.00887535063113605
-2.10856051126029E-05,1.12375200842507E-05,2.28515625,0,0.00887535063113605
-2.10330272238934E-05,1.29975996969733E-05,2.28515625,0,0.00887535063113605
-2.27077434828971E-05,1.59377068484901E-05,2.28515625,0,0.00887535063113605
-2.14850279007806E-05,1.61560019478202E-05,2.28515625,0,0.00887535063113605
-2.2693544451613E-05,1.6285506717395E-05,2.28515625,0,0.00887535063113605
-2.20773708861088E-05,1.44735549838515E-05,2.28515625,0,0.00887535063113605
-2.24099294428015E-05,1.15460443339543E-05,2.28515625,0,0.00887535063113605
-2.06926069949986E-05,7.23951643522014E-06,2.28515625,0,0.00887535063113605
-2.16482440009713E-05,5.14610110258218E-06,2.28515625,0,0.00887535063113605
-2.26948322961107E-05,4.98568988405168E-06,2.28515625,0,0.00887535063113605
-2.37699496210553E-05,8.34272032079753E-06,2.28515625,0,0.00887535063113605
-2.37164695136016E-05,1.37812185130315E-05,2.28515625,0,0.00887535063113605
-2.56491675827419E-05,1.91911149158841E-05,2.28515625,0,0.00887535063113605
-2.69071861112025E-05,2.20517231355188E-05,2.28515625,0,0.00887535063113605
-2.58829822996631E-05,2.02917472051922E-05,2.28515625,0,0.00887535063113605
-1.89316560863517E-05,1.01910154626239E-05,2.28515625,0,0.00887535063113605
-2.75517704722006E-05,9.27678320294945E-06,2.28515625,0,0.00887535063113605
-2.20898236875655E-05,3.4014717584796E-06,2.28515625,0,0.00887535063113605
-2.62387166003464E-05,1.12043271656148E-05,2.28515625,0,0.00887535063113605
-2.12893301068107E-05,1.38330769914319E-05,2.28515625,0,0.00887535063113605
-2.50339035119396E-05,1.87497225851985E-05,2.28515625,0,0.00887535063113605
-2.47386742557865E-05,1.63610948220594E-05,2.28515625,0,0.00887535063113605
-2.58839045272907E-05,1.65704386745347E-05,2.28515625,0,0.00887535063113605
-2.36970645346446E-05,1.65315796039067E-05,2.28515625,0,0.00887535063113605
-2.27217988140183E-05,1.74465185409645E-05,2.28515625,0,0.00887535063113605
-2.33979626500513E-05,1.74684555531712E-05,2.28515625,0,0.00887535063113605
-2.44124184973771E-05,1.57707163452869E-05,2.28515625,0,0.00887535063113605
-2.56594739767024E-05,1.24476664495887E-05,2.28515625,0,0.00887535063113605
-2.30502773774788E-05,8.18129410617985E-06,2.28515625,0,0.00887535063113605
-2.22738653974375E-05,9.26532902667532E-06,2.28515625,0,0.00887535063113605
-2.15144536923617E-05,1.1755899322452E-05,2.28515625,0,0.00887535063113605
-2.43264930759324E-05,1.53832916112151E-05,2.28515625,0,0.00887535063113605
-2.45080300373957E-05,1.46911652336712E-05,2.28515625,0,0.00887535063113605
-2.53261132456828E-05,1.21283728731214E-05,2.28515625,0,0.00887535063113605
-2.41868692683056E-05,6.44466308585834E-06,2.28515625,0,0.00887535063113605
-2.49648164754035E-05,3.59236560143472E-06,2.28515625,0,0.00887535063113605
-2.43158519879216E-05,3.37468577527034E-06,2.28515625,0,0.00887535063113605
-2.43087015405763E-05,7.23123321222374E-06,2.28515625,0,0.00887535063113605
-2.41105844906997E-05,1.02066114777699E-05,2.28515625,0,0.00887535063113605
-2.44615475821774E-05,1.22275796456961E-05,2.28515625,0,0.00887535063113605
-2.39660548686516E-05,1.27540088215028E-05,2.28515625,0,0.00887535063113605
-2.39883629546966E-05,1.2581570445036E-05,2.28515625,0,0.00887535063113605
-1.93437899724813E-05,8.860723937687E-06,2.28515625,0,0.00887535063113605
-2.6152256396017E-05,1.12530251499265E-05,2.28515625,0,0.00887535063113605
-1.86676279554376E-05,7.6877213359694E-06,2.28515625,0,0.00887535063113605
-2.41134748648619E-05,1.09119164335425E-05,2.28515625,0,0.00887535063113605
-2.11444748856593E-05,9.08570382307516E-06,2.28515625,0,0.00887535063113605
-2.60345805145334E-05,9.5880404842319E-06,2.28515625,0,0.00887535063113605
-2.51440396823455E-05,8.81601408764254E-06,2.28515625,0,0.00887535063113605
-2.63320689555258E-05,1.25450296764029E-05,2.28515625,0,0.00887535063113605
-2.45302962866845E-05,1.54477183968993E-05,2.28515625,0,0.00887535063113605
-2.33209120779065E-05,1.57102022058098E-05,2.28515625,0,0.00887535063113605
-2.36034411500441E-05,1.30779681057902E-05,2.28515625,0,0.00887535063113605
-2.42609585257014E-05,1.03037436929299E-05,2.28515625,0,0.00887535063113605
-2.63289857684867E-05,9.81908669928089E-06,2.28515625,0,0.00887535063113605
-2.52582649409305E-05,1.01968207673053E-05,2.28515625,0,0.00887535063113605
-2.54937676800182E-05,1.37448760142433E-05,2.28515625,0,0.00887535063113605
-2.28637036343571E-05,1.62007509061368E-05,2.28515625,0,0.00887535063113605
-2.28995504585328E-05,1.70018447533948E-05,2.28515625,0,0.00887535063113605
-2.22991948248819E-05,1.4112435565039E-05,2.28515625,0,0.00887535063113605
-2.45559167524334E-05,1.23049903777428E-05,2.28515625,0,0.00887535063113605
-2.41750876739388E-05,1.00904780993005E-05,2.28515625,0,0.00887535063113605
-2.43541035160888E-05,9.1127067207708E-06,2.28515625,0,0.00887535063113605
-2.31850717682391E-05,8.90158025868004E-06,2.28515625,0,0.00887535063113605
-2.40854387811851E-05,9.97860570350895E-06,2.28515625,0,0.00887535063113605
-2.55450268014101E-05,1.02287931440515E-05,2.28515625,0,0.00887535063113605
-2.71186054305872E-05,1.04636546893744E-05,2.28515625,0,0.00887535063113605
-2.62593130173627E-05,9.60905890678987E-06,2.28515625,0,0.00887535063113605
-2.45899591391208E-05,7.42924021324143E-06,2.28515625,0,0.00887535063113605
-1.82516541826772E-05,6.42028271613526E-06,2.28515625,0,0.00887535063113605
-2.42144451476634E-05,1.11770632429398E-05,2.28515625,0,0.00887535063113605
-1.67822308867471E-05,1.19064989121398E-05,2.28515625,0,0.00887535063113605
-2.33506161748664E-05,1.49256875374704E-05,2.28515625,0,0.00887535063113605
-2.10096586670261E-05,1.51493513840251E-05,2.28515625,0,0.00887535063113605
-2.34056533372495E-05,1.60070158017334E-05,2.28515625,0,0.00887535063113605
-2.13889288716018E-05,1.31157730720588E-05,2.28515625,0,0.00887535063113605
-2.32205547945341E-05,1.05834824353224E-05,2.28515625,0,0.00887535063113605
-2.27368109335657E-05,9.78371190285543E-06,2.28515625,0,0.00887535063113605
-2.21232912736014E-05,1.03703159766155E-05,2.28515625,0,0.00887535063113605
-2.18438708543545E-05,1.01120449471637E-05,2.28515625,0,0.00887535063113605
-2.1811847545905E-05,9.85204133030493E-06,2.28515625,0,0.00887535063113605
-2.34735016420018E-05,1.1470880053821E-05,2.28515625,0,0.00887535063113605
-2.30790428759065E-05,1.26124450616771E-05,2.28515625,0,0.00887535063113605
-2.44474249484483E-05,1.30224225358688E-05,2.28515625,0,0.00887535063113605
-2.40423032664694E-05,1.09679021988995E-05,2.28515625,0,0.00887535063113605
-2.5561275833752E-05,8.36408889881568E-06,2.28515625,0,0.00887535063113605
-2.47527550527593E-05,6.03157741352334E-06,2.28515625,0,0.00887535063113605
-2.58127383858664E-05,5.78706840315135E-06,2.28515625,0,0.00887535063113605
-2.54927799687721E-05,5.08878019900294E-06,2.28515625,0,0.00887535063113605
-2.72195120487595E-05,4.85578493680805E-06,2.28515625,0,0.00887535063113605
-2.66814422502648E-05,5.06441256220569E-06,2.28515625,0,0.00887535063113605
-2.60977831203491E-05,7.6801306931884E-06,2.28515625,0,0.00887535063113605
-2.516659333196E-05,1.08748845377704E-05,2.28515625,0,0.00887535063113605
-2.6697260182118E-05,1.37375709527987E-05,2.28515625,0,0.00887535063113605
-2.90691496047657E-05,1.58826642291388E-05,2.28515625,0,0.00887535063113605
-2.97288570436649E-05,1.49520083141397E-05,2.28515625,0,0.00887535063113605
-2.31360900215805E-05,8.27603616926353E-06,2.28515625,0,0.00887535063113605
-3.17228077619802E-05,8.94278582563857E-06,2.28515625,0,0.00887535063113605
-2.19549729081336E-05,4.51183313998627E-06,2.28515625,0,0.00887535063113605
-2.65790567937074E-05,8.89488546818029E-06,2.28515625,0,0.00887535063113605
-2.11312108149286E-05,8.75787736731581E-06,2.28515625,0,0.00887535063113605
-2.59882381214993E-05,1.09180245999596E-05,2.28515625,0,0.00887535063113605
-2.51174242293928E-05,8.55854614201235E-06,2.28515625,0,0.00887535063113605
-2.62511202890892E-05,7.88052511779824E-06,2.28515625,0,0.00887535063113605
-2.43400736508192E-05,6.29736041446449E-06,2.28515625,0,0.00887535063113605
-2.36191845033318E-05,5.75350622966653E-06,2.28515625,0,0.00887535063113605
-2.37048352573765E-05,5.89357296121307E-06,2.28515625,0,0.00887535063113605
-2.32066686294274E-05,6.3654620134912E-06,2.28515625,0,0.00887535063113605
-2.53981233981904E-05,7.05711590853753E-06,2.28515625,0,0.00887535063113605
-2.61487039097119E-05,7.62190438763355E-06,2.28515625,0,0.00887535063113605
-2.7996344215353E-05,1.17608678920078E-05,2.28515625,0,0.00887535063113605
-2.52209847531049E-05,1.43837869472918E-05,2.28515625,0,0.00887535063113605
-2.57465144386515E-05,1.5129678104131E-05,2.28515625,0,0.00887535063113605
-2.53089910984272E-05,1.17807157948846E-05,2.28515625,0,0.00887535063113605
-2.69379888777621E-05,8.77821457834216E-06,2.28515625,0,0.00887535063113605
-2.55207978625549E-05,7.02903071214678E-06,2.28515625,0,0.00887535063113605
-2.56206058111275E-05,8.62283741298597E-06,2.28515625,0,0.00887535063113605
-2.49410077231005E-05,9.22612434806069E-06,2.28515625,0,0.00887535063113605
-2.6148663891945E-05,1.02303256426239E-05,2.28515625,0,0.00887535063113605
-2.60618999163853E-05,1.20228087325813E-05,2.28515625,0,0.00887535063113605
-2.47945445153164E-05,1.46154025060241E-05,2.28515625,0,0.00887535063113605
-2.31105404964183E-05,1.38583227453637E-05,2.28515625,0,0.00887535063113605
-2.35954321397003E-05,9.64792070590192E-06,2.28515625,0,0.00887535063113605
-1.84034233825514E-05,5.59419368073577E-06,2.28515625,0,0.00887535063113605
-2.50501525442814E-05,9.76484989223536E-06,2.28515625,0,0.00887535063113605
-1.86580382433021E-05,9.99313397187507E-06,2.28515625,0,0.00887535063113605
-2.51580895564985E-05,9.31690647121286E-06,2.28515625,0,0.00887535063113605
-2.36713603953831E-05,5.12805354446755E-06,2.28515625,0,0.00887535063113605
-2.8129072234151E-05,6.66954701955547E-06,2.28515625,0,0.00887535063113605
-2.64032423729077E-05,9.6919748102664E-06,2.28515625,0,0.00887535063113605
-2.66215847659623E-05,1.29394429677632E-05,2.28515625,0,0.00887535063113605
-2.39027158386307E-05,1.3671221495315E-05,2.28515625,0,0.00887535063113605
-2.30620953516336E-05,1.34631500259275E-05,2.28515625,0,0.00887535063113605
-2.33444679906825E-05,1.40019110403955E-05,2.28515625,0,0.00887535063113605
-2.13873427128419E-05,1.50308669617516E-05,2.28515625,0,0.00887535063113605
-2.03142499231035E-05,1.52602060552454E-05,2.28515625,0,0.00887535063113605
-1.91280742001254E-05,1.30595826703939E-05,2.28515625,0,0.00887535063113605
-2.11537953873631E-05,1.08316144178389E-05,2.28515625,0,0.00887535063113605
-2.06094773602672E-05,9.65617255133111E-06,2.28515625,0,0.00887535063113605
-2.17248489207122E-05,1.04255723272217E-05,2.28515625,0,0.00887535063113605
-2.06207478186116E-05,1.18537072921754E-05,2.28515625,0,0.00887535063113605
-2.07682114705676E-05,1.46461561598699E-05,2.28515625,0,0.00887535063113605
-1.87362056749407E-05,1.52358916238882E-05,2.28515625,0,0.00887535063113605
-1.87989571713842E-05,1.35745294755907E-05,2.28515625,0,0.00887535063113605
-1.89425936696352E-05,1.10681266960455E-05,2.28515625,0,0.00887535063113605
-2.10356211027829E-05,1.07403966467245E-05,2.28515625,0,0.00887535063113605
-2.16630214708857E-05,1.15146985990577E-05,2.28515625,0,0.00887535063113605
-2.1885500245844E-05,1.09904267446836E-05,2.28515625,0,0.00887535063113605
-2.15062118513742E-05,9.42790484259604E-06,2.28515625,0,0.00887535063113605
-2.15729814954102E-05,8.91758281795774E-06,2.28515625,0,0.00887535063113605
-1.75769873749232E-05,6.9420634645212E-06,2.28515625,0,0.00887535063113605
-2.4949804355856E-05,1.10552864498459E-05,2.28515625,0,0.00887535063113605
-1.90391583601013E-05,1.15142720460426E-05,2.28515625,0,0.00887535063113605
-2.37913973251125E-05,1.61750267579919E-05,2.28515625,0,0.00887535063113605
-2.06856493605301E-05,1.59588635142427E-05,2.28515625,0,0.00887535063113605
-2.34223134611966E-05,1.59923220053315E-05,2.28515625,0,0.00887535063113605
-2.10724447242683E-05,1.48382468978525E-05,2.28515625,0,0.00887535063113605
-2.0511934053502E-05,1.61278494488215E-05,2.28515625,0,0.00887535063113605
-1.83935917448252E-05,1.48699336932623E-05,2.28515625,0,0.00887535063113605
-1.79906928678975E-05,1.19765772979008E-05,2.28515625,0,0.00887535063113605
-1.90206810657401E-05,1.06181896626367E-05,2.28515625,0,0.00887535063113605
-2.04116495297058E-05,1.17723138828296E-05,2.28515625,0,0.00887535063113605
-2.25257463171147E-05,1.41894943226362E-05,2.28515625,0,0.00887535063113605
-2.13993098441279E-05,1.39737512654392E-05,2.28515625,0,0.00887535063113605
-2.10869911825284E-05,1.20585273180041E-05,2.28515625,0,0.00887535063113605
-1.99209043785231E-05,9.64655373536516E-06,2.28515625,0,0.00887535063113605
-2.19611429201905E-05,1.00516626844183E-05,2.28515625,0,0.00887535063113605
-2.24706273002084E-05,1.04814735095715E-05,2.28515625,0,0.00887535063113605
-2.51780620601494E-05,1.08818212538608E-05,2.28515625,0,0.00887535063113605
-2.54508049692959E-05,1.00722663773922E-05,2.28515625,0,0.00887535063113605
-2.45815608650446E-05,1.03611791928415E-05,2.28515625,0,0.00887535063113605
-2.30647310672794E-05,1.120864180848E-05,2.28515625,0,0.00887535063113605
-2.52392328548012E-05,1.05775570773403E-05,2.28515625,0,0.00887535063113605
-2.62922603724292E-05,7.02656598150497E-06,2.28515625,0,0.00887535063113605
-2.60861343122087E-05,5.82017037231708E-06,2.28515625,0,0.00887535063113605
-2.4919518182287E-05,7.67434630688513E-06,2.28515625,0,0.00887535063113605
-2.48879659920931E-05,8.49533080327092E-06,2.28515625,0,0.00887535063113605
-2.05601991183357E-05,6.40552843833575E-06,2.28515625,0,0.00887535063113605
-2.86922841041815E-05,1.02731046354165E-05,2.28515625,0,0.00887535063113605
-2.02448354684748E-05,1.0805752935994E-05,2.28515625,0,0.00887535063113605
-2.52325353358174E-05,1.39080784720136E-05,2.28515625,0,0.00887535063113605
-2.09837344300468E-05,1.15083039418096E-05,2.28515625,0,0.00887535063113605
-2.28340613830369E-05,9.16132921702228E-06,2.28515625,0,0.00887535063113605
-2.07084267458413E-05,3.65625760423427E-06,2.28515625,0,0.00887535063113605
-2.19392532017082E-05,3.92355929079713E-07,2.28515625,0,0.00887535063113605
-2.09115569305141E-05,-5.40622920652822E-07,2.28515625,0,0.00887535063113605
-2.16644148167688E-05,9.4330499678108E-07,2.28515625,0,0.00887535063113605
-2.32055190281244E-05,3.62243827112252E-06,2.28515625,0,0.00887535063113605
-2.36915584537201E-05,5.41601730219554E-06,2.28515625,0,0.00887535063113605
-2.56862713285955E-05,6.51151094643865E-06,2.28515625,0,0.00887535063113605
-2.44651891989633E-05,6.66434925733483E-06,2.28515625,0,0.00887535063113605
-2.44177335844142E-05,7.0527171374124E-06,2.28515625,0,0.00887535063113605
-2.41038960666629E-05,5.74858540858258E-06,2.28515625,0,0.00887535063113605
-2.71012650046032E-05,5.17082389706047E-06,2.28515625,0,0.00887535063113605
-2.68608346232213E-05,5.20740240972373E-06,2.28515625,0,0.00887535063113605
-2.7429681722424E-05,6.86391149429255E-06,2.28515625,0,0.00887535063113605
-2.61980094364844E-05,7.6777159847552E-06,2.28515625,0,0.00887535063113605
-2.63375859503867E-05,8.7855214587762E-06,2.28515625,0,0.00887535063113605
-2.42031073867111E-05,9.60941451921826E-06,2.28515625,0,0.00887535063113605
-2.37723415921209E-05,1.03735237644287E-05,2.28515625,0,0.00887535063113605
-2.39233486354351E-05,1.02317508208216E-05,2.28515625,0,0.00887535063113605
-2.51557412411785E-05,9.91387423709966E-06,2.28515625,0,0.00887535063113605
-2.64704158325912E-05,1.00049583124928E-05,2.28515625,0,0.00887535063113605
-2.66717088379664E-05,1.13001406134572E-05,2.28515625,0,0.00887535063113605
-2.02953087864444E-05,9.92482728179311E-06,2.28515625,0,0.00887535063113605
-2.8693706553895E-05,1.32197101265774E-05,2.28515625,0,0.00887535063113605
-2.166611920984E-05,9.92380773823243E-06,2.28515625,0,0.00887535063113605
-2.72516790573718E-05,1.42126873470261E-05,2.28515625,0,0.00887535063113605
-2.37720141740283E-05,1.28656338347355E-05,2.28515625,0,0.00887535063113605
-2.71738299488788E-05,1.43802471939125E-05,2.28515625,0,0.00887535063113605
-2.53179023275152E-05,1.18497227958869E-05,2.28515625,0,0.00887535063113605
-2.61397581198253E-05,1.08947861008346E-05,2.28515625,0,0.00887535063113605
-2.54136266448768E-05,1.00643019322888E-05,2.28515625,0,0.00887535063113605
-2.61213335761568E-05,1.065925880539E-05,2.28515625,0,0.00887535063113605
-2.58802447206108E-05,1.2719842743536E-05,2.28515625,0,0.00887535063113605
-2.42124551732559E-05,1.3506075447367E-05,2.28515625,0,0.00887535063113605
-2.52506015385734E-05,1.3367861356528E-05,2.28515625,0,0.00887535063113605
-2.54062069870997E-05,1.23264526337152E-05,2.28515625,0,0.00887535063113605
-2.69384145212825E-05,1.36573562485864E-05,2.28515625,0,0.00887535063113605
-2.56984476436628E-05,1.47563114296645E-05,2.28515625,0,0.00887535063113605
-2.72678098554024E-05,1.64359717018669E-05,2.28515625,0,0.00887535063113605
-2.69234005827457E-05,1.63814183906652E-05,2.28515625,0,0.00887535063113605
-2.75043748843018E-05,1.72611071320716E-05,2.28515625,0,0.00887535063113605
-2.57930842053611E-05,1.73432727024192E-05,2.28515625,0,0.00887535063113605
-2.71607277682051E-05,1.77186702785548E-05,2.28515625,0,0.00887535063113605
-2.79184969258495E-05,1.67671423696447E-05,2.28515625,0,0.00887535063113605
-2.81175834970782E-05,1.6849793610163E-05,2.28515625,0,0.00887535063113605
-2.61672139458824E-05,1.70102812262485E-05,2.28515625,0,0.00887535063113605
-2.52179324888857E-05,1.65216242749011E-05,2.28515625,0,0.00887535063113605
-2.39126929955091E-05,1.46265274452162E-05,2.28515625,0,0.00887535063113605
-2.32798138313228E-05,1.33647090478917E-05,2.28515625,0,0.00887535063113605
-1.92111237993231E-05,9.67418782238383E-06,2.28515625,0,0.00887535063113605
-2.7797197617474E-05,1.26802624436095E-05,2.28515625,0,0.00887535063113605
-2.14471074286848E-05,6.92676758262678E-06,2.28515625,0,0.00887535063113605
-2.59176958934404E-05,7.59736576583236E-06,2.28515625,0,0.00887535063113605
-2.19233443203848E-05,5.46058799955063E-06,2.28515625,0,0.00887535063113605
-2.40780445892597E-05,7.90266039984999E-06,2.28515625,0,0.00887535063113605
-2.12097747862572E-05,8.16205556475325E-06,2.28515625,0,0.00887535063113605
-2.14367719308939E-05,9.53934522840427E-06,2.28515625,0,0.00887535063113605
-1.99760725081433E-05,8.74397937877802E-06,2.28515625,0,0.00887535063113605
-1.96367964235833E-05,7.19688705430599E-06,2.28515625,0,0.00887535063113605
-2.00471822608961E-05,6.32032970315777E-06,2.28515625,0,0.00887535063113605
-2.05137694138102E-05,6.32733508609817E-06,2.28515625,0,0.00887535063113605
-2.28883855015738E-05,8.30136377771851E-06,2.28515625,0,0.00887535063113605
-2.22314229176845E-05,9.08273796085268E-06,2.28515625,0,0.00887535063113605
-2.20381443796214E-05,1.02609628811479E-05,2.28515625,0,0.00887535063113605
-1.99823170987656E-05,1.05563822216936E-05,2.28515625,0,0.00887535063113605
-2.11244168895064E-05,1.16314458864508E-05,2.28515625,0,0.00887535063113605
-2.06589083973086E-05,1.03939337350312E-05,2.28515625,0,0.00887535063113605
-2.18354380194796E-05,9.34763102122815E-06,2.28515625,0,0.00887535063113605
-2.07790926651796E-05,8.48863692226587E-06,2.28515625,0,0.00887535063113605
-2.06923541554715E-05,1.03006705103326E-05,2.28515625,0,0.00887535063113605
-1.98279831238324E-05,1.18025973279146E-05,2.28515625,0,0.00887535063113605
-2.15197396755684E-05,1.22253131848993E-05,2.28515625,0,0.00887535063113605
-2.32364036492072E-05,1.13474716272322E-05,2.28515625,0,0.00887535063113605
-2.37067561101867E-05,1.052476818586E-05,2.28515625,0,0.00887535063113605
-2.22751423279988E-05,9.29895213630516E-06,2.28515625,0,0.00887535063113605
-2.20182100747479E-05,7.81831204221817E-06,2.28515625,0,0.00887535063113605
-1.86628549272427E-05,4.90899947180878E-06,2.28515625,0,0.00887535063113605
-2.63686961261556E-05,5.24970710102934E-06,2.28515625,0,0.00887535063113605
-1.96472501556855E-05,2.07585731004656E-06,2.28515625,0,0.00887535063113605
-2.53953003266361E-05,3.28053329212707E-06,2.28515625,0,0.00887535063113605
-2.29530087381136E-05,2.68073608822306E-06,2.28515625,0,0.00887535063113605
-2.53144517046167E-05,4.89572630613111E-06,2.28515625,0,0.00887535063113605
-2.21759819396539E-05,3.48784487869125E-06,2.28515625,0,0.00887535063113605
-2.26337997446535E-05,2.68954090643092E-06,2.28515625,0,0.00887535063113605
-2.30234963964904E-05,3.71954070033098E-06,2.28515625,0,0.00887535063113605
-2.38867123698583E-05,4.90300089950324E-06,2.28515625,0,0.00887535063113605
-2.42307978624012E-05,5.45042530575302E-06,2.28515625,0,0.00887535063113605
-2.31557351071388E-05,5.92195192439249E-06,2.28515625,0,0.00887535063113605
-2.36616433539893E-05,7.21995411367971E-06,2.28515625,0,0.00887535063113605
-2.2860471290187E-05,7.63689149607671E-06,2.28515625,0,0.00887535063113605
-2.39551409322303E-05,8.24561539047863E-06,2.28515625,0,0.00887535063113605
-2.31659942073748E-05,8.70710755407345E-06,2.28515625,0,0.00887535063113605
-2.41482921410352E-05,1.07393479993334E-05,2.28515625,0,0.00887535063113605
-2.34208509937162E-05,1.22795809147647E-05,2.28515625,0,0.00887535063113605
-2.48833985097008E-05,1.22630754049169E-05,2.28515625,0,0.00887535063113605
-2.48019787250087E-05,1.01025771073182E-05,2.28515625,0,0.00887535063113605
-2.61110162682598E-05,9.96113521978259E-06,2.28515625,0,0.00887535063113605
-2.61420937022194E-05,1.10478777060052E-05,2.28515625,0,0.00887535063113605
-2.58883228525519E-05,1.13772257464007E-05,2.28515625,0,0.00887535063113605
-2.33000209846068E-05,1.11423860289506E-05,2.28515625,0,0.00887535063113605
-2.20362162508536E-05,1.24112093544682E-05,2.28515625,0,0.00887535063113605
-2.19620960706379E-05,1.36497228595545E-05,2.28515625,0,0.00887535063113605
-2.16743901546579E-05,1.53261735249544E-05,2.28515625,0,0.00887535063113605
-1.8666602045414E-05,1.31872511701658E-05,2.28515625,0,0.00887535063113605
-2.7547652280191E-05,1.62900887517026E-05,2.28515625,0,0.00887535063113605
-2.21295213123085E-05,8.76570720720338E-06,2.28515625,0,0.00887535063113605
-2.65333110291976E-05,1.16603177957586E-05,2.28515625,0,0.00887535063113605
-2.43828526436118E-05,1.08713384179282E-05,2.28515625,0,0.00887535063113605
-2.9379358238657E-05,1.65177061717259E-05,2.28515625,0,0.00887535063113605
-2.70074287982425E-05,1.47480577652459E-05,2.28515625,0,0.00887535063113605
-2.62730791291688E-05,1.28255251183873E-05,2.28515625,0,0.00887535063113605
-2.45186274696607E-05,9.51035781326937E-06,2.28515625,0,0.00887535063113605
-2.44361253862735E-05,8.23582286102464E-06,2.28515625,0,0.00887535063113605
-2.51034143730067E-05,1.03740421764087E-05,2.28515625,0,0.00887535063113605
-2.5131290385616E-05,1.30365506265662E-05,2.28515625,0,0.00887535063113605
-2.67772611550754E-05,1.59070204972522E-05,2.28515625,0,0.00887535063113605
-2.59742555499543E-05,1.5747273209854E-05,2.28515625,0,0.00887535063113605
-2.59868320426904E-05,1.57634367496939E-05,2.28515625,0,0.00887535063113605
-2.34974486374995E-05,1.42486933327746E-05,2.28515625,0,0.00887535063113605
-2.38851825997699E-05,1.56104269990465E-05,2.28515625,0,0.00887535063113605
-2.30789864872349E-05,1.57805188791826E-05,2.28515625,0,0.00887535063113605
-2.40786521317204E-05,1.66774661920499E-05,2.28515625,0,0.00887535063113605
-2.34297312999843E-05,1.48181761687738E-05,2.28515625,0,0.00887535063113605
-2.44980237766868E-05,1.25671676869388E-05,2.28515625,0,0.00887535063113605
-2.42370952037163E-05,1.04808659671107E-05,2.28515625,0,0.00887535063113605
-2.44351213041227E-05,1.18547250167467E-05,2.28515625,0,0.00887535063113605
-2.35924471780891E-05,1.37530851134215E-05,2.28515625,0,0.00887535063113605
-2.36410996876657E-05,1.63805634656455E-05,2.28515625,0,0.00887535063113605
-2.45466271735495E-05,1.71042865986237E-05,2.28515625,0,0.00887535063113605
-2.53314483416034E-05,1.62087271746714E-05,2.28515625,0,0.00887535063113605
-1.97451317944797E-05,1.32085560835549E-05,2.28515625,0,0.00887535063113605
-2.70044802164193E-05,1.85055832844228E-05,2.28515625,0,0.00887535063113605
-1.91023264051182E-05,1.44333553180331E-05,2.28515625,0,0.00887535063113605
-2.48947144427802E-05,1.91101589734899E-05,2.28515625,0,0.00887535063113605
-2.20227520912886E-05,1.72770360222785E-05,2.28515625,0,0.00887535063113605
-2.59267671935959E-05,1.85948974831263E-05,2.28515625,0,0.00887535063113605
-2.42708829318872E-05,1.49100933413138E-05,2.28515625,0,0.00887535063113605
-2.51064102485543E-05,1.47099344758317E-05,2.28515625,0,0.00887535063113605
-2.54072965617524E-05,1.64119537657825E-05,2.28515625,0,0.00887535063113605
-2.74677531706402E-05,1.821782461775E-05,2.28515625,0,0.00887535063113605
-2.80988424492534E-05,1.71771444001934E-05,2.28515625,0,0.00887535063113605
-2.63094389083562E-05,1.47187038237462E-05,2.28515625,0,0.00887535063113605
-2.67119085037848E-05,1.39224921440473E-05,2.28515625,0,0.00887535063113605
-2.59277676377678E-05,1.28463270812063E-05,2.28515625,0,0.00887535063113605
-2.63092460954795E-05,1.31333217723295E-05,2.28515625,0,0.00887535063113605
-2.41471243498381E-05,1.17757026600884E-05,2.28515625,0,0.00887535063113605
-2.51895980909467E-05,1.27256416817545E-05,2.28515625,0,0.00887535063113605
-2.55196555372095E-05,1.32552786453743E-05,2.28515625,0,0.00887535063113605
-2.8439568268368E-05,1.42962107929634E-05,2.28515625,0,0.00887535063113605
-2.87533257505856E-05,1.20046533993445E-05,2.28515625,0,0.00887535063113605
-2.91172345896484E-05,1.11041572381509E-05,2.28515625,0,0.00887535063113605
-2.7260992283118E-05,9.60644138103817E-06,2.28515625,0,0.00887535063113605
-2.63950023509096E-05,7.01240242051426E-06,2.28515625,0,0.00887535063113605
-2.56955172517337E-05,3.21247875945119E-06,2.28515625,0,0.00887535063113605
-2.71716089628171E-05,1.98227098735515E-06,2.28515625,0,0.00887535063113605
-2.94340843538521E-05,3.06978631670063E-06,2.28515625,0,0.00887535063113605
-3.00382707791869E-05,4.30288127972744E-06,2.28515625,0,0.00887535063113605
-2.10980888368795E-05,3.70488351109088E-06,2.28515625,0,0.00887535063113605
-2.77665367320878E-05,5.85377802053699E-06,2.28515625,0,0.00887535063113605
-1.84679047379177E-05,6.86254134052433E-06,2.28515625,0,0.00887535063113605
-2.22779963223729E-05,1.0330604709452E-05,2.28515625,0,0.00887535063113605
-1.62839678523596E-05,1.25496080727316E-05,2.28515625,0,0.00887535063113605
-2.04913958441466E-05,1.61053176270798E-05,2.28515625,0,0.00887535063113605
-1.86936285899719E-05,1.51652375279809E-05,2.28515625,0,0.00887535063113605
-2.0161663996987E-05,1.15553930299939E-05,2.28515625,0,0.00887535063113605
-1.98099951376207E-05,9.00573832041118E-06,2.28515625,0,0.00887535063113605
-2.07608791242819E-05,8.0999625424738E-06,2.28515625,0,0.00887535063113605
-2.09590743907029E-05,6.87130841470207E-06,2.28515625,0,0.00887535063113605
-2.03060571948299E-05,4.65944958705222E-06,2.28515625,0,0.00887535063113605
-2.18191980820848E-05,2.59051194007043E-06,2.28515625,0,0.00887535063113605
-2.09067475225311E-05,2.6988686840923E-06,2.28515625,0,0.00887535063113605
-2.19604607991641E-05,6.16942134001874E-06,2.28515625,0,0.00887535063113605
-2.07895373023348E-05,8.45642807689728E-06,2.28515625,0,0.00887535063113605
-2.18242112168809E-05,8.14971281215549E-06,2.28515625,0,0.00887535063113605
-1.92389379662927E-05,6.47269416731433E-06,2.28515625,0,0.00887535063113605
-1.91890376299853E-05,6.82478412272758E-06,2.28515625,0,0.00887535063113605
-1.9061266357312E-05,8.06579009804409E-06,2.28515625,0,0.00887535063113605
-2.2241738406592E-05,9.520581443212E-06,2.28515625,0,0.00887535063113605
-2.28513144975295E-05,1.08023668872193E-05,2.28515625,0,0.00887535063113605
-2.28105036512716E-05,1.2370359399938E-05,2.28515625,0,0.00887535063113605
-2.13438088394469E-05,1.18372217912111E-05,2.28515625,0,0.00887535063113605
-2.23639672185527E-05,9.8800874184235E-06,2.28515625,0,0.00887535063113605
-2.38416996580781E-05,9.79520427790703E-06,2.28515625,0,0.00887535063113605
-2.54206697718473E-05,1.22121682579746E-05,2.28515625,0,0.00887535063113605
-2.00189097085968E-05,1.04590380942682E-05,2.28515625,0,0.00887535063113605
-2.62065568676917E-05,1.26891809486551E-05,2.28515625,0,0.00887535063113605
-1.7807433323469E-05,6.94972368364688E-06,2.28515625,0,0.00887535063113605
-2.44651873799739E-05,9.91357592283748E-06,2.28515625,0,0.00887535063113605
-2.19958183151903E-05,8.01420901552774E-06,2.28515625,0,0.00887535063113605
-2.61964141827775E-05,1.00176084742998E-05,2.28515625,0,0.00887535063113605
-2.38118482229766E-05,8.49525258672656E-06,2.28515625,0,0.00887535063113605
-2.4356872017961E-05,9.7837501016329E-06,2.28515625,0,0.00887535063113605
-2.28016378969187E-05,1.1301068298053E-05,2.28515625,0,0.00887535063113605
-2.22136313823285E-05,1.29213367472403E-05,2.28515625,0,0.00887535063113605
-2.22338803723687E-05,1.27688626889721E-05,2.28515625,0,0.00887535063113605
-2.14350111491513E-05,1.07240039142198E-05,2.28515625,0,0.00887535063113605
-2.21411137317773E-05,9.00078248378122E-06,2.28515625,0,0.00887535063113605
-2.09576464840211E-05,6.4782434492372E-06,2.28515625,0,0.00887535063113605
-2.1906113033765E-05,6.04595379627426E-06,2.28515625,0,0.00887535063113605
-2.12093436857685E-05,6.15424323768821E-06,2.28515625,0,0.00887535063113605
-2.4020124328672E-05,8.08472032076679E-06,2.28515625,0,0.00887535063113605
-2.46052441070788E-05,7.43329883334809E-06,2.28515625,0,0.00887535063113605
-2.52101708611008E-05,7.69596772443037E-06,2.28515625,0,0.00887535063113605
-2.19292105612112E-05,7.11233860783977E-06,2.28515625,0,0.00887535063113605
-2.0850173314102E-05,7.82907773100305E-06,2.28515625,0,0.00887535063113605
-2.06859731406439E-05,8.68275310494937E-06,2.28515625,0,0.00887535063113605
-2.33820137509611E-05,1.17777371997363E-05,2.28515625,0,0.00887535063113605
-2.40627596213017E-05,1.34553338284604E-05,2.28515625,0,0.00887535063113605
-2.33468872465892E-05,1.25498218039866E-05,2.28515625,0,0.00887535063113605
-2.11468613997567E-05,1.07109344753553E-05,2.28515625,0,0.00887535063113605
-2.02048195205862E-05,9.55401719693327E-06,2.28515625,0,0.00887535063113605
-1.64933444466442E-05,7.22078266335302E-06,2.28515625,0,0.00887535063113605
-2.40541612583911E-05,1.05147237263736E-05,2.28515625,0,0.00887535063113605
-1.97039025806589E-05,8.96211713552475E-06,2.28515625,0,0.00887535063113605
-2.45095616264734E-05,1.22507035484887E-05,2.28515625,0,0.00887535063113605
-2.17128708754899E-05,1.1345870916557E-05,2.28515625,0,0.00887535063113605
-2.43970935116522E-05,1.16261708171805E-05,2.28515625,0,0.00887535063113605
-2.23092174564954E-05,9.73345322563546E-06,2.28515625,0,0.00887535063113605
-2.30898040172178E-05,9.45785268413601E-06,2.28515625,0,0.00887535063113605
-2.32931815844495E-05,9.01238763617584E-06,2.28515625,0,0.00887535063113605
-2.49239474214846E-05,8.10461096989457E-06,2.28515625,0,0.00887535063113605
-2.60687775153201E-05,6.4129130805668E-06,2.28515625,0,0.00887535063113605
-2.56208149949089E-05,5.35554818270612E-06,2.28515625,0,0.00887535063113605
-2.62375124293612E-05,7.28855957277119E-06,2.28515625,0,0.00887535063113605
-2.55544837273192E-05,9.6305157057941E-06,2.28515625,0,0.00887535063113605
-2.69017873506527E-05,1.17513163786498E-05,2.28515625,0,0.00887535063113605
-2.62011235463433E-05,1.09281800177996E-05,2.28515625,0,0.00887535063113605
-2.63804668065859E-05,1.00026782092755E-05,2.28515625,0,0.00887535063113605
-2.42823334701825E-05,8.72389318828937E-06,2.28515625,0,0.00887535063113605
-2.41118141275365E-05,9.44047042139573E-06,2.28515625,0,0.00887535063113605
-2.29269207920879E-05,1.08063486550236E-05,2.28515625,0,0.00887535063113605
-2.34392646234483E-05,1.1669569175865E-05,2.28515625,0,0.00887535063113605
-2.37205240409821E-05,1.11854387796484E-05,2.28515625,0,0.00887535063113605
-2.57975061686011E-05,1.13836886157515E-05,2.28515625,0,0.00887535063113605
-2.61962068179855E-05,1.09880693344167E-05,2.28515625,0,0.00887535063113605
-2.58374675468076E-05,1.13381256596767E-05,2.28515625,0,0.00887535063113605
-2.59775588347111E-05,1.30986600197502E-05,2.28515625,0,0.00887535063113605
-2.72030865744455E-05,1.41189902933547E-05,2.28515625,0,0.00887535063113605
-2.35513325606007E-05,1.12954676296795E-05,2.28515625,0,0.00887535063113605
-3.32152303599287E-05,1.52771626744652E-05,2.28515625,0,0.00887535063113605
-2.28577100642724E-05,1.05861781776184E-05,2.28515625,0,0.00887535063113605
-2.58755335380556E-05,1.17653589768452E-05,2.28515625,0,0.00887535063113605
-2.00947706616716E-05,7.29611929273233E-06,2.28515625,0,0.00887535063113605
-2.43092181335669E-05,8.8125043475884E-06,2.28515625,0,0.00887535063113605
-2.32554612011882E-05,7.56298004489508E-06,2.28515625,0,0.00887535063113605
-2.47246280196123E-05,7.62407898946549E-06,2.28515625,0,0.00887535063113605
-2.3012113160803E-05,6.23016467216075E-06,2.28515625,0,0.00887535063113605
-2.21775371755939E-05,6.6509960561234E-06,2.28515625,0,0.00887535063113605
-2.22759827011032E-05,8.86729594640201E-06,2.28515625,0,0.00887535063113605
-2.05794531211723E-05,1.14193280751351E-05,2.28515625,0,0.00887535063113605
-1.97299177671084E-05,1.40900046972092E-05,2.28515625,0,0.00887535063113605
-1.82054391189013E-05,1.41752643685322E-05,2.28515625,0,0.00887535063113605
-2.06017739401432E-05,1.46840484376298E-05,2.28515625,0,0.00887535063113605
-2.04731768462807E-05,1.28743076857063E-05,2.28515625,0,0.00887535063113605
-2.23535862460267E-05,1.21997345559066E-05,2.28515625,0,0.00887535063113605
-2.14178708120016E-05,1.12366642497364E-05,2.28515625,0,0.00887535063113605
-2.25508920266293E-05,1.16175342554925E-05,2.28515625,0,0.00887535063113605
-2.18922978092451E-05,9.89447471511085E-06,2.28515625,0,0.00887535063113605
-2.35293537116377E-05,8.47506271384191E-06,2.28515625,0,0.00887535063113605
-2.37333952100016E-05,6.16723855273449E-06,2.28515625,0,0.00887535063113605
-2.47276020672871E-05,4.75201659355662E-06,2.28515625,0,0.00887535063113605
-2.4373279302381E-05,2.46922581936815E-06,2.28515625,0,0.00887535063113605
-2.47385160037084E-05,1.57955912527541E-06,2.28515625,0,0.00887535063113605
-2.46956460614456E-05,4.57875876236358E-06,2.28515625,0,0.00887535063113605
-2.50541270361282E-05,9.39139681577217E-06,2.28515625,0,0.00887535063113605
-2.11199112527538E-05,8.59290321386652E-06,2.28515625,0,0.00887535063113605
-3.0108543796814E-05,1.2966503163625E-05,2.28515625,0,0.00887535063113605
-2.29431952902814E-05,1.14615959319053E-05,2.28515625,0,0.00887535063113605
-2.74267749773571E-05,1.38415252877166E-05,2.28515625,0,0.00887535063113605
-2.19375742744887E-05,1.09124539449112E-05,2.28515625,0,0.00887535063113605
-2.53063972195378E-05,1.12200514195138E-05,2.28515625,0,0.00887535063113605
-2.45586088567507E-05,1.09992206489551E-05,2.28515625,0,0.00887535063113605
-2.6043197067338E-05,1.26194499898702E-05,2.28515625,0,0.00887535063113605
-2.41642428591149E-05,1.163539764093E-05,2.28515625,0,0.00887535063113605
-2.30019941227511E-05,9.69326538324822E-06,2.28515625,0,0.00887535063113605
-2.27456075663213E-05,9.42690712690819E-06,2.28515625,0,0.00887535063113605
-2.15947311517084E-05,9.84415601124056E-06,2.28515625,0,0.00887535063113605
-2.19913981709396E-05,9.96640665107407E-06,2.28515625,0,0.00887535063113605
-2.1333433323889E-05,9.16491171665257E-06,2.28515625,0,0.00887535063113605
-2.32207112276228E-05,1.04409673440387E-05,2.28515625,0,0.00887535063113605
-2.19744615606032E-05,1.09873471956234E-05,2.28515625,0,0.00887535063113605
-2.31041667575482E-05,1.11014969661483E-05,2.28515625,0,0.00887535063113605
-2.2442187400884E-05,9.95378104562406E-06,2.28515625,0,0.00887535063113605
-2.34923700190848E-05,1.11117533379002E-05,2.28515625,0,0.00887535063113605
-2.27651362365577E-05,1.33251196530182E-05,2.28515625,0,0.00887535063113605
-2.4266888431157E-05,1.62388205353636E-05,2.28515625,0,0.00887535063113605
-2.40241370192962E-05,1.69063350767829E-05,2.28515625,0,0.00887535063113605
-2.35859315580456E-05,1.58480870595668E-05,2.28515625,0,0.00887535063113605
-2.19213961827336E-05,1.35080190375447E-05,2.28515625,0,0.00887535063113605
-2.30143959925044E-05,1.19715759865358E-05,2.28515625,0,0.00887535063113605
-2.49231361522106E-05,9.73495752987219E-06,2.28515625,0,0.00887535063113605
-2.56307957897661E-05,7.47732292438741E-06,2.28515625,0,0.00887535063113605
-2.02945866476512E-05,5.59179261472309E-06,2.28515625,0,0.00887535063113605
-2.81681295746239E-05,8.3193172031315E-06,2.28515625,0,0.00887535063113605
-2.0396293621161E-05,8.65314359543845E-06,2.28515625,0,0.00887535063113605
-2.51690235018032E-05,1.32940422190586E-05,2.28515625,0,0.00887535063113605
-2.06215827347478E-05,1.38554341901909E-05,2.28515625,0,0.00887535063113605
-2.40178269450553E-05,1.54045083036181E-05,2.28515625,0,0.00887535063113605
-2.29835004574852E-05,1.5525260096183E-05,2.28515625,0,0.00887535063113605
-2.43619688262697E-05,1.50676669363747E-05,2.28515625,0,0.00887535063113605
-2.34431518038036E-05,1.32474915517378E-05,2.28515625,0,0.00887535063113605
-2.40968074649572E-05,1.22892824947485E-05,2.28515625,0,0.00887535063113605
-2.53583730227547E-05,1.25548940559383E-05,2.28515625,0,0.00887535063113605
-2.51614583248738E-05,1.3928409316577E-05,2.28515625,0,0.00887535063113605
-2.48139003815595E-05,1.55903198901797E-05,2.28515625,0,0.00887535063113605
-2.29958059208002E-05,1.63250588229857E-05,2.28515625,0,0.00887535063113605
-2.55972809100058E-05,1.67046509886859E-05,2.28515625,0,0.00887535063113605
-2.58307591138873E-05,1.50277774082497E-05,2.28515625,0,0.00887535063113605
-2.59065163845662E-05,1.35308582684956E-05,2.28515625,0,0.00887535063113605
-2.31725116464077E-05,1.21901675811387E-05,2.28515625,0,0.00887535063113605
-2.37173826462822E-05,1.24550697364612E-05,2.28515625,0,0.00887535063113605
-2.33098216995131E-05,1.28973833852797E-05,2.28515625,0,0.00887535063113605
-2.49611348408507E-05,1.44057003126363E-05,2.28515625,0,0.00887535063113605
-2.52187874139054E-05,1.69317554536974E-05,2.28515625,0,0.00887535063113605
-2.65791859419551E-05,1.87432287930278E-05,2.28515625,0,0.00887535063113605
-2.6861725928029E-05,1.59551818796899E-05,2.28515625,0,0.00887535063113605
-2.72146662609885E-05,1.32690320242546E-05,2.28515625,0,0.00887535063113605
-2.78187362710014E-05,1.23461049952311E-05,2.28515625,0,0.00887535063113605
-2.7859063266078E-05,1.03827824204927E-05,2.28515625,0,0.00887535063113605
-2.02920837182319E-05,5.03360115544638E-06,2.28515625,0,0.00887535063113605
-2.67244122369448E-05,5.19330023962539E-06,2.28515625,0,0.00887535063113605
-1.81671875907341E-05,2.20711604015378E-06,2.28515625,0,0.00887535063113605
-2.38214634009637E-05,4.35241872764891E-06,2.28515625,0,0.00887535063113605
-2.03800427698297E-05,3.73020202459884E-06,2.28515625,0,0.00887535063113605
-2.52302943408722E-05,7.22949607734336E-06,2.28515625,0,0.00887535063113605
-2.42593268922064E-05,9.98639370664023E-06,2.28515625,0,0.00887535063113605
-2.53401813097298E-05,1.20702470667311E-05,2.28515625,0,0.00887535063113605
-2.31890553550329E-05,1.20102422442869E-05,2.28515625,0,0.00887535063113605
-2.26688152906718E-05,1.06968882391811E-05,2.28515625,0,0.00887535063113605
-2.30047098739306E-05,8.36355047795223E-06,2.28515625,0,0.00887535063113605
-2.26677220780402E-05,6.84060296407552E-06,2.28515625,0,0.00887535063113605
-2.38437987718498E-05,7.94300194684183E-06,2.28515625,0,0.00887535063113605
-2.26139691221761E-05,9.15624150366057E-06,2.28515625,0,0.00887535063113605
-2.36045034398558E-05,9.73558780970052E-06,2.28515625,0,0.00887535063113605
-2.28703738684999E-05,8.00980160420295E-06,2.28515625,0,0.00887535063113605
-2.53237903962145E-05,7.22722916179919E-06,2.28515625,0,0.00887535063113605
-2.49016247835243E-05,8.87421265360899E-06,2.28515625,0,0.00887535063113605
-2.50706943916157E-05,1.22963419926236E-05,2.28515625,0,0.00887535063113605
-2.26896863750881E-05,1.26243867271114E-05,2.28515625,0,0.00887535063113605
-2.29681354539935E-05,1.23396839626366E-05,2.28515625,0,0.00887535063113605
-2.21688005694887E-05,1.33164985527401E-05,2.28515625,0,0.00887535063113605
-2.22662820306141E-05,1.49231873365352E-05,2.28515625,0,0.00887535063113605
-2.12131872103782E-05,1.4608958736062E-05,2.28515625,0,0.00887535063113605
-2.10596172109945E-05,1.33183721118257E-05,2.28515625,0,0.00887535063113605
-2.11130864045117E-05,1.1882470062119E-05,2.28515625,0,0.00887535063113605
-2.11324168049032E-05,1.04410410131095E-05,2.28515625,0,0.00887535063113605
-1.63566510309465E-05,7.62723448133329E-06,2.28515625,0,0.00887535063113605
-2.20195506699383E-05,1.14917729661101E-05,2.28515625,0,0.00887535063113605
-1.67583202710375E-05,1.07344803836895E-05,2.28515625,0,0.00887535063113605
-2.36181385844247E-05,1.41414720928879E-05,2.28515625,0,0.00887535063113605
-2.2570246073883E-05,1.21957318697241E-05,2.28515625,0,0.00887535063113605
-2.66310962615535E-05,1.1405644727347E-05,2.28515625,0,0.00887535063113605
-2.42113819695078E-05,9.69567827269202E-06,2.28515625,0,0.00887535063113605
-2.36896903516026E-05,1.10399987534038E-05,2.28515625,0,0.00887535063113605
-2.25986495934194E-05,1.15751199700753E-05,2.28515625,0,0.00887535063113605
-2.2950860511628E-05,1.11873405330698E-05,2.28515625,0,0.00887535063113605
-2.41816869674949E-05,1.06030083770747E-05,2.28515625,0,0.00887535063113605
-2.50734246947104E-05,1.11235476651927E-05,2.28515625,0,0.00887535063113605
-2.64728114416357E-05,1.17804884212092E-05,2.28515625,0,0.00887535063113605
-2.43662980210502E-05,9.91556680673966E-06,2.28515625,0,0.00887535063113605
-2.36443738685921E-05,8.67425751494011E-06,2.28515625,0,0.00887535063113605
-2.23467559408164E-05,8.53221354191191E-06,2.28515625,0,0.00887535063113605
-2.41723573708441E-05,9.74516206042608E-06,2.28515625,0,0.00887535063113605
-2.34125691349618E-05,8.88094382389681E-06,2.28515625,0,0.00887535063113605
-2.35407296713674E-05,8.92670141183771E-06,2.28515625,0,0.00887535063113605
-2.26127540372545E-05,9.1379979494377E-06,2.28515625,0,0.00887535063113605
-2.38936172536341E-05,1.00524421213777E-05,2.28515625,0,0.00887535063113605
-2.37847889366094E-05,1.07700643638964E-05,2.28515625,0,0.00887535063113605
-2.39208548009628E-05,1.30512116811587E-05,2.28515625,0,0.00887535063113605
-2.42116821027594E-05,1.5079142031027E-05,2.28515625,0,0.00887535063113605
-2.49125096161151E-05,1.54706049215747E-05,2.28515625,0,0.00887535063113605
-2.49526456173044E-05,1.29352802105132E-05,2.28515625,0,0.00887535063113605
-2.47200678131776E-05,1.21433822641848E-05,2.28515625,0,0.00887535063113605
-1.94716903934022E-05,1.19758506116341E-05,2.28515625,0,0.00887535063113605
-2.68809217232047E-05,1.75586592376931E-05,2.28515625,0,0.00887535063113605
-1.91892286238726E-05,1.196919947688E-05,2.28515625,0,0.00887535063113605
-2.40975987253478E-05,1.31425213112379E-05,2.28515625,0,0.00887535063113605
-2.02570990950335E-05,1.04996197478613E-05,2.28515625,0,0.00887535063113605
-2.4418633984169E-05,1.11642757474328E-05,2.28515625,0,0.00887535063113605
-2.35255902225617E-05,7.33188608137425E-06,2.28515625,0,0.00887535063113605
-2.37814747379161E-05,4.23298615714884E-06,2.28515625,0,0.00887535063113605
-2.22553444473306E-05,1.97920348909975E-06,2.28515625,0,0.00887535063113605
-2.23557435674593E-05,2.42965165853093E-06,2.28515625,0,0.00887535063113605
-2.31787053053267E-05,5.65214804737479E-06,2.28515625,0,0.00887535063113605
-2.24711911869235E-05,8.75421847013058E-06,2.28515625,0,0.00887535063113605
-2.29365123232128E-05,1.07573587229126E-05,2.28515625,0,0.00887535063113605
-2.22052785829874E-05,9.63347247306956E-06,2.28515625,0,0.00887535063113605
-2.36454725381918E-05,9.92315108305775E-06,2.28515625,0,0.00887535063113605
-2.29841098189354E-05,9.98516770778224E-06,2.28515625,0,0.00887535063113605
-2.44936200033408E-05,9.80418008111883E-06,2.28515625,0,0.00887535063113605
-2.43072954617674E-05,6.8317485784064E-06,2.28515625,0,0.00887535063113605
-2.64223999693058E-05,5.66563403481268E-06,2.28515625,0,0.00887535063113605
-2.643891639309E-05,6.15221824773471E-06,2.28515625,0,0.00887535063113605
-2.76037571893539E-05,8.2239002949791E-06,2.28515625,0,0.00887535063113605
-2.76680966635467E-05,7.65415461501107E-06,2.28515625,0,0.00887535063113605
-2.84801844827598E-05,6.1165078477643E-06,2.28515625,0,0.00887535063113605
-2.79405576293357E-05,5.89391856919974E-06,2.28515625,0,0.00887535063113605
-2.79590512946015E-05,7.48477214074228E-06,2.28515625,0,0.00887535063113605
-2.83058907371014E-05,7.88976103649475E-06,2.28515625,0,0.00887535063113605
-2.86736903944984E-05,7.12099154043244E-06,2.28515625,0,0.00887535063113605
-2.32802794926101E-05,4.23296114604454E-06,2.28515625,0,0.00887535063113605
-3.2828491384862E-05,6.25222992312047E-06,2.28515625,0,0.00887535063113605
-2.43327813223004E-05,6.47967317490838E-06,2.28515625,0,0.00887535063113605
-3.04596196656348E-05,8.49196385388495E-06,2.28515625,0,0.00887535063113605
-2.5097722755163E-05,8.56332553667016E-06,2.28515625,0,0.00887535063113605
-2.70595446636435E-05,1.16459113996825E-05,2.28515625,0,0.00887535063113605
-2.49541426455835E-05,1.20728736874298E-05,2.28515625,0,0.00887535063113605
-2.72711531579262E-05,1.17292556751636E-05,2.28515625,0,0.00887535063113605
-2.56852035818156E-05,1.10482515083277E-05,2.28515625,0,0.00887535063113605
-2.38292468566215E-05,1.11184463094105E-05,2.28515625,0,0.00887535063113605
-2.30216573982034E-05,1.09941984192119E-05,2.28515625,0,0.00887535063113605
-2.15440086321905E-05,1.03828806459205E-05,2.28515625,0,0.00887535063113605
-2.23473780351924E-05,9.50337744143326E-06,2.28515625,0,0.00887535063113605
-2.181100899179E-05,9.45360898185754E-06,2.28515625,0,0.00887535063113605
-2.40726130869007E-05,1.12080842882278E-05,2.28515625,0,0.00887535063113605
-2.33420396398287E-05,1.24209618661553E-05,2.28515625,0,0.00887535063113605
-2.37481108342763E-05,1.23063309729332E-05,2.28515625,0,0.00887535063113605
-2.14804913412081E-05,9.62312424235279E-06,2.28515625,0,0.00887535063113605
-2.24510422413005E-05,7.79205583967268E-06,2.28515625,0,0.00887535063113605
-2.145938196918E-05,8.23460686660837E-06,2.28515625,0,0.00887535063113605
-2.19089051824994E-05,1.17780164146097E-05,2.28515625,0,0.00887535063113605
-2.13215971598402E-05,1.42592789416085E-05,2.28515625,0,0.00887535063113605
-2.22600629058434E-05,1.45003186844406E-05,2.28515625,0,0.00887535063113605
-2.36954147112556E-05,1.27095190691762E-05,2.28515625,0,0.00887535063113605
-2.54725146078272E-05,1.06266907096142E-05,2.28515625,0,0.00887535063113605
-2.49407130468171E-05,9.85276619758224E-06,2.28515625,0,0.00887535063113605
-2.44139118876774E-05,1.11227282104664E-05,2.28515625,0,0.00887535063113605
-1.97689878405072E-05,8.56799488246907E-06,2.28515625,0,0.00887535063113605
-2.76368555205408E-05,1.11491181087331E-05,2.28515625,0,0.00887535063113605
-2.04619882424595E-05,8.38781943457434E-06,2.28515625,0,0.00887535063113605
-2.53336438618135E-05,1.16841956696589E-05,2.28515625,0,0.00887535063113605
-2.08242254302604E-05,9.69175653153798E-06,2.28515625,0,0.00887535063113605
-2.39072669501184E-05,1.08700378405047E-05,2.28515625,0,0.00887535063113605
-2.25354888243601E-05,9.08031142898835E-06,2.28515625,0,0.00887535063113605
-2.34004564845236E-05,9.54169172473485E-06,2.28515625,0,0.00887535063113605
-2.35573443205794E-05,9.62967351370025E-06,2.28515625,0,0.00887535063113605
-2.46930794673972E-05,1.08796721178805E-05,2.28515625,0,0.00887535063113605
-2.4112172468449E-05,1.30518701553228E-05,2.28515625,0,0.00887535063113605
-2.10424477700144E-05,1.27801495182212E-05,2.28515625,0,0.00887535063113605
-2.01214697881369E-05,1.11314711830346E-05,2.28515625,0,0.00887535063113605
-1.97869267140049E-05,9.85125006991439E-06,2.28515625,0,0.00887535063113605
-2.3209948267322E-05,1.06227016658522E-05,2.28515625,0,0.00887535063113605
-2.37628046306781E-05,9.52840855461545E-06,2.28515625,0,0.00887535063113605
-2.49991353484802E-05,9.16474073164864E-06,2.28515625,0,0.00887535063113605
-2.40975023189094E-05,7.92307037045248E-06,2.28515625,0,0.00887535063113605
-2.49874719884247E-05,8.18710941530298E-06,2.4609375,0,0.00887535063113605
-2.43313988903537E-05,7.93480830907356E-06,2.4609375,0,0.00887535063113605
-2.56689090747386E-05,8.2018914326909E-06,2.4609375,0,0.00887535063113605
-2.4637582100695E-05,8.44742407934973E-06,2.4609375,0,0.00887535063113605
-2.41817378991982E-05,9.95622121990891E-06,2.4609375,0,0.00887535063113605
-2.44297098106472E-05,1.01661153166788E-05,2.4609375,0,0.00887535063113605
-2.61385466728825E-05,9.88429746939801E-06,2.4609375,0,0.00887535063113605
-2.74693593382835E-05,9.19066133064916E-06,2.4609375,0,0.00887535063113605
-2.72363886324456E-05,9.38869834499201E-06,2.4609375,0,0.00887535063113605
-2.02959490707144E-05,9.94972833723295E-06,2.4609375,0,0.00887535063113605
-2.90885473077651E-05,1.59550618263893E-05,2.4609375,0,0.00887535063113605
-2.26171669055475E-05,1.31994620460318E-05,2.4609375,0,0.00887535063113605
-2.74184458248783E-05,1.40141037263675E-05,2.4609375,0,0.00887535063113605
-2.12516588362632E-05,1.11553918031859E-05,2.4609375,0,0.00887535063113605
-2.1941934392089E-05,1.13566775326035E-05,2.4609375,0,0.00887535063113605
-1.92782117665047E-05,1.08471831481438E-05,2.4609375,0,0.00887535063113605
-2.07404846150894E-05,1.25735841720598E-05,2.4609375,0,0.00887535063113605
-2.00260728888679E-05,1.29793015730684E-05,2.4609375,0,0.00887535063113605
-2.0175488316454E-05,1.35243208205793E-05,2.4609375,0,0.00887535063113605
-2.0726856746478E-05,1.41323889693012E-05,2.4609375,0,0.00887535063113605
-2.0843015590799E-05,1.41928949233261E-05,2.4609375,0,0.00887535063113605
-2.28296376008075E-05,1.52425045598648E-05,2.4609375,0,0.00887535063113605
-2.30309178732568E-05,1.56222831719788E-05,2.4609375,0,0.00887535063113605
-2.54707283602329E-05,1.57900776684983E-05,2.4609375,0,0.00887535063113605
-2.49041622737423E-05,1.43565102916909E-05,2.4609375,0,0.00887535063113605
-2.49903732765233E-05,1.41842183438712E-05,2.4609375,0,0.00887535063113605
-2.25106123252772E-05,1.42015396704664E-05,2.4609375,0,0.00887535063113605
-2.23164697672473E-05,1.54466160893207E-05,2.4609375,0,0.00887535063113605
-2.13580096897203E-05,1.43721217682469E-05,2.4609375,0,0.00887535063113605
-2.28964563575573E-05,1.38673995024874E-05,2.4609375,0,0.00887535063113605
-2.31521389650879E-05,1.33420498968917E-05,2.4609375,0,0.00887535063113605
-2.37360036408063E-05,1.18380776257254E-05,2.4609375,0,0.00887535063113605
-2.21554037125316E-05,9.5214545581257E-06,2.4609375,0,0.00887535063113605
-2.1295556507539E-05,8.62463548401138E-06,2.4609375,0,0.00887535063113605
-2.10314992727945E-05,8.57299255585531E-06,2.4609375,0,0.00887535063113605
-2.06006952794269E-05,9.27823202800937E-06,2.4609375,0,0.00887535063113605
-1.54074623424094E-05,8.58325620356482E-06,2.4609375,0,0.00887535063113605
-2.10562429856509E-05,1.3105397556501E-05,2.4609375,0,0.00887535063113605
-1.64276043506106E-05,1.12675897980807E-05,2.4609375,0,0.00887535063113605
-2.27262353291735E-05,1.30643211377901E-05,2.4609375,0,0.00887535063113605
-2.1219942937023E-05,1.08928570625721E-05,2.4609375,0,0.00887535063113605
-2.38196316786343E-05,1.34505116875516E-05,2.4609375,0,0.00887535063113605
-2.14092433452606E-05,1.35270784085151E-05,2.4609375,0,0.00887535063113605
-2.257845881104E-05,1.19148908197531E-05,2.4609375,0,0.00887535063113605
-2.23176939471159E-05,1.03957991086645E-05,2.4609375,0,0.00887535063113605
-2.20354140765266E-05,1.22745404951274E-05,2.4609375,0,0.00887535063113605
-2.29030410991982E-05,1.52043903653976E-05,2.4609375,0,0.00887535063113605
-2.42532132688211E-05,1.57631020556437E-05,2.4609375,0,0.00887535063113605
-2.67801333393436E-05,1.37563574753585E-05,2.4609375,0,0.00887535063113605
-2.63032907241723E-05,1.09678785520373E-05,2.4609375,0,0.00887535063113605
-2.66820206888951E-05,1.07918649518979E-05,2.4609375,0,0.00887535063113605
-2.56892799370689E-05,9.86698705673916E-06,2.4609375,0,0.00887535063113605
-2.67701125267195E-05,9.49849527387414E-06,2.4609375,0,0.00887535063113605
-2.60645974776708E-05,9.39027358981548E-06,2.4609375,0,0.00887535063113605
-2.72912475338671E-05,1.05303179225302E-05,2.4609375,0,0.00887535063113605
-2.74124249699526E-05,9.46347518038237E-06,2.4609375,0,0.00887535063113605
-2.79512187262299E-05,8.55609596328577E-06,2.4609375,0,0.00887535063113605
-2.62990033661481E-05,8.2905889939866E-06,2.4609375,0,0.00887535063113605
-2.64086065726588E-05,9.45914598560194E-06,2.4609375,0,0.00887535063113605
-2.63712609012146E-05,9.78132720774738E-06,2.4609375,0,0.00887535063113605
-2.56336625170661E-05,9.22356957744341E-06,2.4609375,0,0.00887535063113605
-2.52487807301804E-05,7.93034905655077E-06,2.4609375,0,0.00887535063113605
-2.47935313382186E-05,6.64707295072731E-06,2.4609375,0,0.00887535063113605
-1.93333908100612E-05,3.95645611206419E-06,2.4609375,0,0.00887535063113605
-2.78737134067342E-05,5.86855276196729E-06,2.4609375,0,0.00887535063113605
-2.22748440137366E-05,7.19456284059561E-06,2.4609375,0,0.00887535063113605
-2.71646840701578E-05,9.6352396212751E-06,2.4609375,0,0.00887535063113605
-2.1944490072201E-05,7.25198378859204E-06,2.4609375,0,0.00887535063113605
-2.3813508960302E-05,6.89048965796246E-06,2.4609375,0,0.00887535063113605
-2.12785489566159E-05,5.50293407286517E-06,2.4609375,0,0.00887535063113605
-2.20351430471055E-05,6.77589605402318E-06,2.4609375,0,0.00887535063113605
-2.06279746635119E-05,8.03151942818658E-06,2.4609375,0,0.00887535063113605
-2.00424838112667E-05,8.42861572891707E-06,2.4609375,0,0.00887535063113605
-2.08867913897848E-05,8.14226223155856E-06,2.4609375,0,0.00887535063113605
-2.1899861167185E-05,6.43360317553743E-06,2.4609375,0,0.00887535063113605
-2.36610048887087E-05,4.07631114285323E-06,2.4609375,0,0.00887535063113605
-2.2502421415993E-05,9.51393758441554E-07,2.4609375,0,0.00887535063113605
-2.32008551392937E-05,7.8838115769031E-07,2.4609375,0,0.00887535063113605
-2.23455863306299E-05,3.27875500261143E-06,2.4609375,0,0.00887535063113605
-2.257208507217E-05,7.56636291043833E-06,2.4609375,0,0.00887535063113605
-2.05136457225308E-05,1.01080186141189E-05,2.4609375,0,0.00887535063113605
-2.15931868297048E-05,1.10603750727023E-05,2.4609375,0,0.00887535063113605
-2.13015737244859E-05,9.75331749941688E-06,2.4609375,0,0.00887535063113605
-2.24687937588897E-05,8.43418183649192E-06,2.4609375,0,0.00887535063113605
-2.24674695346039E-05,8.38916912471177E-06,2.4609375,0,0.00887535063113605
-2.3648655769648E-05,9.40890276979189E-06,2.4609375,0,0.00887535063113605
-2.33933296840405E-05,1.00628367363242E-05,2.4609375,0,0.00887535063113605
-2.4633092834847E-05,1.01526284197462E-05,2.4609375,0,0.00887535063113605
-2.57131014222978E-05,1.10052724267007E-05,2.4609375,0,0.00887535063113605
-2.62127359746955E-05,1.40979418574716E-05,2.4609375,0,0.00887535063113605
-2.3834423700464E-05,1.29222262330586E-05,2.4609375,0,0.00887535063113605
-3.49050424119923E-05,1.69482409546617E-05,2.4609375,0,0.00887535063113605
-2.68462845269823E-05,1.11428798845736E-05,2.4609375,0,0.00887535063113605
-3.18251913995482E-05,1.55197703861631E-05,2.4609375,0,0.00887535063113605
-2.72974866675213E-05,1.36872695293278E-05,2.4609375,0,0.00887535063113605
-3.14702083414886E-05,1.67394591699122E-05,2.4609375,0,0.00887535063113605
-2.97470396617427E-05,1.70167913893238E-05,2.4609375,0,0.00887535063113605
-3.10947943944484E-05,1.74491997313453E-05,2.4609375,0,0.00887535063113605
-3.05750436382368E-05,1.44042796819122E-05,2.4609375,0,0.00887535063113605
-3.14445569529198E-05,1.17566642074962E-05,2.4609375,0,0.00887535063113605
-3.26424778904766E-05,1.22764768093475E-05,2.4609375,0,0.00887535063113605
-3.13813288812526E-05,1.38815257741953E-05,2.4609375,0,0.00887535063113605
-3.06731126329396E-05,1.50701207530801E-05,2.4609375,0,0.00887535063113605
-2.77323124464601E-05,1.36393573484384E-05,2.4609375,0,0.00887535063113605
-2.7873338694917E-05,1.312943186349E-05,2.4609375,0,0.00887535063113605
-2.56597504630918E-05,1.16615492515848E-05,2.4609375,0,0.00887535063113605
-2.50835564656882E-05,1.21144948934671E-05,2.4609375,0,0.00887535063113605
-2.28249627980404E-05,1.12617990453145E-05,2.4609375,0,0.00887535063113605
-2.46935687755467E-05,1.01801970231463E-05,2.4609375,0,0.00887535063113605
-2.4512512027286E-05,5.99328086536843E-06,2.4609375,0,0.00887535063113605
-2.41921625274699E-05,2.13629209611099E-06,2.4609375,0,0.00887535063113605
-2.21123282244662E-05,1.31826050164818E-06,2.4609375,0,0.00887535063113605
-2.30781461141305E-05,6.46048874841654E-06,2.4609375,0,0.00887535063113605
-2.41063553403364E-05,1.10654309537495E-05,2.4609375,0,0.00887535063113605
-2.50103839789517E-05,1.36563012347324E-05,2.4609375,0,0.00887535063113605
-2.37346848734887E-05,1.38488912853063E-05,2.4609375,0,0.00887535063113605
-2.23670449486235E-05,1.33668399939779E-05,2.4609375,0,0.00887535063113605
-1.70419589267112E-05,9.00192117114784E-06,2.4609375,0,0.00887535063113605
-2.31146459555021E-05,1.22321107483003E-05,2.4609375,0,0.00887535063113605
-1.54121298692189E-05,9.61507339525269E-06,2.4609375,0,0.00887535063113605
-1.77654146682471E-05,1.29368836496724E-05,2.4609375,0,0.00887535063113605
-1.19015194286476E-05,1.13218238766422E-05,2.4609375,0,0.00887535063113605
-1.24437228805618E-05,1.40979145726305E-05,2.4609375,0,0.00887535063113605
-9.96260223473655E-06,1.4275397916208E-05,2.4609375,0,0.00887535063113605
-1.10709770524409E-05,1.48293211168493E-05,2.4609375,0,0.00887535063113605
-1.03202701211558E-05,1.34018318931339E-05,2.4609375,0,0.00887535063113605
-9.87654220807599E-06,1.22543688121368E-05,2.4609375,0,0.00887535063113605
-1.07262321762391E-05,1.28749597934075E-05,2.4609375,0,0.00887535063113605
-1.19267606351059E-05,1.32882996695116E-05,2.4609375,0,0.00887535063113605
-1.38905243147747E-05,1.3799151929561E-05,2.4609375,0,0.00887535063113605
-1.30304633785272E-05,1.22673573059728E-05,2.4609375,0,0.00887535063113605
-1.42964354381547E-05,1.17593726827181E-05,2.4609375,0,0.00887535063113605
-1.5627030734322E-05,1.01651585282525E-05,2.4609375,0,0.00887535063113605
-1.93409996427363E-05,9.02796364243841E-06,2.4609375,0,0.00887535063113605
-2.0405619579833E-05,7.58229725761339E-06,2.4609375,0,0.00887535063113605
-2.27298241952667E-05,8.59229385241633E-06,2.4609375,0,0.00887535063113605
-2.3103219064069E-05,9.61971090873703E-06,2.4609375,0,0.00887535063113605
-2.47750667767832E-05,9.9207672974444E-06,2.4609375,0,0.00887535063113605
-2.53647558565717E-05,8.63383957039332E-06,2.4609375,0,0.00887535063113605
-2.64450791291893E-05,7.95215964899398E-06,2.4609375,0,0.00887535063113605
-2.67491213890025E-05,6.94138225298957E-06,2.4609375,0,0.00887535063113605
-2.65739945461974E-05,5.36250763616408E-06,2.4609375,0,0.00887535063113605
-2.62374342128169E-05,3.857763203996E-06,2.4609375,0,0.00887535063113605
-2.68518615484936E-05,3.83472161047393E-06,2.4609375,0,0.00887535063113605
-2.01458096853457E-05,5.88970578974113E-06,2.4609375,0,0.00887535063113605
-2.68044313997962E-05,1.03875781860552E-05,2.4609375,0,0.00887535063113605
-1.95297252503224E-05,9.68770109466277E-06,2.4609375,0,0.00887535063113605
-2.58883064816473E-05,8.6858963186387E-06,2.4609375,0,0.00887535063113605
-2.1267749616527E-05,3.24897996506479E-06,2.4609375,0,0.00887535063113605
-2.55344093602616E-05,1.76064631318695E-07,2.4609375,0,0.00887535063113605
-2.47563002631068E-05,3.79702612463007E-07,2.4609375,0,0.00887535063113605
-2.6725134375738E-05,3.28782334690914E-06,2.4609375,0,0.00887535063113605
-2.6760766559164E-05,4.84040538140107E-06,2.4609375,0,0.00887535063113605
-2.82411820080597E-05,4.86430872115307E-06,2.4609375,0,0.00887535063113605
-2.97628030239139E-05,5.13517625222448E-06,2.4609375,0,0.00887535063113605
-2.92244785669027E-05,6.39680320091429E-06,2.4609375,0,0.00887535063113605
-2.91921987809474E-05,9.17347097129095E-06,2.4609375,0,0.00887535063113605
-2.70152522716671E-05,1.13306832645321E-05,2.4609375,0,0.00887535063113605
-2.79234300251119E-05,1.30912276290474E-05,2.4609375,0,0.00887535063113605
-2.69791908067418E-05,1.17793715617154E-05,2.4609375,0,0.00887535063113605
-2.78295392490691E-05,9.33560568228131E-06,2.4609375,0,0.00887535063113605
-2.54728602158139E-05,8.00306770543102E-06,2.4609375,0,0.00887535063113605
-2.55275390372844E-05,8.9560380729381E-06,2.4609375,0,0.00887535063113605
-2.45976480073296E-05,1.02658386822441E-05,2.4609375,0,0.00887535063113605
-2.56151597568532E-05,1.22635601655929E-05,3.1640625,0,0.00887535063113605
-2.53656289714854E-05,1.35596210384392E-05,3.1640625,0,0.00887535063113605
-2.67363247985486E-05,1.25313417811412E-05,3.1640625,0,0.00887535063113605
-2.68331277766265E-05,1.06358538687346E-05,3.1640625,0,0.00887535063113605
-2.69726660917513E-05,1.06326178865856E-05,3.1640625,0,0.00887535063113605
-2.81832944892813E-05,1.18026127893245E-05,3.1640625,0,0.00887535063113605
-3.04018449241994E-05,1.22936553452746E-05,3.1640625,0,0.00887535063113605
-2.38261327467626E-05,8.97676909517031E-06,3.1640625,0,0.00887535063113605
-3.16298246616498E-05,1.2651353245019E-05,3.1640625,0,0.00887535063113605
-2.11731348827016E-05,1.15558932520798E-05,3.1640625,0,0.00887535063113605
-2.78710231214063E-05,1.51188469317276E-05,3.1640625,0,0.00887535063113605
-2.31226586038247E-05,1.1674610504997E-05,3.1640625,0,0.00887535063113605
-2.67391678789863E-05,1.24103489724803E-05,3.1640625,0,0.00887535063113605
-2.46314120886382E-05,1.12383495434187E-05,3.1640625,0,0.00887535063113605
-2.6415071260999E-05,1.20225768114324E-05,3.1640625,0,0.00887535063113605
-2.5756906325114E-05,1.0383540939074E-05,3.1640625,0,0.00887535063113605
-2.60969754890539E-05,9.63133243203629E-06,3.1640625,0,0.00887535063113605
-2.77286526397802E-05,1.14827935249195E-05,3.1640625,0,0.00887535063113605
-2.84754205495119E-05,1.3375943126448E-05,3.1640625,0,0.00887535063113605
-3.03655833704397E-05,1.47084037962486E-05,3.1640625,0,0.00887535063113605
-2.89522140519693E-05,1.41299096867442E-05,3.1640625,0,0.00887535063113605
-2.942152605101E-05,1.50822743307799E-05,3.1640625,0,0.00887535063113605
-2.69009760813788E-05,1.45121466630371E-05,3.1640625,0,0.00887535063113605
-2.71367007371737E-05,1.40729071063106E-05,3.1640625,0,0.00887535063113605
-2.53271246037912E-05,1.25519345601788E-05,3.1640625,0,0.00887535063113605
-2.61416407738579E-05,1.32614959511557E-05,3.1640625,0,0.00887535063113605
-2.46869403781602E-05,1.35190812216024E-05,3.1640625,0,0.00887535063113605
-2.47144689637935E-05,1.34908732434269E-05,3.1640625,0,0.00887535063113605
-2.28372518904507E-05,1.29870759337791E-05,3.1640625,0,0.00887535063113605
-2.22222424781648E-05,1.35366763061029E-05,3.1640625,0,0.00887535063113605
-2.11788501474075E-05,1.25932929222472E-05,3.1640625,0,0.00887535063113605
-2.16401531361043E-05,1.21275988931302E-05,3.1640625,0,0.00887535063113605
-2.24094328586943E-05,1.24661673908122E-05,3.1640625,0,0.00887535063113605
-2.35464649449568E-05,1.16217288450571E-05,3.1640625,0,0.00887535063113605
-1.88110752787907E-05,8.86363977770088E-06,3.1640625,0,0.00887535063113605
-2.57625870290212E-05,1.32220457089716E-05,3.1640625,0,0.00887535063113605
-1.89117126865312E-05,1.10608480099472E-05,3.1640625,0,0.00887535063113605
-2.43206832237775E-05,1.35450027300976E-05,3.1640625,0,0.00887535063113605
-2.02788814931409E-05,1.16275887194206E-05,3.1640625,0,0.00887535063113605
-2.21688133024145E-05,1.16202418212197E-05,3.1640625,0,0.00887535063113605
-1.99220030481229E-05,9.05849356058752E-06,3.1640625,0,0.00887535063113605
-2.20094370888546E-05,9.25070435187081E-06,3.1640625,0,0.00887535063113605
-2.25391286221566E-05,9.69726625044132E-06,3.1640625,0,0.00887535063113605
-2.30358873523073E-05,9.58526743488619E-06,3.1640625,0,0.00887535063113605
-2.28614317165921E-05,8.27398889668984E-06,3.1640625,0,0.00887535063113605
-2.1151712644496E-05,7.59626664148527E-06,3.1640625,0,0.00887535063113605
-2.06218846869888E-05,9.76546289166436E-06,3.1640625,0,0.00887535063113605
-1.91438721230952E-05,1.15135544547229E-05,3.1640625,0,0.00887535063113605
-2.10846756090177E-05,1.32833683892386E-05,3.1640625,0,0.00887535063113605
-2.18852474063169E-05,1.25407113955589E-05,3.1640625,0,0.00887535063113605
-2.39576274907449E-05,1.13541200335021E-05,3.1640625,0,0.00887535063113605
-2.3115118892747E-05,9.02528245205758E-06,3.1640625,0,0.00887535063113605
-2.39183264056919E-05,9.45518695516512E-06,3.1640625,0,0.00887535063113605
-2.26926331379218E-05,1.138765765063E-05,3.1640625,0,0.00887535063113605
-2.25340681936359E-05,1.32263248815434E-05,3.1640625,0,0.00887535063113605
-2.11648693948518E-05,1.22986093629152E-05,3.1640625,0,0.00887535063113605
-2.22014459723141E-05,1.13527321445872E-05,3.1640625,0,0.00887535063113605
-2.31695648835739E-05,1.17610215966124E-05,3.1640625,0,0.00887535063113605
-2.32591592066456E-05,1.33911744342186E-05,3.1640625,0,0.00887535063113605
-2.16250864468748E-05,1.24929820231046E-05,3.1640625,0,0.00887535063113605
-2.20702713704668E-05,9.3631497293245E-06,3.1640625,0,0.00887535063113605
-1.89365309779532E-05,5.86527767154621E-06,3.1640625,0,0.00887535063113605
-2.63599813479232E-05,8.57443319546292E-06,3.1640625,0,0.00887535063113605
-2.01300008484395E-05,9.01006114872871E-06,3.1640625,0,0.00887535063113605
-2.60791530308779E-05,1.1095288755314E-05,3.1640625,0,0.00887535063113605
-2.26065894821659E-05,7.08774359736708E-06,3.1640625,0,0.00887535063113605
-2.55197228398174E-05,7.15387977834325E-06,3.1640625,0,0.00887535063113605
-2.30373716476606E-05,6.80596576785319E-06,3.1640625,0,0.00887535063113605
-2.28511817113031E-05,7.2676357376622E-06,3.1640625,0,0.00887535063113605
-2.16167591133853E-05,7.27644419384887E-06,3.1640625,0,0.00887535063113605
-2.27923083002679E-05,8.01350051915506E-06,3.1640625,0,0.00887535063113605
-2.45492410613224E-05,7.54146367398789E-06,3.1640625,0,0.00887535063113605
-2.43916965700919E-05,5.87512477068231E-06,3.1640625,0,0.00887535063113605
-2.47486987063894E-05,5.57738940187846E-06,3.1640625,0,0.00887535063113605
-2.31133872148348E-05,5.56865052203648E-06,3.1640625,0,0.00887535063113605
-2.3869848519098E-05,7.52225287214969E-06,3.1640625,0,0.00887535063113605
-2.27927430387354E-05,8.02437807578826E-06,3.1640625,0,0.00887535063113605
-2.40164663409814E-05,8.24534436105751E-06,3.1640625,0,0.00887535063113605
-2.36301457334775E-05,8.90695901034633E-06,3.1640625,0,0.00887535063113605
-2.51906421908643E-05,1.05829531094059E-05,3.1640625,0,0.00887535063113605
-2.41771613218589E-05,1.01372670542332E-05,3.1640625,0,0.00887535063113605
-2.43089925788809E-05,1.0348289833928E-05,3.1640625,0,0.00887535063113605
-2.35749375860905E-05,1.08984340840834E-05,3.1640625,0,0.00887535063113605
-2.40318750002189E-05,1.08404665297712E-05,3.1640625,0,0.00887535063113605
-2.36575815506512E-05,9.59693352342583E-06,3.1640625,0,0.00887535063113605
