biceps_emg, triceps_emg, subject_position, position_estimate, brace_position
-2.50765442615375E-05,1.46669735840987E-05,1.23046875,0,0
-2.53545185842086E-05,1.30030439322582E-05,1.23046875,0,0
-2.50179527938599E-05,1.10344453787548E-05,1.23046875,0,0
-2.52941499638837E-05,1.31762371893274E-05,1.23046875,0,0
-2.52577628998552E-05,1.07124269561609E-05,1.23046875,0,0
-2.70755535893841E-05,8.50895503390348E-06,1.23046875,0,0
-2.58925756497774E-05,1.13564383354969E-05,1.23046875,0,0
-2.51010169449728E-05,1.36755443236325E-05,1.23046875,0,0
-2.15870368265314E-05,1.32601962832268E-05,1.23046875,0,0
-2.14952451642603E-05,1.32687873701798E-05,1.23046875,0,0
-1.95263510249788E-05,1.26378799905069E-05,1.23046875,0,0
-1.95101038116263E-05,1.13438218249939E-05,1.23046875,0,0
-1.86990055226488E-05,1.17780873551965E-05,1.23046875,0,0
-2.03752042580163E-05,1.45194389915559E-05,1.23046875,0,0
-2.07594857783988E-05,1.5652782167308E-05,1.23046875,0,0
-2.20133260881994E-05,1.46841448440682E-05,1.23046875,0,0
-2.17121560126543E-05,1.25799297165941E-05,1.23046875,0,0
-2.21393129322678E-05,9.78988373390166E-06,1.23046875,0,0
-2.29547440540046E-05,8.80960305948975E-06,1.23046875,0,0
-2.26869142352371E-05,7.62765739636961E-06,1.23046875,0,0
-1.71792235050816E-05,4.08257938033785E-06,1.23046875,0,0
-2.3964235879248E-05,5.93928234593477E-06,1.23046875,0,0
-1.89200454769889E-05,1.57567910719081E-06,1.23046875,0,0
-2.43447630055016E-05,3.07789650833001E-06,1.23046875,0,0
-2.03016934392508E-05,6.5327267293469E-06,1.23046875,0,0
-2.29102843150031E-05,2.25908547690779E-06,1.23046875,0,0
-2.20951515075285E-05,-7.05018237567856E-07,1.23046875,0,0
-2.35884344874648E-05,2.34917501984455E-06,1.23046875,0,0
-2.32893835345749E-05,1.06857089576806E-06,1.23046875,0,0
-2.40088265854865E-05,2.1065554847155E-06,1.23046875,0,0
-2.48975211434299E-05,4.18283434555633E-06,1.23046875,0,0
-2.56640214502113E-05,2.04923367164156E-06,1.23046875,0,0
-2.79838604910765E-05,3.85296016247594E-06,1.23046875,0,0
-2.81491720670601E-05,1.09515203803312E-05,1.23046875,0,0
-3.01501149806427E-05,1.23680010801763E-05,1.23046875,0,0
-2.98671966447728E-05,8.71254633239005E-06,1.23046875,0,0
-3.00930460070958E-05,8.95047560334206E-06,1.23046875,0,0
-2.72354463959346E-05,1.17071813292569E-05,1.23046875,0,0
-2.68831427092664E-05,1.38994082590216E-05,1.23046875,0,0
-2.59270236711018E-05,1.30830012494698E-05,1.23046875,0,0
-2.58754680544371E-05,9.17710258363513E-06,1.23046875,0,0
-2.31556441576686E-05,5.37523237653659E-06,1.23046875,0,0
-2.04711213882547E-05,4.98530562254018E-06,1.23046875,0,0
-1.89901020348771E-05,6.59184161122539E-06,1.23046875,0,0
-2.23105616896646E-05,7.34692912374157E-06,1.23046875,0,0
-2.56190887739649E-05,3.42925886798184E-06,1.23046875,0,0
-2.56979055848205E-05,1.04333332728856E-06,1.23046875,0,0
-1.98731340788072E-05,4.64552385892603E-06,1.23046875,0,0
-2.87851653411053E-05,9.32057810132392E-06,1.23046875,0,0
-2.31755584536586E-05,3.98442989535397E-06,1.23046875,0,0
-2.87305356323486E-05,2.54776591646078E-06,1.23046875,0,0
-2.31751564570004E-05,6.05932200414827E-06,1.23046875,0,0
-2.51846959145041E-05,1.60852414410328E-06,1.23046875,0,0
-2.38229404203594E-05,8.83382540450839E-07,1.23046875,0,0
-2.53886028076522E-05,3.98900510845124E-06,1.23046875,0,0
-2.38932807405945E-05,-2.17715108163929E-08,1.23046875,0,0
-2.26345655391924E-05,-7.41773533263768E-07,1.23046875,0,0
-2.24152754526585E-05,4.9856221266964E-06,1.23046875,0,0
-2.2488975446322E-05,6.0509228205774E-06,1.23046875,0,0
-2.49331824306864E-05,4.34363528256654E-06,1.23046875,0,0
-2.44349066633731E-05,6.09313201493933E-06,1.23046875,0,0
-2.44349848799175E-05,8.17869113234337E-06,1.23046875,0,0
-2.16808930417756E-05,8.02175691205775E-06,1.23046875,0,0
-2.23425704461988E-05,6.98677467880771E-06,1.23046875,0,0
-2.28257940761978E-05,6.06799039815087E-06,1.23046875,0,0
-2.50534558290383E-05,7.02453326084651E-06,1.23046875,0,0
-2.44238472077996E-05,1.01255818663049E-05,1.23046875,0,0
-2.54348888120148E-05,1.29977925098501E-05,1.23046875,0,0
-2.53554098890163E-05,1.42881908686832E-05,1.23046875,0,0
-2.47141360887326E-05,1.12135039671557E-05,1.23046875,0,0
-2.24938321480295E-05,7.26739745005034E-06,1.23046875,0,0
-2.1530204321607E-05,1.1299531252007E-05,1.23046875,0,0
-2.1875033780816E-05,2.149192187062E-05,1.23046875,0,0
-2.30775021918816E-05,2.98380291496869E-05,1.23046875,0,0
-1.92107909242623E-05,2.53921552939573E-05,1.23046875,0,0
-2.72715587925632E-05,3.44138679793105E-05,1.23046875,0,0
-2.06832264666446E-05,2.02864193852292E-05,1.23046875,0,0
-2.5318857296952E-05,2.6599978809827E-05,1.23046875,0,0
-2.10802700166823E-05,2.71157987299375E-05,1.23046875,0,0
-2.4042121367529E-05,3.00644769595237E-05,1.23046875,0,0
-2.18447457882576E-05,2.56904422712978E-05,1.23046875,0,0
-2.2163523681229E-05,2.79734704236034E-05,1.23046875,0,0
-2.15363761526532E-05,1.99355654331157E-05,1.23046875,0,0
-2.28556291403947E-05,1.56260430230759E-05,1.23046875,0,0
-2.38789052673383E-05,1.73909993463894E-05,1.23046875,0,0
-2.19376561290119E-05,1.32435334307957E-05,1.23046875,0,0
-2.11735023185611E-05,1.11273920992971E-05,1.23046875,0,0
-1.96067157958169E-05,1.28610199681134E-05,1.23046875,0,0
-2.1620386178256E-05,1.3773623322777E-05,1.23046875,0,0
-2.21835070988163E-05,6.95504650138901E-06,1.23046875,0,0
-2.39902910834644E-05,7.07447088643676E-06,1.23046875,0,0
-2.24869836529251E-05,8.19766592030646E-06,1.23046875,0,0
-2.1902105800109E-05,9.20132151804864E-06,1.23046875,0,0
-2.05964570341166E-05,5.93081495026127E-06,1.23046875,0,0
-2.24653158511501E-05,5.67758434044663E-06,1.23046875,0,0
-2.3137277821661E-05,2.77762660516601E-06,1.23046875,0,0
-2.38672291743569E-05,3.17564399665571E-07,1.23046875,0,0
-2.2772854208597E-05,-1.78559184860205E-06,1.23046875,0,0
-2.13837192859501E-05,9.55517634793068E-07,1.23046875,0,0
-2.13750299735693E-05,6.80023686072673E-06,1.23046875,0,0
-2.45035607804311E-05,9.44872408581432E-06,1.23046875,0,0
-2.21929913095664E-05,4.27158511229209E-06,1.23046875,0,0
-3.11469048028812E-05,5.16218779011979E-06,1.23046875,0,0
-2.15719519474078E-05,5.2424761634029E-06,1.23046875,0,0
-2.6400237402413E-05,1.24954030980007E-05,1.23046875,0,0
-2.3536107619293E-05,1.60713188961381E-05,1.23046875,0,0
-2.78186289506266E-05,1.08978374555591E-05,1.23046875,0,0
-2.45484679908259E-05,6.952196599741E-06,1.23046875,0,0
-2.49070926656714E-05,9.67883534030989E-06,1.23046875,0,0
-2.5879335225909E-05,6.85899613017682E-06,1.23046875,0,0
-2.77265553449979E-05,9.7716410891735E-06,1.23046875,0,0
-2.83815606962889E-05,1.57380854943767E-05,1.23046875,0,0
-2.6794901714311E-05,1.44075120260823E-05,1.23046875,0,0
-2.69368938461412E-05,1.45455851452425E-05,1.23046875,0,0
-2.59428270510398E-05,1.86722427315544E-05,1.23046875,0,0
-2.71962817350868E-05,1.5748102669022E-05,1.23046875,0,0
-2.54022961598821E-05,5.3574149205815E-06,1.23046875,0,0
-2.53950420301408E-05,1.69398913385521E-06,1.23046875,0,0
-2.42136429733364E-05,6.49719595458009E-06,1.23046875,0,0
-2.60303040704457E-05,1.37861652547144E-05,1.23046875,0,0
-2.50943157880101E-05,1.66450136021012E-05,1.23046875,0,0
-2.57781812251778E-05,1.7076295989682E-05,1.23046875,0,0
-2.57953852269566E-05,1.37183806145913E-05,1.23046875,0,0
-2.46773415710777E-05,5.59317822990124E-06,1.23046875,0,0
-2.13868115679361E-05,-2.13794214687368E-06,1.23046875,0,0
-2.18045697693015E-05,-3.5404268601269E-06,1.23046875,0,0
-2.4299730284838E-05,-7.49416471990116E-07,1.23046875,0,0
-2.59670578088844E-05,3.40137466992019E-06,1.23046875,0,0
-1.92021907423623E-05,5.60275202587945E-06,1.23046875,0,0
-2.57044812315144E-05,9.48967590375105E-06,1.23046875,0,0
-1.74942342709983E-05,4.18488025388797E-06,1.23046875,0,0
-2.16074367926922E-05,6.72199803375406E-06,1.23046875,0,0
-1.71251267602202E-05,1.24506104839384E-05,1.23046875,0,0
-2.02821847778978E-05,7.24279016139917E-06,1.23046875,0,0
-1.80967927008169E-05,5.19887589689461E-06,1.23046875,0,0
-1.92641200555954E-05,1.02055719253258E-05,1.23046875,0,0
-1.95679422176909E-05,8.2480610217317E-06,1.23046875,0,0
-2.22643557208357E-05,6.41893939246074E-06,1.23046875,0,0
-2.34060771617806E-05,6.72143914925982E-06,1.23046875,0,0
-2.1855750674149E-05,5.12932820129208E-06,1.23046875,0,0
-2.22092367039295E-05,9.97942879621405E-06,1.23046875,0,0
-2.21304399019573E-05,1.90766058949521E-05,1.23046875,0,0
-2.45759456447558E-05,2.08149594982388E-05,1.23046875,0,0
-2.29871184274089E-05,1.62160285981372E-05,1.23046875,0,0
-2.22795551962918E-05,1.52141647049575E-05,1.23046875,0,0
-2.0751589545398E-05,1.69773193192668E-05,1.23046875,0,0
-2.33998835028615E-05,1.71479932760121E-05,1.23046875,0,0
-2.3800477720215E-05,1.74430133483838E-05,1.23046875,0,0
-2.43883878283668E-05,1.99179794435622E-05,1.23046875,0,0
-2.26141000894131E-05,2.11559854506049E-05,1.23046875,0,0
-2.1953712348477E-05,2.03020645130891E-05,1.23046875,0,0
-2.19471021409845E-05,1.97693607333349E-05,1.23046875,0,0
-2.34429808187997E-05,2.07404773391318E-05,1.23046875,0,0
-2.34904819080839E-05,2.29625275096623E-05,1.23046875,0,0
-2.21237678488251E-05,2.22845574171515E-05,1.23046875,0,0
-1.79912440216867E-05,1.27579569380032E-05,1.23046875,0,0
-2.69703250523889E-05,1.67884936672635E-05,1.23046875,0,0
-2.20944075408624E-05,1.09574320958927E-05,1.23046875,0,0
-2.66157439909875E-05,1.74422038980993E-05,1.23046875,0,0
-2.35787592828274E-05,1.52625689224806E-05,1.23046875,0,0
-2.6580790290609E-05,8.20237528387224E-06,1.23046875,0,0
-2.47055522777373E-05,3.05209755424585E-06,1.23046875,0,0
-2.53984126175055E-05,7.77224795456277E-06,1.23046875,0,0
-2.49098920903634E-05,4.29189412898268E-06,1.23046875,0,0
-2.38289230765076E-05,2.75433558272198E-06,1.23046875,0,0
-2.15164272958646E-05,6.96514644005219E-06,1.23046875,0,0
-1.92049992620014E-05,7.42893007554812E-06,1.23046875,0,0
-2.01761740754591E-05,8.83390839589993E-06,1.23046875,0,0
-2.04187927010935E-05,1.30866619656445E-05,1.23046875,0,0
-2.23741353693185E-05,1.41605587486993E-05,1.23046875,0,0
-2.20935216930229E-05,9.57604515861021E-06,1.23046875,0,0
-2.3423153834301E-05,8.98537655302789E-06,1.23046875,0,0
-2.25966159632662E-05,9.38650282478193E-06,1.23046875,0,0
-2.3355085431831E-05,1.17263143692981E-05,1.23046875,0,0
-2.29650486289756E-05,1.30016132970923E-05,1.23046875,0,0
-2.4544335246901E-05,1.42408525789506E-05,1.23046875,0,0
-2.49187087320024E-05,1.2564358257805E-05,1.23046875,0,0
-2.48726755671669E-05,1.07627602119464E-05,1.23046875,0,0
-2.26588617806556E-05,9.46419004321797E-06,1.23046875,0,0
-2.05934011319187E-05,9.89771979220677E-06,1.23046875,0,0
-2.11096830753377E-05,9.17577563086525E-06,1.23046875,0,0
-2.44213479163591E-05,7.31596310288296E-06,1.23046875,0,0
-2.06861695914995E-05,4.51882397101144E-06,1.23046875,0,0
-2.75814127235208E-05,8.33392459753668E-06,1.23046875,0,0
-1.80932147486601E-05,7.87957378634019E-06,1.23046875,0,0
-2.43346821662271E-05,1.2846821846324E-05,1.23046875,0,0
-2.11660026252503E-05,1.63895801961189E-05,1.23046875,0,0
-2.3864813556429E-05,9.7676929726731E-06,1.23046875,0,0
-2.26259489863878E-05,5.81343829253456E-06,1.23046875,0,0
-2.56881976383738E-05,9.53611834120238E-06,1.23046875,0,0
-2.53274047281593E-05,8.48755826154957E-06,1.23046875,0,0
-2.42299611272756E-05,1.04281580206589E-05,1.23046875,0,0
-2.37358435697388E-05,1.52887223521248E-05,1.23046875,0,0
-2.35106090258341E-05,1.25519027278642E-05,1.23046875,0,0
-2.52290556090884E-05,7.93492290540598E-06,1.23046875,0,0
-2.44615439441986E-05,6.34147545497399E-06,1.23046875,0,0
-2.56469666055636E-05,3.92271522287047E-06,1.23046875,0,0
-2.55747909250204E-05,1.12816883302003E-06,1.23046875,0,0
-2.88162864308106E-05,1.34629169679101E-06,1.23046875,0,0
-2.86147405859083E-05,1.79927519639023E-06,1.23046875,0,0
-2.87704169750214E-05,1.09976929252298E-06,1.23046875,0,0
-2.69569463853259E-05,1.68176413239962E-07,1.23046875,0,0
-2.72135948762298E-05,2.47544949161238E-06,1.23046875,0,0
-2.71653407253325E-05,7.30114561520168E-06,1.23046875,0,0
-2.83671633951599E-05,1.04207902040798E-05,1.23046875,0,0
-2.70168038696283E-05,1.01777923191548E-05,1.23046875,0,0
-2.56707171502057E-05,9.74603608483449E-06,1.23046875,0,0
-2.52902664215071E-05,9.12301948119421E-06,1.23046875,0,0
-2.56420680670999E-05,7.07986600900767E-06,1.23046875,0,0
-2.00212562049273E-05,6.5332869780832E-06,1.23046875,0,0
-2.79142295767087E-05,1.36301987367915E-05,1.23046875,0,0
-2.13024522963678E-05,1.27434159367112E-05,1.23046875,0,0
-2.64629015873652E-05,1.39084786496824E-05,1.23046875,0,0
-2.11199112527538E-05,1.53336568473605E-05,1.23046875,0,0
-2.38982447626768E-05,9.9449307526811E-06,1.23046875,0,0
-2.1642630599672E-05,6.30927252132096E-06,1.23046875,0,0
-2.20343335968209E-05,8.52077664603712E-06,1.23046875,0,0
-2.08491801458877E-05,3.82434200218995E-06,1.23046875,0,0
-2.1841966372449E-05,2.84760494650982E-06,1.23046875,0,0
-2.40791123360395E-05,7.9468345575151E-06,1.23046875,0,0
-2.40656045207288E-05,8.71201154950541E-06,1.23046875,0,0
-2.37784588534851E-05,1.00012521215831E-05,1.23046875,0,0
-2.25344520004001E-05,1.54312565427972E-05,1.23046875,0,0
-2.51625151577173E-05,1.7272499462706E-05,1.23046875,0,0
-2.5254399588448E-05,1.14779149953392E-05,1.23046875,0,0
-2.6142055503442E-05,5.79413062951062E-06,1.23046875,0,0
-2.41135803662473E-05,4.7278449528676E-06,1.23046875,0,0
-2.43337908614194E-05,7.52980668039527E-06,1.23046875,0,0
-2.4197630409617E-05,8.50730793899857E-06,1.23046875,0,0
-2.69716147158761E-05,5.78318349653273E-06,1.23046875,0,0
-2.78613424598007E-05,1.15718921733787E-06,1.23046875,0,0
-2.86069753201446E-05,-1.52720815549401E-06,1.23046875,0,0
-2.79689120361581E-05,-2.68126058244889E-07,1.23046875,0,0
-2.7941559892497E-05,5.59778254682897E-06,1.23046875,0,0
-2.83346289506881E-05,9.32333205128089E-06,1.23046875,0,0
-2.89439849439077E-05,8.71317297423957E-06,1.23046875,0,0
-2.2610574887949E-05,6.51635355097824E-06,1.23046875,0,0
-3.15878642140888E-05,1.28613864944782E-05,1.23046875,0,0
-2.36021805903874E-05,1.4739320249646E-05,1.23046875,0,0
-2.96786110993708E-05,1.98137222469086E-05,1.23046875,0,0
-2.29486086027464E-05,2.11837123060832E-05,1.23046875,0,0
-2.35471561609302E-05,1.77990496013081E-05,1.23046875,0,0
-2.01270340767223E-05,1.70097446243744E-05,1.23046875,0,0
-2.10661455639638E-05,2.16137159441132E-05,1.23046875,0,0
-2.10081961995456E-05,1.74336728377966E-05,1.23046875,0,0
-2.23157985601574E-05,1.45748244904098E-05,1.23046875,0,0
-2.41872730839532E-05,1.71835108631058E-05,1.23046875,0,0
-2.39954260905506E-05,1.52877837535925E-05,1.23046875,0,0
-2.4859509721864E-05,1.33449484565062E-05,1.23046875,0,0
-2.37597996601835E-05,1.59374303621007E-05,1.23046875,0,0
-2.50072898779763E-05,1.85234875971219E-05,1.23046875,0,0
-2.42037440330023E-05,1.76632565853652E-05,1.23046875,0,0
-2.56734565482475E-05,1.4988106158853E-05,1.23046875,0,0
-2.33817190746777E-05,1.11721137727727E-05,1.23046875,0,0
-2.15920408663806E-05,1.00341112556634E-05,1.23046875,0,0
-1.77237325260649E-05,9.72133602772374E-06,1.23046875,0,0
-1.74949309439398E-05,8.41118708194699E-06,1.23046875,0,0
-1.78977479663445E-05,7.37886739443638E-06,1.23046875,0,0
-2.00368158402853E-05,7.48741058487212E-06,1.23046875,0,0
-2.14938172575785E-05,5.34200307811261E-06,1.23046875,0,0
-2.2738917323295E-05,5.02486045661499E-06,1.23046875,0,0
-2.14544197660871E-05,8.88986687641591E-06,1.23046875,0,0
-1.98184698092518E-05,1.12897887447616E-05,1.23046875,0,0
-1.5679628631915E-05,8.03394323156681E-06,1.23046875,0,0
-2.24952655116795E-05,1.4311710401671E-05,1.23046875,0,0
-1.81231516762637E-05,1.34036718009156E-05,1.23046875,0,0
-2.25237490667496E-05,1.70739076565951E-05,1.23046875,0,0
-1.90114260476548E-05,1.78604568645824E-05,1.23046875,0,0
-2.12701124837622E-05,1.3340054465516E-05,1.23046875,0,0
-2.01109705812996E-05,1.15111215563957E-05,1.23046875,0,0
-2.17806700675283E-05,1.69487375387689E-05,1.23046875,0,0
-2.13459261431126E-05,1.53991768456763E-05,1.23046875,0,0
-2.0778143152711E-05,1.54808567458531E-05,1.23046875,0,0
-2.05787782761035E-05,1.78226709977025E-05,1.23046875,0,0
-2.0659626898123E-05,1.47140672197565E-05,1.23046875,0,0
-2.27231666940497E-05,1.47288819789537E-05,1.23046875,0,0
-2.26657666644314E-05,2.03236850211397E-05,1.23046875,0,0
-2.33767150348285E-05,2.14987794606714E-05,1.23046875,0,0
-2.23857314267661E-05,1.48843428178225E-05,1.23046875,0,0
-2.35311563301366E-05,1.04942046164069E-05,1.23046875,0,0
-2.35832121688873E-05,9.79008291324135E-06,1.23046875,0,0
-2.50241027970333E-05,1.13579453682178E-05,1.23046875,0,0
-2.36898886214476E-05,1.23161480587441E-05,1.23046875,0,0
-2.31186568271369E-05,1.33974799609859E-05,1.23046875,0,0
-2.33445716730785E-05,1.30804619402625E-05,1.23046875,0,0
-2.62108205788536E-05,1.09727561721229E-05,1.23046875,0,0
-2.75753973255632E-05,7.24915935279569E-06,1.23046875,0,0
-2.78216139122378E-05,5.49332116861478E-06,1.23046875,0,0
-2.68209096248029E-05,4.6574386942666E-06,1.23046875,0,0
-2.62489938904764E-05,2.48876858677249E-06,1.23046875,0,0
-2.13660005101701E-05,2.33800778914883E-06,1.23046875,0,0
-3.10493378492538E-05,4.71077419206267E-06,1.23046875,0,0
-2.52386435022345E-05,1.21674429465202E-06,1.23046875,0,0
-3.1279483664548E-05,2.07963398679567E-06,1.23046875,0,0
-2.7354784833733E-05,7.80371738073882E-06,1.23046875,0,0
-3.18905840686057E-05,4.77299272461096E-06,1.23046875,0,0
-2.97104361379752E-05,3.35867139256152E-06,1.23046875,0,0
-2.87938946712529E-05,5.12029555466142E-06,1.23046875,0,0
-2.57178835454397E-05,1.29429940898262E-06,1.23046875,0,0
-2.55005925282603E-05,1.00525198831747E-06,1.23046875,0,0
-2.54960395977832E-05,4.52529047834105E-06,1.23046875,0,0
-2.31290960073238E-05,4.24236941398703E-06,1.23046875,0,0
-2.1652682335116E-05,6.14657756159431E-06,1.23046875,0,0
-1.98433172045043E-05,1.11135423139785E-05,1.23046875,0,0
-2.24146970140282E-05,9.1597457867465E-06,1.23046875,0,0
-2.2887588784215E-05,2.07494986170786E-06,1.23046875,0,0
-2.41927591559943E-05,-1.59919852649182E-06,1.23046875,0,0
-2.15748550544959E-05,-1.23207769320288E-07,1.23046875,0,0
-2.16846892726608E-05,4.29085866926471E-06,1.23046875,0,0
-2.15489853871986E-05,9.03639011085033E-06,1.23046875,0,0
-2.38282173086191E-05,1.28170859170496E-05,1.23046875,0,0
-2.39454275288153E-05,1.64803150255466E-05,1.23046875,0,0
-2.41706893575611E-05,2.02431947400328E-05,1.23046875,0,0
-2.30929144890979E-05,2.33978189498885E-05,1.23046875,0,0
-2.36911837419029E-05,2.34751878451789E-05,1.23046875,0,0
-2.53473244811175E-05,2.20595102291554E-05,1.23046875,0,0
-2.70897908194456E-05,1.92584921023808E-05,1.23046875,0,0
-2.27494110731641E-05,1.22282699521747E-05,1.23046875,0,0
-3.09870301862247E-05,1.62577780429274E-05,1.23046875,0,0
-2.0840347133344E-05,1.05194940260844E-05,1.23046875,0,0
-2.48558171733748E-05,1.87909954547649E-05,1.23046875,0,0
-1.96428809431382E-05,2.16919597733067E-05,1.23046875,0,0
-2.34331946558086E-05,1.90214195754379E-05,1.23046875,0,0
-2.0935131033184E-05,1.88853791769361E-05,1.23046875,0,0
-2.08961191674462E-05,2.75246784440242E-05,1.23046875,0,0
-1.86084562301403E-05,2.48691321758088E-05,1.23046875,0,0
-1.7840473446995E-05,2.12539616768481E-05,1.23046875,0,0
-1.89278744073818E-05,2.09404261113377E-05,1.23046875,0,0
-2.02311675820965E-05,1.5389989130199E-05,1.23046875,0,0
-2.23312072193949E-05,1.0757333257061E-05,1.23046875,0,0
-2.10359503398649E-05,9.05348133528605E-06,1.23046875,0,0
-2.13984822039492E-05,8.26630184747046E-06,1.23046875,0,0
-1.97607187146787E-05,5.77716764382785E-06,1.23046875,0,0
-2.18975928873988E-05,5.75514786760323E-06,1.23046875,0,0
-2.20011024794076E-05,4.85946247863467E-06,1.23046875,0,0
-2.38802185776876E-05,5.49857441001222E-06,1.23046875,0,0
-2.3001128283795E-05,6.58143517284771E-06,1.23046875,0,0
-2.38050724874483E-05,1.16476167022483E-05,1.23046875,0,0
-2.34575200011022E-05,1.66972913575592E-05,1.23046875,0,0
-2.4615026632091E-05,2.06474596780026E-05,1.23046875,0,0
-2.38606316997902E-05,2.28484204853885E-05,1.23046875,0,0
-2.35271327255759E-05,2.38852626353037E-05,1.23046875,0,0
-2.43086269620107E-05,2.20229594560806E-05,1.23046875,0,0
-2.66957486019237E-05,1.85109638550784E-05,1.23046875,0,0
-2.16533026105026E-05,1.43026418299996E-05,1.23046875,0,0
-2.82644796243403E-05,2.29417819355149E-05,1.23046875,0,0
-1.86911529453937E-05,1.70331932167755E-05,1.23046875,0,0
-2.5369012291776E-05,1.72914951690473E-05,1.23046875,0,0
-2.11315073102014E-05,1.32436125568347E-05,1.23046875,0,0
-2.41953894146718E-05,7.70908991398755E-06,1.23046875,0,0
-2.19670018850593E-05,4.97064138471615E-06,1.23046875,0,0
-2.36023424804443E-05,1.09065877040848E-05,1.23046875,0,0
-2.41697234741878E-05,9.30789519770769E-06,1.23046875,0,0
-2.57909723586636E-05,9.16415137908189E-06,1.23046875,0,0
-2.63918700511567E-05,1.16437249744195E-05,1.23046875,0,0
-2.47322477662237E-05,8.22866513772169E-06,1.23046875,0,0
-2.5138277123915E-05,4.4771722969017E-06,1.23046875,0,0
-2.45468090724899E-05,1.57088152263896E-06,1.23046875,0,0
-2.78031493508024E-05,-5.44308522876236E-06,1.23046875,0,0
-2.84227680822369E-05,-1.37457891469239E-05,1.23046875,0,0
-2.90061234409222E-05,-1.10110095192795E-05,1.23046875,0,0
-2.55179402302019E-05,-6.32311684967135E-06,1.23046875,0,0
-2.49063159571961E-05,-5.61778870178387E-06,1.23046875,0,0
-2.40084755205316E-05,-7.64901415095665E-06,1.23046875,0,0
-2.53622874879511E-05,-5.86567557547824E-06,1.23046875,0,0
-2.43022823269712E-05,-2.63333026850887E-06,1.23046875,0,0
-2.3031716409605E-05,1.83927454600052E-06,1.23046875,0,0
-2.20218244066928E-05,4.7967141654226E-06,1.23046875,0,0
-2.45065548369894E-05,7.54760503696161E-06,1.23046875,0,0
-2.61596560449107E-05,8.08317054179497E-06,1.23046875,0,0
-2.49657550739357E-05,6.52196922601433E-06,1.23046875,0,0
-1.94986969290767E-05,5.62236664336524E-06,1.23046875,0,0
-2.77739909506636E-05,1.21020975711872E-05,1.23046875,0,0
-1.96666496776743E-05,1.19406859084847E-05,1.23046875,0,0
-2.25850471906597E-05,1.27573603094788E-05,1.23046875,0,0
-1.83926294994308E-05,1.38286686706124E-05,1.23046875,0,0
-2.16703228943516E-05,8.97987411008216E-06,1.23046875,0,0
-2.09950576390838E-05,8.08516506367596E-06,1.23046875,0,0
-2.35214884014567E-05,1.40364336402854E-05,1.23046875,0,0
-2.47376392508158E-05,1.25667957036057E-05,1.23046875,0,0
-2.60285087279044E-05,1.2508753570728E-05,1.23046875,0,0
-2.61401710304199E-05,1.68875376402866E-05,1.23046875,0,0
-2.4177328668884E-05,1.56413007061929E-05,1.23046875,0,0
-2.30839068535715E-05,1.42707631312078E-05,1.23046875,0,0
-2.08920628210763E-05,1.69965187524213E-05,1.23046875,0,0
-2.16236003325321E-05,1.60593535838416E-05,1.23046875,0,0
-2.04925909201847E-05,1.00721636044909E-05,1.23046875,0,0
-2.03980544029037E-05,7.56664530854323E-06,1.23046875,0,0
-1.83302363438997E-05,1.03466391010443E-05,1.23046875,0,0
-1.99527985387249E-05,1.36524149638717E-05,1.23046875,0,0
-2.13187759072753E-05,1.26040267787175E-05,1.23046875,0,0
-2.40933568420587E-05,8.71426254889229E-06,1.23046875,0,0
-2.55349586950615E-05,4.75338356409338E-06,1.23046875,0,0
-2.64813443209277E-05,2.18912600757903E-06,1.23046875,0,0
-2.42215992329875E-05,1.57556962676608E-06,1.23046875,0,0
-2.18392797250999E-05,3.30758098243678E-06,1.23046875,0,0
-2.03493291337509E-05,5.64516494705458E-06,1.23046875,0,0
-2.09780009754468E-05,6.94418804414454E-06,1.23046875,0,0
-1.93537252926035E-05,5.85810266784392E-06,1.23046875,0,0
-2.74554477073252E-05,1.068554684025E-05,1.23046875,0,0
-1.95771444850834E-05,9.14648990146816E-06,1.23046875,0,0
-2.42103287746431E-05,1.24414855235955E-05,1.23046875,0,0
-2.22963280975819E-05,1.65384426509263E-05,1.23046875,0,0
-2.66432562057162E-05,1.45008089020848E-05,1.23046875,0,0
-2.51660731009906E-05,1.40187266879366E-05,1.23046875,0,0
-2.45703486143611E-05,1.8880722564063E-05,1.23046875,0,0
-2.25447893171804E-05,1.658515247982E-05,1.23046875,0,0
-2.28046246775193E-05,1.50343621498905E-05,1.23046875,0,0
-2.4629982362967E-05,1.69851609825855E-05,1.23046875,0,0
-2.4936754925875E-05,1.71979918377474E-05,1.23046875,0,0
-2.53632879321231E-05,1.90048358490458E-05,1.23046875,0,0
-2.42752248595934E-05,2.19554822251666E-05,1.23046875,0,0
-2.54675032920204E-05,2.00845843210118E-05,1.23046875,0,0
-2.43067697738297E-05,1.60011586558539E-05,1.23046875,0,0
-2.41404686676105E-05,1.73614971572533E-05,1.23046875,0,0
-2.18330023926683E-05,1.806537147786E-05,1.23046875,0,0
-2.20764450205024E-05,1.40966967592249E-05,1.23046875,0,0
-2.12002214539098E-05,1.03047914308263E-05,1.23046875,0,0
-2.18723344005411E-05,1.14124768515467E-05,1.23046875,0,0
-2.2463196728495E-05,1.4302384442999E-05,1.23046875,0,0
-2.53287926170742E-05,1.44300756801385E-05,1.23046875,0,0
-2.62706525973044E-05,8.83464144862955E-06,1.23046875,0,0
-2.64446534856688E-05,4.16372631661943E-06,1.23046875,0,0
-2.54485712503083E-05,6.02015734330053E-06,1.23046875,0,0
-2.40323424804956E-05,1.1864318366861E-05,1.23046875,0,0
-1.92017050721915E-05,1.27846205941751E-05,1.23046875,0,0
-2.76754108199384E-05,1.67543039424345E-05,1.23046875,0,0
-2.09933932637796E-05,7.07447361492086E-06,1.23046875,0,0
-2.45498395088362E-05,1.09442271423177E-05,1.23046875,0,0
-2.00071590370499E-05,1.08372069007601E-05,1.23046875,0,0
-2.34243725572014E-05,3.20809590448334E-06,1.23046875,0,0
-2.16581738641253E-05,8.5597702081941E-07,1.23046875,0,0
-2.23050883505493E-05,1.1124736374768E-05,1.23046875,0,0
-2.18745972233592E-05,1.04668170024524E-05,1.23046875,0,0
-2.33929913520115E-05,7.42520705898642E-06,1.23046875,0,0
-2.44429829763249E-05,8.183526006178E-06,1.23046875,0,0
-2.37652984651504E-05,6.48430068395101E-06,1.23046875,0,0
-2.61067852989072E-05,8.4961402535555E-06,1.23046875,0,0
-2.73093573923688E-05,1.48343333421508E-05,1.23046875,0,0
-2.93547509500058E-05,1.60456984303892E-05,1.23046875,0,0
-2.82671626337105E-05,8.07278956926893E-06,1.23046875,0,0
-2.83412809949368E-05,5.72070121052093E-06,1.23046875,0,0
-2.67352315859171E-05,9.30052829062333E-06,1.23046875,0,0
-2.87512175418669E-05,1.37674642246566E-05,1.23046875,0,0
-2.8514257792267E-05,1.43766465043882E-05,1.23046875,0,0
-2.76081136689754E-05,1.5495897969231E-05,1.23046875,0,0
-2.48216074396623E-05,1.51779995576362E-05,1.23046875,0,0
-2.31731992244022E-05,1.42151757245301E-05,1.23046875,0,0
-2.19077937799739E-05,1.28643305288278E-05,1.23046875,0,0
-2.23761217057472E-05,1.31466013044701E-05,1.23046875,0,0
-2.26890206249664E-05,1.33200901473174E-05,1.23046875,0,0
-2.34895196626894E-05,1.25956185001996E-05,1.23046875,0,0
-1.9063614672632E-05,8.58884504850721E-06,1.23046875,0,0
-2.48528285737848E-05,1.1786313734774E-05,1.23046875,0,0
-1.6016065274016E-05,5.4385441217164E-06,1.23046875,0,0
-2.11967671930324E-05,6.69038672640454E-06,1.23046875,0,0
-1.822355807235E-05,6.44787314740825E-06,1.23046875,0,0
-2.29601173487026E-05,3.65499431609351E-06,1.23046875,0,0
-2.21616446651751E-05,4.39568157162284E-06,1.23046875,0,0
-2.27778018597746E-05,7.2582470238558E-06,1.23046875,0,0
-2.12117247428978E-05,-1.19923424790613E-06,1.23046875,0,0
-2.08216388273286E-05,-5.10579502588371E-06,1.23046875,0,0
-2.16376029129606E-05,-3.11481971948524E-06,1.23046875,0,0
-2.2726679162588E-05,-5.63241746931453E-06,1.23046875,0,0
-2.46052604779834E-05,-4.67229438072536E-06,1.23046875,0,0
-2.33993632718921E-05,2.61447826233052E-06,1.23046875,0,0
-2.44157326960703E-05,5.92419382883236E-06,1.23046875,0,0
-2.48061132879229E-05,1.1582269507926E-06,1.23046875,0,0
-2.70213149633491E-05,7.37393236249773E-07,1.23046875,0,0
-2.50257035077084E-05,5.10975723955198E-06,1.23046875,0,0
-2.42136102315271E-05,9.58542113949079E-06,1.23046875,0,0
-2.30074292630889E-05,1.10784594653524E-05,1.23046875,0,0
-2.48920241574524E-05,1.37824317789637E-05,1.23046875,0,0
-2.51450910582207E-05,1.7241996829398E-05,1.23046875,0,0
-2.47071875492111E-05,2.00739905267255E-05,1.23046875,0,0
-2.2122307200334E-05,2.0572753783199E-05,1.23046875,0,0
-2.09770714718616E-05,2.08438195841154E-05,1.23046875,0,0
-2.19655685214093E-05,2.21938953473E-05,1.23046875,0,0
-2.44970269704936E-05,2.4495766410837E-05,1.23046875,0,0
-2.13924013223732E-05,2.24466220970498E-05,1.23046875,0,0
-3.06262154481374E-05,3.24704524246044E-05,1.23046875,0,0
-2.15322270378238E-05,2.12914674193598E-05,1.23046875,0,0
-2.43841441260884E-05,2.62128287431551E-05,1.23046875,0,0
-1.89219135791063E-05,2.24879840970971E-05,1.23046875,0,0
-2.15649270103313E-05,1.53691562445601E-05,1.23046875,0,0
-1.96530163520947E-05,6.77206935506547E-06,1.23046875,0,0
-2.05772194021847E-05,8.44453916215571E-06,1.23046875,0,0
-2.05145770451054E-05,5.7484658100293E-06,1.23046875,0,0
-2.10052057809662E-05,9.39138044486754E-06,1.23046875,0,0
-2.1398260287242E-05,1.68951137311524E-05,1.23046875,0,0
-2.1338441001717E-05,1.64175289683044E-05,1.23046875,0,0
-2.41706584347412E-05,1.51925296449917E-05,1.23046875,0,0
-2.55247759923805E-05,1.44570858537918E-05,1.23046875,0,0
-2.73593468591571E-05,1.09016573333065E-05,1.23046875,0,0
-2.52080808422761E-05,2.83769480802221E-07,1.23046875,0,0
-2.45358387473971E-05,-3.15542888529308E-06,1.23046875,0,0
-2.24774485104717E-05,-2.64434333985264E-07,1.23046875,0,0
-2.30616115004523E-05,6.31133389106253E-06,1.23046875,0,0
-2.29126017075032E-05,6.29827400189242E-06,1.23046875,0,0
-2.54026199399959E-05,4.70684290121426E-06,1.23046875,0,0
-2.57728461292572E-05,4.94934693051619E-06,1.23046875,0,0
-2.62011544691632E-05,8.85958161234157E-06,1.23046875,0,0
-2.59712560364278E-05,8.84744167706231E-06,1.23046875,0,0
-2.67434297711588E-05,6.93636229698313E-06,1.23046875,0,0
-2.7466408937471E-05,4.97420614919974E-06,1.23046875,0,0
-2.76838327408768E-05,4.29029432780226E-06,1.23046875,0,0
-2.1921510779066E-05,3.4640040667E-06,1.23046875,0,0
-3.02335902233608E-05,5.17197941007908E-06,1.23046875,0,0
-2.22849757847143E-05,3.0534479265043E-06,1.23046875,0,0
-2.7831689294544E-05,7.59153863327811E-06,1.23046875,0,0
-2.20360361709027E-05,1.39589537866414E-05,1.23046875,0,0
-2.52100071520545E-05,1.08169824670767E-05,1.23046875,0,0
-2.4241249775514E-05,8.59866304381285E-06,1.23046875,0,0
-2.61470922851004E-05,1.37405486384523E-05,1.23046875,0,0
-2.479322211002E-05,1.30953676489298E-05,1.23046875,0,0
-2.44159436988411E-05,1.20151107694255E-05,1.23046875,0,0
-2.4775588826742E-05,1.62049891514471E-05,1.23046875,0,0
-2.4264210878755E-05,1.82155945367413E-05,1.23046875,0,0
-2.51158198807389E-05,1.87985060620122E-05,1.23046875,0,0
-2.40620811382541E-05,1.95621923921863E-05,1.23046875,0,0
-2.6114172214875E-05,1.76059584191535E-05,1.23046875,0,0
-2.59201115113683E-05,1.27531575344619E-05,1.23046875,0,0
-2.65380822384031E-05,9.01117255125428E-06,1.23046875,0,0
-2.31585290748626E-05,6.5335443650838E-06,1.23046875,0,0
-2.27521577471634E-05,5.75798094359925E-06,1.23046875,0,0
-2.27498385356739E-05,6.29314354227972E-06,1.23046875,0,0
-2.58294257946545E-05,6.88595582687412E-06,1.23046875,0,0
-2.6364406949142E-05,7.09468622517306E-06,1.23046875,0,0
-2.75020556728123E-05,8.17427553556627E-06,1.23046875,0,0
-2.72482757281978E-05,9.74252452579094E-06,1.23046875,0,0
-2.72546858468559E-05,1.0623153684719E-05,1.23046875,0,0
-2.70695782091934E-05,1.14408176159486E-05,1.23046875,0,0
-2.56052535405615E-05,1.124263053498E-05,1.23046875,0,0
-1.81224404514069E-05,1.0754414688563E-05,1.23046875,0,0
-2.59881671809126E-05,1.8048634956358E-05,1.23046875,0,0
-2.12731683859602E-05,1.17390545710805E-05,1.23046875,0,0
-2.82953151327092E-05,1.20424656415707E-05,1.23046875,0,0
-2.60749911831226E-05,1.43802590173436E-05,1.23046875,0,0
-2.942622268165E-05,1.24501930258702E-05,1.23046875,0,0
-2.77534581982763E-05,1.01388495750143E-05,1.23046875,0,0
-2.8721891794703E-05,1.22480842037476E-05,1.23046875,0,0
-2.86425874946872E-05,7.61680576033541E-06,1.23046875,0,0
-2.97129081445746E-05,6.81113033351721E-06,1.23046875,0,0
-3.02122552966466E-05,1.05935632745968E-05,1.23046875,0,0
-2.83447352558142E-05,9.26127540878952E-06,1.23046875,0,0
-2.72307006525807E-05,9.71578265307471E-06,1.23046875,0,0
-2.46855397563195E-05,1.61702791956486E-05,1.23046875,0,0
-2.53030502790352E-05,2.10362759389682E-05,1.23046875,0,0
-2.47536627284717E-05,2.00809445232153E-05,1.23046875,0,0
-2.60188262473093E-05,2.09970385185443E-05,1.23046875,0,0
-2.46418458118569E-05,2.21391856030095E-05,1.23046875,0,0
-2.48061824095203E-05,2.16105454455828E-05,1.23046875,0,0
-2.45341816480504E-05,1.91717936104396E-05,1.23046875,0,0
-2.69543143076589E-05,1.67236285051331E-05,1.23046875,0,0
-2.89883846562589E-05,1.31761717057088E-05,1.23046875,0,0
-3.10470168187749E-05,1.11008530438994E-05,1.23046875,0,0
-3.0167722798069E-05,1.05905864984379E-05,1.23046875,0,0
-2.8343503799988E-05,1.19607830129098E-05,1.23046875,0,0
-2.59075513895368E-05,1.3220208529674E-05,1.23046875,0,0
-2.50120174314361E-05,1.44668019856908E-05,1.23046875,0,0
-2.11015340028098E-05,1.21091024993802E-05,1.23046875,0,0
-3.0785540729994E-05,1.89419079106301E-05,1.23046875,0,0
-2.33713180932682E-05,1.36989392558462E-05,1.23046875,0,0
-2.73200676019769E-05,1.58335296873702E-05,1.23046875,0,0
-2.19158027903177E-05,1.41765121952631E-05,1.23046875,0,0
-2.43887861870462E-05,1.09419925138354E-05,1.23046875,0,0
-2.29244396905415E-05,1.24025054901722E-05,1.23046875,0,0
-2.52984318649396E-05,2.13609546335647E-05,1.23046875,0,0
-2.55271061178064E-05,1.96284345292952E-05,1.23046875,0,0
-2.49430177063914E-05,1.75276181835216E-05,1.23046875,0,0
-2.33358841796871E-05,1.88591275218641E-05,1.23046875,0,0
-2.11008555197623E-05,1.46099309858982E-05,1.23046875,0,0
-2.14536994462833E-05,9.43032137001865E-06,1.23046875,0,0
-2.04548232431989E-05,7.29200974092237E-06,1.23046875,0,0
-2.19925605051685E-05,6.64736671751598E-06,1.23046875,0,0
-2.20620167965535E-05,3.89912565879058E-06,1.23046875,0,0
-2.36706509895157E-05,4.22512493969407E-06,1.23046875,0,0
-2.20670262933709E-05,5.62801051273709E-06,1.23046875,0,0
-2.33831560763065E-05,7.08921015757369E-06,1.23046875,0,0
-2.4502875021426E-05,4.38064580521313E-06,1.23046875,0,0
-2.71969456662191E-05,2.66636766355077E-06,1.23046875,0,0
-2.633699659782E-05,2.330922143301E-06,1.23046875,0,0
-2.41385478148004E-05,1.86550710168376E-06,1.23046875,0,0
-2.19027806451777E-05,-4.70206202862755E-07,1.23046875,0,0
-2.20868896576576E-05,2.46363480727041E-08,1.23046875,0,0
-2.2677844754071E-05,3.78248159904615E-06,1.23046875,0,0
-2.42416008404689E-05,5.26067196915392E-06,1.23046875,0,0
-1.97430526895914E-05,3.96042651118478E-06,1.23046875,0,0
-2.70066411758307E-05,6.91524337526062E-06,1.23046875,0,0
-1.89736128959339E-05,5.69076064493856E-06,1.23046875,0,0
-2.3736340153846E-05,6.9078500928299E-06,1.23046875,0,0
-1.88633930520155E-05,6.70145163894631E-06,1.23046875,0,0
-2.06762306333985E-05,1.57998601935105E-06,1.23046875,0,0
-1.69127324625151E-05,-7.73354486227618E-07,1.23046875,0,0
-1.68651804415276E-05,1.27700093344174E-06,1.23046875,0,0
-1.74304241227219E-05,-3.45159946846252E-06,1.23046875,0,0
-1.86416673386702E-05,-5.00788155477494E-06,1.23046875,0,0
-1.85744429472834E-05,-1.26549844026158E-06,1.23046875,0,0
-1.71092524396954E-05,4.27742293140909E-07,1.23046875,0,0
-1.72447544173338E-05,5.92457263337565E-06,1.23046875,0,0
-1.67502457770752E-05,1.33813009597361E-05,1.23046875,0,0
-1.96963173948461E-05,1.33387284222408E-05,1.23046875,0,0
-2.07710654649418E-05,7.07568187863217E-06,1.23046875,0,0
-2.2498517864733E-05,2.904293978645E-06,1.23046875,0,0
-2.04832922463538E-05,1.30735872971854E-06,1.23046875,0,0
-2.04521547857439E-05,1.1339782304276E-06,1.23046875,0,0
-1.95551801880356E-05,1.29289526284992E-06,1.23046875,0,0
-2.03285871975822E-05,2.01327861759637E-06,1.23046875,0,0
-1.98077959794318E-05,1.92290872291778E-06,1.23046875,0,0
-2.08420751732774E-05,2.02208252630953E-06,1.23046875,0,0
-2.08439378184266E-05,4.78250012747594E-06,1.23046875,0,0
-2.10918697121087E-05,1.00580973594333E-05,1.23046875,0,0
-2.13102775887819E-05,1.44201721923309E-05,1.23046875,0,0
-2.23224251385545E-05,1.68294409377268E-05,1.23046875,0,0
-1.86634188139578E-05,1.33153553179E-05,1.23046875,0,0
-2.57106512435712E-05,1.95192442333791E-05,1.23046875,0,0
-1.75544810190331E-05,1.60736854013521E-05,1.23046875,0,0
-2.13690891541773E-05,2.68648145720363E-05,1.23046875,0,0
-1.8837527022697E-05,3.02511416521156E-05,1.23046875,0,0
-2.27242890105117E-05,2.64154296019115E-05,1.23046875,0,0
-2.137591218343E-05,2.29251199925784E-05,1.23046875,0,0
-2.39268174482277E-05,2.46954696194734E-05,1.23046875,0,0
-2.41577836277429E-05,1.66003210324561E-05,1.23046875,0,0
-2.46299005084438E-05,1.23417648865143E-05,1.23046875,0,0
-2.53431317105424E-05,1.45730218719109E-05,1.23046875,0,0
-2.48278029175708E-05,1.13908063212875E-05,1.23046875,0,0
-2.46148410951719E-05,8.05798208602937E-06,1.23046875,0,0
-2.17450797208585E-05,7.93746949057095E-06,1.23046875,0,0
-2.13325074582826E-05,6.61412741465028E-06,1.23046875,0,0
-2.04893694899511E-05,8.84008898083266E-07,1.23046875,0,0
-2.30606001423439E-05,-1.94554831978166E-06,1.23046875,0,0
-2.35102706938051E-05,-4.37273138231831E-06,1.23046875,0,0
-2.5074215955101E-05,-4.32998513133498E-06,1.23046875,0,0
-2.46748058998492E-05,-3.68761061508849E-06,1.23046875,0,0
-2.57370484177954E-05,-1.18613081667718E-06,1.23046875,0,0
-2.535823477956E-05,1.03918296190386E-06,1.23046875,0,0
-2.56795628956752E-05,4.38428514826228E-06,1.23046875,0,0
-2.48994165303884E-05,7.72481962485472E-06,1.23046875,0,0
-2.50360244535841E-05,1.1151783837704E-05,1.23046875,0,0
-2.46148902078858E-05,1.19131645988091E-05,1.23046875,0,0
-2.31889425776899E-05,1.11532890514354E-05,1.23046875,0,0
-1.78514892468229E-05,8.17889758764068E-06,1.23046875,0,0
-2.66504684987012E-05,1.35754626171547E-05,1.23046875,0,0
-2.06106960831676E-05,1.07059595393366E-05,1.23046875,0,0
-2.24056639126502E-05,1.6122965462273E-05,1.23046875,0,0
-1.78115897142561E-05,2.20169695239747E-05,1.23046875,0,0
-2.2104619347374E-05,2.00192916963715E-05,1.23046875,0,0
-2.29886663873913E-05,1.886838072096E-05,1.23046875,0,0
-2.58809432125418E-05,2.41454545175657E-05,1.23046875,0,0
-2.62933917838382E-05,1.91224189620698E-05,1.23046875,0,0
-2.56384519161657E-05,1.44207542689401E-05,1.23046875,0,0
-2.40269437199458E-05,1.60793715622276E-05,1.23046875,0,0
-2.22017424675869E-05,1.54829340317519E-05,1.23046875,0,0
-2.13772618735675E-05,1.57574886543443E-05,1.23046875,0,0
-1.83837400982156E-05,1.78765421878779E-05,1.23046875,0,0
-1.89277980098268E-05,1.64359462360153E-05,1.23046875,0,0
-2.08839846891351E-05,1.18309699246311E-05,1.23046875,0,0
-2.43743925238959E-05,1.10882983790361E-05,1.23046875,0,0
-2.33405480685178E-05,1.11117496999213E-05,1.23046875,0,0
-2.33898772421526E-05,1.03621578091406E-05,1.23046875,0,0
-2.32145484915236E-05,1.00750221463386E-05,1.23046875,0,0
-2.55435134022264E-05,1.12835696199909E-05,1.23046875,0,0
-2.52364206971833E-05,8.79342678672401E-06,1.23046875,0,0
-2.32802485697903E-05,6.69127121000201E-06,1.23046875,0,0
-2.12817176361568E-05,1.05321205410291E-05,1.23046875,0,0
-2.1688692868338E-05,1.52854427142302E-05,1.23046875,0,0
-2.21289228647947E-05,1.27574412545073E-05,1.23046875,0,0
-2.22931757889455E-05,9.3047192422091E-06,1.23046875,0,0
-1.70182120200479E-05,1.40357215059339E-05,1.23046875,0,0
-2.41911839111708E-05,2.59619155258406E-05,1.23046875,0,0
-2.07108860195149E-05,1.96933560800971E-05,1.23046875,0,0
-2.73185469268356E-05,1.79020134964958E-05,1.23046875,0,0
-2.30340010602959E-05,1.78800601133844E-05,1.23046875,0,0
-2.41610850935103E-05,1.39183157443767E-05,1.23046875,0,0
-2.11231781577226E-05,1.19714968604967E-05,1.23046875,0,0
-2.26909342018189E-05,1.76449157152092E-05,1.23046875,0,0
-2.38086704484886E-05,1.57306058099493E-05,1.23046875,0,0
-2.5125114916591E-05,1.34412903207703E-05,1.23046875,0,0
-2.4499886421836E-05,1.44883752000169E-05,1.23046875,0,0
-2.30456826102454E-05,1.01766318039154E-05,1.23046875,0,0
-2.43244576267898E-05,5.78993740418809E-06,1.23046875,0,0
-2.38464399444638E-05,3.09798201669764E-06,1.23046875,0,0
-2.49821059696842E-05,-1.19079379601317E-06,1.23046875,0,0
-2.40938952629222E-05,-5.3915505304758E-06,1.23046875,0,0
-2.41754842136288E-05,-3.05842490888608E-06,1.23046875,0,0
-2.09863483178196E-05,8.46366674522869E-07,1.23046875,0,0
-2.0397934349603E-05,3.6818837543251E-06,1.23046875,0,0
-1.9876099031535E-05,4.15431213696138E-06,1.23046875,0,0
-2.09569752769312E-05,3.81634936275077E-06,1.23046875,0,0
-2.15300588024547E-05,2.51796609518351E-06,1.23046875,0,0
-2.36267387663247E-05,2.9855268621759E-06,1.23046875,0,0
-2.42030455410713E-05,3.61382262781262E-06,1.23046875,0,0
-2.49990771408193E-05,4.05733408115339E-06,1.23046875,0,0
-2.44368857238442E-05,5.32940021003014E-06,1.23046875,0,0
-2.42154310399201E-05,6.58304679745925E-06,1.23046875,0,0
-1.91993603948504E-05,4.50510833616136E-06,1.23046875,0,0
-2.62318371824222E-05,5.58541933060042E-06,1.23046875,0,0
-1.93966170627391E-05,1.20167703698826E-06,1.23046875,0,0
-2.4996272259159E-05,4.53642996944836E-06,1.23046875,0,0
-2.06648437597323E-05,8.44698297441937E-06,1.23046875,0,0
-2.36531923292205E-05,3.2918976557994E-06,1.23046875,0,0
-2.21374029933941E-05,-1.9492759406603E-08,1.23046875,0,0
-2.35425286518876E-05,4.90644788442296E-06,1.23046875,0,0
-2.25116091314703E-05,4.48100718131172E-06,1.23046875,0,0
-2.21503451030003E-05,7.31981072021881E-06,1.23046875,0,0
-2.24746763706207E-05,1.29728960018838E-05,1.23046875,0,0
-2.26250158448238E-05,1.20563272503205E-05,1.23046875,0,0
-2.34312119573588E-05,1.37370652737445E-05,1.23046875,0,0
-2.1306004782673E-05,2.11332608159864E-05,1.23046875,0,0
-2.25013645831496E-05,2.33053997362731E-05,1.23046875,0,0
-2.34614362852881E-05,1.85084973054472E-05,1.23046875,0,0
-2.66736296907766E-05,1.59089104272425E-05,1.23046875,0,0
-2.70065156655619E-05,1.63103795784991E-05,1.23046875,0,0
-2.91439209831879E-05,1.84877735591726E-05,1.23046875,0,0
-2.93256689474219E-05,1.96675719053019E-05,1.23046875,0,0
-3.02298685710412E-05,1.91316630662186E-05,1.23046875,0,0
-2.85103433270706E-05,1.76990215550177E-05,1.23046875,0,0
-2.65964608843206E-05,1.82906223926693E-05,1.23046875,0,0
-2.40913213929161E-05,2.02269202418393E-05,1.23046875,0,0
-2.50766443059547E-05,2.08375586225884E-05,1.23046875,0,0
-2.73085643129889E-05,2.04890111490386E-05,1.23046875,0,0
-2.9443044695654E-05,2.06102340598591E-05,1.23046875,0,0
-2.53221096500056E-05,1.50879450302455E-05,1.23046875,0,0
-3.58625547960401E-05,2.01899929379579E-05,1.23046875,0,0
-2.62304311036132E-05,8.8698561739875E-06,1.23046875,0,0
-3.20003528031521E-05,1.03624079201836E-05,1.23046875,0,0
-2.68977692030603E-05,9.13944222702412E-06,1.23046875,0,0
-3.03309152513975E-05,3.41806889991858E-06,1.23046875,0,0
-2.70465534413233E-05,-2.91950732389523E-06,1.23046875,0,0
-2.81939319393132E-05,2.49988443101756E-06,1.23046875,0,0
-2.73494169960031E-05,1.81538337074016E-06,1.23046875,0,0
-2.66753049800172E-05,1.17698152735102E-06,1.23046875,0,0
-2.66592123807641E-05,1.18861021292105E-06,1.23046875,0,0
-2.65327962551964E-05,-3.07776576846663E-06,1.23046875,0,0
-2.82138171314728E-05,-1.52453060309199E-06,1.23046875,0,0
-2.65161870629527E-05,5.72533372178441E-06,1.23046875,0,0
-2.64603295363486E-05,1.14708036562661E-05,1.23046875,0,0
-2.34641847782768E-05,1.04125156212831E-05,1.23046875,0,0
-2.45259525399888E-05,1.04669579741312E-05,1.23046875,0,0
-2.35090865317034E-05,1.04626424217713E-05,1.23046875,0,0
-2.39525033975951E-05,1.27337707453989E-05,1.23046875,0,0
-2.20957554120105E-05,1.39825442602159E-05,1.23046875,0,0
-2.31187914323527E-05,1.69800186995417E-05,1.23046875,0,0
-2.30429959628964E-05,2.03215349756647E-05,1.23046875,0,0
-2.45604114752496E-05,2.19299527088879E-05,1.23046875,0,0
-2.47364587266929E-05,1.76872235897463E-05,1.23046875,0,0
-2.41476191149559E-05,1.53508917719591E-05,1.23046875,0,0
-2.31466092373012E-05,1.5595018339809E-05,1.23046875,0,0
-2.29733377636876E-05,1.23257705126889E-05,1.23046875,0,0
-1.81334871740546E-05,4.79154186905362E-06,1.23046875,0,0
-2.62391076830681E-05,8.32944988360396E-06,1.23046875,0,0
-2.15410327655263E-05,1.01269497463363E-05,1.23046875,0,0
-2.65711641986854E-05,1.81240920937853E-05,1.23046875,0,0
-2.17550677916734E-05,1.92777406482492E-05,1.23046875,0,0
-2.42596779571613E-05,8.66692516865442E-06,1.23046875,0,0
-2.31165176955983E-05,1.14050010324718E-06,1.23046875,0,0
-2.31747744692257E-05,3.32138120029413E-06,1.23046875,0,0
-2.00985596165992E-05,3.50316099684278E-06,1.23046875,0,0
-1.89242273336276E-05,5.74282103116275E-06,1.23046875,0,0
-2.06051445275079E-05,8.52946413942846E-06,1.23046875,0,0
-2.19960638787597E-05,4.74668377137277E-06,1.23046875,0,0
-2.35598236031365E-05,1.66584334237996E-06,1.23046875,0,0
-2.25111089093843E-05,3.13941700369469E-06,1.23046875,0,0
-2.32571692322381E-05,1.77664003331302E-06,1.23046875,0,0
-2.31280700973002E-05,-2.96479061034916E-06,1.23046875,0,0
-2.50137090915814E-05,-2.14564329326095E-06,1.23046875,0,0
-2.4593038688181E-05,3.27778207065421E-06,1.23046875,0,0
-2.66280003415886E-05,6.34660909781815E-06,1.23046875,0,0
-2.73149198619649E-05,6.87211058902903E-06,1.23046875,0,0
-2.83961762761464E-05,1.11142480818671E-05,1.23046875,0,0
-2.68698458967265E-05,1.55834768520435E-05,1.23046875,0,0
-2.59982552961446E-05,1.52365828398615E-05,1.23046875,0,0
-2.45219252974493E-05,1.14777803901234E-05,1.23046875,0,0
-2.43060403590789E-05,1.0621064575389E-05,1.23046875,0,0
-2.44143120653462E-05,1.27214525491581E-05,1.23046875,0,0
-2.45413157244911E-05,1.32341001517489E-05,1.23046875,0,0
-1.97364843188552E-05,1.22474439194775E-05,1.23046875,0,0
-2.80651911452878E-05,2.16293392441003E-05,1.23046875,0,0
-2.34048166021239E-05,1.82388557732338E-05,1.23046875,0,0
-3.08578455587849E-05,2.13233579415828E-05,1.23046875,0,0
-2.66904971795157E-05,2.15684176509967E-05,1.23046875,0,0
-2.91488649963867E-05,1.38224841066403E-05,1.23046875,0,0
-2.59885364357615E-05,7.89788555266568E-06,1.23046875,0,0
-2.60301621892722E-05,1.47797263707616E-05,1.23046875,0,0
-2.5093913791352E-05,1.68656661116984E-05,1.23046875,0,0
-2.54768310696818E-05,1.69781105796574E-05,1.23046875,0,0
-2.532816506573E-05,1.73060743691167E-05,1.23046875,0,0
-2.35252318816492E-05,1.31315864564385E-05,1.23046875,0,0
-2.4119952286128E-05,1.0605224815663E-05,1.23046875,0,0
-2.40281933656661E-05,1.08086833279231E-05,1.23046875,0,0
-2.65543349087238E-05,8.16840565676102E-06,1.23046875,0,0
-2.63067922787741E-05,3.49897959495138E-06,1.23046875,0,0
-2.69377160293516E-05,5.52458050151472E-06,1.23046875,0,0
-2.44806160480948E-05,9.37746335694101E-06,1.23046875,0,0
-2.35134848480811E-05,1.19110291052493E-05,1.23046875,0,0
-2.15427226066822E-05,1.11529625428375E-05,1.23046875,0,0
-2.26168449444231E-05,1.02342628451879E-05,1.23046875,0,0
-2.15716536331456E-05,1.03853544715093E-05,1.23046875,0,0
-1.94349413504824E-05,1.34193423946272E-05,1.23046875,0,0
-1.58846705744509E-05,1.5107924809854E-05,1.23046875,0,0
-1.50068835864658E-05,1.489452097303E-05,1.23046875,0,0
-1.50686691995361E-05,1.3166555618227E-05,1.23046875,0,0
-1.49428469740087E-05,1.33089097289485E-05,1.23046875,0,0
-1.35164009407163E-05,1.07411360659171E-05,1.23046875,0,0
-2.01705024664989E-05,1.38559817060013E-05,1.23046875,0,0
-1.59153787535615E-05,6.75333012623014E-06,1.23046875,0,0
-1.89563743333565E-05,1.41871214509592E-05,1.23046875,0,0
-1.79231283254921E-05,1.95686479855794E-05,1.23046875,0,0
-2.06704371521482E-05,1.50943542394089E-05,1.23046875,0,0
-1.83806332643144E-05,9.65055733104236E-06,1.23046875,0,0
-1.75576478795847E-05,1.45013627843582E-05,1.23046875,0,0
-1.68716615007725E-05,1.37520582939032E-05,1.23046875,0,0
-1.80971110239625E-05,1.52155798787135E-05,1.23046875,0,0
-2.04697134904563E-05,1.97165227291407E-05,1.23046875,0,0
-2.15076179301832E-05,1.78484660864342E-05,1.23046875,0,0
-2.18976438191021E-05,1.61114749062108E-05,1.23046875,0,0
-2.07518223760417E-05,1.78550053533399E-05,1.23046875,0,0
-2.18526129174279E-05,1.80565730261151E-05,1.23046875,0,0
-2.27954024012433E-05,1.19424976219307E-05,1.23046875,0,0
-2.57274241448613E-05,6.88083400746109E-06,1.23046875,0,0
-2.72022753051715E-05,3.90636387237464E-06,1.23046875,0,0
-2.88185146928299E-05,5.29758654010948E-06,1.23046875,0,0
-2.72146990027977E-05,6.00020484853303E-06,1.23046875,0,0
-2.56930688919965E-05,6.02854061071412E-06,1.23046875,0,0
-2.40497302002041E-05,5.1501647249097E-06,1.23046875,0,0
-2.36218093050411E-05,5.64958372706315E-06,1.23046875,0,0
-2.38418142544106E-05,8.01479473011568E-06,1.23046875,0,0
-2.46551644522697E-05,1.15871462185169E-05,1.23046875,0,0
-2.50236080319155E-05,1.12550433186698E-05,1.23046875,0,0
-2.51206583925523E-05,6.45701811663457E-06,1.23046875,0,0
-2.05570322577842E-05,2.47065850089712E-06,1.23046875,0,0
-3.00104020425351E-05,7.27996211935533E-06,1.23046875,0,0
-2.21505270019406E-05,9.46918862609891E-06,1.23046875,0,0
-2.5275765437982E-05,1.17113022497506E-05,1.23046875,0,0
-2.04418702196563E-05,1.36556454890524E-05,1.23046875,0,0
-2.38381362578366E-05,6.50715082883835E-06,1.23046875,0,0
-2.22051457967609E-05,3.6983251447964E-06,1.23046875,0,0
-2.19627327169292E-05,8.588632226747E-06,1.23046875,0,0
-2.04047373699723E-05,7.14401357981842E-06,1.23046875,0,0
-2.08079891308444E-05,8.0982699728338E-06,1.23046875,0,0
-2.1299554646248E-05,1.03901156762731E-05,1.23046875,0,0
-2.02095543500036E-05,8.11286736279726E-06,1.23046875,0,0
-2.05841588467592E-05,9.92733657767531E-06,1.23046875,0,0
-2.0139770640526E-05,1.91341623576591E-05,1.23046875,0,0
-2.20905749301892E-05,2.40400440816302E-05,1.23046875,0,0
-2.18821824091719E-05,2.06757576961536E-05,1.23046875,0,0
-2.3521237380919E-05,1.59988812811207E-05,1.23046875,0,0
-2.17428514588391E-05,1.37166298372904E-05,1.23046875,0,0
-2.10806665563723E-05,1.48179442476248E-05,1.23046875,0,0
-2.02022274606861E-05,1.8019827621174E-05,1.23046875,0,0
-2.19698376895394E-05,2.11723381653428E-05,1.23046875,0,0
-2.19384819502011E-05,2.05166379600996E-05,1.23046875,0,0
-2.33626724366331E-05,1.60259169206256E-05,1.23046875,0,0
-2.48309079324827E-05,1.11999897853821E-05,1.23046875,0,0
-2.58253221545601E-05,8.07712331152288E-06,1.23046875,0,0
-2.48791311605601E-05,6.4152750383073E-06,1.23046875,0,0
-2.53615107794758E-05,5.45528791917604E-06,1.23046875,0,0
-2.30115510930773E-05,9.45691169818019E-07,1.23046875,0,0
-3.40150945703499E-05,-2.31928925131797E-06,1.23046875,0,0
-2.73456207651179E-05,-8.11701102065854E-06,1.23046875,0,0
-3.33935859089252E-05,-5.88600960327312E-06,1.23046875,0,0
-2.89985782728763E-05,-3.51675839738164E-06,1.23046875,0,0
-3.22175510518719E-05,-7.73642750573345E-06,1.23046875,0,0
-2.96980051643914E-05,-5.67919141758466E-06,1.23046875,0,0
-3.09249917336274E-05,2.17855381379195E-06,1.23046875,0,0
-3.15767574647907E-05,1.05552044260548E-06,1.23046875,0,0
-3.31847986672074E-05,1.48063736560289E-06,1.23046875,0,0
-3.36617631546687E-05,7.19195941201178E-06,1.23046875,0,0
-3.1340492569143E-05,7.19111267244443E-06,1.23046875,0,0
-3.04181285173399E-05,6.63671244183206E-06,1.23046875,0,0
-2.92368658847408E-05,9.27453493204666E-06,1.23046875,0,0
-3.10293544316664E-05,7.31608861315181E-06,1.23046875,0,0
-2.89225044980412E-05,3.78879963136569E-06,1.23046875,0,0
-2.74868471024092E-05,7.07010349287884E-06,1.23046875,0,0
-2.41083707805956E-05,1.32523664433393E-05,1.23046875,0,0
-2.41592970269267E-05,1.47865675899084E-05,1.23046875,0,0
-2.3405258616549E-05,1.15851507871412E-05,1.23046875,0,0
-2.54075948760146E-05,9.79812375589972E-06,1.23046875,0,0
-2.52849404205335E-05,1.06965790109825E-05,1.23046875,0,0
-2.50160392170073E-05,1.19462511065649E-05,1.23046875,0,0
-2.29829111049185E-05,1.26565382743138E-05,1.23046875,0,0
-2.16167918551946E-05,1.4725288565387E-05,1.23046875,0,0
-2.10130037885392E-05,1.86666438821703E-05,1.23046875,0,0
-2.18032819248037E-05,2.11484566534637E-05,1.23046875,0,0
-1.7850601579994E-05,1.42463723022956E-05,1.23046875,0,0
-2.5335886675748E-05,1.61610259965528E-05,1.23046875,0,0
-1.98409416043432E-05,5.7856077546603E-06,1.23046875,0,0
-2.38192351389444E-05,1.16792080007144E-05,1.23046875,0,0
-1.81799023266649E-05,1.0600613677525E-05,1.23046875,0,0
-1.93453488464002E-05,6.53691358820652E-06,1.23046875,0,0
-1.92228635569336E-05,2.07752941605577E-06,1.23046875,0,0
-2.4469212803524E-05,6.00627799940412E-06,1.23046875,0,0
-2.55943759839283E-05,1.71567751294788E-06,1.23046875,0,0
-2.43296817643568E-05,1.40050190111651E-06,1.23046875,0,0
-2.28464996325783E-05,9.02469128050143E-06,1.23046875,0,0
-2.31844296649797E-05,1.04175605883938E-05,1.23046875,0,0
-2.50725115620298E-05,9.10328981262865E-06,1.23046875,0,0
-2.34405088122003E-05,1.06838760984829E-05,1.23046875,0,0
-2.18860259337816E-05,1.29793033920578E-05,1.23046875,0,0
-1.85327371582389E-05,9.23405968933366E-06,1.23046875,0,0
-1.94047079276061E-05,7.42793918107054E-06,1.23046875,0,0
-1.90660121006658E-05,7.44428461985081E-06,1.23046875,0,0
-1.92541156138759E-05,1.06038132798858E-05,1.23046875,0,0
-1.72734780790051E-05,1.11483705040882E-05,1.23046875,0,0
-1.80669794644928E-05,1.16135452117305E-05,1.23046875,0,0
-1.79211674549151E-05,1.16993824121892E-05,1.23046875,0,0
-1.80903098225826E-05,1.4629778888775E-05,1.23046875,0,0
-1.70315979630686E-05,1.55387369886739E-05,1.23046875,0,0
-1.84084055945277E-05,1.52423044710304E-05,1.23046875,0,0
-2.09275440283818E-05,1.60171985044144E-05,1.23046875,0,0
-2.20331858145073E-05,1.91387935046805E-05,1.23046875,0,0
-1.7031770767062E-05,1.7965759980143E-05,1.23046875,0,0
-2.47031093749683E-05,2.64693862845888E-05,1.23046875,0,0
-2.09823829209199E-05,1.62448977789609E-05,1.23046875,0,0
-2.69065003521973E-05,1.72806721820962E-05,1.23046875,0,0
-2.27936507144477E-05,1.36163153001689E-05,1.23046875,0,0
-2.47556799877202E-05,1.01964396890253E-05,1.23046875,0,0
-2.3224611140904E-05,8.26277755550109E-06,1.23046875,0,0
-2.49925888056168E-05,1.41139307743288E-05,1.23046875,0,0
-2.57057618000545E-05,1.07236410258338E-05,1.23046875,0,0
-2.7038488042308E-05,7.48166394259897E-06,1.23046875,0,0
-2.79427567875246E-05,9.57027805270627E-06,1.23046875,0,0
-2.63731708400883E-05,8.66891332407249E-06,1.23046875,0,0
-2.53161779255606E-05,8.21498815639643E-06,1.23046875,0,0
-2.39136843447341E-05,8.47767842060421E-06,1.23046875,0,0
-2.57554347626865E-05,8.26941777631873E-06,1.23046875,0,0
-2.54729220614536E-05,4.10955544793978E-06,1.23046875,0,0
-2.6595876988722E-05,3.85305565941962E-06,1.23046875,0,0
-2.6718355002231E-05,4.99982161272783E-06,1.23046875,0,0
-2.88690753222909E-05,8.96244000614388E-06,1.23046875,0,0
-2.84627440123586E-05,1.09256452560658E-05,1.23046875,0,0
-2.80431213468546E-05,1.12861080197035E-05,1.23046875,0,0
-2.62237881543115E-05,8.67229391587898E-06,1.23046875,0,0
-2.65952585323248E-05,8.49553089210531E-06,1.23046875,0,0
-2.71409826382296E-05,9.89784348348621E-06,1.23046875,0,0
-2.71404369414086E-05,1.16067994895275E-05,1.23046875,0,0
-2.65283779299352E-05,1.29359559650766E-05,1.23046875,0,0
-2.69215652224375E-05,1.64573830261361E-05,1.23046875,0,0
-2.2325961253955E-05,1.83822921826504E-05,1.23046875,0,0
-3.21332263411023E-05,2.63809306488838E-05,1.23046875,0,0
-2.43789654632565E-05,1.62534288392635E-05,1.23046875,0,0
-2.91429805656662E-05,2.0979061446269E-05,1.23046875,0,0
-2.43843533098698E-05,2.02808569156332E-05,1.23046875,0,0
-2.88673254544847E-05,1.42000544656185E-05,1.23046875,0,0
-2.78910156339407E-05,6.06625599175459E-06,1.23046875,0,0
-2.97275200864533E-05,6.1690384427493E-06,1.23046875,0,0
-2.74899812211515E-05,2.40542863139126E-06,1.23046875,0,0
-2.4743860194576E-05,7.41425856176647E-06,1.23046875,0,0
-2.4652150386828E-05,1.7102272977354E-05,1.23046875,0,0
-2.52437002927763E-05,1.67369671544293E-05,1.23046875,0,0
-2.65131038759137E-05,1.63916774909012E-05,1.23046875,0,0
-2.39898163272301E-05,1.76803150679916E-05,1.23046875,0,0
-2.39196870097658E-05,1.48210956467665E-05,1.23046875,0,0
-2.23973365791608E-05,6.19531920165173E-06,1.23046875,0,0
-2.31218600674765E-05,6.32266710454132E-06,1.23046875,0,0
-2.10373746085679E-05,8.77955699252198E-06,1.23046875,0,0
-2.19659814320039E-05,6.86031125951558E-06,1.23046875,0,0
-2.23207080125576E-05,2.83111461385488E-07,1.23046875,0,0
-2.41667657974176E-05,-3.55849294919608E-07,1.23046875,0,0
-2.35668703680858E-05,3.02288253806182E-06,1.23046875,0,0
-2.33474438573467E-05,6.37912989986944E-06,1.23046875,0,0
-2.32547718042042E-05,5.51012180949328E-06,1.23046875,0,0
-2.47771513386397E-05,4.37947528553195E-06,1.23046875,0,0
-2.44862239924259E-05,6.76544004818425E-06,1.23046875,0,0
-2.23883744183695E-05,8.28878637548769E-06,1.23046875,0,0
-1.49927882375778E-05,4.54265682492405E-06,1.23046875,0,0
-2.21953760046745E-05,6.46964417683193E-06,1.23046875,0,0
-1.92123516171705E-05,5.73577563045546E-06,1.23046875,0,0
-2.36912474065321E-05,1.26979030028451E-05,1.23046875,0,0
-2.05319047381636E-05,1.66881582117639E-05,1.23046875,0,0
-2.24541709030746E-05,1.20179347504745E-05,1.23046875,0,0
-1.95441753021441E-05,1.0920289241767E-05,1.23046875,0,0
-1.90468927030452E-05,1.55539273691829E-05,1.23046875,0,0
-1.75230234162882E-05,1.36309035951854E-05,1.23046875,0,0
-1.81024133780738E-05,1.40090032800799E-05,1.23046875,0,0
-1.87148070835974E-05,1.75876994035207E-05,1.23046875,0,0
-1.87646146514453E-05,1.48931676449138E-05,1.23046875,0,0
-2.02106930373702E-05,1.1246354006289E-05,1.23046875,0,0
-1.96899127331562E-05,1.09821658043074E-05,1.23046875,0,0
-1.99148416868411E-05,9.93526373349596E-06,1.23046875,0,0
-1.84253040060867E-05,8.46301372803282E-06,1.23046875,0,0
-1.97220761037897E-05,1.07746454887092E-05,1.23046875,0,0
-2.10594698728528E-05,1.38371615321375E-05,1.23046875,0,0
-2.3968761524884E-05,1.5645880921511E-05,1.23046875,0,0
-2.34276849369053E-05,1.42880653584143E-05,1.23046875,0,0
-2.33623140957206E-05,1.09654465632048E-05,1.23046875,0,0
-2.25178755499655E-05,9.009749192046E-06,1.23046875,0,0
-2.22242506424664E-05,1.004593923426E-05,1.23046875,0,0
-2.09899371839128E-05,1.11527788249077E-05,1.23046875,0,0
-2.03627314476762E-05,1.16281753435032E-05,1.23046875,0,0
-2.09395748242969E-05,1.28515539472573E-05,1.23046875,0,0
-2.35135357797844E-05,1.40194333653199E-05,1.23046875,0,0
-1.97339268197538E-05,8.833228093863E-06,1.23046875,0,0
-2.58305371971801E-05,1.18089892566786E-05,1.23046875,0,0
-1.64907705766382E-05,7.15424584996072E-06,1.23046875,0,0
-2.23539227590663E-05,1.17226554721128E-05,1.23046875,0,0
-2.03235540539026E-05,1.32960849441588E-05,1.23046875,0,0
-2.46937433985295E-05,8.77558613865403E-06,1.23046875,0,0
-2.26342090172693E-05,4.09598533224198E-06,1.23046875,0,0
-2.36623909586342E-05,9.5411569418502E-06,1.23046875,0,0
-2.43566228164127E-05,9.75653620116645E-06,1.23046875,0,0
-2.65513535850914E-05,1.1821711268567E-05,1.23046875,0,0
-2.75994625553722E-05,1.40061010824866E-05,1.23046875,0,0
-2.68990133918123E-05,7.77008153818315E-06,1.23046875,0,0
-2.766595207504E-05,5.98676797380904E-06,1.23046875,0,0
-2.65852431766689E-05,1.40597721838276E-05,1.23046875,0,0
-2.71962835540762E-05,2.14612318814034E-05,1.23046875,0,0
-2.51063447649358E-05,1.89659003808629E-05,1.23046875,0,0
-2.5857139917207E-05,1.56721434905194E-05,1.23046875,0,0
-2.55286740866723E-05,1.64334778673947E-05,1.23046875,0,0
-2.68782678176649E-05,2.08615419978742E-05,1.23046875,0,0
-2.51863311859779E-05,2.10216130653862E-05,1.23046875,0,0
-2.55651139013935E-05,1.71154206327628E-05,1.23046875,0,0
-2.55769027717179E-05,1.19983351396513E-05,1.23046875,0,0
-2.56336388702039E-05,9.28531972022029E-06,1.23046875,0,0
-2.3028123905533E-05,8.66564187163021E-06,1.23046875,0,0
-2.16712251130957E-05,1.31915830934304E-05,1.23046875,0,0
-2.19599187403219E-05,1.85353619599482E-05,1.23046875,0,0
-2.37536605709465E-05,2.01860602828674E-05,1.23046875,0,0
-2.04335356102092E-05,1.23645077110268E-05,1.23046875,0,0
-2.8357260816847E-05,1.17188355943654E-05,1.23046875,0,0
-2.09291065402795E-05,1.00864212981833E-06,1.23046875,0,0
-2.78554725809954E-05,9.31469548959285E-06,1.23046875,0,0
-2.62037483480526E-05,8.98861799214501E-06,1.23046875,0,0
-3.10950053972192E-05,1.86254510481376E-06,1.23046875,0,0
-2.97645656246459E-05,-3.47355103258451E-06,1.23046875,0,0
-2.84115412796382E-05,1.05243827874801E-06,1.23046875,0,0
-2.45364826696459E-05,9.43598024605308E-07,1.23046875,0,0
-2.41651941905729E-05,2.64108507508354E-06,1.23046875,0,0
-2.52734880632488E-05,3.04589025290625E-06,1.23046875,0,0
-2.51496967393905E-05,-5.77128002987592E-06,1.23046875,0,0
-2.56743460340658E-05,-1.07899268186884E-05,1.23046875,0,0
-2.37457352341153E-05,-6.50189986117766E-06,1.23046875,0,0
-2.38127086049644E-05,-1.43338979796681E-07,1.23046875,0,0
-2.17170982068637E-05,-3.099744390056E-07,1.23046875,0,0
-2.18097266042605E-05,1.09500047074107E-06,1.23046875,0,0
-2.03854779101675E-05,5.55272117708228E-06,1.23046875,0,0
-2.15447689697612E-05,1.15037901196047E-05,1.23046875,0,0
-2.16350053960923E-05,1.06216875792597E-05,1.23046875,0,0
-2.38802367675817E-05,7.99498320702696E-06,1.23046875,0,0
-2.31015037570614E-05,6.81360688759014E-06,1.23046875,0,0
-2.26939318963559E-05,9.81667199084768E-06,1.23046875,0,0
-2.31220219575334E-05,1.49363922901102E-05,1.23046875,0,0
-2.61631521425443E-05,1.9839682863676E-05,1.23046875,0,0
-2.73096848104615E-05,2.08525652851677E-05,1.23046875,0,0
-2.69069660134846E-05,2.03093259187881E-05,1.23046875,0,0
-2.11001843126724E-05,1.86571996891871E-05,1.23046875,0,0
-2.96042053378187E-05,2.72916204266949E-05,1.23046875,0,0
-2.22834078158485E-05,2.03510790015571E-05,1.23046875,0,0
-2.7646876333165E-05,2.58625332207885E-05,1.23046875,0,0
-2.26217525778338E-05,2.18177428905619E-05,1.23046875,0,0
-2.57521132880356E-05,1.69007562362822E-05,1.23046875,0,0
-2.39890614466276E-05,1.25716114780516E-05,1.23046875,0,0
-2.57125811913284E-05,1.61202679009875E-05,1.23046875,0,0
-2.55624618148431E-05,1.24327752928366E-05,1.23046875,0,0
-2.58818017755402E-05,1.02705143945059E-05,1.23046875,0,0
-2.5824758267845E-05,1.22576420835685E-05,1.23046875,0,0
-2.42220157815609E-05,1.11155723061529E-05,1.23046875,0,0
-2.34752260439564E-05,1.22823994388455E-05,1.23046875,0,0
-2.18694094655802E-05,1.32057330120006E-05,1.23046875,0,0
-2.42171590798534E-05,1.06817824416794E-05,1.23046875,0,0
-2.42443256865954E-05,3.18278443955933E-06,1.23046875,0,0
-2.59153093793429E-05,2.06275262826239E-06,1.23046875,0,0
-2.52223289862741E-05,2.80307085631648E-06,1.23046875,0,0
-2.65474864136195E-05,5.22187656315509E-06,1.23046875,0,0
-2.57860592682846E-05,6.48923742119223E-06,1.23046875,0,0
-2.6567646273179E-05,1.00535316960304E-05,1.23046875,0,0
-2.53059570241021E-05,1.28047258840525E-05,1.23046875,0,0
-2.52298123086803E-05,1.62775722856168E-05,1.23046875,0,0
-2.55508766713319E-05,1.75508685060777E-05,1.23046875,0,0
-2.71491226158105E-05,1.83435859071324E-05,1.23046875,0,0
-2.81519860436674E-05,2.16797161556315E-05,1.23046875,0,0
-2.96785528917098E-05,2.62203120655613E-05,1.23046875,0,0
-2.30049881793093E-05,2.15065920201596E-05,1.23046875,0,0
-3.08684902847745E-05,2.6501913453103E-05,1.23046875,0,0
-2.1107904103701E-05,1.27025068650255E-05,1.23046875,0,0
-2.61448385572294E-05,1.93277537618997E-05,1.23046875,0,0
-1.96248911379371E-05,1.82717431016499E-05,1.23046875,0,0
-2.21694590436528E-05,1.70081311807735E-05,1.23046875,0,0
-1.95976572285872E-05,1.24650614452548E-05,1.23046875,0,0
-2.131720611942E-05,1.69653339980869E-05,1.23046875,0,0
-2.03171330213081E-05,1.48485942190746E-05,1.23046875,0,0
-1.97580684471177E-05,1.52634656842565E-05,1.23046875,0,0
-1.89707880053902E-05,1.72471409314312E-05,1.23046875,0,0
-1.73235475813271E-05,1.16635628728545E-05,1.23046875,0,0
-1.88806880032644E-05,8.5410792962648E-06,1.23046875,0,0
-1.92776824405883E-05,7.67726032790961E-06,1.23046875,0,0
-2.1954334442853E-05,3.79323478227889E-06,1.23046875,0,0
-2.1091807866469E-05,-6.78953301758156E-06,1.23046875,0,0
-2.17454435187392E-05,-8.24594826553948E-06,1.23046875,0,0
-1.93507275980664E-05,-5.03679302710225E-06,1.23046875,0,0
-2.04565931198886E-05,-6.18144156305789E-07,1.23046875,0,0
-2.0569057596731E-05,-2.30739146900305E-06,1.23046875,0,0
-2.25083203986287E-05,-2.69129736807372E-06,1.23046875,0,0
-2.24061259359587E-05,-1.82870371645549E-06,1.23046875,0,0
-2.29077631956898E-05,3.34052401740337E-07,1.23046875,0,0
-2.3096268705558E-05,-2.00163117369812E-06,1.23046875,0,0
-2.51442415901693E-05,-4.39779387306771E-06,1.23046875,0,0
-2.55421200563433E-05,-4.97766404805589E-06,1.23046875,0,0
-2.5139683202724E-05,-1.85641204097919E-06,1.23046875,0,0
-2.09891550184693E-05,4.28512566941208E-06,1.23046875,0,0
-2.95146328426199E-05,9.48263277678052E-06,1.23046875,0,0
-2.10903617698932E-05,8.14791019365657E-06,1.23046875,0,0
-2.61834775301395E-05,9.64791979640722E-06,1.23046875,0,0
-2.35352854360826E-05,1.55210909724701E-05,1.23046875,0,0
-2.81036736851092E-05,1.5883602827671E-05,1.23046875,0,0
-2.72815887001343E-05,1.94496824406087E-05,1.23046875,0,0
-2.81085267488379E-05,2.48077085416298E-05,1.23046875,0,0
-2.55185495916521E-05,2.2954687665333E-05,1.23046875,0,0
-2.39833098021336E-05,2.27197724598227E-05,1.23046875,0,0
-2.37652639043517E-05,2.39868768403539E-05,1.23046875,0,0
-2.25189432967454E-05,1.93155847227899E-05,1.23046875,0,0
-2.30498935707146E-05,1.66922181961127E-05,1.23046875,0,0
-2.24777140829246E-05,2.03373729164014E-05,1.23046875,0,0
-2.42464411712717E-05,2.11656006285921E-05,1.23046875,0,0
-2.30143086810131E-05,1.89101938303793E-05,1.23046875,0,0
-2.31896592595149E-05,1.87160912901163E-05,1.23046875,0,0
-2.19025805563433E-05,1.98870511667337E-05,1.23046875,0,0
-2.37642398133175E-05,2.04539410333382E-05,1.23046875,0,0
-2.37206531892298E-05,1.93367177416803E-05,1.23046875,0,0
-2.35751031141263E-05,1.73676635313313E-05,1.23046875,0,0
-2.05287069547921E-05,1.73386724782176E-05,1.23046875,0,0
-1.86569304787554E-05,1.80817223736085E-05,1.23046875,0,0
-1.8124437701772E-05,1.46832026075572E-05,1.23046875,0,0
-2.02521696337499E-05,9.17903071240289E-06,1.23046875,0,0
-2.09794761758531E-05,5.64084712095791E-06,1.23046875,0,0
-2.03406434593489E-05,4.41140218754299E-06,1.23046875,0,0
-1.64969933393877E-05,3.12610859509732E-06,1.23046875,0,0
-2.44448765442939E-05,4.98268127557822E-06,1.23046875,0,0
-2.07865123229567E-05,1.87169234777684E-06,1.23046875,0,0
-2.61956065514823E-05,2.64823211182375E-06,1.23046875,0,0
-2.24498144234531E-05,4.14285341321374E-06,1.23046875,0,0
-2.36881969613023E-05,-3.25893483932305E-06,1.23046875,0,0
-2.1543311959249E-05,-8.3939548858325E-06,1.23046875,0,0
-2.18952336581424E-05,-2.83470967588073E-06,1.23046875,0,0
-2.16640110011213E-05,-4.91866956053855E-07,1.23046875,0,0
-2.27852397074457E-05,1.73741739217803E-06,1.23046875,0,0
-2.41373509197729E-05,5.45276179764187E-06,1.23046875,0,0
-2.47955813392764E-05,4.90198726765811E-06,1.23046875,0,0
-2.60507567872992E-05,5.07527056470281E-06,1.23046875,0,0
-2.48415763053345E-05,7.42797874409007E-06,1.23046875,0,0
-2.4857945390977E-05,4.74007447337499E-06,1.23046875,0,0
-2.3815073291189E-05,-1.42835881433712E-06,1.23046875,0,0
-2.545497045503E-05,-1.54111580741301E-06,1.23046875,0,0
-2.54723854595795E-05,3.89653450838523E-06,1.23046875,0,0
-2.59344087680802E-05,8.18992884887848E-06,1.23046875,0,0
-2.38942484429572E-05,8.86312227521557E-06,1.23046875,0,0
-2.33433001994854E-05,8.17747059045359E-06,1.23046875,0,0
-2.18793902604375E-05,6.0146790019644E-06,1.23046875,0,0
-2.13791045098333E-05,4.53492566521163E-06,1.23046875,0,0
-2.13348230317933E-05,4.74788566862117E-06,1.23046875,0,0
-2.15913005376933E-05,5.12401720698108E-06,1.23046875,0,0
-2.02412320504664E-05,4.97840437674313E-06,1.23046875,0,0
-2.06194708880503E-05,5.22433629157604E-06,1.23046875,0,0
-1.94700496649602E-05,7.08989455233677E-06,1.23046875,0,0
-2.89851686829934E-05,1.49165634866222E-05,1.23046875,0,0
-2.17379747482482E-05,1.24665730254492E-05,1.23046875,0,0
-2.35514798987424E-05,1.11955951069831E-05,1.23046875,0,0
-1.89677666639909E-05,1.043988049787E-05,1.23046875,0,0
-2.29801680688979E-05,1.30881267068617E-06,1.23046875,0,0
-2.22976650547935E-05,-4.53378879683441E-06,1.23046875,0,0
-2.39623150264379E-05,-1.39813766963925E-06,1.23046875,0,0
-2.37202402786352E-05,-1.55822453962173E-06,1.23046875,0,0
-2.44947295868769E-05,2.85256464849226E-06,1.23046875,0,0
-2.59554053627653E-05,1.01437035482377E-05,1.23046875,0,0
-2.58525687968358E-05,1.10645769382245E-05,1.23046875,0,0
-2.52216323133325E-05,1.14355088953744E-05,1.23046875,0,0
-2.15810086956481E-05,1.36470744109829E-05,1.23046875,0,0
-2.06474032893311E-05,1.26255863506231E-05,1.23046875,0,0
-1.99545938812662E-05,9.46686031966237E-06,1.23046875,0,0
-2.2641144823865E-05,1.02966332633514E-05,1.23046875,0,0
-2.24332270590821E-05,1.27022121887421E-05,1.23046875,0,0
-2.21051432163222E-05,1.40803722388227E-05,1.23046875,0,0
-2.00539107026998E-05,1.41896780405659E-05,1.23046875,0,0
-2.08856417884817E-05,1.42271119329962E-05,1.23046875,0,0
-2.19121502595954E-05,1.33641096908832E-05,1.23046875,0,0
-2.33790869970107E-05,1.19036485557444E-05,1.23046875,0,0
-2.20636338781333E-05,1.23331692520878E-05,1.23046875,0,0
-2.15375621337444E-05,1.60622821567813E-05,1.23046875,0,0
-2.13550501939608E-05,1.80793686013203E-05,1.23046875,0,0
-2.16909047594527E-05,1.87516161531676E-05,1.23046875,0,0
-1.86653887794819E-05,1.50750138345757E-05,1.23046875,0,0
-2.61025106738089E-05,2.12557588383788E-05,1.23046875,0,0
-1.86364486580715E-05,1.41791060741525E-05,1.23046875,0,0
-2.30553123401478E-05,1.88121521205176E-05,1.23046875,0,0
-2.03896724997321E-05,1.79041126102675E-05,1.23046875,0,0
-2.45308474404737E-05,1.30852831716766E-05,1.23046875,0,0
-2.35957031691214E-05,6.97140285410569E-06,1.23046875,0,0
-2.37949934671633E-05,1.10094833871699E-05,1.23046875,0,0
-2.26959000428906E-05,7.94374864199199E-06,1.23046875,0,0
-2.38410175370518E-05,9.95313075691229E-06,1.23046875,0,0
-2.41884827119065E-05,1.68441711139167E-05,1.23046875,0,0
-2.2917545720702E-05,1.5525007256656E-05,1.23046875,0,0
-2.32504826271907E-05,1.28272467918578E-05,1.23046875,0,0
-2.2274733055383E-05,1.35540440169279E-05,1.23046875,0,0
-2.34366289078025E-05,1.49638472066727E-05,1.23046875,0,0
-2.32812926697079E-05,1.17182862595655E-05,1.23046875,0,0
-2.50309676630422E-05,1.09135080492706E-05,1.23046875,0,0
-2.37588737945771E-05,9.37286404223414E-06,1.23046875,0,0
-2.42134719883325E-05,9.0186213128618E-06,1.23046875,0,0
-2.33043920161435E-05,7.77204240876017E-06,1.23046875,0,0
-2.39050732488977E-05,8.85479494172614E-06,1.23046875,0,0
-2.29599354497623E-05,9.15485634322977E-06,1.23046875,0,0
-2.28291683015414E-05,1.08303829620127E-05,1.23046875,0,0
-2.29841916734586E-05,1.14277945613139E-05,1.23046875,0,0
-2.48352080234326E-05,1.23105210150243E-05,1.23046875,0,0
-2.42585847445298E-05,1.51263238876709E-05,1.23046875,0,0
-2.1826388547197E-05,2.11681544897147E-05,1.23046875,0,0
-1.85355238500051E-05,2.11039969144622E-05,1.23046875,0,0
-2.80061376543017E-05,3.15702782245353E-05,1.23046875,0,0
-2.35748830164084E-05,2.40161043620901E-05,1.23046875,0,0
-2.84003781416686E-05,3.03733540931717E-05,1.23046875,0,0
-2.43628674070351E-05,2.87450275209267E-05,1.23046875,0,0
-2.62451649177819E-05,2.53378329944098E-05,1.23046875,0,0
-2.45168321271194E-05,2.08730325539364E-05,1.23046875,0,0
-2.57618357863976E-05,2.53863545367494E-05,1.23046875,0,0
-2.49975400947733E-05,2.06472832360305E-05,1.23046875,0,0
-2.46667823375901E-05,1.77552446984919E-05,1.23046875,0,0
-2.44554175878875E-05,1.79751132236561E-05,1.23046875,0,0
-2.37432759604417E-05,1.46958163895761E-05,1.23046875,0,0
-2.51239871431608E-05,1.44131927299895E-05,1.23046875,0,0
-2.53000125667313E-05,1.53296405187575E-05,1.23046875,0,0
-2.66362294496503E-05,1.69214054039912E-05,1.23046875,0,0
-2.5074139557546E-05,1.4732879208168E-05,1.23046875,0,0
-2.56645580520853E-05,1.45259782584617E-05,1.23046875,0,0
-2.5489669496892E-05,9.95328446151689E-06,1.23046875,0,0
-2.70411928795511E-05,5.77620812691748E-06,1.23046875,0,0
-2.53144207817968E-05,1.96358155335474E-06,1.23046875,0,0
-2.51235851465026E-05,3.64701872967999E-06,1.23046875,0,0
-2.58368399954634E-05,5.30721217728569E-06,1.23046875,0,0
-2.69876218226273E-05,7.2852567427617E-06,1.23046875,0,0
-2.47236475843238E-05,4.39524183093454E-06,1.23046875,0,0
-2.3673888790654E-05,-2.00683393813961E-06,1.23046875,0,0
-2.55469694820931E-05,-6.96860024618218E-06,1.23046875,0,0
-2.78391216852469E-05,-7.7546656029881E-06,1.23046875,0,0
-2.13613839150639E-05,-1.88227758712856E-07,1.23046875,0,0
-2.82930432149442E-05,5.17844500791398E-06,1.23046875,0,0
-1.85672324732877E-05,8.13041606306797E-06,1.23046875,0,0
-2.24779269046849E-05,1.04242490124307E-05,1.23046875,0,0
-1.57595441123703E-05,1.86872366612079E-05,1.23046875,0,0
-1.97419994947268E-05,1.46764841701952E-05,1.23046875,0,0
-2.03668223548448E-05,1.20010408863891E-05,1.23046875,0,0
-2.35500829148805E-05,1.25151418615133E-05,1.23046875,0,0
-2.27361706492957E-05,9.55429186433321E-06,1.23046875,0,0
-2.21178670472E-05,1.04645978353801E-05,1.23046875,0,0
-2.07807643164415E-05,1.47952523548156E-05,1.23046875,0,0
-1.83511219802313E-05,1.19881597129279E-05,1.23046875,0,0
-1.93698160728673E-05,8.25357437861385E-06,1.23046875,0,0
-1.95089342014398E-05,1.19075157272164E-05,1.23046875,0,0
-2.24431914830348E-05,1.47231348819332E-05,1.23046875,0,0
-2.32914790103678E-05,1.17789168143645E-05,1.23046875,0,0
-2.61184868577402E-05,7.0911646616878E-06,1.23046875,0,0
-2.50098637479823E-05,5.89162527830922E-06,1.23046875,0,0
-2.47339103225386E-05,6.02980844632839E-06,1.23046875,0,0
-2.2304378944682E-05,5.60039643460186E-06,1.23046875,0,0
-2.16490025195526E-05,2.69998031399155E-06,1.23046875,0,0
-2.02408300538082E-05,1.70634996266017E-06,1.23046875,0,0
-2.10725356737385E-05,5.18548904437921E-06,1.23046875,0,0
-2.00832237169379E-05,9.86619124887511E-06,1.23046875,0,0
-1.90190548892133E-05,1.15980410555494E-05,1.23046875,0,0
-1.8921939044958E-05,1.03746697277529E-05,1.23046875,0,0
-2.04420393856708E-05,4.63575634057634E-06,1.23046875,0,0
-1.81350278580794E-05,-1.51606127474224E-06,1.23046875,0,0
-2.58404797932599E-05,-1.84339273801015E-06,1.23046875,0,0
-1.95826905837748E-05,-2.40471217693994E-06,1.23046875,0,0
-2.54969982051989E-05,8.62007027535583E-07,1.23046875,0,0
-2.45830397034297E-05,9.13554868020583E-06,1.23046875,0,0
-2.89542731479742E-05,6.63016271573724E-06,1.23046875,0,0
-2.90262141788844E-05,4.98487906952505E-06,1.23046875,0,0
-3.08533344650641E-05,1.07897149064229E-05,1.23046875,0,0
-2.9506691134884E-05,1.08242447822704E-05,1.23046875,0,0
-2.92222357529681E-05,9.31987324293004E-06,1.23046875,0,0
-2.97813694487559E-05,9.94781839835923E-06,1.23046875,0,0
-2.85598343907623E-05,1.03537249742658E-05,1.23046875,0,0
-2.76694609055994E-05,1.322798198089E-05,1.23046875,0,0
-2.63249712588731E-05,1.96311793843051E-05,1.23046875,0,0
-2.87454531644471E-05,2.26415904762689E-05,1.23046875,0,0
-2.93040247925092E-05,2.28384888032451E-05,1.23046875,0,0
-2.99792973237345E-05,2.47767929977272E-05,1.23046875,0,0
-2.71329281531507E-05,2.74750473181484E-05,1.23046875,0,0
-2.56683779298328E-05,2.57530336966738E-05,1.23046875,0,0
-2.37412314163521E-05,2.01330785785103E-05,1.23046875,0,0
-2.4333676265087E-05,1.50270116137108E-05,1.23046875,0,0
-2.45747851295164E-05,1.07063269751961E-05,1.23046875,0,0
-2.6003661332652E-05,8.0113686635741E-06,1.23046875,0,0
-2.50307894020807E-05,9.26519896893296E-06,1.23046875,0,0
-2.36925970966695E-05,1.13674104795791E-05,1.23046875,0,0
-2.23987972276518E-05,1.06092211353825E-05,1.23046875,0,0
-2.16286334762117E-05,9.50903449847829E-06,1.23046875,0,0
-1.75725090230117E-05,8.00101679487852E-06,1.23046875,0,0
-2.49539079959504E-05,1.14478361865622E-05,1.23046875,0,0
-1.95416705537355E-05,5.50951745026396E-06,1.23046875,0,0
-2.4184522771975E-05,6.75041428621626E-06,1.23046875,0,0
-1.89839538506931E-05,5.39462644155719E-06,1.23046875,0,0
-2.04722127818968E-05,-1.14001431938959E-06,1.23046875,0,0
-2.05615760933142E-05,-2.07401308216504E-06,1.23046875,0,0
-2.4420396584901E-05,4.87959778183722E-06,1.23046875,0,0
-2.48116193688475E-05,1.66648305821582E-06,1.23046875,0,0
-2.439536183374E-05,-4.8541255459611E-09,1.23046875,0,0
-2.26412830670597E-05,2.95228755931021E-06,1.23046875,0,0
-1.9621564206318E-05,1.18051173103595E-06,1.23046875,0,0
-1.96254623006098E-05,6.88032912421477E-07,1.23046875,0,0
-1.99143232748611E-05,4.3629538595269E-06,1.23046875,0,0
-2.2913623979548E-05,7.0863452492631E-06,1.23046875,0,0
-2.33865830523428E-05,6.25228949502343E-06,1.23046875,0,0
-2.45899846049724E-05,7.22968752597808E-06,1.23046875,0,0
-2.29545530601172E-05,7.90640478953719E-06,1.23046875,0,0
-2.28199569392018E-05,9.14384690986481E-06,1.23046875,0,0
-2.13506027648691E-05,1.07258974821889E-05,1.23046875,0,0
-2.19079447560944E-05,1.34147467178991E-05,1.23046875,0,0
-2.14772826439003E-05,1.42119970405474E-05,1.23046875,0,0
-2.17287215491524E-05,1.41598839036305E-05,1.23046875,0,0
-2.03464715013979E-05,1.30282278405502E-05,1.23046875,0,0
-1.99518417502986E-05,1.10882574517746E-05,1.23046875,0,0
-2.16108783206437E-05,1.27485618577339E-05,1.23046875,0,0
-2.24016039283015E-05,1.70782550412696E-05,1.23046875,0,0
-1.70246912603034E-05,1.37344450195087E-05,1.23046875,0,0
-2.44474613282364E-05,1.64042339747539E-05,1.23046875,0,0
-2.02135670406278E-05,9.03623185877223E-06,1.23046875,0,0
-2.61699060501996E-05,1.82964395207819E-05,1.23046875,0,0
-2.27369127969723E-05,2.09295285458211E-05,1.23046875,0,0
-2.58732216025237E-05,1.85926637641387E-05,1.23046875,0,0
-2.53357120527653E-05,1.32703025883529E-05,1.23046875,0,0
-2.68457770289388E-05,1.53159362525912E-05,1.23046875,0,0
-2.57129322562832E-05,1.06600091385189E-05,1.23046875,0,0
-2.54995720752049E-05,6.43778048470267E-06,1.23046875,0,0
-2.70693471975392E-05,5.37919277121546E-06,1.23046875,0,0
-2.70483997155679E-05,2.69040856437641E-06,1.23046875,0,0
-2.65018898062408E-05,4.93867128170677E-06,1.23046875,0,0
-2.40053304878529E-05,8.36575418361463E-06,1.23046875,0,0
-2.46670642809477E-05,7.89388923294609E-06,1.23046875,0,0
-2.52938662015367E-05,3.77154788111511E-06,1.23046875,0,0
-2.76478331215912E-05,5.18631122758961E-06,1.23046875,0,0
-2.65680228039855E-05,6.61979447613703E-06,1.23046875,0,0
-2.59960524999769E-05,8.3390123108984E-06,1.23046875,0,0
-2.3883267203928E-05,8.74224770086585E-06,1.23046875,0,0
-2.39992568822345E-05,1.02152735053096E-05,1.23046875,0,0
-2.43861941271462E-05,1.08128588180989E-05,1.23046875,0,0
-2.56557923421497E-05,1.19486212497577E-05,1.23046875,0,0
-2.44942912104307E-05,1.06533934740582E-05,1.23046875,0,0
-2.30021450988716E-05,1.11286844912684E-05,1.23046875,0,0
-2.26238680625102E-05,1.1269998140051E-05,1.23046875,0,0
-2.35449824685929E-05,9.7043857749668E-06,1.23046875,0,0
-1.91979779629037E-05,8.61010357766645E-06,1.23046875,0,0
-2.68901494564489E-05,1.66308800544357E-05,1.23046875,0,0
-2.09834270208376E-05,1.56846599566052E-05,1.23046875,0,0
-2.74170524789952E-05,1.83871889021248E-05,1.23046875,0,0
-2.43823251366848E-05,1.86321685760049E-05,1.23046875,0,0
-2.7737170967157E-05,1.13340602183598E-05,1.23046875,0,0
-2.44192924583331E-05,1.00664137789863E-05,1.23046875,0,0
-2.4014521841309E-05,1.81851282832213E-05,1.23046875,0,0
-2.29231427510967E-05,1.62570704560494E-05,1.23046875,0,0
-2.23616079892963E-05,1.22714109238586E-05,1.23046875,0,0
-2.20354941120604E-05,1.16564797281171E-05,1.23046875,0,0
-2.21007649088278E-05,9.36975902732229E-06,1.23046875,0,0
-2.44878610828891E-05,9.81964967650129E-06,1.23046875,0,0
-2.48145333898719E-05,1.3938909432909E-05,1.23046875,0,0
-2.71409353445051E-05,1.42987300932873E-05,1.23046875,0,0
-2.65317485173E-05,9.2804511950817E-06,1.23046875,0,0
-2.64966110989917E-05,8.11363952379907E-06,1.23046875,0,0
-2.47355965257157E-05,9.63987440627534E-06,1.23046875,0,0
-2.64804948528763E-05,1.04427690530429E-05,1.23046875,0,0
-2.66951210505795E-05,8.95053472049767E-06,1.23046875,0,0
-2.71373974101152E-05,7.53798394725891E-06,1.23046875,0,0
-2.54941242019413E-05,7.55905330152018E-06,1.23046875,0,0
-2.59190819633659E-05,8.731707566767E-06,1.23046875,0,0
-2.61819386651041E-05,7.63643402024172E-06,1.23046875,0,0
-2.64888712990796E-05,7.11363099981099E-06,1.23046875,0,0
-2.65707367361756E-05,8.31986926641548E-06,1.23046875,0,0
-2.64405534835532E-05,9.48271281231428E-06,1.23046875,0,0
-2.05669730348745E-05,9.12261384655721E-06,1.23046875,0,0
-2.84231446130434E-05,1.55948637257097E-05,1.23046875,0,0
-2.12605591514148E-05,1.36997578010778E-05,1.23046875,0,0
-2.68812236754457E-05,1.88190169865265E-05,1.23046875,0,0
-2.21071713895071E-05,1.94997646758566E-05,1.23046875,0,0
-2.50093344220659E-05,1.29496420413489E-05,1.23046875,0,0
-2.44100883719511E-05,8.97977861313848E-06,1.23046875,0,0
-2.77567305602133E-05,1.24070375022711E-05,1.23046875,0,0
-2.69004758592928E-05,1.05124845504179E-05,1.23046875,0,0
-2.53205726039596E-05,1.06545376183931E-05,1.23046875,0,0
-2.38440734392498E-05,1.44720816024346E-05,1.23046875,0,0
-2.30114528676495E-05,1.25388987726183E-05,1.23046875,0,0
-2.54781880357768E-05,1.05766703200061E-05,1.23046875,0,0
-2.60678862105124E-05,1.24923117255094E-05,1.23046875,0,0
-2.73540481430246E-05,1.31592732941499E-05,1.23046875,0,0
-2.60727501881775E-05,9.38203174882801E-06,1.23046875,0,0
-2.74509930022759E-05,7.66556968301302E-06,1.23046875,0,0
-2.50738121394534E-05,8.41028395370813E-06,1.23046875,0,0
-2.37658678088337E-05,1.0412253686809E-05,1.23046875,0,0
-2.16372045542812E-05,9.11042934603756E-06,1.23046875,0,0
-2.3270966266864E-05,5.49207425137865E-06,1.23046875,0,0
-2.40827903326135E-05,1.91665071724856E-06,1.23046875,0,0
-2.52291119977599E-05,-1.02367937415693E-06,1.23046875,0,0
-2.50169687205926E-05,-2.48917785938829E-06,1.23046875,0,0
-2.62919784290716E-05,-1.68157941971003E-06,1.23046875,0,0
-2.68012681772234E-05,-3.99689952246263E-06,1.23046875,0,0
-2.72987490461674E-05,-8.83797747519566E-06,1.23046875,0,0
-2.27377458941191E-05,-6.07779884376214E-06,1.23046875,0,0
-3.16577643388882E-05,-4.55019744549645E-06,1.23046875,0,0
-2.32989914366044E-05,9.1281532377252E-07,1.23046875,0,0
-2.98266331810737E-05,3.53970517608104E-06,1.23046875,0,0
-2.52242734859465E-05,1.04754508356564E-05,1.23046875,0,0
-2.72185843641637E-05,3.35848721988441E-06,1.23046875,0,0
-2.4569369998062E-05,3.64190964319278E-06,1.23046875,0,0
-2.61739933193894E-05,9.23663083085557E-06,1.23046875,0,0
-2.496833440091E-05,9.14811607799493E-06,1.23046875,0,0
-2.51418750849552E-05,1.03494658105774E-05,1.23046875,0,0
-2.54480819421588E-05,1.47479258885141E-05,1.23046875,0,0
-2.35995375987841E-05,1.44733257911867E-05,1.23046875,0,0
-2.22992621274898E-05,1.32683044284931E-05,1.23046875,0,0
-1.94347849173937E-05,1.59186274686363E-05,1.23046875,0,0
-2.10609978239518E-05,1.07396508610691E-05,1.23046875,0,0
-2.14520568988519E-05,1.74342903846991E-06,1.23046875,0,0
-2.32699367188616E-05,-2.6345883270551E-06,1.23046875,0,0
-2.10114940273343E-05,-2.60007908536863E-07,1.23046875,0,0
-2.14593619602965E-05,2.8780018510588E-06,1.23046875,0,0
-2.19428602576954E-05,6.73612885293551E-06,1.23046875,0,0
-2.43289850914152E-05,9.74430440692231E-06,1.23046875,0,0
-2.25753556151176E-05,1.38111881824443E-05,1.23046875,0,0
-2.23770603042794E-05,1.39591793413274E-05,1.23046875,0,0
-2.33063783525722E-05,1.07822197605856E-05,1.23046875,0,0
-2.43818667513551E-05,1.02146850622375E-05,1.23046875,0,0
-2.38295870076399E-05,1.15260190796107E-05,1.23046875,0,0
-2.30453479161952E-05,1.22385990835028E-05,1.23046875,0,0
-1.92227380466647E-05,1.07128007584834E-05,1.23046875,0,0
-2.92320582957473E-05,1.69080940395361E-05,1.23046875,0,0
-2.48235701292288E-05,1.11169947558665E-05,1.23046875,0,0
-3.02910739264917E-05,1.51064323290484E-05,1.23046875,0,0
-2.69864285655785E-05,2.00375234271633E-05,1.23046875,0,0
-2.88245628325967E-05,1.85667104233289E-05,1.23046875,0,0
-2.59274820564315E-05,1.41585669553024E-05,1.23046875,0,0
-2.59258595178835E-05,1.45670128404163E-05,1.23046875,0,0
-2.4127371943905E-05,1.03746997410781E-05,1.23046875,0,0
-2.27593100134982E-05,1.15623543024412E-05,1.23046875,0,0
-2.10343114304123E-05,1.64422890520655E-05,1.23046875,0,0
-2.01816619664896E-05,1.60034924192587E-05,1.23046875,0,0
-2.32123129535466E-05,1.56206770043354E-05,1.23046875,0,0
-2.43643207795685E-05,1.76430785359116E-05,1.23046875,0,0
-2.52602094406029E-05,1.78049122041557E-05,1.23046875,0,0
-2.34258095588302E-05,1.62539490702329E-05,1.23046875,0,0
-2.47310981649207E-05,1.83226384251611E-05,1.23046875,0,0
-2.40730059886118E-05,1.87731657206314E-05,1.23046875,0,0
-2.37239055422833E-05,1.59517876454629E-05,1.23046875,0,0
-2.08312067115912E-05,1.09364063973771E-05,1.23046875,0,0
-1.95108314073877E-05,9.779693755263E-06,1.23046875,0,0
-1.83594456757419E-05,1.26231871035998E-05,1.23046875,0,0
-2.00433423742652E-05,1.84230484592263E-05,1.23046875,0,0
-2.03618419618579E-05,1.93791584024439E-05,1.23046875,0,0
-1.98827674466884E-05,1.77462079591351E-05,1.23046875,0,0
-1.970353332581E-05,2.02718110813294E-05,1.23046875,0,0
-2.07397279154975E-05,2.45084429479903E-05,1.23046875,0,0
-1.85257995326538E-05,1.88934645848349E-05,1.23046875,0,0
-2.4859076802386E-05,2.58785839832854E-05,1.23046875,0,0
-1.60753224918153E-05,1.66640766110504E-05,1.23046875,0,0
-1.98668167286087E-05,2.35074294323567E-05,1.23046875,0,0
-1.67414036695845E-05,2.18684945139103E-05,1.23046875,0,0
-2.1070234652143E-05,1.31701281134156E-05,1.23046875,0,0
-1.994555532292E-05,5.05729929045629E-07,1.23046875,0,0
-2.01768725673901E-05,2.97553401651385E-06,1.23046875,0,0
-1.76895646291086E-05,4.34332332588383E-06,1.23046875,0,0
-1.59730916493572E-05,9.5366940513486E-06,1.23046875,0,0
-1.69133327290183E-05,1.41393238664023E-05,1.23046875,0,0
-1.81017076101853E-05,1.06927882370655E-05,1.23046875,0,0
-2.0047777070431E-05,1.01862433439237E-05,1.23046875,0,0
-1.92717106983764E-05,1.16712535600527E-05,1.23046875,0,0
-1.99229289137293E-05,1.0509086678212E-05,1.23046875,0,0
-1.90327355085174E-05,4.63214018964209E-06,1.23046875,0,0
-2.07769680855563E-05,4.34888897871133E-06,1.23046875,0,0
-2.07449265872128E-05,4.31890703112003E-06,1.23046875,0,0
-2.28000862989575E-05,6.03894841333386E-06,1.23046875,0,0
-2.39050732488977E-05,5.84824829275021E-06,1.23046875,0,0
-2.56706662185024E-05,8.08660297479946E-06,1.23046875,0,0
-2.36758860410191E-05,9.69497341429815E-06,1.23046875,0,0
-2.14335577766178E-05,1.22009514598176E-05,1.23046875,0,0
-2.01443308469607E-05,1.40100391945452E-05,1.23046875,0,0
-2.08242818189319E-05,1.6455471268273E-05,1.23046875,0,0
-2.15934396692319E-05,1.83371303137392E-05,1.23046875,0,0
-2.34426388487918E-05,1.86796587513527E-05,1.23046875,0,0
-1.98873349290807E-05,1.18618627311662E-05,1.23046875,0,0
-2.66642746282741E-05,1.57696449605282E-05,1.23046875,0,0
-1.86218840099173E-05,9.29114958125865E-06,1.23046875,0,0
-2.45362134592142E-05,1.44198002089979E-05,1.23046875,0,0
-2.15448126255069E-05,1.6023033822421E-05,1.23046875,0,0
-2.51148885581642E-05,1.23800809888053E-05,1.23046875,0,0
-2.17997840081807E-05,5.84964163863333E-06,1.23046875,0,0
-2.07205121114384E-05,7.24995015843888E-06,1.23046875,0,0
-1.8868173356168E-05,5.81748918193625E-06,1.23046875,0,0
-2.04847019631416E-05,9.64084210863803E-06,1.23046875,0,0
-2.36156556638889E-05,1.60235540533904E-05,1.23046875,0,0
-2.42117585003143E-05,1.2416549907357E-05,1.23046875,0,0
-2.39962591876974E-05,7.04027615938685E-06,1.23046875,0,0
-2.07929788302863E-05,4.51824189440231E-06,1.23046875,0,0
-2.07005850825226E-05,2.16240305661586E-08,1.23046875,0,0
-2.03153995244065E-05,-6.83221833241987E-06,1.23046875,0,0
-2.32833481277339E-05,-5.77913260713103E-06,1.23046875,0,0
-2.39380206039641E-05,-1.26569022995682E-06,1.23046875,0,0
-2.56433813774493E-05,3.39683833772142E-06,1.23046875,0,0
-2.48394972004462E-05,5.63056983082788E-06,1.23046875,0,0
-2.47877414949471E-05,8.19327033241279E-06,1.23046875,0,0
-2.27846012421651E-05,6.31703323961119E-06,1.23046875,0,0
-2.33270147873554E-05,1.06518257325661E-06,1.40625,0,0
-2.41486050072126E-05,-2.68242956735776E-06,1.40625,0,0
-2.59578446275555E-05,-1.01642922345491E-06,1.40625,0,0
-2.62949470197782E-05,2.7683768166753E-06,1.40625,0,0
-2.456553374941E-05,5.73466286368784E-06,1.40625,0,0
-1.82599269464845E-05,6.69907194605912E-06,1.40625,0,0
-2.64423651969992E-05,1.12940670078387E-05,1.40625,0,0
-2.24382511078147E-05,7.77752848080127E-06,1.40625,0,0
-2.75310067081591E-05,1.07731839307235E-05,1.40625,0,0
-2.30684181588003E-05,1.52599368448136E-05,1.40625,0,0
-2.67998166236794E-05,1.11833833216224E-05,1.40625,0,0
-2.50803041126346E-05,7.83766245149309E-06,1.40625,0,0
-2.55667127930792E-05,1.0841418770724E-05,1.40625,0,0
-2.44533766817767E-05,7.51829975342844E-06,1.40625,0,0
-2.50199045694899E-05,7.52083997213049E-06,1.40625,0,0
-2.64346563199069E-05,1.11811750684865E-05,1.40625,0,0
-2.73517416644609E-05,7.70857968745986E-06,1.40625,0,0
-2.84265170193976E-05,5.02789316669805E-06,1.40625,0,0
-2.54675396718085E-05,9.15023701963946E-06,1.40625,0,0
-2.36871965171304E-05,1.30542439364945E-05,1.40625,0,0
-2.17000106204068E-05,1.13229689304717E-05,1.40625,0,0
-2.35425068240147E-05,9.30343230720609E-06,1.40625,0,0
-2.32582788157742E-05,7.83696032158332E-06,1.40625,0,0
-2.42445512412814E-05,4.59833063359838E-06,1.40625,0,0
-2.32672136917245E-05,-1.205046942232E-06,1.40625,0,0
-2.31341837206855E-05,-5.77578703087056E-06,1.40625,0,0
-2.16789194382727E-05,-7.35426147002727E-06,1.40625,0,0
-2.23263286898145E-05,-4.70951863462687E-06,1.40625,0,0
-2.24703017011052E-05,-3.98422599801052E-07,1.40625,0,0
-2.32776710618054E-05,3.8158018469403E-06,1.40625,0,0
-2.33489972742973E-05,7.60581860959064E-06,1.40625,0,0
-2.4461009161314E-05,9.89213003776968E-06,1.40625,0,0
-2.11150927498238E-05,7.75879743741825E-06,1.40625,0,0
-2.87972725345753E-05,1.23487961900537E-05,1.40625,0,0
-2.06521417567274E-05,1.01840714705759E-05,1.40625,0,0
-2.64579412032617E-05,1.38452805913403E-05,1.40625,0,0
-2.23924798774533E-05,1.20957838589675E-05,1.40625,0,0
-2.54486549238209E-05,5.90555282542482E-06,1.40625,0,0
-2.17232918657828E-05,7.15683199814521E-06,1.40625,0,0
-2.14544725167798E-05,1.87604236998595E-05,1.40625,0,0
-2.23405422730139E-05,2.3492921172874E-05,1.40625,0,0
-2.57064475590596E-05,2.41365924011916E-05,1.40625,0,0
-2.72303841484245E-05,2.34188028116478E-05,1.40625,0,0
-2.51894762186566E-05,1.84001710294979E-05,1.40625,0,0
-2.44070397457108E-05,1.53238761413377E-05,1.40625,0,0
-2.28058288485045E-05,1.72864220076008E-05,1.40625,0,0
-2.39940382016357E-05,1.79524158738786E-05,1.40625,0,0
-2.17528140638024E-05,1.43240604302264E-05,1.40625,0,0
-2.17733850149671E-05,1.36916996780201E-05,1.40625,0,0
-2.13315688597504E-05,1.48358967635431E-05,1.40625,0,0
-2.42554906435544E-05,1.37543211167213E-05,1.40625,0,0
-2.39596865867497E-05,8.68713686941192E-06,1.40625,0,0
-2.42889800574631E-05,6.11013183515752E-06,1.40625,0,0
-2.40400331676938E-05,6.28600992058637E-06,1.40625,0,0
-2.57299689110368E-05,8.9323375505046E-06,1.40625,0,0
-2.67761261056876E-05,1.21976963782799E-05,1.40625,0,0
-2.7359103114577E-05,1.20157883429783E-05,1.40625,0,0
-2.57107294601155E-05,9.32197235670174E-06,1.40625,0,0
-2.35218722082209E-05,8.55167400004575E-06,1.40625,0,0
-1.84039054147433E-05,7.48949742046534E-06,1.40625,0,0
-2.61002132901922E-05,1.10351220428129E-05,1.40625,0,0
-2.04412863240577E-05,5.52463552594418E-06,1.40625,0,0
-2.57577248703456E-05,8.49971092975466E-06,1.40625,0,0
-2.23101415031124E-05,1.31716642499669E-05,1.40625,0,0
-2.64941045315936E-05,8.92122989171185E-06,1.40625,0,0
-2.69250267592724E-05,3.88924399885582E-06,1.40625,0,0
-2.84219786408357E-05,6.82312702338095E-06,1.40625,0,0
-2.6316722141928E-05,3.4586448691698E-06,1.40625,0,0
-2.52100580837578E-05,3.95297411159845E-06,1.40625,0,0
-2.50748362304876E-05,1.18253992695827E-05,1.40625,0,0
-2.39842393057188E-05,1.68095630215248E-05,1.40625,0,0
-2.40602985286387E-05,2.15309319173684E-05,1.40625,0,0
-2.25333060370758E-05,2.62017019849736E-05,1.40625,0,0
-2.34074723266531E-05,2.41238194575999E-05,1.40625,0,0
-2.23567622015253E-05,1.76800313056447E-05,1.40625,0,0
-2.33916744036833E-05,1.68934566318057E-05,1.40625,0,0
-2.31289650400868E-05,1.87257082870929E-05,1.40625,0,0
-2.48647556873038E-05,2.02135597646702E-05,1.40625,0,0
-2.43414360738825E-05,2.04020816454431E-05,1.40625,0,0
-2.47705156652955E-05,2.25533294724301E-05,1.40625,0,0
-2.46539584622951E-05,2.37088734138524E-05,1.40625,0,0
-2.69185602519428E-05,2.07983994187089E-05,1.40625,0,0
-2.96338603220647E-05,1.62384785653558E-05,1.40625,0,0
-3.26718982250895E-05,1.46784386743093E-05,1.40625,0,0
-3.31595365423709E-05,1.43159268191084E-05,1.40625,0,0
-3.3394644560758E-05,1.33262128656497E-05,1.40625,0,0
-2.73522218776634E-05,9.39108940656297E-06,1.40625,0,0
-3.73312614101451E-05,1.78305490408093E-05,1.40625,0,0
-2.48120777541772E-05,1.76684770849533E-05,1.40625,0,0
-2.97619262710214E-05,1.96470937225968E-05,1.40625,0,0
-2.43132963078097E-05,1.69565264513949E-05,1.40625,0,0
-2.9409824492177E-05,1.16617356979987E-05,1.40625,0,0
-2.56592702498892E-05,1.11694225779502E-05,1.40625,0,0
-2.47806383413263E-05,1.46249212775729E-05,1.40625,0,0
-2.14052961382549E-05,9.25568656384712E-06,1.40625,0,0
-2.0518073142739E-05,8.14138002169784E-06,1.40625,0,0
-2.11652914003935E-05,1.04770269899745E-05,1.40625,0,0
-2.08017845579889E-05,7.21992910257541E-06,1.40625,0,0
-2.22045055124909E-05,6.71532234264305E-06,1.40625,0,0
-2.03617582883453E-05,1.29422724057804E-05,1.40625,0,0
-2.01677412405843E-05,1.53023465827573E-05,1.40625,0,0
-1.68115493579535E-05,8.86665202415315E-06,1.40625,0,0
-1.7144517187262E-05,3.49675383404247E-06,1.40625,0,0
-1.46633392432705E-05,3.94774997403147E-06,1.40625,0,0
-1.49801498992019E-05,9.61253226705594E-06,1.40625,0,0
-1.30186872411286E-05,1.29301870401832E-05,1.40625,0,0
-1.38894729388994E-05,1.39123176268185E-05,1.40625,0,0
-1.35568225232419E-05,1.29735853988677E-05,1.40625,0,0
-1.37487213578424E-05,1.20068589239963E-05,1.40625,0,0
-1.19497999548912E-05,1.12544294097461E-05,1.40625,0,0
-1.30579501274042E-05,1.20021641123458E-05,1.40625,0,0
-1.54113331518602E-05,1.31575061459444E-05,1.40625,0,0
-1.66062200150918E-05,1.42272037919611E-05,1.40625,0,0
-1.13415899249958E-05,1.26551130961161E-05,1.40625,0,0
-1.54977005877299E-05,2.01064140128437E-05,1.40625,0,0
-1.25248043332249E-05,1.57536414917558E-05,1.40625,0,0
-1.73314292624127E-05,2.11235019378364E-05,1.40625,0,0
-1.78976042661816E-05,2.3152053472586E-05,1.40625,0,0
-2.27815289690625E-05,1.83202628250001E-05,1.40625,0,0
-2.2081459974288E-05,1.32714385472354E-05,1.40625,0,0
-2.24315281229792E-05,1.60454310389468E-05,1.40625,0,0
-2.25595613301266E-05,1.15145967356511E-05,1.40625,0,0
-2.38169741351157E-05,9.28684676182456E-06,1.40625,0,0
-2.39741966652218E-05,1.14635031422949E-05,1.40625,0,0
-2.31521771638654E-05,9.8202235676581E-06,1.40625,0,0
-2.36591022257926E-05,7.10500717104878E-06,1.40625,0,0
-2.23268089030171E-05,5.05421576235676E-06,1.40625,0,0
-2.23533043026691E-05,3.76708248950308E-06,1.40625,0,0
-2.19933990592835E-05,2.77461231235066E-06,1.40625,0,0
-2.36337164096767E-05,6.70612871545018E-06,1.40625,0,0
-2.35672741837334E-05,8.66617028805194E-06,1.40625,0,0
-2.33014907280449E-05,5.85172529099509E-06,1.40625,0,0
-2.09414265555097E-05,1.03185442412723E-07,1.40625,0,0
-2.14016872632783E-05,7.34910372557351E-07,1.40625,0,0
-2.39411747315899E-05,4.58386921309284E-06,1.40625,0,0
-2.74090925813653E-05,7.10134827386355E-06,1.40625,0,0
-2.83410972770071E-05,7.37435357223148E-06,1.40625,0,0
-2.8367519917083E-05,9.89803811535239E-06,1.40625,0,0
-2.83885601675138E-05,1.25012693388271E-05,1.40625,0,0
-2.83235149254324E-05,1.3978228707856E-05,1.40625,0,0
-2.35341922234511E-05,1.0207590094069E-05,1.40625,0,0
-3.36279481416568E-05,1.29402069433127E-05,1.40625,0,0
-2.58159943768987E-05,5.98174483457115E-06,1.40625,0,0
-3.19922401104122E-05,9.52873688220279E-06,1.40625,0,0
-2.62091398326447E-05,1.01935602287995E-05,1.40625,0,0
-2.81958655250492E-05,7.49467290006578E-06,1.40625,0,0
-2.52548252319684E-05,6.34699517831905E-06,1.40625,0,0
-2.80556414509192E-05,1.14486156235216E-05,1.40625,0,0
-3.00208776025102E-05,8.3759478002321E-06,1.40625,0,0
-3.13711607304867E-05,7.10120002622716E-06,1.40625,0,0
-3.11093644995708E-05,7.61319006414851E-06,1.40625,0,0
-2.9871633159928E-05,3.16553177981405E-06,1.40625,0,0
-3.08245471387636E-05,7.67481708408013E-07,1.40625,0,0
-2.9917564461357E-05,1.76160676801373E-06,1.40625,0,0
-3.14827848342247E-05,1.53592100105016E-06,1.40625,0,0
-3.04040950140916E-05,-3.27748853123921E-06,1.40625,0,0
-3.14569406327792E-05,-6.68100983602926E-06,1.40625,0,0
-2.9825976525899E-05,-8.70115763973445E-06,1.40625,0,0
-3.11607473122422E-05,-4.37546304965508E-06,1.40625,0,0
-3.03793131024577E-05,2.03788454200549E-06,1.40625,0,0
-2.94943638436962E-05,6.23901678409311E-06,1.40625,0,0
-2.66043880401412E-05,5.55103497390519E-06,1.40625,0,0
-2.65292765107006E-05,3.73532930098008E-06,1.40625,0,0
-2.64914360741386E-05,-1.1739465435312E-06,1.40625,0,0
-2.84005036519375E-05,-5.22966547578108E-06,1.40625,0,0
-2.95867248496506E-05,-3.88263242712128E-06,1.40625,0,0
-2.91607630060753E-05,1.20645984225121E-06,1.40625,0,0
-2.24784089368768E-05,3.96160021409742E-06,1.40625,0,0
-3.08638955175411E-05,6.51878826829488E-06,1.40625,0,0
-2.15570507862139E-05,1.0712108178268E-06,1.40625,0,0
-2.68290223175427E-05,2.24267569137737E-06,1.40625,0,0
-2.27074724534759E-05,1.1437095963629E-05,1.40625,0,0
-2.73851910606027E-05,1.31623182824114E-05,1.40625,0,0
-2.53016387432581E-05,1.3716887224291E-05,1.40625,0,0
-2.6520745450398E-05,1.7061001926777E-05,1.40625,0,0
-2.71738736046245E-05,1.53455930558266E-05,1.40625,0,0
-2.7484380552778E-05,1.86117267730879E-05,1.40625,0,0
-2.71175431407755E-05,2.49007298407378E-05,1.40625,0,0
-2.63157307927031E-05,2.36289542954182E-05,1.40625,0,0
-2.79622454399941E-05,2.08782548725139E-05,1.40625,0,0
-2.72436227533035E-05,2.42336482187966E-05,1.40625,0,0
-2.87715502054198E-05,2.62868816207629E-05,1.40625,0,0
-2.67825616901973E-05,2.2367412384483E-05,1.40625,0,0
-2.54190345003735E-05,1.81142768269638E-05,1.40625,0,0
-2.26992087846156E-05,1.78053996933158E-05,1.40625,0,0
-2.49588993028738E-05,1.91283888852922E-05,1.40625,0,0
-2.56590501521714E-05,1.82882540684659E-05,1.40625,0,0
-2.60465003520949E-05,1.62653050210793E-05,1.40625,0,0
-2.39262571994914E-05,1.47872206071042E-05,1.40625,0,0
-2.39305791183142E-05,1.48681756400038E-05,1.40625,0,0
-2.41504021687433E-05,1.50897531057126E-05,1.40625,0,0
-2.4302209567395E-05,1.32728728203801E-05,1.40625,0,0
-2.27982200158294E-05,9.45083957049064E-06,1.40625,0,0
-2.16063308471348E-05,8.00373436504742E-06,1.40625,0,0
-1.81293835339602E-05,6.40107191429706E-06,1.40625,0,0
-2.62414177996106E-05,8.82896347320639E-06,1.40625,0,0
-2.05279629881261E-05,3.6437686503632E-06,1.40625,0,0
-2.43327667703852E-05,5.80866935706581E-06,1.40625,0,0
-2.03554664039984E-05,9.19778358365875E-06,1.40625,0,0
-2.40404879150447E-05,7.72480689192889E-06,1.40625,0,0
-2.24711984628811E-05,7.17352395440685E-06,1.40625,0,0
-2.27059281314723E-05,1.09766924651922E-05,1.40625,0,0
-2.16570697375573E-05,8.23434766061837E-06,1.40625,0,0
-2.13872554013506E-05,9.41505277296528E-06,1.40625,0,0
-2.23161405301653E-05,1.48829103636672E-05,1.40625,0,0
-2.30095629376592E-05,1.46946958921035E-05,1.40625,0,0
-2.332977601327E-05,1.44381128848181E-05,1.40625,0,0
-2.08651981665753E-05,1.95868560695089E-05,1.40625,0,0
-2.10103553399676E-05,2.30297082453035E-05,1.40625,0,0
-1.96399814740289E-05,1.98247162188636E-05,1.40625,0,0
-2.05179221666185E-05,1.76060257217614E-05,1.40625,0,0
-2.02430655917851E-05,1.79698108695447E-05,1.40625,0,0
-2.17014294321416E-05,2.03226773010101E-05,1.40625,0,0
-2.08993351407116E-05,2.20751971937716E-05,1.40625,0,0
-2.13646362681175E-05,2.15876589209074E-05,1.40625,0,0
-2.11535971175181E-05,1.62795149662998E-05,1.40625,0,0
-2.21560712816427E-05,1.07724436020362E-05,1.40625,0,0
-2.19212670344859E-05,8.82231870491523E-06,1.40625,0,0
-2.13630446523894E-05,9.54613824433181E-06,1.40625,0,0
-2.12793183891336E-05,8.98992038855795E-06,1.40625,0,0
-2.29431698244298E-05,7.0237092586467E-06,1.40625,0,0
-1.93401956494199E-05,2.59186981566017E-06,1.40625,0,0
-2.62877347267931E-05,3.67467282558209E-06,1.40625,0,0
-1.8727723727352E-05,4.19379512095475E-06,1.40625,0,0
-2.39575638261158E-05,1.0789302905323E-05,1.40625,0,0
-1.92370516742812E-05,1.36984208438662E-05,1.40625,0,0
-2.10923153645126E-05,6.5723520492611E-06,1.40625,0,0
-1.99004589376273E-05,3.6949659261154E-06,1.40625,0,0
-2.26996653509559E-05,7.76328124629799E-06,1.40625,0,0
-2.27743257710245E-05,3.15148463414516E-06,1.40625,0,0
-2.28543813136639E-05,-8.92913703864906E-07,1.40625,0,0
-2.32077254622709E-05,9.23360971682996E-07,1.40625,0,0
-2.34857743635075E-05,2.02291653295106E-06,1.40625,0,0
-2.44078237301437E-05,1.66284962688223E-06,1.40625,0,0
-2.17808901652461E-05,1.83546626431053E-06,1.40625,0,0
-2.07652174140094E-05,8.16041051621141E-07,1.40625,0,0
-1.93420455616433E-05,2.86975875951612E-07,1.40625,0,0
-2.16419921343913E-05,2.61366130871465E-06,1.40625,0,0
-2.14582087210147E-05,4.77669800602598E-06,1.40625,0,0
-2.22237431444228E-05,7.25366635379032E-06,1.40625,0,0
-2.14294013858307E-05,9.15530108613893E-06,1.40625,0,0
-2.24547384277685E-05,9.6528865469736E-06,1.40625,0,0
-2.1584140995401E-05,8.56195129017578E-06,1.40625,0,0
-2.2375399566954E-05,7.89807836554246E-06,1.40625,0,0
-2.31396825256525E-05,7.20875368642737E-06,1.40625,0,0
-2.43660506384913E-05,7.20926664143917E-06,1.40625,0,0
-2.51394103543134E-05,7.08097513779649E-06,1.40625,0,0
-2.54638616752345E-05,7.17024067853345E-06,1.40625,0,0
-1.94845051737502E-05,8.98969756235601E-06,1.40625,0,0
-2.63421243289486E-05,1.6315219909302E-05,1.40625,0,0
-1.81851246452425E-05,1.13544956548139E-05,1.40625,0,0
-2.32307284022681E-05,1.02613312265021E-05,1.40625,0,0
-2.02400460693752E-05,1.17841527753626E-05,1.7578125,0,0
-2.40819535974879E-05,9.49535296967952E-06,1.7578125,0,0
-2.13356797758024E-05,8.65462880028645E-06,1.7578125,0,0
-2.11951828532619E-05,1.13742944449768E-05,1.7578125,0,0
-2.0719577150885E-05,6.16926763541414E-06,1.7578125,0,0
-2.13023104151944E-05,4.04409047405352E-06,1.7578125,0,0
-2.20384372369153E-05,6.22378911430133E-06,1.7578125,0,0
-2.28109947784105E-05,4.58104022982297E-06,1.7578125,0,0
-2.46804338530637E-05,4.79040954814991E-06,1.7578125,0,0
-2.35683328355663E-05,7.69164489611285E-06,1.7578125,0,0
-2.32004749705084E-05,6.45319505565567E-06,1.7578125,0,0
-1.98981215362437E-05,1.28996055082098E-06,1.7578125,0,0
-1.92806182894856E-05,-4.55636921969926E-07,1.7578125,0,0
-1.82327785296366E-05,-4.06651821549531E-07,1.7578125,0,0
-1.98004727280932E-05,8.03157774953434E-07,1.7578125,0,0
-1.86652323463932E-05,3.37327219313011E-06,1.7578125,0,0
-1.90438022400485E-05,6.0877073337906E-06,1.7578125,0,0
-1.87764653674094E-05,7.44729595680838E-06,1.7578125,0,0
-2.00581998797134E-05,1.13918094939436E-05,1.7578125,0,0
-2.11984624911565E-05,1.46367146953708E-05,1.7578125,0,0
-2.29337729251711E-05,1.81828781933291E-05,1.7578125,0,0
-2.23120932787424E-05,2.19422108784784E-05,1.7578125,0,0
-2.00555696210358E-05,2.20248984987848E-05,1.7578125,0,0
-1.3907320862927E-05,1.69932609423995E-05,1.7578125,0,0
-1.95886677829549E-05,2.55298964475514E-05,1.7578125,0,0
-1.63878848979948E-05,2.15851232496789E-05,1.7578125,0,0
-2.25254134420538E-05,3.10942377836909E-05,1.7578125,0,0
-2.13501589314546E-05,3.06801048282068E-05,1.7578125,0,0
-2.33958871831419E-05,2.54201877396554E-05,1.7578125,0,0
-2.11304140975699E-05,2.30346468015341E-05,1.7578125,0,0
-2.2643907868769E-05,3.11665826302487E-05,1.7578125,0,0
-2.30442492465954E-05,2.87219791061943E-05,1.7578125,0,0
-2.35620700550498E-05,2.58015570580028E-05,1.7578125,0,0
-2.35800434893463E-05,2.74108715530019E-05,1.7578125,0,0
-2.27978962357156E-05,2.59866665146546E-05,1.7578125,0,0
-2.31921494560083E-05,2.3981359845493E-05,1.7578125,0,0
-2.25533476623241E-05,2.36974592553452E-05,1.7578125,0,0
-2.39941091422224E-05,2.27362106670626E-05,1.7578125,0,0
-2.38280063058482E-05,1.65641504281666E-05,1.7578125,0,0
-2.54395090450998E-05,1.38858822538168E-05,1.7578125,0,0
-2.53371363214683E-05,1.22103765534121E-05,1.7578125,0,0
-2.56732346315403E-05,1.30114358398714E-05,1.7578125,0,0
-2.44817874772707E-05,1.16509454528568E-05,1.7578125,0,0
-2.52101071964717E-05,1.10726332422928E-05,1.7578125,0,0
-2.44236271100817E-05,8.78825539984973E-06,1.7578125,0,0
-2.30415062105749E-05,7.75165790400933E-06,1.7578125,0,0
-2.25112071348121E-05,6.63142009216244E-06,1.7578125,0,0
-2.3896109269117E-05,5.99980921833776E-06,1.7578125,0,0
-2.40151239268016E-05,3.28428473039821E-06,1.7578125,0,0
-2.45501159952255E-05,3.98803820189642E-07,1.7578125,0,0
-2.13773510040483E-05,1.6922504073591E-06,1.7578125,0,0
-3.02463777188677E-05,6.07531637797365E-06,1.7578125,0,0
-2.13252678804565E-05,9.39057554205647E-06,1.7578125,0,0
-2.52424651989713E-05,1.43650468089618E-05,1.7578125,0,0
-2.11038259294583E-05,1.81315517693292E-05,1.7578125,0,0
-2.54087808571057E-05,1.19676360554877E-05,1.7578125,0,0
-2.48174837906845E-05,1.1100506526418E-05,1.7578125,0,0
-2.7293559469399E-05,1.46187639984419E-05,1.7578125,0,0
-2.79467603832018E-05,1.02620215329807E-05,1.7578125,0,0
-2.8824717446696E-05,6.90114620738314E-06,1.7578125,0,0
-2.95713271043496E-05,9.48820434132358E-06,1.7578125,0,0
-2.95382669719402E-05,9.47931403061375E-06,1.7578125,0,0
-3.13564669340849E-05,1.03144402601174E-05,1.7578125,0,0
-3.01719992421567E-05,1.40504280352616E-05,1.7578125,0,0
-2.99075254588388E-05,1.24431835502037E-05,1.7578125,0,0
-2.77246617770288E-05,7.67501478549093E-06,1.7578125,0,0
-2.93219109153142E-05,5.13530267198803E-06,1.7578125,0,0
-2.97735750791617E-05,2.60388401329692E-06,1.7578125,0,0
-3.23576896334998E-05,-1.81977850388648E-06,1.7578125,0,0
-3.2336545700673E-05,-5.0554144763737E-06,1.7578125,0,0
-3.30619441228919E-05,-5.41932104169973E-06,1.7578125,0,0
-3.25555047311354E-05,-2.96947564493166E-06,1.7578125,0,0
-3.32524541590828E-05,4.41836817799413E-07,1.7578125,0,0
-3.20216495310888E-05,4.94158803121536E-06,1.7578125,0,0
-2.93713783321436E-05,7.29074918126571E-06,1.7578125,0,0
-2.67229679593584E-05,6.24859922027099E-06,1.7578125,0,0
-2.57198607869213E-05,2.45991282099567E-06,1.7578125,0,0
-2.13896400964586E-05,-1.48127105603635E-06,1.7578125,0,0
-3.03659981000237E-05,-2.40753911384672E-06,1.7578125,0,0
-2.31725207413547E-05,-2.87490615846764E-06,1.7578125,0,0
-2.79549894912634E-05,2.05672063202655E-06,1.7578125,0,0
-2.15912277781172E-05,8.89614602783695E-06,1.7578125,0,0
-2.32066631724592E-05,2.61241893895203E-06,1.7578125,0,0
-2.13484599953517E-05,3.48811767025836E-07,1.7578125,0,0
-2.37236126849893E-05,7.56063991502742E-06,1.7578125,0,0
-2.42088572122157E-05,1.14281920104986E-05,1.7578125,0,0
-2.50662633334287E-05,1.32109507831046E-05,1.7578125,0,0
-2.5609271688154E-05,1.56996829900891E-05,1.7578125,0,0
-2.5102022846113E-05,1.55366524268175E-05,1.7578125,0,0
-2.64154332398903E-05,1.53648434206843E-05,1.7578125,0,0
-2.54068090725923E-05,1.79309881787049E-05,1.7578125,0,0
-2.60163651546463E-05,1.58558268594788E-05,1.7578125,0,0
-2.382007187407E-05,1.00997849585838E-05,1.7578125,0,0
-2.33996652241331E-05,6.65734660287853E-06,1.7578125,0,0
-2.08536512218416E-05,8.17781710793497E-06,1.7578125,0,0
-2.09311729122419E-05,1.20437907753512E-05,1.7578125,0,0
-1.90562768693781E-05,1.53424734889995E-05,1.7578125,0,0
-1.83278589247493E-05,1.63051645358792E-05,1.7578125,0,0
-1.60203144332627E-05,1.62319265655242E-05,1.7578125,0,0
-1.62350570462877E-05,1.70643088495126E-05,1.7578125,0,0
-1.75388904608553E-05,1.78728460014099E-05,1.7578125,0,0
-1.97556928469567E-05,1.69216345966561E-05,1.7578125,0,0
-1.97786976059433E-05,1.54153931362089E-05,1.7578125,0,0
-1.81428986252286E-05,1.51709909914644E-05,1.7578125,0,0
-1.40557003760478E-05,1.00213519544923E-05,1.7578125,0,0
-2.08205128728878E-05,1.05607314253575E-05,1.7578125,0,0
-1.75707700691419E-05,4.06010622100439E-06,1.7578125,0,0
-2.11942915484542E-05,1.08075200841995E-05,1.7578125,0,0
-1.75198347278638E-05,8.77984712133184E-06,1.7578125,0,0
-1.92522347788326E-05,8.01275689354952E-07,1.7578125,0,0
-1.83840729732765E-05,-5.64675156056182E-06,1.7578125,0,0
-1.91500694199931E-05,-4.59416327203144E-07,1.7578125,0,0
-1.80990355147514E-05,4.89593901420449E-07,1.7578125,0,0
-1.79057988134446E-05,3.45236139764893E-06,1.7578125,0,0
-1.86527468031272E-05,1.13563610284473E-05,1.7578125,0,0
-1.93730211321963E-05,1.44120413096971E-05,1.7578125,0,0
-2.16237094718963E-05,1.58606799232075E-05,1.7578125,0,0
-2.29065190069377E-05,1.98712568817427E-05,1.7578125,0,0
-2.48976029979531E-05,2.432116343698E-05,1.7578125,0,0
-2.39161217905348E-05,2.35191655519884E-05,1.7578125,0,0
-2.3364316803054E-05,2.15477793972241E-05,1.7578125,0,0
-2.21786867768969E-05,1.73405005625682E-05,1.7578125,0,0
-2.35596544371219E-05,1.48268909470062E-05,1.7578125,0,0
-2.27612163143931E-05,1.40806832860108E-05,1.7578125,0,0
-2.20570309465984E-05,1.71014453371754E-05,1.7578125,0,0
-2.13896801142255E-05,1.93388605111977E-05,1.7578125,0,0
-2.21969767153496E-05,2.06981640076265E-05,1.7578125,0,0
-2.16423395613674E-05,1.64790653798264E-05,1.7578125,0,0
-2.05457326956093E-05,9.32748480408918E-06,1.7578125,0,0
-1.9443756173132E-05,7.40849827707279E-06,1.7578125,0,0
-2.03503659577109E-05,9.13963140192209E-06,1.7578125,0,0
-2.00174381461693E-05,9.83516565611353E-06,1.7578125,0,0
-3.06759029626846E-05,1.67905109265121E-05,1.7578125,0,0
-2.53137914114632E-05,1.18186535473797E-05,1.7578125,0,0
-2.93603061436443E-05,1.26785143947927E-05,1.7578125,0,0
-2.4916660549934E-05,1.42629078254686E-05,1.7578125,0,0
-2.95663612632779E-05,9.55198356678011E-06,1.7578125,0,0
-3.11262483592145E-05,5.7194283726858E-06,1.7578125,0,0
-3.31432529492304E-05,7.74890850152588E-06,1.7578125,0,0
-3.20030048897024E-05,3.46450269717025E-06,1.7578125,0,0
-3.12511074298527E-05,1.32966624732944E-06,1.7578125,0,0
-3.09401439153589E-05,1.10545545339846E-06,1.7578125,0,0
-2.98549530270975E-05,-3.8345265238604E-06,1.7578125,0,0
-3.04790301015601E-05,-3.63960134563968E-06,1.7578125,0,0
-2.91405085590668E-05,3.35248387273168E-06,1.7578125,0,0
-2.88252558675595E-05,6.86359271639958E-06,1.7578125,0,0
-2.64867503574351E-05,5.11913049194845E-06,1.7578125,0,0
-2.69371575996047E-05,5.74965770283598E-06,1.7578125,0,0
-2.57182673522038E-05,6.06696221439051E-06,1.7578125,0,0
-2.61580171354581E-05,5.53802010472282E-06,1.7578125,0,0
-2.61095738096628E-05,5.65580103284447E-06,1.7578125,0,0
-2.89088657154934E-05,9.80923596216599E-06,1.7578125,0,0
-2.90956286335131E-05,1.30774214994744E-05,1.7578125,0,0
-2.68943931587273E-05,1.33354487843462E-05,1.7578125,0,0
-2.46133022301365E-05,1.28401488836971E-05,1.7578125,0,0
-2.53359576163348E-05,1.38123214128427E-05,1.7578125,0,0
-2.52892732532928E-05,1.39750181915588E-05,1.7578125,0,0
-2.38594220718369E-05,1.29941308841808E-05,1.7578125,0,0
-1.88018602784723E-05,1.18421385195688E-05,1.7578125,0,0
-2.70858745352598E-05,2.06514614546904E-05,1.7578125,0,0
-2.23317147174384E-05,1.92510578926886E-05,1.7578125,0,0
-2.84526595351053E-05,2.35813804465579E-05,1.7578125,0,0
-2.42366804741323E-05,2.31253325182479E-05,1.7578125,0,0
-2.61137647612486E-05,1.77516085386742E-05,1.7578125,0,0
-2.34525596169988E-05,1.26284703583224E-05,1.7578125,0,0
-2.35939187405165E-05,1.55112156789983E-05,1.7578125,0,0
-2.19645517063327E-05,1.49417501233984E-05,1.7578125,0,0
-2.22146736632567E-05,1.64417251653504E-05,1.7578125,0,0
-2.34401195484679E-05,1.7483631381765E-05,1.7578125,0,0
-2.38751617871458E-05,1.30845037347171E-05,1.7578125,0,0
-2.55302365985699E-05,1.30200805870118E-05,1.7578125,0,0
-2.42682817770401E-05,1.85649914783426E-05,1.7578125,0,0
-2.44197326537687E-05,2.09653862839332E-05,1.7578125,0,0
-2.34325998462737E-05,1.60906365636038E-05,1.7578125,0,0
-2.52705031016376E-05,1.19594951684121E-05,1.7578125,0,0
-2.51008477789583E-05,8.56127462611767E-06,1.7578125,0,0
-2.68992516794242E-05,6.91941613695235E-06,1.7578125,0,0
-2.74502417596523E-05,5.27947395312367E-06,1.7578125,0,0
-2.97532496915665E-05,5.41928238817491E-06,1.7578125,0,0
-2.9338641979848E-05,6.0068578022765E-06,1.7578125,0,0
-2.84022880805423E-05,7.31635373085737E-06,1.7578125,0,0
-2.58048512478126E-05,7.16584918336594E-06,1.7578125,0,0
-2.33561368077062E-05,6.27496092420188E-06,1.7578125,0,0
-2.25213261728641E-05,4.72919191452092E-06,1.7578125,0,0
-2.39179025811609E-05,5.9867747950193E-06,1.7578125,0,0
-2.01523689611349E-05,5.87572276344872E-06,1.7578125,0,0
-2.85062287730398E-05,1.01422110674321E-05,1.7578125,0,0
-2.08806632144842E-05,9.79173273663037E-06,1.7578125,0,0
-2.51576311711688E-05,1.52372977026971E-05,1.7578125,0,0
-2.12451486731879E-05,1.74519918800797E-05,1.7578125,0,0
-2.53573271038476E-05,1.10846067400416E-05,1.7578125,0,0
-2.38672910199966E-05,7.13240478944499E-06,1.7578125,0,0
-2.37736530834809E-05,1.08811409518239E-05,1.7578125,0,0
-2.03946401597932E-05,9.17194392968668E-06,1.7578125,0,0
-1.91601866390556E-05,9.14348947844701E-06,1.7578125,0,0
-2.08107812795788E-05,1.42177023008117E-05,1.7578125,0,0
-2.23430834012106E-05,1.52055017679231E-05,1.7578125,0,0
-2.47733787546167E-05,1.46929551192443E-05,1.7578125,0,0
-2.39543605857762E-05,1.43657716762391E-05,1.7578125,0,0
-2.39104338106699E-05,8.67118615133222E-06,1.7578125,0,0
-2.13162566069514E-05,-8.11545476153697E-07,1.7578125,0,0
-2.1759609808214E-05,-5.5770992730686E-06,1.7578125,0,0
-2.20150377572281E-05,-5.58704687136924E-06,1.7578125,0,0
-2.52508834819309E-05,-2.49459480983205E-06,1.7578125,0,0
-2.48061223828699E-05,1.24807115753356E-06,1.7578125,0,0
-2.3558870452689E-05,3.54625672116526E-06,1.7578125,0,0
-2.13827315747039E-05,1.55299198922876E-06,1.7578125,0,0
-2.23276656470262E-05,-3.09900838146859E-06,1.7578125,0,0
-2.32904640142806E-05,-7.3835681178025E-06,1.7578125,0,0
-2.28198696277104E-05,-7.82259940024232E-06,1.7578125,0,0
-2.10592334042303E-05,-5.70703332414269E-06,1.7578125,0,0
-2.14675073948456E-05,-2.58484692494676E-06,1.7578125,0,0
-1.92162387975259E-05,2.0600896277756E-06,1.7578125,0,0
-2.77907001873245E-05,5.90730041949428E-06,1.7578125,0,0
-2.05688265850767E-05,5.23163453181041E-06,1.7578125,0,0
-2.42248042923165E-05,7.7476370279328E-06,1.7578125,0,0
-2.08924957405543E-05,1.43076194945024E-05,1.7578125,0,0
-2.3605658498127E-05,1.19537935461267E-05,1.7578125,0,0
-1.99336409423267E-05,1.31452234199969E-05,1.7578125,0,0
-1.82524436240783E-05,1.64050725288689E-05,1.7578125,0,0
-1.63726544997189E-05,9.34298350330209E-06,1.7578125,0,0
-1.66971567523433E-05,6.89327953296015E-06,1.7578125,0,0
-1.74288670677925E-05,1.33690973598277E-05,1.7578125,0,0
-1.78549544216366E-05,1.67192301887553E-05,1.7578125,0,0
-1.92537590919528E-05,1.79642411239911E-05,1.7578125,0,0
-1.72921736520948E-05,1.92825245903805E-05,1.7578125,0,0
-1.75478999153711E-05,1.70071634784108E-05,1.7578125,0,0
-1.75517780007795E-05,1.15716302389046E-05,1.7578125,0,0
-1.94503663806245E-05,6.84769111103378E-06,1.7578125,0,0
-1.88686499313917E-05,4.59558532384108E-06,1.7578125,0,0
-2.09350164368516E-05,4.95680615131278E-06,1.7578125,0,0
-2.16784956137417E-05,7.01689532434102E-06,1.7578125,0,0
-2.31096582865575E-05,7.31835461920127E-06,1.7578125,0,0
-2.19407374970615E-05,5.20336152476375E-06,1.7578125,0,0
-2.12078884942457E-05,3.81450331587985E-06,1.7578125,0,0
-2.08124802156817E-05,5.11003145220457E-06,1.7578125,0,0
-2.22730559471529E-05,7.65907952882117E-06,1.7578125,0,0
-2.41743418882834E-05,1.04228702184628E-05,1.7578125,0,0
-2.53248181252275E-05,1.29315212689107E-05,1.7578125,0,0
-2.04277403099695E-05,1.20804415928433E-05,1.7578125,0,0
-2.96797152259387E-05,1.3310649592313E-05,1.7578125,0,0
-2.33352657232899E-05,1.93017376659554E-06,1.7578125,0,0
-2.78094557870645E-05,8.01130136096617E-06,1.7578125,0,0
-2.32093316299142E-05,1.28550282170181E-05,1.7578125,0,0
-2.64253212662879E-05,1.12544994408381E-05,1.7578125,0,0
-2.42258065554779E-05,7.70959559304174E-06,1.7578125,0,0
-2.46657800744288E-05,1.22517985801096E-05,1.7578125,0,0
-2.27410182560561E-05,1.0578040019027E-05,1.7578125,0,0
-2.21570753637934E-05,9.88536612567259E-06,2.98828125,0,0
-2.23884726437973E-05,1.33214234665502E-05,2.98828125,0,0
-2.2043082935852E-05,1.40758593261125E-05,2.98828125,0,0
-2.28053813771112E-05,1.6527199477423E-05,2.98828125,0,0
-2.12728300539311E-05,1.89793208846822E-05,2.98828125,0,0
-2.16902444662992E-05,1.77181773324264E-05,2.98828125,0,0
-2.08583242056193E-05,1.29166019178228E-05,2.98828125,0,0
-2.35885527217761E-05,1.26189916045405E-05,2.98828125,0,0
-2.37846215895843E-05,1.24273628898663E-05,2.98828125,0,0
-2.44286820816342E-05,1.36926682898775E-05,2.98828125,0,0
-2.22580129047856E-05,1.50754412970855E-05,2.98828125,0,0
-2.22237649722956E-05,1.65404308063444E-05,2.98828125,0,0
-2.18537243199535E-05,1.4313393876364E-05,2.98828125,0,0
-2.33307109738234E-05,1.33709281726624E-05,2.98828125,0,0
-2.42687565332744E-05,1.5493626051466E-05,2.98828125,0,0
-2.58606887655333E-05,1.75056484295055E-05,2.98828125,0,0
-2.62419889622834E-05,1.64775865414413E-05,2.98828125,0,0
-2.49086151598021E-05,1.58044895215426E-05,2.98828125,0,0
-1.82567855517846E-05,1.27905559565988E-05,2.98828125,0,0
-2.44715283770347E-05,1.96458804566646E-05,2.98828125,0,0
-1.80562838067999E-05,1.4434801414609E-05,2.98828125,0,0
-2.38701977650635E-05,1.87179412023397E-05,2.98828125,0,0
-1.95990032807458E-05,1.97564277186757E-05,2.98828125,0,0
-2.26402316911845E-05,1.61773750733119E-05,2.98828125,0,0
-2.13724542845739E-05,1.4746005035704E-05,2.98828125,0,0
-2.20414822251769E-05,2.03459840122378E-05,2.98828125,0,0
-2.10251746466383E-05,1.54204462887719E-05,2.98828125,0,0
-2.21263544517569E-05,1.43154211400542E-05,2.98828125,0,0
-2.31675076065585E-05,1.73871267179493E-05,2.98828125,0,0
-2.20525871554855E-05,1.46561151268543E-05,2.98828125,0,0
-2.18898294406245E-05,1.2309036719671E-05,2.98828125,0,0
-2.08991314138984E-05,1.36158778332174E-05,2.98828125,0,0
-2.34312192333164E-05,1.47036607813789E-05,2.98828125,0,0
-2.43618815147784E-05,1.11686049422133E-05,2.98828125,0,0
-2.62342528003501E-05,1.10164082798292E-05,2.98828125,0,0
-2.45503360929433E-05,1.19191681733355E-05,2.98828125,0,0
-2.47096177190542E-05,1.24113248602953E-05,2.98828125,0,0
-2.33499868045328E-05,9.75243528955616E-06,2.98828125,0,0
-2.45042501774151E-05,8.27618987386813E-06,2.98828125,0,0
-2.61394397966797E-05,8.1779862739495E-06,2.98828125,0,0
-2.79500400210964E-05,1.13007617983385E-05,2.98828125,0,0
-2.68574895017082E-05,1.22452202049317E-05,2.98828125,0,0
-2.62945086433319E-05,1.14630984171527E-05,2.98828125,0,0
-2.72777760983445E-05,1.16578321467387E-05,2.98828125,0,0
-2.84279485640582E-05,1.3287179172039E-05,2.98828125,0,0
-2.20621077460237E-05,1.40419451781781E-05,2.98828125,0,0
-2.98966551781632E-05,2.28034205065342E-05,2.98828125,0,0
-2.10405705729499E-05,1.73894532053964E-05,2.98828125,0,0
-2.70763648586581E-05,1.94056083273608E-05,2.98828125,0,0
-2.32735965255415E-05,1.66471691045444E-05,2.98828125,0,0
-2.69777701760177E-05,9.01260500540957E-06,2.98828125,0,0
-2.35913776123198E-05,3.77999276679475E-06,2.98828125,0,0
-2.35286388488021E-05,9.47458920563804E-06,2.98828125,0,0
-2.28519074880751E-05,9.42351289268117E-06,2.98828125,0,0
-2.4315006157849E-05,9.67269807006232E-06,2.98828125,0,0
-2.46024374064291E-05,1.40263900902937E-05,2.98828125,0,0
-2.29577472055098E-05,1.23525733215502E-05,2.98828125,0,0
-2.42503356275847E-05,7.23619632481132E-06,2.98828125,0,0
-2.4361284886254E-05,2.20938045458752E-06,2.98828125,0,0
-2.7064041205449E-05,-3.08063295051397E-06,2.98828125,0,0
-2.68196508841356E-05,-8.43688849272439E-06,2.98828125,0,0
-2.77036506304285E-05,-7.2714024099696E-06,2.98828125,0,0
-2.49070635618409E-05,-4.74521948490292E-06,2.98828125,0,0
-2.47409989242442E-05,-1.8320994286114E-06,2.98828125,0,0
-2.3036836864776E-05,-2.10860230254184E-06,2.98828125,0,0
-2.26084048335906E-05,-1.19100536721817E-06,2.98828125,0,0
-2.11976257560309E-05,1.93022447092517E-06,2.98828125,0,0
-2.25402854994172E-05,3.77422907149594E-06,2.98828125,0,0
-2.28875451284694E-05,3.61791217073915E-06,2.98828125,0,0
-2.32773727475433E-05,5.87250997341471E-06,2.98828125,0,0
-2.24063569476129E-05,7.86141117714578E-06,2.98828125,0,0
-2.10175167012494E-05,9.37766071729129E-06,2.98828125,0,0
-1.64975335792406E-05,1.07756786746904E-05,2.98828125,0,0
-2.39185719692614E-05,1.69740851561073E-05,2.98828125,0,0
-1.88841950148344E-05,1.35255240820698E-05,2.98828125,0,0
-2.34131457546027E-05,2.15553864109097E-05,2.98828125,0,0
-2.10088146559428E-05,2.6197791157756E-05,2.98828125,0,0
-2.4262200895464E-05,1.96389883058146E-05,2.98828125,0,0
-2.25630064960569E-05,1.24320413306123E-05,2.98828125,0,0
-2.38015800277935E-05,1.46861284520128E-05,2.98828125,0,0
-2.5055478545255E-05,1.52236434587394E-05,2.98828125,0,0
-2.58105719694868E-05,1.81025552592473E-05,2.98828125,0,0
-2.49798449658556E-05,2.0664454496E-05,2.98828125,0,0
-2.32026013691211E-05,1.45919066198985E-05,2.98828125,0,0
-2.37446965911658E-05,9.75128477875842E-06,2.98828125,0,0
-2.41285015363246E-05,1.18856860353844E-05,2.98828125,0,0
-2.59949702012818E-05,1.24011312436778E-05,2.98828125,0,0
-2.46493818849558E-05,6.27864255875465E-06,2.98828125,0,0
-2.41975412791362E-05,2.81084908237972E-06,2.98828125,0,0
-2.2919781258679E-05,3.2138943879545E-06,2.98828125,0,0
