biceps_emg, triceps_emg, subject_position, position_estimate, brace_position
5.78036815568339E-06,-1.73245534824673E-05,1.0546875,0,0
4.44651641373639E-06,-1.72186737472657E-05,1.0546875,0,0
3.44151794706704E-06,-1.70319490280235E-05,1.0546875,0,0
3.68462156075111E-06,-1.84976561286021E-05,1.0546875,0,0
3.39670759785804E-06,-1.9712782886927E-05,1.0546875,0,0
2.88263004222244E-06,-2.06406057259301E-05,1.0546875,0,0
2.42554801843653E-06,-1.96041492017685E-05,1.0546875,0,0
2.60425417764054E-06,-1.96745222638128E-05,1.0546875,0,0
1.61211585236742E-06,-1.87547684618039E-05,1.0546875,0,0
1.43337535973842E-06,-1.91647886822466E-05,1.0546875,0,0
1.64721620876662E-06,-1.89512284123339E-05,1.0546875,0,0
1.28458941617282E-06,-1.9733679437195E-05,1.0546875,0,0
-7.49396491528387E-08,-1.92548504855949E-05,1.0546875,0,0
1.80939593974472E-07,-1.81075083673932E-05,1.0546875,0,0
1.61324646796857E-06,-1.71383580891415E-05,1.0546875,0,0
2.28074213737273E-06,-1.69206705322722E-05,1.0546875,0,0
1.42120416057878E-06,-1.54055378516205E-05,1.0546875,0,0
3.78141976398183E-07,-1.45511812661425E-05,1.0546875,0,0
8.29763223464397E-07,-1.32098703033989E-05,1.0546875,0,0
2.59457920037676E-06,-1.981771310966E-05,1.0546875,0,0
3.75664603780024E-06,-1.45745570989675E-05,1.0546875,0,0
2.41080329033139E-06,-1.46827524076798E-05,1.0546875,0,0
8.02693250534503E-07,-9.49330387811642E-06,1.0546875,0,0
6.19546256075409E-07,-1.00790794022032E-05,1.0546875,0,0
1.29934892356687E-06,-9.21009450394195E-06,1.0546875,0,0
2.28463750318042E-06,-1.11052777356235E-05,1.0546875,0,0
1.41997099945002E-06,-1.05290491774213E-05,1.0546875,0,0
4.38971909488828E-07,-9.1804195108125E-06,1.0546875,0,0
7.84064866365952E-07,-9.62436479312601E-06,1.0546875,0,0
1.91730146070768E-06,-1.08711565189878E-05,1.0546875,0,0
2.76543528343609E-06,-1.35786222017487E-05,1.0546875,0,0
2.21673781197751E-06,-1.35039736051112E-05,1.0546875,0,0
8.97884262940352E-07,-1.32851864691474E-05,1.0546875,0,0
9.11986091978179E-07,-1.28266210595029E-05,1.0546875,0,0
2.4297501113324E-06,-1.52228240040131E-05,1.0546875,0,0
3.10730843011697E-06,-1.56598889589077E-05,1.0546875,0,0
2.49731988333224E-06,-1.57262711582007E-05,1.0546875,0,0
1.80194888343976E-06,-1.46527881952352E-05,1.0546875,0,0
2.38682218878239E-06,-1.46949450936518E-05,1.0546875,0,0
3.30444481733139E-06,-1.39625926749432E-05,1.0546875,0,0
3.62487867278105E-06,-1.41011087180232E-05,1.0546875,0,0
4.02248224418145E-06,-1.43739353006822E-05,1.0546875,0,0
5.95238134337706E-06,-1.50689156726003E-05,1.0546875,0,0
8.82268159330124E-06,-1.60994259204017E-05,1.0546875,0,0
1.01501791505143E-05,-1.6400092135882E-05,1.0546875,0,0
5.69738313060952E-06,-1.23963372971048E-05,1.0546875,0,0
5.25675432072603E-06,-1.68142705661012E-05,1.0546875,0,0
9.60219722401234E-07,-1.24089965538587E-05,1.0546875,0,0
1.9566857645259E-06,-1.73264288605424E-05,1.0546875,0,0
6.72746196528351E-08,-1.6023976058932E-05,1.0546875,0,0
3.54247003997443E-06,-1.84989039553329E-05,1.0546875,0,0
5.1544229791034E-06,-1.84763321158243E-05,1.0546875,0,0
6.36522554486874E-06,-1.98144934984157E-05,1.0546875,0,0
5.71465488974354E-06,-1.8455848476151E-05,1.0546875,0,0
6.08220352660283E-06,-1.74227134266403E-05,1.0546875,0,0
6.73156864650082E-06,-1.71884839801351E-05,1.0546875,0,0
5.85310135647887E-06,-1.57397917064372E-05,1.0546875,0,0
4.20559854319436E-06,-1.55150082719047E-05,1.0546875,0,0
2.66175516117073E-06,-1.56488295033341E-05,1.0546875,0,0
3.98382098865113E-06,-1.69753220689017E-05,1.0546875,0,0
5.29378166902461E-06,-1.66647441801615E-05,1.0546875,0,0
5.8788136811927E-06,-1.79003545781598E-05,1.0546875,0,0
4.09793983635609E-06,-1.84856107807718E-05,1.0546875,0,0
4.03402918891516E-06,-1.97937679331517E-05,1.0546875,0,0
4.84677502754494E-06,-1.84388081834186E-05,1.0546875,0,0
6.34503521723673E-06,-1.81009363586782E-05,1.0546875,0,0
5.4376432672143E-06,-1.72396921698237E-05,1.0546875,0,0
3.6936205560778E-06,-1.62877149705309E-05,1.0546875,0,0
2.78498600891908E-06,-1.45927697303705E-05,1.0546875,0,0
3.27464977090131E-06,-1.45528383654892E-05,1.0546875,0,0
2.26158454097458E-06,-1.57952817971818E-05,1.0546875,0,0
7.60484908823855E-07,-1.85690078069456E-05,1.0546875,0,0
9.78474417934194E-07,-1.71485626196954E-05,1.0546875,0,0
2.1172756987653E-06,-2.4519264115952E-05,1.0546875,0,0
2.96345842798473E-06,-1.77584042830858E-05,1.0546875,0,0
4.26134056397132E-06,-2.05602518690284E-05,1.0546875,0,0
5.42466068509384E-06,-1.70040402736049E-05,1.0546875,0,0
6.53414235785021E-06,-2.09762565646088E-05,1.0546875,0,0
6.42138547846116E-06,-1.98945326701505E-05,1.0546875,0,0
5.00737041875254E-06,-1.92642546608113E-05,1.0546875,0,0
4.6356344682863E-06,-1.63784279720858E-05,1.0546875,0,0
4.9727991608961E-06,-1.5878094927757E-05,1.0546875,0,0
4.19196976508829E-06,-1.79196777025936E-05,1.0546875,0,0
1.82574751761422E-06,-2.00520898943068E-05,1.0546875,0,0
-1.02181312300331E-08,-2.33684222621378E-05,1.0546875,0,0
-7.56133204049547E-07,-2.45969749812502E-05,1.0546875,0,0
-6.9703986582681E-07,-2.58079071500106E-05,1.0546875,0,0
-7.60560226353846E-07,-2.32001166295959E-05,1.0546875,0,0
-1.08569281564996E-06,-2.21308237087214E-05,1.0546875,0,0
-7.86971384059143E-07,-1.92108727787854E-05,1.0546875,0,0
-3.32852039264253E-07,-1.82152743946062E-05,1.0546875,0,0
-8.90678450105042E-07,-1.77988367795479E-05,1.0546875,0,0
-2.01241823560849E-06,-2.04880907404004E-05,1.0546875,0,0
-2.69750648840272E-06,-2.15083400689764E-05,1.0546875,0,0
-2.25889129978896E-06,-2.13822786463425E-05,1.0546875,0,0
-8.18408693703532E-07,-1.82979892997537E-05,1.0546875,0,0
9.06544244116958E-07,-1.63010136020603E-05,1.0546875,0,0
1.00045713224972E-06,-1.59634255396668E-05,1.0546875,0,0
-4.79255220398045E-07,-1.56012301886221E-05,1.0546875,0,0
-5.47785475646378E-07,-1.29500540424488E-05,1.0546875,0,0
4.13711774172043E-07,-1.81039122253424E-05,1.0546875,0,0
1.8820652485374E-06,-1.16224646262708E-05,1.0546875,0,0
1.50831124301476E-06,-1.26478944366681E-05,1.0546875,0,0
1.30791306673927E-06,-9.35313710215269E-06,1.0546875,0,0
1.12657107820269E-06,-1.15032444227836E-05,1.0546875,0,0
1.62889796229138E-06,-1.12271782199969E-05,1.0546875,0,0
2.28836051974213E-06,-1.15616212497116E-05,1.0546875,0,0
2.71311591859558E-06,-1.08627045847243E-05,1.0546875,0,0
2.51235815085238E-06,-1.29025165733765E-05,1.0546875,0,0
2.90492857857316E-06,-1.57080248754937E-05,1.0546875,0,0
3.69594499716186E-06,-1.59582741616759E-05,1.0546875,0,0
2.84625434687769E-06,-1.63885779329576E-05,1.0546875,0,0
2.30966907110997E-06,-1.62428732437547E-05,1.0546875,0,0
3.09175447910093E-06,-1.78065474756295E-05,1.0546875,0,0
4.53364600616624E-06,-1.84210421139142E-05,1.0546875,0,0
4.52948279416887E-06,-2.03771014639642E-05,1.0546875,0,0
3.40355950356752E-06,-2.08414276130497E-05,1.0546875,0,0
2.3410580070049E-06,-2.15059681067942E-05,1.0546875,0,0
2.47318553192599E-06,-1.93359901459189E-05,1.0546875,0,0
2.7087037324236E-06,-1.70356470334809E-05,1.0546875,0,0
2.27126997742744E-06,-1.41316313602147E-05,1.0546875,0,0
1.65542110153183E-06,-1.3010397196922E-05,1.0546875,0,0
2.43806061916985E-06,-1.33917319544707E-05,1.0546875,0,0
5.11095231559011E-06,-1.58060956891859E-05,1.0546875,0,0
6.15095314060454E-06,-1.6952168152784E-05,1.0546875,0,0
5.36319930688478E-06,-1.60356321430299E-05,1.0546875,0,0
3.66986341759912E-06,-1.30760208776337E-05,1.0546875,0,0
5.09927713210345E-06,-1.94918229681207E-05,1.0546875,0,0
5.05129128214321E-06,-1.67667622008594E-05,1.0546875,0,0
8.76318790687947E-06,-2.03094186872477E-05,1.0546875,0,0
8.83344091562321E-06,-1.57780905283289E-05,1.0546875,0,0
7.74637555878144E-06,-1.62540636665653E-05,1.0546875,0,0
5.55791939405026E-06,-1.50022815432749E-05,1.0546875,0,0
4.03445847041439E-06,-1.59999126481125E-05,1.0546875,0,0
2.87282637145836E-06,-1.57810864038765E-05,1.0546875,0,0
4.53520669907448E-06,-1.57194608618738E-05,1.0546875,0,0
7.02603620084119E-06,-1.5497209460591E-05,1.0546875,0,0
7.00052351021441E-06,-1.47804948937846E-05,1.0546875,0,0
5.98198676016182E-06,-1.61499010573607E-05,1.0546875,0,0
5.23372864336125E-06,-1.65458041010424E-05,1.0546875,0,0
5.20982166563044E-06,-1.61557600222295E-05,1.0546875,0,0
5.45167586096795E-06,-1.3483096154232E-05,1.0546875,0,0
6.28710358796525E-06,-1.32710438265349E-05,1.0546875,0,0
5.87998465562123E-06,-1.30041671582148E-05,1.0546875,0,0
5.04211084262352E-06,-1.44794930747594E-05,1.0546875,0,0
3.70626162293775E-06,-1.38319828693056E-05,1.0546875,0,0
4.00538056055666E-06,-1.3584952284873E-05,1.0546875,0,0
4.96441725772456E-06,-1.33545026983484E-05,1.0546875,0,0
4.6233485591074E-06,-1.36327907966916E-05,1.0546875,0,0
3.02848184219329E-06,-1.24534490169026E-05,1.0546875,0,0
2.5563322196831E-06,-1.186178997159E-05,1.0546875,0,0
2.73215323431941E-06,-1.3143853720976E-05,1.0546875,0,0
1.90084699625004E-06,-1.64525681611849E-05,1.0546875,0,0
8.30492979275732E-07,-1.51167378135142E-05,1.0546875,0,0
2.19979619942023E-06,-2.13433504541172E-05,1.0546875,0,0
2.93081234303827E-06,-1.65661149367224E-05,1.0546875,0,0
3.77140418095223E-06,-2.17589767999016E-05,1.0546875,0,0
2.96176358460798E-06,-2.06146869459189E-05,1.0546875,0,0
2.12782296671321E-07,-2.41112884395989E-05,1.0546875,0,0
-5.61166189072537E-07,-2.1950052541797E-05,1.0546875,0,0
1.36759331326175E-06,-2.13143921428127E-05,1.0546875,0,0
3.33641469296708E-06,-1.99382047867402E-05,1.0546875,0,0
2.82225346381892E-06,-2.04930747713661E-05,1.0546875,0,0
1.47045079756936E-06,-2.16203443414997E-05,1.0546875,0,0
1.15399836886354E-06,-2.12104496313259E-05,1.0546875,0,0
2.43009390032967E-06,-2.12714567169314E-05,1.0546875,0,0
4.23489473178051E-06,-2.00349386432208E-05,1.0546875,0,0
5.43947498954367E-06,-2.01086113520432E-05,1.0546875,0,0
5.76528600504389E-06,-1.8626791643328E-05,1.0546875,0,0
5.53647441847716E-06,-1.98544948943891E-05,1.0546875,0,0
5.39366146767861E-06,-2.01830807782244E-05,1.0546875,0,0
4.55634472018573E-06,-2.20240981434472E-05,1.0546875,0,0
3.06897186419519E-06,-2.13478451769333E-05,1.0546875,0,0
2.308314151378E-06,-2.03129657165846E-05,1.0546875,0,0
2.80080803349847E-06,-1.78199534275336E-05,1.0546875,0,0
2.79375103673374E-06,-1.75176173797809E-05,1.0546875,0,0
2.19249591282278E-06,-1.73154021467781E-05,1.0546875,0,0
1.8953122662424E-06,-1.78661903191824E-05,1.0546875,0,0
2.28283101932902E-06,-1.91639774129726E-05,1.0546875,0,0
2.55235408985754E-06,-1.95345110114431E-05,1.0546875,0,0
9.45366537052905E-07,-1.45706926559797E-05,1.0546875,0,0
2.41712609749811E-06,-2.07044868147932E-05,1.0546875,0,0
4.3182749323023E-06,-1.65411056514131E-05,1.0546875,0,0
4.53094889962813E-06,-1.96820383280283E-05,1.0546875,0,0
4.07056313633802E-06,-1.23253885249142E-05,1.0546875,0,0
5.70902784602367E-06,-1.105202591134E-05,1.0546875,0,0
6.20217360847164E-06,-9.9559583759401E-06,1.0546875,0,0
7.26561802366632E-06,-1.24154394143261E-05,1.0546875,0,0
7.73664214648306E-06,-1.24884281831328E-05,1.0546875,0,0
6.98394842402195E-06,-1.3617455806525E-05,1.0546875,0,0
5.12856740897405E-06,-1.64177708938951E-05,1.0546875,0,0
4.65153061668389E-06,-1.73581192939309E-05,1.0546875,0,0
5.86421811021864E-06,-1.76547855517128E-05,1.0546875,0,0
5.92268725085887E-06,-1.6717822290957E-05,1.0546875,0,0
4.62123944089399E-06,-1.68249207490589E-05,1.0546875,0,0
3.85622888643411E-06,-1.42204835356097E-05,1.0546875,0,0
5.08725588588277E-06,-1.44316481964779E-05,1.0546875,0,0
6.02019963480416E-06,-1.49133456943673E-05,1.0546875,0,0
5.42779571333085E-06,-1.62165979418205E-05,1.0546875,0,0
3.4388785934425E-06,-1.44108989843517E-05,1.0546875,0,0
2.21925120058586E-06,-1.37710967464955E-05,1.0546875,0,0
3.04471336676215E-06,-1.39652483994723E-05,1.0546875,0,0
4.44174247604678E-06,-1.61209427460562E-05,1.0546875,0,0
4.61992203781847E-06,-1.55807501869276E-05,1.0546875,0,0
4.65871062260703E-06,-1.29320824271417E-05,1.0546875,0,0
5.01611702929949E-06,-1.04586833913345E-05,1.0546875,0,0
4.75014849143918E-06,-1.00344059319468E-05,1.0546875,0,0
3.82132930099033E-06,-1.00925517472206E-05,1.0546875,0,0
4.22325592808193E-06,-1.62743181135738E-05,1.0546875,0,0
2.74083220119792E-07,-1.49346842590603E-05,1.0546875,0,0
4.49569796501237E-07,-1.76329394889763E-05,1.0546875,0,0
1.03464401490783E-06,-1.49139395944076E-05,1.0546875,0,0
1.49792310821795E-06,-1.61308689712314E-05,1.0546875,0,0
-1.03494312497787E-06,-1.68175156431971E-05,1.0546875,0,0
-2.31429498853686E-06,-1.79210073838476E-05,1.0546875,0,0
-2.37765630117792E-06,-1.80199149326654E-05,1.0546875,0,0
-2.77506319434906E-06,-1.86488523468142E-05,1.0546875,0,0
-2.79363575828029E-06,-1.89971779036568E-05,1.0546875,0,0
-1.86117654266127E-06,-1.8625358279678E-05,1.0546875,0,0
-2.03916627583567E-07,-1.90839000424603E-05,1.0546875,0,0
-2.65383278019726E-07,-1.86666711670114E-05,1.0546875,0,0
-8.52120422223379E-07,-1.89733436855022E-05,1.0546875,0,0
-9.1518296585491E-07,-1.88225294550648E-05,1.0546875,0,0
5.04590047967213E-07,-2.02651572180912E-05,1.0546875,0,0
1.73246041867969E-06,-2.04320767807076E-05,1.0546875,0,0
2.16185594581475E-06,-2.12925242522033E-05,1.0546875,0,0
1.2245642437847E-06,-2.21947630052455E-05,1.0546875,0,0
1.16340879685595E-06,-2.29649231187068E-05,1.0546875,0,0
2.3822517505323E-06,-2.19132161873858E-05,1.0546875,0,0
4.0751679080131E-06,-2.17655997403199E-05,1.0546875,0,0
4.03172361984616E-06,-2.09433583222562E-05,1.0546875,0,0
3.1523741199635E-06,-1.90209757420234E-05,1.0546875,0,0
2.60402634921775E-06,-1.71092433447484E-05,1.0546875,0,0
2.44195234699873E-06,-1.72531090356642E-05,1.0546875,0,0
1.49655375025759E-06,-1.60578547365731E-05,1.0546875,0,0
2.78925881502801E-06,-2.40245244640391E-05,1.0546875,0,0
3.83742735721171E-06,-1.86104171007173E-05,1.0546875,0,0
5.51096536582918E-06,-2.21389655052917E-05,1.0546875,0,0
5.09148321725661E-06,-2.10056277865078E-05,1.0546875,0,0
3.82998996428796E-06,-2.45491337409476E-05,1.0546875,0,0
2.81057918982697E-06,-2.16997741517844E-05,1.0546875,0,0
3.75737249669328E-06,-1.97819554159651E-05,1.0546875,0,0
4.79612981507671E-06,-1.73742446349934E-05,1.0546875,0,0
5.49496644453029E-06,-1.80388378794305E-05,1.0546875,0,0
5.72519411434769E-06,-1.83843567356234E-05,1.0546875,0,0
5.59824502488482E-06,-1.56208479893394E-05,1.0546875,0,0
6.17852947470965E-06,-1.41078171509434E-05,1.0546875,0,0
6.84479709889274E-06,-1.38489158416633E-05,1.0546875,0,0
6.52867493045051E-06,-1.55688121594721E-05,1.0546875,0,0
5.12684891873505E-06,-1.46192687680013E-05,1.0546875,0,0
3.23476297126035E-06,-1.45878384500975E-05,1.0546875,0,0
9.39840390401514E-07,-1.29210475279251E-05,1.0546875,0,0
-9.68495328379504E-07,-1.34848814923316E-05,1.0546875,0,0
-1.56920361860102E-06,-1.26653749248362E-05,1.0546875,0,0
-1.30560495748E-08,-1.37169508889201E-05,1.0546875,0,0
2.40197095990879E-06,-1.56722562678624E-05,1.0546875,0,0
4.33521017839666E-06,-1.84314867510693E-05,1.0546875,0,0
3.7594343211822E-06,-1.78605423570843E-05,1.0546875,0,0
1.82908365786716E-06,-1.69658906088443E-05,1.0546875,0,0
1.44277055369457E-06,-1.74298056663247E-05,1.0546875,0,0
2.1583425677818E-06,-1.76010798895732E-05,1.0546875,0,0
6.7653922997124E-07,-1.2945631169714E-05,1.0546875,0,0
4.47333093234192E-07,-1.73201588040683E-05,1.0546875,0,0
-2.8612970481845E-07,-1.40147267302382E-05,1.0546875,0,0
7.08600254029079E-08,-1.98299658222822E-05,1.0546875,0,0
1.20956451610255E-06,-1.62137985171285E-05,1.0546875,0,0
2.52591371463495E-06,-1.72041254700162E-05,1.0546875,0,0
1.97429972104146E-06,-1.6642830814817E-05,1.0546875,0,0
9.67365053838876E-07,-1.84861637535505E-05,1.0546875,0,0
-3.47744531836724E-07,-1.8659728084458E-05,1.0546875,0,0
7.68869909961722E-08,-1.89270667760866E-05,1.0546875,0,0
1.83925089913828E-06,-1.89613765542163E-05,1.0546875,0,0
2.69372458205908E-06,-1.75529239641037E-05,1.0546875,0,0
1.46355716879043E-06,-1.65799101523589E-05,1.0546875,0,0
-5.62141337923094E-07,-1.50159312397591E-05,1.0546875,0,0
-1.46265665534884E-06,-1.5849864212214E-05,1.0546875,0,0
-1.01362650184456E-06,-1.56881142174825E-05,1.0546875,0,0
7.72670489368466E-07,-1.7243975889869E-05,1.0546875,0,0
2.94116239274445E-06,-1.71365700225579E-05,1.0546875,0,0
4.79275195175433E-06,-1.73555508808931E-05,1.0546875,0,0
5.35963636139059E-06,-1.46326192407287E-05,1.0546875,0,0
5.8953837651643E-06,-1.30856633404619E-05,1.0546875,0,0
6.03288253842038E-06,-1.32083414428052E-05,1.0546875,0,0
5.31436080564163E-06,-1.47513010233524E-05,1.0546875,0,0
5.21334914083127E-06,-1.29212821775582E-05,1.0546875,0,0
5.9860794863198E-06,-1.02070162029122E-05,1.0546875,0,0
5.89427963859634E-06,-7.52092682887451E-06,1.0546875,0,0
5.26148551216465E-06,-5.30995021108538E-06,1.0546875,0,0
4.07834886573255E-06,-4.25301050199778E-06,1.0546875,0,0
6.60075738778687E-06,-7.41345729693421E-06,1.0546875,0,0
5.3104490689293E-06,-8.85398185346276E-06,1.0546875,0,0
4.21316144638695E-06,-1.31885381051688E-05,1.0546875,0,0
1.03553350072616E-06,-1.43614624903421E-05,1.0546875,0,0
1.21802725061571E-06,-1.48977587741683E-05,1.0546875,0,0
2.59909052147123E-06,-1.50192563523888E-05,1.0546875,0,0
4.52768244940671E-06,-1.51335189002566E-05,1.0546875,0,0
5.60338457944454E-06,-1.49011912071728E-05,1.0546875,0,0
6.17606110608904E-06,-1.47534992720466E-05,1.0546875,0,0
5.16867248734343E-06,-1.44522109621903E-05,1.0546875,0,0
3.80988080905809E-06,-1.45354724736535E-05,1.0546875,0,0
4.11545443057548E-06,-1.58538496179972E-05,1.0546875,0,0
4.77583034808049E-06,-1.74769211298553E-05,1.0546875,0,0
5.36650577487308E-06,-1.96223099919735E-05,1.0546875,0,0
5.67871347811888E-06,-2.15790769289015E-05,1.0546875,0,0
5.34465061718947E-06,-2.35429251915775E-05,1.0546875,0,0
3.83612950827228E-06,-2.39280689129373E-05,1.0546875,0,0
3.62977493750805E-06,-2.18294208025327E-05,1.0546875,0,0
4.57212354376679E-06,-1.81263367267093E-05,1.0546875,0,0
6.24078438704601E-06,-1.83121228474192E-05,1.0546875,0,0
6.68775737722171E-06,-2.10004109248985E-05,1.0546875,0,0
6.21435629000189E-06,-2.19292633119039E-05,1.0546875,0,0
4.34147477790248E-06,-2.03022773348494E-05,1.0546875,0,0
2.91969490717747E-06,-1.76060966623481E-05,1.0546875,0,0
1.33093624299363E-06,-1.62730157171609E-05,1.0546875,0,0
6.13950057459789E-10,-1.65794208442094E-05,1.0546875,0,0
2.81239806554368E-07,-1.49582037920482E-05,1.0546875,0,0
1.43009367548075E-06,-2.30127789109247E-05,1.0546875,0,0
3.22271898767212E-06,-1.80573861143785E-05,1.0546875,0,0
4.36073742093868E-06,-1.9146751583321E-05,1.0546875,0,0
4.09498716180678E-06,-1.50095793287619E-05,1.0546875,0,0
2.87912598651019E-06,-1.68998303706758E-05,1.0546875,0,0
2.57922988566861E-06,-1.597494338057E-05,1.0546875,0,0
3.84670374842244E-06,-1.75820277945604E-05,1.0546875,0,0
5.28290865986492E-06,-1.76867233676603E-05,1.0546875,0,0
5.43100577488076E-06,-1.8892622392741E-05,1.0546875,0,0
4.15364547734498E-06,-1.97849476535339E-05,1.0546875,0,0
3.47675245393475E-06,-1.90990886039799E-05,1.0546875,0,0
4.95771291753044E-06,-1.80102015292505E-05,1.0546875,0,0
5.40801283932524E-06,-1.61277239385527E-05,1.0546875,0,0
3.54852704731456E-06,-1.65320307132788E-05,1.0546875,0,0
2.08204914997623E-06,-1.5682919183746E-05,1.0546875,0,0
1.72762577221874E-06,-1.74278848135145E-05,1.0546875,0,0
1.73753801391285E-06,-1.89227994269459E-05,1.0546875,0,0
2.43770182351E-06,-2.12768445635447E-05,1.0546875,0,0
3.32244144374272E-06,-1.97943063540151E-05,1.0546875,0,0
3.41985514751286E-06,-1.80893439392094E-05,1.0546875,0,0
3.30466605191759E-06,-1.64710891112918E-05,1.0546875,0,0
2.60888214143051E-06,-1.72793934325455E-05,1.0546875,0,0
2.11112137549208E-06,-1.77995370904682E-05,1.0546875,0,0
2.26603378905565E-06,-1.63598051585723E-05,1.0546875,0,0
2.36828282140777E-06,-1.22573392218328E-05,1.0546875,0,0
1.73904129496805E-06,-1.02720641734777E-05,1.0546875,0,0
1.23512506888801E-06,-8.6041263784864E-06,1.0546875,0,0
2.78366837846988E-06,-1.26900449686218E-05,1.0546875,0,0
4.25627013100893E-06,-1.08418771560537E-05,1.0546875,0,0
5.76615184399998E-06,-1.39988824230386E-05,1.0546875,0,0
7.00534246789175E-06,-1.30818207253469E-05,1.0546875,0,0
8.517224159732E-06,-1.57805934577482E-05,1.0546875,0,0
8.16356259747408E-06,-1.79138733074069E-05,1.0546875,0,0
5.71484952160972E-06,-2.10164980671834E-05,1.0546875,0,0
3.61832871931256E-06,-2.26078736886848E-05,1.0546875,0,0
3.69858798876521E-06,-2.38842767430469E-05,1.0546875,0,0
3.49709512192931E-06,-2.37628119066358E-05,1.0546875,0,0
2.44306215790857E-06,-2.18251243495615E-05,1.0546875,0,0
1.46018544455728E-06,-2.11052520171506E-05,1.0546875,0,0
1.43523743645346E-06,-2.06625336431898E-05,1.0546875,0,0
2.26502288569463E-06,-2.09465106308926E-05,1.0546875,0,0
2.67644509222009E-06,-1.9855891878251E-05,1.0546875,0,0
2.36325649893843E-06,-1.99231926671928E-05,1.0546875,0,0
2.27081613957125E-06,-1.9940669517382E-05,1.0546875,0,0
3.93297432310646E-06,-2.12867053051014E-05,1.0546875,0,0
5.45599732504343E-06,-2.14115498238243E-05,1.0546875,0,0
5.25027735420736E-06,-2.1267456759233E-05,1.0546875,0,0
4.89694684802089E-06,-1.98840443772497E-05,1.0546875,0,0
6.30535441814573E-06,-1.82123021659208E-05,1.0546875,0,0
7.43510190659435E-06,-1.68165497598238E-05,1.0546875,0,0
7.26337975720526E-06,-1.62496089615161E-05,1.0546875,0,0
6.4825776462385E-06,-1.47138880493003E-05,1.0546875,0,0
5.40041082786047E-06,-1.3598520126834E-05,1.0546875,0,0
3.13007194563397E-06,-1.1847557289002E-05,1.0546875,0,0
4.84760857943911E-06,-1.77528709173203E-05,1.0546875,0,0
4.97420796818915E-06,-1.36654507514322E-05,1.0546875,0,0
6.30572185400524E-06,-1.54112767631887E-05,1.0546875,0,0
4.83300573250744E-06,-1.34104056996875E-05,1.0546875,0,0
4.90488264404121E-06,-1.65964720508782E-05,1.0546875,0,0
4.70097938887193E-06,-1.64144748850958E-05,1.0546875,0,0
4.83277881357935E-06,-1.67623966262909E-05,1.0546875,0,0
4.47503589384723E-06,-1.51188514792011E-05,1.0546875,0,0
3.97772646465455E-06,-1.39542044053087E-05,1.0546875,0,0
4.14528358305688E-06,-1.50523082993459E-05,1.0546875,0,0
5.15350666319137E-06,-1.69013237609761E-05,1.0546875,0,0
6.1686828303209E-06,-1.82547628355678E-05,1.0546875,0,0
5.80500727664912E-06,-1.71934807440266E-05,1.0546875,0,0
4.97294104206958E-06,-1.73280332091963E-05,1.0546875,0,0
4.10296252084663E-06,-1.60913532454288E-05,1.0546875,0,0
4.12578765462968E-06,-1.57412578118965E-05,1.0546875,0,0
4.49971366833779E-06,-1.41861000884091E-05,1.0546875,0,0
5.25638233739301E-06,-1.46423872138257E-05,1.0546875,0,0
4.99213820148725E-06,-1.49616580529255E-05,1.0546875,0,0
4.20866444983403E-06,-1.60068793775281E-05,1.0546875,0,0
2.48147466663795E-06,-1.58089569595177E-05,1.0546875,0,0
1.75389345713484E-06,-1.63680033438141E-05,1.0546875,0,0
2.12076338357292E-06,-1.68925871548709E-05,1.0546875,0,0
2.16871512748185E-06,-1.68805891007651E-05,1.0546875,0,0
1.54564463628049E-06,-1.59124610945582E-05,1.0546875,0,0
1.03072864021669E-06,-1.52028223965317E-05,1.0546875,0,0
9.59709154813027E-07,-1.21111670523533E-05,1.0546875,0,0
1.34729384626553E-06,-1.69661634572549E-05,1.0546875,0,0
2.4321639102709E-06,-1.36241524160141E-05,1.0546875,0,0
5.41695089850691E-06,-1.77302608790342E-05,1.0546875,0,0
6.63907030684641E-06,-1.66599584190408E-05,1.0546875,0,0
6.47351271254593E-06,-2.12683953577653E-05,1.0546875,0,0
6.55890426060068E-06,-2.01519615075085E-05,1.0546875,0,0
7.48624734114856E-06,-1.86714769370155E-05,1.0546875,0,0
7.61323326514685E-06,-1.63124950631754E-05,1.0546875,0,0
7.17564080332522E-06,-1.64597004186362E-05,1.0546875,0,0
6.70869530949858E-06,-1.78307836904423E-05,1.0546875,0,0
6.92992853146279E-06,-1.75735931406962E-05,1.0546875,0,0
7.65261029300746E-06,-1.68158658198081E-05,1.0546875,0,0
8.06021307653282E-06,-1.54215322254458E-05,1.0546875,0,0
8.09918674349319E-06,-1.64237371791387E-05,1.0546875,0,0
6.38462415736285E-06,-1.61654479597928E-05,1.0546875,0,0
3.774912784138E-06,-1.72758518601768E-05,1.0546875,0,0
2.2766998881707E-06,-1.62927444762317E-05,1.0546875,0,0
2.45847263613541E-06,-1.59025894390652E-05,1.0546875,0,0
2.57513511314755E-06,-1.49371671795961E-05,1.0546875,0,0
3.31078490489745E-06,-1.62786654982483E-05,1.0546875,0,0
4.23068695454276E-06,-1.71799256349914E-05,1.0546875,0,0
4.41495831182692E-06,-1.9574068574002E-05,1.0546875,0,0
3.71371970686596E-06,-2.15883719647536E-05,1.0546875,0,0
1.83042118351295E-06,-2.17994092963636E-05,1.0546875,0,0
-4.23704619834098E-07,-2.12265222216956E-05,1.0546875,0,0
-2.20849483412167E-06,-2.10638136195485E-05,1.0546875,0,0
-2.44173725150176E-06,-1.53793007484637E-05,1.0546875,0,0
-3.62376272278198E-06,-2.08217061299365E-05,1.0546875,0,0
-2.96337043437234E-06,-1.4625762560172E-05,1.0546875,0,0
-3.40845576829452E-06,-1.83139054570347E-05,1.0546875,0,0
-1.83084569016501E-06,-1.48272001752048E-05,1.0546875,0,0
-1.74980414158199E-07,-1.73189910128713E-05,1.0546875,0,0
2.28192857321119E-06,-1.62336400535423E-05,1.0546875,0,0
3.46476713275479E-06,-1.81604100362165E-05,1.0546875,0,0
3.70446241504396E-06,-1.74065880855778E-05,1.0546875,0,0
2.59219700637914E-06,-1.72273012140067E-05,1.0546875,0,0
1.43290617415914E-06,-1.74942924786592E-05,1.0546875,0,0
2.36792629948468E-06,-1.63278582476778E-05,1.0546875,0,0
4.24628797190962E-06,-1.52527718455531E-05,1.0546875,0,0
4.61672016172088E-06,-1.33877501866664E-05,1.0546875,0,0
2.40381018556945E-06,-1.55227680807002E-05,1.0546875,0,0
3.22260945040398E-07,-1.66624195117038E-05,1.0546875,0,0
8.41978717858183E-08,-1.82153507921612E-05,1.0546875,0,0
1.63078550485807E-06,-1.69775430549635E-05,1.0546875,0,0
2.72233023679291E-06,-1.82052190211834E-05,1.0546875,0,0
3.07589925796492E-06,-1.81715186045039E-05,1.0546875,0,0
2.14413603316643E-06,-1.90469127119286E-05,1.0546875,0,0
6.90392880642321E-07,-1.80874449142721E-05,1.0546875,0,0
-9.57775991849985E-09,-1.68934457178693E-05,1.0546875,0,0
1.24359246456152E-06,-1.48029612319078E-05,1.0546875,0,0
2.58472095993056E-06,-1.33217909024097E-05,1.0546875,0,0
1.44403668400628E-06,-1.2376593076624E-05,1.0546875,0,0
-7.76030191218524E-08,-1.31652523123194E-05,1.0546875,0,0
2.59206558439473E-07,-1.32244294945849E-05,1.0546875,0,0
5.31594935182511E-07,-1.98026500584092E-05,1.0546875,0,0
7.26211339951988E-07,-1.54755707626464E-05,1.0546875,0,0
1.99968030756281E-06,-1.78102436620975E-05,1.0546875,0,0
2.93024481834436E-06,-1.53467844938859E-05,1.0546875,0,0
2.88724299934984E-06,-1.78748559847008E-05,1.0546875,0,0
2.21673030864622E-06,-1.70510247698985E-05,1.0546875,0,0
9.63247885010787E-07,-1.65478777489625E-05,1.0546875,0,0
9.00082710586503E-08,-1.47795872180723E-05,1.0546875,0,0
-3.57734307954161E-07,-1.37417919177096E-05,1.0546875,0,0
-3.40887339689289E-07,-1.32063487399137E-05,1.0546875,0,0
4.17266363683666E-07,-1.25467322504846E-05,1.0546875,0,0
1.38519260417524E-06,-1.3088541891193E-05,1.0546875,0,0
1.99207670448232E-06,-1.31349452203722E-05,1.0546875,0,0
2.56819885180448E-06,-1.41219870783971E-05,1.0546875,0,0
3.4154381864937E-06,-1.32764953377773E-05,1.0546875,0,0
3.40365636475326E-06,-1.45766744026332E-05,1.0546875,0,0
2.29045554078766E-06,-1.60244817379862E-05,1.0546875,0,0
1.60132458404405E-06,-1.93011492228834E-05,1.0546875,0,0
1.94258223018551E-06,-2.14901047002058E-05,1.0546875,0,0
2.36290338762046E-06,-2.42171154241078E-05,1.0546875,0,0
2.57932470049127E-06,-2.55626709986245E-05,1.0546875,0,0
2.66449137598102E-06,-2.6861622245633E-05,1.0546875,0,0
1.83782310614333E-06,-2.65745438809972E-05,1.0546875,0,0
3.82773123419611E-07,-2.45104856730904E-05,1.0546875,0,0
-1.27454347875755E-06,-2.14546016650274E-05,1.0546875,0,0
-1.84561918104009E-06,-2.14696974580875E-05,1.0546875,0,0
-1.09648146917607E-06,-1.72835570992902E-05,1.0546875,0,0
-1.14570559617277E-06,-2.19529410969699E-05,1.0546875,0,0
-6.1555437014249E-07,-1.27565654111095E-05,1.0546875,0,0
-1.60460231768411E-07,-1.6996174963424E-05,1.0546875,0,0
2.92160052595136E-06,-1.34251176859834E-05,1.0546875,0,0
4.16866350860801E-06,-1.48932394949952E-05,1.0546875,0,0
2.41470320361259E-06,-1.16779792733723E-05,1.0546875,0,0
-1.32971294419804E-07,-1.41110376716824E-05,1.0546875,0,0
-1.36490984914417E-06,-1.56584083015332E-05,1.0546875,0,0
1.69591118037715E-07,-1.5526156857959E-05,1.0546875,0,0
2.95806739813997E-06,-1.48958160934853E-05,1.0546875,0,0
4.38148754255963E-06,-1.33429875859292E-05,1.0546875,0,0
4.58433123640134E-06,-1.34343099489342E-05,1.0546875,0,0
5.22312893735943E-06,-1.28111259982688E-05,1.0546875,0,0
6.22591687715612E-06,-1.4704181921843E-05,1.0546875,0,0
6.53485494694905E-06,-1.45492831506999E-05,1.0546875,0,0
4.8911542762653E-06,-1.53065248014173E-05,1.0546875,0,0
2.73799014394172E-06,-1.33502635435434E-05,1.0546875,0,0
2.17834167415276E-06,-1.3740574104304E-05,1.0546875,0,0
2.88433898276708E-06,-1.31884289658046E-05,1.0546875,0,0
2.55415511674073E-06,-1.3716670764552E-05,1.0546875,0,0
8.77860657055862E-07,-1.31665565277217E-05,1.0546875,0,0
-8.0414196190759E-08,-1.45215781230945E-05,1.0546875,0,0
7.61742512622732E-07,-1.59159735630965E-05,1.0546875,0,0
7.55357007165003E-07,-1.59822884597816E-05,1.0546875,0,0
-7.0990853373587E-07,-1.34711754071759E-05,1.0546875,0,0
-1.83228473815689E-06,-1.30473563331179E-05,1.0546875,0,0
2.75923014214641E-07,-1.26905852084747E-05,1.0546875,0,0
1.82760709321883E-06,-2.00716640392784E-05,1.0546875,0,0
2.90856542051188E-06,-1.85710105142789E-05,1.0546875,0,0
3.48915136783035E-06,-2.23255574383074E-05,1.0546875,0,0
5.79198604100384E-06,-1.94813856069231E-05,1.0546875,0,0
6.93004267304786E-06,-2.04166772164172E-05,1.0546875,0,0
5.74537807551678E-06,-1.865642843768E-05,1.0546875,0,0
3.9996839404921E-06,-1.92087754840031E-05,1.0546875,0,0
4.10253005611594E-06,-1.85079225047957E-05,1.0546875,0,0
6.04316755925538E-06,-1.9297442122479E-05,1.0546875,0,0
8.3047470980091E-06,-2.10857142519671E-05,1.0546875,0,0
9.08191850612639E-06,-2.08714100153884E-05,1.0546875,0,0
8.42337249196135E-06,-2.06884196813917E-05,1.0546875,0,0
7.33803381081088E-06,-1.88799913303228E-05,1.0546875,0,0
5.88862303629867E-06,-1.83860156539595E-05,1.0546875,0,0
4.78846914120368E-06,-1.70054045156576E-05,1.0546875,0,0
4.45180967290071E-06,-1.87219848157838E-05,1.0546875,0,0
4.44440138380742E-06,-1.98256693693111E-05,1.0546875,0,0
3.9951924009074E-06,-2.01616803678917E-05,1.0546875,0,0
2.28544672609132E-06,-1.83353222382721E-05,1.0546875,0,0
4.39768228943649E-07,-1.79848939296789E-05,1.0546875,0,0
8.54552638429595E-07,-1.69533104781294E-05,1.0546875,0,0
2.70318378170487E-06,-1.60846993821906E-05,1.0546875,0,0
3.30861053043918E-06,-1.62379965331638E-05,1.0546875,0,0
3.05094022223784E-06,-1.66811714734649E-05,1.0546875,0,0
2.86009071714943E-06,-1.58493676281068E-05,1.0546875,0,0
2.99893554256414E-06,-1.61347106768517E-05,1.0546875,0,0
3.66002564078372E-06,-1.40293950607884E-05,1.0546875,0,0
4.1867419895425E-06,-1.91361250472255E-05,1.0546875,0,0
1.30466730752232E-06,-1.38004506879952E-05,1.0546875,0,0
1.70584075931401E-06,-1.83542288141325E-05,1.0546875,0,0
1.52879761117219E-06,-1.55807592818746E-05,1.0546875,0,0
3.52791744262504E-06,-1.66026402439456E-05,1.0546875,0,0
5.18178012498538E-06,-1.43233583003166E-05,1.0546875,0,0
8.56789392855717E-06,-1.36586613734835E-05,1.0546875,0,0
1.0775088412629E-05,-1.17137797133182E-05,1.0546875,0,0
1.12120733319898E-05,-1.25594779092353E-05,1.0546875,0,0
9.4866236395319E-06,-1.52206039274461E-05,1.0546875,0,0
6.19796355749713E-06,-1.65106648637448E-05,1.0546875,0,0
4.888538569503E-06,-1.75482000486227E-05,1.0546875,0,0
5.1714005167014E-06,-1.6535092072445E-05,1.0546875,0,0
5.85502220928902E-06,-1.74074430105975E-05,1.0546875,0,0
5.43617443327094E-06,-1.78731297637569E-05,1.0546875,0,0
5.74986415813328E-06,-1.96905402845005E-05,1.0546875,0,0
5.86635405852576E-06,-1.86863999260822E-05,1.0546875,0,0
6.51510572424741E-06,-1.83880129043246E-05,1.0546875,0,0
6.838776243967E-06,-1.65005494636716E-05,1.0546875,0,0
6.24821268502274E-06,-1.69333179655951E-05,1.0546875,0,0
3.39628445544804E-06,-1.77427227754379E-05,1.0546875,0,0
3.567413671135E-07,-1.94112672033953E-05,1.0546875,0,0
-9.61747218752862E-07,-2.01109996851301E-05,1.0546875,0,0
5.56135717033612E-07,-1.93336181837367E-05,1.0546875,0,0
2.1179812392802E-06,-1.77280689968029E-05,1.0546875,0,0
1.48236006225488E-06,-1.72161981026875E-05,1.0546875,0,0
9.64670107350685E-07,-1.48443550642696E-05,1.0546875,0,0
2.13197495213535E-06,-2.02976261789445E-05,1.0546875,0,0
3.07485015582643E-06,-1.54456338350428E-05,1.0546875,0,0
3.8577122722927E-06,-2.03421295736916E-05,1.0546875,0,0
3.23183098771551E-06,-1.61266507348046E-05,1.0546875,0,0
2.18916329686181E-06,-1.65075543918647E-05,1.0546875,0,0
1.36677624595904E-06,-1.52063976202044E-05,1.0546875,0,0
5.54283587916871E-07,-1.75421464518877E-05,1.0546875,0,0
4.10702796216356E-07,-1.76013363670791E-05,1.0546875,0,0
1.90968421520665E-06,-1.87413243111223E-05,1.0546875,0,0
2.64184154730174E-06,-2.04168281925377E-05,1.0546875,0,0
1.64737230079481E-06,-1.95923312276136E-05,1.0546875,0,0
5.01477970260567E-08,-1.84415093826829E-05,1.0546875,0,0
-1.48611206896021E-06,-1.61592251970433E-05,1.0546875,0,0
-1.42142278036772E-06,-1.72438067238545E-05,1.0546875,0,0
-8.27378130452416E-07,-1.74003871507011E-05,1.0546875,0,0
-3.0416831009461E-07,-1.826912011893E-05,1.0546875,0,0
5.13260431489471E-07,-1.60736635734793E-05,1.0546875,0,0
9.09336165477725E-07,-1.58805505634518E-05,1.0546875,0,0
2.39454351458335E-07,-1.65219189511845E-05,1.0546875,0,0
1.77396060507817E-07,-1.87120804184815E-05,1.0546875,0,0
4.00890968421663E-07,-1.7756656234269E-05,1.0546875,0,0
-5.94171467582783E-08,-1.68522783496883E-05,1.0546875,0,0
4.86404132971074E-07,-1.6628790035611E-05,1.0546875,0,0
3.33171578859037E-06,-1.8001941498369E-05,1.0546875,0,0
5.69931671634549E-06,-1.7971362467506E-05,1.0546875,0,0
5.71487134948256E-06,-1.79117960215081E-05,1.0546875,0,0
3.38708719027636E-06,-1.53895489347633E-05,1.0546875,0,0
4.33015657108626E-06,-2.15990439755842E-05,1.0546875,0,0
4.04334514314542E-06,-1.62898322741967E-05,1.0546875,0,0
7.77267541707261E-06,-1.94680033018813E-05,1.0546875,0,0
7.57687575969612E-06,-1.55579509737436E-05,1.0546875,0,0
5.71850841879495E-06,-1.86585566552822E-05,1.0546875,0,0
3.5562275115808E-06,-1.75753539224388E-05,1.0546875,0,0
4.59433249488939E-06,-1.79346552613424E-05,1.0546875,0,0
5.5219566093001E-06,-1.67368816619273E-05,1.0546875,0,0
5.41930921826861E-06,-1.68516362464288E-05,1.0546875,0,0
4.95523363497341E-06,-1.71344672708074E-05,1.0546875,0,0
4.57894475403009E-06,-1.60121726366924E-05,1.0546875,0,0
4.35322453995468E-06,-1.49006964420551E-05,1.0546875,0,0
4.46571493739611E-06,-1.30652397274389E-05,1.0546875,0,0
5.18806655236403E-06,-1.41237769639702E-05,1.0546875,0,0
4.61910804006038E-06,-1.27441398944939E-05,1.0546875,0,0
3.73214516002918E-06,-1.26011200336507E-05,1.0546875,0,0
3.32860054186312E-06,-1.10956334538059E-05,1.0546875,0,0
5.010577297071E-06,-1.13437345135026E-05,1.0546875,0,0
6.68524398861337E-06,-9.86672876024386E-06,1.0546875,0,0
7.02788383932784E-06,-1.01352552519529E-05,1.0546875,0,0
5.02988450534758E-06,-1.05249346233904E-05,1.0546875,0,0
3.73322927771369E-06,-1.27117191368598E-05,1.0546875,0,0
4.15396925745881E-06,-1.3754935025645E-05,1.0546875,0,0
4.05576429329813E-06,-1.55019824887859E-05,1.0546875,0,0
2.3809295726096E-06,-1.70054026966682E-05,1.0546875,0,0
1.12376449123985E-06,-1.74783872353146E-05,1.0546875,0,0
-3.99631517211674E-07,-1.5118244846235E-05,1.0546875,0,0
-1.11449094220006E-06,-2.1736319467891E-05,1.0546875,0,0
-6.9275358782761E-07,-1.73933622136246E-05,1.0546875,0,0
5.70208385397564E-07,-2.31915146287065E-05,1.0546875,0,0
1.02600165519107E-06,-2.22804465010995E-05,1.0546875,0,0
1.85806459285232E-06,-2.46349209191976E-05,1.0546875,0,0
3.77303558707354E-06,-2.21796217374504E-05,1.0546875,0,0
5.10847712575924E-06,-2.27139462367632E-05,1.0546875,0,0
4.61912713944912E-06,-2.20126421481837E-05,1.0546875,0,0
2.47278762799397E-06,-2.15529216802679E-05,1.0546875,0,0
7.30692818251555E-07,-2.1836769519723E-05,1.0546875,0,0
7.01388501056499E-07,-2.22134858631762E-05,1.0546875,0,0
2.98593977277051E-06,-2.36471678363159E-05,1.0546875,0,0
5.32162630406674E-06,-2.28498811338795E-05,1.0546875,0,0
6.39598101770389E-06,-2.24934992729686E-05,1.0546875,0,0
5.98987526245764E-06,-2.04551779461326E-05,1.0546875,0,0
4.20755395680317E-06,-2.0054416381754E-05,1.0546875,0,0
3.10723453367245E-06,-1.76044304680545E-05,1.0546875,0,0
3.59989962817053E-06,-1.71217870956752E-05,1.0546875,0,0
5.39136453880928E-06,-1.54553235915955E-05,1.0546875,0,0
7.26655025573564E-06,-1.43573643072159E-05,1.0546875,0,0
7.11874872649787E-06,-1.40407310027513E-05,1.0546875,0,0
4.37156995758414E-06,-1.64131161000114E-05,1.0546875,0,0
2.02279898076085E-06,-1.62894211825915E-05,1.0546875,0,0
2.19128810385882E-06,-1.58985239977483E-05,1.0546875,0,0
3.92157653550385E-06,-1.55786474351771E-05,1.0546875,0,0
4.71159819426248E-06,-1.38180739668314E-05,1.0546875,0,0
3.52924689650536E-06,-1.05037934190477E-05,1.0546875,0,0
4.12130293625523E-06,-1.50110945469351E-05,1.0546875,0,0
2.48859419116343E-06,-1.27076182252495E-05,1.0546875,0,0
3.49091442330973E-06,-1.6326714103343E-05,1.0546875,0,0
2.52277368417708E-06,-1.33323883346748E-05,1.0546875,0,0
3.80626511287119E-06,-1.33791118059889E-05,1.0546875,0,0
4.79588197777048E-06,-1.13325759230065E-05,1.0546875,0,0
6.15292856309679E-06,-1.13134001367143E-05,1.0546875,0,0
4.86005183120142E-06,-1.08992080640746E-05,1.0546875,0,0
3.24285747410613E-06,-1.25401902550948E-05,1.0546875,0,0
2.278072088302E-06,-1.37771321533364E-05,1.0546875,0,0
2.10180769499857E-06,-1.367530785501E-05,1.0546875,0,0
2.98845111501578E-06,-1.42577873702976E-05,1.0546875,0,0
3.96685982195777E-06,-1.31393608171493E-05,1.0546875,0,0
5.71114742342616E-06,-1.33859393827152E-05,1.0546875,0,0
7.08917650626972E-06,-1.18465213745367E-05,1.0546875,0,0
8.61147873365553E-06,-1.11487597678206E-05,1.0546875,0,0
8.71274460223503E-06,-1.08766143966932E-05,1.0546875,0,0
8.0230092862621E-06,-1.39981902975705E-05,1.0546875,0,0
5.84750750931562E-06,-1.5212095604511E-05,1.0546875,0,0
4.67785457658465E-06,-1.45746425914695E-05,1.0546875,0,0
5.60727630727342E-06,-1.35172949740081E-05,1.0546875,0,0
7.33794558982481E-06,-1.41433256430901E-05,1.0546875,0,0
6.12577741776477E-06,-1.37516335598775E-05,1.0546875,0,0
5.20598723596777E-06,-1.27649273053976E-05,1.0546875,0,0
5.67441202292684E-06,-1.26332652143901E-05,1.0546875,0,0
5.72430872125551E-06,-1.49074894579826E-05,1.0546875,0,0
4.90530919705634E-06,-1.63484110089485E-05,1.0546875,0,0
7.22488812243682E-06,-2.49174208875047E-05,1.0546875,0,0
5.44338536201394E-06,-1.99432852241443E-05,1.0546875,0,0
5.91856633036514E-06,-2.39466917264508E-05,1.0546875,0,0
3.239175384806E-06,-2.13689727388555E-05,1.0546875,0,0
1.45736828471854E-06,-2.24936848098878E-05,1.0546875,0,0
2.39122954326376E-07,-1.96578075701837E-05,1.0546875,0,0
1.88485830676655E-06,-1.91407980310032E-05,1.0546875,0,0
3.99907594328397E-06,-1.8652015569387E-05,1.0546875,0,0
5.44948215974728E-06,-2.04792086151429E-05,1.0546875,0,0
5.39423581358278E-06,-2.28672251978423E-05,1.0546875,0,0
5.27417705598054E-06,-2.2702293790644E-05,1.0546875,0,0
6.05033665124211E-06,-2.29344077524729E-05,1.0546875,0,0
5.65842992727994E-06,-2.08321052923566E-05,1.0546875,0,0
5.54531879970455E-06,-1.87866480700905E-05,1.0546875,0,0
5.12610995428986E-06,-1.56528112711385E-05,1.0546875,0,0
3.60964895662619E-06,-1.53478067659307E-05,1.0546875,0,0
6.12251994880353E-07,-1.47639229908236E-05,1.0546875,0,0
-2.68659675839444E-07,-1.57235335791484E-05,1.0546875,0,0
6.74237298881053E-07,-1.45680032801465E-05,1.0546875,0,0
2.13042471841618E-06,-1.44314153658343E-05,1.0546875,0,0
4.25208327214932E-07,-1.377568787575E-05,1.0546875,0,0
-2.45299793277809E-06,-1.41489126690431E-05,1.0546875,0,0
-3.45172679772077E-06,-1.43008446684689E-05,1.0546875,0,0
-2.46976492235262E-06,-1.37249890030944E-05,1.0546875,0,0
-9.67601977208687E-07,-1.36797234517871E-05,1.0546875,0,0
-2.96737255212065E-07,-1.60301879077451E-05,1.0546875,0,0
-1.62369349254732E-06,-1.37609767989488E-05,1.0546875,0,0
-3.64623861059954E-06,-1.96672408492304E-05,1.0546875,0,0
-2.53168855124386E-06,-1.64876728376839E-05,1.0546875,0,0
-7.95813832610293E-07,-2.10017624340253E-05,1.0546875,0,0
-5.68765244679525E-07,-1.68332153407391E-05,1.0546875,0,0
-1.73080843524076E-06,-1.71624433278339E-05,1.0546875,0,0
-3.11900862470793E-06,-1.5241274923028E-05,1.0546875,0,0
-3.75870581592608E-06,-1.59278133651242E-05,1.0546875,0,0
-3.95306688005803E-06,-1.40101865326869E-05,1.0546875,0,0
-2.94565916192369E-06,-1.36284916152363E-05,1.0546875,0,0
-3.83277296123197E-07,-1.55244888446759E-05,1.0546875,0,0
1.42599799346499E-06,-1.68661226780387E-05,1.0546875,0,0
1.4649777995146E-06,-1.7342577848467E-05,1.0546875,0,0
3.72859744857124E-07,-1.4847421880404E-05,1.0546875,0,0
-8.85668157479813E-07,-1.39894555104547E-05,1.0546875,0,0
-1.13027670067822E-06,-1.32747372845188E-05,1.0546875,0,0
3.34569364213166E-07,-1.55123634613119E-05,1.0546875,0,0
2.60056617662485E-06,-1.61226107593393E-05,1.0546875,0,0
3.9181427382573E-06,-1.68108490470331E-05,1.0546875,0,0
3.87656427847105E-06,-1.64266966748983E-05,1.0546875,0,0
2.78778429674276E-06,-1.89385864359792E-05,1.0546875,0,0
2.40340955315332E-06,-2.04436491912929E-05,1.0546875,0,0
4.2839014895435E-06,-2.08033980015898E-05,1.0546875,0,0
6.22357401880436E-06,-1.97796616703272E-05,1.0546875,0,0
5.78249546379084E-06,-2.06442491617054E-05,1.0546875,0,0
4.8810229600349E-06,-2.2421263565775E-05,1.0546875,0,0
5.00374790135538E-06,-2.32638012676034E-05,1.0546875,0,0
5.16839736519614E-06,-1.78383306774776E-05,1.0546875,0,0
8.54157769936137E-06,-2.36375199165195E-05,1.0546875,0,0
7.31863974579028E-06,-1.65904166351538E-05,1.0546875,0,0
7.84163785283454E-06,-2.25709900405491E-05,1.0546875,0,0
6.58489898341941E-06,-2.02610845008167E-05,1.0546875,0,0
8.13697715784656E-06,-2.32457587117096E-05,1.0546875,0,0
9.95334539766191E-06,-2.00945614778902E-05,1.0546875,0,0
1.15927477963851E-05,-2.07892735488713E-05,1.0546875,0,0
1.05482458820916E-05,-1.87181012734072E-05,1.0546875,0,0
7.99205827206606E-06,-1.75962486537173E-05,1.0546875,0,0
6.46270973447827E-06,-1.82137846422847E-05,1.0546875,0,0
6.63990340399323E-06,-1.68807982845465E-05,1.0546875,0,0
7.31036516299355E-06,-1.6034415239119E-05,1.0546875,0,0
6.97101222613128E-06,-1.27540624816902E-05,1.0546875,0,0
7.12820019543869E-06,-1.16231885840534E-05,1.0546875,0,0
6.6081070144719E-06,-9.17995112104109E-06,1.0546875,0,0
5.43068836122984E-06,-9.43427767197136E-06,1.0546875,0,0
3.10767086375563E-06,-6.91404329700163E-06,1.0546875,0,0
9.09109303393052E-07,-7.08102561475243E-06,1.0546875,0,0
-9.34694355692045E-07,-7.85063639341388E-06,1.0546875,0,0
-1.66993436323537E-06,-1.01168770925142E-05,1.0546875,0,0
-2.88094543066109E-06,-1.05163762782468E-05,1.0546875,0,0
-2.97965402751288E-06,-1.25883061627974E-05,1.0546875,0,0
-1.89218792456813E-06,-1.37924234877573E-05,1.0546875,0,0
-7.57007001084276E-07,-1.5006126886874E-05,1.0546875,0,0
2.45390232578302E-08,-1.67377493198728E-05,1.0546875,0,0
1.23564149134836E-07,-1.84226337296423E-05,1.0546875,0,0
-2.54288238465961E-07,-1.53974469867535E-05,1.0546875,0,0
-1.03282618013623E-08,-2.10656016861321E-05,1.0546875,0,0
1.68288295299135E-07,-1.43942825161503E-05,1.0546875,0,0
-1.08864828263222E-09,-1.77726469701156E-05,1.0546875,0,0
8.64373589593015E-07,-1.53355485963402E-05,1.0546875,0,0
5.57829707759083E-07,-1.85338794835843E-05,1.0546875,0,0
4.88936507281323E-07,-1.79305752681103E-05,1.0546875,0,0
1.86015722647426E-06,-2.04003645194462E-05,1.0546875,0,0
2.57047258855891E-06,-2.19158464460634E-05,1.0546875,0,0
1.56851479005127E-06,-2.37475069297943E-05,1.0546875,0,0
2.83017769220351E-08,-2.38334014284192E-05,1.0546875,0,0
1.32600291635754E-07,-2.2429881937569E-05,1.0546875,0,0
2.77443336926808E-06,-2.24928407988045E-05,1.0546875,0,0
5.35348090124899E-06,-2.08068940992234E-05,1.0546875,0,0
5.70592919757473E-06,-2.04362277145265E-05,1.0546875,0,0
4.38275992564741E-06,-1.80172064574435E-05,1.0546875,0,0
2.02255250769667E-06,-1.76242756424472E-05,1.0546875,0,0
1.0146212048312E-07,-1.63990334840491E-05,1.0546875,0,0
-3.31187351321205E-07,-1.79246362677077E-05,1.0546875,0,0
-1.45614208690859E-07,-1.84823293238878E-05,1.0546875,0,0
2.60465267132304E-08,-1.88550093298545E-05,1.0546875,0,0
8.76249828252185E-07,-1.7733451386448E-05,1.0546875,0,0
1.50403195675608E-06,-1.8281245502294E-05,1.0546875,0,0
1.67871985468082E-06,-1.88890844583511E-05,1.0546875,0,0
2.75615707323595E-06,-2.02912651730003E-05,1.0546875,0,0
3.81157133233501E-06,-2.02585924853338E-05,1.0546875,0,0
3.1575814318785E-06,-1.88233807421057E-05,1.0546875,0,0
9.43496957006573E-07,-1.44484383781673E-05,1.0546875,0,0
-4.76580680697225E-07,-2.10224170587026E-05,1.0546875,0,0
-2.66199458565097E-06,-1.7678072254057E-05,1.0546875,0,0
-4.89171725348569E-07,-2.20523379539372E-05,1.0546875,0,0
2.10495136343525E-06,-1.68951664818451E-05,1.0546875,0,0
3.25076825902215E-06,-1.7481688701082E-05,1.0546875,0,0
2.66540473603527E-06,-1.72378986462718E-05,1.0546875,0,0
1.92574270840851E-06,-1.98544257727917E-05,1.0546875,0,0
5.83721543989668E-07,-1.99140376935247E-05,1.0546875,0,0
-1.22513836231519E-06,-1.78390982910059E-05,1.0546875,0,0
-2.73413752438501E-06,-1.6415782738477E-05,1.0546875,0,0
-2.71480257652001E-06,-1.60149138537236E-05,1.0546875,0,0
-1.61551656674419E-06,-1.70179810083937E-05,1.0546875,0,0
-1.47123830629425E-06,-1.67791095009306E-05,1.0546875,0,0
-9.72015300249041E-07,-1.8186650777352E-05,1.0546875,0,0
1.2965033420187E-06,-1.84186483238591E-05,1.0546875,0,0
3.09082065541588E-06,-2.02668215933954E-05,1.0546875,0,0
3.06117567561159E-06,-1.94934218598064E-05,1.0546875,0,0
2.90204980046838E-06,-1.92344086826779E-05,1.0546875,0,0
2.93054404210125E-06,-1.77203983184882E-05,1.0546875,0,0
3.45901889886591E-06,-1.7930975445779E-05,1.0546875,0,0
3.90304785469198E-06,-1.80352053575916E-05,1.0546875,0,0
4.52571975984029E-06,-1.81504783540731E-05,1.0546875,0,0
5.40580640517874E-06,-1.77405872818781E-05,1.0546875,0,0
5.60017997486284E-06,-1.74997130670818E-05,1.0546875,0,0
5.09827032146859E-06,-1.75676104845479E-05,1.0546875,0,0
6.02311729380745E-06,-1.92753905139398E-05,1.0546875,0,0
5.84484678256558E-06,-1.86635043064598E-05,1.0546875,0,0
8.85656118043698E-06,-2.66279184870655E-05,1.0546875,0,0
7.09639743945445E-06,-1.72513609868474E-05,1.0546875,0,0
7.53008589526871E-06,-1.83787215064513E-05,1.0546875,0,0
5.24035704074777E-06,-1.3508786651073E-05,1.0546875,0,0
5.65769869353971E-06,-1.46445954669616E-05,1.0546875,0,0
5.16417276230641E-06,-1.34029751279741E-05,1.0546875,0,0
5.81153199163964E-06,-1.48985500345589E-05,1.0546875,0,0
4.67630843559164E-06,-1.39271660373197E-05,1.0546875,0,0
2.94039546133718E-06,-1.49293991853483E-05,1.0546875,0,0
2.23536585508555E-06,-1.59160281327786E-05,1.0546875,0,0
1.84373800493631E-06,-1.56883852469036E-05,1.0546875,0,0
8.10448113952589E-07,-1.6245961887762E-05,1.0546875,0,0
-1.35232903630822E-06,-1.42391727422364E-05,1.0546875,0,0
-1.55164821080689E-06,-1.4041957911104E-05,1.0546875,0,0
-5.37717539828009E-07,-1.25075048345025E-05,1.0546875,0,0
1.07026937712362E-06,-1.34914844238665E-05,1.0546875,0,0
1.24417601909954E-06,-1.22035589811276E-05,1.0546875,0,0
2.47424509325356E-06,-1.2175900337752E-05,1.0546875,0,0
3.95912138628773E-06,-1.11560439108871E-05,1.0546875,0,0
5.27536030858755E-06,-1.25523702081409E-05,1.0546875,0,0
5.08377843289054E-06,-1.21264629342477E-05,1.0546875,0,0
5.12699125465588E-06,-1.06968136606156E-05,1.0546875,0,0
5.89712317378144E-06,-9.63898764894111E-06,1.0546875,0,0
6.57392138236901E-06,-1.19799460662762E-05,1.0546875,0,0
5.90619129070546E-06,-1.44365631058463E-05,1.0546875,0,0
5.68531459066435E-06,-1.54420176841086E-05,1.0546875,0,0
5.59282671019901E-06,-1.28243236758863E-05,1.0546875,0,0
8.97459904081188E-06,-1.69790000654757E-05,1.0546875,0,0
8.97795871424023E-06,-1.10357632365776E-05,1.0546875,0,0
1.21243110697833E-05,-1.45471003634157E-05,1.0546875,0,0
1.20512086141389E-05,-1.35429818328703E-05,1.0546875,0,0
1.24335801956477E-05,-1.72070012922632E-05,1.0546875,0,0
1.16740202429355E-05,-1.73843855009181E-05,1.0546875,0,0
1.17565923574148E-05,-1.84007385541918E-05,1.0546875,0,0
9.78289517661324E-06,-1.76324010681128E-05,1.0546875,0,0
7.61243973101955E-06,-1.73106582224136E-05,1.0546875,0,0
7.38242260922561E-06,-1.68307651620125E-05,1.0546875,0,0
8.20526838651858E-06,-1.5379964679596E-05,1.0546875,0,0
8.94534332473995E-06,-1.47789642142016E-05,1.0546875,0,0
8.44785245135427E-06,-1.33818120957585E-05,1.0546875,0,0
7.55356859372114E-06,-1.38562136271503E-05,1.0546875,0,0
4.8185934247158E-06,-1.32274171846802E-05,1.0546875,0,0
3.82168400392402E-06,-1.42856270031189E-05,1.0546875,0,0
4.80309881822905E-06,-1.4119309525995E-05,1.0546875,0,0
5.80762616664288E-06,-1.46298789331922E-05,1.0546875,0,0
3.72793238057056E-06,-1.43585475598229E-05,1.0546875,0,0
1.36287030727544E-06,-1.62039541464765E-05,1.0546875,0,0
-1.07378731684094E-07,-1.63972927111899E-05,1.0546875,0,0
2.52335325967579E-07,-1.64385073730955E-05,1.0546875,0,0
1.20680692816677E-06,-1.59677874762565E-05,1.0546875,0,0
3.04151262753294E-06,-1.48082208397682E-05,1.0546875,0,0
4.35216543337447E-06,-1.36354874484823E-05,1.0546875,0,0
3.62176206181175E-06,-1.50198611663654E-05,1.0546875,0,0
1.9104134025838E-06,-1.54022054630332E-05,1.0546875,0,0
2.44262059823086E-06,-2.3293549020309E-05,1.0546875,0,0
1.68595806826488E-06,-1.84082055056933E-05,1.0546875,0,0
1.41796908792458E-06,-2.08320834644837E-05,1.0546875,0,0
-2.96578178904383E-07,-1.71318315551616E-05,1.0546875,0,0
-9.94549168353842E-07,-1.83746196853463E-05,1.0546875,0,0
-1.79389974164224E-06,-1.65960664162412E-05,1.0546875,0,0
-8.6597054860249E-07,-1.77411184267839E-05,1.0546875,0,0
-1.9885631274974E-07,-1.82182775461115E-05,1.0546875,0,0
-2.86109184344241E-07,-1.87792775250273E-05,1.0546875,0,0
2.00842436015591E-07,-1.86950746865477E-05,1.0546875,0,0
1.88844194326521E-06,-1.82721323653823E-05,1.0546875,0,0
3.91094454244012E-06,-1.93658652278828E-05,1.0546875,0,0
4.94601590617094E-06,-1.81452687684214E-05,1.0546875,0,0
5.006734681956E-06,-1.78098143805983E-05,1.0546875,0,0
4.05302171202493E-06,-1.81504274223698E-05,1.0546875,0,0
3.56871851181495E-06,-2.14142110053217E-05,1.0546875,0,0
4.24107702201582E-06,-2.11543065233855E-05,1.0546875,0,0
5.92822652834002E-06,-2.06406930374214E-05,1.0546875,0,0
6.04887418376165E-06,-1.90075516002253E-05,1.0546875,0,0
5.70741622141213E-06,-1.92153383977711E-05,1.0546875,0,0
5.90920899412595E-06,-1.89448164746864E-05,1.0546875,0,0
5.87614658797975E-06,-1.93060950550716E-05,1.0546875,0,0
5.12442147737602E-06,-1.9138737116009E-05,1.0546875,0,0
4.49643948741141E-06,-1.92120987776434E-05,1.0546875,0,0
3.27374391417834E-06,-2.01592192752287E-05,1.0546875,0,0
2.37023755289556E-06,-2.21859299927019E-05,1.0546875,0,0
2.04590696739615E-06,-1.70125895238016E-05,1.0546875,0,0
3.16170508085634E-06,-2.10391663131304E-05,1.0546875,0,0
2.21865616367722E-06,-1.38496407089406E-05,1.0546875,0,0
2.24032942242047E-06,-2.154425419576E-05,1.0546875,0,0
1.5315438304242E-06,-1.86258366738912E-05,1.0546875,0,0
1.10879466319602E-06,-2.08475339604774E-05,1.0546875,0,0
9.72572252067039E-07,-1.93556043086573E-05,1.0546875,0,0
1.85515000339365E-06,-2.19613957597176E-05,1.0546875,0,0
2.39526593759365E-06,-2.30536988965468E-05,1.0546875,0,0
3.41362942890555E-06,-2.24910672841361E-05,1.0546875,0,0
5.57603516426752E-06,-1.99262467504013E-05,1.0546875,0,0
6.93726042300113E-06,-1.70804996741936E-05,1.0546875,0,0
6.49303729005624E-06,-1.64939501701156E-05,1.0546875,0,0
4.93364404974272E-06,-1.44416444527451E-05,1.0546875,0,0
3.65829487236624E-06,-1.55166180775268E-05,1.0546875,0,0
2.85469468508381E-06,-1.40493038998102E-05,1.0546875,0,0
3.51850144397758E-06,-1.40831189128221E-05,1.0546875,0,0
4.14806936532841E-06,-1.33952944452176E-05,1.0546875,0,0
4.14604573961697E-06,-1.54614481289173E-05,1.0546875,0,0
3.68981432075088E-06,-1.50191081047524E-05,1.0546875,0,0
2.89946206066816E-06,-1.46972515722155E-05,1.0546875,0,0
1.56535622863885E-06,-1.30305934362696E-05,1.0546875,0,0
1.06610502825788E-06,-1.34370275191031E-05,1.0546875,0,0
1.05065089428535E-06,-1.502106715634E-05,1.0546875,0,0
1.75734032836772E-06,-1.66360623552464E-05,1.0546875,0,0
3.0369390060514E-06,-1.6980795408017E-05,1.0546875,0,0
1.52642826378724E-06,-1.74843316926854E-05,1.0546875,0,0
-1.22433914384601E-06,-1.45976791827707E-05,1.0546875,0,0
-1.87261207429401E-06,-2.15969903365476E-05,1.0546875,0,0
-1.52011102727556E-06,-1.80319675564533E-05,1.0546875,0,0
-1.67763244007801E-06,-2.17420347325969E-05,1.0546875,0,0
-7.05340198692284E-07,-1.85728767974069E-05,1.0546875,0,0
-1.44791627576524E-07,-2.0366647731862E-05,1.0546875,0,0
-7.29589203274372E-07,-1.89948623301461E-05,1.0546875,0,0
-1.66869176609907E-06,-2.11129499803064E-05,1.0546875,0,0
-2.40629628933675E-06,-2.16269454540452E-05,1.0546875,0,0
-3.36049060933874E-06,-2.19358335016295E-05,1.0546875,0,0
-3.0939074804337E-06,-2.19990706682438E-05,1.0546875,0,0
-1.58282136908383E-06,-2.05553114938084E-05,1.0546875,0,0
4.45545964566918E-07,-1.97732479136903E-05,1.0546875,0,0
2.58339719039213E-06,-1.77854362846119E-05,1.0546875,0,0
3.60666990673053E-06,-1.71775809576502E-05,1.0546875,0,0
3.17046556119749E-06,-1.54414738062769E-05,1.0546875,0,0
1.88490298569377E-06,-1.58841430675238E-05,1.0546875,0,0
2.4245603071904E-06,-1.51320919030695E-05,1.0546875,0,0
3.75740000890801E-06,-1.64915672939969E-05,1.0546875,0,0
3.90594641430653E-06,-1.69590257428354E-05,1.0546875,0,0
3.70817110706412E-06,-1.8163964341511E-05,1.0546875,0,0
4.09937320000608E-06,-1.66893732966855E-05,1.0546875,0,0
4.24482641392387E-06,-1.54686240421142E-05,1.0546875,0,0
3.75238755623286E-06,-1.45760577652254E-05,1.0546875,0,0
2.21732852878631E-06,-1.46110241985298E-05,1.0546875,0,0
8.87525061443739E-07,-1.60229956236435E-05,1.0546875,0,0
5.0603375711944E-07,-1.64616576512344E-05,1.0546875,0,0
1.08588790226349E-06,-1.06266279544798E-05,1.0546875,0,0
2.7345070066076E-06,-1.37741117214318E-05,1.0546875,0,0
3.65458276974096E-06,-9.2189457063796E-06,1.0546875,0,0
3.22167397825979E-06,-1.12822026494541E-05,1.0546875,0,0
1.97401527657348E-06,-7.48251886761864E-06,1.0546875,0,0
1.66151369285217E-06,-7.80782193032792E-06,1.0546875,0,0
1.13969838366756E-06,-6.5861258917721E-06,1.0546875,0,0
1.10411031073454E-06,-9.40704467211617E-06,1.0546875,0,0
1.48514436659752E-06,-1.09769052869524E-05,1.0546875,0,0
2.04323578145704E-06,-1.25071082948125E-05,1.0546875,0,0
2.98449776892085E-06,-1.33919375002733E-05,1.0546875,0,0
3.92692345485557E-06,-1.46962138387607E-05,1.0546875,0,0
4.45985142505378E-06,-1.77156325662509E-05,1.0546875,0,0
4.65238463220885E-06,-1.85416683962103E-05,1.0546875,0,0
5.08278844790766E-06,-1.82588137249695E-05,1.0546875,0,0
5.21927859153948E-06,-1.53933106048498E-05,1.0546875,0,0
4.7419011934835E-06,-1.51682943396736E-05,1.0546875,0,0
3.99215559809818E-06,-1.52241200339631E-05,1.0546875,0,0
4.08825735576102E-06,-1.6901571143535E-05,1.0546875,0,0
4.79832260680269E-06,-1.74594697455177E-05,1.0546875,0,0
5.9674603107851E-06,-1.85120370588265E-05,1.0546875,0,0
8.37218703964027E-06,-1.79986236616969E-05,1.0546875,0,0
1.04850832940429E-05,-1.76814610313158E-05,1.0546875,0,0
1.02147369034356E-05,-1.66684349096613E-05,1.0546875,0,0
9.43273516895715E-06,-1.71699539350811E-05,1.0546875,0,0
9.28171539271716E-06,-1.69961676874664E-05,1.0546875,0,0
1.00813849712722E-05,-1.54032677528448E-05,1.0546875,0,0
9.92396871879464E-06,-1.32179866341176E-05,1.0546875,0,0
1.26916665976751E-05,-2.05991964321584E-05,1.0546875,0,0
5.49495325685712E-06,-1.77513738890411E-05,1.0546875,0,0
5.82947905058973E-06,-2.02938681468368E-05,1.0546875,0,0
3.73774651052372E-06,-1.72567597473972E-05,1.0546875,0,0
3.86676811103825E-06,-1.99668593268143E-05,1.0546875,0,0
1.73859370988794E-06,-1.92436928045936E-05,1.0546875,0,0
1.77937999978894E-06,-1.89243492059177E-05,1.0546875,0,0
1.19792537134344E-06,-1.84780565177789E-05,1.0546875,0,0
9.23119330309419E-07,-1.93553987628547E-05,1.0546875,0,0
-5.93800166370784E-07,-1.89895872608759E-05,1.0546875,0,0
-1.58769455538277E-06,-1.72291493072407E-05,1.0546875,0,0
-2.89161675937066E-07,-1.74502529262099E-05,1.0546875,0,0
8.13898736851115E-07,-1.836533738242E-05,1.0546875,0,0
2.11010433304182E-06,-2.06482382054674E-05,1.0546875,0,0
1.02531305401499E-06,-2.10476555366768E-05,1.0546875,0,0
5.22038661188162E-08,-2.2567672203877E-05,1.0546875,0,0
-1.82829046480038E-06,-2.07082939596148E-05,1.0546875,0,0
-1.39270525778556E-06,-1.94686363101937E-05,1.0546875,0,0
-1.15203556561028E-06,-1.86423221748555E-05,1.0546875,0,0
-4.25123431568863E-07,-1.83641805051593E-05,1.0546875,0,0
-1.08046822333563E-06,-1.71331867022673E-05,1.0546875,0,0
-6.50165986826323E-07,-1.79443050001282E-05,1.0546875,0,0
1.1666455179693E-07,-1.76175653905375E-05,1.0546875,0,0
2.11181736631261E-06,-1.63767326739617E-05,1.0546875,0,0
3.5163041047781E-06,-1.67299713211833E-05,1.0546875,0,0
3.81262248083658E-06,-1.75509903783677E-05,1.0546875,0,0
4.24254631070653E-06,-1.26651220853091E-05,1.0546875,0,0
6.63279934087768E-06,-1.64161992870504E-05,1.0546875,0,0
5.2980594773544E-06,-1.14280537673039E-05,1.0546875,0,0
5.67357938052737E-06,-1.62458982231328E-05,1.0546875,0,0
5.14168095833156E-06,-1.52299508044962E-05,1.0546875,0,0
5.88707916904241E-06,-1.92655134014785E-05,1.0546875,0,0
6.09996777711785E-06,-1.90179052879103E-05,1.0546875,0,0
7.28808845451567E-06,-1.89055244845804E-05,1.0546875,0,0
8.41428118292242E-06,-1.63993790920358E-05,1.0546875,0,0
9.01188923307927E-06,-1.58194161485881E-05,1.0546875,0,0
7.6080273174739E-06,-1.69861377798952E-05,1.40625,0,0
5.70806969335536E-06,-1.82052535819821E-05,1.40625,0,0
5.75920012124698E-06,-1.96253895410337E-05,1.40625,0,0
6.3124998632702E-06,-1.82308722287416E-05,1.40625,0,0
6.56061865811353E-06,-1.73038151842775E-05,1.40625,0,0
6.00932025918155E-06,-1.53594810399227E-05,1.40625,0,0
6.63119681121316E-06,-1.57435351866297E-05,1.40625,0,0
7.38818698664545E-06,-1.46867951116292E-05,1.40625,0,0
8.32532623462612E-06,-1.55114412336843E-05,1.40625,0,0
8.12742928246735E-06,-1.56165879161563E-05,1.40625,0,0
7.43125201552175E-06,-1.72375875990838E-05,1.40625,0,0
5.90695890423376E-06,-1.77626370714279E-05,1.40625,0,0
4.10364464187296E-06,-1.65749170264462E-05,1.40625,0,0
4.36573236584081E-06,-1.31375463752192E-05,1.40625,0,0
5.74818886889261E-06,-1.32101085910108E-05,1.40625,0,0
3.80328606297553E-06,-1.63494605658343E-05,1.40625,0,0
1.05531819372118E-06,-1.78494556166697E-05,1.40625,0,0
5.65517609629751E-07,-1.30730104501708E-05,1.40625,0,0
2.06847221306816E-06,-1.71285919350339E-05,1.40625,0,0
2.89812192022509E-06,-1.16816027002642E-05,1.40625,0,0
3.50854247699317E-06,-1.55302423081594E-05,1.40625,0,0
5.19563627676689E-06,-1.27221555885626E-05,1.40625,0,0
5.23839617017074E-06,-1.54566114360932E-05,1.40625,0,0
4.96257007398526E-06,-1.48912358781672E-05,1.40625,0,0
5.80341884415247E-06,-1.59051160153467E-05,1.40625,0,0
6.33174431641237E-06,-1.49335728565347E-05,1.40625,0,0
5.63930143471225E-06,-1.40413039844134E-05,1.40625,0,0
4.04541333409725E-06,-1.45487929330557E-05,1.40625,0,0
2.36804248743283E-06,-1.55088582687313E-05,1.40625,0,0
1.26901409203128E-06,-1.67918678926071E-05,1.40625,0,0
1.2304113852224E-06,-1.59198916662717E-05,1.40625,0,0
2.15359978028573E-06,-1.63941858772887E-05,1.40625,0,0
3.46396313943842E-06,-1.56169298861641E-05,1.40625,0,0
4.02187515646801E-06,-1.69244212884223E-05,1.40625,0,0
3.98283327740501E-06,-1.62254564202158E-05,1.40625,0,0
3.59374462277628E-06,-1.67491798492847E-05,1.40625,0,0
2.7202192995901E-06,-1.68149672390427E-05,1.40625,0,0
2.03102081286488E-06,-1.77105375769315E-05,1.40625,0,0
1.78704283371189E-06,-1.68644983205013E-05,1.40625,0,0
7.5490657991395E-07,-1.62979649758199E-05,1.40625,0,0
-7.01345754805516E-07,-1.52382453961764E-05,1.40625,0,0
-1.51574818119116E-06,-1.49744710142841E-05,1.40625,0,0
-2.13648468161409E-06,-1.50592832142138E-05,1.40625,0,0
-2.36874097936379E-06,-1.46695674629882E-05,1.40625,0,0
-2.61550241020814E-07,-1.22676838145708E-05,1.40625,0,0
6.52333426387486E-07,-1.79270900844131E-05,1.40625,0,0
6.13259373949404E-07,-1.30407970573287E-05,1.40625,0,0
-2.47945109776992E-07,-1.45039393828483E-05,1.40625,0,0
2.10213173090779E-07,-1.23648233056883E-05,1.40625,0,0
-1.57649367338308E-07,-1.63944132509641E-05,1.40625,0,0
7.5036138014184E-07,-1.79447415575851E-05,1.40625,0,0
1.61477817073319E-06,-1.93251053133281E-05,1.40625,0,0
3.02326566270494E-06,-1.8453180018696E-05,1.40625,0,0
4.11852488468867E-06,-1.86154920811532E-05,1.40625,0,0
4.06862181989709E-06,-2.02560477191582E-05,1.40625,0,0
3.08087169287319E-06,-2.17740853258874E-05,1.40625,0,0
1.36556968755031E-06,-2.33211248996668E-05,1.40625,0,0
6.99648353474913E-07,-2.27496057050303E-05,1.40625,0,0
1.57173451498238E-06,-2.23894858208951E-05,1.40625,0,0
3.89003071177285E-06,-2.03172839974286E-05,1.40625,0,0
5.81607810090645E-06,-1.96398668776965E-05,1.40625,0,0
5.4807369451737E-06,-1.80668776010862E-05,1.40625,0,0
2.23863958126458E-06,-1.74236211023526E-05,1.40625,0,0
-1.01961313703214E-06,-1.56136538862484E-05,1.40625,0,0
-2.26357155952428E-06,-1.59448281920049E-05,1.40625,0,0
-1.88103308573773E-06,-1.65998371812748E-05,1.40625,0,0
-1.84201724096056E-06,-1.77685888047563E-05,1.40625,0,0
-1.87715943411604E-06,-1.82706153282197E-05,1.40625,0,0
-6.9020433102196E-07,-1.91418712347513E-05,1.40625,0,0
2.28261978918454E-06,-2.09949066629633E-05,1.40625,0,0
4.79541085951496E-06,-2.31857811741065E-05,1.40625,0,0
4.07243351219222E-06,-1.98666821233928E-05,1.40625,0,0
5.42281168236514E-06,-2.82628570857923E-05,1.40625,0,0
2.32200318350806E-06,-2.13984840229386E-05,1.40625,0,0
1.59096782681445E-06,-2.50422272074502E-05,1.40625,0,0
-1.39492811968012E-07,-1.84639829967637E-05,1.40625,0,0
9.8487157629279E-07,-2.01164948521182E-05,1.40625,0,0
3.69563508684223E-06,-1.7701231627143E-05,1.40625,0,0
6.70956933390698E-06,-1.90162209037226E-05,1.40625,0,0
6.76439321978251E-06,-1.77114798134426E-05,1.40625,0,0
5.25316636412754E-06,-1.63232652994338E-05,1.40625,0,0
3.47183436133491E-06,-1.57697704707971E-05,1.40625,0,0
2.64754976342374E-06,-1.52859411173267E-05,1.40625,0,0
2.05299602384912E-06,-1.65280434885062E-05,1.40625,0,0
9.01690327737015E-07,-1.45559133670758E-05,1.40625,0,0
1.00671172731381E-06,-1.43844872582122E-05,1.40625,0,0
1.49432344187517E-06,-1.4361676221597E-05,1.40625,0,0
2.07890343517647E-06,-1.79201633727644E-05,1.40625,0,0
2.1004102563893E-06,-1.6521276847925E-05,1.40625,0,0
2.59682178693765E-06,-1.51103513417183E-05,1.40625,0,0
2.96025632451347E-06,-1.43442575790687E-05,1.40625,0,0
3.96008817915572E-06,-1.68219794431934E-05,1.40625,0,0
4.07688276027329E-06,-1.60898161993828E-05,1.40625,0,0
3.99583859689301E-06,-1.48949611684657E-05,1.40625,0,0
3.96738005292718E-06,-1.38527802846511E-05,1.40625,0,0
3.34693118020368E-06,-1.29396867123432E-05,1.40625,0,0
2.39929795498028E-06,-1.23851905300398E-05,1.40625,0,0
1.85620729098446E-06,-1.52292204802507E-05,1.40625,0,0
9.69710299614235E-07,-1.50091436807998E-05,1.40625,0,0
1.33755440856476E-06,-2.13837902265368E-05,1.40625,0,0
1.04940409073606E-06,-1.49309507833095E-05,1.40625,0,0
4.18159373793969E-07,-1.70744733622996E-05,1.40625,0,0
-1.24490952657652E-06,-1.38414652610663E-05,1.40625,0,0
-1.5150376384554E-06,-1.61951793415938E-05,1.40625,0,0
-6.45347085992398E-07,-1.49361403600778E-05,1.40625,0,0
1.32625359583471E-06,-1.54823610500898E-05,1.40625,0,0
2.95206018563476E-06,-1.56296919158194E-05,1.40625,0,0
3.42020257448894E-06,-1.60499857884133E-05,1.40625,0,0
4.25057123720762E-06,-1.62277829076629E-05,1.40625,0,0
4.86344288219698E-06,-1.54809440573445E-05,1.40625,0,0
4.87957686345908E-06,-1.64282882906264E-05,1.40625,0,0
5.27545216755243E-06,-1.67126781889237E-05,1.40625,0,0
6.54096584185027E-06,-1.80618244485231E-05,1.40625,0,0
7.50044728192734E-06,-1.66407426149817E-05,1.40625,0,0
7.26723419575137E-06,-1.63644344866043E-05,1.40625,0,0
6.35077412880491E-06,-1.47916898640688E-05,1.40625,0,0
5.95807568970486E-06,-1.53704113472486E-05,1.40625,0,0
6.28129646429443E-06,-1.5221750800265E-05,1.40625,0,0
7.57757879910059E-06,-1.51938238559524E-05,1.40625,0,0
9.08520269149449E-06,-1.40193287734292E-05,1.40625,0,0
9.17244597076206E-06,-1.37092756631318E-05,1.40625,0,0
8.08972617960535E-06,-1.31884116854053E-05,1.40625,0,0
7.92540595284663E-06,-1.32928935272503E-05,1.40625,0,0
8.47375213197665E-06,-1.32525638036896E-05,1.40625,0,0
8.47692717798054E-06,-1.30853022710653E-05,1.40625,0,0
5.97934285906376E-06,-1.13192845674348E-05,1.40625,0,0
7.07906701791217E-06,-1.73579082911601E-05,1.40625,0,0
3.87329646400758E-06,-1.518093085906E-05,1.40625,0,0
5.92807054999867E-06,-1.84699583769543E-05,1.40625,0,0
5.79326024308102E-06,-1.6957928892225E-05,1.40625,0,0
8.12239704828244E-06,-1.87434088729788E-05,1.40625,0,0
7.4764952842088E-06,-1.73570642800769E-05,1.40625,0,0
7.78314461058471E-06,-1.76638368429849E-05,1.40625,0,0
7.29100065655075E-06,-1.6007334124879E-05,1.40625,0,0
7.6410888141254E-06,-1.50946389112505E-05,1.40625,0,0
8.95646007847972E-06,-1.57739141286584E-05,1.40625,0,0
8.95540779310977E-06,-1.65823257702868E-05,1.40625,0,0
7.7220392995514E-06,-1.76953835762106E-05,1.40625,0,0
5.42383486390463E-06,-1.79740272869822E-05,1.40625,0,0
4.87292709294707E-06,-1.99466758203926E-05,1.40625,0,0
4.46721196567523E-06,-2.10054877243238E-05,1.40625,0,0
4.42579676018795E-06,-2.35507395700552E-05,1.40625,0,0
3.26892200064322E-06,-2.35418283409672E-05,1.40625,0,0
2.72541001322679E-06,-2.22509370360058E-05,1.40625,0,0
1.94200197256578E-06,-1.95834600162925E-05,1.40625,0,0
1.36574487896723E-06,-1.9930816051783E-05,1.40625,0,0
-4.71949334723831E-07,-2.1008991097915E-05,1.40625,0,0
-9.5165893299054E-07,-1.97458430193365E-05,1.40625,0,0
-1.33180515149434E-06,-1.54088102135574E-05,1.40625,0,0
-2.14998499359353E-06,-1.35862001116038E-05,1.40625,0,0
-3.45414832736424E-06,-1.42620810947847E-05,1.40625,0,0
-3.89745673601283E-06,-1.66270747286035E-05,1.40625,0,0
-1.73592457031191E-06,-1.42912413139129E-05,1.40625,0,0
-1.23568690924003E-06,-2.05875912797637E-05,1.40625,0,0
2.64248818382384E-08,-1.53554246935528E-05,1.40625,0,0
-1.65164544796426E-06,-1.85856733878609E-05,1.40625,0,0
-1.76592914158391E-06,-1.66987447300926E-05,1.40625,0,0
-2.06612025976938E-06,-1.9715735106729E-05,1.40625,0,0
-1.05652532056411E-06,-1.80513725354103E-05,1.40625,0,0
-1.79789094545413E-06,-1.81615359906573E-05,1.40625,0,0
-3.36939297085337E-06,-1.76722642208915E-05,1.40625,0,0
-4.24466816184577E-06,-1.91587405424798E-05,1.40625,0,0
-3.49633455698495E-06,-2.03286363102961E-05,1.40625,0,0
-2.23565439227968E-06,-1.94779131561518E-05,1.40625,0,0
-1.1968336366408E-06,-1.96778801182518E-05,1.40625,0,0
-2.27714991751782E-07,-1.9561537556001E-05,1.40625,0,0
6.47438639589382E-07,-2.07513603527332E-05,1.40625,0,0
2.18311970456853E-06,-2.0212959498167E-05,1.40625,0,0
2.50371385845938E-06,-2.07875891646836E-05,1.40625,0,0
2.89044101009495E-06,-1.87953155545983E-05,1.40625,0,0
4.50910010840744E-06,-1.71263982338132E-05,1.40625,0,0
7.28878330846783E-06,-1.31552314996952E-05,1.40625,0,0
8.39260610518977E-06,-1.10102746475604E-05,1.40625,0,0
6.75011369821732E-06,-9.86648683465319E-06,1.40625,0,0
3.7898828395555E-06,-1.06226934803999E-05,1.40625,0,0
2.59383386946865E-06,-1.03043275885284E-05,1.40625,0,0
2.60625029113726E-06,-8.7639755292912E-06,1.40625,0,0
2.58903332905902E-06,-7.70332098909421E-06,1.40625,0,0
2.46727063313301E-06,-8.60072941577528E-06,1.40625,0,0
1.06947209133068E-06,-8.32929254102055E-06,1.40625,0,0
-6.67539268306427E-07,-1.24363295981311E-05,1.40625,0,0
-3.34988067152153E-06,-1.08631884359056E-05,1.40625,0,0
-2.70242298938683E-06,-1.36061607918236E-05,1.40625,0,0
-2.53366920333065E-06,-1.25434180517914E-05,1.40625,0,0
-2.01332159122103E-06,-1.38576469908003E-05,1.40625,0,0
-3.7871116091992E-06,-1.39541734824888E-05,1.40625,0,0
-4.63281639895285E-06,-1.72982545336708E-05,1.40625,0,0
-3.47347258866648E-06,-1.87106052180752E-05,1.40625,0,0
-2.49737058766186E-06,-1.88907961273799E-05,1.40625,0,0
-2.13522457670479E-06,-1.91098151844926E-05,1.40625,0,0
-2.63754122897808E-06,-1.91003400686895E-05,1.40625,0,0
-2.59984290096327E-06,-2.03239960683277E-05,1.40625,0,0
-2.08538313017925E-06,-2.06134809559444E-05,1.40625,0,0
-1.21085054161085E-06,-2.12601898965659E-05,1.40625,0,0
4.93900188303087E-07,-2.02798382815672E-05,1.40625,0,0
3.22123855767131E-06,-1.97227054741234E-05,1.40625,0,0
5.93189633946167E-06,-1.80581446329597E-05,1.40625,0,0
7.97465145296883E-06,-1.82251569640357E-05,1.40625,0,0
8.95031826075865E-06,-1.91823110071709E-05,1.40625,0,0
1.00654197012773E-05,-2.06233180506388E-05,1.40625,0,0
1.10023538582027E-05,-2.07565299206181E-05,1.40625,0,0
1.17044610306039E-05,-2.19142457353882E-05,1.40625,0,0
1.18270063467207E-05,-2.26206248044036E-05,1.40625,0,0
1.20392269309377E-05,-2.17288670683047E-05,1.40625,0,0
1.23720965348184E-05,-2.03581457753899E-05,1.40625,0,0
1.1566243301786E-05,-2.01001475943485E-05,1.40625,0,0
7.3292171691719E-06,-1.71444735315163E-05,1.40625,0,0
9.55340874497779E-06,-2.37337353610201E-05,1.40625,0,0
6.98323628967046E-06,-1.53448199853301E-05,1.40625,0,0
1.0184126040258E-05,-1.8263697711518E-05,1.40625,0,0
9.29163343243999E-06,-1.50252217281377E-05,1.40625,0,0
9.6995681815315E-06,-1.79917478817515E-05,1.40625,0,0
6.32673754807911E-06,-1.7357118849759E-05,1.40625,0,0
4.29807869295473E-06,-1.80627102963626E-05,1.40625,0,0
7.92064440702234E-07,-1.61259285960114E-05,1.40625,0,0
-1.41756811444793E-06,-1.49784318637103E-05,1.40625,0,0
-2.08703909265751E-06,-1.4788508451602E-05,1.40625,0,0
-2.5961278424802E-06,-1.49545703607146E-05,1.40625,0,0
-2.46824697569537E-06,-1.70947150763823E-05,1.40625,0,0
-3.07893810713722E-06,-1.79002963704988E-05,1.40625,0,0
-2.02460932996473E-06,-1.99988553504227E-05,1.40625,0,0
-1.13171176963078E-06,-1.92785573744914E-05,1.40625,0,0
7.12630026100669E-07,-1.95413558685686E-05,1.40625,0,0
1.7415607089788E-06,-1.83376105269417E-05,1.40625,0,0
3.55801239493303E-06,-1.92133520613424E-05,1.40625,0,0
3.71685314348724E-06,-1.81561408680864E-05,1.40625,0,0
3.5171892704966E-06,-1.80618244485231E-05,1.40625,0,0
2.20772267311986E-06,-1.76360736077186E-05,1.40625,0,0
1.44999000895041E-06,-1.88677367987111E-05,1.40625,0,0
1.80868801180623E-06,-1.82478415808873E-05,1.40625,0,0
4.28597968493705E-06,-1.82452549779555E-05,1.40625,0,0
4.5423480514728E-06,-1.9218254237785E-05,1.40625,0,0
3.45928265232942E-06,-2.02317860384937E-05,1.40625,0,0
2.46141212301154E-06,-1.60568361025071E-05,1.40625,0,0
2.28897920351301E-06,-2.10026482818648E-05,1.40625,0,0
9.47554099184345E-07,-1.35836880872375E-05,1.40625,0,0
2.67486302618636E-06,-1.81196610355983E-05,1.40625,0,0
2.65409016719786E-06,-1.49952402352937E-05,1.40625,0,0
2.21254572352336E-06,-1.69001505128108E-05,1.40625,0,0
2.98858822134207E-07,-1.48804811033187E-05,1.40625,0,0
1.06849336134474E-06,-1.58288712555077E-05,1.40625,0,0
3.02257012663176E-06,-1.46034317367594E-05,1.40625,0,0
4.0446720959153E-06,-1.36481576191727E-05,1.40625,0,0
4.66968958789948E-06,-1.28209430840798E-05,1.40625,0,0
5.55857241124613E-06,-1.19493506645085E-05,1.40625,0,0
5.98509404881042E-06,-1.21833172670449E-05,1.40625,0,0
5.45214516023407E-06,-1.10209402919281E-05,1.40625,0,0
5.49690685147652E-06,-1.30604603327811E-05,1.40625,0,0
5.30566057932447E-06,-1.37825936690206E-05,1.40625,0,0
5.93192999076564E-06,-1.47800592458225E-05,1.40625,0,0
5.8261812228011E-06,-1.22018118418055E-05,1.40625,0,0
4.79049867863068E-06,-1.18533598651993E-05,1.40625,0,0
3.3888386496983E-06,-1.20623508337303E-05,1.93359375,0,0
4.23239180236124E-06,-1.48435483424691E-05,1.93359375,0,0
6.17228351984522E-06,-1.60805084306048E-05,1.93359375,0,0
7.32225726096658E-06,-1.7154898159788E-05,1.93359375,0,0
6.24721815256635E-06,-1.67937250807881E-05,1.93359375,0,0
3.79310790776799E-06,-1.59667797561269E-05,1.93359375,0,0
2.71133217211172E-06,-1.60069630510407E-05,1.93359375,0,0
5.03738010593224E-06,-1.69077120517613E-05,1.93359375,0,0
6.1138439377828E-06,-1.32331706481637E-05,1.93359375,0,0
8.32612749945838E-06,-1.9533748854883E-05,1.93359375,0,0
5.92600508753094E-06,-1.59828996402211E-05,1.93359375,0,0
7.99866029410623E-06,-1.84654891199898E-05,1.93359375,0,0
8.04246883490123E-06,-1.3505728020391E-05,1.93359375,0,0
1.01442374216276E-05,-1.25537108033313E-05,1.93359375,0,0
8.34018010209547E-06,-1.00506167655112E-05,1.93359375,0,0
6.79267395753413E-06,-1.22544270197977E-05,1.93359375,0,0
6.16792794971843E-06,-1.32143404698581E-05,1.93359375,0,0
5.65662003282341E-06,-1.33448747874354E-05,1.93359375,0,0
4.35352831118507E-06,-1.41156697281986E-05,1.93359375,0,0
4.15973727285746E-06,-1.54374538396951E-05,1.93359375,0,0
5.62507830181858E-06,-1.71726132975891E-05,1.93359375,0,0
5.6163198678405E-06,-1.66074914886849E-05,1.93359375,0,0
5.06696505908621E-06,-1.76417361217318E-05,1.93359375,0,0
4.25146890847827E-06,-1.79591370397247E-05,1.93359375,0,0
4.69662927571335E-06,-1.98314446606673E-05,1.93359375,0,0
3.86826104659121E-06,-1.91461440408602E-05,1.93359375,0,0
2.73866362476838E-06,-1.83250213012798E-05,1.93359375,0,0
1.63835045441374E-06,-1.68771566677606E-05,1.93359375,0,0
2.88407227344578E-06,-1.76230732904514E-05,1.93359375,0,0
4.14004489357467E-06,-1.66042227647267E-05,1.93359375,0,0
4.63097831016057E-06,-1.56909263751004E-05,1.93359375,0,0
2.67030509348842E-06,-1.64546981977765E-05,1.93359375,0,0
4.94956786667444E-08,-1.81377617991529E-05,1.93359375,0,0
8.57202905990562E-07,-1.91980543604586E-05,1.93359375,0,0
4.83709209220251E-06,-2.09924128284911E-05,1.93359375,0,0
5.72501312490203E-06,-1.70161856658524E-05,1.93359375,0,0
5.88288276048843E-06,-2.4719352950342E-05,1.93359375,0,0
6.83043651861226E-07,-1.84349482879043E-05,1.93359375,0,0
2.24227937906107E-06,-2.10857324418612E-05,1.93359375,0,0
1.61522689268168E-06,-1.66887566592777E-05,1.93359375,0,0
1.92590368897072E-06,-1.98624184122309E-05,1.93359375,0,0
2.59918806477799E-06,-1.98180750885513E-05,1.93359375,0,0
5.99460281591746E-06,-2.1086574633955E-05,1.93359375,0,0
7.12086148269009E-06,-1.90291793842334E-05,1.93359375,0,0
5.27610882272711E-06,-1.78206355485599E-05,1.93359375,0,0
4.09300082537811E-06,-1.80984570761211E-05,1.93359375,0,0
3.90915374737233E-06,-1.79038197529735E-05,1.93359375,0,0
4.03249623559532E-06,-1.80676706804661E-05,1.93359375,0,0
2.31033436648431E-06,-1.67422040249221E-05,1.93359375,0,0
4.69051741447402E-07,-1.81544073711848E-05,1.93359375,0,0
-1.9449998944765E-06,-1.72517120518023E-05,1.93359375,0,0
-3.74057617591461E-06,-1.68716960615711E-05,1.93359375,0,0
-4.70160330223734E-06,-1.51226204252453E-05,1.93359375,0,0
-3.52702386408055E-06,-1.60897470777854E-05,1.93359375,0,0
-2.86146882899629E-06,-1.47847340485896E-05,1.93359375,0,0
-2.10906478059769E-06,-1.37254091896466E-05,1.93359375,0,0
-1.61331843173684E-06,-1.24111711556907E-05,1.93359375,0,0
-1.43598037993797E-06,-1.27727234939812E-05,1.93359375,0,0
-2.47206821768486E-06,-1.26917420857353E-05,1.93359375,0,0
-2.75109664471529E-06,-1.22961528177257E-05,1.93359375,0,0
-1.47815035234089E-06,-1.22021783681703E-05,1.93359375,0,0
-5.01381180129101E-07,-1.37470478875912E-05,1.93359375,0,0
4.31145679158362E-07,-1.17270456030383E-05,1.93359375,0,0
2.13588668884768E-06,-1.58346792886732E-05,1.93359375,0,0
4.02050409320509E-06,-1.06714242065209E-05,1.93359375,0,0
5.54971666133497E-06,-1.35512445922359E-05,1.93359375,0,0
6.35206333754468E-06,-1.09419015643653E-05,1.93359375,0,0
4.96247639603098E-06,-1.2931450328324E-05,1.93359375,0,0
3.85027760785306E-06,-1.41796044772491E-05,1.93359375,0,0
3.69191161553317E-06,-1.63876393344253E-05,1.93359375,0,0
3.51896824213327E-06,-1.4795287825109E-05,1.93359375,0,0
2.76421997114085E-06,-1.43574043249828E-05,1.93359375,0,0
2.35999004871701E-06,-1.57830909301993E-05,1.93359375,0,0
2.25191456593166E-06,-1.60930776473833E-05,1.93359375,0,0
3.4145798508689E-06,-1.75323039002251E-05,1.93359375,0,0
5.84137251280481E-06,-1.7279535313719E-05,1.93359375,0,0
7.73504871176556E-06,-1.73965654539643E-05,1.93359375,0,0
8.35162154544378E-06,-1.70486910064938E-05,1.93359375,0,0
8.31993384053931E-06,-1.91192357306136E-05,1.93359375,0,0
8.30881253932603E-06,-2.00533959286986E-05,1.93359375,0,0
7.40300902180024E-06,-2.06647291633999E-05,1.93359375,0,0
6.28213410891476E-06,-1.95444299606606E-05,1.93359375,0,0
5.45991224498721E-06,-2.01962011487922E-05,1.93359375,0,0
4.58936074210214E-06,-2.01251768885413E-05,1.93359375,0,0
3.93379696106422E-06,-1.95622669707518E-05,1.93359375,0,0
2.98721306535299E-06,-1.94180101971142E-05,1.93359375,0,0
2.08689584724198E-06,-2.045289875241E-05,1.93359375,0,0
2.14955957744678E-06,-1.90498340089107E-05,1.93359375,0,0
2.65614426098182E-06,-1.75274162756978E-05,1.93359375,0,0
1.88542310297635E-06,-1.55207053467166E-05,1.93359375,0,0
1.81039001745376E-06,-2.29805136768846E-05,1.93359375,0,0
2.00476947043171E-07,-1.81512696144637E-05,1.93359375,0,0
3.03031242765428E-07,-2.14892097574193E-05,1.93359375,0,0
-3.4303789675505E-07,-1.84405398613308E-05,1.93359375,0,0
2.32433080782357E-07,-2.16474236367503E-05,1.93359375,0,0
3.67612813079177E-07,-2.0958732420695E-05,1.93359375,0,0
1.81727591552772E-06,-2.09427580557531E-05,1.93359375,0,0
2.73649629889405E-06,-1.852416426118E-05,1.93359375,0,0
3.95806000597076E-06,-1.76043013198068E-05,1.93359375,0,0
4.75091746920953E-06,-1.84380569407949E-05,1.93359375,0,0
4.24541121901711E-06,-1.82027924893191E-05,1.93359375,0,0
3.36757489094452E-06,-1.76253979589092E-05,1.93359375,0,0
2.71458839051775E-06,-1.49111956488923E-05,1.93359375,0,0
3.15771126224718E-06,-1.39639878398157E-05,1.93359375,0,0
4.61992249256582E-06,-1.33126513901516E-05,1.93359375,0,0
7.09799178366666E-06,-1.59711544256425E-05,1.93359375,0,0
8.13486076367553E-06,-1.62525138875935E-05,1.93359375,0,0
8.48944637255045E-06,-1.68392598425271E-05,1.93359375,0,0
8.93402739166049E-06,-1.71422798302956E-05,1.93359375,0,0
9.72044017544249E-06,-1.96278979274211E-05,1.93359375,0,0
1.00726856544497E-05,-1.98156485566869E-05,1.93359375,0,0
1.0463747457834E-05,-1.88122776307864E-05,1.93359375,0,0
9.74788599705789E-06,-1.75776458490873E-05,1.93359375,0,0
8.95516132004559E-06,-1.82668300112709E-05,1.93359375,0,0
7.7008526204736E-06,-1.81429149961332E-05,1.93359375,0,0
4.60572300653439E-06,-1.73379976331489E-05,1.93359375,0,0
8.16906037925946E-07,-1.62218002515147E-05,1.93359375,0,0
-1.53216419107594E-07,-2.56357852777001E-05,1.93359375,0,0
-8.98533244253485E-07,-2.26580996240955E-05,1.93359375,0,0
1.58173747877299E-07,-2.63394140347373E-05,1.93359375,0,0
-1.45035221521539E-06,-2.21431764657609E-05,1.93359375,0,0
-3.46712977261632E-06,-2.13268758670893E-05,1.93359375,0,0
-4.33767309004907E-06,-1.70039238582831E-05,1.93359375,0,0
-4.09988797400729E-06,-1.69726172316587E-05,1.93359375,0,0
-4.35108267993201E-06,-1.68886872415897E-05,1.93359375,0,0
-3.7068000438012E-06,-1.82838666660246E-05,1.93359375,0,0
-2.71210569735558E-06,-1.85639419214567E-05,1.93359375,0,0
-1.97768599718984E-06,-1.61688603839139E-05,1.93359375,0,0
-1.07867106180493E-06,-1.53849941852968E-05,1.93359375,0,0
-6.55419000850088E-07,-1.46093752846355E-05,1.93359375,0,0
-6.46735884402005E-07,-1.49340285133803E-05,1.93359375,0,0
-6.8374799866433E-07,-1.30895741676795E-05,1.93359375,0,0
3.92816787098127E-07,-1.39277708512964E-05,1.93359375,0,0
1.10937196495797E-06,-1.36409216793254E-05,1.93359375,0,0
1.41472855830216E-06,-1.42637682074565E-05,1.93359375,0,0
1.74719582446414E-06,-1.35683058033464E-05,1.93359375,0,0
1.82133442194754E-06,-1.45613666973077E-05,1.93359375,0,0
1.66211862051568E-06,-1.43895540531958E-05,1.93359375,0,0
3.27084467244276E-06,-1.46136244438821E-05,1.93359375,0,0
5.08993116454803E-06,-1.3506100003724E-05,1.93359375,0,0
5.95780738876783E-06,-1.29282752823201E-05,1.93359375,0,0
6.1031450968585E-06,-1.37294537125854E-05,1.93359375,0,0
5.84324152441695E-06,-1.59922892635223E-05,1.93359375,0,0
5.1654265007528E-06,-1.44423711390118E-05,1.93359375,0,0
6.96618144502281E-06,-1.99748028535396E-05,1.93359375,0,0
4.1401362977922E-06,-1.47562850543181E-05,1.93359375,0,0
4.36103709944291E-06,-1.92665556824068E-05,1.93359375,0,0
1.26973861824808E-06,-1.6964671885944E-05,1.93359375,0,0
-1.01293565535343E-07,-2.0061082977918E-05,1.93359375,0,0
-9.37429405212242E-08,-2.11006226891186E-05,1.93359375,0,0
1.81660925591132E-06,-2.35110273933969E-05,1.93359375,0,0
2.14003694054554E-06,-2.24894702114398E-05,1.93359375,0,0
1.70976932167832E-06,-2.29060169658624E-05,1.93359375,0,0
1.71810245319648E-06,-2.40049721469404E-05,1.93359375,0,0
3.49688843925833E-06,-2.21312657231465E-05,1.93359375,0,0
5.94052016822388E-06,-2.12490940612042E-05,1.93359375,0,0
5.271563622955E-06,-2.09249246836407E-05,1.93359375,0,0
3.25104997500603E-06,-2.19158846448408E-05,1.93359375,0,0
1.7802026377467E-06,-1.92985535250045E-05,1.93359375,0,0
2.41224688579678E-06,-1.75380209839204E-05,1.93359375,0,0
2.89919080387335E-06,-1.55990146595286E-05,1.93359375,0,0
3.48751541423553E-06,-1.62594024004648E-05,1.93359375,0,0
2.52397217082034E-06,-1.55496782099362E-05,1.93359375,0,0
1.13395356038382E-06,-1.56816822709516E-05,1.93359375,0,0
-2.04584182483813E-07,-1.51910335262073E-05,1.93359375,0,0
-5.79401216782571E-07,-1.62030046340078E-05,1.93359375,0,0
-6.41034390014283E-08,-1.71105220942991E-05,1.93359375,0,0
1.26246152376552E-06,-1.86781944648828E-05,1.93359375,0,0
2.00773456526804E-06,-1.98029847524595E-05,1.93359375,0,0
1.71185342878744E-06,-1.91860617633211E-05,1.93359375,0,0
-2.54757935636007E-07,-1.18461257443414E-05,1.93359375,0,0
3.86726668466508E-07,-1.44704836202436E-05,1.93359375,0,0
2.50824518843729E-06,-9.89782347460277E-06,1.93359375,0,0
3.94482231058646E-06,-1.52505926962476E-05,1.93359375,0,0
4.71560451842379E-06,-1.32437089632731E-05,1.93359375,0,0
4.22492666984908E-06,-1.52628163050395E-05,1.93359375,0,0
3.53924156115681E-06,-1.40801348607056E-05,1.93359375,0,0
3.78784147869737E-06,-1.57496342580998E-05,1.93359375,0,0
3.73893703908834E-06,-1.61395400937181E-05,1.93359375,0,0
3.88464877687511E-06,-1.7729944374878E-05,1.93359375,0,0
4.80967219118611E-06,-1.88940575753804E-05,1.93359375,0,0
5.89316459809197E-06,-1.77416131919017E-05,1.93359375,0,0
6.88192130837706E-06,-1.69460072356742E-05,1.93359375,0,0
8.08147524367087E-06,-1.62167452799622E-05,1.93359375,0,0
7.89248679211596E-06,-1.75829791260185E-05,1.93359375,0,0
6.07683523412561E-06,-1.72315012605395E-05,1.93359375,0,0
4.13954012401518E-06,-1.80634215212194E-05,1.93359375,0,0
3.20817457577505E-06,-1.70671846717596E-05,1.93359375,0,0
3.3587234611332E-06,-1.60714025696507E-05,1.93359375,0,0
3.98006159230135E-06,-1.25504493553308E-05,1.93359375,0,0
4.72336159873521E-06,-1.17445497380686E-05,1.93359375,0,0
5.33292813997832E-06,-1.23097152027185E-05,1.93359375,0,0
4.96194570587249E-06,-1.37720753627946E-05,1.93359375,0,0
4.39568430010695E-06,-1.40454549182323E-05,1.93359375,0,0
3.98890233554994E-06,-1.59978881129064E-05,1.93359375,0,0
2.27610348702001E-06,-1.8430831914884E-05,1.93359375,0,0
9.10418464172835E-07,-1.90635873877909E-05,1.93359375,0,0
2.05081983040145E-06,-1.53921209857799E-05,1.93359375,0,0
3.94410744775087E-06,-2.21218106162269E-05,1.93359375,0,0
3.75144486497447E-06,-1.80694387381664E-05,1.93359375,0,0
3.81761492462829E-06,-2.2300831915345E-05,1.93359375,0,0
3.5048913105129E-06,-1.74571705429116E-05,1.93359375,0,0
4.44471879745834E-06,-1.82421063072979E-05,1.93359375,0,0
5.07862159793149E-06,-1.71585234056693E-05,1.93359375,0,0
4.24705922341673E-06,-1.99724963749759E-05,1.93359375,0,0
3.95475490222452E-06,-2.02251958398847E-05,1.93359375,0,0
5.21503534400836E-06,-1.95825905393576E-05,1.93359375,0,0
6.8132035266899E-06,-1.84535147127463E-05,1.93359375,0,0
5.55061751583708E-06,-1.7208361896337E-05,1.93359375,0,0
3.40434439749515E-06,-1.80193510459503E-05,1.93359375,0,0
3.27192560689582E-06,-1.70504918060033E-05,1.93359375,0,0
3.72687077287992E-06,-1.74098713614512E-05,1.93359375,0,0
3.10657515001367E-06,-1.52347556650057E-05,1.93359375,0,0
2.72434613179939E-06,-1.49792931551929E-05,1.93359375,0,0
3.2714767712605E-06,-1.44582490975154E-05,1.93359375,0,0
2.83638564724242E-06,-1.51807544170879E-05,1.93359375,0,0
8.33038086511806E-07,-1.39124986162642E-05,1.93359375,0,0
-8.08557274467603E-07,-1.43043298521661E-05,1.93359375,0,0
-1.48782373798895E-06,-1.36082780954894E-05,1.93359375,0,0
-6.61587023387256E-07,-1.42261960718315E-05,1.93359375,0,0
1.29098566503671E-06,-1.48673034345848E-05,1.93359375,0,0
3.2087018553284E-06,-1.49123688970576E-05,1.93359375,0,0
3.62579407919839E-06,-1.29475238281884E-05,1.93359375,0,0
1.36395885874663E-06,-1.21170269267168E-05,1.93359375,0,0
-1.49705067542527E-06,-1.02323556347983E-05,1.93359375,0,0
-1.99574378711986E-06,-1.56773821800016E-05,1.93359375,0,0
1.34940910356818E-06,-1.34302163132816E-05,1.93359375,0,0
4.59220882476075E-06,-1.45862177305389E-05,1.93359375,0,0
5.3406133702083E-06,-1.02468275144929E-05,1.93359375,0,0
3.98592828787514E-06,-1.14330541691743E-05,1.93359375,0,0
2.49803952101502E-06,-1.13224105007248E-05,1.93359375,0,0
1.65981111877045E-06,-1.23189265650581E-05,1.93359375,0,0
2.08971141546499E-06,-1.33641515276395E-05,1.93359375,0,0
3.30153943650657E-06,-1.49447851072182E-05,1.93359375,0,0
4.55029930890305E-06,-1.52039146996685E-05,1.93359375,0,0
5.56512986804591E-06,-1.45006852108054E-05,1.93359375,0,0
5.39402526555932E-06,-1.4452056348091E-05,1.93359375,0,0
4.67859172204044E-06,-1.37217839437653E-05,1.93359375,0,0
4.14991609432036E-06,-1.55783563968726E-05,1.93359375,0,0
3.76771959054167E-06,-1.68715141626308E-05,1.93359375,0,0
3.84567556466209E-06,-1.70681323652389E-05,1.93359375,0,0
4.34229104939732E-06,-1.49239658639999E-05,1.93359375,0,0
3.54316807715804E-06,-1.571340362716E-05,1.93359375,0,0
1.62868934694416E-06,-1.71517131093424E-05,1.93359375,0,0
1.27640959135533E-07,-1.7937605662155E-05,1.93359375,0,0
4.71187803441353E-07,-1.67178732226603E-05,1.93359375,0,0
2.28098178922664E-06,-1.6017065718188E-05,1.93359375,0,0
2.85377586806135E-06,-1.55391990119824E-05,1.93359375,0,0
1.21609525649546E-06,-1.65524925250793E-05,2.98828125,0,0
-5.96122731622017E-07,-1.75040095200529E-05,2.98828125,0,0
-1.17944023259042E-06,-1.7994643712882E-05,2.98828125,0,0
-4.05349169341207E-07,-1.63312852237141E-05,2.98828125,0,0
-3.21314132634143E-07,-2.5068378818105E-05,2.98828125,0,0
-1.82998959985525E-07,-2.06193035410251E-05,2.98828125,0,0
-8.08776917438081E-07,-2.36579471675213E-05,2.98828125,0,0
-8.11728739336104E-07,-1.98044563148869E-05,2.98828125,0,0
-1.89495224844904E-07,-2.24579980567796E-05,2.98828125,0,0
1.59431280621902E-07,-2.11863516597077E-05,2.98828125,0,0
-8.41285228148081E-08,-2.11088063224452E-05,2.98828125,0,0
3.47488366969628E-07,-1.93908599612769E-05,2.98828125,0,0
3.99512487092579E-07,-1.86904817383038E-05,2.98828125,0,0
-2.71483514779902E-07,-1.91789240489015E-05,2.98828125,0,0
-6.93839581344946E-07,-1.9185939891031E-05,2.98828125,0,0
5.66616108699236E-07,-1.99123387574218E-05,2.98828125,0,0
2.55950226346613E-06,-1.86555844265968E-05,2.98828125,0,0
3.69124109056429E-06,-1.87519908649847E-05,2.98828125,0,0
4.04896445616032E-06,-1.76563808054198E-05,2.98828125,0,0
3.55986480826687E-06,-1.87517798622139E-05,2.98828125,0,0
2.47272100750706E-06,-1.89042402780615E-05,2.98828125,0,0
1.8441954807713E-06,-1.9786661141552E-05,2.98828125,0,0
2.31650801651995E-06,-1.81002433237154E-05,2.98828125,0,0
2.65808694166481E-06,-1.7987373212236E-05,2.98828125,0,0
3.99733335143537E-06,-1.76055837073363E-05,2.98828125,0,0
6.15057797404006E-06,-1.85750141099561E-05,2.98828125,0,0
6.85066379446653E-06,-1.89116490219021E-05,2.98828125,0,0
6.10920733379317E-06,-1.92280676856171E-05,2.98828125,0,0
4.74052967547323E-06,-1.98911329789553E-05,2.98828125,0,0
4.36481923316023E-06,-2.04585358005716E-05,2.98828125,0,0
4.47780666945619E-06,-1.62018004630227E-05,2.98828125,0,0
6.53228426017449E-06,-2.32917118410114E-05,2.98828125,0,0
3.90487502954784E-06,-1.74257747858064E-05,2.98828125,0,0
4.64558115709224E-06,-2.04211683012545E-05,2.98828125,0,0
4.60752244180185E-06,-1.63739823619835E-05,2.98828125,0,0
4.25193093178677E-06,-1.7929185560206E-05,2.98828125,0,0
2.61142122326419E-06,-1.53621949721128E-05,2.98828125,0,0
3.63975618711265E-06,-1.69489940162748E-05,2.98828125,0,0
5.40321616426809E-06,-1.77467172761681E-05,2.98828125,0,0
6.05166360401199E-06,-1.7871525415103E-05,2.98828125,0,0
5.10467998537933E-06,-1.74542437889613E-05,2.98828125,0,0
4.36938080383698E-06,-1.64907487487653E-05,2.98828125,0,0
5.38412041350966E-06,-1.7440417650505E-05,2.98828125,0,0
5.47108766113524E-06,-1.76359426404815E-05,2.98828125,0,0
3.83912447432522E-06,-1.90553892025491E-05,2.98828125,0,0
2.42239229919505E-06,-1.78385453182273E-05,2.98828125,0,0
4.11609698858229E-06,-1.74094529938884E-05,2.98828125,0,0
6.71784391670371E-06,-1.52375851030229E-05,2.98828125,0,0
8.86335055838572E-06,-1.57966424012557E-05,2.98828125,0,0
9.21866376302205E-06,-1.52817065099953E-05,2.98828125,0,0
8.17108229966834E-06,-1.55610050569521E-05,2.98828125,0,0
5.63120329388767E-06,-1.45028916449519E-05,2.98828125,0,0
4.11216888096533E-06,-1.40823985930183E-05,2.98828125,0,0
4.73999762107269E-06,-1.27277580759255E-05,2.98828125,0,0
6.61278500047047E-06,-1.22736973935389E-05,2.98828125,0,0
6.9182092374831E-06,-1.23939807963325E-05,2.98828125,0,0
6.24925587544567E-06,-1.40464826472453E-05,2.98828125,0,0
5.58311739951023E-06,-1.25305095934891E-05,2.98828125,0,0
7.53678432374727E-06,-1.59563060151413E-05,2.98828125,0,0
4.97256905873655E-06,-9.76484170678305E-06,2.98828125,0,0
6.80349558024318E-06,-1.36946573547903E-05,2.98828125,0,0
5.65227628612774E-06,-1.22106948765577E-05,2.98828125,0,0
5.85988345846999E-06,-1.43160586958402E-05,2.98828125,0,0
5.07173717778642E-06,-1.25496289911098E-05,2.98828125,0,0
5.37115647603059E-06,-1.27998491734616E-05,2.98828125,0,0
6.6511720433482E-06,-1.28892761495081E-05,2.98828125,0,0
7.29598741600057E-06,-1.44554487633286E-05,2.98828125,0,0
6.05197965342086E-06,-1.66394020197913E-05,2.98828125,0,0
4.08591222367249E-06,-1.9473023712635E-05,2.98828125,0,0
3.88021908293013E-06,-2.22672442760086E-05,2.98828125,0,0
4.24604968429776E-06,-2.09107893169858E-05,2.98828125,0,0
4.73376667287084E-06,-1.90231785381911E-05,2.98828125,0,0
4.02437399316113E-06,-1.62765081768157E-05,2.98828125,0,0
4.64330605609575E-06,-1.72913005371811E-05,2.98828125,0,0
5.91535899729934E-06,-1.82266066985903E-05,2.98828125,0,0
7.88259876571829E-06,-1.9502322174958E-05,2.98828125,0,0
9.22489198273979E-06,-1.84316322702216E-05,2.98828125,0,0
1.03883448900888E-05,-1.93147570826113E-05,2.98828125,0,0
1.02743815659778E-05,-1.94687527255155E-05,2.98828125,0,0
1.0505863428989E-05,-2.01106831809739E-05,2.98828125,0,0
1.12710895336932E-05,-1.97830540855648E-05,2.98828125,0,0
1.19945552796707E-05,-1.95375396288E-05,2.98828125,0,0
1.17251274787122E-05,-2.13047514989739E-05,2.98828125,0,0
9.82363417278975E-06,-2.19082921830704E-05,2.98828125,0,0
5.71222562939511E-06,-1.59285827976419E-05,2.98828125,0,0
6.68788698021672E-06,-2.13265939237317E-05,2.98828125,0,0
3.32838089889265E-06,-1.45882104334305E-05,2.98828125,0,0
3.96663608626113E-06,-1.83632473635953E-05,2.98828125,0,0
2.84808584183338E-06,-1.38624063765747E-05,2.98828125,0,0
6.69711425871355E-06,-1.54180888785049E-05,2.98828125,0,0
7.93600520410109E-06,-1.45738922583405E-05,2.98828125,0,0
7.89100431575207E-06,-1.57442864292534E-05,2.98828125,0,0
5.55072756469599E-06,-1.33294197439682E-05,2.98828125,0,0
3.97631265514065E-06,-1.25131300592329E-05,2.98828125,0,0
3.63276126336132E-06,-1.34989040816436E-05,2.98828125,0,0
3.03697220260801E-06,-1.46070042319479E-05,2.98828125,0,0
2.96998337034893E-06,-1.68051847140305E-05,2.98828125,0,0
2.18625928027905E-06,-1.74967608472798E-05,2.98828125,0,0
2.77419781014032E-06,-2.02688679564744E-05,2.98828125,0,0
2.8496097002062E-06,-2.00481426873012E-05,2.98828125,0,0
2.6245875233144E-06,-2.05562228074996E-05,2.98828125,0,0
1.12792690742936E-06,-1.92873030755436E-05,2.98828125,0,0
9.328663281849E-07,-2.00686008611228E-05,2.98828125,0,0
1.1597185221035E-06,-1.89826187124709E-05,2.98828125,0,0
2.23333336180076E-06,-1.90525006473763E-05,2.98828125,0,0
1.45344188240415E-06,-1.89822058018763E-05,2.98828125,0,0
1.40584674568345E-07,-1.9988854546682E-05,2.98828125,0,0
-8.89141347215627E-07,-1.92668467207113E-05,2.98828125,0,0
-1.51502581502427E-06,-2.00449521798873E-05,2.98828125,0,0
-2.11608539757435E-06,-2.09554309549276E-05,2.98828125,0,0
-2.24833638640121E-06,-1.99269416043535E-05,2.98828125,0,0
-1.88658350452897E-06,-1.41632654049317E-05,2.98828125,0,0
-1.54348720116104E-06,-1.92026909644483E-05,2.98828125,0,0
3.01616779552205E-07,-1.31179140225868E-05,2.98828125,0,0
-2.92711860083728E-07,-1.5387649909826E-05,2.98828125,0,0
8.00921895915963E-07,-1.16169621833251E-05,2.98828125,0,0
7.667857744309E-07,-1.44597306643846E-05,2.98828125,0,0
3.45287332947919E-07,-1.46755710375146E-05,2.98828125,0,0
1.31308652839834E-07,-1.79219678102527E-05,2.98828125,0,0
6.78901585615677E-07,-1.78038008016301E-05,2.98828125,0,0
3.8881930208845E-07,-1.66166464623529E-05,2.98828125,0,0
-1.0906567240454E-06,-1.62753003678517E-05,2.98828125,0,0
-2.4831529117364E-06,-1.71604788192781E-05,2.98828125,0,0
-2.99309135698422E-06,-1.93707637663465E-05,2.98828125,0,0
-2.15888189813995E-06,-1.81502182385884E-05,2.98828125,0,0
-1.73130658254195E-07,-1.58249804371735E-05,2.98828125,0,0
2.33374294111854E-06,-1.08845515569556E-05,2.98828125,0,0
2.90577600026154E-06,-9.45506326388568E-06,2.98828125,0,0
2.05252968044078E-06,-8.79514300322626E-06,2.98828125,0,0
-2.97927812198395E-07,-1.02955982583808E-05,2.98828125,0,0
-3.3765406897146E-06,-1.00285233202158E-05,2.98828125,0,0
-5.28062082594261E-06,-1.08628619273077E-05,2.98828125,0,0
-4.09453195970855E-06,-1.10348000816884E-05,2.98828125,0,0
-2.14592932934465E-06,-1.30150137920282E-05,2.98828125,0,0
-9.18255295800918E-07,-1.46952816066914E-05,2.98828125,0,0
5.925594948053E-08,-1.5778559827595E-05,2.98828125,0,0
1.73588580310025E-06,-1.58748953253962E-05,2.98828125,0,0
3.13176997224218E-06,-1.67126381711569E-05,2.98828125,0,0
9.33528440327791E-07,-1.37517654366093E-05,2.98828125,0,0
-2.01825685053336E-07,-1.92820170923369E-05,2.98828125,0,0
-1.5340215213655E-06,-1.52732191054383E-05,2.98828125,0,0
-8.6638721086274E-07,-1.98610432562418E-05,2.98828125,0,0
-9.47053138133924E-07,-1.75247023435077E-05,2.98828125,0,0
1.84864347829716E-07,-2.02444716705941E-05,2.98828125,0,0
2.62929660266309E-07,-1.83575903065503E-05,2.98828125,0,0
-5.47262102301715E-09,-1.85915014299098E-05,2.98828125,0,0
-1.67980033438653E-06,-1.85074768523918E-05,2.98828125,0,0
-1.91643562175159E-06,-1.87663608812727E-05,2.98828125,0,0
-4.06546661224638E-07,-1.92014813364949E-05,2.98828125,0,0
1.28601027427067E-06,-1.96530909306603E-05,2.98828125,0,0
3.1571082672599E-06,-2.03171239263611E-05,2.98828125,0,0
4.41125803263276E-06,-1.885432175186E-05,2.98828125,0,0
4.53724396720645E-06,-1.88953272299841E-05,2.98828125,0,0
3.57626186087145E-06,-1.82074836629909E-05,2.98828125,0,0
3.48113462678157E-06,-1.97641020349693E-05,2.98828125,0,0
3.86283954867395E-06,-2.02056580747012E-05,2.98828125,0,0
4.26320139013114E-06,-2.25239655264886E-05,2.98828125,0,0
4.13704628954292E-06,-2.25121384573868E-05,2.98828125,0,0
4.14073747379007E-06,-2.19229477806948E-05,2.98828125,0,0
3.97379653804819E-06,-2.10732978302985E-05,2.98828125,0,0
5.17998023497057E-06,-2.2168662326294E-05,2.98828125,0,0
6.0455877246568E-06,-2.14164520002669E-05,2.98828125,0,0
4.66421533928951E-06,-1.98403577087447E-05,2.98828125,0,0
2.42249484472268E-06,-1.89350812433986E-05,2.98828125,0,0
2.28392218559748E-06,-1.77735855686478E-05,2.98828125,0,0
3.53550581166928E-06,-1.3770808436675E-05,2.98828125,0,0
5.69214989809552E-06,-1.96552155102836E-05,2.98828125,0,0
2.88862702291226E-06,-1.51093145177583E-05,2.98828125,0,0
1.47977220876783E-06,-1.90339633263648E-05,2.98828125,0,0
1.64004643465887E-06,-1.68795286299428E-05,4.04296875,0,0
2.09339418688614E-06,-1.90548871614737E-05,4.04296875,0,0
1.8472569252026E-07,-1.79939925146755E-05,4.04296875,0,0
-1.3405126253474E-07,-2.04540283448296E-05,4.04296875,0,0
1.29560430650599E-06,-2.14854280784493E-05,4.04296875,0,0
2.41340876527829E-06,-1.97786011995049E-05,4.04296875,0,0
2.7741887151933E-06,-1.79808212124044E-05,4.04296875,0,0
3.25388009514427E-06,-1.80147817445686E-05,4.04296875,0,0
3.18347588290635E-06,-2.07722605409799E-05,4.04296875,0,0
2.84626230495633E-06,-2.11772512557218E-05,4.04296875,0,0
4.03208196075866E-06,-2.00834874704015E-05,4.04296875,0,0
5.45994998901733E-06,-1.66221343533834E-05,4.04296875,0,0
6.21899016550742E-06,-1.57858739839867E-05,4.04296875,0,0
6.54518498777179E-06,-1.42426406455343E-05,4.04296875,0,0
8.50964897836093E-06,-1.49087754834909E-05,4.04296875,0,0
1.05079298009514E-05,-1.43977831612574E-05,4.04296875,0,0
1.1410627848818E-05,-1.34712199724163E-05,4.04296875,0,0
1.12041361717274E-05,-1.13560845420579E-05,4.04296875,0,0
1.09291695480351E-05,-1.07633823063225E-05,4.04296875,0,0
9.78371281235013E-06,-1.09739712570445E-05,4.04296875,0,0
8.06208390713437E-06,-1.25729147839593E-05,4.04296875,0,0
7.8119655881892E-06,-1.38873920150218E-05,4.04296875,0,0
8.83980737853562E-06,-1.42386907100445E-05,4.04296875,0,0
7.20488696970278E-06,-1.18549796752632E-05,4.04296875,0,0
8.95118228072533E-06,-1.78780355781782E-05,4.04296875,0,0
4.12780264014145E-06,-1.56332425831351E-05,4.04296875,0,0
5.72045200897264E-06,-1.81971772690304E-05,4.04296875,0,0
5.32938884134637E-06,-1.39731046147062E-05,4.04296875,0,0
6.46569378659478E-06,-1.4166173968988E-05,4.04296875,0,0
4.25224015998538E-06,-1.24518091979553E-05,4.04296875,0,0
2.19698654291278E-06,-1.39550338644767E-05,4.04296875,0,0
9.50136211486097E-07,-1.37258803079021E-05,4.04296875,0,0
2.14337251236429E-06,-1.31734423121088E-05,4.04296875,0,0
3.11481016979087E-06,-1.261454053747E-05,4.04296875,0,0
3.30189300257189E-06,-1.14669082904584E-05,4.04296875,0,0
3.86552892450709E-06,-1.17232266347855E-05,4.04296875,0,0
3.00270312436624E-06,-1.23170611914247E-05,4.04296875,0,0
2.20998686017992E-06,-1.39741532620974E-05,4.04296875,0,0
-4.26029380662385E-08,-1.41056643769844E-05,4.04296875,0,0
-1.22317510431458E-06,-1.65860037668608E-05,4.04296875,0,0
-6.00568682784797E-07,-1.76894300238928E-05,4.04296875,0,0
2.16306489164708E-06,-1.89921447599772E-05,4.04296875,0,0
3.00558667731821E-06,-1.87018267752137E-05,4.04296875,0,0
2.91886203740432E-06,-1.91225026355824E-05,4.04296875,0,0
1.09688915017614E-06,-1.8570046449895E-05,4.04296875,0,0
4.66804124243936E-07,-1.91708222700981E-05,4.04296875,0,0
9.66562538451399E-07,-1.87073346751276E-05,4.04296875,0,0
1.45395699746587E-06,-1.70113053172827E-05,4.04296875,0,0
8.97199186056241E-07,-1.48259787238203E-05,4.04296875,0,0
3.44487354198009E-08,-1.54397421283647E-05,4.04296875,0,0
1.56564070152854E-07,-1.55245325004216E-05,4.04296875,0,0
3.0404905260184E-07,-2.40277986449655E-05,4.04296875,0,0
6.12438100233703E-07,-1.93040013982682E-05,4.04296875,0,0
4.47089178123861E-07,-2.19945941353217E-05,4.04296875,0,0
-1.45861235978373E-06,-2.10037360375281E-05,4.04296875,0,0
-2.50915491051273E-06,-2.54229435086017E-05,4.04296875,0,0
-1.12965290099964E-06,-2.53984817391029E-05,4.04296875,0,0
-5.67630252135132E-07,-2.68462226813426E-05,4.04296875,0,0
-6.90127649249916E-07,-2.55693976214388E-05,4.04296875,0,0
-4.01807625394213E-07,-2.47660063905641E-05,4.04296875,0,0
-3.02640273730503E-07,-2.42969344981248E-05,4.04296875,0,0
-9.58158807407017E-07,-2.36720243265154E-05,4.04296875,0,0
-1.00207466857682E-06,-2.43100184889045E-05,4.04296875,0,0
-8.48525417040946E-07,-2.3371812858386E-05,4.04296875,0,0
-1.36548908358236E-06,-2.2325613826979E-05,4.04296875,0,0
-3.23495623888448E-06,-1.89057664101711E-05,4.04296875,0,0
-4.90912634631968E-06,-1.79302751348587E-05,4.04296875,0,0
-3.70719385500706E-06,-1.64448192663258E-05,4.04296875,0,0
-1.13192095341219E-06,-1.72995460161474E-05,4.04296875,0,0
1.01935320628854E-07,-1.63627228175756E-05,4.04296875,0,0
-2.32813249567698E-07,-1.61757161549758E-05,4.04296875,0,0
6.36982122159679E-07,-1.58481234393548E-05,4.04296875,0,0
2.94490200758446E-06,-1.74818615050754E-05,4.04296875,0,0
4.50127618023544E-06,-1.83024112629937E-05,4.04296875,0,0
4.96597158416989E-06,-1.71385527210077E-05,4.04296875,0,0
5.71381679037586E-06,-1.41425698529929E-05,4.04296875,0,0
5.85027737542987E-06,-1.31356764541124E-05,4.04296875,0,0
5.58423926122487E-06,-1.18593607112416E-05,4.04296875,0,0
9.37757522478933E-06,-1.68194401339861E-05,4.04296875,0,0
9.1627216534107E-06,-1.25960987134022E-05,4.04296875,0,0
1.05579620139906E-05,-1.66695263033034E-05,4.04296875,0,0
9.08019956114003E-06,-1.48591425386257E-05,4.04296875,0,0
9.35383741307305E-06,-1.49194474943215E-05,4.04296875,0,0
8.66735899762716E-06,-1.25323022075463E-05,4.04296875,0,0
8.82663243828574E-06,-1.2478260032367E-05,4.04296875,0,0
7.71527902543312E-06,-1.13363830678281E-05,4.04296875,0,0
6.06607090958278E-06,-1.0438505341881E-05,4.04296875,0,0
4.96547181683127E-06,-1.05751068986137E-05,4.04296875,0,0
5.02722923556576E-06,-1.10019800558803E-05,4.04296875,0,0
6.26356359134661E-06,-1.28069959828281E-05,4.04296875,0,0
6.8903818828403E-06,-1.34525625981041E-05,4.04296875,0,0
7.29068051441573E-06,-1.46664569911081E-05,4.04296875,0,0
6.54720543025178E-06,-1.3734349522565E-05,4.04296875,0,0
5.60358421353158E-06,-1.42319495353149E-05,4.04296875,0,0
3.97557687392691E-06,-1.51869744513533E-05,4.04296875,0,0
4.11183555115713E-06,-1.81799896381563E-05,4.04296875,0,0
5.05384832649725E-06,-1.89232159755193E-05,4.04296875,0,0
6.78702281220467E-06,-1.89769652934046E-05,4.04296875,0,0
8.08596269052941E-06,-1.8802647900884E-05,4.04296875,0,0
8.42907684273086E-06,-1.85179251275258E-05,4.04296875,0,0
6.7344844865147E-06,-1.6394858903368E-05,4.04296875,0,0
4.74290482088691E-06,-1.62588494276861E-05,4.04296875,0,0
3.09318238578271E-06,-1.71015217347303E-05,4.04296875,0,0
2.50384482569643E-06,-1.51802787513589E-05,4.04296875,0,0
2.05280502996175E-06,-1.00856150311301E-05,4.04296875,0,0
1.83926840691129E-06,-1.36524040499353E-05,4.04296875,0,0
-8.21252228888625E-07,-8.70389703777619E-06,4.04296875,0,0
2.51880067025922E-07,-1.06984371086583E-05,4.04296875,0,0
2.43534850596916E-06,-9.46055479289498E-06,4.04296875,0,0
4.16614420828409E-06,-1.14634631245281E-05,4.04296875,0,0
4.43215685663745E-06,-1.04965074569918E-05,4.04296875,0,0
5.16477757628309E-06,-1.08407029983937E-05,4.04296875,0,0
6.46424632577691E-06,-1.02877902463661E-05,4.04296875,0,0
6.60581827105489E-06,-1.08570584416157E-05,4.04296875,0,0
4.46546255261637E-06,-1.18948782983352E-05,4.04296875,0,0
1.63876995884493E-06,-1.30527896544663E-05,4.04296875,0,0
3.22107496231183E-07,-1.542581958347E-05,4.04296875,0,0
2.16121325280483E-08,-1.6434876670246E-05,4.04296875,0,0
6.09655330663372E-07,-1.76260891748825E-05,4.04296875,0,0
1.34762944981048E-06,-1.65717483469052E-05,4.04296875,0,0
2.38594543588988E-06,-1.56623864313588E-05,4.04296875,0,0
3.90489003621042E-06,-1.46554366438068E-05,4.04296875,0,0
5.22299433214357E-06,-1.70681141753448E-05,4.04296875,0,0
4.15525710195652E-06,-1.99000460270327E-05,4.04296875,0,0
2.56845873991551E-06,-2.25535040954128E-05,4.04296875,0,0
2.66079496213933E-06,-2.26465108426055E-05,4.04296875,0,0
4.13089128414867E-06,-2.18776767724194E-05,4.04296875,0,0
3.97621488446021E-06,-2.05736378120491E-05,4.04296875,0,0
2.04393813874049E-06,-2.02412793441908E-05,4.04296875,0,0
1.05805679595505E-06,-1.91246563190361E-05,4.04296875,0,0
9.65998424362624E-07,-1.85191674972884E-05,4.04296875,0,0
1.22509413813532E-06,-1.70150051417295E-05,4.04296875,0,0
2.00442354980623E-06,-2.47162643063348E-05,4.04296875,0,0
2.21594677896064E-06,-1.80620845640078E-05,4.04296875,0,0
3.79866492039582E-06,-2.14819847315084E-05,4.04296875,0,0
4.52062386102625E-06,-1.80872593773529E-05,4.04296875,0,0
5.9627400332829E-06,-1.9752385924221E-05,4.04296875,0,0
7.9592482506996E-06,-1.82117637450574E-05,4.04296875,0,0
8.59552255860763E-06,-1.93444502656348E-05,4.04296875,0,0
7.7691338447039E-06,-1.9015524230781E-05,4.04296875,0,0
6.43311750536668E-06,-1.87298483069753E-05,4.04296875,0,0
5.61512433705502E-06,-1.74001615960151E-05,4.04296875,0,0
5.2736395446118E-06,-1.56507612700807E-05,4.04296875,0,0
4.68706002720864E-06,-1.64357079484034E-05,4.04296875,0,0
3.51656490238383E-06,-1.64836092153564E-05,4.04296875,0,0
3.07943400912336E-06,-1.74578362930333E-05,4.04296875,0,0
3.86581268685404E-06,-1.61969728651457E-05,4.04296875,0,0
5.2894401960657E-06,-1.64702723850496E-05,4.04296875,0,0
6.36552294963622E-06,-1.38256036734674E-05,4.04296875,0,0
6.60594605506049E-06,-1.24301241157809E-05,4.04296875,0,0
5.87111662753159E-06,-1.10103055703803E-05,4.04296875,0,0
5.96539030084386E-06,-1.15732082122122E-05,4.04296875,0,0
7.89685418567387E-06,-1.02371068351204E-05,4.04296875,0,0
9.6124085757765E-06,-1.01661562439403E-05,4.04296875,0,0
9.21805803955067E-06,-1.08931426439085E-05,4.04296875,0,0
7.05878073858912E-06,-1.24902953757555E-05,4.04296875,0,0
4.65557104689651E-06,-1.3768993994745E-05,4.04296875,0,0
3.53579525835812E-06,-1.37328070195508E-05,4.04296875,0,0
1.89720174148533E-06,-9.41226426220965E-06,4.04296875,0,0
2.85134274236043E-06,-1.22833253044519E-05,4.04296875,0,0
2.74997137239552E-06,-8.03310649644118E-06,4.04296875,0,0
3.36565972247627E-06,-9.66061088547576E-06,4.04296875,0,0
2.30861064665078E-06,-8.89825878402917E-06,4.04296875,0,0
1.68669475897332E-06,-1.36056951305363E-05,4.04296875,0,0
1.4646215618086E-07,-1.42578728627996E-05,4.04296875,0,0
-3.48188223142643E-07,-1.60962063091574E-05,4.04296875,0,0
-8.10696121789078E-07,-1.62372161867097E-05,4.04296875,0,0
-4.90566719690833E-07,-1.49355673784157E-05,5.2734375,0,0
-5.22386528700736E-07,-1.34857946250122E-05,5.2734375,0,0
-2.49796539719682E-06,-1.31485003294074E-05,5.2734375,0,0
-4.23340088673285E-06,-1.45409003380337E-05,5.2734375,0,0
-5.17226635565748E-06,-1.55116667883703E-05,5.2734375,0,0
-4.81085544379312E-06,-1.78798527485924E-05,5.2734375,0,0
-4.13893030781765E-06,-1.84369200724177E-05,5.2734375,0,0
-3.48709386344126E-06,-1.92578027053969E-05,5.2734375,0,0
-3.81116137759818E-06,-1.91000071936287E-05,5.2734375,0,0
-4.32936303695897E-06,-2.09739464480663E-05,5.2734375,0,0
-4.09891526942374E-06,-2.18301556742517E-05,5.2734375,0,0
-2.3675659122091E-06,-2.14985193451867E-05,5.2734375,0,0
-1.50136611409835E-06,-1.84551972779445E-05,5.2734375,0,0
-2.85200280814024E-06,-1.7873107935884E-05,5.2734375,0,0
-3.78663207811769E-06,-1.92139996215701E-05,5.2734375,0,0
-8.65408026129444E-07,-1.9150145817548E-05,5.2734375,0,0
3.85664316127077E-06,-1.85885437531397E-05,5.2734375,0,0
6.69858309265692E-06,-1.9535795217962E-05,5.2734375,0,0
4.8842052819964E-06,-1.59208248078357E-05,5.2734375,0,0
6.32795672572684E-06,-2.22551461774856E-05,5.2734375,0,0
4.84137854073197E-06,-1.75613149622222E-05,5.2734375,0,0
7.84971962275449E-06,-2.15071813727263E-05,5.2734375,0,0
8.09524863143452E-06,-1.57236281665973E-05,5.2734375,0,0
8.63362765812781E-06,-1.84549226105446E-05,5.2734375,0,0
6.67372660245746E-06,-1.84264845302096E-05,5.2734375,0,0
6.58287763144472E-06,-2.01202601601835E-05,5.2734375,0,0
7.08203288013465E-06,-1.9891816918971E-05,5.2734375,0,0
7.8753237175988E-06,-1.96964065253269E-05,5.2734375,0,0
8.24601283966331E-06,-1.92551051441114E-05,5.2734375,0,0
9.80712138698436E-06,-1.77079000422964E-05,5.2734375,0,0
1.19788255688036E-05,-1.86340294021647E-05,5.2734375,0,0
1.13801352199516E-05,-1.88089543371461E-05,5.2734375,0,0
9.14227348403074E-06,-2.00233880605083E-05,5.2734375,0,0
6.79260028846329E-06,-1.93288469745312E-05,5.2734375,0,0
6.59227271171403E-06,-2.03174258786021E-05,5.2734375,0,0
6.23332334726001E-06,-1.85666904144455E-05,5.2734375,0,0
5.99522354605142E-06,-1.82744024641579E-05,5.2734375,0,0
4.49863364337943E-06,-1.61841890076175E-05,5.2734375,0,0
2.42378496295714E-06,-1.45556005008984E-05,5.2734375,0,0
-2.27285354981177E-07,-1.27247976706713E-05,5.2734375,0,0
-1.08149629340915E-06,-1.42882381624077E-05,5.2734375,0,0
-5.29271346749738E-07,-1.67707039508969E-05,5.2734375,0,0
9.44837665883824E-07,-1.88411995623028E-05,5.2734375,0,0
8.33718445392151E-07,-1.87459736480378E-05,5.2734375,0,0
-3.61271048632261E-07,-1.79128164745634E-05,5.2734375,0,0
-1.20530933145346E-06,-1.55304096551845E-05,5.2734375,0,0
-1.49796505866107E-06,-2.28388635150623E-05,5.2734375,0,0
-1.43356680837314E-06,-1.8350372556597E-05,5.2734375,0,0
-2.36689379562449E-06,-2.20163874473656E-05,5.2734375,0,0
-1.30798036934721E-06,-1.82121566467686E-05,5.2734375,0,0
-8.96965062224808E-08,-1.9507555407472E-05,5.2734375,0,0
1.82825431238598E-06,-1.80723764060531E-05,5.2734375,0,0
2.68287385551957E-06,-2.0905277779093E-05,5.2734375,0,0
2.65429184764798E-06,-2.24210525630042E-05,5.2734375,0,0
2.2479605377157E-06,-2.30255718633998E-05,5.2734375,0,0
9.45319243328413E-07,-2.22264807234751E-05,5.2734375,0,0
-5.74369380501594E-07,-1.95268276002025E-05,5.2734375,0,0
-6.67490098749113E-07,-1.90438895515399E-05,5.2734375,0,0
9.53261917402415E-07,-1.95612719835481E-05,5.2734375,0,0
2.5140764137177E-06,-2.16420630749781E-05,5.2734375,0,0
3.59055729859392E-06,-2.05744927370688E-05,5.2734375,0,0
4.45461182607687E-06,-2.08238852792419E-05,5.2734375,0,0
5.42478346687858E-06,-1.89739348570583E-05,5.2734375,0,0
5.90374975217856E-06,-1.81946525117382E-05,5.2734375,0,0
6.19942920820904E-06,-1.77358906512382E-05,5.2734375,0,0
5.92447076996905E-06,-2.03081544896122E-05,5.2734375,0,0
5.50870890947408E-06,-2.17658780456986E-05,5.2734375,0,0
5.11804773850599E-06,-2.20852471102262E-05,5.2734375,0,0
5.55138058189186E-06,-2.05092637770576E-05,5.2734375,0,0
6.22097968516755E-06,-2.0127465177211E-05,5.2734375,0,0
6.62577804178E-06,-2.03184990823502E-05,5.2734375,0,0
6.19070215179818E-06,-2.01209895749344E-05,5.2734375,0,0
4.48176842837711E-06,-1.62181095220149E-05,5.2734375,0,0
6.13379188507679E-06,-2.32741040235851E-05,5.2734375,0,0
3.96891391574172E-06,-1.80768402060494E-05,5.2734375,0,0
3.55602219315188E-06,-2.31679077842273E-05,5.2734375,0,0
7.7045228863426E-07,-2.07635621336522E-05,5.2734375,0,0
1.10103474071366E-06,-2.20690726564499E-05,5.2734375,0,0
8.84775488430023E-07,-1.91803264897317E-05,5.2734375,0,0
6.80879963965708E-07,-1.87929308594903E-05,5.2734375,0,0
-1.38061147936241E-06,-1.6039468391682E-05,5.2734375,0,0
-2.52982454185258E-06,-1.41647187774652E-05,5.2734375,0,0
-6.88344186983159E-07,-1.39598714667954E-05,5.2734375,0,0
1.60479521582602E-06,-1.51003132486949E-05,5.2734375,0,0
2.23654728870315E-06,-1.88723151950398E-05,5.2734375,0,0
1.28011947708728E-06,-2.04411899176193E-05,5.2734375,0,0
1.33559399273508E-06,-2.13646235351916E-05,5.2734375,0,0
1.30519913454918E-06,-1.89918628166197E-05,5.2734375,0,0
1.43239788030769E-06,-1.91657127288636E-05,5.2734375,0,0
1.14970396225544E-06,-1.86585748451762E-05,5.2734375,0,0
1.60458182563161E-06,-1.97403933270834E-05,5.2734375,0,0
1.87210878266342E-06,-1.90277005458483E-05,5.2734375,0,0
3.5170855881006E-06,-1.85559147212189E-05,5.2734375,0,0
4.30326554123894E-06,-1.68607457453618E-05,5.2734375,0,0
3.62410582965822E-06,-1.68470778589835E-05,5.2734375,0,0
3.17309195452253E-06,-1.68683163792593E-05,5.2734375,0,0
3.67998791261925E-06,-1.75468994711991E-05,5.2734375,0,0
3.71096621165634E-06,-1.67691214301158E-05,5.2734375,0,0
3.66903714166256E-06,-1.61604239110602E-05,5.2734375,0,0
4.91345417685807E-06,-1.36276876219199E-05,5.2734375,0,0
8.13537917565554E-06,-2.05230735446094E-05,5.2734375,0,0
6.79090226185508E-06,-1.6477544704685E-05,5.2734375,0,0
7.44085036785691E-06,-1.87251935130917E-05,5.2734375,0,0
6.89891658112174E-06,-1.50627965922467E-05,5.2734375,0,0
7.41552003091783E-06,-1.62518081197049E-05,5.2734375,0,0
7.62649142416194E-06,-1.43044799187919E-05,5.2734375,0,0
8.07803098723525E-06,-1.51683107105782E-05,5.2734375,0,0
7.82066308602225E-06,-1.5343219274655E-05,5.2734375,0,0
7.44726230550441E-06,-1.4914106031938E-05,5.2734375,0,0
6.44496003587847E-06,-1.34397951114806E-05,5.2734375,0,0
5.88908642384922E-06,-1.18230291263899E-05,5.2734375,0,0
6.58866701996885E-06,-1.27619168779347E-05,5.2734375,0,0
7.08735842636088E-06,-1.31036431412213E-05,5.2734375,0,0
7.4278423198848E-06,-1.40142001328059E-05,5.2734375,0,0
6.80671428199275E-06,-1.2810326552426E-05,5.2734375,0,0
6.07001993557788E-06,-1.30315511341905E-05,5.2734375,0,0
4.77272715215804E-06,-1.20300092021353E-05,5.2734375,0,0
4.41956444774405E-06,-1.31608348965528E-05,5.2734375,0,0
4.15972363043693E-06,-1.40811589517398E-05,5.2734375,0,0
4.5931092245155E-06,-1.49575962495874E-05,5.2734375,0,0
5.0770909183484E-06,-1.37852102852776E-05,5.2734375,0,0
5.30378110852325E-06,-1.37685246954788E-05,5.2734375,0,0
5.22828167959233E-06,-1.39943267640774E-05,5.2734375,0,0
6.0277880038484E-06,-1.42945036714082E-05,5.2734375,0,0
6.45823365630349E-06,-1.39802441481152E-05,5.2734375,0,0
5.56444774701959E-06,-1.41620948852506E-05,5.2734375,0,0
2.0426612081792E-06,-1.23989239000366E-05,5.2734375,0,0
1.32587808820972E-06,-1.85207572940271E-05,5.2734375,0,0
-2.07200812951669E-07,-1.53998535097344E-05,5.2734375,0,0
8.92511991423817E-07,-1.91744584299158E-05,5.2734375,0,0
8.91871422936674E-07,-1.8038375856122E-05,5.2734375,0,0
2.83556096292159E-06,-1.97448225662811E-05,5.2734375,0,0
2.60659317063983E-06,-1.82161529664882E-05,5.2734375,0,0
1.41148177590367E-06,-1.94740969163831E-05,5.2734375,0,0
7.75039211475814E-07,-1.86592842510436E-05,5.2734375,0,0
2.24502059609222E-06,-1.789885936887E-05,5.2734375,0,0
3.60593662662723E-06,-1.63333879754646E-05,5.2734375,0,0
4.51839741799631E-06,-1.45560015880619E-05,5.2734375,0,0
5.1706338126678E-06,-1.50053519973881E-05,5.2734375,0,0
3.60290164280741E-06,-1.50896967170411E-05,5.2734375,0,0
2.28348062591976E-06,-1.54303579620318E-05,5.2734375,0,0
1.61477350957284E-06,-1.43714696605457E-05,5.2734375,0,0
7.33575916456175E-07,-1.57729245984228E-05,5.2734375,0,0
-1.85152259746246E-06,-1.49788538692519E-05,5.2734375,0,0
-3.12770862365142E-06,-1.45842550409725E-05,5.2734375,0,0
-2.17018759940402E-06,-1.31567703647306E-05,5.2734375,0,0
-2.02336750021459E-07,-1.2451318980311E-05,5.2734375,0,0
1.24612199670082E-07,-1.14303820737405E-05,5.2734375,0,0
-1.53459848206694E-06,-1.20701370178722E-05,5.2734375,0,0
-4.09009953727946E-06,-1.19346841529477E-05,5.2734375,0,0
-4.48584751211456E-06,-1.19097658171086E-05,5.2734375,0,0
-1.72490456407104E-06,-1.22117116916343E-05,5.2734375,0,0
1.48355513829301E-06,-1.37464930958231E-05,5.2734375,0,0
1.63938273090025E-06,-1.18546968224109E-05,5.2734375,0,0
2.1859671051061E-06,-1.81419236469083E-05,5.2734375,0,0
1.20316451557301E-06,-1.58870388986543E-05,5.2734375,0,0
2.5778540475585E-06,-1.95248994714348E-05,5.2734375,0,0
5.24578035765444E-06,-1.53489072545199E-05,5.2734375,0,0
7.59781278247829E-06,-1.4731540431967E-05,5.2734375,0,0
7.40420500733308E-06,-1.45591102409526E-05,5.2734375,0,0
6.79649883750244E-06,-1.68559945450397E-05,5.2734375,0,0
5.76084630665719E-06,-1.68609749380266E-05,5.2734375,0,0
4.95414496981539E-06,-1.60795971169136E-05,5.2734375,0,0
4.66076244265423E-06,-1.53766377479769E-05,5.2734375,0,0
3.32965487359616E-06,-1.47370710692485E-05,6.15234375,0,0
1.62273488513165E-06,-1.48837552842451E-05,6.15234375,0,0
1.13342650820414E-06,-1.42729913932271E-05,6.15234375,0,0
2.38998018176062E-06,-1.55489760800265E-05,6.15234375,0,0
2.71497924586583E-06,-1.56578207679559E-05,6.15234375,0,0
1.76578748778411E-06,-1.62172909767833E-05,6.15234375,0,0
1.34003812490846E-06,-1.51737585838418E-05,6.15234375,0,0
2.21725167648401E-06,-1.61397983902134E-05,6.15234375,0,0
2.29663169193373E-06,-1.65831606864231E-05,6.15234375,0,0
1.57915280851739E-06,-1.63820423040306E-05,6.15234375,0,0
1.63873312430951E-06,-1.43995748658199E-05,6.15234375,0,0
2.59856187767582E-06,-1.24355501611717E-05,6.15234375,0,0
3.58200327355007E-06,-1.15187785922899E-05,6.15234375,0,0
4.67158952233149E-06,-1.4505114450003E-05,6.15234375,0,0
6.8003018895979E-06,-1.7415788533981E-05,6.15234375,0,0
7.99158533482114E-06,-1.65786514116917E-05,6.15234375,0,0
6.66716732666828E-06,-1.21225048133056E-05,6.15234375,0,0
1.05382059700787E-05,-1.77439596882323E-05,6.15234375,0,0
9.50941921473714E-06,-1.56660244101658E-05,6.15234375,0,0
1.2058146239724E-05,-2.01820839720313E-05,6.15234375,0,0
1.12445086415391E-05,-1.68653332366375E-05,6.15234375,0,0
1.05236731542391E-05,-1.71894389495719E-05,6.15234375,0,0
7.38746484785224E-06,-1.44120585900964E-05,6.15234375,0,0
7.98018572822912E-06,-1.41560631163884E-05,6.15234375,0,0
9.03977252164623E-06,-1.31970755319344E-05,6.15234375,0,0
7.85826250648825E-06,-1.33050989461481E-05,6.15234375,0,0
5.89313367527211E-06,-1.44700088640093E-05,6.15234375,0,0
4.56806628790218E-06,-1.48742337842123E-05,6.15234375,0,0
5.21479068993358E-06,-1.63225195137784E-05,6.15234375,0,0
5.54490088688908E-06,-1.75498280441388E-05,6.15234375,0,0
5.80767573410412E-06,-1.9911411072826E-05,6.15234375,0,0
5.56090617465088E-06,-1.94733493117383E-05,6.15234375,0,0
6.17725982010597E-06,-1.82417425094172E-05,6.15234375,0,0
5.35911885890528E-06,-1.50644100358477E-05,6.15234375,0,0
3.5146615573467E-06,-1.48281806104933E-05,6.15234375,0,0
4.49149581527308E-07,-1.47950586324441E-05,6.15234375,0,0
-1.03133788798004E-06,-1.58712682605255E-05,6.15234375,0,0
-1.95022153093305E-06,-1.64744506037096E-05,6.15234375,0,0
-3.23132030644047E-06,-1.75217428477481E-05,6.15234375,0,0
-5.45914235772216E-06,-1.78045866050525E-05,6.15234375,0,0
-6.28226462140447E-06,-1.81048289960017E-05,6.15234375,0,0
-4.91944501845865E-06,-1.68192309502047E-05,6.15234375,0,0
-2.89913714368595E-06,-1.50900332300807E-05,6.15234375,0,0
-1.20731829156284E-06,-1.07636178654502E-05,6.15234375,0,0
-2.54968108492903E-06,-1.44914101838367E-05,6.15234375,0,0
-2.45310047830571E-06,-9.75364218902541E-06,6.15234375,0,0
-9.91339220490772E-07,-1.33172889036359E-05,6.15234375,0,0
2.16149464904447E-06,-1.33900430228096E-05,6.15234375,0,0
3.83813903681585E-06,-1.70629427884705E-05,6.15234375,0,0
3.17153262585634E-06,-1.72329037013697E-05,6.15234375,0,0
1.25380506688089E-06,-1.93316991499159E-05,6.15234375,0,0
-4.75763295426646E-09,-2.10705766221508E-05,6.15234375,0,0
-1.37192557758681E-06,-2.19824414671166E-05,6.15234375,0,0
-2.29910369853314E-06,-2.1578398445854E-05,6.15234375,0,0
-2.09665267902892E-06,-2.02078354050172E-05,6.15234375,0,0
-1.69971798413826E-07,-2.02720184461214E-05,6.15234375,0,0
2.04868592845742E-06,-2.03225044970168E-05,6.15234375,0,0
2.16308717426728E-06,-2.0207708075759E-05,6.15234375,0,0
1.05485992207832E-06,-1.78360187419457E-05,6.15234375,0,0
-4.72338996360122E-07,-1.83693664439488E-05,6.15234375,0,0
-9.45837768995261E-07,-1.91816106962506E-05,6.15234375,0,0
-4.31429924674376E-07,-2.01478815142764E-05,6.15234375,0,0
-1.05715557197072E-07,-1.85223216249142E-05,6.15234375,0,0
-2.95203790301457E-07,-1.77664405782707E-05,6.15234375,0,0
4.99954978749884E-07,-1.78038771991851E-05,6.15234375,0,0
1.86757029041473E-06,-1.83775337063707E-05,6.15234375,0,0
2.66161055151315E-06,-1.79263097379589E-05,6.15234375,0,0
3.8748721635784E-06,-1.82380626938539E-05,6.15234375,0,0
5.81076119487989E-06,-1.92863044503611E-05,6.15234375,0,0
7.41819303584634E-06,-2.13787061511539E-05,6.15234375,0,0
6.51627760817064E-06,-1.78175996552454E-05,6.15234375,0,0
9.70231667452026E-06,-2.40529607253848E-05,6.15234375,0,0
8.39247059047921E-06,-1.67627567861928E-05,6.15234375,0,0
1.08972208181513E-05,-2.27175041800365E-05,6.15234375,0,0
8.86223187990254E-06,-1.95405773411039E-05,6.15234375,0,0
8.79115486895898E-06,-2.13251205423148E-05,6.15234375,0,0
7.55294786358718E-06,-1.82791645784164E-05,6.15234375,0,0
6.02253567194566E-06,-1.78591271833284E-05,6.15234375,0,0
2.28477119890158E-06,-1.56335772771854E-05,6.15234375,0,0
-6.41129361156345E-07,-1.45230533235008E-05,6.15234375,0,0
-1.51991366692528E-06,-1.49536917888327E-05,6.15234375,0,0
-1.63665333730023E-06,-1.49108473124215E-05,6.15234375,0,0
-1.11660335733177E-06,-1.63467611855594E-05,6.15234375,0,0
-1.26871350403235E-06,-1.69413306139177E-05,6.15234375,0,0
-9.04249134237034E-07,-2.03456693270709E-05,6.15234375,0,0
-6.09666585660307E-07,-2.11661408684449E-05,6.15234375,0,0
2.03542526833189E-06,-2.22187718463829E-05,6.15234375,0,0
3.99571354137152E-06,-1.98030757019296E-05,6.15234375,0,0
4.07119978262926E-06,-1.93801388377324E-05,6.15234375,0,0
1.91086610357161E-06,-1.85275839612586E-05,6.15234375,0,0
-8.93050895456327E-08,-1.91375747817801E-05,6.15234375,0,0
-2.7188850708626E-06,-1.94575513887685E-05,6.15234375,0,0
-5.12947462993907E-06,-2.13272123801289E-05,6.15234375,0,0
-5.77727769268677E-06,-2.07944267458515E-05,6.15234375,0,0
-3.61762567990809E-06,-1.95504271687241E-05,6.15234375,0,0
-2.45231285589398E-06,-1.99294699996244E-05,6.15234375,0,0
-1.8409854192214E-06,-2.25024759856751E-05,6.15234375,0,0
-1.48083188378223E-06,-1.87888708751416E-05,6.15234375,0,0
-2.80198310065316E-06,-2.5653211196186E-05,6.15234375,0,0
-1.17010404210305E-06,-1.73072621691972E-05,6.15234375,0,0
2.32994875659642E-06,-2.02946248464286E-05,6.15234375,0,0
