biceps_emg, triceps_emg, subject_position, position_estimate, brace_position
-2.11876031244174E-05,9.10927792574512E-06,0,0,0
-2.21842255996307E-05,-6.76160368584533E-07,0,0,0
-2.31939848163165E-05,-1.33302328322316E-05,0,0,0
-2.14138344745152E-05,-1.9108167180093E-05,0,0,0
-1.99354235519422E-05,-1.07931646198267E-05,0,0,0
-2.01818147615995E-05,4.55552117273328E-06,0,0,0
-2.21519803744741E-05,1.55671259562951E-05,0,0,0
-1.83979791472666E-05,1.41077671287348E-05,0,0,0
-2.45277351496043E-05,1.82056428457145E-05,0,0,0
-1.59944629558595E-05,1.21704515549936E-05,0,0,0
-2.07583925657673E-05,1.77337751665618E-05,0,0,0
-1.88287522178143E-05,1.57245412992779E-05,0,0,0
-2.27931195695419E-05,1.883556615212E-05,0,0,0
-2.09542631637305E-05,1.80721999640809E-05,0,0,0
-2.2368300051312E-05,1.90529663086636E-05,0,0,0
-2.22379694605479E-05,1.74034994415706E-05,0,0,0
-2.21377868001582E-05,1.6336811313522E-05,0,0,0
-2.22136077354662E-05,1.66239333339036E-05,0,0,0
-2.21241079998435E-05,1.73581411218038E-05,0,0,0
-2.38995580730261E-05,1.81800842256052E-05,0,0,0
-2.42134719883325E-05,1.54127828864148E-05,0,0,0
-2.70359414571431E-05,1.37575625558384E-05,0,0,0
-2.75506390607916E-05,1.25882443171577E-05,0,0,0
-2.88723022094928E-05,1.38004097607336E-05,0,0,0
-2.73330333584454E-05,1.13385021904833E-05,0,0,0
-2.7327600037097E-05,9.26026768865995E-06,0,0,0
-2.55467384704389E-05,8.25905499368673E-06,0,0,0
-2.56286730291322E-05,1.12361758510815E-05,0,0,0
-2.49372042162577E-05,1.26598260976607E-05,0,0,0
-2.53334364970215E-05,1.56753831106471E-05,0,0,0
-2.47848620347213E-05,1.82795265573077E-05,0,0,0
-2.40103090618504E-05,1.83091233338928E-05,0,0,0
-2.20397632801905E-05,1.54988156282343E-05,0,0,0
-1.9968165361206E-05,1.26860441014287E-05,0,0,0
-1.54042572830804E-05,9.67710730037652E-06,0,0,0
-2.18476980080595E-05,1.30702974274755E-05,0,0,0
-1.71914562088205E-05,9.15026430448052E-06,0,0,0
-2.26959655265091E-05,1.17065665108385E-05,0,0,0
-2.12940249184612E-05,1.00833904070896E-05,0,0,0
-2.42122787312837E-05,1.07169753391645E-05,0,0,0
-2.29176421271404E-05,7.10323865860119E-06,0,0,0
-2.35359875659924E-05,6.8619119701907E-06,0,0,0
-2.09955614991486E-05,8.25951519800583E-06,0,0,0
-1.87409132195171E-05,9.22464460018091E-06,0,0,0
-1.94344102055766E-05,8.47473802423337E-06,0,0,0
-2.13048970181262E-05,6.20251876171096E-06,0,0,0
-2.31526864808984E-05,4.44352053818875E-06,0,0,0
-2.22500329982722E-05,1.69922316217708E-06,0,0,0
-2.24520117626525E-05,1.2018293773508E-06,0,0,0
-2.20646252273582E-05,1.91322669707006E-06,0,0,0
-2.45679893851047E-05,2.70213263320329E-06,0,0,0
-2.48288124566898E-05,-6.91816751441365E-07,0,0,0
-2.55433878919575E-05,-1.16766022983938E-06,0,0,0
-2.52494719461538E-05,4.03228705181391E-06,0,0,0
-2.6226625777781E-05,1.2169995898148E-05,0,0,0
-2.55168524745386E-05,1.39259354909882E-05,0,0,0
-2.59524003922706E-05,1.09456577774836E-05,0,0,0
-2.55342911259504E-05,8.3982649812242E-06,0,0,0
-2.50691155088134E-05,8.7605385488132E-06,0,0,0
-2.43298927671276E-05,1.08665763036697E-05,0,0,0
-2.37149815802695E-05,1.30135895233252E-05,0,0,0
-1.86521519935923E-05,6.38800156593788E-06,0,0,0
-2.61170534940902E-05,3.45490934705595E-06,0,0,0
-1.90007358469302E-05,-2.30460796046827E-06,0,0,0
-2.27863929467276E-05,4.94810547024827E-06,0,0,0
-1.73115895449882E-05,1.00643064797623E-05,0,0,0
-2.00624763238011E-05,1.60782692546491E-05,0,0,0
-2.01962575374637E-05,1.44008999996004E-05,0,0,0
-2.32406327995704E-05,1.26619806906092E-05,0,0,0
-2.31285030167783E-05,1.15717575681629E-05,0,0,0
-2.1580783140962E-05,1.13638971015462E-05,0,0,0
-2.04110983759165E-05,1.10068313006195E-05,0,0,0
-1.96256405615713E-05,1.03081156339613E-05,0,0,0
-2.1709955035476E-05,1.03262373158941E-05,0,0,0
-2.28896205953788E-05,9.13301209948258E-06,0,0,0
-2.45589289988857E-05,9.55927680479363E-06,0,0,0
-2.27694108616561E-05,1.04619584817556E-05,0,0,0
-2.33858299907297E-05,1.3444572687149E-05,0,0,0
-2.41507223108783E-05,1.55491943587549E-05,0,0,0
-2.81085358437849E-05,1.82305611815536E-05,0,0,0
-2.95385943900328E-05,1.97404078789987E-05,0,0,0
-3.01417767332168E-05,1.97914287127787E-05,0,0,0
-2.9156006348785E-05,1.75451114046155E-05,0,0,0
-3.07784357573837E-05,1.70527509908425E-05,0,0,0
-3.20765175274573E-05,1.52647280629026E-05,0,0,0
-3.12461961584631E-05,1.24137923194212E-05,0,0,0
-2.85364494629903E-05,1.13003306978499E-05,0,0,0
-2.74434332823148E-05,1.25216338346945E-05,0,0,0
-2.24743289436447E-05,1.15730890684063E-05,0,0,0
-3.29717659042217E-05,1.61841726367129E-05,0,0,0
-2.66321512754075E-05,8.99363658390939E-06,0,0,0
-3.30972652591299E-05,7.30676583771128E-06,0,0,0
-2.86440863419557E-05,4.08097366744187E-06,0,0,0
-3.04214609059272E-05,8.35316222946858E-06,0,0,0
-2.68131261691451E-05,1.03987777038128E-05,0,0,0
-2.74362300842768E-05,1.36853113872348E-05,0,0,0
-2.59979206020944E-05,1.58998009283096E-05,0,0,0
-2.57569663517643E-05,1.75933510035975E-05,0,0,0
-2.61315999523504E-05,1.74983997567324E-05,0,0,0
-2.51824130828027E-05,1.52335924212821E-05,0,0,0
-2.60108663496794E-05,1.3308923371369E-05,0,0,0
-2.56733746937243E-05,1.10841592686484E-05,0,0,0
-2.82680794043699E-05,1.23648887893069E-05,0,0,0
-2.85573205474066E-05,1.36019007186405E-05,0,0,0
-3.02662174362922E-05,1.38983541546622E-05,0,0,0
-2.80605654552346E-05,1.04451582956244E-05,0,0,0
-2.78046882158378E-05,8.05313175078481E-06,0,0,0
-2.65811377175851E-05,6.03119178776979E-06,0,0,0
-2.72554061666597E-05,5.66318749406491E-06,0,0,0
-2.58440013567451E-05,5.32323019797332E-06,0,0,0
-2.48316955548944E-05,6.66498590362608E-06,0,0,0
-2.25504209083738E-05,7.43287500881706E-06,0,0,0
-2.2722360881744E-05,6.27927192908828E-06,0,0,0
-2.41196321439929E-05,5.66988819628023E-06,0,0,0
-2.32778529607458E-05,9.28121608012589E-06,0,0,0
-1.59471637743991E-05,1.21272405522177E-05,0,0,0
-2.17049564525951E-05,1.78672871697927E-05,0,0,0
-1.73257703863783E-05,1.20714694276103E-05,0,0,0
-2.34654580708593E-05,1.3081597899145E-05,0,0,0
-1.99319838429801E-05,1.10163446152001E-05,0,0,0
-2.13348139368463E-05,1.2750912901538E-05,0,0,0
-1.82700732693775E-05,1.08265930975904E-05,0,0,0
-1.88061712833587E-05,9.52553637034725E-06,0,0,0
-1.8145501599065E-05,7.89268233347684E-06,0,0,0
-1.79701510205632E-05,5.35805520485155E-06,0,0,0
-1.89282109204214E-05,3.22688174492214E-06,0,0,0
-2.06697859539418E-05,3.23771837429376E-06,0,0,0
-2.26417796511669E-05,5.29191947862273E-06,0,0,0
-2.0859837604803E-05,6.17228852206608E-06,0,0,0
-2.01118928089272E-05,8.66700247570407E-06,0,0,0
-1.85171720659127E-05,1.21448765639798E-05,0,0,0
-2.05155974981608E-05,1.72630443557864E-05,0,0,0
-2.16322514461353E-05,1.69028407981386E-05,0,0,0
-2.37886961258482E-05,1.24154194054427E-05,0,0,0
-2.29940578719834E-05,6.65220977680292E-06,0,0,0
-2.23108436330222E-05,4.12850840803003E-06,0,0,0
-2.0114668586757E-05,2.48063884100702E-06,0,0,0
-2.02604878722923E-05,1.87423120223684E-06,0,0,0
-2.09090030693915E-05,1.28720921566128E-06,0,0,0
-2.20351103052963E-05,2.12709596780769E-06,0,0,0
-2.10799244086957E-05,3.19571176987665E-06,0,0,0
-1.90775335795479E-05,3.46280626217776E-06,0,0,0
-1.48537974382634E-05,2.87793523057189E-06,0,0,0
-2.20006058953004E-05,4.83495932712685E-06,0,0,0
-1.83104093594011E-05,6.7900650719821E-06,0,0,0
-2.20037945837248E-05,1.16694609459955E-05,0,0,0
-1.84504624485271E-05,1.41280788739095E-05,0,0,0
-2.06563690881012E-05,1.58409657160519E-05,0,0,0
-2.00790436792886E-05,1.58727925736457E-05,0,0,0
-2.18717450479744E-05,1.54702993313549E-05,0,0,0
-2.03437557502184E-05,1.4768932487641E-05,0,0,0
-1.95139127754373E-05,1.38597542900243E-05,0,0,0
-2.07386456168024E-05,1.15275706775719E-05,0,0,0
-2.18452732951846E-05,8.42516783450264E-06,0,0,0
-2.33636201301124E-05,7.03971545590321E-06,0,0,0
-2.25936346396338E-05,8.15381372376578E-06,0,0,0
-2.39361506828573E-05,1.10305536509259E-05,0,0,0
-2.40771296375897E-05,1.26243085105671E-05,0,0,0
-2.52428399107885E-05,1.35437667267979E-05,0,0,0
-2.45217652263818E-05,1.3841569852957E-05,0,0,0
-2.53310699918075E-05,1.39183957799105E-05,0,0,0
-2.44872098846827E-05,1.39195508381817E-05,0,0,0
-2.39691562455846E-05,1.54689751070691E-05,0,0,0
-2.21421742025996E-05,1.70620223798323E-05,0,0,0
-2.18110380956205E-05,1.67967427842086E-05,0,0,0
-2.07863486139104E-05,1.58561779244337E-05,0,0,0
-1.93247251445428E-05,1.65500550792785E-05,0,0,0
-1.90167484106496E-05,1.85036242328351E-05,0,0,0
-2.12768645724282E-05,2.03647305170307E-05,0,0,0
-1.86473080248106E-05,1.5074857401487E-05,0,0,0
-2.59902899415465E-05,1.83623633347452E-05,0,0,0
-2.0197363483021E-05,8.71531301527284E-06,0,0,0
-2.71450408035889E-05,1.01059349617572E-05,0,0,0
-2.49704626185121E-05,4.30758109359886E-06,0,0,0
-2.88282353722025E-05,7.25012978364248E-06,0,0,0
-2.70043219643412E-05,7.80479967943393E-06,0,0,0
-2.66822462435812E-05,9.84912730928045E-06,0,0,0
-2.44892980845179E-05,7.60839566282812E-06,0,0,0
-2.43178783421172E-05,3.4169640912296E-06,0,0,0
-2.41974030359415E-05,2.18856939682155E-06,0,0,0
-2.29859797400422E-05,5.35098661202937E-06,0,0,0
-2.29799716180423E-05,1.08193862615735E-05,0,0,0
-2.19843732338632E-05,1.16787878141622E-05,0,0,0
-2.45323717535939E-05,1.15766133603756E-05,0,0,0
-2.53795424214331E-05,8.78118498803815E-06,0,0,0
-2.78454790532123E-05,7.1747845140635E-06,0,0,0
-2.74196136160754E-05,3.56439545612375E-06,0,0,0
-2.78123243333539E-05,3.22568348565255E-06,0,0,0
-2.56266903306823E-05,4.189665105514E-06,0,0,0
-2.44554576056544E-05,7.73283318267204E-06,0,0,0
-2.12775976251578E-05,1.08205795186223E-05,0,0,0
-2.01347302208887E-05,1.44402411024203E-05,0,0,0
-2.04128209588816E-05,1.60844647325575E-05,0,0,0
-2.19223511521704E-05,1.81052182597341E-05,0,0,0
-2.16662047023419E-05,2.02099818125134E-05,0,0,0
-2.01121456484543E-05,2.06595814233879E-05,0,0,0
-1.62220312631689E-05,1.62016967806267E-05,0,0,0
-2.35329443967203E-05,2.36867526837159E-05,0,0,0
-1.85894296009792E-05,1.9262959540356E-05,0,0,0
-2.18294953810982E-05,2.19073353946442E-05,0,0,0
-1.62729247676907E-05,1.01435061878874E-05,0,0,0
-1.7757864043233E-05,-2.84950533568917E-06,0,0,0
-1.83659412869019E-05,-1.61555835802574E-05,0,0,0
-2.17626620724332E-05,-1.33331232063938E-05,0,0,0
-2.20735273614991E-05,-3.29997646986158E-06,0,0,0
-2.14277406485053E-05,5.45721832168056E-06,0,0,0
-2.15910276892828E-05,8.68931783770677E-06,0,0,0
-2.21207083086483E-05,8.68805909703951E-06,0,0,0
-2.27494147111429E-05,1.04218133856193E-05,0,0,0
-1.97566369024571E-05,1.18170473797363E-05,0,0,0
-1.79417656909209E-05,1.38839995997841E-05,0,0,0
-1.68115529959323E-05,1.18676907732151E-05,0,0,0
-2.01336988538969E-05,1.07535806819214E-05,0,0,0
-2.19134635699447E-05,9.44635121413739E-06,0,0,0
-2.33386181207607E-05,1.14447520900285E-05,0,0,0
-2.25824114750139E-05,1.27168359540519E-05,0,0,0
-2.33730934269261E-05,1.56006190081825E-05,0,0,0
-2.24196901399409E-05,1.72842737811152E-05,0,0,0
-2.11162496270845E-05,1.9317451005918E-05,0,0,0
-2.03487870749086E-05,1.86093020602129E-05,0,0,0
-2.25437906919979E-05,1.62065880431328E-05,0,0,0
-2.45114879362518E-05,1.45746007547132E-05,0,0,0
-2.49163203989156E-05,1.53330474859104E-05,0,0,0
-1.94718104467029E-05,1.32262921397341E-05,0,0,0
-2.83286572084762E-05,1.76972807821585E-05,0,0,0
-2.29315282922471E-05,1.17897725431249E-05,0,0,0
-2.9051057936158E-05,1.49557326949434E-05,0,0,0
-2.51788642344764E-05,1.38265104396851E-05,0,0,0
-2.77947074209806E-05,1.66080008057179E-05,0,0,0
-2.6716137654148E-05,1.34525298562949E-05,0,0,0
-2.89492454612628E-05,1.3278551705298E-05,0,0,0
-2.84489688056055E-05,1.30593516587396E-05,0,0,0
-2.69861775450408E-05,1.30018743220717E-05,0,0,0
-2.57617957686307E-05,1.37947863549925E-05,0,0,0
-2.54110054811463E-05,1.54864355863538E-05,0,0,0
-2.67914565483807E-05,1.76344165083719E-05,0,0,0
-2.59314019785961E-05,1.48552944665425E-05,0,0,0
-2.73635287157958E-05,1.08979429569445E-05,0,0,0
-2.65798062173417E-05,6.88644104229752E-06,0,0,0
-2.6783614885062E-05,7.65845743444515E-06,0,0,0
-2.46573363256175E-05,7.59303702579928E-06,0,0,0
-2.49088789132657E-05,7.36578886062489E-06,0,0,0
-2.4242372091976E-05,5.85389261686942E-06,0,0,0
-2.59085118159419E-05,7.6440155680757E-06,0,0,0
-2.62142530118581E-05,1.10422306534019E-05,0,0,0
-2.71478802460479E-05,1.58490474859718E-05,0,0,0
-2.69440406555077E-05,1.77438960236032E-05,0,0,0
-2.709050932026E-05,1.88574704225175E-05,0,0,0
-2.72531160590006E-05,1.97307199414354E-05,0,0,0
-2.65129310719203E-05,1.99854457605397E-05,0,0,0
-2.07000139198499E-05,1.34600104502169E-05,0,0,0
-2.83555818896275E-05,1.10224873424158E-05,0,0,0
-1.9759985661949E-05,-2.69027896138141E-06,0,0,0
-2.50006105488865E-05,-5.92910183172535E-08,0,0,0
-2.08031633519568E-05,-3.17801391247485E-06,0,0,0
-2.38135562540265E-05,1.46227094433016E-07,0,0,0
-2.16798634937732E-05,1.33475577968056E-06,0,0,0
-2.32201291510137E-05,7.32897433408652E-06,0,0,0
-2.37790063692955E-05,1.04282453321503E-05,0,0,0
-2.4790062525426E-05,1.18423895401065E-05,0,0,0
-2.59092794294702E-05,1.14049098556279E-05,0,0,0
-2.64900263573509E-05,9.83325844572391E-06,0,0,0
-2.94627352559473E-05,9.914254405885E-06,0,0,0
-2.95555291813798E-05,7.92135688243434E-06,0,0,0
-3.03255801554769E-05,6.34628986517782E-06,0,0,0
-2.85017995338421E-05,2.96498114948918E-06,0,0,0
-2.97742972179549E-05,4.75195793114835E-06,0,0,0
-2.89972795144422E-05,7.58771875553066E-06,0,0,0
-2.93523589789402E-05,1.06598226921051E-05,0,0,0
-2.79081214102916E-05,9.0007715698448E-06,0,0,0
-2.84450670733349E-05,8.69263749336824E-06,0,0,0
-2.86071135633392E-05,8.80643437994877E-06,0,0,0
-3.15847682941239E-05,1.05000917756115E-05,0,0,0
-3.31643386743963E-05,1.12956022348953E-05,0,0,0
-3.26184126606677E-05,1.33117682707962E-05,0,0,0
-3.10797368001658E-05,1.52178199641639E-05,0,0,0
-2.97936003335053E-05,1.48415556395776E-05,0,0,0
-2.24620598601177E-05,1.13301975943614E-05,0,0,0
-2.9828834158252E-05,1.65574601851404E-05,0,0,0
-2.05192009161692E-05,1.35411746668979E-05,0,0,0
-2.62801513599698E-05,1.7534021026222E-05,0,0,0
-2.15429736272199E-05,1.65084638865665E-05,0,0,0
-2.56284038187005E-05,1.80589922820218E-05,0,0,0
-2.29472516366513E-05,1.64082030096324E-05,0,0,0
-2.34729377552867E-05,1.64189004863147E-05,0,0,0
-2.22240632865578E-05,1.60400741151534E-05,0,0,0
-2.37604654103052E-05,1.62673441082006E-05,0,0,0
-2.58401742030401E-05,1.57101785589475E-05,0,0,0
-2.58464770013234E-05,1.42257122206502E-05,0,0,0
-2.60460801655427E-05,1.32793511511409E-05,0,0,0
-2.34838062169729E-05,1.00695760920644E-05,0,0,0
-2.4074710381683E-05,7.64857577451039E-06,0,0,0
-2.30545883823652E-05,6.08035634286352E-06,0,0,0
-2.49785716732731E-05,8.44161968416302E-06,0,0,0
-2.39434957620688E-05,1.09895781861269E-05,0,0,0
-2.46116851485567E-05,1.49331917782547E-05,0,0,0
-2.2689979232382E-05,1.66684858413646E-05,0,0,0
-2.3521841285401E-05,1.55385096149985E-05,0,0,0
-2.30126097449102E-05,1.09953070932534E-05,0,0,0
-2.24428877118044E-05,7.31979798729299E-06,0,0,0
-2.07179909921251E-05,3.90869581678999E-06,0,0,0
-2.07455868803663E-05,2.5723263661348E-06,0,0,0
-2.10864982364001E-05,3.15496549774252E-06,0,0,0
-2.14449282793794E-05,3.78988920601842E-06,0,0,0
-1.61021289386554E-05,3.70057637155696E-06,0,0,0
-2.26677202590508E-05,6.9107741182961E-06,0,0,0
-1.69934719451703E-05,8.25746610644273E-06,0,0,0
-1.97680838027736E-05,9.15962209546706E-06,0,0,0
-1.39339554152684E-05,5.83003384235781E-06,0,0,0
-1.43085790114128E-05,4.27204167863238E-06,0,0,0
-1.21628982014954E-05,4.65358334622579E-06,0,0,0
-1.34147421704256E-05,5.92804644838907E-06,0,0,0
-1.31686119857477E-05,5.24785491506918E-06,0,0,0
-1.33568919409299E-05,4.05630862587714E-06,0,0,0
-1.47756109072361E-05,4.20670448875171E-06,0,0,0
-1.6211497495533E-05,4.85105147163267E-06,0,0,0
-1.84666841960279E-05,6.70022745907772E-06,0,0,0
-1.8630582417245E-05,9.21241280593676E-06,0,0,0
-2.04638017748948E-05,1.22157352961949E-05,0,0,0
-2.11627229873557E-05,1.42806293297326E-05,0,0,0
-2.39992168644676E-05,1.54546305566328E-05,0,0,0
-2.38685606746003E-05,1.39489284265437E-05,0,0,0
-2.43107315327507E-05,1.10609516923432E-05,0,0,0
-2.36607065744465E-05,7.77304558141623E-06,0,0,0
-2.45422652369598E-05,5.68989162275102E-06,0,0,0
-2.40537665376905E-05,5.85112320550252E-06,0,0,0
-2.39632990997052E-05,8.85117242432898E-06,0,0,0
-2.4278297132696E-05,1.11388972072746E-05,0,0,0
-2.56958173849853E-05,9.97536608338123E-06,0,0,0
-2.62075755017577E-05,7.78101275500376E-06,0,0,0
-2.67261093540583E-05,6.77269417792559E-06,0,0,0
-2.15020081668627E-05,5.83981045565452E-06,0,0,0
-3.00593565043528E-05,8.86206453287741E-06,0,0,0
-2.34152994380565E-05,7.09062260284554E-06,0,0,0
-3.02232820104109E-05,8.26487030280987E-06,0,0,0
-2.48063097387785E-05,6.81933806845336E-06,0,0,0
-2.76105674856808E-05,8.65766287461156E-06,0,0,0
-2.64991449512308E-05,9.88981537375366E-06,0,0,0
-2.78054212685674E-05,1.09102811620687E-05,0,0,0
-2.56106923188781E-05,1.06817942651105E-05,0,0,0
-2.44627644860884E-05,9.80856566457078E-06,0,0,0
-2.38019802054623E-05,8.4842395153828E-06,0,0,0
-2.29994893743424E-05,8.1824482549564E-06,0,0,0
-2.49430504482007E-05,8.65617948875297E-06,0,0,0
-2.57572773989523E-05,7.48515049053822E-06,0,0,0
-2.8146561817266E-05,7.0104715632624E-06,0,0,0
-2.5988470952143E-05,6.8930207817175E-06,0,0,0
-2.56577932304936E-05,8.5260999185266E-06,0,0,0
-2.42503556364682E-05,9.20452475838829E-06,0,0,0
-2.50739703915315E-05,8.80355037224945E-06,0,0,0
-2.19987250602571E-05,7.97435495769605E-06,0,0,0
-2.06818094738992E-05,8.77680395205971E-06,0,0,0
-2.10855396289844E-05,9.19383819564246E-06,0,0,0
-2.46610725298524E-05,8.02306021796539E-06,0,0,0
-2.58706277236342E-05,6.12819076195592E-06,0,0,0
-2.46494964812882E-05,5.3426902013598E-06,0,0,0
-2.29206179938046E-05,5.64006404601969E-06,0,0,0
-2.34487961279228E-05,6.78839478496229E-06,0,0,0
-1.97679146367591E-05,7.22461663826834E-06,0,0,0
-2.81637421721825E-05,1.12983161670854E-05,0,0,0
-2.08451274374966E-05,9.86087161436444E-06,0,0,0
-2.42742844420718E-05,1.337236881227E-05,0,0,0
-1.98819197976263E-05,1.36543776534381E-05,0,0,0
-2.39132859860547E-05,1.36716771521606E-05,0,0,0
-2.29990873776842E-05,1.19875603559194E-05,0,0,0
-2.38233660638798E-05,1.22249430205557E-05,0,0,0
-2.288272480655E-05,1.32107988974894E-05,0,0,0
-2.3415017494699E-05,1.48707904372714E-05,0,0,0
-2.39799646806205E-05,1.56221030920278E-05,0,0,0
-2.41248581005493E-05,1.49018278534641E-05,0,0,0
-2.58739291894017E-05,1.3381807548285E-05,0,0,0
-2.52295158134075E-05,6.81557412463007E-06,0,0,0
-2.7117685021949E-05,-4.6245568228187E-06,0,0,0
-2.79540890915086E-05,-1.46760312418337E-05,0,0,0
-3.06339461531024E-05,-1.2978714039491E-05,0,0,0
-2.96602247544797E-05,-2.32835282076849E-06,0,0,0
-2.96993366646348E-05,8.23683149064891E-06,0,0,0
-2.79169144050684E-05,1.16105020424584E-05,0,0,0
-2.81852644548053E-05,1.14608646981651E-05,0,0,0
-2.77544277196284E-05,1.13738824438769E-05,0,0,0
-2.89331201202003E-05,1.23126028483966E-05,0,0,0
-2.93353859888157E-05,1.31843253257102E-05,0,0,0
-2.92939439532347E-05,1.39486519401544E-05,0,0,0
-2.85823189187795E-05,1.23271011034376E-05,0,0,0
-2.88992996502202E-05,9.19841295399237E-06,0,0,0
-2.38248267123709E-05,6.95284597895807E-06,0,0,0
-3.46557535522152E-05,1.15695620479528E-05,0,0,0
-2.65740673057735E-05,1.14041886263294E-05,0,0,0
-3.18551683449186E-05,1.28905030578608E-05,0,0,0
-2.63199726759922E-05,1.09034144770703E-05,0,0,0
-2.90323096123757E-05,1.15085267680115E-05,0,0,0
-2.66189745161682E-05,1.09028951555956E-05,0,0,0
-2.82373093796195E-05,1.18481493700529E-05,0,0,0
-2.69335687335115E-05,1.28089550344157E-05,0,0,0
-2.5994042516686E-05,1.54173776536481E-05,0,0,0
-2.70267828454962E-05,1.68836795637617E-05,0,0,0
-2.71947883447865E-05,1.70631446962943E-05,0,0,0
-2.76077389571583E-05,1.74773649632698E-05,0,0,0
-2.52723002631683E-05,1.67159705597442E-05,0,0,0
-2.58044328802498E-05,1.59022420120891E-05,0,0,0
-2.46115032496164E-05,1.22373703561607E-05,0,0,0
-2.60540873568971E-05,7.6787464422523E-06,0,0,0
-2.50050743488828E-05,4.92988147016149E-06,0,0,0
-2.58847103395965E-05,9.65230810834328E-06,0,0,0
-2.53202324529411E-05,1.62674277817132E-05,0,0,0
-2.74274934781715E-05,1.94507629203144E-05,0,0,0
-2.64852988038911E-05,1.89079619303811E-05,0,0,0
-2.41895195358666E-05,1.68086135090562E-05,0,0,0
-2.01791190193035E-05,1.36888202177943E-05,0,0,0
-1.82127005246002E-05,1.33346293296199E-05,0,0,0
-1.8838356481865E-05,1.47061109601054E-05,0,0,0
-2.0661795133492E-05,1.42150356623461E-05,0,0,0
-1.74508677446283E-05,7.47973899706267E-06,0,0,0
-2.34295439440757E-05,1.26309832921834E-05,0,0,0
-1.56039131979924E-05,1.60161307576345E-05,0,0,0
-1.84420478035463E-05,2.18569184653461E-05,0,0,0
-1.38194454848417E-05,1.90540231415071E-05,0,0,0
-1.75024597410811E-05,1.82634776138002E-05,0,0,0
-1.73298976733349E-05,1.5821236956981E-05,0,0,0
-1.9370689187781E-05,1.65687833941774E-05,0,0,0
-1.97912213479867E-05,1.7739410395734E-05,0,0,0
-2.09817280847346E-05,1.63813783728983E-05,0,0,0
-2.20924666791689E-05,8.67314975039335E-06,0,0,0
-2.14603114727652E-05,-5.9128598195457E-07,0,0,0
-2.15564996324247E-05,-2.07644552574493E-06,0,0,0
-2.01395541807869E-05,3.71794249076629E-06,0,0,0
-2.16345615626778E-05,1.23154459288344E-05,0,0,0
-2.09006320801564E-05,1.60464478540234E-05,0,0,0
-2.15464915527264E-05,1.59388837346341E-05,0,0,0
-2.08244546229253E-05,1.39707817652379E-05,0,0,0
-2.24098657781724E-05,1.48133831316954E-05,0,0,0
-2.27172167797107E-05,1.6332502127625E-05,0,0,0
-2.38313332374673E-05,1.7487300283392E-05,0,0,0
-2.26979645958636E-05,1.62026117322966E-05,0,0,0
-2.24741852434818E-05,1.50809928527451E-05,0,0,0
-2.17709184653359E-05,1.47093878695159E-05,0,0,0
-2.11481419682968E-05,1.41289137900458E-05,0,0,0
-2.07399807550246E-05,1.36630669658189E-05,0,0,0
-2.09772297239397E-05,1.42717572089168E-05,0,0,0
-1.6898939065868E-05,1.32113946165191E-05,0,0,0
-2.39797518588603E-05,1.99473070097156E-05,0,0,0
-1.79242870217422E-05,1.26162885862868E-05,0,0,0
-2.23057868424803E-05,6.76473655403242E-06,0,0,0
-2.02664432435995E-05,-2.80775748251472E-06,0,0,0
-2.31800622714218E-05,-6.05591196745081E-07,0,0,0
-2.00486974790692E-05,4.92123399453703E-06,0,0,0
-1.97471654246328E-05,1.2119786333642E-05,0,0,0
-1.89065431186464E-05,1.33393505166168E-05,0,0,0
-1.88273188541643E-05,1.24438874991029E-05,0,0,0
-1.82864569069352E-05,1.17100453280727E-05,0,0,0
-1.70643688761629E-05,1.14936938189203E-05,0,0,0
-1.78129448613618E-05,1.30895350594074E-05,0,0,0
-1.76366738742217E-05,1.33063449538895E-05,0,0,0
-1.86559882422443E-05,1.42727221827954E-05,0,0,0
-1.73486168932868E-05,1.32268460220075E-05,0,0,0
-1.83914780791383E-05,1.25094256873126E-05,0,0,0
-1.79140442924108E-05,1.0254283552058E-05,0,0,0
-1.90722985280445E-05,1.10561441033497E-05,0,0,0
-1.91482140508015E-05,1.22611609185697E-05,0,0,0
-2.03798208531225E-05,1.3312110240804E-05,0,0,0
-1.93233718164265E-05,1.19555825222051E-05,0,0,0
-1.94310960068833E-05,1.05264653029735E-05,0,0,0
-1.94447802641662E-05,9.21357514016563E-06,0,0,0
-2.00421036424814E-05,9.78381376626203E-06,0,0,0
-2.09908648685087E-05,1.04371983979945E-05,0,0,0
-2.25787498493446E-05,9.76254250417696E-06,0,0,0
-1.83749707503011E-05,5.60041507924325E-06,0,0,0
-2.56042931141565E-05,5.15479223395232E-06,0,0,0
-2.04067091544857E-05,1.04330888461845E-06,0,0,0
-2.78992392850341E-05,6.62230877424008E-06,0,0,0
-2.51231303991517E-05,1.18275356726372E-05,0,0,0
-2.69935353571782E-05,1.59236533363583E-05,0,0,0
-2.42592395807151E-05,1.48067238114891E-05,0,0,0
-2.48907654167851E-05,1.41631453516311E-05,0,0,0
-2.23943188757403E-05,1.45879657793557E-05,0,0,0
-2.0914423657814E-05,1.56824626174057E-05,0,0,0
-2.17313045141054E-05,1.58279563038377E-05,0,0,0
-2.2755721147405E-05,1.55787383846473E-05,0,0,0
-2.33301943808328E-05,1.60009585670196E-05,0,0,0
-2.08639230550034E-05,1.55657435243484E-05,0,0,0
-2.1014102458139E-05,1.4507273590425E-05,0,0,0
-1.98757243197178E-05,1.13814194264705E-05,0,0,0
-2.03959789359942E-05,9.68702352110995E-06,0,0,0
-1.82311923708767E-05,8.73443241289351E-06,0,0,0
-1.88310514204204E-05,7.82193910708884E-06,0,0,0
-1.91543931578053E-05,5.28216332895681E-06,0,0,0
-2.08863857551478E-05,3.61091383638268E-06,0,0,0
-2.09819518204313E-05,2.58410591413849E-06,0,0,0
-2.19738976738881E-05,1.5135635749175E-06,0,0,0
-2.20352048927452E-05,-2.74182161774661E-06,0,0,0
-2.42664809775306E-05,-7.51117295294534E-06,0,0,0
-2.53972320933826E-05,-7.88856323197251E-06,0,0,0
-2.570778815425E-05,-3.58655825039023E-06,0,0,0
-2.20629463001387E-05,1.25126166494738E-06,0,0,0
-3.22621453960892E-05,4.08181267630425E-06,0,0,0
-2.44783332163934E-05,6.81485425957362E-06,0,0,0
-2.98920185741736E-05,8.43325415189611E-06,0,0,0
-2.63815527432598E-05,9.85259703156771E-06,0,0,0
-2.91938358714106E-05,1.09910224637133E-05,0,0,0
-2.60872584476601E-05,1.14847662189277E-05,0,0,0
-2.58877153100912E-05,1.13781361505971E-05,0,0,0
-2.6004518076661E-05,1.07499372461461E-05,0,0,0
-2.85992009594338E-05,9.73432634054916E-06,0,0,0
-3.02451880997978E-05,9.04699663806241E-06,0,0,0
-2.85883397737052E-05,8.56927999848267E-06,0,0,0
-2.7263904485153E-05,8.4501289165928E-06,0,0,0
-2.47758398472797E-05,1.04971668406506E-05,0,0,0
-2.60932629316812E-05,1.41948539749137E-05,0,0,0
-2.61253444477916E-05,1.66007030202309E-05,0,0,0
-2.83342178590829E-05,1.72899999597576E-05,0,0,0
-2.87476213998161E-05,1.7337240933557E-05,0,0,0
-3.14141834678594E-05,1.71287374541862E-05,0,0,0
-3.16298173856921E-05,1.58090606419137E-05,0,0,0
-3.26845402014442E-05,1.40582496896968E-05,0,0,0
-3.14740645990241E-05,1.43752631629468E-05,0,0,0
-3.15690631396137E-05,1.67481230164412E-05,0,0,0
-3.22940431942698E-05,1.73335374711314E-05,0,0,0
-3.37666388077196E-05,1.63460936164483E-05,0,0,0
-3.40528895321768E-05,1.68066599144368E-05,0,0,0
-3.38982790708542E-05,1.64764660439687E-05,0,0,0
-2.66746919805883E-05,1.27711264212849E-05,0,0,0
-3.7413712561829E-05,1.78214886545902E-05,0,0,0
-2.82599612546619E-05,1.25081078294897E-05,0,0,0
-3.58254001184832E-05,1.43614388434798E-05,0,0,0
-3.03861925203819E-05,9.16891349334037E-06,0,0,0
-3.28351925418247E-05,9.31042814045213E-06,0,0,0
-2.72814977506641E-05,6.54379164188867E-06,0,0,0
-2.81848642771365E-05,5.31434034201084E-06,0,0,0
-2.86844315269263E-05,3.95144479625742E-06,0,0,0
-3.03108645312022E-05,4.90527736474178E-06,0,0,0
-3.1305036827689E-05,7.13925328454934E-06,0,0,0
-2.98943705274723E-05,7.96902622823836E-06,0,0,0
-2.95685840683291E-05,9.32091370486887E-06,0,0,0
-2.71169828920392E-05,1.00834695331287E-05,0,0,0
-2.84051420749165E-05,1.17724548545084E-05,0,0,0
-2.74080721283099E-05,1.0445223779243E-05,0,0,0
-2.94044275506167E-05,9.6452404250158E-06,0,0,0
-2.73332425422268E-05,6.96133929523057E-06,0,0,0
-2.64614336629165E-05,5.00479336551507E-06,0,0,0
-2.27998298214516E-05,2.7252997369942E-06,0,0,0
-2.08669625862967E-05,2.85089731733024E-06,0,0,0
-1.67811558640096E-05,2.78666811937001E-06,0,0,0
-1.577015791554E-05,2.36252662944025E-06,0,0,0
-1.5025394532131E-05,1.17984711778263E-06,0,0,0
-1.41924219860812E-05,-3.29333659010445E-07,0,0,0
-1.28441897686571E-05,-4.99065754411276E-06,0,0,0
-1.2925500413985E-05,-8.24165636004182E-06,0,0,0
-1.09535394585691E-05,-1.8366608856013E-06,0,0,0
-1.5813619029359E-05,3.92538868254633E-06,0,0,0
-1.31920123749296E-05,1.03995553217828E-05,0,0,0
-1.81527939275838E-05,6.65143716105376E-06,0,0,0
-1.82641433639219E-05,3.87390127798426E-06,0,0,0
-2.01902566914214E-05,-6.75178455367131E-07,0,0,0
-1.90518676390639E-05,-4.5418341869663E-06,0,0,0
-1.91696126421448E-05,-7.26893722458044E-06,0,0,0
-1.89281508937711E-05,-4.49341405328596E-06,0,0,0
-1.90076516446425E-05,4.58698323768658E-08,0,0,0
-1.89171641977737E-05,5.03017281516804E-06,0,0,0
-1.80264541995712E-05,8.77006368682487E-06,0,0,0
-1.76472331077093E-05,1.19704145618016E-05,0,0,0
-1.71128504007356E-05,1.42503240567748E-05,0,0,0
-1.88834146683803E-05,1.19511378215975E-05,0,0,0
-1.94516123883659E-05,8.03784041636391E-06,0,0,0
-1.99756814254215E-05,5.54985172129818E-06,0,0,0
-1.83103711606236E-05,7.7991408033995E-06,0,0,0
-1.72148993442534E-05,1.08212325358181E-05,0,0,0
-1.62314863700885E-05,1.26988070405787E-05,0,0,0
-1.7282438420807E-05,1.22772753456957E-05,0,0,0
-1.78904756467091E-05,1.15238290163688E-05,0,0,0
-1.88276626431616E-05,9.6806870715227E-06,0,0,0
-1.9426821381785E-05,6.57649979984853E-06,0,0,0
-2.02925257326569E-05,3.33819752995623E-06,0,0,0
-2.02663923118962E-05,5.0535932132334E-06,0,0,0
-1.91274339158554E-05,9.5061186584644E-06,0,0,0
-1.3746524018643E-05,8.94447384780506E-06,0,0,0
-1.90249866136583E-05,1.28142455650959E-05,0,0,0
-1.41256878123386E-05,9.69212396739749E-06,0,0,0
-1.86796751222573E-05,1.2036081898259E-05,0,0,0
-1.6617210349068E-05,9.61202204052825E-06,0,0,0
-1.92741554201348E-05,1.08840340544702E-05,0,0,0
-1.8967897631228E-05,1.00693268905161E-05,0,0,0
-2.05559463211102E-05,1.05954868558911E-05,0,0,0
-2.07415559998481E-05,1.04354667200823E-05,0,0,0
-2.16188673221041E-05,1.07352798295324E-05,0,0,0
-2.18655113712884E-05,1.14516187750269E-05,0,0,0
-2.15773179661483E-05,1.33861967697158E-05,0,0,0
-2.2452531993622E-05,1.71184019563952E-05,0,0,0
-2.267598756589E-05,1.86679444595939E-05,0,0,0
-2.55456488957861E-05,1.86268553079572E-05,0,0,0
-2.75550173682859E-05,1.65249330166262E-05,0,0,0
-3.0476108804578E-05,1.72692416526843E-05,0,0,0
-3.02724874927662E-05,1.86733759619528E-05,0,0,0
-2.97677052003564E-05,1.96881574083818E-05,0,0,0
-2.84240049950313E-05,1.85441967914812E-05,0,0,0
-3.01739000860834E-05,1.89901929843472E-05,0,0,0
-3.11917610815726E-05,1.99922687897924E-05,0,0,0
-3.19885584758595E-05,2.11961378226988E-05,0,0,0
-3.22548003168777E-05,2.11257211049087E-05,0,0,0
-3.29400645568967E-05,2.02899755095132E-05,0,0,0
-3.25719556713011E-05,2.11378137464635E-05,0,0,0
-3.23752647091169E-05,2.38241955230478E-05,0,0,0
-2.57081028394168E-05,1.82154108188115E-05,0,0,0
-3.59406076313462E-05,2.5041203116416E-05,0,0,0
-2.71509925369173E-05,2.01670882233884E-05,0,0,0
-3.4104406950064E-05,2.67100422206568E-05,0,0,0
-2.69938664132496E-05,1.99253208847949E-05,0,0,0
-2.89559193333844E-05,1.54826084326487E-05,0,0,0
-2.59582575381501E-05,2.46748868448776E-06,0,0,0
-2.83582157862838E-05,-2.49360391535447E-06,0,0,0
-2.76237187790684E-05,3.59462023880042E-06,0,0,0
-2.73170735454187E-05,1.73795615410199E-05,0,0,0
-2.78519892162876E-05,2.2289017579169E-05,0,0,0
-2.81176489806967E-05,1.23575709949364E-05,0,0,0
-2.95364534395048E-05,1.25920666960155E-06,0,0,0
-2.66835468210047E-05,-8.70935195962375E-07,0,0,0
-2.61110089923022E-05,8.8178367150249E-06,0,0,0
-2.29008874157444E-05,1.64128869073465E-05,0,0,0
-2.2194129996933E-05,1.97104272956494E-05,0,0,0
-1.87122477655066E-05,1.56747955770697E-05,0,0,0
-1.92432726180414E-05,1.34589354274794E-05,0,0,0
-1.90464852494188E-05,1.22413175631664E-05,0,0,0
-2.14940737350844E-05,1.46124930324731E-05,0,0,0
-2.09279696719022E-05,1.46630436574924E-05,0,0,0
-2.08209094125777E-05,1.25737306007068E-05,0,0,0
-1.98408215510426E-05,6.8992058004369E-06,0,0,0
-2.00335634872317E-05,3.0661024084111E-06,0,0,0
-2.13628700294066E-05,-6.64727281218802E-07,0,0,0
-2.36142077483237E-05,-4.89173726236913E-06,0,0,0
-2.15434756682953E-05,-3.05439721159928E-06,0,0,0
-3.17246776830871E-05,2.574775407993E-06,0,0,0
-2.50563498411793E-05,1.20489903565613E-05,0,0,0
-2.94687033601804E-05,1.13434798549861E-05,0,0,0
-2.39809378399514E-05,1.18791804197826E-05,0,0,0
-2.5820732844295E-05,1.31046972455806E-05,0,0,0
-2.33113969443366E-05,1.55653578985948E-05,0,0,0
-2.4123373805196E-05,1.29302643472329E-05,0,0,0
-2.30457080760971E-05,1.11300314529217E-05,0,0,0
-2.22591406782158E-05,1.20419945233152E-05,0,0,0
-2.16226198972436E-05,1.41501186590176E-05,0,0,0
-2.13158728001872E-05,1.38061222969554E-05,0,0,0
-2.40598710661288E-05,9.83528116194066E-06,0,0,0
-2.42155419982737E-05,5.59560430701822E-06,0,0,0
-2.40705739997793E-05,2.78021730082401E-06,0,0,0
-2.06623917620163E-05,3.36057564709336E-06,0,0,0
-2.10195648833178E-05,5.17695434609777E-06,0,0,0
-2.03332165256143E-05,8.12967846286483E-06,0,0,0
-2.09921236091759E-05,8.95859648153419E-06,0,0,0
-1.86970155482413E-05,8.84245764609659E-06,0,0,0
-1.85290173249086E-05,7.81170274422038E-06,0,0,0
-1.87011810339754E-05,8.35182527225697E-06,0,0,0
-1.99635924218455E-05,1.01252271633712E-05,0,0,0
-2.00314334506402E-05,1.22277260743431E-05,0,0,0
-2.01608454517554E-05,1.12881580207613E-05,0,0,0
-1.9803568648058E-05,9.40584413910983E-06,0,0,0
-2.10984217119403E-05,8.06208663561847E-06,0,0,0
-1.81290779437404E-05,5.69071062272997E-06,0,0,0
-2.51896162808407E-05,9.20860020414693E-06,0,0,0
-1.73557618836639E-05,1.00962997748866E-05,0,0,0
-2.05610958801117E-05,1.3129206308804E-05,0,0,0
-1.65111541718943E-05,1.22616320368252E-05,0,0,0
-1.99158585019177E-05,1.49495208461303E-05,0,0,0
-1.98976740648504E-05,1.54510053107515E-05,0,0,0
-2.13733073906042E-05,1.58976818056544E-05,0,0,0
-2.0339030015748E-05,1.4660434317193E-05,0,0,0
-2.06215008802246E-05,1.31194710775162E-05,0,0,0
-2.19066787394695E-05,1.22125993584632E-05,0,0,0
-2.25751609832514E-05,9.86465056485031E-06,0,0,0
-2.3990167392185E-05,3.72663362213643E-06,0,0,0
-2.32737838814501E-05,-2.98146096611163E-06,0,0,0
-2.47793377639027E-05,-1.6966882867564E-06,0,0,0
-2.47385560214752E-05,5.74951263843104E-06,0,0,0
-2.62040121015161E-05,1.38741288537858E-05,0,0,0
-2.52016252488829E-05,1.63466520461952E-05,0,0,0
-2.56204803008586E-05,1.51441436173627E-05,0,0,0
-2.52380523306783E-05,1.32236991703394E-05,0,0,0
-2.71862372756004E-05,1.49900461110519E-05,0,0,0
-2.67117793555371E-05,1.8030654246104E-05,0,0,0
-2.61468976532342E-05,1.8940438167192E-05,0,0,0
-2.55699196713977E-05,1.61358257173561E-05,0,0,0
-2.66453080257634E-05,1.40261417982401E-05,0,0,0
-2.74896010523662E-05,1.57381346070906E-05,0,0,0
-2.69272477453342E-05,1.84854670806089E-05,0,0,0
-2.01430193556007E-05,1.39968542498536E-05,0,0,0
-2.77277813438559E-05,1.68021961144404E-05,0,0,0
-1.9977162082796E-05,8.56032784213312E-06,0,0,0
-2.51336768997135E-05,1.04977580122068E-05,0,0,0
-2.13098937820178E-05,5.65964592169621E-06,0,0,0
-2.51341843977571E-05,9.01940165931592E-06,0,0,0
-2.34794024436269E-05,9.51804850046756E-06,0,0,0
-2.57258798228577E-05,1.11552644739277E-05,0,0,0
-2.57436586252879E-05,1.01629348137067E-05,0,0,0
-2.51128931267885E-05,1.06009629234904E-05,0,0,0
-2.39401888393331E-05,1.2126324691053E-05,0,0,0
-2.26020292757312E-05,1.4137183825369E-05,0,0,0
-2.37860840570647E-05,1.78376176336315E-05,0,0,0
-2.39724759012461E-05,1.88808899110882E-05,0,0,0
-2.70179061772069E-05,1.76474604813848E-05,0,0,0
-2.73365640168777E-05,1.19066680781543E-05,0,0,0
-2.88073824776802E-05,9.62843660090584E-06,0,0,0
-2.72783090622397E-05,9.70629025687231E-06,0,0,0
-2.77429335255874E-05,1.44744690260268E-05,0,0,0
-2.71485714620212E-05,1.70151906786487E-05,0,0,0
-2.82006494671805E-05,1.7045000276994E-05,0,0,0
-2.55250033660559E-05,1.44801497299341E-05,0,0,0
-2.28556255024159E-05,1.46681068144972E-05,0,0,0
-2.13038201763993E-05,1.42976759889279E-05,0,0,0
-2.24760515266098E-05,1.37472316055209E-05,0,0,0
-2.44115381065058E-05,1.38420891744317E-05,0,0,0
-2.48418964474695E-05,1.44172818181687E-05,0,0,0
-1.92133866221411E-05,1.07709074654849E-05,0,0,0
-2.64794671238633E-05,1.39576850415324E-05,0,0,0
-1.95414631889435E-05,7.98571363702649E-06,0,0,0
-2.58740692515858E-05,8.40715256344993E-06,0,0,0
-2.32808433793252E-05,3.44235218108224E-06,0,0,0
-2.67027808149578E-05,2.77061894848885E-06,0,0,0
-2.49476433964446E-05,6.81674862335058E-07,0,0,0
-2.61812037933851E-05,1.16726494070463E-06,0,0,0
-2.65014132310171E-05,1.21267191843799E-06,0,0,0
-2.82546243397519E-05,3.06073729916534E-06,0,0,0
-2.94903220492415E-05,6.10805363976397E-06,0,0,0
-2.75915681413608E-05,8.51734330353793E-06,0,0,0
-2.65263333858456E-05,9.86089071375318E-06,0,0,0
-2.52695554081583E-05,9.08042602532078E-06,0,0,0
-2.75228267128114E-05,1.11860008473741E-05,0,0,0
-2.75966158369556E-05,1.27810753838276E-05,0,0,0
-2.87744187517092E-05,1.2653219528147E-05,0,0,0
-2.70585405814927E-05,8.45132672111504E-06,0,0,0
-2.66500010184245E-05,6.645096163993E-06,0,0,0
-2.50006523856428E-05,8.50221113068983E-06,0,0,0
-2.52391564572463E-05,1.38074146889267E-05,0,0,0
-2.39853907260112E-05,1.3957518604002E-05,0,0,0
-2.41160505538573E-05,9.16352018975886E-06,0,0,0
-2.50534612860065E-05,5.02309694638825E-06,0,0,0
-2.81260781775927E-05,5.58067858946742E-06,0,0,0
-2.94591463898541E-05,7.69820871937554E-06,0,0,0
-2.83721965388395E-05,8.02016711531905E-06,0,0,0
-2.19259181903908E-05,6.96810366207501E-06,0,0,0
-3.12819211103488E-05,1.05008493846981E-05,0,0,0
-2.44476123043569E-05,1.04010305221891E-05,0,0,0
-3.13073360302951E-05,1.46150632645003E-05,0,0,0
-2.79301730188308E-05,1.40153206302784E-05,0,0,0
-3.05276189465076E-05,1.39626290547312E-05,0,0,0
-2.61956429312704E-05,1.13555561256362E-05,0,0,0
-2.61707336903783E-05,1.06561610664357E-05,0,0,0
-2.48712276516017E-05,1.06944198705605E-05,0,0,0
-2.48389078478795E-05,1.05023254945991E-05,0,0,0
-2.43536596826743E-05,9.97104325506371E-06,0,0,0
-2.16355310840299E-05,9.50723460846348E-06,0,0,0
-2.15116742765531E-05,1.07425621536095E-05,0,0,0
-2.09618956432678E-05,1.23852423712378E-05,0,0,0
-2.28514491027454E-05,1.4099514373811E-05,0,0,0
-2.11428705370054E-05,1.32751019918942E-05,0,0,0
-2.14240444620373E-05,1.25816295621917E-05,0,0,0
-1.98881280084606E-05,1.21588200272527E-05,0,0,0
-2.08054461836582E-05,1.40527254188783E-05,0,0,0
-1.98782945517451E-05,1.59696519403951E-05,0,0,0
-2.07426764973206E-05,1.71620522451121E-05,0,0,0
-2.01396014745114E-05,1.66993540915428E-05,0,0,0
-2.00722424779087E-05,1.65726196428295E-05,0,0,0
-2.01019538508262E-05,1.60129893629346E-05,0,0,0
-2.24083632929251E-05,1.6116402548505E-05,0,0,0
-2.26199754251866E-05,1.69000741152558E-05,0,0,0
-2.05555406864733E-05,1.6981124645099E-05,0,0,0
-1.59622322826181E-05,1.25092401503935E-05,0,0,0
-2.35291481658351E-05,1.49261486512842E-05,0,0,0
-1.93831674550893E-05,8.46909551910358E-06,0,0,0
-2.42369915213203E-05,1.26517425087513E-05,0,0,0
-2.14067677006824E-05,9.50400681176689E-06,0,0,0
-2.33156024478376E-05,1.09469674498541E-05,0,0,0
-2.14121519093169E-05,8.04173123469809E-06,0,0,0
-2.23111528612208E-05,8.37501920614159E-06,0,0,0
-2.26743613893632E-05,1.00491770353983E-05,0,0,0
-2.3384844098473E-05,1.12364941742271E-05,0,0,0
-2.43013491854072E-05,1.01811383501627E-05,0,0,0
-2.44712846324546E-05,8.11471363704186E-06,0,0,0
-2.45276478381129E-05,8.30063163448358E-06,0,0,0
-2.1635671146214E-05,8.1827038229676E-06,0,0,0
-1.99331352632726E-05,9.99670737655833E-06,0,0,0
-1.69779232237488E-05,9.66190145845758E-06,0,0,0
-1.64848897838965E-05,1.01310788522824E-05,0,0,0
-1.52505090227351E-05,9.62349531619111E-06,0,0,0
-1.56149108079262E-05,1.07579326140694E-05,0,0,0
-1.42809403769206E-05,9.37496042752173E-06,0,0,0
-1.50371488416567E-05,7.47310650694999E-06,0,0,0
-1.59349419845967E-05,5.16140107720275E-06,0,0,0
-1.71570154634537E-05,5.67457891520462E-06,0,0,0
-1.59563896886539E-05,5.99518079980044E-06,0,0,0
-1.38990162668051E-05,4.96909706271254E-06,0,0,0
-1.31303404486971E-05,6.29753685643664E-07,0,0,0
-1.40736547109555E-05,-6.18220292381011E-06,0,0,0
-1.29483360069571E-05,-8.37966945255175E-06,0,0,0
-1.99474852706771E-05,-8.89973398443544E-06,0,0,0
-1.66958107001847E-05,8.04860235348315E-07,0,0,0
-1.94257354451111E-05,3.24489519698545E-06,0,0,0
-1.5753714251332E-05,4.1964667616412E-06,0,0,0
-1.66311765497085E-05,1.05243339021399E-06,0,0,0
-1.51373642438557E-05,3.94812968806946E-06,0,0,0
-1.53196469909744E-05,6.12676467426354E-06,0,0,0
-1.59547616931377E-05,8.74545912665781E-06,0,0,0
-1.74170636455528E-05,9.96049129753374E-06,0,0,0
-1.85644348675851E-05,1.20755930765881E-05,0,0,0
-1.90510108950548E-05,1.60720628628042E-05,0,0,0
-2.10222242458258E-05,2.06829681701493E-05,0,0,0
-2.1839428882231E-05,2.50919529207749E-05,0,0,0
-2.29324505198747E-05,2.33641349041136E-05,0,0,0
-2.1794818167109E-05,1.60386462084716E-05,0,0,0
-2.19516314245993E-05,4.70030727228732E-06,0,0,0
-2.19853227463318E-05,-1.11090662358038E-06,0,0,0
-2.44242419285001E-05,-7.08375239355519E-07,0,0,0
-2.60569195233984E-05,7.44763497095846E-07,0,0,0
-2.7584294002736E-05,-3.75689069187501E-06,0,0,0
-2.75682796200272E-05,-3.81576046493137E-06,0,0,0
-2.68948806478875E-05,7.21381184121128E-06,0,0,0
-2.4823310013744E-05,2.1765437850263E-05,0,0,0
-2.36775631492492E-05,2.65822018263862E-05,0,0,0
-2.33585305977613E-05,2.08140154427383E-05,0,0,0
-2.31366666412214E-05,1.06941588455811E-05,0,0,0
-1.87739478860749E-05,9.01665032415622E-07,0,0,0
-2.69826941803331E-05,-2.98421610978039E-07,0,0,0
-2.03411418624455E-05,-1.0023892400568E-06,0,0,0
-2.52037425525486E-05,-2.11534299410232E-07,0,0,0
-2.13919101952342E-05,-9.31532895265264E-07,0,0,0
-2.35499119298765E-05,2.61430295722676E-06,0,0,0
-2.23392344196327E-05,6.12131452726317E-06,0,0,0
-2.45026840275386E-05,8.70797430252424E-06,0,0,0
-2.38838438235689E-05,9.47029002418276E-06,0,0,0
-2.33986174862366E-05,9.06582681636792E-06,0,0,0
-2.32823877013288E-05,7.18628689355683E-06,0,0,0
-2.23386887228116E-05,6.77817570249317E-06,0,0,0
-2.29611996473977E-05,7.48954744267394E-06,0,0,0
-2.32125712500419E-05,7.72924522607354E-06,0,0,0
-2.57055035035592E-05,9.01586736290483E-06,0,0,0
-2.51648925768677E-05,1.13968817458954E-05,0,0,0
-2.60732540482422E-05,1.29698892123997E-05,0,0,0
-2.59161060967017E-05,1.1440834896348E-05,0,0,0
-2.77771068795118E-05,9.84062626230298E-06,0,0,0
-2.70630880550016E-05,1.04465934782638E-05,0,0,0
-2.71825556410477E-05,1.33173207359505E-05,0,0,0
-2.58115233009448E-05,1.52412567331339E-05,0,0,0
-2.54343794949818E-05,1.61013085744344E-05,0,0,0
-2.49886525125476E-05,1.64887878781883E-05,0,0,0
-2.53018843068276E-05,1.64157554536359E-05,0,0,0
-2.50815974141005E-05,1.34475822051172E-05,0,0,0
-2.47672342084115E-05,9.67865344136953E-06,0,0,0
-1.9204015188734E-05,8.30208955449052E-06,0,0,0
-2.68840994976927E-05,1.60151721502189E-05,0,0,0
-2.1115891286172E-05,1.76331413968001E-05,0,0,0
-2.82074124697829E-05,1.90378868865082E-05,0,0,0
-2.57047831837554E-05,1.51503982124268E-05,0,0,0
-2.9716200515395E-05,1.40453294079634E-05,0,0,0
-2.81560714938678E-05,1.26735767480568E-05,0,0,0
-2.81394477497088E-05,1.35822756419657E-05,0,0,0
-2.60264368989738E-05,1.53174187289551E-05,0,0,0
-2.59667376667494E-05,1.61261050379835E-05,0,0,0
-2.67987379629631E-05,1.41637483466184E-05,0,0,0
-2.68694057012908E-05,1.17707841127412E-05,0,0,0
-2.88018163701054E-05,1.25669548651786E-05,0,0,0
-2.77038161584642E-05,1.34194451675285E-05,0,0,0
-2.7531055820873E-05,1.31195056383149E-05,0,0,0
-2.58165709965397E-05,1.11717245090404E-05,0,0,0
-2.67002924374538E-05,1.07719588413602E-05,0,0,0
-2.53439338848693E-05,1.14190079330001E-05,0,0,0
-2.61029435932869E-05,1.2844946468249E-05,0,0,0
-2.50689299718942E-05,1.27067605717457E-05,0,0,0
-2.50366338150343E-05,1.21853208838729E-05,0,0,0
-2.43537579081021E-05,1.12223888208973E-05,0,0,0
-2.54831338679651E-05,1.04766222648323E-05,0,0,0
-2.51370856858557E-05,1.04009077404044E-05,0,0,0
-2.44675247813575E-05,1.31240531118237E-05,0,0,0
-2.38374595937785E-05,1.60312611114932E-05,0,0,0
-2.42347559833433E-05,1.64661269081989E-05,0,0,0
-2.12535833270522E-05,1.26571285363752E-05,0,0,0
-3.12244883389212E-05,1.72117852343945E-05,0,0,0
-2.42988171521574E-05,1.20618751680013E-05,0,0,0
-2.89573799818754E-05,1.34786751004867E-05,0,0,0
-2.37254444073187E-05,3.08355402012239E-06,0,0,0
-2.55389768426539E-05,-4.00156795876683E-06,0,0,0
-2.39404016610933E-05,-6.48619152343599E-06,0,0,0
-2.54876795224845E-05,1.5091932255018E-06,0,0,0
-2.49230615736451E-05,9.88924057310214E-06,0,0,0
-2.5588244170649E-05,1.2935414815729E-05,0,0,0
-2.67929044639459E-05,1.18283860501833E-05,0,0,0
-2.71456683549332E-05,9.67016785580199E-06,0,0,0
-2.83504650724353E-05,9.97505776467733E-06,0,0,0
-2.73811801889678E-05,1.10516384665971E-05,0,0,0
-2.89410618279362E-05,1.3754867723037E-05,0,0,0
-2.82656656054314E-05,1.4533137800754E-05,0,0,0
-2.93950197374215E-05,1.72691870830022E-05,0,0,0
-2.78170882666018E-05,1.93813411897281E-05,0,0,0
-2.83966201095609E-05,2.09976442420157E-05,0,0,0
-2.81808206636924E-05,1.86847792065237E-05,0,0,0
-2.91081742034294E-05,1.71697120094905E-05,0,0,0
-2.78481675195508E-05,1.70215498656034E-05,0,0,0
-2.97491205856204E-05,1.919527494465E-05,0,0,0
-3.21892621286679E-05,2.02106766664656E-05,0,0,0
-3.30248876707628E-05,1.97838453459553E-05,0,0,0
-3.15050310746301E-05,1.8777982404572E-05,0,0,0
-3.0059474738664E-05,1.87887326319469E-05,0,0,0
-2.42324094870128E-05,1.40065731102368E-05,0,0,0
-3.49736546922941E-05,1.62666510732379E-05,0,0,0
-2.6887977583101E-05,8.31222769193118E-06,0,0,0
-3.26044646499213E-05,1.36813177959993E-05,0,0,0
-2.71488788712304E-05,1.28890833366313E-05,0,0,0
-3.03488250210648E-05,1.72882173501421E-05,0,0,0
-2.80363656202098E-05,1.55516790982801E-05,0,0,0
-2.9979335522512E-05,1.44067735163844E-05,0,0,0
-2.917169695138E-05,1.26896593428683E-05,0,0,0
-2.78926072496688E-05,1.32054674395476E-05,0,0,0
-2.72023098659702E-05,1.43022743941401E-05,0,0,0
-2.65718026639661E-05,1.47360933624441E-05,0,0,0
-2.84465422737412E-05,1.50455553011852E-05,0,0,0
-2.72775450866902E-05,1.23609006550396E-05,0,0,0
-2.71657754637999E-05,1.07563637357089E-05,0,0,0
-2.49245695158606E-05,8.11013615020784E-06,0,0,0
-2.56951225310331E-05,9.17135184863582E-06,0,0,0
-2.38585089391563E-05,8.93868491402827E-06,0,0,0
-2.49177701334702E-05,8.50192645884817E-06,0,0,0
-2.46516792685725E-05,5.24358210896025E-06,0,0,0
-2.60615524894092E-05,4.02207115257625E-06,0,0,0
-2.55546365224291E-05,3.13001487484144E-06,0,0,0
-2.693781243579E-05,4.04976935897139E-06,0,0,0
-2.73091136477888E-05,4.52087033409043E-06,0,0,0
-2.71331027761335E-05,4.48406035502558E-06,0,0,0
-2.51101955655031E-05,4.1001017052622E-06,0,0,0
-2.45767059823265E-05,3.64434708899353E-06,0,0,0
-2.13881849049358E-05,2.90303159999894E-06,0,0,0
-3.10257528326474E-05,5.33514912604005E-06,0,0,0
-2.19726807699772E-05,6.69355449645082E-06,0,0,0
-2.3071648683981E-05,1.05588778751553E-05,0,0,0
-1.60690542543307E-05,1.45373633131385E-05,0,0,0
-1.84683358384063E-05,1.57566973939538E-05,0,0,0
-1.68467231560498E-05,1.08598833321594E-05,0,0,0
-1.79385860974435E-05,6.09951985097723E-06,0,0,0
-1.63291952048894E-05,5.84872532272129E-06,0,0,0
-1.53743785631377E-05,8.41554356156848E-06,0,0,0
-1.53602832142496E-05,1.1646571692836E-05,0,0,0
-1.49641400639666E-05,1.42841163324192E-05,0,0,0
-1.65474702953361E-05,1.44617397381808E-05,0,0,0
-1.62236119649606E-05,1.0734277566371E-05,0,0,0
-1.75746808963595E-05,7.08643165125977E-06,0,0,0
-1.68028327607317E-05,6.58628596283961E-06,0,0,0
-1.86414108611643E-05,9.60143734118901E-06,0,0,0
-1.8012926375377E-05,1.14061094791396E-05,0,0,0
-1.80358656507451E-05,1.01518753581331E-05,0,0,0
-1.58647726493655E-05,8.33806097944034E-06,0,0,0
-1.66134650498861E-05,8.09471839602338E-06,0,0,0
-1.75694895006018E-05,7.78615685703699E-06,0,0,0
-1.96632372535532E-05,5.88832426728914E-06,0,0,0
-1.89992806554073E-05,4.27729810326127E-06,0,0,0
-1.80826682480983E-05,4.84145766677102E-06,0,0,0
-1.78987629624316E-05,5.68483665119857E-06,0,0,0
-1.79655125975842E-05,5.86413534620078E-06,0,0,0
-1.40465990625671E-05,6.13058182352688E-06,0,0,0
-1.97778499568813E-05,9.75523744273232E-06,0,0,0
-1.56548248924082E-05,7.41038229534752E-06,0,0,0
-2.06539461942157E-05,5.89229739489383E-06,0,0,0
-1.86329434654908E-05,2.67897303274367E-06,0,0,0
-2.12810846278444E-05,4.75155775347957E-06,0,0,0
-2.08872424991569E-05,6.56808560961508E-06,0,0,0
-2.13631701626582E-05,8.11948757473147E-06,0,0,0
-2.01581224246183E-05,8.30934914120007E-06,0,0,0
-2.12469694815809E-05,7.33604656488751E-06,0,0,0
-2.320284875168E-05,6.5877184169949E-06,0,0,0
-2.40187891904498E-05,6.12510575592751E-06,0,0,0
-2.51968867814867E-05,6.0017005125701E-06,0,0,0
-2.55517716141185E-05,5.93404638493666E-06,0,0,0
-2.71905373665504E-05,7.3285782491439E-06,0,0,0
-2.64531354332576E-05,8.17779800854623E-06,0,0,0
-2.65850576397497E-05,8.2056885730708E-06,0,0,0
-2.50362845690688E-05,6.43220892015961E-06,0,0,0
-2.55688973993529E-05,5.37804044142831E-06,0,0,0
-2.56953971984331E-05,4.77016965305666E-06,0,0,0
-2.67038485617377E-05,3.61699881068489E-06,0,0,0
-2.54727838182589E-05,9.4226811597764E-07,0,0,0
-2.52991903835209E-05,8.97818267731054E-07,0,0,0
-2.59968928730814E-05,6.29736814516946E-06,0,0,0
-2.76249556918629E-05,1.51585245475871E-05,0,0,0
-2.76770442724228E-05,1.99731875909492E-05,0,0,0
-2.61911318375496E-05,1.74419928953284E-05,0,0,0
-1.93219784705434E-05,8.5631409092457E-06,0,0,0
-2.7623180358205E-05,1.11576855488238E-05,0,0,0
-2.13738003367325E-05,1.01478381111519E-05,0,0,0
-2.57595820585266E-05,1.65253277373267E-05,0,0,0
-2.04016560019227E-05,1.67873477039393E-05,0,0,0
-2.24420218728483E-05,1.93061805475736E-05,0,0,0
-2.02455230464693E-05,1.3975429283164E-05,0,0,0
-2.2355381588568E-05,5.42929137736792E-06,0,0,0
-2.26743195526069E-05,1.40522303127E-07,0,0,0
-2.31164121942129E-05,5.36706602360937E-06,0,0,0
-2.3474507543142E-05,1.34163019538391E-05,0,0,0
-2.36252071772469E-05,1.66822155733826E-05,0,0,0
-2.52894878940424E-05,1.60810595843941E-05,0,0,0
-2.35004190471955E-05,1.31251590573811E-05,0,0,0
-2.25728945224546E-05,1.33098892547423E-05,0,0,0
-2.04532807401847E-05,1.32358882183325E-05,0,0,0
-2.17165306821698E-05,1.00452052720357E-05,0,0,0
-2.13403254747391E-05,3.16649447995587E-07,0,0,0
-2.29298002523137E-05,-5.55217638975591E-06,0,0,0
-2.27336677198764E-05,-1.11553606529924E-06,0,0,0
-2.40022691286867E-05,1.25312371892505E-05,0,0,0
-2.3300837710849E-05,2.44702878262615E-05,0,0,0
-2.24642499233596E-05,2.92296972475015E-05,0,0,0
-2.08666733669816E-05,2.53742255154066E-05,0,0,0
-2.2019481548341E-05,1.74457218236057E-05,0,0,0
-2.35010957112536E-05,1.02504927781411E-05,0,0,0
-2.30145706154872E-05,1.00374127214309E-05,0,0,0
-1.75787718035281E-05,1.45828762470046E-05,0,0,0
-2.57375613728072E-05,2.46317613346037E-05,0,0,0
-2.10709567909362E-05,2.15301424759673E-05,0,0,0
-2.55242230196018E-05,2.18045879591955E-05,0,0,0
-2.15087729884544E-05,1.75854147528298E-05,0,0,0
-2.39826513279695E-05,1.92078969121212E-05,0,0,0
-2.17743327084463E-05,1.81130199052859E-05,0,0,0
-2.14877818507375E-05,1.70437851920724E-05,0,0,0
-1.89999627764337E-05,1.287765098823E-05,0,0,0
-1.83040356205311E-05,8.97570862434804E-06,0,0,0
-1.91169237950817E-05,7.85668635217007E-06,0,0,0
-2.01350376300979E-05,8.97929567145184E-06,0,0,0
-2.33483006013557E-05,1.11002491394174E-05,0,0,0
-2.4983844923554E-05,1.11077943074633E-05,0,0,0
-2.75856527878204E-05,1.29657546494855E-05,0,0,0
-2.80002150248038E-05,1.36994822241832E-05,0,0,0
-2.98215891234577E-05,1.44732703120098E-05,0,0,0
-2.87477669189684E-05,1.23260697364458E-05,0,0,0
-2.90397256321739E-05,1.15360662675812E-05,0,0,0
-2.82179807982175E-05,1.17841036626487E-05,0,0,0
-2.95375211862847E-05,1.30760145111708E-05,0,0,0
-2.90808111458318E-05,1.21430939543643E-05,0,0,0
-2.76467671938008E-05,1.09466527646873E-05,0,0,0
-2.54603673965903E-05,9.10310973267769E-06,0,0,0
-2.57178762694821E-05,8.23609570943518E-06,0,0,0
-2.59557964454871E-05,7.12755763743189E-06,0,0,0
-2.54308761213906E-05,6.50854281047941E-06,0,0,0
-2.02919927687617E-05,6.42830127617344E-06,0,0,0
-2.90905099973315E-05,9.98578980215825E-06,0,0,0
-2.2617015929427E-05,9.18363912205677E-06,0,0,0
-2.82674045593012E-05,1.19402939162683E-05,0,0,0
-2.45392839133274E-05,1.14226504592807E-05,0,0,0
-2.82629516732413E-05,1.26606155390618E-05,0,0,0
-2.68466319539584E-05,1.22498368000379E-05,0,0,0
-2.77029976132326E-05,9.33829687710386E-06,0,0,0
-2.58877262240276E-05,4.74287276119867E-09,0,0,0
-2.44755356106907E-05,-1.35180134748225E-05,0,0,0
-2.42529476963682E-05,-2.1578312953352E-05,0,0,0
-2.36237938224804E-05,-1.58936691150302E-05,0,0,0
-2.40896060859086E-05,5.29945225480333E-07,0,0,0
-2.24302220885875E-05,1.46030015457654E-05,0,0,0
-2.32094371312996E-05,2.09390946110943E-05,0,0,0
-2.26580177695723E-05,1.96406508621294E-05,0,0,0
-2.5253768399125E-05,1.69266586453887E-05,0,0,0
-2.53797461482463E-05,1.50117575685726E-05,0,0,0
-2.60448869084939E-05,1.41065947900643E-05,0,0,0
-2.50241228059167E-05,1.24206999316812E-05,0,0,0
-2.66068109340267E-05,1.25103106256574E-05,0,0,0
-2.6379926566733E-05,1.42914714160725E-05,0,0,0
-2.51934343395988E-05,1.48554145198432E-05,0,0,0
-2.31094927585218E-05,1.16972196337883E-05,0,0,0
-2.26221982302377E-05,9.62976810114924E-06,0,0,0
-2.19636021938641E-05,1.04187629403896E-05,0,0,0
-2.19599387492053E-05,1.00916277006036E-05,0,0,0
-1.75814657268347E-05,6.39723384665558E-06,0,0,0
-2.38928969338303E-05,8.96733217814472E-06,0,0,0
-1.62518645083765E-05,6.86242765368661E-06,0,0,0
-1.94868425751338E-05,7.9447827374679E-06,0,0,0
-1.63216463988647E-05,5.48235129826935E-06,0,0,0
-2.06723998417147E-05,8.28783959150314E-06,0,0,0
-1.9595217963797E-05,1.16534074550145E-05,0,0,0
-2.04905609280104E-05,1.40385564009193E-05,0,0,0
-1.95173925021663E-05,1.34207430164679E-05,0,0,0
-2.02383671421558E-05,1.24216994663584E-05,0,0,0
-2.17532524402486E-05,1.21330267575104E-05,0,0,0
-2.19841404032195E-05,1.22477431432344E-05,0,0,0
-2.25379626499489E-05,1.15610018838197E-05,0,0,0
-2.08900710276794E-05,8.66901064000558E-06,0,0,0
-2.16243333852617E-05,6.75864657750935E-06,0,0,0
-2.11001333809691E-05,6.58693215882522E-06,0,0,0
-2.29042670980562E-05,8.77451475389535E-06,0,0,0
-2.26645752263721E-05,9.60234501690138E-06,0,0,0
-2.41758534684777E-05,9.67724554357119E-06,0,0,0
-2.41174639086239E-05,9.48652996157762E-06,0,0,0
-2.46650488406885E-05,1.17428044177359E-05,0,0,0
-2.27619148063241E-05,1.49167080962798E-05,0,0,0
-2.26789888984058E-05,1.69878439919557E-05,0,0,0
-2.35196439462015E-05,1.64160101121524E-05,0,0,0
-2.47241114266217E-05,1.52093834913103E-05,0,0,0
-2.45790342887631E-05,1.38002033054363E-05,0,0,0
-2.33681803365471E-05,1.17845402201056E-05,0,0,0
-1.85328208317515E-05,7.35756066205795E-06,0,0,0
-2.72215729637537E-05,1.01821251519141E-05,0,0,0
-2.22972412302624E-05,7.71299164625816E-06,0,0,0
-2.73198838840472E-05,1.10144137579482E-05,0,0,0
-2.41618381551234E-05,1.10172895801952E-05,0,0,0
-2.78998795693042E-05,1.31649358081631E-05,0,0,0
-2.67324430751614E-05,1.22463534353301E-05,0,0,0
-2.79362648143433E-05,1.08951826405246E-05,0,0,0
-2.69769607257331E-05,9.70350356510608E-06,0,0,0
-2.65180842689006E-05,9.53830203798134E-06,0,0,0
-2.64589452854125E-05,1.01713985714014E-05,0,0,0
-2.60347114817705E-05,1.10355431388598E-05,0,0,0
-2.66889746853849E-05,1.17540594146703E-05,0,0,0
-2.55696068052202E-05,1.0742670383479E-05,0,0,0
-2.62255580310011E-05,9.97590905171819E-06,0,0,0
-2.45816263486631E-05,8.83606026036432E-06,0,0,0
-2.42074384004809E-05,9.73362057266058E-06,0,0,0
-2.18211534956936E-05,1.12587422336219E-05,0,0,0
-2.24265240831301E-05,1.26614067994524E-05,0,0,0
-2.15110576391453E-05,1.14285394374747E-05,0,0,0
-2.13566672755405E-05,1.11777399069979E-05,0,0,0
-2.06769327633083E-05,1.1589792848099E-05,0,0,0
-2.20818219531793E-05,1.10866503746365E-05,0,0,0
-2.24272589548491E-05,1.08247540993034E-05,0,0,0
-2.24499308387749E-05,1.36835051307571E-05,0,0,0
-2.18341519939713E-05,1.64389493875206E-05,0,0,0
-2.23626411752775E-05,1.61521493282635E-05,0,0,0
-1.81168688868638E-05,1.14259928523097E-05,0,0,0
-2.46760591835482E-05,1.45559351949487E-05,0,0,0
-1.8604690922075E-05,7.99980080046225E-06,0,0,0
-2.52994923357619E-05,9.80319327936741E-06,0,0,0
-2.24437535507604E-05,9.02612373465672E-06,0,0,0
-2.45243500103243E-05,1.41586951940553E-05,0,0,0
-2.26886422751704E-05,1.42795734063839E-05,0,0,0
-2.50908033194719E-05,1.41882919706404E-05,0,0,0
-2.50298799073789E-05,1.22030296552111E-05,0,0,0
-2.55811191891553E-05,1.08832300611539E-05,0,0,0
-2.70302789431298E-05,9.13431904336903E-06,0,0,0
-2.7134385163663E-05,7.47347712604096E-06,0,0,0
-2.72248471446801E-05,8.53829624247737E-06,0,0,0
-2.60846845776541E-05,9.65056096902117E-06,0,0,0
-2.76939517789287E-05,1.18989819384296E-05,0,0,0
-2.6608615371515E-05,1.16760611490463E-05,0,0,0
-2.526293246774E-05,1.24822108773515E-05,0,0,0
-2.03742092708126E-05,1.21858529382735E-05,0,0,0
-1.8920212824014E-05,1.18813168228371E-05,0,0,0
-1.79883172677364E-05,8.53797882882645E-06,0,0,0
-1.90847931662574E-05,6.64705157760181E-06,0,0,0
-1.85976696229773E-05,5.44189288120833E-06,0,0,0
-2.01687016669894E-05,5.24487586517353E-06,0,0,0
-2.16032876778627E-05,5.04715080751339E-06,0,0,0
-2.24221257667523E-05,5.44642489330727E-06,0,0,0
-2.20106448978186E-05,6.80304674460785E-06,0,0,0
-2.25247986236354E-05,1.21246293929289E-05,0,0,0
-1.72954460140318E-05,1.7852873497759E-05,0,0,0
-2.24681589315878E-05,2.69037918769754E-05,0,0,0
-1.53013079398079E-05,1.62003580044257E-05,0,0,0
-2.0713325284305E-05,1.12642846943345E-05,0,0,0
-1.679591514403E-05,2.99709972750861E-06,0,0,0
-1.86168981599621E-05,3.01159298032871E-06,0,0,0
-1.57743343152106E-05,1.93420305549807E-06,0,0,0
-1.64864977705292E-05,4.94236201120657E-06,0,0,0
-1.65544843184762E-05,6.60641990180011E-06,0,0,0
-1.8573035049485E-05,7.1196855060407E-06,0,0,0
-2.00728482013801E-05,6.31806415185565E-06,0,0,0
-1.91175931831822E-05,3.2166906294151E-06,0,0,0
-1.925477408804E-05,1.92688548850128E-06,0,0,0
-1.91305189218838E-05,1.03005311302695E-06,0,0,0
-2.26536649279296E-05,3.33654270434636E-06,0,0,0
-2.41645157075254E-05,4.15208705817349E-06,0,0,0
-2.67047744273441E-05,5.38283848072751E-06,0,0,0
-2.62171652138932E-05,4.50560401077382E-06,0,0,0
-2.71133048954653E-05,5.46413411939284E-06,0,0,0
-2.627566755109E-05,5.35886010766262E-06,0,0,0
-2.67065515799914E-05,5.55400447410648E-06,0,0,0
-2.58025793300476E-05,5.10705285705626E-06,0,0,0
-2.70457876467844E-05,6.02934915150399E-06,0,0,0
-2.85518399323337E-05,4.43664293925394E-06,0,0,0
-2.9778029784211E-05,3.95676397602074E-06,0,0,0
-2.97947772196494E-05,8.51507593324641E-06,0,0,0
-2.91577143798349E-05,1.42327889989247E-05,0,0,0
-2.27370946959127E-05,1.33595840452472E-05,0,0,0
-3.25801556755323E-05,1.84209166036453E-05,0,0,0
-2.51383225986501E-05,1.32017876239843E-05,0,0,0
-3.1269111786969E-05,1.66203844855772E-05,0,0,0
-2.60722408711445E-05,1.56121786858421E-05,0,0,0
-2.85189216810977E-05,2.07074081117753E-05,0,0,0
-2.72116812993772E-05,2.07313241844531E-05,0,0,0
-2.9718237783527E-05,1.95188640645938E-05,0,0,0
-2.79952910204884E-05,1.38579935082817E-05,0,0,0
-2.56681887549348E-05,5.69462827115785E-06,0,0,0
-2.36071628023637E-05,-2.4717253381823E-06,0,0,0
-2.11613842111547E-05,-4.81147299069562E-06,0,0,0
-2.14025949389907E-05,2.87179659608228E-06,0,0,0
-2.08979654416908E-05,1.18631114673917E-05,0,0,0
-2.32794154726435E-05,1.73064527189126E-05,0,0,0
-2.24381310545141E-05,1.4162029401632E-05,0,0,0
-2.29806155402912E-05,9.6713538368931E-06,0,0,0
-2.24238137889188E-05,6.2501667343895E-06,0,0,0
-2.51218498306116E-05,6.81409483149764E-06,0,0,0
-2.40644312725635E-05,5.82610755373025E-06,0,0,0
-2.37339372688439E-05,4.54868904853356E-06,0,0,0
-2.34817598538939E-05,3.14715043714386E-06,0,0,0
-2.49902732321061E-05,5.7693923736224E-06,0,0,0
-2.34884646488354E-05,9.84388498181943E-06,0,0,0
-2.2031899788999E-05,1.19765882118372E-05,0,0,0
-2.20515521505149E-05,1.15587263280759E-05,0,0,0
-2.29371744353557E-05,1.11196832222049E-05,0,0,0
-1.9492825231282E-05,9.55577797867591E-06,0,0,0
-2.9095168429194E-05,1.4704062778037E-05,0,0,0
-2.46062390942825E-05,1.2952858924109E-05,0,0,0
-2.99519506370416E-05,1.41590571729466E-05,0,0,0
-2.55462255154271E-05,1.04304772321484E-05,0,0,0
-2.85958903987193E-05,1.09034790511942E-05,0,0,0
-2.69186039076885E-05,8.26412087917561E-06,0,0,0
-2.72604356723605E-05,7.36445690563414E-06,0,0,0
-2.56987113971263E-05,9.25087078940123E-06,0,0,0
-2.39440541918157E-05,1.38629711727845E-05,0,0,0
-2.19815574382665E-05,1.64534285431728E-05,0,0,0
-2.08311594178667E-05,1.52836782945087E-05,0,0,0
-2.40393601416145E-05,1.39452995426836E-05,0,0,0
-2.6017851268989E-05,1.39843568831566E-05,0,0,0
-2.83352746919263E-05,1.75145414686995E-05,0,0,0
-2.72715242317645E-05,1.94959065993316E-05,0,0,0
-2.77690724033164E-05,1.99279420485254E-05,0,0,0
-2.66596234723693E-05,1.73785374499857E-05,0,0,0
-2.80308195215184E-05,1.44525283758412E-05,0,0,0
-2.85106616502162E-05,1.07534960989142E-05,0,0,0
-3.13619893859141E-05,9.95651953417109E-06,0,0,0
-3.25935725413729E-05,1.15076572910766E-05,0,0,0
-3.26399022014812E-05,1.53436649270589E-05,0,0,0
-3.15712168230675E-05,1.70137536770198E-05,0,0,0
-3.19436403515283E-05,1.65714645845583E-05,0,0,0
-3.15692013828084E-05,1.52857683133334E-05,0,0,0
-3.13509226543829E-05,1.50907617353369E-05,0,0,0
-2.58661711995956E-05,1.33369649120141E-05,0,0,0
-3.71639325749129E-05,1.79162325366633E-05,0,0,0
-2.70756863756105E-05,1.17859008241794E-05,0,0,0
-3.23391723213717E-05,1.42454937304137E-05,0,0,0
-2.73818459390895E-05,1.08268768599373E-05,0,0,0
-2.99374460155377E-05,1.14168587970198E-05,0,0,0
-2.55617269431241E-05,6.95279459250742E-06,0,0,0
-2.61391378444387E-05,5.13530585521949E-06,0,0,0
-2.51277560892049E-05,4.16925649915356E-06,0,0,0
-2.49089916906087E-05,5.08222547068726E-06,0,0,0
-2.46003146457952E-05,7.17274679118418E-06,0,0,0
-2.31382491620025E-05,9.08919628272997E-06,0,0,0
-2.38039701798698E-05,1.00841143648722E-05,0,0,0
-2.3115948351915E-05,9.02394458535127E-06,0,0,0
-2.55958057095995E-05,1.00689985629288E-05,0,0,0
-2.5442475816817E-05,9.45751708059106E-06,0,0,0
-2.76764149020892E-05,1.0394861419627E-05,0,0,0
-2.74351295956876E-05,1.10857336039771E-05,0,0,0
-2.93277662422042E-05,1.43155803016271E-05,0,0,0
-2.76000810117694E-05,1.52166903717443E-05,0,0,0
-2.74893063760828E-05,1.51441417983733E-05,0,0,0
-2.55083559750346E-05,1.2884534044133E-05,0,0,0
-2.44002694671508E-05,1.14438316813903E-05,0,0,0
-2.22064809349831E-05,1.00424358606688E-05,0,0,0
-2.05894248210825E-05,1.02162912298809E-05,0,0,0
-2.01683160412358E-05,1.28483843582217E-05,0,0,0
-2.09670342883328E-05,1.46049842442153E-05,0,0,0
-1.67781236086739E-05,1.05015496956185E-05,0,0,0
-2.41653233388206E-05,1.39620915433625E-05,0,0,0
-1.86176584975328E-05,9.65846538747428E-06,0,0,0
-2.159789801226E-05,1.14113190647913E-05,0,0,0
-1.64756638696417E-05,8.28230713523226E-06,0,0,0
-1.80415863724193E-05,1.13084643089678E-05,0,0,0
-1.81309696927201E-05,1.11459785330226E-05,0,0,0
-2.22837388719199E-05,1.05330218502786E-05,0,0,0
-2.42664336838061E-05,9.22790422919206E-06,0,0,0
-2.59938424278516E-05,1.02224994407152E-05,0,0,0
-2.65467024291866E-05,1.1350472959748E-05,0,0,0
-2.49732675001724E-05,1.06775942185777E-05,0,0,0
-2.39529254031368E-05,1.11562421807321E-05,0,0,0
-2.14519714063499E-05,1.06580746432883E-05,0,0,0
-2.05659216589993E-05,1.01088762676227E-05,0,0,0
-1.81702507688897E-05,7.56043755245628E-06,0,0,0
-1.86988963832846E-05,7.21966853234335E-06,0,0,0
-1.8225537132821E-05,7.64762808103114E-06,0,0,0
-1.8589847968542E-05,9.06066088646185E-06,0,0,0
-1.63004042406101E-05,7.76693104853621E-06,0,0,0
-1.45471422001719E-05,7.18307273928076E-06,0,0,0
-1.22443425425445E-05,7.18126057108748E-06,0,0,0
-1.19566057037446E-05,8.43205361888977E-06,0,0,0
-1.03250213214778E-05,9.1378951765364E-06,0,0,0
-8.68845654622419E-06,9.93880166788585E-06,0,0,0
-7.27168617231655E-06,1.14030526674469E-05,0,0,0
-7.43044938644744E-06,1.31872156998725E-05,0,0,0
-6.43541989120422E-06,1.04927084976225E-05,0,0,0
-9.84883536148118E-06,1.19970000014291E-05,0,0,0
-1.00090310297674E-05,6.0301222220005E-06,0,0,0
-1.19604328574496E-05,1.07098148873774E-05,0,0,0
-9.12380164663773E-06,1.14264603325864E-05,0,0,0
-9.22410072234925E-06,1.51449667100678E-05,0,0,0
-7.82314054958988E-06,1.40942893267493E-05,0,0,0
-7.81497783464147E-06,1.53720229718601E-05,0,0,0
-7.59757404011907E-06,1.7158621631097E-05,0,0,0
-7.97283428255469E-06,1.81220530066639E-05,0,0,0
-9.01786370377522E-06,1.64214816322783E-05,0,0,0
-1.04246410046471E-05,1.3532378943637E-05,0,0,0
-1.26697468658676E-05,1.28141382447211E-05,0,0,0
-1.42531089295517E-05,1.17226800284698E-05,0,0,0
-1.7036909412127E-05,1.20214426715393E-05,0,0,0
-1.9634690033854E-05,1.11278914118884E-05,0,0,0
-2.26166321226629E-05,1.08540762084886E-05,0,0,0
-2.39639739447739E-05,9.01620933291269E-06,0,0,0
-2.58643103734357E-05,1.03616812339169E-05,0,0,0
-2.82752207567682E-05,1.15179909698782E-05,0,0,0
-3.17484191327821E-05,1.19129499580595E-05,0,0,0
-3.32272029481828E-05,1.15243092295714E-05,0,0,0
-3.32882300426718E-05,1.20958429761231E-05,0,0,0
-3.24954453390092E-05,1.15671409730567E-05,0,0,0
-3.11417752527632E-05,1.02356298157247E-05,0,0,0
-2.94856217806228E-05,8.29039890959393E-06,0,0,0
-2.98591166938422E-05,8.58467774378369E-06,0,0,0
-2.47403731918894E-05,7.37319760446553E-06,0,0,0
-3.49951660609804E-05,1.10873543235357E-05,0,0,0
-2.55379454756621E-05,8.43095767777413E-06,0,0,0
-3.14636454277206E-05,9.16270801099017E-06,0,0,0
-2.73256518994458E-05,6.34570824331604E-06,0,0,0
-3.27584093611222E-05,5.50755066797137E-06,0,0,0
-3.1309526093537E-05,4.09728363592876E-06,0,0,0
-3.3248303225264E-05,5.33644788447418E-06,0,0,0
-3.20354993164074E-05,7.09266305420897E-06,0,0,0
-3.13235614157747E-05,7.87923545431113E-06,0,0,0
-3.16021796606947E-05,6.75025512464345E-06,0,0,0
-3.10320465359837E-05,4.8874599087867E-06,0,0,0
-3.13377968268469E-05,4.69828501081793E-06,0,0,0
-2.85632704617456E-05,4.56955331173958E-06,0,0,0
-2.88538958557183E-05,5.73138140680385E-06,0,0,0
-2.84541165456176E-05,6.30193699180381E-06,0,0,0
-3.13123455271125E-05,6.04906517764903E-06,0,0,0
-3.04098848573631E-05,3.35733307110786E-06,0,0,0
-3.15264296659734E-05,1.02614683328284E-06,0,0,0
-3.07488262478728E-05,-9.06237687559042E-07,0,0,0
-3.18791971949395E-05,-7.82691458312001E-08,0,0,0
-3.11647090711631E-05,2.20966921915533E-06,0,0,0
-3.07157206407283E-05,2.97683482131106E-06,0,0,0
-2.80027634289581E-05,1.85334113211866E-06,0,0,0
-2.76833943644306E-05,1.62764149536088E-06,0,0,0
-2.90576444967883E-05,2.83220742858248E-06,0,0,0
-3.01686050079297E-05,5.23956850884133E-06,0,0,0
-2.42447931668721E-05,5.17579337611096E-06,0,0,0
-3.3777228964027E-05,6.69418068355299E-06,0,0,0
-2.58159871009411E-05,3.76598472939804E-06,0,0,0
-3.2307580113411E-05,3.56928035216697E-06,0,0,0
-2.47263596975245E-05,9.80354911916947E-07,0,0,0
-2.64230220636819E-05,3.48652747561573E-06,0,0,0
-2.49113982135896E-05,4.0487248043064E-06,0,0,0
-2.82775945379399E-05,2.32110869546887E-06,0,0,0
-2.80216299870517E-05,2.27429654842126E-06,0,0,0
-2.73452369583538E-05,5.43245550943539E-06,0,0,0
-2.66440274572233E-05,1.10185128505691E-05,0,0,0
-2.51784622378182E-05,1.57623580889776E-05,0,0,0
-2.56775856541935E-05,1.69166996784043E-05,0,0,0
-2.20444817387033E-05,1.41451773743029E-05,0,0,0
-2.00933645828627E-05,1.23795143736061E-05,0,0,0
-1.61208317877026E-05,1.1722322597052E-05,0,0,0
-1.5712876120233E-05,1.23805357361562E-05,0,0,0
-1.36145172291435E-05,1.43851621032809E-05,0,0,0
-1.43605102493893E-05,1.77435813384363E-05,0,0,0
-1.29633417600417E-05,1.81636460183654E-05,0,0,0
-1.29098671095562E-05,1.70411585713737E-05,0,0,0
-1.13754149424494E-05,1.65899709827499E-05,0,0,0
-1.24728403534391E-05,1.83474840014242E-05,0,0,0
-1.24638927445631E-05,2.19284829654498E-05,0,0,0
-1.30965217977064E-05,2.48125925281784E-05,0,0,0
-1.56628448166884E-05,2.21326936298283E-05,0,0,0
-1.8797103621182E-05,1.38241312015452E-05,0,0,0
-1.69259292306378E-05,6.390137514245E-06,0,0,0
-2.46089839492925E-05,1.37117522172048E-05,0,0,0
-2.05525157070952E-05,2.25790772674372E-05,0,0,0
-2.75433212664211E-05,3.04422119370429E-05,0,0,0
-2.68108196905814E-05,2.25375988520682E-05,0,0,0
-2.92936729238136E-05,9.65247727435781E-06,0,0,0
-2.61264394794125E-05,-1.20182778573508E-06,0,0,0
-2.65720645984402E-05,1.57940149847491E-07,0,0,0
-2.62993071373785E-05,1.01847208497929E-05,0,0,0
-2.47742354986258E-05,2.04398584173759E-05,0,0,0
-2.24425020860508E-05,2.37459316849709E-05,0,0,0
-1.98324669327121E-05,2.2070164050092E-05,0,0,0
-1.98392153833993E-05,1.98765974346315E-05,0,0,0
-1.94915974134346E-05,1.75311015482293E-05,0,0,0
-2.13450912269764E-05,1.66736645041965E-05,0,0,0
-2.16421540244482E-05,1.5978008377715E-05,0,0,0
-2.25881849473808E-05,1.55795969476458E-05,0,0,0
-2.04179177671904E-05,1.3968701750855E-05,0,0,0
-2.05548021767754E-05,1.37782571982825E-05,0,0,0
-2.12811355595477E-05,1.39107587528997E-05,0,0,0
-2.39056407735916E-05,1.51675376400817E-05,0,0,0
-2.46136914938688E-05,1.59812752826838E-05,0,0,0
-2.60314809565898E-05,1.69878512679134E-05,0,0,0
-2.73008772637695E-05,1.77823585545411E-05,0,0,0
-2.80208569165552E-05,1.67051985044964E-05,0,0,0
-2.80062322417507E-05,1.4024410120328E-05,0,0,0
-2.92027561954455E-05,1.30963553601759E-05,0,0,0
-2.49096574407304E-05,1.12966099550249E-05,0,0,0
-3.50226910086349E-05,1.60637337103253E-05,0,0,0
-2.56560033449205E-05,1.17349209176609E-05,0,0,0
-3.16515652230009E-05,1.2538381270133E-05,0,0,0
-2.67866453214083E-05,7.27255519450409E-06,0,0,0
-3.19299979310017E-05,7.12310702510877E-06,0,0,0
-3.21196384902578E-05,5.98183305555722E-06,0,0,0
-3.5952285543317E-05,8.96420897333883E-06,0,0,0
-3.6506029573502E-05,1.07249188658898E-05,0,0,0
-3.6662593629444E-05,1.06132592918584E-05,0,0,0
-3.55716474587098E-05,1.00333782029338E-05,0,0,0
-3.31810915668029E-05,8.85155986907193E-06,0,0,0
-3.36512057401706E-05,8.14155464468058E-06,0,0,0
-3.24129068758339E-05,6.11549330642447E-06,0,0,0
-3.31591181748081E-05,5.47214858670486E-06,0,0,0
-3.02390562865185E-05,3.80635538022034E-06,0,0,0
-2.9851209546905E-05,3.85826479032403E-06,0,0,0
-2.68582443823107E-05,4.43868839283823E-06,0,0,0
-2.64293048530817E-05,8.08406366559211E-06,0,0,0
-2.44810435106047E-05,1.10744549601804E-05,0,0,0
-2.43668037001044E-05,1.34969104692573E-05,0,0,0
-2.14612464333186E-05,1.35796171889524E-05,0,0,0
-1.93180658243364E-05,1.36799153551692E-05,0,0,0
-1.61274474521633E-05,1.30450507640489E-05,0,0,0
-1.38345958475838E-05,1.20631857498665E-05,0,0,0
-1.23992358567193E-05,1.10000646600383E-05,0,0,0
-1.08965223262203E-05,8.43634279590333E-06,0,0,0
-4.54435712526902E-06,-2.03465970116667E-06,0,0,0
-3.44466593560355E-06,-1.07947962533217E-05,0,0,0
-8.38972084693523E-07,-1.18957486847648E-05,0,0,0
-4.24715881308657E-06,-8.34444392694422E-07,0,0,0
-5.49198330190848E-06,6.45217505734763E-06,0,0,0
-1.02810308817425E-05,7.47962349123554E-06,0,0,0
-1.34614074340789E-05,4.00994849769631E-06,0,0,0
-1.66269110195572E-05,3.53366044691938E-06,0,0,0
-1.86346951522864E-05,5.55407541469322E-06,0,0,0
-2.20562906179111E-05,8.25393453851575E-06,0,0,0
-2.65166581812082E-05,1.02261092251865E-05,0,0,0
-2.96511861961335E-05,1.15380535135046E-05,0,0,0
-3.15234428853728E-05,1.14686536107911E-05,0,0,0
-3.13283526338637E-05,9.78304251475492E-06,0,0,0
-3.10859395540319E-05,8.87553323991597E-06,0,0,0
-3.00877363770269E-05,8.69982704898575E-06,0,0,0
-3.04455206787679E-05,1.00875095085939E-05,0,0,0
-3.02659245789982E-05,1.138999050454E-05,0,0,0
-2.97842161671724E-05,1.16114824777469E-05,0,0,0
-2.79912783298641E-05,1.14194235720788E-05,0,0,0
-2.59565367741743E-05,1.32051791297272E-05,0,0,0
-2.3582877474837E-05,1.4435874618357E-05,0,0,0
-2.34319086303003E-05,1.43130037031369E-05,0,0,0
-2.47083353315247E-05,1.33474886752083E-05,0,0,0
-2.66731749434257E-05,1.06932693597628E-05,0,0,0
-2.78040515695466E-05,6.97474206390325E-06,0,0,0
-2.78920688288054E-05,5.30247734786826E-06,0,0,0
-2.18878085433971E-05,3.95569350075675E-06,0,0,0
-2.97411606879905E-05,6.26259361524717E-06,0,0,0
-2.16153275687248E-05,6.8828421717626E-06,0,0,0
-3.12182964989915E-05,9.24814321479062E-06,0,0,0
-3.02413591271034E-05,9.22989875107305E-06,0,0,0
-3.43352949130349E-05,1.15969605758437E-05,0,0,0
-3.3247586543439E-05,1.22716164696612E-05,0,0,0
-3.55676347680856E-05,1.24524949569604E-05,0,0,0
-3.41514169122092E-05,1.19320711746695E-05,0,0,0
-3.39232683472801E-05,1.18002453746158E-05,0,0,0
-3.40060578309931E-05,1.16504161269404E-05,0,0,0
-3.26400986523367E-05,1.08077483673696E-05,0,0,0
-3.40910082741175E-05,1.03850716186571E-05,0,0,0
-3.45579283020925E-05,9.21659648156492E-06,0,0,0
-3.63881008524913E-05,8.49843218020396E-06,0,0,0
-3.43805622833315E-05,7.81851485953666E-06,0,0,0
-3.3433494536439E-05,7.89844216342317E-06,0,0,0
-2.93599332508165E-05,7.87232056609355E-06,0,0,0
-2.83142853731988E-05,8.57970462675439E-06,0,0,0
-2.64494919974823E-05,9.20874117582571E-06,0,0,0
-2.65139951807214E-05,9.63183993007988E-06,0,0,0
-2.46260387939401E-05,9.13522126211319E-06,0,0,0
-2.34730305237463E-05,1.00902652775403E-05,0,0,0
-2.16712414840003E-05,1.13348532977398E-05,0,0,0
-2.14076699194266E-05,1.19753922263044E-05,0,0,0
-2.11295173357939E-05,1.2128862181271E-05,0,0,0
-2.1117843061802E-05,1.1299955076538E-05,0,0,0
-1.66303525475087E-05,9.65644630923634E-06,0,0,0
-2.34576400544029E-05,1.3484822375176E-05,0,0,0
-1.73152966453927E-05,9.0711027951329E-06,0,0,0
-2.06251279450953E-05,1.12308198367828E-05,0,0,0
-1.74332344613504E-05,1.03187830973184E-05,0,0,0
-2.08217170438729E-05,1.32704626594204E-05,0,0,0
-1.9083727238467E-05,1.36369135361747E-05,0,0,0
-1.88779213203816E-05,1.37545739562484E-05,0,0,0
-1.67939761013258E-05,1.30497583086253E-05,0,0,0
-1.63041713676648E-05,1.40154361361056E-05,0,0,0
-1.60515919560567E-05,1.50667801790405E-05,0,0,0
-1.46205966302659E-05,1.43817132993718E-05,0,0,0
-1.46042530104751E-05,1.37272982101422E-05,0,0,0
-1.34860401885817E-05,1.3174768355384E-05,0,0,0
-1.4333229046315E-05,1.39697158374474E-05,0,0,0
-1.26919258036651E-05,1.33093653857941E-05,0,0,0
-1.18167290565907E-05,1.31034357764293E-05,0,0,0
-8.01389978732914E-06,1.30430571516627E-05,0,0,0
-4.48952869191999E-06,1.5298202924896E-05,0,0,0
4.28270055863322E-07,1.55414145410759E-05,0,0,0
2.00460135602043E-06,1.51672093124944E-05,0,0,0
3.16382556775352E-06,1.50836449392955E-05,0,0,0
2.16546163755993E-06,1.66529571288265E-05,0,0,0
-1.81698851520196E-07,1.62758169608423E-05,0,0,0
-4.89820558868814E-06,1.53683831740636E-05,0,0,0
-9.05335855350131E-06,1.58714719873387E-05,0,0,0
-1.14247113742749E-05,1.65862529684091E-05,0,0,0
-1.21525717986515E-05,1.42898506965139E-05,0,0,0
-2.00788617803482E-05,1.99279074877268E-05,0,0,0
-1.96410619537346E-05,1.32674149426748E-05,0,0,0
-2.4450231649098E-05,1.54024692164967E-05,0,0,0
-2.46397303271806E-05,1.12206262201653E-05,0,0,0
-3.10850227833726E-05,1.22755764095928E-05,0,0,0
-3.76195494027343E-05,1.12568559416104E-05,0,0,0
-4.5878128730692E-05,1.05856888694689E-05,0,0,0
-5.06299584230874E-05,5.69907160752336E-06,0.87890625,0,0
-5.17757835041266E-05,1.76565754372859E-06,0.87890625,0,0
-5.16028085257858E-05,1.97741246665828E-06,0.87890625,0,0
-4.99723319080658E-05,4.33754166806466E-06,0.87890625,0,0
-4.82348950754385E-05,7.69637244957266E-06,0.87890625,0,0
-4.45629339083098E-05,8.48098261485575E-06,0.87890625,0,0
-4.17417613789439E-05,9.20711681828834E-06,0.87890625,0,0
-3.82643593184184E-05,7.69721827964531E-06,0.87890625,0,0
-3.69458066415973E-05,8.13089627627051E-06,0.87890625,0,0
-3.42851599270944E-05,7.29715702618705E-06,0.87890625,0,0
-3.13126765831839E-05,7.04264675732702E-06,0.87890625,0,0
-2.89388499368215E-05,5.37617506779497E-06,0.87890625,0,0
-2.96316175081301E-05,5.49529022464412E-06,0.87890625,0,0
-2.96787857223535E-05,5.26685607837862E-06,0.87890625,0,0
-2.87332277366659E-05,5.20015009897179E-06,0.87890625,0,0
-2.61014938587323E-05,3.63955859938869E-06,0.87890625,0,0
-2.32544316531857E-05,2.0501120161498E-06,0.87890625,0,0
-2.07906778086908E-05,1.61113678132097E-06,0.87890625,0,0
-1.85678527486743E-05,4.52594167654752E-06,0.87890625,0,0
-1.07482583189267E-05,7.79088804847561E-06,0.87890625,0,0
-9.51039601204684E-06,1.15229722723598E-05,0.87890625,0,0
3.21032803185517E-06,8.44626447360497E-06,0.87890625,0,0
6.43469547867426E-06,9.77449963102117E-06,0.87890625,0,0
1.38218938445789E-05,8.21418780105887E-06,0.87890625,0,0
1.51619979078532E-05,7.96112453826936E-06,0.87890625,0,0
1.85895805770997E-05,6.61245940136723E-06,0.87890625,0,0
1.83838619705057E-05,8.45655904413434E-06,0.87890625,0,0
1.73575535882264E-05,1.07866917460342E-05,0.87890625,0,0
1.42266908369493E-05,1.15176690087537E-05,0.87890625,0,0
1.10770806713845E-05,1.18661555461586E-05,0.87890625,0,0
9.56842904997757E-06,1.35606487674522E-05,0.87890625,0,0
6.65988909531734E-06,1.7488138837507E-05,0.87890625,0,0
2.61020318248484E-06,1.91673843801254E-05,0.87890625,0,0
-3.76068896912329E-06,1.7500047761132E-05,0.87890625,0,0
-6.6211641751579E-06,1.07189298432786E-05,0.87890625,0,0
-9.11871575226542E-06,4.251945483702E-06,0.87890625,0,0
-1.20484446597402E-05,2.96760617857217E-06,0.87890625,0,0
-1.90485588973388E-05,9.64028913585935E-06,0.87890625,0,0
-2.56218372669537E-05,1.70344919752097E-05,0.87890625,0,0
-3.1874114938546E-05,2.07866396522149E-05,0.87890625,0,0
-3.53414579876699E-05,1.92494590010028E-05,0.87890625,0,0
-3.78725671907887E-05,1.55280176841188E-05,0.87890625,0,0
-3.83045880880672E-05,1.31103433886892E-05,0.87890625,0,0
-3.80868950742297E-05,1.27337743833777E-05,0.87890625,0,0
-3.84517225029413E-05,1.40253996505635E-05,0.87890625,0,0
-4.0632534364704E-05,1.42984499689192E-05,0.87890625,0,0
-3.64485022146255E-05,6.38009032627451E-06,0.87890625,0,0
-5.29494172951672E-05,4.51573941973038E-06,0.87890625,0,0
-4.07696097681765E-05,3.38900463248137E-06,0.87890625,0,0
-5.00486239616293E-05,1.32303139253054E-05,0.87890625,0,0
-4.26151709689293E-05,1.24642965602106E-05,0.87890625,0,0
-4.66906058136374E-05,1.25378110169549E-05,0.87890625,0,0
-4.2561052396195E-05,1.26678678498138E-05,0.87890625,0,0
-4.49062827101443E-05,1.51421072587254E-05,0.87890625,0,0
-4.34584835602436E-05,1.37935148813995E-05,0.87890625,0,0
-4.24195350205991E-05,1.18109646791709E-05,0.87890625,0,0
-4.19259304180741E-05,1.23127520055277E-05,0.87890625,0,0
-4.15357208112255E-05,1.50722362377564E-05,0.87890625,0,0
-4.4277127017267E-05,1.87473924597725E-05,0.87890625,0,0
-4.24501813540701E-05,1.92782736121444E-05,0.87890625,0,0
-4.33326677011792E-05,1.63046242960263E-05,0.87890625,0,0
-4.03593330702279E-05,7.83906943979673E-06,0.87890625,0,0
-4.17518458561972E-05,1.49813456573611E-06,0.87890625,0,0
-4.02919940825086E-05,7.90661545124749E-07,0.87890625,0,0
-4.26340848207474E-05,6.98362418916076E-06,0.87890625,0,0
-3.98562478949316E-05,1.22374131024117E-05,0.87890625,0,0
-3.82527214242145E-05,1.46224374475423E-05,0.87890625,0,0
-3.57809294655453E-05,1.39276171466918E-05,0.87890625,0,0
-3.69176777894609E-05,1.44031027957681E-05,0.87890625,0,0
-3.68818218703382E-05,1.47414666571422E-05,0.87890625,0,0
-3.73974326066673E-05,1.30018015624955E-05,0.87890625,0,0
-3.74572409782559E-05,9.8723412520485E-06,0.87890625,0,0
-3.86733772756998E-05,8.70724852575222E-06,0.87890625,0,0
-3.03881733998423E-05,5.31523119207122E-06,0.87890625,0,0
-4.20759643020574E-05,4.25448934038286E-06,0.87890625,0,0
-3.12606607622001E-05,-4.07080847253383E-07,0.87890625,0,0
-3.84364575438667E-05,1.33562309656554E-06,0.87890625,0,0
-2.93380417133449E-05,1.17157298973325E-07,0.87890625,0,0
-3.03795168292709E-05,2.42352348323038E-06,0.87890625,0,0
-2.47590451181168E-05,3.20334879688744E-06,0.87890625,0,0
-2.69233805738622E-05,5.23917287864606E-06,0.87890625,0,0
-2.74741414614255E-05,7.86227428761777E-06,0.87890625,0,0
-2.91012456727913E-05,9.82695655693533E-06,0.87890625,0,0
-3.0043784136069E-05,9.61754176387331E-06,0.87890625,0,0
-2.76067585218698E-05,7.93538583820919E-06,0.87890625,0,0
-2.69987704086816E-05,7.07050594428438E-06,0.87890625,0,0
-2.48079304583371E-05,6.58016233501257E-06,0.87890625,0,0
-2.66031947830925E-05,7.82417373557109E-06,0.87890625,0,0
-2.36619198403787E-05,9.24992491491139E-06,0.87890625,0,0
-2.31631966016721E-05,1.13060723379022E-05,0.87890625,0,0
-2.0148623661953E-05,1.10279224827536E-05,0.87890625,0,0
-2.21667978621554E-05,1.11602303149994E-05,0.87890625,0,0
-2.2122487280285E-05,1.2022050214E-05,0.87890625,0,0
-2.23044407903217E-05,1.30363941934775E-05,0.87890625,0,0
-1.88343419722514E-05,1.23515783343464E-05,0.87890625,0,0
-1.90608225238975E-05,1.08347740024328E-05,0.87890625,0,0
-1.97683548321947E-05,7.08468814991647E-06,0.87890625,0,0
-1.9894287106581E-05,8.22264780708792E-07,0.87890625,0,0
-1.93996875168523E-05,-5.60132502869237E-06,0.87890625,0,0
-2.03497420443455E-05,-3.89484466722934E-06,0.87890625,0,0
-1.73462140082847E-05,5.20443609275389E-06,0.87890625,0,0
-2.37310105148936E-05,1.37635915962164E-05,0.87890625,0,0
-1.72621803358197E-05,1.67640173458494E-05,0.87890625,0,0
-2.22820435737958E-05,1.52210195665248E-05,0.87890625,0,0
-1.93122432392556E-05,1.34450783662032E-05,0.87890625,0,0
-2.23777005885495E-05,1.3070130989945E-05,0.87890625,0,0
-2.15062118513742E-05,1.03329539342667E-05,0.87890625,0,0
-2.22561920963926E-05,4.8682786655263E-06,0.87890625,0,0
-2.11302485695342E-05,1.37971528602066E-06,0.87890625,0,0
-2.10675534617621E-05,3.68534460903902E-06,0.87890625,0,0
-2.19152516365284E-05,1.00357183328015E-05,0.87890625,0,0
-2.23764218389988E-05,1.57750109792687E-05,0.87890625,0,0
-2.41593625105452E-05,1.93683063116623E-05,0.87890625,0,0
-2.36742180277361E-05,1.94036820175825E-05,0.87890625,0,0
-2.48833748628385E-05,1.75765489984769E-05,0.87890625,0,0
-2.3967846573214E-05,1.68800943356473E-05,0.87890625,0,0
-2.44089351326693E-05,1.92385123227723E-05,0.87890625,0,0
-2.22914914047578E-05,2.16367898246972E-05,0.87890625,0,0
-2.15087493415922E-05,1.93821288121399E-05,0.87890625,0,0
-1.97549870790681E-05,1.04393157016602E-05,0.87890625,0,0
-2.02017236006213E-05,-2.79018217952398E-06,0.87890625,0,0
-1.88626872841269E-05,-1.16747023639618E-05,0.87890625,0,0
-1.66407317010453E-05,-8.36562230688287E-06,0.87890625,0,0
-1.41335140142473E-05,3.0112541935523E-06,0.87890625,0,0
-1.31692486320389E-05,1.33454350361717E-05,0.87890625,0,0
-1.25902415675228E-05,1.8215647287434E-05,0.87890625,0,0
-1.23983409139328E-05,1.73184325831244E-05,0.87890625,0,0
-9.96676862996537E-06,1.19588712550467E-05,0.87890625,0,0
-1.38360737764742E-05,1.5868137779762E-05,0.87890625,0,0
-1.01583527793991E-05,9.97371989797102E-06,0.87890625,0,0
-1.29427353385836E-05,1.05125309346477E-05,0.87890625,0,0
-1.18242960525095E-05,5.90489162277663E-06,0.87890625,0,0
-1.52476841321914E-05,9.53982635110151E-06,0.87890625,0,0
-1.58674920385238E-05,1.1979336704826E-05,0.87890625,0,0
-1.57910835696384E-05,1.56308960868046E-05,0.87890625,0,0
-1.43237512020278E-05,1.57180711539695E-05,0.87890625,0,0
-1.36827939059003E-05,1.67470407177461E-05,0.87890625,0,0
-1.4157442819851E-05,1.88774647540413E-05,0.87890625,0,0
-1.53181499626953E-05,1.9152796085109E-05,0.87890625,0,0
-1.76183712028433E-05,1.84449800144648E-05,0.87890625,0,0
-1.85301796591375E-05,1.61906882567564E-05,0.87890625,0,0
-2.05813776119612E-05,1.67724720085971E-05,0.87890625,0,0
-2.15873569686664E-05,1.58143102453323E-05,0.87890625,0,0
-2.20316087506944E-05,1.31255947053432E-05,0.87890625,0,0
-1.9877870727214E-05,7.27514134268858E-06,0.87890625,0,0
-1.90417085832451E-05,3.31692513100279E-06,0.87890625,0,0
-1.89845031854929E-05,-1.81250049990922E-06,0.87890625,0,0
-2.00670729100239E-05,-3.40287760991487E-06,0.87890625,0,0
-2.07667162612779E-05,2.95273423489562E-07,0.87890625,0,0
-2.23100214498118E-05,7.84305211709579E-06,0.87890625,0,0
-2.35206043726066E-05,1.2923591384606E-05,0.87890625,0,0
-2.46922791120596E-05,1.59629435074748E-05,0.87890625,0,0
-2.56527655437822E-05,1.75882523762994E-05,0.87890625,0,0
-2.64247119048378E-05,1.88188514584908E-05,0.87890625,0,0
-2.0953413695679E-05,1.36036114781746E-05,0.87890625,0,0
-2.90255011350382E-05,1.66025311045814E-05,0.87890625,0,0
-2.15553045563865E-05,7.69001962908078E-06,0.87890625,0,0
-2.76279824902304E-05,7.78417870606063E-06,0.87890625,0,0
-2.24988252739422E-05,1.45473779866734E-06,0.87890625,0,0
-2.38724787777755E-05,2.58829322774545E-06,0.87890625,0,0
-2.07193534151884E-05,2.62947378359968E-06,0.87890625,0,0
-2.16967273445334E-05,6.82237077853642E-06,0.87890625,0,0
-2.01736420422094E-05,8.67152812134009E-06,0.87890625,0,0
-2.01681632461259E-05,9.05609522305895E-06,0.87890625,0,0
-2.16259850276401E-05,9.17569377634209E-06,0.87890625,0,0
-2.18548848351929E-05,8.11906375020044E-06,0.87890625,0,0
-2.23569113586564E-05,7.54378743295092E-06,0.87890625,0,0
-2.06925797101576E-05,5.64641004530131E-06,0.87890625,0,0
-2.25906896957895E-05,6.60104797134409E-06,0.87890625,0,0
-2.33551363635343E-05,9.08206584426807E-06,0.87890625,0,0
-2.57819046964869E-05,1.56171190610621E-05,0.87890625,0,0
-2.47691605181899E-05,1.95293341676006E-05,0.87890625,0,0
-2.55295726674376E-05,2.2405960407923E-05,0.87890625,0,0
-2.39572291320655E-05,2.19940047827549E-05,0.87890625,0,0
-2.36405576288234E-05,2.1064397515147E-05,0.87890625,0,0
-2.22073995246319E-05,1.92923853319371E-05,0.87890625,0,0
-2.19670200749533E-05,1.82079038495431E-05,0.87890625,0,0
-2.04325388040161E-05,1.36233065859415E-05,0.87890625,0,0
-1.99057121790247E-05,6.3946531554393E-06,0.87890625,0,0
-2.05779469979461E-05,2.59144917436061E-06,0.87890625,0,0
-2.33319715334801E-05,5.54910184291657E-06,0.87890625,0,0
-2.16677490243455E-05,8.33866670291172E-06,0.87890625,0,0
-3.14040626108181E-05,1.47949394886382E-05,0.87890625,0,0
-2.50614975811914E-05,1.64575139933731E-05,0.87890625,0,0
-3.11004478135146E-05,1.99886526388582E-05,0.87890625,0,0
-2.63034726231126E-05,1.56491914822254E-05,0.87890625,0,0
-2.93950870400295E-05,1.18282396215363E-05,0.87890625,0,0
-2.84950820059748E-05,9.03410182218067E-06,0.87890625,0,0
-3.03847664326895E-05,9.11333972908324E-06,0.87890625,0,0
-2.89364143100102E-05,7.8946632129373E-06,0.87890625,0,0
-2.66434981313068E-05,3.98087922803825E-06,0.87890625,0,0
-2.42817404796369E-05,9.72468342297361E-07,0.87890625,0,0
-2.10801172215724E-05,4.22205312133883E-06,0.87890625,0,0
-2.01242764887866E-05,1.32635241243406E-05,0.87890625,0,0
-1.85998560482403E-05,2.0158959159744E-05,0.87890625,0,0
-2.13885086850496E-05,2.34223480219953E-05,0.87890625,0,0
-2.27494911086978E-05,2.37905987887643E-05,0.87890625,0,0
-2.56500916293589E-05,2.48122287302976E-05,0.87890625,0,0
-2.60623310168739E-05,2.45504870690638E-05,0.87890625,0,0
-2.88632127194433E-05,2.38384873227915E-05,0.87890625,0,0
-2.8928110623383E-05,2.25901621888625E-05,0.87890625,0,0
-2.82275414065225E-05,2.22561775444774E-05,0.87890625,0,0
-2.46673898800509E-05,1.99519890884403E-05,0.87890625,0,0
-2.25757976295426E-05,1.60922390932683E-05,0.87890625,0,0
-2.20264173549367E-05,1.10603314169566E-05,0.87890625,0,0
-2.37649692280684E-05,6.26338805886917E-06,0.87890625,0,0
-2.45856517722132E-05,4.70296618004795E-06,0.87890625,0,0
-2.49911481660092E-05,5.72636008655536E-06,0.87890625,0,0
-1.96215933101485E-05,5.04168019688223E-06,0.87890625,0,0
-2.66669012489729E-05,7.41949406801723E-06,0.87890625,0,0
-1.97885801753728E-05,7.73997453507036E-06,0.87890625,0,0
-2.60583947238047E-05,8.58242492540739E-06,0.87890625,0,0
-2.20948841160862E-05,4.50260449724738E-06,0.87890625,0,0
-2.58426825894276E-05,6.00748899159953E-06,0.87890625,0,0
-2.47386433329666E-05,7.61317051001242E-06,0.87890625,0,0
-2.64973423327319E-05,9.14915653993376E-06,0.87890625,0,0
-2.66496626863955E-05,1.02472986327484E-05,0.87890625,0,0
-2.61097429756774E-05,1.10497639980167E-05,0.87890625,0,0
-2.40879744524136E-05,8.24998096504714E-06,0.87890625,0,0
-2.0356690583867E-05,2.51432106779248E-06,0.87890625,0,0
-1.86896031664219E-05,-1.58882915002323E-06,0.87890625,0,0
-1.65982746693771E-05,-2.42413648265938E-06,0.87890625,0,0
-1.82586663868278E-05,7.78656271904765E-07,0.87890625,0,0
-1.84739765245467E-05,2.99935913972149E-06,0.87890625,0,0
-2.02630544663407E-05,2.9720188194915E-06,0.87890625,0,0
-1.97249064513016E-05,1.69841609931609E-06,0.87890625,0,0
-2.2023808924132E-05,3.11115695694753E-06,0.87890625,0,0
-2.18202294490766E-05,4.49642175226472E-06,0.87890625,0,0
-2.15755790122785E-05,5.06313426740235E-06,0.87890625,0,0
-1.98601774172857E-05,3.69251142728899E-06,0.87890625,0,0
-2.16898552025668E-05,1.98471980183967E-06,0.87890625,0,0
-2.46281160798389E-05,4.95916594900336E-07,0.87890625,0,0
-2.65299404418329E-05,2.07629909709794E-07,0.87890625,0,0
-2.58367963397177E-05,5.28198370375321E-07,0.87890625,0,0
-2.43279228016036E-05,1.51353458477388E-06,0.87890625,0,0
-2.04278985620476E-05,2.87484431282792E-06,0.87890625,0,0
-3.16518016916234E-05,5.62558307137806E-06,0.87890625,0,0
-2.84768484561937E-05,6.03676971877576E-06,0.87890625,0,0
-3.55157535523176E-05,6.45852287561866E-06,0.87890625,0,0
-3.21848638122901E-05,4.88020396005595E-06,0.87890625,0,0
-3.48580142599531E-05,5.70665588384145E-06,0.87890625,0,0
-3.2349144021282E-05,8.61251737660496E-06,0.87890625,0,0
-3.29942668031435E-05,1.10406899693771E-05,0.87890625,0,0
-3.15621691697743E-05,1.2799283467757E-05,0.87890625,0,0
-3.08254020637833E-05,1.35024201881606E-05,0.87890625,0,0
-3.08048583974596E-05,1.42449671329814E-05,0.87890625,0,0
-3.00730935123283E-05,1.50631394717493E-05,0.87890625,0,0
-3.08668168145232E-05,1.51169169839704E-05,0.87890625,0,0
-2.92713011731394E-05,1.44016921694856E-05,0.87890625,0,0
-3.00821666314732E-05,1.45271860674256E-05,0.87890625,0,0
-3.0636103474535E-05,1.43360348374699E-05,0.87890625,0,0
-3.41528502758592E-05,1.37508595798863E-05,0.87890625,0,0
-3.39693251589779E-05,1.32111008497304E-05,2.8125,0,0
-3.35418844770174E-05,1.29153950183536E-05,2.8125,0,0
-3.09855531668291E-05,1.23083027574467E-05,2.8125,0,0
-3.15975485136732E-05,1.21532493722043E-05,2.8125,0,0
-3.18146885547321E-05,1.40732399813714E-05,2.8125,0,0
-3.20938561344519E-05,1.74568085640203E-05,2.8125,0,0
-3.08852031594142E-05,1.9985185645055E-05,2.8125,0,0
-2.983734884765E-05,1.99215046450263E-05,2.8125,0,0
-2.93298999167746E-05,1.80586321221199E-05,2.8125,0,0
-2.93690372927813E-05,1.63851709658047E-05,2.8125,0,0
-2.28671415243298E-05,1.23615918710129E-05,2.8125,0,0
-3.1201409001369E-05,1.71122246683808E-05,2.8125,0,0
-2.121839679603E-05,1.1997110050288E-05,2.8125,0,0
-2.58045129157836E-05,1.4340776942845E-05,2.8125,0,0
-2.15696636587381E-05,9.99268377199769E-06,2.8125,0,0
-2.53714788414072E-05,1.11261206257041E-05,2.8125,0,0
-2.13011062442092E-05,9.65057097346289E-06,2.8125,0,0
-2.10305679502198E-05,1.05053595689242E-05,2.8125,0,0
-1.9245628209319E-05,1.23060672194697E-05,2.8125,0,0
-1.89844759006519E-05,1.32662580654141E-05,2.8125,0,0
-1.87884525075788E-05,1.14378335638321E-05,2.8125,0,0
-1.7785247109714E-05,8.69563427841058E-06,2.8125,0,0
-1.90504761121701E-05,7.99955432739807E-06,2.8125,0,0
-1.8987924704561E-05,7.67636629461776E-06,2.8125,0,0
-2.164019679185E-05,9.59402859734837E-06,2.8125,0,0
-2.13850053114584E-05,1.0044893315353E-05,2.8125,0,0
-2.3235077605932E-05,1.05878762042266E-05,2.8125,0,0
-2.20134334085742E-05,9.65352683124365E-06,2.8125,0,0
-2.29816923820181E-05,1.03804195532575E-05,2.8125,0,0
-2.27330037887441E-05,9.74904378381325E-06,2.8125,0,0
-2.52830104727764E-05,9.31735485210083E-06,2.8125,0,0
-2.66328042926034E-05,8.02011618361576E-06,2.8125,0,0
-2.81145330518484E-05,8.03625607659342E-06,2.8125,0,0
-2.62170033238363E-05,7.82301685831044E-06,2.8125,0,0
-2.56747534876922E-05,8.15534986031707E-06,2.8125,0,0
-2.61322657024721E-05,7.2911557253974E-06,2.8125,0,0
-2.73637087957468E-05,5.9417338889034E-06,2.8125,0,0
-2.1660403945134E-05,5.06253127241507E-06,2.8125,0,0
-2.81256834568921E-05,6.34418074696441E-06,2.8125,0,0
-1.58500515681226E-05,4.08663117923425E-06,2.8125,0,0
-1.68782007676782E-05,5.73136685488862E-06,2.8125,0,0
-8.26150426291861E-06,5.24978077010019E-06,2.8125,0,0
-8.41112159832846E-06,8.45625618239865E-06,2.8125,0,0
-3.60713124791801E-06,1.078084915207E-05,2.8125,0,0
-4.19555090047652E-06,1.14551357910386E-05,2.8125,0,0
-5.02051580042462E-06,1.06391662484384E-05,2.8125,0,0
-7.00726968716481E-06,1.07081650639884E-05,2.8125,0,0
-9.23327206692193E-06,1.22525652841432E-05,2.8125,0,0
-1.02340509329224E-05,1.29696963995229E-05,2.8125,0,0
-1.20118074846687E-05,1.36243252200074E-05,2.8125,0,0
-1.09997226900305E-05,1.41877362693776E-05,2.8125,0,0
-1.2980406609131E-05,1.51673320942791E-05,2.8125,0,0
-1.39083795147599E-05,1.48193803397589E-05,2.8125,0,0
-1.77576821442926E-05,1.56076384882908E-05,2.8125,0,0
-1.86448687600205E-05,1.73934986378299E-05,2.8125,0,0
-1.99065343622351E-05,2.01308193936711E-05,2.8125,0,0
-1.81545437953901E-05,2.08773635677062E-05,2.8125,0,0
-1.83398951776326E-05,2.03676881938009E-05,2.8125,0,0
-1.61866773851216E-05,1.9845425413223E-05,2.8125,0,0
-1.4547325008607E-05,1.94711246876977E-05,2.8125,0,0
-1.35581622089376E-05,1.80264723894652E-05,2.8125,0,0
-1.50319510794361E-05,1.72199288499542E-05,2.8125,0,0
-1.65396540978691E-05,1.69016784639098E-05,2.8125,0,0
-1.78226091520628E-05,1.48982207974768E-05,2.8125,0,0
-1.51425065268995E-05,9.78960179054411E-06,2.8125,0,0
-2.25027270062128E-05,1.43427960210829E-05,2.8125,0,0
-1.83060910785571E-05,1.26936165543157E-05,2.8125,0,0
-2.19940739043523E-05,1.59482842718717E-05,2.8125,0,0
-1.83753545570653E-05,1.17246117952163E-05,2.8125,0,0
-2.06326021725545E-05,1.04911778180394E-05,2.8125,0,0
-2.17445012822282E-05,6.93539459462045E-06,2.8125,0,0
-2.55890008702409E-05,6.68873553877347E-06,2.8125,0,0
-2.70066466327989E-05,7.2984389589692E-06,2.8125,0,0
-2.7554327971302E-05,7.8734219641774E-06,2.8125,0,0
-2.84022898995318E-05,6.9629445533792E-06,2.8125,0,0
-2.87733382720035E-05,5.16459704158478E-06,2.8125,0,0
-2.98522209050134E-05,6.10059532846208E-06,2.8125,0,0
-2.93446246359963E-05,7.98548171587754E-06,2.8125,0,0
-3.02232710964745E-05,1.06750867416849E-05,2.8125,0,0
-2.97755213978235E-05,1.07208679764881E-05,2.8125,0,0
-3.09668430418242E-05,1.09812681330368E-05,2.8125,0,0
-3.12361589749344E-05,1.08238900793367E-05,2.8125,0,0
-3.37105630023871E-05,1.19795940918266E-05,2.8125,0,0
-3.5206900065532E-05,1.22571227620938E-05,2.8125,0,0
-3.73977418348659E-05,1.36915714392671E-05,2.8125,0,0
-3.74768933397718E-05,1.48648041431443E-05,2.8125,0,0
-3.63264807674568E-05,1.67505804711254E-05,2.8125,0,0
-3.3696458558552E-05,1.7729038518155E-05,2.8125,0,0
-3.25725959555712E-05,1.92587685887702E-05,2.8125,0,0
-3.19639220833778E-05,2.06580425583525E-05,2.8125,0,0
-2.98716931865783E-05,2.15104937524302E-05,2.8125,0,0
-2.05394135264214E-05,1.83631582331145E-05,2.8125,0,0
-2.68743933702353E-05,2.469258288329E-05,2.8125,0,0
-1.66621703101555E-05,1.6154053810169E-05,2.8125,0,0
-2.14758965739748E-05,1.81427640200127E-05,2.8125,0,0
-1.77263027580921E-05,1.12019251901074E-05,2.8125,0,0
-2.10725847864524E-05,1.31332881210255E-05,2.8125,0,0
-1.87107470992487E-05,1.13916375994449E-05,2.8125,0,0
-2.07829780265456E-05,1.29864565678872E-05,2.8125,0,0
-2.14517640415579E-05,1.27314915516763E-05,2.8125,0,0
-2.24123123189202E-05,1.22934652608819E-05,2.8125,0,0
-2.19323173951125E-05,1.14423119157436E-05,2.8125,0,0
-2.01711281988537E-05,1.06820007204078E-05,2.8125,0,0
-2.15455820580246E-05,1.19036521937232E-05,2.8125,0,0
-2.26624688366428E-05,1.086781048798E-05,2.8125,0,0
-2.57599585893331E-05,1.2378544852254E-05,2.8125,0,0
-2.57786032307195E-05,1.10992396002985E-05,2.8125,0,0
-2.79045434581349E-05,9.98926134343492E-06,2.8125,0,0
-2.8020549507346E-05,6.0319157455524E-06,2.8125,0,0
-3.00492811220465E-05,4.97050859848969E-06,2.8125,0,0
-2.81744160020025E-05,2.65276753452781E-06,2.8125,0,0
-2.70446653303225E-05,1.63665845320793E-06,2.8125,0,0
-2.57635874731932E-05,1.13723422145995E-06,2.8125,0,0
-2.56903640547534E-05,3.32842614625406E-06,2.8125,0,0
-2.34827111853519E-05,4.48895252702641E-06,2.8125,0,0
-2.21097216126509E-05,5.83327755521168E-06,2.8125,0,0
-2.12469130929094E-05,4.54796099802479E-06,2.8125,0,0
-2.04348743864102E-05,1.93971209228039E-06,2.8125,0,0
-1.59539140440756E-05,4.7634753030934E-08,2.8125,0,0
-2.26162883336656E-05,-3.08516547420368E-07,2.8125,0,0
-1.87995046871947E-05,7.99820497832116E-07,2.8125,0,0
-2.46902582148323E-05,3.1808458516025E-06,2.8125,0,0
-2.13680068554822E-05,4.18469744545291E-06,2.8125,0,0
-2.31627618632047E-05,1.23144843655609E-06,2.8125,0,0
-2.21722093556309E-05,-2.61219042840821E-06,2.8125,0,0
-2.50167340709595E-05,-1.70928285569971E-06,2.8125,0,0
-2.63201563939219E-05,2.19779462895531E-06,2.8125,0,0
-2.7912801670027E-05,4.27838131145108E-06,2.8125,0,0
-2.8408660000423E-05,3.66035510523943E-06,2.8125,0,0
-2.67912819253979E-05,3.13932218887203E-06,2.8125,0,0
-2.636627323227E-05,4.70443364974926E-06,2.8125,0,0
-2.51434685196728E-05,6.43521570964367E-06,2.8125,0,0
-2.69294741883641E-05,7.32884382159682E-06,2.8125,0,0
-2.76720656984253E-05,7.57011548557784E-06,2.8125,0,0
-2.91386495518964E-05,7.14321231498616E-06,2.8125,0,0
-2.76743830909254E-05,6.05290188104846E-06,2.8125,0,0
-2.7947518901783E-05,5.05027173858252E-06,2.8125,0,0
-2.60603719652863E-05,5.83470819037757E-06,2.8125,0,0
-2.56720031757141E-05,7.86126111051999E-06,2.8125,0,0
-2.5682338673505E-05,7.16794966137968E-06,2.8125,0,0
-2.71362368948758E-05,4.9793907237472E-06,2.8125,0,0
-2.7594656785368E-05,5.04575291415676E-06,2.8125,0,0
-2.87002221739385E-05,5.96944573771907E-06,2.8125,0,0
-2.98919239867246E-05,7.30778765500872E-06,2.8125,0,0
-2.89458057523007E-05,9.08434867596952E-06,2.8125,0,0
-2.15025847865036E-05,7.74268301029224E-06,2.8125,0,0
-2.9137430828996E-05,1.0916946848738E-05,2.8125,0,0
-1.95503871509572E-05,8.57766008266481E-06,2.8125,0,0
-2.27273158088792E-05,1.08976664705551E-05,2.8125,0,0
-1.46542306538322E-05,9.62116155278636E-06,2.8125,0,0
-1.43121387736755E-05,1.16222881842987E-05,2.8125,0,0
-8.8516471805633E-06,1.11084546006168E-05,2.8125,0,0
-7.79669426265173E-06,1.18072430268512E-05,2.8125,0,0
-5.93599452258786E-06,1.09068705569371E-05,2.8125,0,0
-6.3494826463284E-06,9.6085605036933E-06,2.8125,0,0
-8.04852516012033E-06,8.69873383635422E-06,2.8125,0,0
-9.13097665034002E-06,9.30655005504377E-06,2.8125,0,0
-1.20157028504764E-05,1.19227088362095E-05,2.8125,0,0
-1.2710352166323E-05,1.33593457576353E-05,2.8125,0,0
-1.5650699424441E-05,1.50852674778434E-05,2.8125,0,0
-1.67284415510949E-05,1.52084548972198E-05,2.8125,0,0
-2.0700077584479E-05,1.43327215482714E-05,2.8125,0,0
-2.16774024011102E-05,1.24285134006641E-05,2.8125,0,0
-2.34838407777715E-05,1.41873506436241E-05,2.8125,0,0
-2.22835715248948E-05,1.60268500621896E-05,2.8125,0,0
-2.2461556000053E-05,1.56752012117067E-05,2.8125,0,0
-2.29909874178702E-05,1.27992025227286E-05,2.8125,0,0
-2.7929934731219E-05,1.0595234016364E-05,2.8125,0,0
-3.37333112838678E-05,8.87157057150034E-06,2.8125,0,0
-3.83492806577124E-05,8.72481450642226E-06,2.8125,0,0
-3.83406513719819E-05,8.62277192936745E-06,2.8125,0,0
-3.72674512618687E-05,8.93850119609851E-06,2.8125,0,0
-3.03559663734632E-05,8.44821443024557E-06,2.8125,0,0
-4.23685087298509E-05,1.31739743665094E-05,2.8125,0,0
-2.94645542453509E-05,1.26414834085153E-05,2.8125,0,0
-3.3974018151639E-05,1.70639304997167E-05,2.8125,0,0
-2.54919486906147E-05,1.59394785441691E-05,2.8125,0,0
-2.90657426376129E-05,1.6818376025185E-05,2.8125,0,0
-2.54663300438551E-05,1.5904535757727E-05,2.8125,0,0
-2.65727248915937E-05,1.58135972014861E-05,2.8125,0,0
-2.35890565818409E-05,1.56054593389854E-05,2.8125,0,0
-2.15373784158146E-05,1.31733340822393E-05,2.8125,0,0
-2.2407091819332E-05,8.53902565722819E-06,2.8125,0,0
-2.39162927755388E-05,7.25096560927341E-06,2.8125,0,0
-2.7420017431723E-05,1.23133577289991E-05,2.8125,0,0
-2.72237248282181E-05,1.81952582352096E-05,2.8125,0,0
-2.92615113721695E-05,2.22453236347064E-05,2.8125,0,0
-2.66160386672709E-05,2.1582725821645E-05,2.8125,0,0
-2.71959415840684E-05,2.06694567168597E-05,2.8125,0,0
-2.61770128417993E-05,1.99948390218196E-05,2.8125,0,0
-2.98118848149898E-05,1.99996720766649E-05,2.8125,0,0
-3.10081486531999E-05,1.86909510375699E-05,2.8125,0,0
-3.25959736073855E-05,1.7211765225511E-05,2.8125,0,0
-3.00105675705709E-05,1.56770583998878E-05,2.8125,0,0
-2.85811020148685E-05,1.61900679813698E-05,2.8125,0,0
-2.63317742792424E-05,1.55872457980877E-05,2.8125,0,0
-2.50441407843027E-05,1.23532590805553E-05,2.8125,0,0
-2.36432078963844E-05,8.87993883225136E-06,2.8125,0,0
-2.34665858442895E-05,7.84015628596535E-06,2.8125,0,0
-1.97906865651021E-05,6.26926657787408E-06,2.8125,0,0
-3.01151794701582E-05,9.02765714272391E-06,2.8125,0,0
-2.75237307505449E-05,7.86578402767191E-06,2.8125,0,0
-3.44705767929554E-05,8.93924061529106E-06,2.8125,0,0
-2.97842780128121E-05,4.72345573143684E-06,2.8125,0,0
-3.23266904160846E-05,4.34262665294227E-06,2.8125,0,0
-3.13893870043103E-05,3.55048587152851E-06,2.8125,0,0
-3.29953472828493E-05,3.4766389944707E-06,2.8125,0,0
-3.42587009072304E-05,3.15124293592817E-06,2.8125,0,0
-3.62600876542274E-05,2.97406836580194E-06,2.8125,0,0
-3.59259283868596E-05,3.10017571791832E-06,2.8125,0,0
-3.35505828843452E-05,4.05186892749043E-06,2.8125,0,0
-3.41184022545349E-05,6.88756290401216E-06,2.8125,0,0
-3.43345782312099E-05,9.51621859712759E-06,2.8125,0,0
-3.56679265678395E-05,1.19909745990299E-05,2.8125,0,0
-3.35134609485976E-05,1.29275285871699E-05,2.8125,0,0
-3.23480089718942E-05,1.4355915482156E-05,2.8125,0,0
-2.86364684143336E-05,1.50018240674399E-05,2.8125,0,0
-2.68239891738631E-05,1.51023050420918E-05,2.8125,0,0
-2.37557123909937E-05,1.28645660879556E-05,2.8125,0,0
-2.308555849595E-05,1.07710629890789E-05,2.8125,0,0
-2.15415038837818E-05,1.02375797723653E-05,2.8125,0,0
-2.10609232453862E-05,1.13268642962794E-05,2.8125,0,0
-1.89734382729512E-05,1.14039285108447E-05,2.8125,0,0
-1.59851770149544E-05,1.06536035673344E-05,2.8125,0,0
-1.38674267873284E-05,9.55460927798413E-06,2.8125,0,0
-1.28982292153523E-05,8.96376513992436E-06,2.8125,0,0
-7.37820937501965E-06,6.53975939712836E-06,2.8125,0,0
-7.66416815167759E-06,9.6798185040825E-06,2.8125,0,0
-1.95310690287442E-06,8.41358360048616E-06,2.8125,0,0
-2.75878119282424E-06,8.8125534603023E-06,2.8125,0,0
-3.64931821650316E-07,3.96257473767037E-06,2.8125,0,0
-3.41757140631671E-06,4.96091479362804E-06,2.8125,0,0
-6.11072118772427E-06,7.09474852556014E-06,2.8125,0,0
-8.83305438037496E-06,9.21737046155613E-06,2.8125,0,0
-1.06478337329463E-05,9.08693073142786E-06,2.8125,0,0
-1.43654733619769E-05,7.62316904001636E-06,2.8125,0,0
-1.91490271390649E-05,6.77996968079242E-06,2.8125,0,0
-2.3147225874709E-05,6.426355412259E-06,2.8125,0,0
-2.60118613368832E-05,5.7810420912574E-06,2.8125,0,0
-2.5700575861265E-05,3.73265493180952E-06,2.8125,0,0
-2.55902014032472E-05,3.33686443809711E-06,2.8125,0,0
-2.52264908340294E-05,3.230107950003E-06,2.8125,0,0
-2.59519529208774E-05,3.75054401047237E-06,2.8125,0,0
-2.54388432949781E-05,3.78176423510013E-06,2.8125,0,0
-2.53586767939851E-05,4.89837657369208E-06,2.8125,0,0
-2.50710527325282E-05,5.22015216120053E-06,2.8125,0,0
-2.61147324636113E-05,4.84284873891738E-06,2.8125,0,0
-2.63932906818809E-05,4.05358377975062E-06,2.8125,0,0
-2.79263294942211E-05,5.49213609701837E-06,5.44921875,0,0
-2.99644780170638E-05,7.96263884694781E-06,5.44921875,0,0
-3.09048045892268E-05,1.02539916042588E-05,5.44921875,0,0
-3.0893505027052E-05,1.06374409369892E-05,5.44921875,0,0
-3.10082723444793E-05,9.61772002483485E-06,5.44921875,0,0
-2.48760807153303E-05,6.39291010884335E-06,5.44921875,0,0
-3.4794480598066E-05,7.91884758655215E-06,5.44921875,0,0
-2.54922979365801E-05,4.57345458926284E-06,5.44921875,0,0
-3.17635895044077E-05,5.61663409825997E-06,5.44921875,0,0
-2.72759989456972E-05,3.8169055187609E-06,5.44921875,0,0
-3.2593419746263E-05,4.37955850429717E-06,5.44921875,0,0
-3.05872199533042E-05,5.3958467560733E-07,5.44921875,0,0
-3.27206034853589E-05,-4.27471104558208E-06,5.44921875,0,0
-3.26949848385993E-05,-7.87370754551375E-06,5.44921875,0,0
-3.28973837895319E-05,-4.5899555516371E-06,5.44921875,0,0
-3.26616391248535E-05,2.96483790407365E-06,5.44921875,0,0
-3.16723926516715E-05,9.41814960242482E-06,5.44921875,0,0
-3.25881374010351E-05,1.31926199173904E-05,5.44921875,0,0
-3.06359324895311E-05,1.3589200534625E-05,5.44921875,0,0
-3.15578108711634E-05,1.3088282685203E-05,5.44921875,0,0
-3.08177041006275E-05,1.14560971269384E-05,5.44921875,0,0
-3.34301694238093E-05,1.18210264190566E-05,5.44921875,0,0
-3.29533977492247E-05,1.19267342597595E-05,5.44921875,0,0
-3.36931479978375E-05,1.22494075185386E-05,5.44921875,0,0
-3.05150661006337E-05,1.16361188702285E-05,5.44921875,0,0
-2.95180925604654E-05,1.28196752484655E-05,5.44921875,0,0
-2.75944184977561E-05,1.44910809467547E-05,5.44921875,0,0
-2.59170537901809E-05,1.47664632095257E-05,5.44921875,0,0
-2.240063258796E-05,1.30327434817445E-05,5.44921875,0,0
-1.93892155948561E-05,1.14334243335179E-05,5.44921875,0,0
-1.39455005410127E-05,1.05514036476961E-05,5.44921875,0,0
-8.19802062324015E-06,1.14660151666612E-05,5.44921875,0,0
-3.19196828968416E-06,9.39473375183297E-06,5.44921875,0,0
-2.55025042861234E-06,1.25630158436252E-05,5.44921875,0,0
2.3494804679558E-07,9.53819471760653E-06,5.44921875,0,0
6.52759922559198E-07,1.48304734466365E-05,5.44921875,0,0
1.98005795937206E-06,1.67442267411388E-05,5.44921875,0,0
1.17705735647178E-06,2.10120306292083E-05,5.44921875,0,0
1.5174176724031E-06,2.14695755857974E-05,5.44921875,0,0
-2.90873259700675E-07,2.3325543224928E-05,5.44921875,0,0
-2.42099804381724E-06,2.3342374333879E-05,5.44921875,0,0
-3.55379415850621E-06,2.32716665777843E-05,5.44921875,0,0
-3.56995064976218E-06,2.30437399295624E-05,5.44921875,0,0
-3.66895142178691E-06,1.97564550035167E-05,5.44921875,0,0
-4.92905792270903E-06,1.58906896103872E-05,5.44921875,0,0
-6.11249151916127E-06,1.48725885082968E-05,5.44921875,0,0
-8.65246329340152E-06,1.9143168174196E-05,5.44921875,0,0
-1.17082627184573E-05,2.1759393348475E-05,5.44921875,0,0
-1.53174132719869E-05,2.25301046157256E-05,5.44921875,0,0
-1.88083777175052E-05,2.17126653296873E-05,5.44921875,0,0
-2.46371382672805E-05,2.17806082218885E-05,5.44921875,0,0
-3.04870463878615E-05,1.93274045159342E-05,5.44921875,0,0
-3.45059925166424E-05,1.67349844559794E-05,5.44921875,0,0
-3.53522445948329E-05,1.49601919474662E-05,5.44921875,0,0
-3.5066175769316E-05,1.49265970321721E-05,5.44921875,0,0
-3.47424429492094E-05,1.53700511873467E-05,5.44921875,0,0
-3.45627449860331E-05,1.82983185368357E-05,5.44921875,0,0
-3.44114159815945E-05,2.19340345211094E-05,5.44921875,0,0
-3.39508478646167E-05,2.32071652135346E-05,5.44921875,0,0
-2.63575711869635E-05,1.6192128896364E-05,5.44921875,0,0
-3.4834291000152E-05,2.02770970645361E-05,5.44921875,0,0
-2.30344157898799E-05,1.21400198622723E-05,5.44921875,0,0
-3.08616363327019E-05,1.56649020937039E-05,5.44921875,0,0
-2.68213680101326E-05,1.13598316602292E-05,5.44921875,0,0
-3.15376091748476E-05,1.29704731079983E-05,5.44921875,0,0
-2.76432347163791E-05,8.20887998997932E-06,5.44921875,0,0
-2.77568797173444E-05,6.16535589870182E-06,5.44921875,0,0
-2.48642227234086E-05,4.6473592192342E-06,5.44921875,0,0
-2.52303379966179E-05,6.72575288263033E-06,5.44921875,0,0
-2.78123334283009E-05,9.15057535166852E-06,5.44921875,0,0
-2.79243977274746E-05,1.02492285805056E-05,5.44921875,0,0
-2.75010770565132E-05,1.10550417957711E-05,5.44921875,0,0
-2.31444992095931E-05,9.00330360309454E-06,5.44921875,0,0
-2.33181672228966E-05,9.73977330431808E-06,5.44921875,0,0
-2.22651779040461E-05,8.52842276799493E-06,5.44921875,0,0
-2.39677610807121E-05,8.14309714769479E-06,5.44921875,0,0
-2.15990949072875E-05,6.5916665334953E-06,5.44921875,0,0
-2.23612169065746E-05,7.91176535130944E-06,5.44921875,0,0
-2.25740113819484E-05,7.08135758031858E-06,5.44921875,0,0
-2.60715823969804E-05,7.83252198743867E-06,5.44921875,0,0
-2.72444958682172E-05,7.11269422026817E-06,5.44921875,0,0
-2.81832144537475E-05,6.55767826174269E-06,5.44921875,0,0
-2.53279195021605E-05,5.61778688279446E-06,5.44921875,0,0
-2.24809173232643E-05,7.12057590135373E-06,5.44921875,0,0
-2.01199272851227E-05,7.81884591560811E-06,5.44921875,0,0
-2.03896197490394E-05,5.97221151110716E-06,5.44921875,0,0
-2.06073164008558E-05,3.99513646698324E-06,5.44921875,0,0
-3.41674676747061E-05,5.03794080941589E-06,5.44921875,0,0
-3.2864511013031E-05,2.54922656495182E-06,5.44921875,0,0
-3.97261283069383E-05,2.1972753074806E-06,5.44921875,0,0
-3.76335010514595E-05,1.48897254348412E-06,5.44921875,0,0
-4.07743937103078E-05,2.65646553998522E-06,5.44921875,0,0
-3.89831839129329E-05,1.93342793863849E-06,5.44921875,0,0
-3.9672424463788E-05,8.65856179643743E-07,5.44921875,0,0
-3.81974969059229E-05,7.56497001930256E-07,5.44921875,0,0
-3.59030091203749E-05,2.24190716835437E-06,5.44921875,0,0
-3.29275280819274E-05,2.97994529319112E-06,5.44921875,0,0
-2.97832157230005E-05,3.03065121443069E-06,5.44921875,0,0
-2.9328148229979E-05,3.7443012388394E-06,5.44921875,0,0
-2.78476200037403E-05,4.9309101086692E-06,5.44921875,0,0
-2.80709864455275E-05,6.37654375168495E-06,5.44921875,0,0
-2.5657596779638E-05,5.84349800192285E-06,5.44921875,0,0
-2.43681060965173E-05,5.18857223141822E-06,5.44921875,0,0
-2.01682632905431E-05,4.43339376943186E-06,5.44921875,0,0
-1.67618800333003E-05,4.60440833194298E-06,5.44921875,0,0
-1.20428421723773E-05,5.74138903175481E-06,5.44921875,0,0
-1.0843974450836E-05,8.61560874909628E-06,5.44921875,0,0
-1.0897947504418E-05,1.05501112557249E-05,5.44921875,0,0
-1.24157650134293E-05,1.10832743303035E-05,5.44921875,0,0
-1.09403390524676E-05,9.90217631624546E-06,5.44921875,0,0
-8.58915063872701E-06,8.90333103598095E-06,5.44921875,0,0
-6.97722316544969E-06,1.01937448562239E-05,5.44921875,0,0
-6.17212344877771E-06,1.32440491142916E-05,5.44921875,0,0
-4.80150174553273E-06,1.37397701109876E-05,5.44921875,0,0
-7.26385542293428E-06,2.11325568670873E-05,5.44921875,0,0
-6.71825637255097E-06,1.66727550094947E-05,5.44921875,0,0
-9.82599340204615E-06,1.93486321222736E-05,5.44921875,0,0
-1.24177840916673E-05,1.78926256921841E-05,5.44921875,0,0
-1.65798846865073E-05,2.11421356652863E-05,5.44921875,0,0
-1.87449441000354E-05,1.83651009137975E-05,5.44921875,0,0
-2.07064767892007E-05,1.38684599733097E-05,5.44921875,0,0
-2.30868736252887E-05,1.03804513855721E-05,5.44921875,0,0
-2.63477322732797E-05,1.18263124022633E-05,5.44921875,0,0
-2.7514553949004E-05,1.47660330185317E-05,5.44921875,0,0
-2.56993553193752E-05,1.43479355756426E-05,5.44921875,0,0
-2.34446215472417E-05,1.18309590106946E-05,5.44921875,0,0
-2.09820300369756E-05,8.28822339826729E-06,5.44921875,0,0
-1.89978291018633E-05,6.96243114362005E-06,5.44921875,0,0
-1.72841155290371E-05,4.61480522062629E-06,5.44921875,0,0
-1.70198254636489E-05,3.51447783941694E-06,5.44921875,0,0
-1.73364933289122E-05,2.46221043198602E-06,5.44921875,0,0
-1.98398684005952E-05,4.15056274505332E-06,5.44921875,0,0
-2.28686112677678E-05,3.84817303711316E-06,5.44921875,0,0
-2.61670556938043E-05,2.18442596633395E-06,5.44921875,0,0
-2.93995635729516E-05,-1.13664997414276E-08,5.44921875,0,0
-3.27960042341147E-05,4.60526791812299E-07,5.44921875,0,0
-3.53639625245705E-05,2.18383797800925E-06,5.44921875,0,0
-3.77809883502778E-05,5.30686565980432E-06,5.44921875,0,0
-3.99954406020697E-05,7.68940481066238E-06,5.44921875,0,0
-4.10983702749945E-05,8.91457420948427E-06,5.44921875,0,0
-3.2332660339307E-05,7.51280094846152E-06,5.44921875,0,0
-4.52069252787624E-05,1.14077383841504E-05,5.44921875,0,0
-3.11657931888476E-05,1.00403576652752E-05,5.44921875,0,0
-3.55373595084529E-05,1.12542857095832E-05,5.44921875,0,0
-2.52355803240789E-05,8.71948486746987E-06,5.44921875,0,0
-2.84077741525834E-05,9.9236922324053E-06,5.44921875,0,0
-2.36764699366177E-05,8.01636997493915E-06,5.44921875,0,0
-2.30659261433175E-05,7.7518943726318E-06,5.44921875,0,0
-2.01465936697787E-05,9.52304344536969E-06,5.44921875,0,0
-2.21358950511785E-05,1.15654520413955E-05,5.44921875,0,0
-2.63398014794802E-05,1.31688257170026E-05,5.44921875,0,0
-2.76587616099278E-05,1.3609502275358E-05,5.44921875,0,0
-2.82404798781499E-05,1.3503422451322E-05,5.44921875,0,0
-2.56306648225291E-05,1.18288216981455E-05,5.44921875,0,0
-2.80185904557584E-05,1.1720812835847E-05,5.44921875,0,0
-2.84589204966323E-05,1.15743559945258E-05,5.44921875,0,0
-3.24151405948214E-05,1.14661015686579E-05,5.44921875,0,0
-3.14676581183448E-05,1.02252388387569E-05,5.44921875,0,0
-3.26076478813775E-05,1.02124458862818E-05,5.44921875,0,0
-3.05150715576019E-05,1.10730388769298E-05,5.44921875,0,0
-3.14493154291995E-05,1.42009521368891E-05,5.44921875,0,0
-3.02675725833979E-05,1.58153798111016E-05,5.44921875,0,0
-3.05518406094052E-05,1.53947839862667E-05,5.44921875,0,0
-3.00627852993784E-05,1.38025561682298E-05,5.44921875,0,0
-3.10278664983343E-05,1.38378154588281E-05,5.44921875,0,0
-3.04046352539444E-05,1.65128622029442E-05,5.44921875,0,0
-3.08871676679701E-05,1.90742484846851E-05,5.44921875,0,0
-2.54910046351142E-05,1.50837986439001E-05,5.44921875,0,0
-3.53659161191899E-05,2.03263498406159E-05,5.44921875,0,0
-2.49492131842999E-05,1.31049218907719E-05,8.7890625,0,0
-3.01641357509652E-05,1.52164020619239E-05,8.7890625,0,0
-2.27259479288477E-05,1.07221785583533E-05,8.7890625,0,0
-2.370211041125E-05,1.23438248920138E-05,8.7890625,0,0
-2.25800758926198E-05,1.04624987216084E-05,8.7890625,0,0
-2.82789496850455E-05,1.15840202852269E-05,8.7890625,0,0
-3.12263764499221E-05,1.12579919004929E-05,8.7890625,0,0
-3.37085803039372E-05,1.24258504001773E-05,8.7890625,0,0
-3.55101983586792E-05,1.36954822664848E-05,8.7890625,0,0
-3.53705581801478E-05,1.47372265928425E-05,8.7890625,0,0
-3.61220991180744E-05,1.67646248883102E-05,8.7890625,0,0
-3.40012957167346E-05,1.66809732036199E-05,8.7890625,0,0
-3.50360496668145E-05,1.82513213076163E-05,8.7890625,0,0
-3.41496852342971E-05,1.84586042450974E-05,8.7890625,0,0
-3.49218498740811E-05,1.97330809896812E-05,8.7890625,0,0
-3.10947216348723E-05,1.7877209756989E-05,8.7890625,0,0
-2.93560005957261E-05,1.70230377989355E-05,8.7890625,0,0
-2.59389507846208E-05,1.62790820468217E-05,8.7890625,0,0
-2.46291165240109E-05,1.80170263774926E-05,8.7890625,0,0
-2.16496555367485E-05,1.68275164469378E-05,8.7890625,0,0
-2.1152929548407E-05,1.53421788127162E-05,8.7890625,0,0
-2.05350279429695E-05,1.36457520056865E-05,8.7890625,0,0
-2.07725024665706E-05,1.31297492771409E-05,8.7890625,0,0
-2.14455594687024E-05,1.24391881399788E-05,8.7890625,0,0
-2.26558386202669E-05,1.19266733236145E-05,8.7890625,0,0
-1.84031268872786E-05,9.82561323326081E-06,8.7890625,0,0
-2.53126090683509E-05,1.43041324918158E-05,8.7890625,0,0
-1.89145266631385E-05,1.13417163447593E-05,8.7890625,0,0
-2.36878731811885E-05,1.39547755679814E-05,8.7890625,0,0
-1.91320323210675E-05,1.26103659567889E-05,8.7890625,0,0
-2.11315928027034E-05,1.55450215970632E-05,8.7890625,0,0
-1.83774136530701E-05,1.64454304467654E-05,8.7890625,0,0
-1.91939579963218E-05,1.72010786627652E-05,8.7890625,0,0
-1.86531706276583E-05,1.59054943651427E-05,8.7890625,0,0
-2.00199319806416E-05,1.49137213156791E-05,8.7890625,0,0
-2.20501970034093E-05,1.42888638947625E-05,8.7890625,0,0
-2.18768946069758E-05,1.299834184465E-05,8.7890625,0,0
-2.18335480894893E-05,1.25055339594837E-05,8.7890625,0,0
-1.98544239538023E-05,1.13876294562942E-05,8.7890625,0,0
-2.08427754841978E-05,1.1576941687963E-05,8.7890625,0,0
-2.03750478249276E-05,1.15710481622955E-05,8.7890625,0,0
-2.11718124774052E-05,1.30241096485406E-05,8.7890625,0,0
-1.83651009137975E-05,1.32278764795046E-05,8.7890625,0,0
-1.67480338859605E-05,1.41011159939808E-05,8.7890625,0,0
-1.42458457048633E-05,1.32144987219363E-05,8.7890625,0,0
-1.51073254528455E-05,1.13457808765816E-05,8.7890625,0,0
-1.63872882694704E-05,8.4089870142634E-06,8.7890625,0,0
-1.95149204955669E-05,6.35082051303471E-06,8.7890625,0,0
-2.14050251088338E-05,5.28661212229053E-06,8.7890625,0,0
-2.22499384108232E-05,6.55429539619945E-06,8.7890625,0,0
-2.31966441788245E-05,6.51632763037924E-06,8.7890625,0,0
-2.74101403192617E-05,3.71870964954724E-06,8.7890625,0,0
-2.81913962680846E-05,7.05716331594886E-07,8.7890625,0,0
-4.24115896748845E-05,1.470635993428E-06,8.7890625,0,0
-3.29699578287546E-05,2.28084218178992E-06,8.7890625,0,0
-3.68623877875507E-05,2.50912671617698E-06,8.7890625,0,0
-2.81685752270278E-05,3.29397880705073E-06,8.7890625,0,0
-2.87979946733685E-05,5.86754867981654E-06,8.7890625,0,0
-2.50260436587268E-05,7.46072055335389E-06,8.7890625,0,0
-2.60987071669661E-05,8.23232676339103E-06,8.7890625,0,0
-2.46480340138078E-05,8.5942247096682E-06,8.7890625,0,0
-2.39251348830294E-05,8.09040102467407E-06,8.7890625,0,0
-2.3380354832625E-05,7.26054759070394E-06,8.7890625,0,0
-2.13284874917008E-05,7.29720613890095E-06,8.7890625,0,0
-2.1150382963242E-05,7.71713166614063E-06,8.7890625,0,0
-1.90555838344153E-05,7.87117187428521E-06,8.7890625,0,0
-2.04824245884083E-05,7.58177020543371E-06,8.7890625,0,0
-1.87684454431292E-05,6.37819402982132E-06,8.7890625,0,0
-1.84820928552654E-05,5.11224243382458E-06,8.7890625,0,0
-1.42800690809963E-05,4.60734099760884E-06,8.7890625,0,0
-1.18025691335788E-05,4.3971995182801E-06,8.7890625,0,0
-6.48765580990585E-06,3.95095867133932E-06,8.7890625,0,0
-3.23473341268254E-06,4.30189129474456E-06,8.7890625,0,0
1.32042805489618E-06,4.64773938801955E-06,8.7890625,0,0
5.2859263632854E-06,4.18055606132839E-06,8.7890625,0,0
1.22359251690796E-05,5.11996631757938E-06,8.7890625,0,0
1.85504395631142E-05,8.00930865807459E-06,8.7890625,0,0
2.13237199204741E-05,1.11640938484925E-05,8.7890625,0,0
1.98833222384565E-05,1.51790782183525E-05,8.7890625,0,0
1.34933652589098E-05,1.56328806042438E-05,8.7890625,0,0
1.86850502359448E-05,2.54341612162534E-05,8.7890625,0,0
1.31032738863723E-05,2.35436855291482E-05,8.7890625,0,0
1.57951490109554E-05,2.82331402559066E-05,8.7890625,0,0
9.99617077468429E-06,2.59290518442867E-05,8.7890625,0,0
9.59583394433139E-06,2.87432067125337E-05,8.7890625,0,0
4.68415828436264E-06,2.60818032984389E-05,8.7890625,0,0
1.38424923079583E-06,2.44876628130442E-05,8.7890625,0,0
-4.15724389313255E-06,2.27986547542969E-05,8.7890625,0,0
-9.47173066379037E-06,2.20614438148914E-05,8.7890625,0,0
-1.49676143337274E-05,2.05832602659939E-05,8.7890625,0,0
-2.11932438105578E-05,1.73905718838796E-05,8.7890625,0,0
-2.60631459241267E-05,1.5643645383534E-05,8.7890625,0,0
-3.21023690048605E-05,1.40396414280985E-05,8.7890625,0,0
-3.71735914086457E-05,1.41490700116265E-05,8.7890625,0,0
-4.27377090090886E-05,1.22303536045365E-05,8.7890625,0,0
-4.55090666946489E-05,1.10012351797195E-05,8.7890625,0,0
-5.0893155275844E-05,8.32548175822012E-06,8.7890625,0,0
-5.562805745285E-05,8.11056179372827E-06,8.7890625,0,0
-5.9993803006364E-05,7.05837555869948E-06,8.7890625,0,0
-6.14514719927683E-05,6.70810550218448E-06,8.7890625,0,0
-6.2685867305845E-05,5.7838892644213E-06,8.7890625,0,0
-6.17014811723493E-05,6.69030805511284E-06,8.7890625,0,0
-6.12115327385254E-05,7.68804602557793E-06,8.7890625,0,0
-6.16007600910962E-05,8.18664102553157E-06,8.7890625,0,0
-6.24840176897123E-05,6.43345720163779E-06,8.7890625,0,0
-6.02038817305584E-05,4.21824097429635E-06,8.7890625,0,0
-4.32703345722985E-05,3.44212912750663E-06,8.7890625,0,0
-5.70281117688864E-05,4.66624214823241E-06,8.7890625,0,0
-3.56506971002091E-05,3.41052009389387E-06,8.7890625,0,0
-4.25769576395396E-05,3.96790983359097E-06,8.7890625,0,0
-2.57433548540575E-05,3.23546919389628E-06,8.7890625,0,0
-2.53513280767947E-05,3.27731845572998E-06,8.7890625,0,0
-1.51773847392178E-05,1.61081686655962E-06,8.7890625,0,0
-1.48915742101963E-05,3.44356408277235E-07,8.7890625,0,0
-9.7008978627855E-06,-4.85602811295394E-07,8.7890625,0,0
-6.0023680816812E-06,-1.89526122085226E-06,8.7890625,0,0
-2.29811462304497E-06,-3.64184847967408E-06,8.7890625,0,0
2.74660055765708E-06,-4.5078227230988E-06,8.7890625,0,0
2.86310864794359E-06,-3.99643249693327E-06,8.7890625,0,0
4.3431050471554E-06,-1.63331696967361E-06,8.7890625,0,0
-1.68317865245626E-06,3.19099240186915E-06,8.7890625,0,0
-3.62109994966886E-06,7.06851233189809E-06,8.7890625,0,0
-1.00516854217858E-05,9.7847723736777E-06,8.7890625,0,0
-1.17480230983347E-05,1.19373898996855E-05,8.7890625,0,0
-1.84614837053232E-05,1.54982426465722E-05,8.7890625,0,0
-2.01967977773165E-05,1.89038782991702E-05,8.7890625,0,0
-2.45607825490879E-05,2.04777807084611E-05,8.7890625,0,0
-2.54813658102648E-05,1.85594981303439E-05,8.7890625,0,0
-2.90350053546717E-05,1.51239028127748E-05,8.7890625,0,0
-3.00040555885062E-05,1.32490195028367E-05,8.7890625,0,0
-3.16929836117197E-05,1.44445502883173E-05,8.7890625,0,0
-3.24836109939497E-05,1.63927907124162E-05,8.7890625,0,0
-3.50623558915686E-05,1.58948496391531E-05,8.7890625,0,0
-3.04212062474107E-05,1.00578508863691E-05,8.7890625,0,0
-4.36182126577478E-05,1.39452067742241E-05,8.7890625,0,0
-3.35884651576635E-05,1.09529491965077E-05,8.7890625,0,0
-4.1411225538468E-05,1.39795793074882E-05,8.7890625,0,0
-3.67955435649492E-05,1.08585099951597E-05,8.7890625,0,0
-4.24611353082582E-05,1.26706891023787E-05,8.7890625,0,0
-3.9599122828804E-05,1.23144818644505E-05,8.7890625,0,0
-4.02038676838856E-05,1.16479295684258E-05,8.7890625,0,0
-3.88515545637347E-05,8.71737483976176E-06,8.7890625,0,0
-4.07680599892046E-05,7.3074415922747E-06,8.7890625,0,0
-4.37771268479992E-05,6.62999309497536E-06,8.7890625,0,0
-4.45631958427839E-05,4.80688413517782E-06,8.7890625,0,0
-4.66170677100308E-05,2.61223453890125E-06,8.7890625,0,0
-4.49814797320869E-05,7.27234521491482E-07,8.7890625,0,0
-4.61927666037809E-05,2.4986841253849E-06,8.7890625,0,0
-4.43863209511619E-05,4.36578420703881E-06,8.7890625,0,0
-4.54947694379371E-05,6.62100137560628E-06,8.7890625,0,0
-4.2122119339183E-05,6.40277630736819E-06,8.7890625,0,0
-4.15364047512412E-05,6.79671666148352E-06,8.7890625,0,0
-3.91571593354456E-05,6.16135912423488E-06,8.7890625,0,0
-3.92060683225282E-05,6.2661256379215E-06,8.7890625,0,0
-3.6896006349707E-05,6.51740992907435E-06,8.7890625,0,0
-3.53543509845622E-05,7.67563687986694E-06,8.7890625,0,0
-3.15609286190011E-05,5.92674405197613E-06,8.7890625,0,0
-2.85676742350915E-05,3.77717515220866E-06,8.7890625,0,0
