biceps_emg, triceps_emg, subject_position, position_estimate, brace_position
-2.51978726737434E-05,9.43756822380237E-06,1.23046875,0,0
-2.41475390794221E-05,8.74982379173161E-06,1.23046875,0,0
-2.51724650297547E-05,6.95587004884146E-06,1.23046875,0,0
-2.59047701547388E-05,5.5997470553848E-06,1.23046875,0,0
-2.7096346457256E-05,8.36705476103816E-06,1.23046875,0,0
-2.59759635810042E-05,1.01366167655215E-05,1.23046875,0,0
-2.68834646703908E-05,1.20919785331353E-05,1.23046875,0,0
-2.72679280897137E-05,1.18514317364316E-05,1.23046875,0,0
-2.86788854282349E-05,1.20687782327877E-05,1.23046875,0,0
-2.8838136131526E-05,1.10822029455449E-05,1.23046875,0,0
-2.96474008791847E-05,1.15893153633806E-05,1.23046875,0,0
-2.96376310870983E-05,1.33399726109928E-05,1.23046875,0,0
-3.06527581415139E-05,1.68322985700797E-05,1.23046875,0,0
-3.15392899210565E-05,1.82286275958177E-05,1.23046875,0,0
-3.199520506314E-05,1.67712059919722E-05,1.23046875,0,0
-3.16708792524878E-05,1.41828722917126E-05,1.23046875,0,0
-3.15847610181663E-05,1.38503119160305E-05,1.23046875,0,0
-2.51665242103627E-05,8.57651320984587E-06,1.23046875,0,0
-3.52952192770317E-05,7.32844137019129E-06,1.23046875,0,0
-2.65013932221336E-05,-1.78784802074006E-07,1.23046875,0,0
-3.38693389494438E-05,3.53775408257206E-06,1.23046875,0,0
-2.8183496397105E-05,3.88669150197529E-06,1.23046875,0,0
-3.04816858260892E-05,9.14470183488447E-06,1.23046875,0,0
-2.65187627519481E-05,1.11350909719476E-05,1.23046875,0,0
-2.68083986156853E-05,1.31038286781404E-05,1.23046875,0,0
-2.47622429014882E-05,1.32316790768527E-05,1.23046875,0,0
-2.41936177189928E-05,1.27258399515995E-05,1.23046875,0,0
-2.48618289333535E-05,1.16032997539151E-05,1.23046875,0,0
-2.40171393670607E-05,9.84749385679606E-06,1.23046875,0,0
-2.4554179617553E-05,9.07015964912716E-06,1.23046875,0,0
-2.26264510274632E-05,7.18050750947441E-06,1.23046875,0,0
-2.38200591411442E-05,7.57706220610999E-06,1.23046875,0,0
-2.28757817239966E-05,7.08504239810281E-06,1.23046875,0,0
-2.47027946898015E-05,6.89397802489111E-06,1.23046875,0,0
-2.34592280321522E-05,6.334506906569E-06,1.23046875,0,0
-2.44515667873202E-05,7.40838049750892E-06,1.23046875,0,0
-2.33702539844671E-05,8.08389722806169E-06,1.23046875,0,0
-2.39009386859834E-05,1.02502517620451E-05,1.23046875,0,0
-2.2694297513226E-05,1.12486895886832E-05,1.23046875,0,0
-2.27537984756054E-05,1.23768422781723E-05,1.23046875,0,0
-2.17277811316308E-05,1.29193813336315E-05,1.23046875,0,0
-2.14043466257863E-05,1.35700565806474E-05,1.23046875,0,0
-2.01913262571907E-05,1.37428878588253E-05,1.23046875,0,0
-1.97463687072741E-05,1.30123034978169E-05,1.23046875,0,0
-1.74674914887873E-05,9.94509173324332E-06,1.23046875,0,0
-2.51221663347678E-05,1.33312005345942E-05,1.23046875,0,0
-2.00001650227932E-05,1.01339883258333E-05,1.23046875,0,0
-2.63610199908726E-05,1.22790079331025E-05,1.23046875,0,0
-2.54159003816312E-05,8.37977131595835E-06,1.23046875,0,0
-2.74317717412487E-05,1.15223101602169E-05,1.23046875,0,0
-2.26770989684155E-05,1.2287085155549E-05,1.23046875,0,0
-2.10606758628273E-05,1.22635456136777E-05,1.23046875,0,0
-2.0313684217399E-05,9.94599031400867E-06,1.23046875,0,0
-2.15256241062889E-05,6.91237755745533E-06,1.23046875,0,0
-2.23858696699608E-05,4.95273661726969E-06,1.23046875,0,0
-2.10883063118672E-05,4.47139473180869E-06,1.23046875,0,0
-2.06605473067611E-05,3.80007850253605E-06,1.23046875,0,0
-2.01404454855947E-05,-1.32904551719548E-06,1.23046875,0,0
-2.30189907597378E-05,-4.75854176329449E-06,1.23046875,0,0
-2.35563129535876E-05,-4.53284337709192E-06,1.23046875,0,0
-2.44252587435767E-05,1.8275666207046E-06,1.23046875,0,0
-2.3140180928749E-05,8.11449172033463E-06,1.23046875,0,0
-2.4391119950451E-05,1.17066147140577E-05,1.23046875,0,0
-2.48373180511408E-05,9.32552939048037E-06,1.23046875,0,0
-2.64885602518916E-05,5.36799507244723E-06,1.23046875,0,0
-2.70204473054037E-05,2.83736449091521E-06,1.23046875,0,0
-2.89524959953269E-05,5.0110911615775E-06,1.23046875,0,0
-2.9842460207874E-05,8.03689999884227E-06,1.23046875,0,0
-2.98358518193709E-05,9.89022009889595E-06,1.23046875,0,0
-2.7973224860034E-05,1.03235088317888E-05,1.23046875,0,0
-2.60957040154608E-05,7.32655689716921E-06,1.23046875,0,0
-2.08331475732848E-05,-4.90169304612209E-06,1.23046875,0,0
-3.05263165500946E-05,-1.62952146638418E-05,1.23046875,0,0
-2.37768217630219E-05,-1.97615117940586E-05,1.23046875,0,0
-2.8582911909325E-05,-1.08930653368589E-05,1.23046875,0,0
-2.59587977780029E-05,1.11950532755145E-06,1.23046875,0,0
-3.15983779728413E-05,1.00911747722421E-05,1.23046875,0,0
-3.05217472487129E-05,1.32854993353249E-05,1.23046875,0,0
-2.99899893434485E-05,1.30914340843447E-05,1.23046875,0,0
-2.65979779214831E-05,1.17970294013503E-05,1.23046875,0,0
-2.53242506005336E-05,1.10964874693309E-05,1.23046875,0,0
-2.5746043320396E-05,1.08436352093122E-05,1.23046875,0,0
-2.60025190073065E-05,1.2523391887953E-05,1.23046875,0,0
-2.69133488473017E-05,1.51268422996509E-05,1.23046875,0,0
-2.56653365795501E-05,1.69880713656312E-05,1.23046875,0,0
-2.75925085588824E-05,1.57265003508655E-05,1.23046875,0,0
-2.83601893897867E-05,1.17527515612892E-05,1.23046875,0,0
-3.04064014926553E-05,9.34307172428817E-06,1.23046875,0,0
-2.84089019260136E-05,1.19763371912995E-05,1.23046875,0,0
-2.77489216387039E-05,1.87880959856557E-05,1.23046875,0,0
-2.64421942119952E-05,2.43264094024198E-05,1.23046875,0,0
-2.80825297522824E-05,2.60709384747315E-05,1.23046875,0,0
-2.83050248981453E-05,2.483201387804E-05,1.23046875,0,0
-2.89399140456226E-05,2.33702612604247E-05,1.23046875,0,0
-2.90013158519287E-05,2.30606965487823E-05,1.23046875,0,0
-3.00218580377987E-05,2.39800847339211E-05,1.23046875,0,0
-2.87438815576024E-05,2.60926735791145E-05,1.23046875,0,0
-2.6833486117539E-05,2.73074492724845E-05,1.23046875,0,0
-2.08427609322825E-05,2.05068954528542E-05,1.23046875,0,0
-3.01222589769168E-05,2.69042502623051E-05,1.23046875,0,0
-2.42258829530329E-05,1.72680738614872E-05,1.23046875,0,0
-2.92688819172326E-05,2.14705305552343E-05,1.23046875,0,0
-2.25840485654771E-05,1.58084876602516E-05,1.23046875,0,0
-2.35567167692352E-05,1.89175862033153E-05,1.23046875,0,0
-2.04236512217904E-05,1.53445162140997E-05,1.23046875,0,0
-2.14090523513732E-05,1.44964069477282E-05,1.23046875,0,0
-2.08450765057933E-05,1.31167844301672E-05,1.23046875,0,0
-2.16144471778534E-05,1.46149632200832E-05,1.23046875,0,0
-2.28194003284443E-05,1.39046287586098E-05,1.23046875,0,0
-2.19834455492673E-05,5.90649915466201E-06,1.23046875,0,0
-2.24362720473437E-05,-2.62270191342395E-06,1.23046875,0,0
-2.0741632397403E-05,-6.21673052592087E-06,1.23046875,0,0
-2.0872557797702E-05,1.04826131064328E-06,1.23046875,0,0
-1.81349951162701E-05,7.46138539398089E-06,1.23046875,0,0
-1.75048371602315E-05,1.22583142001531E-05,1.23046875,0,0
-1.56666410475736E-05,1.15801540232496E-05,1.23046875,0,0
-1.65359597303905E-05,1.16939127110527E-05,1.23046875,0,0
-1.49150855577318E-05,1.02375997812487E-05,1.23046875,0,0
-1.44377772812732E-05,1.14685690277838E-05,1.23046875,0,0
-1.37114484459744E-05,1.02530111689703E-05,1.23046875,0,0
-1.53058299474651E-05,1.01752339105587E-05,1.23046875,0,0
-1.57079830387374E-05,9.00998020370025E-06,1.23046875,0,0
-1.52820830408018E-05,7.96640415501315E-06,1.23046875,0,0
-1.49821444210829E-05,6.64509161651949E-06,1.23046875,0,0
-1.67930193128996E-05,6.7183773353463E-06,1.23046875,0,0
-1.65029832714936E-05,7.53988297219621E-06,1.23046875,0,0
-2.33836635743501E-05,1.2168059583928E-05,1.23046875,0,0
-1.61076768563362E-05,9.82301025942434E-06,1.23046875,0,0
-1.74742563103791E-05,1.06566503745853E-05,1.23046875,0,0
-1.32787363327225E-05,1.14294998638798E-05,1.23046875,0,0
-1.69404702319298E-05,1.53241908265045E-05,1.23046875,0,0
-1.65646251844009E-05,1.61034040502273E-05,1.23046875,0,0
-1.72619384102291E-05,1.40642787300749E-05,1.23046875,0,0
-1.71708306879736E-05,1.04868495327537E-05,1.23046875,0,0
-1.94072490558028E-05,7.414298124786E-06,1.23046875,0,0
-2.31821813940769E-05,5.87724343859009E-06,1.23046875,0,0
-2.48672913585324E-05,7.82264123699861E-06,1.23046875,0,0
-2.56022522080457E-05,1.22261826618342E-05,1.23046875,0,0
-2.39028086070903E-05,1.43777970151859E-05,1.23046875,0,0
-2.48035976255778E-05,1.47139890032122E-05,1.23046875,0,0
-2.54952865361702E-05,1.30585840452113E-05,1.23046875,0,0
-2.78926418104675E-05,1.14088215923402E-05,1.23046875,0,0
-2.74432641163003E-05,9.39643359743059E-06,1.23046875,0,0
-2.82205146504566E-05,8.93802916834829E-06,1.23046875,0,0
-2.82611963484669E-05,8.79399976838613E-06,1.23046875,0,0
-2.96472862828523E-05,1.01810774140176E-05,1.23046875,0,0
-2.93937937385635E-05,1.13896257971646E-05,1.23046875,0,0
-2.90042953565717E-05,1.16469127533492E-05,1.23046875,0,0
-2.7390295144869E-05,9.64693663263461E-06,1.23046875,0,0
-2.73739024123643E-05,6.04753722655005E-06,1.23046875,0,0
-2.94931214739336E-05,3.99438249587547E-06,1.23046875,0,0
-3.11898402287625E-05,5.37746518602944E-06,1.23046875,0,0
-2.58577947533922E-05,5.85568750466337E-06,1.23046875,0,0
-3.74351475329604E-05,6.74026432534447E-06,1.23046875,0,0
-2.87150251097046E-05,3.04337254419806E-06,1.23046875,0,0
-3.42891507898457E-05,4.58229214927997E-06,1.23046875,0,0
-2.6903262551059E-05,2.74431999969238E-06,1.23046875,0,0
-2.90620519081131E-05,2.64417258222238E-06,1.23046875,0,0
-2.64036589214811E-05,3.24025813824846E-06,1.23046875,0,0
-2.74802732747048E-05,6.40601638224325E-06,1.23046875,0,0
-2.61825680354377E-05,7.39950883144047E-06,1.23046875,0,0
-2.56326093222015E-05,6.41860788164195E-06,1.23046875,0,0
-2.51112123805797E-05,4.95913400300196E-06,1.23046875,0,0
-2.36201758525567E-05,4.01022316509625E-06,1.23046875,0,0
-2.44136244873516E-05,4.22873335992335E-06,1.23046875,0,0
-2.32570982916513E-05,4.69450606033206E-06,1.23046875,0,0
-2.48128108069068E-05,6.1653977354581E-06,1.23046875,0,0
-2.41957532125525E-05,7.05918910171022E-06,1.23046875,0,0
-2.65686321654357E-05,8.58686507854145E-06,1.23046875,0,0
-2.5239538445021E-05,7.8648045018781E-06,1.23046875,0,0
-2.54374244832434E-05,5.9665612752724E-06,1.23046875,0,0
-2.3612928998773E-05,4.36009804616333E-06,1.23046875,0,0
-2.36138112086337E-05,4.74734633826301E-06,1.23046875,0,0
-2.17495999095263E-05,4.41374413640006E-06,1.23046875,0,0
-2.11077385756653E-05,3.16375462716678E-06,1.23046875,0,0
-1.98740472114878E-05,1.26494796859333E-06,1.23046875,0,0
-1.98325196834048E-05,3.01395130009041E-06,1.23046875,0,0
-1.95528464246308E-05,7.67708297644276E-06,1.23046875,0,0
-1.99469341168879E-05,1.22147812362527E-05,1.23046875,0,0
-1.58298516907962E-05,1.07462747109821E-05,1.23046875,0,0
-2.20171368709998E-05,1.50351306729135E-05,1.23046875,0,0
-1.51788281073095E-05,9.99328767647967E-06,1.23046875,0,0
-1.78885202331003E-05,1.1357078619767E-05,1.23046875,0,0
-1.45035228342749E-05,8.59956435306231E-06,1.23046875,0,0
-1.65858455147827E-05,1.15921184260515E-05,1.23046875,0,0
-1.56384321599035E-05,1.14307849798934E-05,1.23046875,0,0
-1.68262286024401E-05,1.04318514786428E-05,1.23046875,0,0
-1.49338047776837E-05,9.29058478504885E-06,1.23046875,0,0
-1.38921050165663E-05,9.37126969802193E-06,1.23046875,0,0
-1.45772964970092E-05,1.09087086457293E-05,1.23046875,0,0
-1.53063665493391E-05,1.34015872390592E-05,1.23046875,0,0
-1.66523659572704E-05,1.61125335580437E-05,1.23046875,0,0
-1.60822564794216E-05,1.66474674188066E-05,1.23046875,0,0
-1.75371369550703E-05,1.87284949788591E-05,1.23046875,0,0
-1.69986342370976E-05,2.02826431632275E-05,1.23046875,0,0
-1.72850268427283E-05,2.03147374122636E-05,1.23046875,0,0
-1.61169646162307E-05,1.78525278897723E-05,1.23046875,0,0
-1.76526609720895E-05,1.89054881047923E-05,1.23046875,0,0
-1.85814751603175E-05,1.96492073882837E-05,1.23046875,0,0
-2.0822677470278E-05,1.82042640517466E-05,1.23046875,0,0
-2.11888964258833E-05,1.52793945744634E-05,1.23046875,0,0
-2.12429331440944E-05,1.41885120683583E-05,1.23046875,0,0
-2.12652048503514E-05,1.53225519170519E-05,1.23046875,0,0
-2.24766081373673E-05,1.84816581167979E-05,1.23046875,0,0
-2.26709398702951E-05,2.05169708351605E-05,1.23046875,0,0
-2.23178885789821E-05,2.11739497899543E-05,1.23046875,0,0
-1.81108262040652E-05,1.53680066432571E-05,1.23046875,0,0
-2.58658019447466E-05,2.03074123419356E-05,1.23046875,0,0
-2.04427979042521E-05,1.49894012793084E-05,1.23046875,0,0
-2.72070774371969E-05,2.02739884116454E-05,1.23046875,0,0
-2.548153315729E-05,1.59460887516616E-05,1.23046875,0,0
-2.83657791442238E-05,1.7654678231338E-05,1.23046875,0,0
-2.54866099567153E-05,1.45871717904811E-05,1.23046875,0,0
-2.53872458415572E-05,1.36443350129412E-05,1.23046875,0,0
-2.46316485572606E-05,1.21326866064919E-05,1.23046875,0,0
-2.42391633946681E-05,1.12102998173214E-05,1.23046875,0,0
-2.37532203755109E-05,1.15812463263865E-05,1.23046875,0,0
-2.3501408577431E-05,1.37257120513823E-05,1.23046875,0,0
-2.47516290983185E-05,1.65276469488163E-05,1.23046875,0,0
-2.35916286328575E-05,1.64075754582882E-05,1.23046875,0,0
-2.43587510340149E-05,1.80246897798497E-05,1.23046875,0,0
-2.42094065470155E-05,1.7877078789752E-05,1.23046875,0,0
-2.63912861555582E-05,1.91993785847444E-05,1.23046875,0,0
-2.62223402387463E-05,1.98439265659545E-05,1.23046875,0,0
-2.76726968877483E-05,2.31042922678171E-05,1.23046875,0,0
-2.76249174930854E-05,2.31935882766265E-05,1.23046875,0,0
-2.81599259324139E-05,2.33984264923492E-05,1.23046875,0,0
-2.66044116870034E-05,2.17652723222272E-05,1.23046875,0,0
-2.57590818364406E-05,1.89166094060056E-05,1.23046875,0,0
-2.42378009716049E-05,1.46207476063864E-05,1.23046875,0,0
-2.38908833125606E-05,1.31586457428057E-05,1.23046875,0,0
-2.3627893824596E-05,1.36213920995942E-05,1.23046875,0,0
-2.30633941100677E-05,1.4885564269207E-05,1.23046875,0,0
-1.92093320947606E-05,1.21250432130182E-05,1.23046875,0,0
-2.84558991552331E-05,1.65578185260529E-05,1.23046875,0,0
-2.39193777815672E-05,1.14199219751754E-05,1.23046875,0,0
-3.12382908305153E-05,1.42087865242502E-05,1.23046875,0,0
-2.91273263428593E-05,1.14758813651861E-05,1.23046875,0,0
-3.05249996017665E-05,1.30177641040063E-05,1.23046875,0,0
-2.67453433480114E-05,1.1568463378353E-05,1.23046875,0,0
-2.69258871412603E-05,1.24566668091575E-05,1.23046875,0,0
-2.57031897490378E-05,1.48832750710426E-05,1.23046875,0,0
-2.55327868217137E-05,1.83716419996927E-05,1.23046875,0,0
-2.54741953540361E-05,1.93298837984912E-05,1.23046875,0,0
-2.48136839218205E-05,1.95585180335911E-05,1.23046875,0,0
-2.53358066402143E-05,2.02600112970686E-05,1.23046875,0,0
-2.3275189960259E-05,1.66101945069386E-05,1.23046875,0,0
-2.30025634664344E-05,1.23603795145755E-05,1.23046875,0,0
-2.09125337278238E-05,7.29125622456195E-06,1.23046875,0,0
-2.15422114706598E-05,4.71603243568097E-06,1.23046875,0,0
-2.12278337130556E-05,-2.47628662464194E-07,1.23046875,0,0
-2.34930394071853E-05,-8.73670342116384E-06,1.23046875,0,0
-2.36596206377726E-05,-2.04257466975832E-05,1.23046875,0,0
-2.51025448960718E-05,-2.46532581513748E-05,1.23046875,0,0
-2.42103706113994E-05,-1.9932966097258E-05,1.23046875,0,0
-2.27266991714714E-05,-1.06024817796424E-05,1.23046875,0,0
-2.10151611099718E-05,-4.78948823001701E-06,1.23046875,0,0
-2.04536227101926E-05,-3.46604679180018E-06,1.23046875,0,0
-2.06381009775214E-05,-4.40603344031842E-06,1.23046875,0,0
-2.2102798538981E-05,-3.62031278200448E-06,1.23046875,0,0
-1.89311595022446E-05,2.37008362091728E-06,1.23046875,0,0
-2.71546487056185E-05,6.91209424985573E-06,1.23046875,0,0
-2.06366985366913E-05,8.54634527058806E-06,1.23046875,0,0
-2.49474887823453E-05,8.19633805804187E-06,1.23046875,0,0
-2.05544019991066E-05,8.67369271873031E-06,1.23046875,0,0
-2.37537478824379E-05,9.33160208660411E-06,1.23046875,0,0
-2.49229324253974E-05,1.05417802842567E-05,1.23046875,0,0
-2.95683475997066E-05,9.6476005637669E-06,1.23046875,0,0
-2.98133199976292E-05,8.37064544612076E-06,1.23046875,0,0
-2.84959041891852E-05,6.9193879426166E-06,1.23046875,0,0
-2.66882598225493E-05,7.41046414987068E-06,1.23046875,0,0
-2.44738821493229E-05,9.82687924988568E-06,1.23046875,0,0
-2.50899320235476E-05,1.18380266940221E-05,1.23046875,0,0
-2.50803077506134E-05,1.36012113216566E-05,1.23046875,0,0
-2.71168537437916E-05,1.54790923261316E-05,1.23046875,0,0
-2.62014236795949E-05,1.56725145643577E-05,1.23046875,0,0
-2.68810545094311E-05,1.28842220874503E-05,1.23046875,0,0
-2.67302184511209E-05,7.84392068453599E-06,1.23046875,0,0
-2.96543676086003E-05,1.83016288701765E-06,1.23046875,0,0
-3.14775134029333E-05,-5.05257617078314E-07,1.23046875,0,0
-3.44728759955615E-05,2.03311083168956E-06,1.23046875,0,0
-3.53391042153817E-05,5.59759018869954E-06,1.23046875,0,0
-3.5935576306656E-05,8.5143519754638E-06,1.23046875,0,0
-3.34842770826072E-05,1.16273486128193E-05,1.23046875,0,0
-3.05028424918419E-05,1.38013256218983E-05,1.23046875,0,0
-2.84254365396919E-05,1.39789235618082E-05,1.23046875,0,0
-2.78304978564847E-05,1.29982709040632E-05,1.23046875,0,0
-2.24638351937756E-05,8.41026212583529E-06,1.23046875,0,0
-3.10094037558883E-05,8.21547473606188E-06,1.23046875,0,0
-2.13550865737488E-05,9.21070181902905E-07,1.23046875,0,0
-2.49674030783353E-05,2.62035700870911E-06,1.23046875,0,0
-1.77397359948372E-05,1.73474018083652E-06,1.23046875,0,0
-1.92946863535326E-05,7.90343892731471E-06,1.23046875,0,0
-1.71586580108851E-05,1.08189178718021E-05,1.23046875,0,0
-2.02591745619429E-05,1.06643656181404E-05,1.23046875,0,0
-2.11542064789683E-05,8.32607020129217E-06,1.23046875,0,0
-2.09922673093388E-05,7.58821852286928E-06,1.23046875,0,0
-2.03939507628093E-05,7.50041590436012E-06,1.23046875,0,0
-1.9363238607184E-05,7.10754056854057E-06,1.23046875,0,0
-2.0966228476027E-05,6.63301443637465E-06,1.23046875,0,0
-2.10263078770367E-05,4.02311707148328E-06,1.23046875,0,0
-2.26961128646508E-05,3.64382981388189E-06,1.23046875,0,0
-2.03639847313752E-05,4.82748964714119E-06,1.23046875,0,0
-2.08645014936337E-05,8.71439624461345E-06,1.23046875,0,0
-2.07616794796195E-05,1.11850522444001E-05,1.23046875,0,0
-2.33619284699671E-05,1.31828765006503E-05,1.23046875,0,0
-2.3295500795939E-05,1.30869220811292E-05,1.23046875,0,0
-2.43884023802821E-05,1.35833215608727E-05,1.23046875,0,0
-2.36900359595893E-05,1.37466759042582E-05,1.23046875,0,0
-2.34755425481126E-05,1.32058976305416E-05,1.23046875,0,0
-2.28113785851747E-05,1.13267296910635E-05,1.23046875,0,0
-2.34280942095211E-05,1.14458398456918E-05,1.23046875,0,0
-2.32182683248539E-05,1.27087214423227E-05,1.23046875,0,0
-2.21780646825209E-05,1.36684693643474E-05,1.23046875,0,0
-1.896145658975E-05,1.32128643599572E-05,1.23046875,0,0
-2.89643630821956E-05,1.95508655451704E-05,1.23046875,0,0
-2.43526956182905E-05,1.49566049003624E-05,1.23046875,0,0
-2.91303203994175E-05,1.79394264705479E-05,1.23046875,0,0
-2.62033699982567E-05,1.6337491615559E-05,1.23046875,0,0
-2.89502750092652E-05,1.9076465832768E-05,1.23046875,0,0
-2.6942469048663E-05,1.71407882589847E-05,1.23046875,0,0
-2.8300411941018E-05,1.60393010446569E-05,1.23046875,0,0
-2.97575043077813E-05,1.67474427144043E-05,1.23046875,0,0
-3.05334178847261E-05,1.91208055184688E-05,1.23046875,0,0
-2.86951999441953E-05,2.04573534574592E-05,1.23046875,0,0
-2.61359491560142E-05,2.06840395549079E-05,1.23046875,0,0
-2.66805418505101E-05,2.14968586078612E-05,1.23046875,0,0
-2.67148116108729E-05,2.15039362956304E-05,1.23046875,0,0
-2.76406553894049E-05,2.30021632887656E-05,1.23046875,0,0
-2.62597877735971E-05,2.23618699237704E-05,1.23046875,0,0
-2.67195082415128E-05,2.22284525079886E-05,1.23046875,0,0
-2.47659991146065E-05,2.0476396457525E-05,1.23046875,0,0
-2.43011509155622E-05,1.9570268705138E-05,1.23046875,0,0
-2.31226003961638E-05,1.82575731741963E-05,1.23046875,0,0
-2.42591613641707E-05,1.88948506547604E-05,1.23046875,0,0
-2.39144010265591E-05,1.87786681635771E-05,1.23046875,0,0
-2.49364657065598E-05,1.90601385838818E-05,1.23046875,0,0
-2.56523617281346E-05,1.83896790986182E-05,1.23046875,0,0
-2.6057652576128E-05,1.72019063029438E-05,1.23046875,0,0
-2.64992195297964E-05,1.53973724081879E-05,1.23046875,0,0
-2.6949834136758E-05,1.35117161335074E-05,1.23046875,0,0
-2.08336750802118E-05,7.49662649468519E-06,1.23046875,0,0
-2.93421253445558E-05,8.00697580416454E-06,1.23046875,0,0
-2.30721889238339E-05,2.27401210395328E-06,1.23046875,0,0
-3.03216802421957E-05,2.62300477515964E-06,1.23046875,0,0
-2.66838032985106E-05,-5.92500626339643E-08,1.23046875,0,0
-2.96879243251169E-05,7.0269180696414E-07,1.23046875,0,0
-2.88050996459788E-05,-2.05430993105438E-07,1.23046875,0,0
-3.19073733408004E-05,3.16319756166195E-06,1.23046875,0,0
-3.06479960272554E-05,5.68202995054889E-06,1.23046875,0,0
-2.91619235213147E-05,5.41918916496797E-06,1.23046875,0,0
-2.94930923701031E-05,3.7103952763573E-06,1.23046875,0,0
-2.96476300718496E-05,2.69535780716978E-06,1.23046875,0,0
-3.05709909298457E-05,2.75319507636596E-06,1.23046875,0,0
-2.83053959719837E-05,2.02074897970306E-06,1.23046875,0,0
-2.86956474155886E-05,3.3173805604747E-06,1.23046875,0,0
-2.89230956695974E-05,4.93709967486211E-06,1.23046875,0,0
-3.15678662445862E-05,7.5551652116701E-06,1.23046875,0,0
-2.97038513963344E-05,7.48417915019672E-06,1.23046875,0,0
-2.78191982943099E-05,6.51609752821969E-06,1.23046875,0,0
-2.38375578192063E-05,4.51192272521439E-06,1.23046875,0,0
-2.35905699810246E-05,5.09492929268163E-06,1.23046875,0,0
-2.44912389462115E-05,6.38997425994603E-06,1.23046875,0,0
-2.66469014604809E-05,7.55613473302219E-06,1.23046875,0,0
-2.66685838141711E-05,7.23003768143826E-06,1.23046875,0,0
-2.58877407759428E-05,6.19321781414328E-06,1.23046875,0,0
-2.32037273235619E-05,5.90234640185372E-06,1.23046875,0,0
-2.24792638618965E-05,7.62125728215324E-06,1.23046875,0,0
-1.86677716556005E-05,6.81176243233494E-06,1.23046875,0,0
-2.54435763054062E-05,8.750792403589E-06,1.23046875,0,0
-1.69233771885047E-05,6.16934448771644E-06,1.23046875,0,0
-2.22682465391699E-05,8.43616089696297E-06,1.23046875,0,0
-2.14135343412636E-05,6.64438675812562E-06,1.23046875,0,0
-2.62220437434735E-05,8.55471989780199E-06,1.23046875,0,0
-2.50456596404547E-05,8.8136303020292E-06,1.23046875,0,0
-2.57113242696505E-05,9.34855961531866E-06,1.23046875,0,0
-2.47680382017279E-05,9.7873407867155E-06,1.23046875,0,0
-2.42046899074921E-05,9.68806307355408E-06,1.23046875,0,0
-2.38862685364438E-05,9.52590380620677E-06,1.23046875,0,0
-2.26482425205177E-05,1.13513042379054E-05,1.23046875,0,0
-2.27803884627065E-05,1.36634916998446E-05,1.23046875,0,0
-2.137579031114E-05,1.29321415442973E-05,1.23046875,0,0
-2.13570765481563E-05,1.26712830024189E-05,1.23046875,0,0
-1.8528671716922E-05,1.33149924295139E-05,1.23046875,0,0
-1.80113565875217E-05,1.52442253238405E-05,1.23046875,0,0
-1.65856472449377E-05,1.4522470337397E-05,1.23046875,0,0
-1.74418473761762E-05,1.24532489280682E-05,1.23046875,0,0
-1.67660164152039E-05,9.62054491537856E-06,1.23046875,0,0
-1.80620318133151E-05,8.330755008501E-06,1.23046875,0,0
-1.90074424608611E-05,7.51744528315612E-06,1.23046875,0,0
-1.9674198483699E-05,8.95624998520361E-06,1.23046875,0,0
-1.83730953722261E-05,9.29640373215079E-06,1.23046875,0,0
-1.9121311197523E-05,6.54067343930365E-06,1.23046875,0,0
-2.18414133996703E-05,3.09683741761546E-06,1.23046875,0,0
-2.4601080440334E-05,1.89892443813733E-06,1.23046875,0,0
-2.08314831979806E-05,4.2401966311445E-06,1.23046875,0,0
-3.02650751109468E-05,9.13377061806386E-06,1.23046875,0,0
-2.46587605943205E-05,1.17061490527703E-05,1.23046875,0,0
-3.10213763441425E-05,1.23071622510906E-05,1.23046875,0,0
-2.71362932835473E-05,9.03881664271466E-06,1.23046875,0,0
-2.97899277938996E-05,9.47859734878875E-06,1.23046875,0,0
-2.67348314082483E-05,1.21530620162957E-05,1.23046875,0,0
-2.68270850938279E-05,1.45987132782466E-05,1.23046875,0,0
-2.44404636760009E-05,1.6965217582765E-05,1.23046875,0,0
-2.3657445126446E-05,1.91993567568716E-05,1.23046875,0,0
-2.36546929954784E-05,1.93287396541564E-05,1.23046875,0,0
-2.19688135985052E-05,1.82137155206874E-05,1.23046875,0,0
-2.07191133085871E-05,1.69087888934882E-05,1.23046875,0,0
-1.77230285771657E-05,1.4715270481247E-05,1.23046875,0,0
-1.85361132025719E-05,1.39020230562892E-05,1.23046875,0,0
-1.97889748960733E-05,1.27823586808518E-05,1.23046875,0,0
-2.44594120886177E-05,1.02840394902159E-05,1.23046875,0,0
-2.52182726399042E-05,7.05388174537802E-06,1.23046875,0,0
-2.54690658039181E-05,7.0405321821454E-06,1.23046875,0,0
-2.30032001127256E-05,8.36181970953476E-06,1.23046875,0,0
-2.31310223171022E-05,6.73154681862798E-06,1.23046875,0,0
-2.33250666497042E-05,3.02938155982702E-06,1.23046875,0,0
-2.51142573688412E-05,2.17072442865174E-06,1.23046875,0,0
-2.42858350247843E-05,4.36609980170033E-06,1.23046875,0,0
-2.33135378948646E-05,6.51313803246012E-06,1.23046875,0,0
-2.25872172450181E-05,7.00060400049551E-06,1.23046875,0,0
-2.22233229578706E-05,4.40339226770448E-06,1.23046875,0,0
-1.78590034920489E-05,-4.00210808493284E-07,1.23046875,0,0
-2.61159730143845E-05,-1.90476924899485E-07,1.23046875,0,0
-2.09953122976003E-05,6.07888114245725E-06,1.23046875,0,0
-2.49519944190979E-05,1.53248111018911E-05,1.23046875,0,0
-2.01167640625499E-05,1.98363723029615E-05,1.23046875,0,0
-2.21082646021387E-05,2.0526804291876E-05,1.23046875,0,0
-1.96624259842793E-05,1.97798090084689E-05,1.23046875,0,0
-1.87549758265959E-05,1.96627770492341E-05,1.23046875,0,0
-1.63682852871716E-05,2.00127997231903E-05,1.23046875,0,0
-1.56912374222884E-05,2.02507726498879E-05,1.23046875,0,0
-1.55649740918307E-05,1.92597890418256E-05,1.23046875,0,0
-1.484597032686E-05,1.68089918588521E-05,1.23046875,0,0
-1.66055451700231E-05,1.42651133501204E-05,1.23046875,0,0
-1.77438341779634E-05,1.43871648106142E-05,1.23046875,0,0
-2.05901087610982E-05,1.75710010807961E-05,1.23046875,0,0
-2.11284514080035E-05,2.10215057450114E-05,1.23046875,0,0
-2.30944533541333E-05,2.22534727072343E-05,1.23046875,0,0
-2.27633154281648E-05,1.84584077942418E-05,1.23046875,0,0
-2.45646660914645E-05,1.00475135695888E-05,1.23046875,0,0
-2.59502212429652E-05,3.34672063218022E-06,1.23046875,0,0
-2.88244027615292E-05,4.17543878938886E-06,1.23046875,0,0
-2.83012541331118E-05,1.07960540844942E-05,1.23046875,0,0
-2.73299192485865E-05,1.81261184479808E-05,1.23046875,0,0
-2.73119258054066E-05,2.18903587665409E-05,1.23046875,0,0
-2.88528426608536E-05,2.19335252040764E-05,1.23046875,0,0
-2.92279364657588E-05,1.73391872522188E-05,1.23046875,0,0
-2.91511150862789E-05,7.71263330534566E-06,1.23046875,0,0
-2.27251803153194E-05,-1.34338236534859E-07,1.23046875,0,0
-3.2198462577071E-05,8.59932470120839E-07,1.23046875,0,0
-2.39196760958293E-05,4.41234988102224E-06,1.23046875,0,0
-2.92826716759009E-05,7.49159244151087E-06,1.23046875,0,0
-2.41724519582931E-05,9.77637046162272E-06,1.23046875,0,0
-2.73900550382677E-05,1.37161314341938E-05,1.23046875,0,0
-2.4799059247016E-05,1.53376113303239E-05,1.23046875,0,0
-2.56759976764442E-05,1.47461823871708E-05,1.23046875,0,0
-2.51138590101618E-05,1.60032122948905E-05,1.23046875,0,0
-2.57388364843791E-05,1.73936732608126E-05,1.23046875,0,0
-2.67174727923702E-05,1.76744979398791E-05,1.23046875,0,0
-2.66206807282288E-05,1.87151563295629E-05,1.23046875,0,0
-2.67135055764811E-05,1.99401947611477E-05,1.23046875,0,0
-2.31588310271036E-05,1.90369100891985E-05,1.23046875,0,0
-2.22356156882597E-05,1.52181564772036E-05,1.23046875,0,0
-2.02438295673346E-05,1.07427058537723E-05,1.23046875,0,0
-2.09753761737375E-05,8.27247458801139E-06,1.23046875,0,0
-1.91277904377785E-05,8.68372171680676E-06,1.23046875,0,0
-1.97232056962093E-05,1.12412208181922E-05,1.23046875,0,0
-1.82185649464373E-05,1.35763812068035E-05,1.23046875,0,0
-1.81013838300714E-05,1.39150770337437E-05,1.23046875,0,0
-1.75404093170073E-05,1.34625715872971E-05,1.23046875,0,0
-1.95161046576686E-05,1.27306157082785E-05,1.23046875,0,0
-1.97859390027588E-05,1.10361042970908E-05,1.23046875,0,0
-1.97685494640609E-05,9.46798263612436E-06,1.23046875,0,0
-1.94644835573854E-05,8.98273174243513E-06,1.23046875,0,0
-1.80909355549375E-05,8.38392043078784E-06,1.23046875,0,0
-1.21506745927036E-05,7.4812182901951E-06,1.23046875,0,0
-1.56121477630222E-05,1.23585559776984E-05,1.23046875,0,0
-1.06141806099913E-05,1.1601036931097E-05,1.23046875,0,0
-1.43776705954224E-05,1.30709277073038E-05,1.23046875,0,0
-1.22774845294771E-05,1.03639122244203E-05,1.23046875,0,0
-1.64496505021816E-05,1.09093234641477E-05,1.23046875,0,0
-1.80222359631443E-05,1.14292179205222E-05,1.23046875,0,0
-1.99178284674417E-05,1.18736215881654E-05,1.23046875,0,0
-2.0487683286774E-05,8.85716963239247E-06,1.23046875,0,0
-2.23418082896387E-05,5.89842466069967E-06,1.23046875,0,0
-2.49082240770804E-05,6.65442348690704E-06,1.23046875,0,0
-2.6535935830907E-05,9.1638994490495E-06,1.23046875,0,0
-2.78995375992963E-05,9.06298646441428E-06,1.23046875,0,0
-2.72903325821972E-05,7.44999215385178E-06,1.23046875,0,0
-2.81446064036572E-05,9.2315667643561E-06,1.23046875,0,0
-2.81301508948673E-05,1.05478911791579E-05,1.23046875,0,0
-2.88076171273133E-05,1.03709717222955E-05,1.23046875,0,0
-2.70852287940215E-05,9.17661600396968E-06,1.23046875,0,0
-2.75490929197986E-05,1.02386948128697E-05,1.23046875,0,0
-2.72975448751822E-05,1.15611301225726E-05,1.23046875,0,0
-2.70699674729258E-05,1.20136446639663E-05,1.23046875,0,0
-2.60277884081006E-05,8.66574282554211E-06,1.23046875,0,0
-2.65680719166994E-05,5.09457231601118E-06,1.23046875,0,0
-2.58395084529184E-05,4.38850565842586E-06,1.23046875,0,0
-2.48559754254529E-05,6.296544597717E-06,1.23046875,0,0
-2.46541858359706E-05,9.60191755439155E-06,1.23046875,0,0
-2.40710396610666E-05,1.28108122225967E-05,1.23046875,0,0
-1.97321442101384E-05,9.38694302021759E-06,1.23046875,0,0
-2.95150857709814E-05,1.23093968795729E-05,1.23046875,0,0
-2.43629692704417E-05,9.27243945625378E-06,1.23046875,0,0
-3.00812698696973E-05,1.31514570966829E-05,1.23046875,0,0
-2.58525706158252E-05,1.06037023215322E-05,1.23046875,0,0
-2.8126827601227E-05,1.20246641017729E-05,1.23046875,0,0
-2.6550116672297E-05,1.06178476926289E-05,1.23046875,0,0
-2.61364712059731E-05,9.24853247852298E-06,1.23046875,0,0
-2.23530587390997E-05,7.33116667106515E-06,1.23046875,0,0
-2.09377703868086E-05,6.27118015472661E-06,1.23046875,0,0
-2.15912696148735E-05,4.94767346026492E-06,1.23046875,0,0
-2.06428903766209E-05,2.09977906706627E-06,1.23046875,0,0
-2.00524318643147E-05,3.55929074657979E-07,1.23046875,0,0
-1.78936279553454E-05,-5.37885739504418E-07,1.23046875,0,0
-1.7914248019224E-05,6.49628702831251E-07,1.23046875,0,0
-1.61103962454945E-05,1.14994475097774E-06,1.23046875,0,0
-1.72232576005626E-05,3.24469215229328E-06,1.23046875,0,0
-1.74987999344012E-05,4.25749385613017E-06,1.23046875,0,0
-1.958609027497E-05,4.54921973869205E-06,1.23046875,0,0
-1.98853031179169E-05,4.59421698906226E-06,1.23046875,0,0
-2.21654427150497E-05,8.58849489304703E-06,1.23046875,0,0
-2.22586841118755E-05,1.15806205940316E-05,1.23046875,0,0
-2.17291508306516E-05,1.16354549390962E-05,1.23046875,0,0
-2.02097471628804E-05,1.03714510260033E-05,1.23046875,0,0
-2.00451777345734E-05,1.1526804883033E-05,1.23046875,0,0
-2.14754545595497E-05,1.2733996300085E-05,1.23046875,0,0
-2.35431052715285E-05,1.0823663615156E-05,1.23046875,0,0
-1.97501794900745E-05,5.31931209479808E-06,1.23046875,0,0
-2.72607121587498E-05,6.75084129397874E-06,1.23046875,0,0
-1.98718425963307E-05,4.86499129692675E-06,1.23046875,0,0
-2.62369285337627E-05,7.72837574913865E-06,1.23046875,0,0
-2.37133372138487E-05,9.07802314031869E-06,1.23046875,0,0
-2.73474452114897E-05,1.26544000522699E-05,1.23046875,0,0
-2.54004153248388E-05,1.12483894554316E-05,1.23046875,0,0
-2.61898603639565E-05,9.27862220123643E-06,1.23046875,0,0
-2.57466144830687E-05,9.70734072325286E-06,1.23046875,0,0
-2.59413027379196E-05,1.15373404696584E-05,1.23046875,0,0
-2.58336331171449E-05,1.23288255053922E-05,1.23046875,0,0
-2.47018451773329E-05,1.23045792861376E-05,1.23046875,0,0
-2.56352905125823E-05,1.135993625212E-05,1.23046875,0,0
-2.49641761911334E-05,7.43312148188124E-06,1.23046875,0,0
-2.63522379100323E-05,5.07641107105883E-06,1.23046875,0,0
-2.57136962318327E-05,5.15512192578171E-06,1.23046875,0,0
-2.79102841886925E-05,5.8986938711314E-06,1.23046875,0,0
-2.85496498690918E-05,4.65827861262369E-06,1.23046875,0,0
-2.97111419058638E-05,5.13532859258703E-06,1.23046875,0,0
-2.71109183813678E-05,7.50760500523029E-06,1.23046875,0,0
-2.57380524999462E-05,1.1003423423972E-05,1.23046875,0,0
-2.4791044779704E-05,1.33229805214796E-05,1.23046875,0,0
-2.58146628766553E-05,1.51597987496643E-05,1.23046875,0,0
-2.52239660767373E-05,1.52117581819766E-05,1.23046875,0,0
-2.50859920924995E-05,1.3966448022984E-05,1.23046875,0,0
-2.49376826104708E-05,1.3310762369656E-05,1.23046875,0,0
-2.42773749050684E-05,1.35075388243422E-05,1.23046875,0,0
-1.77087804331677E-05,1.01925197668606E-05,1.23046875,0,0
-2.50185512413736E-05,1.34810643430683E-05,1.23046875,0,0
-2.10118687391514E-05,1.05273365988978E-05,1.23046875,0,0
-2.77032031590352E-05,1.48273866216186E-05,1.23046875,0,0
-2.35673978750128E-05,1.40836809805478E-05,1.23046875,0,0
-2.65596991084749E-05,1.78386690095067E-05,1.23046875,0,0
-2.65099370153621E-05,1.65265391842695E-05,1.23046875,0,0
-2.92644035653211E-05,1.69222566910321E-05,1.23046875,0,0
-2.93327830149792E-05,1.653358231124E-05,1.23046875,0,0
-3.00438896374544E-05,1.60198778758058E-05,1.23046875,0,0
-3.22435953421518E-05,1.5554558558506E-05,1.23046875,0,0
-3.42696621373761E-05,1.60354593390366E-05,1.23046875,0,0
-3.50000555044971E-05,1.67470188898733E-05,1.23046875,0,0
-3.25119472108781E-05,1.46239417517791E-05,1.23046875,0,0
-3.29674730892293E-05,1.47444807225838E-05,1.23046875,0,0
-3.16221739922185E-05,1.43153238241212E-05,1.23046875,0,0
-3.13744894810952E-05,1.53734072227962E-05,1.23046875,0,0
-2.86801168840611E-05,1.5370336768683E-05,1.23046875,0,0
-2.76150130957831E-05,1.57259000843624E-05,1.23046875,0,0
-2.47847146965796E-05,1.33862440634402E-05,1.23046875,0,0
-2.36092728300719E-05,1.15367120088194E-05,1.23046875,0,0
-2.12214054045035E-05,9.8203217930859E-06,1.23046875,0,0
-2.10966809390811E-05,9.85935093922308E-06,1.23046875,0,0
-2.2345253455569E-05,9.26268330658786E-06,1.23046875,0,0
-2.41494108195184E-05,9.25491349335061E-06,1.23046875,0,0
-2.37381500483025E-05,1.13081050585606E-05,1.23046875,0,0
-2.3270749807125E-05,1.2522733413789E-05,1.23046875,0,0
-1.97519839275628E-05,7.35673847884755E-06,1.23046875,0,0
-2.96268790407339E-05,8.21191952127265E-06,1.23046875,0,0
-2.54588157986291E-05,4.34020648754085E-06,1.23046875,0,0
-3.22619489452336E-05,5.46608043805463E-06,1.23046875,0,0
-2.91637024929514E-05,2.25161556954845E-06,1.23046875,0,0
-3.14792087010574E-05,6.69126711727586E-06,1.23046875,0,0
-2.79475152638042E-05,1.01587120298063E-05,1.23046875,0,0
-2.7036612664233E-05,1.10066121123964E-05,1.23046875,0,0
-2.45863502641441E-05,9.84231792244827E-06,1.23046875,0,0
-2.31561098189559E-05,1.15257344077691E-05,1.23046875,0,0
-2.26263218792155E-05,1.34799656734685E-05,1.23046875,0,0
-2.2520762286149E-05,1.41191467264434E-05,1.23046875,0,0
-2.44378261413658E-05,1.3799600310449E-05,1.23046875,0,0
-2.34711151279043E-05,1.17883037091815E-05,1.23046875,0,0
-2.38438769883942E-05,1.15777056635125E-05,1.23046875,0,0
-2.24698542297119E-05,1.08377234937507E-05,1.23046875,0,0
-2.33328555623302E-05,1.08139038275112E-05,1.23046875,0,0
-2.21996160689741E-05,9.98968243948184E-06,1.23046875,0,0
-2.35483676078729E-05,1.03560414572712E-05,1.23046875,0,0
-2.29664692596998E-05,1.08561362139881E-05,1.23046875,0,0
-2.24026953219436E-05,1.32072664200678E-05,1.23046875,0,0
-2.06148688448593E-05,1.4167546396493E-05,1.23046875,0,0
-2.17520428122953E-05,1.52550874190638E-05,1.23046875,0,0
-2.28801854973426E-05,1.51376061694464E-05,1.23046875,0,0
-2.35822899412597E-05,1.39296726047178E-05,1.23046875,0,0
-2.23986680794042E-05,1.22755018310272E-05,1.23046875,0,0
-2.02871851797681E-05,1.04287146314164E-05,1.23046875,0,0
-1.58101356646512E-05,7.77016884967452E-06,1.23046875,0,0
-2.24305840674788E-05,1.06252209661761E-05,1.23046875,0,0
-1.69990998983849E-05,7.97198845248204E-06,1.23046875,0,0
-1.99973292183131E-05,1.09208776848391E-05,1.23046875,0,0
-1.50134783325484E-05,1.03344973467756E-05,1.23046875,0,0
-1.70549064932857E-05,1.13183759822277E-05,1.23046875,0,0
-1.61701427714434E-05,7.19960416972754E-06,1.23046875,0,0
-1.67735815921333E-05,2.92951267510944E-06,1.23046875,0,0
-1.57639715325786E-05,2.39307678384648E-06,1.23046875,0,0
-1.64592529472429E-05,5.85128282182268E-06,1.23046875,0,0
-1.76175926753785E-05,6.98413714417256E-06,1.23046875,0,0
-1.76295834535267E-05,3.74196633856627E-06,1.23046875,0,0
-1.95225638890406E-05,1.22177254979761E-06,1.23046875,0,0
-2.06356053240597E-05,3.56606801688031E-06,1.23046875,0,0
-2.30694913625484E-05,1.13022388177342E-05,1.23046875,0,0
-2.32122001762036E-05,1.51569684021524E-05,1.23046875,0,0
-2.54308288276661E-05,1.3258905710245E-05,1.23046875,0,0
-2.60085107584018E-05,7.13306553734583E-06,1.23046875,0,0
-2.69895172095858E-05,3.25719565807958E-06,1.23046875,0,0
-2.50071079790359E-05,3.17153171636164E-06,1.23046875,0,0
-2.40016761381412E-05,7.40614677852136E-06,1.23046875,0,0
-2.37008880503709E-05,1.24900607261225E-05,1.23046875,0,0
-2.54905717156362E-05,1.84500931936782E-05,1.23046875,0,0
-2.60450669884449E-05,2.16192711377516E-05,1.23046875,0,0
-2.58730087807635E-05,2.11592596315313E-05,1.23046875,0,0
-2.50234825216467E-05,1.93885516637238E-05,1.23046875,0,0
-2.40699737332761E-05,1.83217616722686E-05,1.23046875,0,0
-1.87874375114916E-05,1.34616502691642E-05,1.23046875,0,0
-2.43376580328913E-05,1.7334450603812E-05,1.23046875,0,0
-1.51477379404241E-05,1.16586315925815E-05,1.23046875,0,0
-1.98733559955144E-05,1.75394761754433E-05,1.23046875,0,0
-1.6899723050301E-05,1.59735300258035E-05,1.23046875,0,0
-2.09364843613002E-05,1.85541466635186E-05,1.23046875,0,0
-1.89880229299888E-05,1.71672418218805E-05,1.23046875,0,0
-2.00397989829071E-05,1.70590319612529E-05,1.23046875,0,0
-1.93216183106415E-05,1.70252478710609E-05,1.23046875,0,0
-1.83705142262625E-05,1.85378066817066E-05,1.23046875,0,0
-1.75830155058065E-05,1.98381749214605E-05,1.23046875,0,0
-1.67381313076476E-05,1.89062793651829E-05,1.23046875,0,0
-1.82889361894922E-05,1.54049394041067E-05,1.23046875,0,0
-1.82961684913607E-05,7.07735580363078E-06,1.23046875,0,0
-2.01022685359931E-05,6.75268552186026E-07,1.23046875,0,0
-1.91763319890015E-05,-2.27182749767962E-06,1.23046875,0,0
-1.90821720025269E-05,1.67507357673458E-06,1.23046875,0,0
-1.67533198691672E-05,6.21260414845892E-06,1.23046875,0,0
-1.83179072337225E-05,1.16665660243598E-05,1.23046875,0,0
-1.84903146873694E-05,1.38209452416049E-05,1.23046875,0,0
-1.9208428057027E-05,1.34519268613076E-05,1.23046875,0,0
-1.95766679098597E-05,9.63589536695508E-06,1.23046875,0,0
-2.16374101000838E-05,7.16063550498802E-06,1.23046875,0,0
-2.16590542549966E-05,6.25747907179175E-06,1.23046875,0,0
-2.13142957363743E-05,7.16571639713948E-06,1.23046875,0,0
-2.01557013497222E-05,7.57651423555217E-06,1.23046875,0,0
-2.03815998247592E-05,5.27920474269195E-06,1.23046875,0,0
-1.75738423422445E-05,-1.10702387701167E-07,1.23046875,0,0
-2.41627731156768E-05,-1.2671051763391E-06,1.23046875,0,0
-1.86523375305114E-05,6.21123888322472E-07,1.23046875,0,0
-2.46313666139031E-05,4.18533500123885E-06,1.23046875,0,0
-2.20224756048992E-05,4.25752159571857E-06,1.23046875,0,0
-2.59102234849706E-05,5.29844919583411E-06,1.23046875,0,0
-2.47014686465263E-05,8.59083320392529E-06,1.23046875,0,0
-2.55273353104712E-05,1.20886861623148E-05,1.23046875,0,0
-2.44375460169977E-05,1.37354518301436E-05,1.23046875,0,0
-2.55834038398461E-05,1.3065638995613E-05,1.23046875,0,0
-2.78921088465722E-05,1.0772480891319E-05,1.23046875,0,0
-2.97747792501468E-05,6.48377181278192E-06,1.23046875,0,0
-3.22858904837631E-05,2.24367295231787E-06,1.23046875,0,0
-3.18969614454545E-05,5.70952124689939E-07,1.23046875,0,0
-3.31840674334671E-05,1.13605176466081E-06,1.23046875,0,0
-3.33097304974217E-05,1.56842042997596E-06,1.23046875,0,0
-3.59728328476194E-05,7.85954682669399E-07,1.23046875,0,0
-3.5114473575959E-05,5.28868646654246E-08,1.23046875,0,0
-3.46197339240462E-05,1.72327986547316E-06,1.23046875,0,0
-3.30235779983923E-05,5.62776313017821E-06,1.23046875,0,0
-3.41985178238247E-05,8.21010507934261E-06,1.23046875,0,0
-3.36352604790591E-05,7.81427297624759E-06,1.23046875,0,0
-3.30239126924425E-05,5.71658802073216E-06,1.23046875,0,0
-3.17468620778527E-05,3.22535129271273E-06,1.23046875,0,0
-3.25264918501489E-05,2.42306214204291E-06,1.23046875,0,0
-3.30931507050991E-05,3.17275930683536E-06,1.23046875,0,0
-3.30057373503223E-05,4.68666030428722E-06,1.23046875,0,0
-2.84493671642849E-05,4.75928572996054E-06,1.23046875,0,0
-4.1631323256297E-05,6.25235679763136E-06,1.23046875,0,0
-3.19092578138225E-05,4.90009551867843E-06,1.23046875,0,0
-3.73155526176561E-05,6.94905020282022E-06,1.23046875,0,0
-2.9986444133101E-05,6.83220423525199E-06,1.23046875,0,0
-3.32446143147536E-05,9.8630544016487E-06,1.23046875,0,0
-3.10424220515415E-05,1.14076638055849E-05,1.23046875,0,0
-3.2827869290486E-05,1.24353446153691E-05,1.23046875,0,0
-3.08397357002832E-05,1.1683091543091E-05,1.23046875,0,0
-2.86839604086708E-05,1.19327578431694E-05,1.23046875,0,0
-2.59923526755301E-05,1.27069051814033E-05,1.23046875,0,0
-2.2962562070461E-05,1.27052080642898E-05,1.23046875,0,0
-2.37264976021834E-05,1.3533242054109E-05,1.23046875,0,0
-2.25072744797217E-05,1.46191396197537E-05,1.23046875,0,0
-2.3956032237038E-05,1.70080038515152E-05,1.23046875,0,0
-2.20053079829086E-05,1.8704253307078E-05,1.23046875,0,0
-2.28463286475744E-05,2.00957692868542E-05,1.23046875,0,0
-2.09427162189968E-05,1.95559387066169E-05,1.23046875,0,0
-2.18641926039709E-05,1.83131232915912E-05,1.23046875,0,0
-2.00145714188693E-05,1.57858685270185E-05,1.23046875,0,0
-2.0429806681932E-05,1.5279212675523E-05,1.23046875,0,0
-1.97880490304669E-05,1.65245055541163E-05,1.23046875,0,0
-2.12757804547437E-05,1.78007285285275E-05,1.23046875,0,0
-2.16524185816525E-05,1.80395036295522E-05,1.23046875,0,0
-2.22517974179937E-05,1.84422679012641E-05,1.23046875,0,0
-2.23461393034086E-05,1.78207174030831E-05,1.23046875,0,0
-2.31420272029936E-05,1.68624410434859E-05,1.23046875,0,0
-1.90893570106709E-05,1.37253291541128E-05,1.23046875,0,0
-2.68008279817877E-05,1.91758153960109E-05,1.23046875,0,0
-1.97878289327491E-05,1.36665958052617E-05,1.23046875,0,0
-2.40143526752945E-05,1.59577211888973E-05,1.23046875,0,0
-2.03263934963616E-05,1.19954102046904E-05,1.23046875,0,0
-2.43950762524037E-05,1.44285577334813E-05,1.23046875,0,0
-2.30901550821727E-05,1.36593225761317E-05,1.23046875,0,0
-2.41066918533761E-05,1.38637351483339E-05,1.23046875,0,0
-2.39319342654198E-05,1.05822018667823E-05,1.23046875,0,0
-2.4461302018608E-05,7.99504141468788E-06,1.23046875,0,0
-2.41413235926302E-05,7.3894680099329E-06,1.23046875,0,0
-2.15464933717158E-05,8.00585985416546E-06,1.23046875,0,0
-2.09386489586905E-05,1.02865269582253E-05,1.23046875,0,0
-2.03788476937916E-05,1.01881832961226E-05,1.23046875,0,0
-2.24864852498285E-05,1.15004340841551E-05,1.23046875,0,0
-2.16605803871062E-05,1.14876511361217E-05,1.23046875,0,0
-2.17454089579405E-05,1.18800053314772E-05,1.23046875,0,0
-1.98786183318589E-05,1.06694915302796E-05,1.23046875,0,0
-2.12027844099794E-05,1.27546572912252E-05,1.23046875,0,0
-2.21201644308167E-05,1.44779551192187E-05,1.23046875,0,0
-2.44568473135587E-05,1.674760824244E-05,1.23046875,0,0
-2.47469215537421E-05,1.65092187671689E-05,1.23046875,0,0
-2.50277462328086E-05,1.57563445100095E-05,1.23046875,0,0
-2.263289570692E-05,1.4306529010355E-05,1.23046875,0,0
-2.0150435375399E-05,1.31530596263474E-05,1.23046875,0,0
-1.9317478290759E-05,1.23006666399306E-05,1.23046875,0,0
-2.02917635760969E-05,1.2336404324742E-05,1.23046875,0,0
-1.74412853084505E-05,1.04960445241886E-05,1.23046875,0,0
-2.4228624170064E-05,1.38345203595236E-05,1.23046875,0,0
-1.8763621483231E-05,9.08551191969309E-06,1.23046875,0,0
-2.62561970885145E-05,1.13042206066893E-05,1.23046875,0,0
-2.43428548856173E-05,8.46187140268739E-06,1.23046875,0,0
-2.5790492145461E-05,1.07464902612264E-05,1.23046875,0,0
-2.30761834245641E-05,1.06111920104013E-05,1.23046875,0,0
-2.45612081926083E-05,1.13385776785435E-05,1.23046875,0,0
-2.55007107625715E-05,1.07534133348963E-05,1.23046875,0,0
-2.66692022705683E-05,9.36026390263578E-06,1.23046875,0,0
-2.66673268924933E-05,8.26854193292093E-06,1.23046875,0,0
-2.52917379839346E-05,8.12748658063356E-06,1.23046875,0,0
-2.64320551650599E-05,1.06621300801635E-05,1.23046875,0,0
-2.54485585173825E-05,1.15166958494228E-05,1.23046875,0,0
-2.51876645052107E-05,1.29455893329578E-05,1.23046875,0,0
-2.26113916141912E-05,1.50007326737978E-05,1.23046875,0,0
-2.22560447582509E-05,1.92299903574167E-05,1.23046875,0,0
-2.10036523640156E-05,1.99781679839361E-05,1.23046875,0,0
-2.20012661884539E-05,1.82158055395121E-05,1.23046875,0,0
-2.12293798540486E-05,1.49282004713314E-05,1.23046875,0,0
-2.1514315449167E-05,1.3487249816535E-05,1.23046875,0,0
-2.1187610400375E-05,1.25391788969864E-05,1.23046875,0,0
-2.14094598049996E-05,1.19280148282996E-05,1.23046875,0,0
-2.0428909920156E-05,1.02728490674053E-05,1.23046875,0,0
-2.05916785489535E-05,1.04546152215335E-05,1.23046875,0,0
-2.15886448131641E-05,1.13587020678096E-05,1.23046875,0,0
-2.28559238166781E-05,9.94550828181673E-06,1.23046875,0,0
-2.02965184143977E-05,3.553676606316E-06,1.23046875,0,0
-2.93477587547386E-05,4.10216171076172E-06,1.23046875,0,0
-2.27523487410508E-05,6.17253772361437E-06,1.23046875,0,0
-2.9518865630962E-05,1.27168605104089E-05,1.23046875,0,0
-2.7706091714208E-05,1.11964563984657E-05,1.23046875,0,0
-3.06671754515264E-05,7.59452177589992E-06,1.23046875,0,0
-2.79367195616942E-05,2.26911538447894E-06,1.23046875,0,0
-2.84396846836898E-05,-1.07316066078056E-06,1.23046875,0,0
-2.82984165096423E-05,-2.83048848359613E-06,1.23046875,0,0
-3.03918732242892E-05,-3.41030226991279E-06,1.23046875,0,0
-3.30690236296505E-05,-2.08616688723851E-06,1.23046875,0,0
-3.35289078066126E-05,2.70017790171551E-06,1.23046875,0,0
-3.44569198205136E-05,9.65917843132047E-06,1.23046875,0,0
-3.33254138240591E-05,1.39355734063429E-05,1.23046875,0,0
-3.41389677487314E-05,1.57610847963952E-05,1.23046875,0,0
-3.20897452183999E-05,1.53265482367715E-05,1.23046875,0,0
-3.13031669065822E-05,1.41665577757522E-05,1.23046875,0,0
-2.94505443889648E-05,1.25388314700103E-05,1.23046875,0,0
-3.04823861370096E-05,1.26195654956973E-05,1.23046875,0,0
-2.8632557587116E-05,1.3266106179799E-05,1.23046875,0,0
-2.77878898486961E-05,1.42497619890491E-05,1.23046875,0,0
-2.74662597803399E-05,1.52690081449691E-05,1.23046875,0,0
-2.91772867058171E-05,1.68554852280067E-05,1.23046875,0,0
-2.91826836473774E-05,1.63249897013884E-05,1.23046875,0,0
-2.86146205326077E-05,1.22609699246823E-05,1.23046875,0,0
-2.76904174825177E-05,6.6550728661241E-06,1.23046875,0,0
-2.70607488346286E-05,3.60801232091035E-06,1.23046875,0,0
-2.12421400647145E-05,4.78236233902862E-06,1.23046875,0,0
-2.9001479560975E-05,9.12100858840859E-06,1.23046875,0,0
-2.05346914299298E-05,8.87107944436139E-06,1.23046875,0,0
-2.56694893323584E-05,8.14221857581288E-06,1.23046875,0,0
-2.01353796001058E-05,5.37435744263348E-06,1.23046875,0,0
-2.21097707253648E-05,6.74863804306369E-06,1.23046875,0,0
-1.99001115106512E-05,9.57245720201172E-06,1.23046875,0,0
-2.23351034946973E-05,1.01226787592168E-05,1.23046875,0,0
-2.26703868975164E-05,9.39967776503181E-06,1.23046875,0,0
-2.255085928482E-05,8.01373516878812E-06,1.23046875,0,0
-2.12614213523921E-05,6.17661771684652E-06,1.23046875,0,0
-1.80843690031907E-05,5.05622119817417E-06,1.23046875,0,0
-1.65301462402567E-05,5.18027673024335E-06,1.23046875,0,0
-1.43107172334567E-05,5.55763517695596E-06,1.23046875,0,0
-1.5953897673171E-05,6.39957215753384E-06,1.23046875,0,0
-1.63776821864303E-05,5.93570894125151E-06,1.23046875,0,0
-1.91632880159887E-05,3.70250404557737E-06,1.23046875,0,0
-1.91020808415487E-05,-2.23062315285461E-07,1.23046875,0,0
-2.09987738344353E-05,-2.61828154179966E-06,1.23046875,0,0
-2.02038772840751E-05,-3.1771764952282E-06,1.23046875,0,0
-2.03934323508292E-05,-3.95659799323766E-06,1.23046875,0,0
-1.96937344298931E-05,-4.49236722488422E-06,1.23046875,0,0
-2.0661993403337E-05,-1.5690631016696E-06,1.23046875,0,0
-2.09482186619425E-05,3.18820048050839E-06,1.23046875,0,0
-2.17146480281372E-05,6.42402665107511E-06,1.23046875,0,0
-2.115017559845E-05,9.59020326263271E-06,1.23046875,0,0
-2.06521108339075E-05,1.20833947221399E-05,1.23046875,0,0
-1.5952256944729E-05,9.92915011011064E-06,1.23046875,0,0
-2.2093030565884E-05,1.49258712554001E-05,1.23046875,0,0
-1.66403533512494E-05,1.26605991681572E-05,1.23046875,0,0
-2.14133979170583E-05,1.39848552862532E-05,1.23046875,0,0
-1.91995168279391E-05,1.05651379271876E-05,1.23046875,0,0
-2.25254207180114E-05,1.45846597661148E-05,1.23046875,0,0
-2.18327149923425E-05,1.65367837325903E-05,1.23046875,0,0
-2.46847685048124E-05,1.74446067831013E-05,1.23046875,0,0
-2.49229378823657E-05,1.65401961567113E-05,1.23046875,0,0
-2.42762871494051E-05,1.61514290084597E-05,1.23046875,0,0
-2.39399105339544E-05,1.56977512233425E-05,1.23046875,0,0
-2.37634776567575E-05,1.58184902829817E-05,1.23046875,0,0
-2.48256928898627E-05,1.75659097294556E-05,1.23046875,0,0
-2.33314822253305E-05,1.61286789079895E-05,1.23046875,0,0
-2.26815536734648E-05,1.24902089737589E-05,1.23046875,0,0
-2.05578235181747E-05,8.22032234282233E-06,1.23046875,0,0
-2.18383192986948E-05,8.79967228684109E-06,1.23046875,0,0
-2.21745212911628E-05,1.19146525321412E-05,1.23046875,0,0
-2.39020664594136E-05,1.72641975950683E-05,1.23046875,0,0
-2.38471748161828E-05,1.94587901205523E-05,1.23046875,0,0
-2.46993276959984E-05,1.88234080269467E-05,1.23046875,0,0
-2.42251790041337E-05,1.67436028277734E-05,1.23046875,0,0
-2.40327954088571E-05,1.69382892636349E-05,1.23046875,0,0
-2.40317149291513E-05,1.73066746356199E-05,1.23046875,0,0
-2.65344460785855E-05,1.60098370542983E-05,1.23046875,0,0
-2.83841964119347E-05,1.31679043988697E-05,1.23046875,0,0
-3.02493408526061E-05,9.43709255807335E-06,1.23046875,0,0
-2.5992618247983E-05,1.36993435262411E-06,1.23046875,0,0
-3.51298986061011E-05,-1.35635514197929E-06,1.23046875,0,0
-2.42252353928052E-05,4.99547581966908E-07,1.23046875,0,0
-3.23013809975237E-05,1.07978248706786E-05,1.23046875,0,0
-2.85513597191311E-05,1.57622780534439E-05,1.23046875,0,0
-3.24270986311603E-05,1.75779314304236E-05,1.23046875,0,0
-2.84762118099025E-05,1.66394383995794E-05,1.23046875,0,0
-2.82220225926721E-05,1.75143250089604E-05,1.23046875,0,0
-2.7083427994512E-05,1.89768852578709E-05,1.23046875,0,0
-2.82055134448456E-05,1.86359065992292E-05,1.23046875,0,0
-2.92978311335901E-05,1.6386655261158E-05,1.23046875,0,0
-2.85334153886652E-05,1.57510112330783E-05,1.23046875,0,0
-2.98858976748306E-05,1.76483590621501E-05,1.23046875,0,0
-2.89216914097779E-05,1.84360796993133E-05,1.23046875,0,0
-3.01673208014108E-05,1.79996241058689E-05,1.23046875,0,0
-2.78468360193074E-05,1.66826121130725E-05,1.23046875,0,0
-2.83714725810569E-05,1.66103454830591E-05,1.23046875,0,0
-2.72609486273723E-05,1.63086551765446E-05,1.23046875,0,0
-2.96199523290852E-05,1.54894059960498E-05,1.23046875,0,0
-2.91049818770261E-05,1.35677219077479E-05,1.23046875,0,0
-2.99864932458149E-05,1.28777001009439E-05,1.23046875,0,0
-2.95975678454852E-05,1.29577374536893E-05,1.23046875,0,0
-3.01618656521896E-05,1.25979549920885E-05,1.23046875,0,0
-2.84347534034168E-05,1.12754469228094E-05,1.23046875,0,0
-2.82940145552857E-05,1.13808846435859E-05,1.23046875,0,0
-2.85978185274871E-05,1.14013737402274E-05,1.23046875,0,0
-2.81331394944573E-05,8.58947441884084E-06,1.23046875,0,0
-2.22173275687965E-05,3.53044674739067E-06,1.23046875,0,0
-3.12545744236559E-05,4.64906861452619E-06,1.23046875,0,0
-2.36838823184371E-05,5.01943759445567E-06,1.23046875,0,0
-2.87500442937016E-05,8.92363732418744E-06,1.23046875,0,0
-2.18210007005837E-05,9.30455462366808E-06,1.23046875,0,0
-2.14972878893605E-05,1.0426666449348E-05,1.23046875,0,0
-1.70294679264771E-05,9.32001785258763E-06,1.23046875,0,0
-1.8374397768639E-05,8.57069244375452E-06,1.23046875,0,0
-1.84436357812956E-05,8.48920717544388E-06,1.23046875,0,0
-1.9391243768041E-05,7.7310160122579E-06,1.23046875,0,0
-1.97198787645902E-05,5.81546737521421E-06,1.23046875,0,0
-1.92876686924137E-05,5.12853466716479E-06,1.23046875,0,0
-2.13634993997402E-05,5.7847050811688E-06,1.23046875,0,0
-2.10504895221675E-05,6.19396314505138E-06,1.23046875,0,0
-2.18257428059587E-05,8.16615920484765E-06,1.23046875,0,0
-1.9566590708564E-05,1.06976094684796E-05,1.23046875,0,0
-2.0482986656134E-05,1.30985208670609E-05,1.23046875,0,0
-1.99486094061285E-05,1.36472381200292E-05,1.23046875,0,0
-2.18325130845187E-05,1.34865040308796E-05,1.23046875,0,0
-2.1289295546012E-05,1.28670981212053E-05,1.23046875,0,0
-2.18682871491183E-05,1.24361467896961E-05,1.23046875,0,0
-2.02776082005585E-05,1.11515437311027E-05,1.23046875,0,0
-2.02330320462352E-05,1.05231965790153E-05,1.23046875,0,0
-1.98320631170645E-05,9.78829302766826E-06,1.23046875,0,0
-2.02830942725996E-05,8.71450902195647E-06,1.23046875,0,0
-1.93037358258152E-05,8.67925245984225E-06,1.23046875,0,0
-1.71662086358992E-05,9.94940819509793E-06,1.23046875,0,0
-1.25624846987193E-05,8.29584860184696E-06,1.23046875,0,0
-1.82936237251852E-05,1.02346266430686E-05,1.23046875,0,0
-1.47460777952801E-05,4.92751451020013E-06,1.23046875,0,0
-1.74156393768499E-05,5.67322967981454E-06,1.23046875,0,0
-1.24279467854649E-05,2.25564576794568E-06,1.23046875,0,0
-1.14116082841065E-05,2.92730624096293E-06,1.23046875,0,0
-9.35368370846845E-06,3.01033833238762E-06,1.23046875,0,0
-1.05025446828222E-05,4.71074963570572E-06,1.23046875,0,0
-1.12108891698881E-05,6.28601810603868E-06,1.23046875,0,0
-1.21752336781356E-05,7.79087531554978E-06,1.23046875,0,0
-1.34465653900406E-05,8.15010480437195E-06,1.23046875,0,0
-1.46135780596524E-05,7.48360753277666E-06,1.23046875,0,0
-1.67503822012804E-05,7.88227043813095E-06,1.23046875,0,0
-1.75375389517285E-05,8.47667615744285E-06,1.23046875,0,0
-1.96040418813936E-05,1.04374148577335E-05,1.23046875,0,0
-2.04388525162358E-05,1.12313937279396E-05,1.23046875,0,0
-2.20530637307093E-05,1.16931287266198E-05,1.23046875,0,0
-2.21055033762241E-05,1.0028409633378E-05,1.23046875,0,0
-2.39625787799014E-05,9.26696611713851E-06,1.23046875,0,0
-2.49292534135748E-05,8.66313348524272E-06,1.23046875,0,0
-2.63311721937498E-05,1.01671794254798E-05,1.23046875,0,0
-2.70182954409393E-05,1.22323772302479E-05,1.23046875,0,0
-2.6924619305646E-05,1.38548384711612E-05,1.23046875,0,0
-2.4735138140386E-05,1.35633872559993E-05,1.23046875,0,0
-2.44007169385441E-05,1.14767108243541E-05,1.23046875,0,0
-2.56542516581248E-05,7.98091787146404E-06,1.23046875,0,0
-2.71656444965629E-05,5.70699330637581E-06,1.23046875,0,0
-2.25793592107948E-05,5.19750301464228E-06,1.23046875,0,0
-3.25397086271551E-05,8.24869312054943E-06,1.23046875,0,0
-2.57933843386127E-05,4.56236784884823E-06,1.23046875,0,0
-3.26843692164402E-05,-5.6540238801972E-07,1.23046875,0,0
-2.93299563054461E-05,-5.97925009060418E-06,1.23046875,0,0
-3.33544849127065E-05,-3.9470496631111E-06,1.23046875,0,0
-3.01491945720045E-05,-1.94583179791152E-07,1.23046875,0,0
-3.11066251015291E-05,2.1249579731375E-06,1.23046875,0,0
-3.15242068609223E-05,4.64553841084125E-06,1.23046875,0,0
-3.30362054228317E-05,8.62253727973439E-06,1.23046875,0,0
-3.32958989019971E-05,1.23054669529665E-05,1.23046875,0,0
-3.15046636387706E-05,1.47193022712599E-05,1.23046875,0,0
-3.07974332827143E-05,1.52307966345688E-05,1.23046875,0,0
-2.87938310066238E-05,1.34465117298532E-05,1.23046875,0,0
-3.0385219361051E-05,1.07706991911982E-05,1.23046875,0,0
-2.92453714791918E-05,8.71550491865491E-06,1.23046875,0,0
-2.94944293273147E-05,1.10826440504752E-05,1.23046875,0,0
-2.81223856291035E-05,1.49721454363316E-05,1.23046875,0,0
-2.98298236884875E-05,1.73702264874009E-05,1.23046875,0,0
-2.82986911770422E-05,1.71147221408319E-05,1.23046875,0,0
-2.82449709629873E-05,1.54547542479122E-05,1.23046875,0,0
-2.66803781414637E-05,1.43277093229699E-05,1.23046875,0,0
-2.59811477008043E-05,1.5869778508204E-05,1.23046875,0,0
-2.50848370342283E-05,1.60667859745445E-05,1.23046875,0,0
-2.52599638770334E-05,1.4157729310682E-05,1.23046875,0,0
-2.55113554885611E-05,1.3630575267598E-05,1.23046875,0,0
-2.63629099208629E-05,1.62357828230597E-05,1.23046875,0,0
-2.11214246519376E-05,1.57744125317549E-05,1.23046875,0,0
-2.8396863854141E-05,2.15433101402596E-05,1.23046875,0,0
-1.91990948223975E-05,1.28486508401693E-05,1.23046875,0,0
-2.55339218711015E-05,1.21539433166618E-05,1.23046875,0,0
-2.22119197132997E-05,5.92827518630656E-06,1.23046875,0,0
-2.41903617279604E-05,7.86056079959963E-06,1.23046875,0,0
-2.08550027309684E-05,5.81762196816271E-06,1.23046875,0,0
-2.17380329559091E-05,6.41589986116742E-06,1.23046875,0,0
-2.17663964576786E-05,7.29103521734942E-06,1.23046875,0,0
-2.1539408407989E-05,1.01612995422329E-05,1.23046875,0,0
-2.04033422050998E-05,1.34605643324903E-05,1.23046875,0,0
-1.9001974578714E-05,1.44302885018988E-05,1.23046875,0,0
-1.96346827578964E-05,1.3122737982485E-05,1.23046875,0,0
-1.884675839392E-05,8.40558550407877E-06,1.23046875,0,0
-2.08649471460376E-05,5.86483656661585E-06,1.23046875,0,0
-1.98018024093471E-05,3.93602658732561E-06,1.23046875,0,0
-1.93564465007512E-05,6.22408242634265E-06,1.23046875,0,0
-1.64717384905089E-05,6.525103799504E-06,1.23046875,0,0
-1.74200540641323E-05,6.0981969909335E-06,1.23046875,0,0
-1.73626685864292E-05,3.01638874589116E-06,1.23046875,0,0
-1.85954741027672E-05,2.19672051571251E-06,1.23046875,0,0
-1.78401060111355E-05,2.85485202766722E-06,1.23046875,0,0
-1.71826450241497E-05,6.78784545016242E-06,1.23046875,0,0
-1.51354051922681E-05,9.77064064500155E-06,1.23046875,0,0
-1.3200736248109E-05,1.05125845948351E-05,1.23046875,0,0
-1.10077362478478E-05,1.07507694337983E-05,1.23046875,0,0
-1.04867040136014E-05,1.21926441352116E-05,1.23046875,0,0
-9.98339510260848E-06,1.16051078293822E-05,1.23046875,0,0
-1.55276957229944E-05,1.72032068803674E-05,1.23046875,0,0
-1.45564845297486E-05,1.24518646771321E-05,1.23046875,0,0
-1.83078736881725E-05,1.21522416520747E-05,1.23046875,0,0
-1.65965866472106E-05,9.26237862586277E-06,1.23046875,0,0
-1.83436586667085E-05,1.3433121239359E-05,1.23046875,0,0
-2.03345553018153E-05,1.38394561872701E-05,1.23046875,0,0
-2.40952576859854E-05,1.26714430734864E-05,1.23046875,0,0
-2.50972025241936E-05,9.99442454485688E-06,1.23046875,0,0
-2.44815164478496E-05,6.41486440144945E-06,1.23046875,0,0
-2.27868458750891E-05,2.88972887574346E-06,1.23046875,0,0
-2.02382088900777E-05,3.54716371475661E-06,1.23046875,0,0
-1.86587349162437E-05,8.42483223095769E-06,1.23046875,0,0
-1.68175192811759E-05,1.14621134343906E-05,1.23046875,0,0
-1.5894587704679E-05,1.32810400828021E-05,1.23046875,0,0
-1.42510652949568E-05,1.27924213302322E-05,1.23046875,0,0
-1.47295104397926E-05,1.38852783493348E-05,1.23046875,0,0
-1.44770710903686E-05,1.4658406144008E-05,1.23046875,0,0
-1.42683247759123E-05,1.64470820891438E-05,1.23046875,0,0
-1.29363352243672E-05,1.64333414431894E-05,1.23046875,0,0
-1.31733067973983E-05,1.61233474500477E-05,1.23046875,0,0
-1.45205658554914E-05,1.5295732737286E-05,1.23046875,0,0
-1.70425973919919E-05,1.67923644767143E-05,1.23046875,0,0
-1.82870662683854E-05,1.84257769433316E-05,1.23046875,0,0
-1.87785772141069E-05,1.91849285329226E-05,1.23046875,0,0
-1.89275397133315E-05,1.83955799002433E-05,1.23046875,0,0
-2.01631246454781E-05,1.89303154911613E-05,1.23046875,0,0
-1.85149365279358E-05,1.70177318068454E-05,1.23046875,0,0
-2.69745178229641E-05,2.5373095922987E-05,1.23046875,0,0
-1.94971944438294E-05,1.97745721379761E-05,1.23046875,0,0
-2.3327314920607E-05,2.27579203055939E-05,1.23046875,0,0
-2.21166210394586E-05,1.82702497113496E-05,1.23046875,0,0
-2.76803675660631E-05,2.03098607016727E-05,1.23046875,0,0
-2.83616627712036E-05,1.75280511029996E-05,1.23046875,0,0
-3.02463831758359E-05,1.60074341692962E-05,1.23046875,0,0
-2.96142716251779E-05,1.54101908265147E-05,1.23046875,0,0
-2.89343952317722E-05,1.62943106261082E-05,1.23046875,0,0
-2.7228497856413E-05,1.68012993526645E-05,1.23046875,0,0
-2.49386193900136E-05,1.68180340551771E-05,1.23046875,0,0
-2.52288391493494E-05,1.86745073733618E-05,1.23046875,0,0
-2.46985764533747E-05,1.73824610101292E-05,1.23046875,0,0
-2.62784124061E-05,1.45679478009697E-05,1.23046875,0,0
-2.64409754890949E-05,9.86862869467586E-06,1.23046875,0,0
-2.82476848951774E-05,8.67488688527374E-06,1.23046875,0,0
-2.80037074844586E-05,7.09237383489381E-06,1.23046875,0,0
-2.98192353511695E-05,7.07496110408101E-06,1.23046875,0,0
-2.95224435831187E-05,7.08556035533547E-06,1.23046875,0,0
-2.97086753562326E-05,1.03336724350811E-05,1.23046875,0,0
-2.79044979833998E-05,1.32682416733587E-05,1.23046875,0,0
-2.6520687242737E-05,1.62503456522245E-05,1.23046875,0,0
-2.55171235039597E-05,1.73491462192032E-05,1.23046875,0,0
-2.64369537035236E-05,1.84989967237925E-05,1.23046875,0,0
-2.64124846580671E-05,1.86837241926696E-05,1.23046875,0,0
-2.55254617513856E-05,1.94464228115976E-05,1.23046875,0,0
-2.16490352613619E-05,1.45660933412728E-05,1.23046875,0,0
-3.16861260216683E-05,1.88688500202261E-05,1.23046875,0,0
-2.5171213565045E-05,1.27240537040052E-05,1.23046875,0,0
-3.16486948577221E-05,1.75943641806953E-05,1.23046875,0,0
-2.94902893074322E-05,1.42827266245149E-05,1.23046875,0,0
-3.36383454850875E-05,1.63219865498832E-05,1.23046875,0,0
-3.07555746985599E-05,1.55127618199913E-05,1.23046875,0,0
-3.05293906421866E-05,1.61229781951988E-05,1.23046875,0,0
-2.86502272501821E-05,1.39897447297699E-05,1.23046875,0,0
-2.89303752651904E-05,8.5347173808259E-06,1.23046875,0,0
-3.02592961816117E-05,-3.17116337100742E-06,1.23046875,0,0
-2.99162129522301E-05,-1.35696045617806E-05,1.23046875,0,0
-2.99212097161217E-05,-1.3926561223343E-05,1.23046875,0,0
-2.84376110357698E-05,-9.00978193385527E-06,1.23046875,0,0
-3.00748797599226E-05,-1.37509687192505E-06,1.23046875,0,0
-2.87021739495685E-05,2.30883597396314E-06,1.23046875,0,0
-2.8695563742076E-05,5.02741886521108E-06,1.23046875,0,0
-2.66445367742563E-05,3.93015488953097E-06,1.23046875,0,0
-2.77599374385318E-05,3.75629929294519E-06,1.23046875,0,0
-2.78727529803291E-05,4.24207746618777E-06,1.23046875,0,0
-2.94503861368867E-05,7.13692043063929E-06,1.23046875,0,0
-2.77769431704655E-05,7.00362897987361E-06,1.23046875,0,0
-2.620015766297E-05,6.56986958347261E-06,1.23046875,0,0
-2.5420091333217E-05,6.89130365572055E-06,1.23046875,0,0
-2.57359497481957E-05,9.25820768316044E-06,1.23046875,0,0
-2.44180064328248E-05,1.08549520518864E-05,1.23046875,0,0
-2.39273031183984E-05,1.18135603770497E-05,1.23046875,0,0
-1.94842195924139E-05,1.00981551440782E-05,1.23046875,0,0
-2.6210011128569E-05,1.11380686576013E-05,1.23046875,0,0
-1.88814919965807E-05,1.29928218939313E-06,1.23046875,0,0
-2.48849191848421E-05,-1.34911590521369E-06,1.23046875,0,0
-2.09379504667595E-05,-2.53145412898448E-06,1.23046875,0,0
-2.34277613344602E-05,5.37468758921023E-06,1.23046875,0,0
-2.06133627216332E-05,9.44920157053275E-06,1.23046875,0,0
-2.14603987842565E-05,1.15815091703553E-05,1.23046875,0,0
-2.1517655113712E-05,9.45915689953836E-06,1.23046875,0,0
-2.33057708101114E-05,5.34031687493552E-06,1.23046875,0,0
-2.48162141360808E-05,1.66304641879833E-06,1.23046875,0,0
-2.44979473791318E-05,1.35894015329541E-06,1.23046875,0,0
-2.65212038357276E-05,3.74392402591184E-06,1.23046875,0,0
-2.76018108706921E-05,3.81372547053616E-06,1.23046875,0,0
-3.09104070765898E-05,4.81640654470539E-06,1.23046875,0,0
-3.06824476865586E-05,5.39432539881091E-06,1.23046875,0,0
-3.17329213430639E-05,6.94074333296157E-06,1.23046875,0,0
-3.15038523694966E-05,6.18712465438875E-06,1.23046875,0,0
-3.43284737027716E-05,7.4688305176096E-06,1.23046875,0,0
-3.42953935614787E-05,1.05784920378937E-05,1.23046875,0,0
-3.38404097419698E-05,1.50084615597734E-05,1.23046875,0,0
-3.24266366078518E-05,1.56588994286722E-05,1.23046875,0,0
-3.37264646077529E-05,1.51270078276866E-05,1.23046875,0,0
-3.45480439136736E-05,1.50031237353687E-05,1.23046875,0,0
-3.50992850144394E-05,1.66008940141182E-05,1.23046875,0,0
-3.41578306688461E-05,1.79661183210555E-05,1.23046875,0,0
-3.3659231121419E-05,1.8972346879309E-05,1.23046875,0,0
-2.73601017397596E-05,1.55134475789964E-05,1.23046875,0,0
-3.82444050046615E-05,2.15424443013035E-05,1.23046875,0,0
-2.61548921116628E-05,1.68017086252803E-05,1.23046875,0,0
-3.09261376969516E-05,2.07395623874618E-05,1.23046875,0,0
-2.46116123889806E-05,1.49917559610913E-05,1.23046875,0,0
-2.78173229162348E-05,1.59990377142094E-05,1.23046875,0,0
-2.47230655077146E-05,1.48626450027223E-05,1.23046875,0,0
-2.55568393185968E-05,1.57889826368773E-05,1.23046875,0,0
-2.35547759075416E-05,1.31424167193472E-05,1.23046875,0,0
-2.29587203648407E-05,1.19759997687652E-05,1.23046875,0,0
-2.32275087910239E-05,1.19676496979082E-05,1.23046875,0,0
-2.23463903239463E-05,1.15691336759483E-05,1.23046875,0,0
-2.28110711759655E-05,1.25159685921972E-05,1.23046875,0,0
-2.00458434846951E-05,1.08256472231005E-05,1.23046875,0,0
-2.01543352886802E-05,1.11576100607635E-05,1.23046875,0,0
-1.84950258699246E-05,1.13085334305651E-05,1.23046875,0,0
-1.97515582840424E-05,1.37141123559559E-05,1.23046875,0,0
-1.84895670827245E-05,1.39623771246988E-05,1.23046875,0,0
-2.1005425878684E-05,1.6340498405043E-05,1.23046875,0,0
-2.11715123441536E-05,1.6564359611948E-05,1.23046875,0,0
-2.17914603126701E-05,1.70482580870157E-05,1.23046875,0,0
-1.92866991710616E-05,1.69877057487611E-05,1.23046875,0,0
-1.84194341272814E-05,1.71921037690481E-05,1.23046875,0,0
-1.67372909345431E-05,1.48647995956708E-05,1.23046875,0,0
-1.70955590874655E-05,1.24712460092269E-05,1.23046875,0,0
-1.84780910785776E-05,1.14980111902696E-05,1.23046875,0,0
-1.92955612874357E-05,1.17599056466133E-05,1.23046875,0,0
-1.59708379214862E-05,7.23583934814087E-06,1.23046875,0,0
-2.36517626035493E-05,8.397905730817E-06,1.23046875,0,0
-2.08484725590097E-05,6.67799395159818E-06,1.23046875,0,0
-2.67498380708275E-05,1.13413707367727E-05,1.23046875,0,0
-2.39767014136305E-05,9.80074946710374E-06,1.23046875,0,0
-2.50605426117545E-05,1.06741890704143E-05,1.23046875,0,0
-2.09266017918708E-05,8.21684170659864E-06,1.23046875,0,0
-1.98730194824748E-05,7.06631954017212E-06,1.23046875,0,0
-1.93121995835099E-05,6.78405149301398E-06,1.23046875,0,0
-2.00688882614486E-05,8.68691222422058E-06,1.23046875,0,0
-2.02356150111882E-05,1.07701498563983E-05,1.23046875,0,0
-1.97421941265929E-05,1.05713079392444E-05,1.23046875,0,0
-1.97851040866226E-05,1.06028910522582E-05,1.23046875,0,0
-1.6803807739052E-05,1.14712083814084E-05,1.23046875,0,0
-1.63851527759107E-05,1.36729067889974E-05,1.23046875,0,0
-1.6000280083972E-05,1.25605647554039E-05,1.23046875,0,0
-1.80944680323591E-05,1.02322401289712E-05,1.23046875,0,0
-1.86819670489058E-05,6.67704398438218E-06,1.23046875,0,0
-2.01827642740682E-05,4.80322660223464E-06,1.23046875,0,0
-1.86810357263312E-05,3.1771144222148E-06,1.23046875,0,0
-1.75216518982779E-05,4.46113563157269E-06,1.23046875,0,0
-1.60816944116959E-05,8.38889172882773E-06,1.23046875,0,0
-1.59106512001017E-05,1.41582504511462E-05,1.23046875,0,0
-1.48362751133391E-05,1.75474178831792E-05,1.23046875,0,0
-1.47830787682324E-05,1.84038162842626E-05,1.23046875,0,0
-1.43720553751336E-05,1.77122783497907E-05,1.23046875,0,0
-1.4738984646101E-05,1.69388767972123E-05,1.23046875,0,0
-1.33628573166789E-05,1.15554312287713E-05,1.23046875,0,0
-1.98645866475999E-05,1.46271304402035E-05,1.23046875,0,0
-1.59365044964943E-05,1.08558970168815E-05,1.23046875,0,0
-1.8601936972118E-05,1.49160205182852E-05,1.23046875,0,0
-1.54576373461168E-05,8.59002557263011E-06,1.23046875,0,0
-1.91062572412193E-05,6.08512345934287E-06,1.23046875,0,0
-2.0011220840388E-05,1.8367868506175E-06,1.23046875,0,0
-2.02980008907616E-05,2.64609980149544E-06,1.23046875,0,0
-1.88579542736989E-05,5.44614522368647E-06,1.23046875,0,0
-1.79150665644556E-05,9.6720696092234E-06,1.23046875,0,0
-1.80395381903509E-05,1.17856634460622E-05,1.23046875,0,0
-1.86351680895314E-05,1.09129105112515E-05,1.23046875,0,0
-2.01617931452347E-05,9.82159326667897E-06,1.23046875,0,0
-1.9959952624049E-05,7.87738281360362E-06,1.23046875,0,0
-2.13351268030237E-05,8.84916335053276E-06,1.23046875,0,0
-2.20050151256146E-05,8.39799486129778E-06,1.23046875,0,0
-2.45087958319345E-05,8.20887089503231E-06,1.23046875,0,0
-2.59183234447846E-05,5.38336098543368E-06,1.23046875,0,0
-2.71318785962649E-05,3.59822001883003E-06,1.23046875,0,0
-2.59901880781399E-05,9.5704444902367E-07,1.23046875,0,0
-2.62960620602826E-05,-6.7379085066932E-07,1.23046875,0,0
-2.7559655791265E-05,-3.53339669345587E-06,1.23046875,0,0
-2.98998402286088E-05,-2.12919189834793E-06,1.23046875,0,0
-3.06807087326888E-05,3.72641670765006E-06,1.23046875,0,0
-3.15435208904091E-05,9.98862560663838E-06,1.23046875,0,0
-3.17481499223504E-05,1.38789318953059E-05,1.23046875,0,0
-3.16741898132022E-05,1.61875614139717E-05,1.23046875,0,0
-2.59800999629078E-05,1.3472178579832E-05,1.23046875,0,0
-3.80380297428928E-05,1.77175297721988E-05,1.23046875,0,0
-3.0178991437424E-05,1.28759484141483E-05,1.23046875,0,0
-3.81345562345814E-05,1.6125521142385E-05,1.23046875,0,0
-3.37655073963106E-05,9.97211100184359E-06,1.23046875,0,0
-3.68449364032131E-05,9.69950451690238E-06,1.23046875,0,0
-3.36164885084145E-05,8.2147153079859E-06,1.23046875,0,0
-3.47503882949241E-05,1.21080802273354E-05,1.23046875,0,0
-3.44384789059404E-05,1.55168472701916E-05,1.23046875,0,0
-3.5603079595603E-05,1.74033557414077E-05,1.23046875,0,0
-3.58657671313267E-05,1.70930379681522E-05,1.23046875,0,0
-3.34625437972136E-05,1.47696973726852E-05,1.23046875,0,0
-3.22306768794078E-05,1.17416539069382E-05,1.23046875,0,0
-2.87507464236114E-05,7.82471761340275E-06,1.23046875,0,0
-2.79422165476717E-05,9.24974119698163E-06,1.23046875,0,0
-2.50612793024629E-05,1.04587188616279E-05,1.23046875,0,0
-2.5843297407846E-05,1.16086357593304E-05,1.23046875,0,0
-2.47059961111518E-05,9.31923023017589E-06,1.23046875,0,0
-2.64885602518916E-05,7.43354712540167E-06,1.23046875,0,0
-2.66275164904073E-05,3.90428476748639E-06,1.23046875,0,0
-2.90603493340313E-05,3.2407115213573E-06,1.23046875,0,0
-2.85885926132323E-05,4.94211280965828E-06,1.23046875,0,0
-2.8397305868566E-05,9.1540023277048E-06,1.23046875,0,0
-2.82770160993095E-05,9.39729034143966E-06,1.23046875,0,0
-2.9868955607526E-05,5.26142775925109E-06,1.23046875,0,0
-3.00037409033393E-05,1.47494392876979E-06,1.23046875,0,0
-2.88357750832802E-05,3.28092210111208E-06,1.23046875,0,0
-2.22068847506307E-05,7.25067729945295E-06,1.23046875,0,0
-3.17918747896329E-05,1.23234731290722E-05,1.23046875,0,0
-2.59541593550239E-05,1.09085958683863E-05,1.23046875,0,0
-3.30821603711229E-05,1.13603837235132E-05,1.23046875,0,0
-2.78751267615007E-05,9.74708473222563E-06,1.23046875,0,0
-3.06187866954133E-05,1.02430740298587E-05,1.23046875,0,0
-2.88710652966984E-05,1.04595574157429E-05,1.23046875,0,0
-3.05829453282058E-05,1.28785804918152E-05,1.23046875,0,0
-2.97432306979317E-05,1.69222512340639E-05,1.23046875,0,0
-3.01738564303378E-05,1.99189180420944E-05,1.23046875,0,0
-3.1532603316009E-05,1.84041837201221E-05,1.23046875,0,0
-3.13228665618226E-05,1.59113806148525E-05,1.23046875,0,0
-3.14583558065351E-05,1.60420931933913E-05,1.23046875,0,0
-2.97050683002453E-05,1.66437657753704E-05,1.23046875,0,0
-3.09893002850004E-05,1.71824831340928E-05,1.23046875,0,0
-2.95861336780945E-05,1.47746613947675E-05,1.23046875,0,0
-2.99877301586093E-05,1.07836385723203E-05,1.23046875,0,0
-2.75163820333546E-05,7.03735622664681E-06,1.23046875,0,0
-2.7855754524353E-05,6.28817724646069E-06,1.23046875,0,0
-2.73578370979521E-05,6.38175788481021E-06,1.23046875,0,0
-2.87996954284608E-05,7.58368150854949E-06,1.23046875,0,0
-2.83154695353005E-05,9.26124266698025E-06,1.23046875,0,0
-2.85519290628145E-05,1.11670478872838E-05,1.23046875,0,0
-2.72090237558587E-05,1.24030011647847E-05,1.23046875,0,0
-2.49644726864062E-05,1.39799440148636E-05,1.23046875,0,0
-2.26441206905292E-05,1.49444613271044E-05,1.23046875,0,0
-2.2914529836271E-05,1.44742234624573E-05,1.23046875,0,0
-1.82677013071952E-05,1.04814234873629E-05,1.23046875,0,0
-2.39341807173332E-05,1.47718237712979E-05,1.23046875,0,0
-1.56591304403264E-05,1.40731426654384E-05,1.23046875,0,0
-2.09294594242238E-05,2.17289616557537E-05,1.23046875,0,0
-1.66318750416394E-05,2.17117540159961E-05,1.23046875,0,0
-1.64021821547067E-05,2.34663184528472E-05,1.23046875,0,0
-1.28388837765669E-05,2.09014451684197E-05,1.23046875,0,0
-1.56194728333503E-05,1.79379276232794E-05,1.23046875,0,0
-1.68480073625688E-05,1.30656917463057E-05,1.23046875,0,0
-1.53412656800356E-05,1.08445501609822E-05,1.23046875,0,0
-1.24489451991394E-05,1.24617017718265E-05,1.23046875,0,0
-1.00460292742355E-05,1.44283712870674E-05,1.23046875,0,0
-1.13493924800423E-05,1.28524670799379E-05,1.23046875,0,0
-1.29830832520383E-05,4.73067984785303E-06,1.23046875,0,0
-1.81220311787911E-05,-2.16807552533282E-06,1.23046875,0,0
-2.14820192923071E-05,-3.45944454238634E-06,1.23046875,0,0
-2.50036027864553E-05,3.0576275094063E-06,1.23046875,0,0
-2.39503860939294E-05,9.38936682359781E-06,1.23046875,0,0
-2.31650465138955E-05,1.30059042930952E-05,1.23046875,0,0
-2.12919658224564E-05,1.17887848318787E-05,1.23046875,0,0
-2.21682803385193E-05,1.18289135571104E-05,1.23046875,0,0
-2.25595103984233E-05,1.32339328047237E-05,1.23046875,0,0
-2.41670113609871E-05,1.50639989442425E-05,1.23046875,0,0
-2.39047913055401E-05,1.4658397049061E-05,1.23046875,0,0
-2.18323202716419E-05,1.10282708192244E-05,1.23046875,0,0
-1.89834881894058E-05,5.21667152497685E-06,1.23046875,0,0
-1.77151578100165E-05,2.02781916414096E-06,1.23046875,0,0
-1.45976846397389E-05,1.94652625395975E-06,1.23046875,0,0
-2.2649443053524E-05,5.95725350649445E-06,1.23046875,0,0
-1.9431554392213E-05,9.53181370277889E-06,1.23046875,0,0
-2.17812357732328E-05,9.63333332038019E-06,1.23046875,0,0
-1.7914315321832E-05,7.96261065261206E-06,1.23046875,0,0
-2.03774143301416E-05,8.96147957973881E-06,1.23046875,0,0
-2.07035518542398E-05,1.07888135971734E-05,1.23046875,0,0
-2.26073734665988E-05,1.02250469353748E-05,1.23046875,0,0
-2.15746313187992E-05,8.03496004664339E-06,1.23046875,0,0
-2.16291828110116E-05,6.25839311396703E-06,1.23046875,0,0
-2.40822300838772E-05,4.93795459988178E-06,1.23046875,0,0
-2.66198476310819E-05,3.17641388392076E-06,1.23046875,0,0
-2.83368826785591E-05,1.59107844410755E-06,1.23046875,0,0
-2.72544530162122E-05,1.45922069805238E-06,1.23046875,0,0
-2.70158780040219E-05,2.93925882033363E-06,1.23046875,0,0
-2.56508883467177E-05,3.76580032934726E-06,1.23046875,0,0
-2.654190393514E-05,3.89343813367304E-06,1.23046875,0,0
-2.63591682596598E-05,4.34727235187893E-06,1.23046875,0,0
-2.72520683211042E-05,5.32179046786041E-06,1.23046875,0,0
-2.56727707892424E-05,6.8705776357092E-06,1.23046875,0,0
-2.43267659243429E-05,8.68180723045953E-06,1.23046875,0,0
-2.23033111979021E-05,1.04475457192166E-05,1.23046875,0,0
-2.1424011720228E-05,1.29969239424099E-05,1.23046875,0,0
-2.0346837118268E-05,1.52985212480417E-05,1.23046875,0,0
-2.00165995920543E-05,1.3538389794121E-05,1.23046875,0,0
-1.93256710190326E-05,9.63293405220611E-06,1.23046875,0,0
-1.89555594261037E-05,9.34968011279125E-06,1.23046875,0,0
-1.62092637765454E-05,1.03392949313275E-05,1.23046875,0,0
-2.31504254770698E-05,1.73442986124428E-05,1.23046875,0,0
-1.69934082805412E-05,1.65388482855633E-05,1.23046875,0,0
-2.09746267501032E-05,1.83667943929322E-05,1.23046875,0,0
-1.80470397026511E-05,1.43762144944048E-05,1.23046875,0,0
-1.95154207176529E-05,1.50537834997522E-05,1.23046875,0,0
-1.63674321811413E-05,1.43227362059406E-05,1.23046875,0,0
-1.53896853589686E-05,1.53493892867118E-05,1.23046875,0,0
-1.47751898111892E-05,1.680137393123E-05,1.23046875,0,0
-1.61872794706142E-05,1.79753460542997E-05,1.23046875,0,0
-1.75066452356987E-05,1.85858152690344E-05,1.23046875,0,0
-1.72538493643515E-05,1.81441155291395E-05,1.23046875,0,0
-1.73581120179733E-05,1.68626393133309E-05,1.23046875,0,0
-1.54104982357239E-05,1.41073714985396E-05,1.23046875,0,0
-1.50484302139375E-05,1.31166307255626E-05,1.23046875,0,0
-1.41079890454421E-05,1.16654373414349E-05,1.23046875,0,0
-1.60787058121059E-05,1.15545281005325E-05,1.23046875,0,0
-1.61596617545001E-05,1.16286710181157E-05,1.23046875,0,0
-1.64155826496426E-05,1.33182020363165E-05,1.23046875,0,0
-1.46424190461403E-05,1.41125874506542E-05,1.23046875,0,0
-1.47806276800111E-05,1.52167285705218E-05,1.23046875,0,0
-1.40057663884363E-05,1.40017464218545E-05,1.23046875,0,0
-1.30835096570081E-05,1.23427098515094E-05,1.23046875,0,0
-1.21777229651343E-05,1.20748672998161E-05,1.23046875,0,0
-1.38720943141379E-05,1.36448834382463E-05,1.23046875,0,0
-1.66295449162135E-05,1.47118798849988E-05,1.23046875,0,0
-1.88147041626507E-05,1.34649544634158E-05,1.23046875,0,0
-1.59362625709036E-05,8.02315207693027E-06,1.23046875,0,0
-2.38184820773313E-05,8.66634673002409E-06,1.23046875,0,0
-2.08778074011207E-05,4.68255939267692E-06,1.23046875,0,0
-2.82028795481892E-05,9.7616875791573E-06,1.23046875,0,0
-2.78423030977137E-05,9.2563923317357E-06,1.23046875,0,0
-3.04934965242865E-05,9.68963468039874E-06,1.23046875,0,0
-2.7720763682737E-05,6.13532438364928E-06,1.23046875,0,0
-2.76514565484831E-05,5.32540570929996E-06,1.23046875,0,0
-2.76577648037346E-05,7.04485228197882E-06,1.23046875,0,0
-2.88441915472504E-05,8.83306893229019E-06,1.23046875,0,0
-2.91974738502176E-05,7.03794103174005E-06,1.23046875,0,0
-2.88322335109115E-05,4.10239363191067E-06,1.23046875,0,0
-3.00382980640279E-05,4.26448104917654E-06,1.23046875,0,0
-2.99941057164688E-05,5.6776966630423E-06,1.23046875,0,0
-3.12351621687412E-05,7.68889458413469E-06,1.23046875,0,0
-2.99362200166797E-05,7.30516467228881E-06,1.23046875,0,0
-2.98163049592404E-05,8.57592112879502E-06,1.23046875,0,0
-2.86966642306652E-05,1.01132463896647E-05,1.23046875,0,0
-3.04517434415175E-05,1.17135632535792E-05,1.23046875,0,0
-3.06532747345045E-05,1.09642160168733E-05,1.23046875,0,0
-3.083809860982E-05,1.20788572530728E-05,1.23046875,0,0
-2.96870330203092E-05,1.36374701469322E-05,1.23046875,0,0
-2.98989525617799E-05,1.4430614101002E-05,1.23046875,0,0
-3.00898773275549E-05,1.3246374692244E-05,1.23046875,0,0
-3.14981807605363E-05,1.07475270851864E-05,1.23046875,0,0
-3.2210155040957E-05,8.3114155131625E-06,1.23046875,0,0
-3.16146215482149E-05,8.5779638538952E-06,1.23046875,0,0
-2.53058678936213E-05,9.00152190297376E-06,1.23046875,0,0
-3.58792203769553E-05,1.23587315101759E-05,1.23046875,0,0
-2.73527148237918E-05,6.77820708006038E-06,1.23046875,0,0
-3.35924305545632E-05,5.75316153117456E-06,1.23046875,0,0
-2.78285406238865E-05,3.00586043522344E-06,1.23046875,0,0
-3.18881029670592E-05,4.13250290876022E-06,1.23046875,0,0
-2.87068069155794E-05,2.83189046967891E-06,1.23046875,0,0
-2.87660514004529E-05,4.51166533821379E-06,1.23046875,0,0
-2.80311396636534E-05,7.01874387232238E-06,1.23046875,0,0
-2.91668675345136E-05,9.86323357210495E-06,1.23046875,0,0
-2.83335430140141E-05,1.26476243167417E-05,1.23046875,0,0
-2.53837861237116E-05,1.36653152367217E-05,1.23046875,0,0
-2.49014192377217E-05,1.36311873575323E-05,1.23046875,0,0
-2.29966153710848E-05,1.19297292258125E-05,1.23046875,0,0
-2.49009353865404E-05,1.13716323539848E-05,1.23046875,0,0
-2.45064165937947E-05,9.03733780432958E-06,1.23046875,0,0
-2.59298667515395E-05,5.98295491727185E-06,1.23046875,0,0
-2.27413129323395E-05,2.25968415179523E-06,1.23046875,0,0
-2.09972859011032E-05,3.04024592878704E-06,1.23046875,0,0
-1.76871581061278E-05,6.33510171610396E-06,1.23046875,0,0
-1.80987717612879E-05,9.66160132520599E-06,1.23046875,0,0
-1.75093591678888E-05,1.04512782854727E-05,1.23046875,0,0
-1.85776953003369E-05,1.04633800219744E-05,1.23046875,0,0
-1.84108976100106E-05,9.07373578229453E-06,1.23046875,0,0
-1.85474364116089E-05,7.10981657903176E-06,1.23046875,0,0
-1.78341997525422E-05,5.55141468794318E-06,1.23046875,0,0
-1.78512345883064E-05,4.46565536549315E-06,1.23046875,0,0
-1.56989008246455E-05,2.33100149671372E-06,1.23046875,0,0
-2.20790316234343E-05,1.16933858862467E-06,1.23046875,0,0
-1.70677467394853E-05,-1.54303836552572E-06,1.23046875,0,0
-2.31179074035026E-05,5.36239724624465E-07,1.23046875,0,0
-2.25448802666506E-05,2.23106303565146E-06,1.23046875,0,0
-2.58610252785729E-05,4.73326872452162E-06,1.23046875,0,0
-2.4939536160673E-05,4.57327087133308E-06,1.23046875,0,0
-2.66196148004383E-05,1.96141149899631E-06,1.23046875,0,0
-2.77947619906627E-05,-4.9274586899628E-07,1.23046875,0,0
-2.88700230157701E-05,2.47572103262428E-07,1.23046875,0,0
-2.85228252323577E-05,4.24515155827976E-06,1.23046875,0,0
-2.72209963441128E-05,7.8255116022774E-06,1.23046875,0,0
-2.76558530458715E-05,8.31405304779764E-06,1.23046875,0,0
-2.6709227313404E-05,5.77289847569773E-06,1.23046875,0,0
-2.71244898613077E-05,4.03698413720122E-06,1.23046875,0,0
-2.54138612945098E-05,4.11437486036448E-06,1.23046875,0,0
-2.62187168118544E-05,6.26425844529876E-06,1.23046875,0,0
-2.68402036454063E-05,7.91855745774228E-06,1.23046875,0,0
-2.81697975879069E-05,7.39758024792536E-06,1.23046875,0,0
-2.66947754425928E-05,5.16007139594876E-06,1.23046875,0,0
-2.65193466475466E-05,5.27067322764196E-06,1.23046875,0,0
-2.61579098150833E-05,8.95689845492598E-06,1.23046875,0,0
-2.6868356144405E-05,1.40877200465184E-05,1.23046875,0,0
-2.66714869212592E-05,1.64251232490642E-05,1.23046875,0,0
-2.65221333393129E-05,1.50342975757667E-05,1.23046875,0,0
-2.65400540229166E-05,1.36752678372432E-05,1.23046875,0,0
-2.64696864178404E-05,1.42699027492199E-05,1.23046875,0,0
-2.15166946873069E-05,1.29132567963097E-05,1.23046875,0,0
-3.14904536935501E-05,1.94563272088999E-05,1.23046875,0,0
-2.46447089011781E-05,1.7417050912627E-05,1.23046875,0,0
-2.9199287382653E-05,2.17291944863973E-05,1.23046875,0,0
-2.26566407945938E-05,1.83330630534329E-05,1.23046875,0,0
-2.28332573897205E-05,2.06550048460485E-05,1.23046875,0,0
-2.04329007829074E-05,1.86319266504142E-05,1.23046875,0,0
-2.28515891649295E-05,1.81681079993723E-05,1.23046875,0,0
-2.29384022532031E-05,1.80737133632647E-05,1.23046875,0,0
-2.41322341025807E-05,1.69295799423708E-05,1.23046875,0,0
-2.47518419200787E-05,1.42404551297659E-05,1.23046875,0,0
-2.36154373851605E-05,1.24628568300977E-05,1.23046875,0,0
-2.42283367697382E-05,1.47159471453051E-05,1.23046875,0,0
-2.32168622460449E-05,1.64423781825462E-05,1.23046875,0,0
-2.46402832999593E-05,1.9481614799588E-05,1.23046875,0,0
-2.45529317908222E-05,2.09364934562473E-05,1.23046875,0,0
-2.69409756583627E-05,2.21113677980611E-05,1.23046875,0,0
-2.70849213848123E-05,2.06774584512459E-05,1.23046875,0,0
-2.91161359200487E-05,1.99707938008942E-05,1.23046875,0,0
-2.81318680208642E-05,1.81492359843105E-05,1.23046875,0,0
-2.79667674476514E-05,1.85970166057814E-05,1.23046875,0,0
-2.60644701484125E-05,1.88310132216429E-05,1.23046875,0,0
-2.51623969234061E-05,1.8500495571061E-05,1.23046875,0,0
-2.40241861320101E-05,1.75187688000733E-05,1.23046875,0,0
-2.50730608968297E-05,1.89571055670967E-05,1.23046875,0,0
-2.65069538727403E-05,1.87806126632495E-05,1.23046875,0,0
-2.61959321505856E-05,1.55109828483546E-05,1.23046875,0,0
-1.83855463546934E-05,9.66228890320053E-06,1.23046875,0,0
-2.38847933360375E-05,1.37468168759369E-05,1.23046875,0,0
-1.61629614012782E-05,1.32460363602149E-05,1.23046875,0,0
-2.01443217520136E-05,1.9138840798405E-05,1.23046875,0,0
-1.42832332130638E-05,1.64620141731575E-05,1.23046875,0,0
-1.80344559339574E-05,1.75706736627035E-05,1.23046875,0,0
-1.92569023056421E-05,1.73519420059165E-05,1.23046875,0,0
-2.30644000112079E-05,1.7357204342261E-05,1.23046875,0,0
-2.23762508539949E-05,1.49278985190904E-05,1.23046875,0,0
-2.13611983781448E-05,1.27253097161883E-05,1.23046875,0,0
-2.03073650482111E-05,1.13374171633041E-05,1.23046875,0,0
-2.02514838747447E-05,1.03644442788209E-05,1.23046875,0,0
-2.24437662836863E-05,1.029186478263E-05,1.23046875,0,0
-2.2132831873023E-05,8.06549451226601E-06,1.23046875,0,0
-2.44499969994649E-05,6.40138614471653E-06,1.23046875,0,0
-2.56126168096671E-05,4.37262451669085E-06,1.23046875,0,0
-2.92179338430287E-05,4.13048019254347E-06,1.23046875,0,0
-2.89405543298926E-05,2.78880361292977E-06,1.23046875,0,0
-2.91345659206854E-05,2.92257664114004E-06,1.23046875,0,0
-2.65192593360553E-05,3.43170154337713E-06,1.23046875,0,0
-2.60674769378966E-05,6.08153959547053E-06,1.23046875,0,0
-2.60832603089511E-05,9.23689276532969E-06,1.23046875,0,0
-2.7253194275545E-05,1.13484802568564E-05,1.23046875,0,0
-2.69227857643273E-05,9.18761907087173E-06,1.23046875,0,0
-2.76624559774064E-05,4.91994387630257E-06,1.23046875,0,0
-2.85342448478332E-05,1.94535391528916E-06,1.23046875,0,0
-2.86430458800169E-05,2.33617220146698E-06,1.23046875,0,0
-2.30198820645455E-05,3.84059194402653E-06,1.23046875,0,0
-3.21658553730231E-05,5.78302615394932E-06,1.23046875,0,0
-2.34158960665809E-05,5.11242478751228E-06,1.23046875,0,0
-2.86738159047673E-05,6.48973355055205E-06,1.23046875,0,0
-2.33616920013446E-05,5.95992833041237E-06,1.23046875,0,0
-2.56526218436193E-05,6.82391464579268E-06,1.23046875,0,0
-2.14523170143366E-05,6.30898693998461E-06,1.23046875,0,0
-2.09512254514266E-05,5.87761815040722E-06,1.23046875,0,0
-1.90139107871801E-05,7.29352541384287E-06,1.23046875,0,0
-1.87829773494741E-05,9.5288414740935E-06,1.23046875,0,0
-1.99678670469439E-05,1.10142045741668E-05,1.23046875,0,0
-2.11816022783751E-05,1.21325529107708E-05,1.23046875,0,0
-2.43950671574567E-05,1.36038461278076E-05,1.23046875,0,0
-2.42922578763682E-05,1.31583665279322E-05,1.23046875,0,0
-2.62454159383196E-05,1.32306468003662E-05,1.23046875,0,0
-2.66917213593842E-05,1.36725520860637E-05,1.23046875,0,0
-2.95421250484651E-05,1.25030883282307E-05,1.23046875,0,0
-2.8459266104619E-05,9.3162097982713E-06,1.23046875,0,0
-2.92970398731995E-05,7.66135963203851E-06,1.23046875,0,0
-2.90473199129337E-05,7.23354514775565E-06,1.23046875,0,0
-3.07954833260737E-05,7.49408127376228E-06,1.23046875,0,0
-3.09143397316802E-05,7.90206740930444E-06,1.23046875,0,0
-3.18701204378158E-05,8.27087205834687E-06,1.23046875,0,0
-3.08635935653001E-05,8.69093037181301E-06,1.23046875,0,0
-3.02518892567605E-05,9.72281395661412E-06,1.23046875,0,0
-2.91319847747218E-05,9.84008693194482E-06,1.23046875,0,0
-2.87608527287375E-05,8.7514554252266E-06,1.23046875,0,0
-2.3426917323377E-05,7.20673642717884E-06,1.23046875,0,0
-3.36703851644415E-05,1.07915075204801E-05,1.23046875,0,0
-2.62016255874187E-05,1.00898805612815E-05,1.23046875,0,0
-3.26390254485887E-05,1.36944181576837E-05,1.23046875,0,0
-2.80783842754317E-05,1.26077629829524E-05,1.23046875,0,0
-3.07683767459821E-05,1.44798977999017E-05,1.23046875,0,0
-2.79380601568846E-05,1.43558827403467E-05,1.23046875,0,0
-3.04407894873293E-05,1.44941323014791E-05,1.23046875,0,0
-3.22638516081497E-05,1.42394801514456E-05,1.23046875,0,0
-3.43047504429705E-05,1.46774382301373E-05,1.23046875,0,0
-3.38718018610962E-05,1.3603570550913E-05,1.23046875,0,0
-3.15339675580617E-05,1.02971662272466E-05,1.23046875,0,0
-3.216223558411E-05,1.00305360319908E-05,1.23046875,0,0
-3.05716748698615E-05,1.13104761112481E-05,1.23046875,0,0
-2.94935671263374E-05,1.0801583812281E-05,1.23046875,0,0
-2.58702984865522E-05,4.6427658162429E-06,1.23046875,0,0
-2.6716854335973E-05,2.99045467500036E-07,1.23046875,0,0
-2.55791746894829E-05,2.83632448372373E-06,1.23046875,0,0
-2.60129181697266E-05,1.1375507710909E-05,1.23046875,0,0
-2.43338618020061E-05,1.77863712451654E-05,1.23046875,0,0
-2.4613980713184E-05,2.01355396711733E-05,1.23046875,0,0
-2.27359705604613E-05,1.97251902136486E-05,1.23046875,0,0
-2.20296387851704E-05,1.76187277247664E-05,1.23046875,0,0
-2.11532824323513E-05,1.09187421912793E-05,1.23046875,0,0
-2.11764236155432E-05,4.0574941522209E-06,1.23046875,0,0
-2.0353729269118E-05,1.79721189397242E-06,1.23046875,0,0
-1.96298460650723E-05,3.05671755995718E-06,1.23046875,0,0
-1.59575356519781E-05,5.86992700846167E-06,1.23046875,0,0
-2.23494535021018E-05,8.82851691130782E-06,1.23046875,0,0
-1.63969343702774E-05,6.493661658169E-06,1.23046875,0,0
-1.89394995686598E-05,7.89245950727491E-06,1.23046875,0,0
-1.51999493027688E-05,7.96157655713614E-06,1.23046875,0,0
-1.93430932995398E-05,1.018692546495E-05,1.23046875,0,0
-1.82076819328358E-05,1.03510210465174E-05,1.23046875,0,0
-1.70617313415278E-05,9.16525186767103E-06,1.23046875,0,0
-1.46133843372809E-05,9.12525501917116E-06,1.23046875,0,0
-1.49462020999636E-05,1.19524493129575E-05,1.23046875,0,0
-1.53416349348845E-05,1.60164781846106E-05,1.23046875,0,0
-1.28562542158761E-05,1.79339986061677E-05,1.23046875,0,0
-1.11554199975217E-05,1.8583699784358E-05,1.23046875,0,0
-9.13118492462672E-06,1.94726526387967E-05,1.23046875,0,0
-1.06116467577522E-05,2.22260896407533E-05,1.23046875,0,0
-1.08958211058052E-05,2.34558519878192E-05,1.23046875,0,0
-1.19573460324318E-05,2.30834775720723E-05,1.23046875,0,0
-1.02504291135119E-05,2.16282351175323E-05,1.23046875,0,0
-1.05797998912749E-05,2.11111982935108E-05,1.23046875,0,0
-9.77945546765113E-06,1.96400887944037E-05,1.23046875,0,0
-9.91047636489384E-06,1.75099448824767E-05,1.23046875,0,0
-9.71524605120067E-06,1.70634266396519E-05,1.23046875,0,0
-1.1456872925919E-05,1.98812449525576E-05,1.23046875,0,0
-1.32141231006244E-05,2.25985731958644E-05,1.23046875,0,0
-1.53112123371102E-05,2.12538925552508E-05,1.23046875,0,0
-1.64056400535628E-05,1.6769568901509E-05,1.23046875,0,0
-1.70426737895468E-05,1.45376816362841E-05,1.23046875,0,0
-1.44487339639454E-05,1.23743775475305E-05,1.23046875,0,0
-2.06267031899188E-05,1.70980511029484E-05,1.23046875,0,0
-1.63481727213366E-05,1.08732519947807E-05,1.23046875,0,0
-2.19265239138622E-05,1.26279401229112E-05,1.23046875,0,0
-2.19891262531746E-05,1.06217921711504E-05,1.23046875,0,0
-2.68168078036979E-05,1.39632056743721E-05,1.23046875,0,0
-2.62266839854419E-05,1.32685636344831E-05,1.23046875,0,0
-2.60085180343594E-05,1.23639383673435E-05,1.23046875,0,0
-2.50383582169889E-05,9.23991774470778E-06,1.23046875,0,0
-2.63324327534065E-05,6.83058169670403E-06,1.23046875,0,0
-2.8288341127336E-05,5.75327931073844E-06,1.23046875,0,0
-2.81755237665493E-05,5.450338449009E-06,1.23046875,0,0
-2.8611011657631E-05,7.26886901247781E-06,1.23046875,0,0
-2.78514689853182E-05,7.35281128072529E-06,1.23046875,0,0
-2.82931760011707E-05,6.54148061585147E-06,1.23046875,0,0
-2.73106888926122E-05,3.25179348692473E-06,1.23046875,0,0
-2.82883083855268E-05,2.63835681835189E-06,1.23046875,0,0
-2.79878277069656E-05,3.1520917218586E-06,1.23046875,0,0
-2.89791514660465E-05,4.99039015267044E-06,1.23046875,0,0
-2.90850675810361E-05,3.4476552173146E-06,1.23046875,0,0
-2.97398037218954E-05,1.51318704411096E-06,1.23046875,0,0
-2.83674689853797E-05,1.93017854144273E-07,1.23046875,0,0
-2.84874058706919E-05,2.25611552195915E-06,1.23046875,0,0
-2.94192268484039E-05,6.21292338109924E-06,1.23046875,0,0
-3.15007928293198E-05,9.94716901914217E-06,1.23046875,0,0
-3.24790162267163E-05,1.0538488822931E-05,1.23046875,0,0
-3.14076860377099E-05,8.79168965184363E-06,1.23046875,0,0
-2.3670927475905E-05,6.96733559379936E-06,1.23046875,0,0
-3.22441301250365E-05,1.14232761916355E-05,1.23046875,0,0
-2.15199415833922E-05,1.08483927760972E-05,1.23046875,0,0
-2.65672388195526E-05,1.19176147563849E-05,1.23046875,0,0
-2.23010702029569E-05,7.81163907959126E-06,1.23046875,0,0
-2.70194632321363E-05,6.39191011941875E-06,1.23046875,0,0
-2.50178400165169E-05,5.20024468642077E-06,1.23046875,0,0
-2.69551601377316E-05,4.24621748607024E-06,1.23046875,0,0
-2.63458168774378E-05,4.97286418976728E-06,1.23046875,0,0
-2.48558844759827E-05,8.72548571351217E-06,1.23046875,0,0
-2.26066640607314E-05,1.25753476822865E-05,1.23046875,0,0
-2.06691456696717E-05,1.4866204764985E-05,1.23046875,0,0
-2.34892359003425E-05,1.34430720208911E-05,1.23046875,0,0
-2.51263136306079E-05,7.03617615727126E-06,1.23046875,0,0
-2.74655940302182E-05,7.89081809671188E-07,1.23046875,0,0
-2.55868581007235E-05,-1.90126638699439E-06,1.23046875,0,0
-2.60442284343299E-05,1.59857268045016E-06,1.23046875,0,0
-2.41332381847315E-05,6.61128160572844E-06,1.23046875,0,0
-2.46937615884235E-05,9.36149353947258E-06,1.23046875,0,0
-2.36501819017576E-05,6.740537173755E-06,1.23046875,0,0
-2.59475855273195E-05,2.92837648885325E-06,1.23046875,0,0
-2.67444647761295E-05,6.40851794742048E-07,1.23046875,0,0
-2.66659881162923E-05,1.8432455135553E-06,1.23046875,0,0
-2.42236856138334E-05,5.94869698034017E-06,1.23046875,0,0
-2.31959547818406E-05,8.58051589602837E-06,1.23046875,0,0
-2.39676646742737E-05,7.63927528169006E-06,1.23046875,0,0
-2.63659148913575E-05,7.61482306188555E-06,1.23046875,0,0
-2.30201840167865E-05,7.49612399886246E-06,1.23046875,0,0
-3.0717648769496E-05,1.14234335342189E-05,1.23046875,0,0
-1.91679082490737E-05,9.89933960227063E-06,1.23046875,0,0
-2.36943706113379E-05,1.13217265607091E-05,1.23046875,0,0
-1.95347438420868E-05,9.04568059922894E-06,1.23046875,0,0
-2.37327367358375E-05,1.18039115477586E-05,1.23046875,0,0
-2.14017563848756E-05,1.27214716485469E-05,1.23046875,0,0
-2.21798236452742E-05,1.32394043248496E-05,1.23046875,0,0
-2.22154103539651E-05,1.39740523081855E-05,1.23046875,0,0
-2.23861316044349E-05,1.36669386847643E-05,1.23046875,0,0
-2.21516729652649E-05,1.18464140541619E-05,1.23046875,0,0
-2.22032358578872E-05,1.02527701528743E-05,1.23046875,0,0
-2.55838785960805E-05,1.10986184154171E-05,1.23046875,0,0
-2.57267729466548E-05,1.2482258171076E-05,1.23046875,0,0
-2.51782057603123E-05,1.37029646793962E-05,1.23046875,0,0
-2.11411843338283E-05,1.21762141134241E-05,1.23046875,0,0
-2.0606181351468E-05,1.19471706057084E-05,1.23046875,0,0
-1.88172652997309E-05,1.30570824694587E-05,1.23046875,0,0
-2.01750426640501E-05,1.5256242477335E-05,1.23046875,0,0
-1.99897749553202E-05,1.64963857969269E-05,1.23046875,0,0
-2.12226786970859E-05,1.73809348780196E-05,1.23046875,0,0
-2.01556831598282E-05,1.72110594576225E-05,1.23046875,0,0
-2.04556381504517E-05,1.62559172167676E-05,1.23046875,0,0
-2.14070132642519E-05,1.44273435580544E-05,1.23046875,0,0
-2.26913143706042E-05,1.51482836372452E-05,1.23046875,0,0
-2.16481585084694E-05,1.59845549205784E-05,1.23046875,0,0
-2.01146849576617E-05,1.54500139615266E-05,1.23046875,0,0
-1.70562707353383E-05,1.11506324174115E-05,1.23046875,0,0
-2.52019835897954E-05,1.54894823936047E-05,1.23046875,0,0
-2.06357381102862E-05,1.30226790133747E-05,1.23046875,0,0
-2.49284603341948E-05,1.70073381013935E-05,1.23046875,0,0
-2.0296032744227E-05,1.30808639369207E-05,1.23046875,0,0
-2.02953378902748E-05,1.39025942189619E-05,1.23046875,0,0
-1.81213054020191E-05,1.19774067570688E-05,1.23046875,0,0
-2.09261179406894E-05,1.16938399514765E-05,1.23046875,0,0
-2.2129059289E-05,1.17079043775448E-05,1.23046875,0,0
-2.26694737648359E-05,1.3318905075721E-05,1.23046875,0,0
-2.31423291552346E-05,1.35974250952131E-05,1.23046875,0,0
-2.25069652515231E-05,1.20866498036776E-05,1.23046875,0,0
-2.2596375856665E-05,1.11856816147338E-05,1.23046875,0,0
-2.07922312256414E-05,1.09171014628373E-05,1.23046875,0,0
-2.13076964428183E-05,1.17987365229055E-05,1.23046875,0,0
-2.15865475183818E-05,9.98915311356541E-06,1.23046875,0,0
-2.44703169300919E-05,1.06092429632554E-05,1.23046875,0,0
-2.42487731156871E-05,1.15833081508754E-05,1.23046875,0,0
-2.37717049458297E-05,1.31311599034234E-05,1.23046875,0,0
-2.15459476748947E-05,1.10740438685752E-05,1.23046875,0,0
-2.13531020563096E-05,9.19353715289617E-06,1.23046875,0,0
-2.05355590878753E-05,8.41090331960004E-06,1.23046875,0,0
-2.04029402084416E-05,9.44775638345163E-06,1.23046875,0,0
-1.95651773537975E-05,9.71347344602691E-06,1.23046875,0,0
-1.95233042177279E-05,1.08334752439987E-05,1.23046875,0,0
-1.96057280845707E-05,1.05836224975064E-05,1.23046875,0,0
-1.94791118701687E-05,9.05235629033996E-06,1.23046875,0,0
-1.52586972035351E-05,6.82860718370648E-06,1.23046875,0,0
-2.20592355617555E-05,1.03118845800054E-05,1.23046875,0,0
-1.74787219293648E-05,1.01215000540833E-05,1.23046875,0,0
-2.27849559450988E-05,1.13333999252063E-05,1.23046875,0,0
-2.09368972718949E-05,6.08105938226799E-06,1.23046875,0,0
-2.36419255088549E-05,4.72972487841616E-06,1.23046875,0,0
-2.28047938435338E-05,4.63334208689048E-06,1.23046875,0,0
-2.39069613598986E-05,8.25141887617065E-06,1.23046875,0,0
-2.47278021561215E-05,1.15929015009897E-05,1.23046875,0,0
-2.57141564361518E-05,1.27546327348682E-05,1.23046875,0,0
-2.49336317210691E-05,1.12630586954765E-05,1.23046875,0,0
-2.33324808505131E-05,9.07762841961812E-06,1.23046875,0,0
-2.4244814994745E-05,8.13905808172422E-06,1.23046875,0,0
-2.51114543061703E-05,6.72950181979104E-06,1.23046875,0,0
-2.64639566012193E-05,7.29092562323785E-06,1.23046875,0,0
-2.44036727963248E-05,6.91216609993717E-06,1.23046875,0,0
-2.30052828555927E-05,4.84545807921677E-06,1.23046875,0,0
-2.06840813916642E-05,1.46888078234042E-06,1.23046875,0,0
-2.02654209715547E-05,1.61317802849226E-06,1.23046875,0,0
-1.86716642929241E-05,4.19064781453926E-06,1.23046875,0,0
-1.97118351934478E-05,9.04531952983234E-06,1.23046875,0,0
-2.10970483749406E-05,1.15253733383724E-05,1.23046875,0,0
-2.25207240873715E-05,1.00563975138357E-05,1.23046875,0,0
-2.10360740311444E-05,5.36384732185979E-06,1.23046875,0,0
-1.93302676052554E-05,1.84656744295353E-06,1.23046875,0,0
-1.95870761672268E-05,2.01524949261511E-06,1.23046875,0,0
-2.14389565371675E-05,4.23425308326841E-06,1.23046875,0,0
-1.78291738848202E-05,5.0452813411539E-06,1.23046875,0,0
-2.4698816559976E-05,7.15150281394017E-06,1.23046875,0,0
-1.84878499567276E-05,3.82098778572981E-06,1.23046875,0,0
-2.42226615227992E-05,3.96720179196564E-06,1.23046875,0,0
-1.9994615286123E-05,5.23244216310559E-06,1.23046875,0,0
-2.19902049138909E-05,8.73847329785349E-06,1.23046875,0,0
-2.13203111343319E-05,9.46653653954854E-06,1.23046875,0,0
-2.36373180086957E-05,1.0911869139818E-05,1.23046875,0,0
-2.40468489209889E-05,1.27455841720803E-05,1.23046875,0,0
-2.49102940870216E-05,1.38522264023777E-05,1.23046875,0,0
-2.6446574338479E-05,1.48774533954565E-05,1.23046875,0,0
-2.73625992122106E-05,1.64860848599346E-05,1.23046875,0,0
-2.87780403596116E-05,1.88511003216263E-05,1.23046875,0,0
-2.81897409877274E-05,1.88002395589137E-05,1.23046875,0,0
-3.0433657229878E-05,1.76458815985825E-05,1.23046875,0,0
-3.14606913889293E-05,1.62513642862905E-05,1.23046875,0,0
-3.38477329933085E-05,1.53091914398829E-05,1.23046875,0,0
-3.37553319695871E-05,1.4105076843407E-05,1.23046875,0,0
-3.56517375621479E-05,1.3733675586991E-05,1.23046875,0,0
-3.6969271604903E-05,1.24494454212254E-05,1.23046875,0,0
-3.87150648748502E-05,1.08278327388689E-05,1.23046875,0,0
-3.68415167031344E-05,9.74981139734155E-06,1.23046875,0,0
-3.62950122507755E-05,9.89211548585445E-06,1.23046875,0,0
-3.63562758138869E-05,9.93860976450378E-06,1.23046875,0,0
-3.70037996617612E-05,1.02563435575576E-05,1.23046875,0,0
-3.61087404598948E-05,1.23373565656948E-05,1.23046875,0,0
-3.36504672304727E-05,1.3973434761283E-05,1.23046875,0,0
-2.46258186962223E-05,1.18362222565338E-05,1.23046875,0,0
-3.46506312780548E-05,1.84225700650131E-05,1.23046875,0,0
-2.61026798398234E-05,1.5619507394149E-05,1.23046875,0,0
-3.13421151076909E-05,1.80463739525294E-05,1.23046875,0,0
-2.44048151216703E-05,1.38668647196027E-05,1.23046875,0,0
-2.79330342891626E-05,1.28980582303484E-05,1.23046875,0,0
-2.48884844040731E-05,1.03360816865461E-05,1.23046875,0,0
-2.45989576797001E-05,1.0719770216383E-05,1.23046875,0,0
-2.18793047679355E-05,1.16730907393503E-05,1.23046875,0,0
-2.26119427679805E-05,1.36323315018672E-05,1.23046875,0,0
-2.40188401221531E-05,1.51754948092275E-05,1.23046875,0,0
-2.30928962992039E-05,1.57575650518993E-05,1.23046875,0,0
-2.43902850343147E-05,1.61404423124623E-05,1.23046875,0,0
-2.38774409808684E-05,1.52424136103946E-05,1.23046875,0,0
-2.54764672718011E-05,1.67485668498557E-05,1.23046875,0,0
-2.3671211238252E-05,1.80602964974241E-05,1.23046875,0,0
-2.45978153543547E-05,1.97858826140873E-05,1.23046875,0,0
-2.36385876632994E-05,1.90808550541988E-05,1.23046875,0,0
-2.55498835031176E-05,1.85604894795688E-05,1.23046875,0,0
-2.42493879341055E-05,1.68096084962599E-05,1.23046875,0,0
-2.43417398451129E-05,1.61243169713998E-05,1.23046875,0,0
-2.34531235037139E-05,1.53191631397931E-05,1.23046875,0,0
-2.43519334617304E-05,1.499177506048E-05,1.23046875,0,0
-2.42467704083538E-05,1.40655029099435E-05,1.23046875,0,0
-2.57825104199583E-05,1.50956248035072E-05,1.23046875,0,0
-2.69309766736114E-05,1.53273504110985E-05,1.23046875,0,0
-2.76383270829683E-05,1.35727032102295E-05,1.23046875,0,0
-2.30322912102565E-05,9.12138875719393E-06,1.23046875,0,0
-3.24165230267681E-05,1.19151281978702E-05,1.23046875,0,0
-2.5201652533724E-05,7.84605072112754E-06,1.23046875,0,0
-3.22513951687142E-05,7.67775327403797E-06,1.23046875,0,0
-2.65711514657596E-05,1.73174294104683E-06,1.23046875,0,0
-2.74743051704718E-05,1.83597830982762E-06,1.23046875,0,0
-2.42349524341989E-05,2.710061153266E-07,1.23046875,0,0
-2.65508642769419E-05,9.24037522054277E-08,1.23046875,0,0
-2.70594500761945E-05,3.40945234711398E-07,1.23046875,0,0
-2.74478461506078E-05,2.43291901824705E-06,1.23046875,0,0
-2.71068329311674E-05,4.25723828811897E-06,1.23046875,0,0
-2.55805480264826E-05,5.35650542587973E-06,1.23046875,0,0
-2.63005331362365E-05,5.76167985855136E-06,1.23046875,0,0
-2.53099042311078E-05,4.00675071432488E-06,1.23046875,0,0
-2.67871164396638E-05,5.30397710463149E-06,1.23046875,0,0
-2.55815066338982E-05,7.94589232100407E-06,1.23046875,0,0
-2.60987108049449E-05,1.09115844679764E-05,1.23046875,0,0
-2.33201590162935E-05,1.07768119050888E-05,1.23046875,0,0
-2.30504065257264E-05,1.18513125926256E-05,1.23046875,0,0
-2.1417259631562E-05,1.2266289559193E-05,1.23046875,0,0
-2.19436988118105E-05,1.16656146929017E-05,1.23046875,0,0
-2.1536776330322E-05,8.8169163063867E-06,1.23046875,0,0
-2.33224818657618E-05,6.54623681839439E-06,1.23046875,0,0
-2.41599227592815E-05,3.08926564684953E-06,1.23046875,0,0
-2.50044122367399E-05,1.0087553619087E-06,1.23046875,0,0
-2.55425129580544E-05,-5.73973920836579E-07,1.23046875,0,0
-2.58887957897969E-05,-3.59747014044842E-06,1.23046875,0,0
-2.15369018405909E-05,-6.09758671998861E-06,1.23046875,0,0
-3.1864477932686E-05,-8.33884587336797E-06,1.23046875,0,0
-2.54906808550004E-05,-8.54720269671816E-07,1.23046875,0,0
-2.89129256998422E-05,3.42627959071251E-06,1.23046875,0,0
-2.24268624151591E-05,5.86173564443015E-06,1.23046875,0,0
-2.5863955670502E-05,6.24808444626979E-06,1.23046875,0,0
-2.54723890975583E-05,8.41304154164391E-06,1.23046875,0,0
-2.70521813945379E-05,9.89537056739209E-06,1.23046875,0,0
-2.59386852121679E-05,1.06483339550323E-05,1.23046875,0,0
-2.56936982623301E-05,9.64697846939089E-06,1.23046875,0,0
-2.53930502367439E-05,8.80494735611137E-06,1.23046875,0,0
-2.43720514845336E-05,1.04638074844843E-05,1.23046875,0,0
-2.51594628934981E-05,1.24399984997581E-05,1.23046875,0,0
-2.41970155911986E-05,1.33627472678199E-05,1.23046875,0,0
-2.53514044743497E-05,1.34118818095885E-05,1.23046875,0,0
-2.42206806433387E-05,1.42722610689816E-05,1.23046875,0,0
-2.52196368819568E-05,1.40337788252509E-05,1.23046875,0,0
-2.32377224165248E-05,1.32405912154354E-05,1.23046875,0,0
-2.34811195696238E-05,1.24692496683565E-05,1.23046875,0,0
-2.27718373935204E-05,1.22073206512141E-05,1.23046875,0,0
-2.4051249056356E-05,1.02352896647062E-05,1.23046875,0,0
-2.28133303608047E-05,9.05577871890273E-06,1.23046875,0,0
-2.09837417060044E-05,1.07250361907063E-05,1.23046875,0,0
-1.87753375939792E-05,1.35704058266128E-05,1.23046875,0,0
-1.83809352165554E-05,1.31706301544909E-05,1.23046875,0,0
-1.76986541191582E-05,1.02994108601706E-05,1.23046875,0,0
-1.82614185177954E-05,6.77134767101961E-06,1.23046875,0,0
-1.71845749719068E-05,4.4772991714126E-06,1.23046875,0,0
-2.57977462752024E-05,7.58480155127472E-06,1.23046875,0,0
-2.17280066863168E-05,6.69679729980999E-06,1.23046875,0,0
-2.63772999460343E-05,7.00165128364461E-06,1.23046875,0,0
-2.20513520616805E-05,7.62188346925541E-06,1.23046875,0,0
-2.28346725634765E-05,1.29162899611401E-05,1.23046875,0,0
-1.96597447938984E-05,1.52254788190476E-05,1.23046875,0,0
-1.96636246982962E-05,1.45781323226402E-05,1.23046875,0,0
-1.94519143406069E-05,1.4838303286524E-05,1.23046875,0,0
-2.00787671928992E-05,1.66126428666757E-05,1.23046875,0,0
-2.1177049347898E-05,1.70573130162666E-05,1.23046875,0,0
-2.08842629945138E-05,1.65544352057623E-05,1.23046875,0,0
-2.13432813325198E-05,1.56960377353244E-05,1.23046875,0,0
-1.9827481082757E-05,1.3303897503647E-05,1.23046875,0,0
-2.08211931749247E-05,1.1949035069847E-05,1.23046875,0,0
-2.07564571610419E-05,1.25723490782548E-05,1.23046875,0,0
-2.15665622818051E-05,1.44235773404944E-05,1.23046875,0,0
-1.93801151908701E-05,1.49488423630828E-05,1.23046875,0,0
-1.92758088815026E-05,1.524602612335E-05,1.23046875,0,0
-2.0055065760971E-05,1.45820386023843E-05,1.23046875,0,0
-2.33820210269187E-05,1.34591173264198E-05,1.23046875,0,0
-2.4396682420047E-05,1.2265624718566E-05,1.23046875,0,0
-2.44141683651833E-05,1.2494444490585E-05,1.23046875,0,0
-2.45521587203257E-05,1.39380354085006E-05,1.23046875,0,0
-2.62453431787435E-05,1.5428609913215E-05,1.23046875,0,0
-2.65794624283444E-05,1.45456406244193E-05,1.23046875,0,0
-2.37616441154387E-05,1.24032112580608E-05,1.23046875,0,0
-1.59327464643866E-05,9.92725017567864E-06,1.23046875,0,0
-2.26405918510864E-05,1.55845009430777E-05,1.23046875,0,0
-1.81402447196888E-05,1.42472899824497E-05,1.23046875,0,0
-2.17098986468045E-05,1.71344727277756E-05,1.23046875,0,0
-1.63623626576737E-05,1.36556054712855E-05,1.23046875,0,0
-1.86920315172756E-05,1.43719407788012E-05,1.23046875,0,0
-1.76913235918619E-05,1.33415596792474E-05,1.23046875,0,0
-1.93436881090747E-05,1.26106660900405E-05,1.23046875,0,0
-1.94851163541898E-05,1.26040431496222E-05,1.23046875,0,0
-2.03204763238318E-05,1.33053981699049E-05,1.23046875,0,0
-2.11892256629653E-05,1.16761484605377E-05,1.23046875,0,0
-2.17520791920833E-05,8.8151209638454E-06,1.23046875,0,0
-2.39042728935601E-05,7.94503375800559E-06,1.23046875,0,0
-2.40412427956471E-05,8.02746126282727E-06,1.23046875,0,0
-2.52627414738527E-05,1.08394260678324E-05,1.23046875,0,0
-2.41164034378016E-05,1.35941618282232E-05,1.23046875,0,0
-2.33837345149368E-05,1.57345693878597E-05,1.23046875,0,0
-2.00563754333416E-05,1.36938942887355E-05,1.23046875,0,0
-1.92060670087812E-05,1.15285938591114E-05,1.23046875,0,0
-1.80584138433915E-05,9.90914031717693E-06,1.23046875,0,0
-1.90851296792971E-05,9.519916602585E-06,1.23046875,0,0
-1.94333297258709E-05,8.46789498609724E-06,1.23046875,0,0
-2.03667605092051E-05,9.42550559557276E-06,1.23046875,0,0
-2.0293693523854E-05,1.16025976240053E-05,1.23046875,0,0
-2.04537027457263E-05,1.29997497424483E-05,1.23046875,0,0
-2.04017887881491E-05,1.29963173094438E-05,1.23046875,0,0
-2.07987068279181E-05,1.25528258649865E-05,1.23046875,0,0
-1.49796560435789E-05,8.8532360678073E-06,1.23046875,0,0
-1.98388333956245E-05,1.07335772554507E-05,1.23046875,0,0
-1.48829594763811E-05,5.40005021321122E-06,1.23046875,0,0
-1.94368458323879E-05,7.20383604857489E-06,1.23046875,0,0
-1.54764729813905E-05,4.6471536734316E-06,1.23046875,0,0
-1.88300546142273E-05,6.02927093495964E-06,1.23046875,0,0
-1.81409541255562E-05,5.12195083501865E-06,1.23046875,0,0
-2.00539998331806E-05,5.89875890000258E-06,1.23046875,0,0
-2.0632442101487E-05,6.09700509812683E-06,1.23046875,0,0
-2.12154027394718E-05,5.07459390064469E-06,1.23046875,0,0
-2.09693444048753E-05,5.46523915545549E-06,1.40625,0,0
-2.07419761864003E-05,7.23978791938862E-06,1.40625,0,0
-2.3113712813938E-05,1.02961857919581E-05,1.40625,0,0
-2.45499777520308E-05,1.15620150609175E-05,1.40625,0,0
-2.7647809474729E-05,1.32165932882344E-05,1.40625,0,0
-2.8095126253902E-05,1.3224206668383E-05,1.40625,0,0
-2.91203959932318E-05,1.31702327053063E-05,1.40625,0,0
-2.84553098026663E-05,1.24383041111287E-05,1.40625,0,0
-3.01201871479861E-05,1.45525191328488E-05,1.40625,0,0
-2.96539601549739E-05,1.71762421814492E-05,1.40625,0,0
-3.02863918477669E-05,1.7930420654011E-05,1.40625,0,0
-3.09834940708242E-05,1.48689960042248E-05,1.40625,0,0
-3.26831941492856E-05,1.11319232019014E-05,1.40625,0,0
-3.16013574774843E-05,9.83055724645965E-06,1.40625,0,0
-3.02989701594925E-05,1.29036807265948E-05,1.40625,0,0
-2.98093473247718E-05,1.50984778883867E-05,1.40625,0,0
-3.10835130221676E-05,1.46455158755998E-05,1.40625,0,0
-2.7077045160695E-05,1.10238543129526E-05,1.40625,0,0
-3.85240855393931E-05,1.60752115334617E-05,1.40625,0,0
-2.88314258796163E-05,1.36506414492032E-05,1.40625,0,0
-3.65182859241031E-05,1.58108068717411E-05,1.40625,0,0
-3.22683699778281E-05,1.12836878543021E-05,1.40625,0,0
-3.60374979209155E-05,1.31826145661762E-05,1.40625,0,0
-3.26020235661417E-05,1.25792930703028E-05,1.40625,0,0
-3.41722516168375E-05,1.36227054099436E-05,1.40625,0,0
-3.39513208018616E-05,1.4327824828797E-05,1.40625,0,0
-3.39545404131059E-05,1.50150053741527E-05,1.40625,0,0
-3.30048205796629E-05,1.49754723679507E-05,1.40625,0,0
-3.0708597478224E-05,1.38996592795593E-05,1.40625,0,0
-3.19521714118309E-05,1.33960256789578E-05,1.40625,0,0
-3.12179836328141E-05,1.25812184705865E-05,1.40625,0,0
-3.16718214889988E-05,1.40194861160126E-05,1.40625,0,0
-2.835215855157E-05,1.36791632030508E-05,1.40625,0,0
-2.79900177702075E-05,1.31758733914467E-05,1.40625,0,0
-2.49646855081664E-05,1.15508682938525E-05,1.40625,0,0
-2.52365443884628E-05,1.19353035188396E-05,1.40625,0,0
-2.44602688326268E-05,1.16622513814946E-05,1.40625,0,0
-2.58877134911017E-05,1.19549131341046E-05,1.40625,0,0
-2.41914458456449E-05,1.08661724880221E-05,1.40625,0,0
-2.3607817638549E-05,1.07243849924998E-05,1.40625,0,0
-2.26595675485441E-05,1.15377833935781E-05,1.40625,0,0
-2.19898593059042E-05,1.31962669911445E-05,1.40625,0,0
-2.0567633328028E-05,1.31903052533744E-05,1.40625,0,0
-1.94572276086546E-05,1.31369961309247E-05,1.40625,0,0
-1.46110496643814E-05,1.11691751953913E-05,1.40625,0,0
-2.14533702092012E-05,1.50733521877555E-05,1.40625,0,0
-1.77253132278565E-05,1.05757017081487E-05,1.40625,0,0
-2.21231930481736E-05,1.33393004944082E-05,1.40625,0,0
-2.02979808818782E-05,1.13564547064016E-05,1.40625,0,0
-2.28635599341942E-05,1.62781470862683E-05,1.40625,0,0
-2.17078177229268E-05,1.72284580912674E-05,1.40625,0,0
-2.33737446251325E-05,1.58648927026661E-05,1.40625,0,0
-2.33245264098514E-05,1.37029146571876E-05,1.40625,0,0
-2.21698319364805E-05,1.34620768221794E-05,1.40625,0,0
-2.03833878913429E-05,1.36848084366648E-05,1.40625,0,0
-1.92988736671396E-05,1.34941828946467E-05,1.40625,0,0
-2.03449872060446E-05,1.43396218845737E-05,1.40625,0,0
-2.01764742087107E-05,1.26692957564956E-05,1.40625,0,0
-2.11047699849587E-05,1.21237289931742E-05,1.40625,0,0
-2.07147077162517E-05,1.15077282316634E-05,1.40625,0,0
-2.20119545701891E-05,1.20789500215324E-05,1.40625,0,0
-2.1615634977934E-05,9.81731045612833E-06,1.40625,0,0
-2.30457644647686E-05,7.87716089689638E-06,1.40625,0,0
-2.27792952500749E-05,6.43005478195846E-06,1.40625,0,0
-2.2715401428286E-05,7.15531086825649E-06,1.40625,0,0
-2.12296163226711E-05,7.56799954615417E-06,1.40625,0,0
-2.00223985302728E-05,8.54652716952842E-06,1.40625,0,0
-1.8503222236177E-05,8.4409466580837E-06,1.40625,0,0
-1.9075050659012E-05,8.55575945024611E-06,1.40625,0,0
-2.08993697015103E-05,9.27687960938783E-06,1.40625,0,0
-2.29540492000524E-05,1.02153326224652E-05,1.40625,0,0
-1.90534556168132E-05,8.03566035756376E-06,1.40625,0,0
-2.57835363299819E-05,1.07584955912898E-05,1.40625,0,0
-1.72155996551737E-05,9.39262463361956E-06,1.40625,0,0
-2.15805703192018E-05,1.2292214705667E-05,1.40625,0,0
-1.82382682396565E-05,8.73604221851565E-06,1.40625,0,0
-2.06109489226947E-05,1.09093825813034E-05,1.40625,0,0
-1.71909578057239E-05,1.1966643796768E-05,1.40625,0,0
-1.82760759344092E-05,1.31601873363252E-05,1.40625,0,0
-1.83941392606357E-05,1.2925631381222E-05,1.40625,0,0
-1.86630186362891E-05,1.27184302982641E-05,1.40625,0,0
-1.85733988473658E-05,1.20644126582192E-05,1.40625,0,0
-1.86014221981168E-05,9.30842907109763E-06,1.40625,0,0
-2.02477294806158E-05,3.05015555568389E-06,1.40625,0,0
-1.86795132322004E-05,-5.745590897277E-06,1.40625,0,0
-1.79702165041817E-05,-9.06046443560626E-06,1.40625,0,0
-1.57596368808299E-05,-5.7468760132906E-06,1.40625,0,0
-1.73475546034751E-05,3.17564104079793E-06,1.40625,0,0
-1.7700005628285E-05,9.96723429125268E-06,1.40625,0,0
-1.93202085938537E-05,1.3335977200768E-05,1.40625,0,0
-1.80623119376833E-05,1.19079477371997E-05,1.40625,0,0
-1.8673259546631E-05,8.35082846606383E-06,1.40625,0,0
-2.01726179511752E-05,2.34559797718248E-06,1.40625,0,0
-2.35064180742484E-05,-1.72188708802423E-06,1.40625,0,0
-2.37628937611589E-05,-1.30847490709129E-06,1.40625,0,0
-2.31044177780859E-05,3.19111177304876E-06,1.40625,0,0
-2.2056547095417E-05,7.04333297107951E-06,1.40625,0,0
-2.24836276174756E-05,8.97574955160962E-06,1.40625,0,0
-1.94840395124629E-05,6.26900919087348E-06,1.40625,0,0
-2.92358745355159E-05,6.66051664666156E-06,1.40625,0,0
-2.45346454903483E-05,2.53237249125959E-06,1.40625,0,0
-2.98553604807239E-05,2.80543645203579E-06,1.40625,0,0
-2.65331964328652E-05,-3.54862748963569E-07,1.40625,0,0
-3.02540265693096E-05,2.25120334107487E-06,1.40625,0,0
-3.0570194212487E-05,3.43885153597512E-06,1.40625,0,0
-3.46296510542743E-05,4.46109561380581E-06,1.40625,0,0
-3.51406379195396E-05,4.80208018416306E-06,1.40625,0,0
-3.58043216692749E-05,6.20467881162767E-06,1.40625,0,0
-3.66964122804347E-05,8.48492254590383E-06,1.40625,0,0
-3.59695986844599E-05,1.04987511804211E-05,1.40625,0,0
-3.57830867869779E-05,1.19395372166764E-05,1.40625,0,0
-3.32651979988441E-05,1.06199677247787E-05,1.40625,0,0
-3.29176764353178E-05,1.02048734333948E-05,1.40625,0,0
-3.01361269521294E-05,1.16474029709934E-05,1.40625,0,0
-2.96225352940382E-05,1.49344859892153E-05,1.40625,0,0
-2.93115190288518E-05,1.55977977556176E-05,1.40625,0,0
-3.24452412314713E-05,1.55137422552798E-05,1.40625,0,0
-3.26819281326607E-05,1.47147466122988E-05,1.40625,0,0
-3.27718662447296E-05,1.48588515003212E-05,1.40625,0,0
-3.14654025714844E-05,1.49055504152784E-05,1.40625,0,0
-3.14660173899028E-05,1.49375846376643E-05,1.40625,0,0
-2.94043202302419E-05,1.40463635034394E-05,1.40625,0,0
-2.66678416664945E-05,1.47371665661922E-05,1.40625,0,0
-2.59251464740373E-05,1.58589900820516E-05,1.40625,0,0
-2.75356705969898E-05,1.54034732986474E-05,1.40625,0,0
-2.19189751078375E-05,1.15668999569607E-05,1.40625,0,0
-2.90527732431656E-05,1.72445925272768E-05,1.40625,0,0
-1.96785385924159E-05,1.46865049828193E-05,1.40625,0,0
-2.51659657806158E-05,1.68055685207946E-05,1.40625,0,0
-1.99193564185407E-05,1.25348278743331E-05,1.40625,0,0
-2.22292856051354E-05,1.28780575323617E-05,1.40625,0,0
-1.88334724953165E-05,1.02133453765418E-05,1.40625,0,0
-2.06070617423393E-05,1.2016582331853E-05,1.40625,0,0
-2.06150980375241E-05,1.42445533128921E-05,1.40625,0,0
-2.06433287530672E-05,1.33543562697014E-05,1.40625,0,0
-1.91679664567346E-05,8.62354681885336E-06,1.40625,0,0
-1.60208219313063E-05,4.50759989689686E-06,1.40625,0,0
-1.53599667100934E-05,4.54418295703363E-06,1.40625,0,0
-1.33725843625143E-05,6.31635612080572E-06,1.40625,0,0
-1.42480093927588E-05,9.63910952123115E-06,1.40625,0,0
-1.24551625049207E-05,1.10725086415187E-05,1.40625,0,0
-1.24906391647528E-05,1.43501492857467E-05,1.40625,0,0
-1.06971547211288E-05,1.71865467564203E-05,1.40625,0,0
-1.32122186187189E-05,2.05429150810232E-05,1.40625,0,0
-1.47489708979265E-05,1.95929351320956E-05,1.40625,0,0
-1.81362138391705E-05,1.64253378898138E-05,1.40625,0,0
-1.88912399607943E-05,1.22161236504326E-05,1.40625,0,0
-2.0785120796063E-05,1.15831107905251E-05,1.40625,0,0
-2.27460004680324E-05,1.12448115032748E-05,1.40625,0,0
-2.53151411016006E-05,8.80976494954666E-06,1.40625,0,0
-2.72076704277424E-05,5.87412159802625E-06,1.40625,0,0
-2.86244285234716E-05,7.33143724573893E-06,1.40625,0,0
-2.32929050980601E-05,8.58384282764746E-06,1.40625,0,0
-3.28161113429815E-05,1.11308654595632E-05,1.40625,0,0
-2.56101448030677E-05,6.25647817287245E-06,1.40625,0,0
-3.24558386637364E-05,8.21413777885027E-06,1.40625,0,0
-2.7626894734567E-05,7.2263642323378E-06,1.40625,0,0
-3.14077551593073E-05,9.55693303694716E-06,1.40625,0,0
-2.91102478513494E-05,1.04402697616024E-05,1.40625,0,0
-2.97511287499219E-05,1.14433742055553E-05,1.40625,0,0
-2.84444704448106E-05,1.15555912998389E-05,1.40625,0,0
-2.89424424408935E-05,1.11989102151711E-05,1.40625,0,0
-2.97414990200195E-05,8.87674923433224E-06,1.40625,0,0
-2.97665337711805E-05,6.71237603455666E-06,1.40625,0,0
-3.15024335577618E-05,6.14422970102169E-06,1.93359375,0,0
-2.96708622045117E-05,3.84277882403694E-06,1.93359375,0,0
-2.88715928036254E-05,1.99531859834678E-06,1.93359375,0,0
-2.59160951827653E-05,4.90633347283165E-08,1.93359375,0,0
-2.64455211436143E-05,2.85227173435487E-07,1.93359375,0,0
-2.47176722041331E-05,8.13812278011028E-07,1.93359375,0,0
-2.57598348980537E-05,4.13978341384791E-06,1.93359375,0,0
-2.4778653823887E-05,9.58262990025105E-06,1.93359375,0,0
-2.55925169767579E-05,1.56331279868027E-05,1.93359375,0,0
-2.50736138696084E-05,1.79836897586938E-05,1.93359375,0,0
-2.49889599217568E-05,1.8660115529201E-05,1.93359375,0,0
-2.36714677157579E-05,1.86578345164889E-05,1.93359375,0,0
-2.43325412156992E-05,1.7681042663753E-05,1.93359375,0,0
-2.35262959904503E-05,1.5272951713996E-05,1.93359375,0,0
-2.20803176489426E-05,1.49469278767356E-05,1.93359375,0,0
-1.70494731719373E-05,1.34780757434783E-05,1.93359375,0,0
-2.33694336202461E-05,2.07367775146849E-05,1.93359375,0,0
-1.74476372194476E-05,1.75236236827914E-05,1.93359375,0,0
-2.23302049562335E-05,1.71505453181453E-05,1.93359375,0,0
-1.83243537321687E-05,1.08628491943819E-05,1.93359375,0,0
-2.04220013984013E-05,1.54991303134011E-05,1.93359375,0,0
-1.93729938473552E-05,1.81086670636432E-05,1.93359375,0,0
-2.16409880522406E-05,2.08980854949914E-05,1.93359375,0,0
-2.27897471631877E-05,2.18461336771725E-05,1.93359375,0,0
-2.45864539465401E-05,2.15913551073754E-05,1.93359375,0,0
-2.57262254308444E-05,1.78453447006177E-05,1.93359375,0,0
-2.51346355071291E-05,1.15670700324699E-05,1.93359375,0,0
-2.41822435782524E-05,6.53776260151062E-06,1.93359375,0,0
-2.15938034671126E-05,3.07988511849544E-06,1.93359375,0,0
-2.25952226173831E-05,3.97863777834573E-06,1.93359375,0,0
-2.24949617404491E-05,4.06040862799273E-06,1.93359375,0,0
-2.39190267166123E-05,4.37860899182851E-06,1.93359375,0,0
-2.29509460041299E-05,3.72925524061429E-06,1.93359375,0,0
-2.30697805818636E-05,7.0275305006362E-06,1.93359375,0,0
-2.16424868995091E-05,9.19804824661696E-06,1.93359375,0,0
-2.23865317821037E-05,1.06212310129195E-05,1.93359375,0,0
-2.2327818442136E-05,9.20552429306554E-06,1.93359375,0,0
-2.31806279771263E-05,6.58441285850131E-06,1.93359375,0,0
-2.23131737584481E-05,3.80635492547299E-06,1.93359375,0,0
-2.21122500079218E-05,3.65204346053361E-06,1.93359375,0,0
-2.19042231037747E-05,4.45897148892982E-06,1.93359375,0,0
-2.15674954233691E-05,5.75340800423874E-06,1.93359375,0,0
-1.70219955180073E-05,5.88511147725512E-06,1.93359375,0,0
-2.37920976360329E-05,9.86816394288326E-06,1.93359375,0,0
-1.76124995050486E-05,1.09408347270801E-05,1.93359375,0,0
-2.07834455068223E-05,1.37860697577707E-05,1.93359375,0,0
-1.55673715198645E-05,1.09066750155762E-05,1.93359375,0,0
-1.76174380612792E-05,9.65028539212653E-06,1.93359375,0,0
-1.59463106683688E-05,8.81248433870496E-06,1.93359375,0,0
-1.67061843967531E-05,1.1378246199456E-05,1.93359375,0,0
-1.57275917445077E-05,1.64517896337202E-05,1.93359375,0,0
-1.64896646310808E-05,1.75733184732962E-05,1.93359375,0,0
-1.75090008269763E-05,1.22575374916778E-05,1.93359375,0,0
-1.81190971488832E-05,4.938374786434E-06,1.93359375,0,0
-1.98775342141744E-05,1.20601862363401E-06,1.93359375,0,0
-1.89543970918749E-05,9.59123894972436E-07,1.93359375,0,0
-1.99640344362706E-05,3.90183868148597E-06,1.93359375,0,0
-1.95744723896496E-05,6.15153248872957E-06,1.93359375,0,0
-2.03518666239688E-05,6.19115462541231E-06,1.93359375,0,0
-1.80726819962729E-05,4.00586668547476E-06,1.93359375,0,0
-1.76579214894446E-05,3.45294438375277E-06,1.93359375,0,0
-1.66578338394174E-05,4.1459629755991E-06,1.93359375,0,0
-1.80017195816617E-05,5.63216508453479E-06,1.93359375,0,0
-1.93560408661142E-05,6.00415569351753E-06,1.93359375,0,0
-2.22040580410976E-05,5.1281326705066E-06,1.93359375,0,0
-2.30697223742027E-05,3.40428800882364E-06,1.93359375,0,0
-2.36480518651661E-05,-8.24892481432471E-07,1.93359375,0,0
-2.32009188039228E-05,-9.14362772164168E-06,1.93359375,0,0
-2.23491933866171E-05,-1.38053555929218E-05,1.93359375,0,0
-1.75705736182863E-05,-5.53334757569246E-06,1.93359375,0,0
-2.49564272962743E-05,-8.8413344201399E-07,1.93359375,0,0
-1.83997599378927E-05,8.36144135973882E-06,1.93359375,0,0
-2.27334912779043E-05,7.15408896212466E-06,1.93359375,0,0
-2.01998664124403E-05,8.42597910377663E-06,1.93359375,0,0
-2.33355822274461E-05,5.37573623660137E-06,1.93359375,0,0
-2.22464495891472E-05,4.83213943880401E-06,1.93359375,0,0
-2.42159512708895E-05,4.75231536256615E-06,1.93359375,0,0
-2.25839830818586E-05,9.43450868362561E-06,1.93359375,0,0
-2.11272672459017E-05,1.40995443871361E-05,1.93359375,0,0
-2.14009360206546E-05,1.61581865540938E-05,1.93359375,0,0
-2.16376756725367E-05,1.58592374646105E-05,1.93359375,0,0
-2.35969782806933E-05,1.32066479636705E-05,1.93359375,0,0
