biceps_emg, triceps_emg, subject_position, position_estimate, brace_position
-2.59199186984915E-05,2.52537688538723E-06,0.52734375,0,0
-2.41367961280048E-05,4.54464407084743E-06,0.52734375,0,0
-2.43941813096171E-05,8.22719721327303E-06,0.52734375,0,0
-2.46937415795401E-05,9.28287681745132E-06,0.52734375,0,0
-2.61262011918006E-05,9.58769851422403E-06,0.52734375,0,0
-2.67332743533188E-05,1.06018633232452E-05,0.52734375,0,0
-2.66010647465009E-05,1.20217036965187E-05,0.52734375,0,0
-2.11289570870576E-05,1.11672570710653E-05,0.52734375,0,0
-2.87842231045943E-05,1.62589403771563E-05,0.52734375,0,0
-2.05376254598377E-05,1.21648126878426E-05,0.52734375,0,0
-2.62584871961735E-05,1.4015334272699E-05,0.52734375,0,0
-2.19010580622125E-05,9.99474741547601E-06,0.52734375,0,0
-2.47071529884124E-05,9.13336498342687E-06,0.52734375,0,0
-2.22752169065643E-05,6.98921485309256E-06,0.52734375,0,0
-2.38398442888865E-05,7.24345090930001E-06,0.52734375,0,0
-2.33788668992929E-05,6.97428504281561E-06,0.52734375,0,0
-2.2997572159511E-05,8.03036073193653E-06,0.52734375,0,0
-2.27895943680778E-05,8.4606936070486E-06,0.52734375,0,0
-2.1363493942772E-05,5.94431821809849E-06,0.52734375,0,0
-2.32530965149635E-05,5.43460237167892E-06,0.52734375,0,0
-2.44821203523315E-05,6.93404626872507E-06,0.52734375,0,0
-2.71572935162112E-05,8.16099418443628E-06,0.52734375,0,0
-2.53868111030897E-05,6.53552388030221E-06,0.52734375,0,0
-2.48515752900857E-05,7.39825372875202E-06,0.52734375,0,0
-2.23209517571377E-05,8.67820745042991E-06,0.52734375,0,0
-2.17991891986458E-05,1.05244580481667E-05,0.52734375,0,0
-1.9897965103155E-05,9.45416650210973E-06,0.52734375,0,0
-2.11546612263191E-05,7.41026133255218E-06,0.52734375,0,0
-2.13458170037484E-05,5.20867570230621E-06,0.52734375,0,0
-2.10655634873547E-05,5.69245321457856E-06,0.52734375,0,0
-1.9145214537275E-05,6.57196278552874E-06,0.52734375,0,0
-1.84234268090222E-05,7.6557598731597E-06,0.52734375,0,0
-1.82470303116133E-05,7.96660151536344E-06,0.52734375,0,0
-1.8433576769894E-05,8.10554229246918E-06,0.52734375,0,0
-1.54159642988816E-05,8.5920200945111E-06,0.52734375,0,0
-2.18356599361869E-05,1.24368398246588E-05,0.52734375,0,0
-1.72035033756401E-05,7.54199800212518E-06,0.52734375,0,0
-2.17123069887748E-05,6.57284545013681E-06,0.52734375,0,0
-1.86489123734646E-05,4.35345373261953E-06,0.52734375,0,0
-2.20212696149247E-05,7.43451846574317E-06,0.52734375,0,0
-2.20442561840173E-05,9.93012781691505E-06,0.52734375,0,0
-2.35157913266448E-05,1.12884554255288E-05,0.52734375,0,0
-2.30581408686703E-05,7.98235032561934E-06,0.52734375,0,0
-2.23457336687716E-05,3.92069568988518E-06,0.52734375,0,0
-2.16611988435034E-05,2.62170192399935E-06,0.52734375,0,0
-2.06682107091183E-05,2.934061058113E-06,0.52734375,0,0
-2.15070158446906E-05,5.8633740991354E-06,0.52734375,0,0
-2.0907436919515E-05,9.19231661100639E-06,0.52734375,0,0
-2.21352875087177E-05,9.58476812229492E-06,0.52734375,0,0
-2.26688189286506E-05,4.29115971201099E-06,0.52734375,0,0
-2.56268540397286E-05,6.42780946691346E-07,0.52734375,0,0
-2.65187591139693E-05,1.26989243653952E-06,0.52734375,0,0
-2.73769310297212E-05,6.53585902909981E-06,0.52734375,0,0
-2.6212774173473E-05,1.09469046947197E-05,0.52734375,0,0
-2.63416495727142E-05,1.25344795378624E-05,0.52734375,0,0
-2.47712760028662E-05,1.16466808322002E-05,0.52734375,0,0
-2.35322168009588E-05,1.23466643344727E-05,0.52734375,0,0
-2.29134184337454E-05,1.41164127853699E-05,0.52734375,0,0
-2.35642819461646E-05,1.59691080625635E-05,0.52734375,0,0
-2.40447370742913E-05,1.71534393302863E-05,0.52734375,0,0
-2.54228234553011E-05,1.693339436315E-05,0.52734375,0,0
-2.20494184759445E-05,1.29274740174878E-05,0.52734375,0,0
-3.01707477774471E-05,1.82590847543906E-05,0.52734375,0,0
-2.09066984098172E-05,1.16626697490574E-05,0.52734375,0,0
-2.66293736785883E-05,1.23901145343552E-05,0.52734375,0,0
-2.25579588004621E-05,1.06165698525729E-05,0.52734375,0,0
-2.66200295300223E-05,1.45582298500813E-05,0.52734375,0,0
-2.59770513366675E-05,1.48429262480931E-05,0.52734375,0,0
-2.8797910999856E-05,1.62384640134405E-05,0.52734375,0,0
-2.82793826045236E-05,1.31752940433216E-05,0.52734375,0,0
-2.78623901976971E-05,1.0492929504835E-05,0.52734375,0,0
-2.83705903711962E-05,1.06169554783264E-05,0.52734375,0,0
-2.7405269065639E-05,1.14747281259042E-05,0.52734375,0,0
-2.74777248705504E-05,1.26062304843799E-05,0.52734375,0,0
-2.48597953032004E-05,1.03647817013552E-05,0.52734375,0,0
-2.51643177762162E-05,8.79759409144754E-06,0.52734375,0,0
-2.37956282944651E-05,7.40857331038569E-06,0.52734375,0,0
-2.51853616646258E-05,9.18325804377673E-06,0.52734375,0,0
-2.43003851210233E-05,8.99877613846911E-06,0.52734375,0,0
-2.50973280344624E-05,7.61506180424476E-06,0.52734375,0,0
-2.352544288442E-05,4.29879992225324E-06,0.52734375,0,0
-2.40879817283712E-05,3.53456607626867E-06,0.52734375,0,0
-2.41036505030934E-05,4.04935053666122E-06,0.52734375,0,0
-2.35690367844654E-05,5.21997617397574E-06,0.52734375,0,0
-2.02435749088181E-05,4.73555292046512E-06,0.52734375,0,0
-1.897774200188E-05,7.43029704608489E-06,0.52734375,0,0
-1.97751269297441E-05,1.25104634207673E-05,0.52734375,0,0
-1.99354617507197E-05,1.54627250594785E-05,0.52734375,0,0
-1.54154131450923E-05,1.22544361147447E-05,0.52734375,0,0
-2.13107814488467E-05,1.6232344933087E-05,0.52734375,0,0
-1.64384164236253E-05,1.0796826245496E-05,0.52734375,0,0
-2.13580005947733E-05,1.4772024769627E-05,0.52734375,0,0
-1.9341287043062E-05,1.21582370411488E-05,0.52734375,0,0
-2.3024842448649E-05,1.17566523840651E-05,0.52734375,0,0
-2.1060295694042E-05,8.98500002222136E-06,0.52734375,0,0
-2.01669627131196E-05,1.03397105704062E-05,0.52734375,0,0
-1.86718389159068E-05,1.04456603366998E-05,0.52734375,0,0
-1.96984292415436E-05,9.66708830674179E-06,0.52734375,0,0
-2.06209133466473E-05,8.00712223281153E-06,0.52734375,0,0
-2.01380826183595E-05,5.76326146983774E-06,0.52734375,0,0
-2.16572971112328E-05,7.75776879891055E-06,0.52734375,0,0
-2.17586566577666E-05,1.0384489542048E-05,0.52734375,0,0
-2.20887432078598E-05,1.17528288683388E-05,0.52734375,0,0
-1.91246435861103E-05,1.00620163721032E-05,0.52734375,0,0
-1.86495581147028E-05,1.14696649688995E-05,0.52734375,0,0
-1.88708127097925E-05,1.3493016922439E-05,0.52734375,0,0
-2.23807710426627E-05,1.62898595590377E-05,0.52734375,0,0
-2.35120714933146E-05,1.73414991877507E-05,0.52734375,0,0
-2.44042312260717E-05,1.98349353013327E-05,0.52734375,0,0
-2.33238242799416E-05,1.98310808627866E-05,0.52734375,0,0
-2.22654507524567E-05,1.64205903274706E-05,0.52734375,0,0
-2.04860134545015E-05,1.20177246571984E-05,0.52734375,0,0
-2.00835402210942E-05,1.14130934889545E-05,0.52734375,0,0
-2.12563536479138E-05,1.37366105263936E-05,0.52734375,0,0
-2.28232038352871E-05,1.58512902999064E-05,0.52734375,0,0
-1.91952167369891E-05,1.23901991173625E-05,0.52734375,0,0
-2.67605119006475E-05,1.78737736860057E-05,0.52734375,0,0
-1.90198570635403E-05,1.3294708878675E-05,0.52734375,0,0
-2.21975042222766E-05,1.43110828503268E-05,0.52734375,0,0
-1.72987565747462E-05,9.11088227439905E-06,0.52734375,0,0
-2.15565378312021E-05,9.7821084636962E-06,0.52734375,0,0
-2.20308702409966E-05,8.84280598256737E-06,0.52734375,0,0
-2.47066436713794E-05,8.26386803964851E-06,0.52734375,0,0
-2.34611525229411E-05,4.66058372694533E-06,0.52734375,0,0
-2.30519017350161E-05,2.92353615805041E-06,0.52734375,0,0
-2.48341166297905E-05,3.2456891858601E-06,0.52734375,0,0
-2.64606715063564E-05,4.88367686557467E-06,0.52734375,0,0
-2.95686841127463E-05,8.58407292980701E-06,0.52734375,0,0
-2.94327237497782E-05,1.15676439236267E-05,0.52734375,0,0
-2.8747954274877E-05,1.48951758092153E-05,0.52734375,0,0
-2.48984015343012E-05,1.50102068801061E-05,0.52734375,0,0
-2.42387650359888E-05,1.45860758493654E-05,0.52734375,0,0
-2.33909595408477E-05,1.17593863251386E-05,0.52734375,0,0
-2.5338924388052E-05,9.38928678806406E-06,0.52734375,0,0
-2.56140720011899E-05,4.70083932668786E-06,0.52734375,0,0
-2.6763709684019E-05,1.24229109133012E-06,0.52734375,0,0
-2.64742320723599E-05,-1.66650443134131E-06,0.52734375,0,0
-2.84352445305558E-05,-2.23253255171585E-06,0.52734375,0,0
-2.98860777547816E-05,-2.00425665752846E-06,0.52734375,0,0
-3.01612217299407E-05,7.55414717446001E-08,0.52734375,0,0
-2.87010952888522E-05,3.2355449093302E-06,0.52734375,0,0
-2.79106261587003E-05,4.03566082241014E-06,0.52734375,0,0
-2.27463715418708E-05,2.89049467028235E-06,0.52734375,0,0
-3.23066415148787E-05,4.42623104390805E-06,0.52734375,0,0
-2.46413801505696E-05,4.20804826717358E-06,0.52734375,0,0
-3.13765085593332E-05,5.39237043994945E-06,0.52734375,0,0
-2.73168789135525E-05,5.01919976159115E-06,0.52734375,0,0
-2.97353471978568E-05,4.76856439490803E-06,0.52734375,0,0
-2.72955348918913E-05,3.9021115298965E-06,0.52734375,0,0
-2.93370376311941E-05,4.11017663282109E-06,0.52734375,0,0
-2.88521441689227E-05,6.80566336086486E-06,0.52734375,0,0
-2.83253193629207E-05,1.2011306353088E-05,0.52734375,0,0
-2.68907660938567E-05,1.53082874021493E-05,0.52734375,0,0
-2.44961720454739E-05,1.50682099047117E-05,0.52734375,0,0
-2.54774204222485E-05,1.46295951708453E-05,0.52734375,0,0
-2.5086435925914E-05,1.60711351782084E-05,0.52734375,0,0
-2.56483453995315E-05,1.8429578631185E-05,0.52734375,0,0
-2.2991076548351E-05,1.8726921553025E-05,0.52734375,0,0
-2.34428207477322E-05,1.73175503732637E-05,0.52734375,0,0
-2.21011414396344E-05,1.52994871314149E-05,0.52734375,0,0
-2.2738502593711E-05,1.45411477205926E-05,0.52734375,0,0
-2.12550912692677E-05,1.39491767185973E-05,0.52734375,0,0
-2.18422883335734E-05,1.3488189324562E-05,0.52734375,0,0
-2.15832078538369E-05,1.25093965834822E-05,0.52734375,0,0
-2.31442518270342E-05,1.15942548291059E-05,0.52734375,0,0
-2.44419388764072E-05,1.2773047274095E-05,0.52734375,0,0
-2.69394677161472E-05,1.66144745890051E-05,0.52734375,0,0
-2.69462962023681E-05,2.12962531804806E-05,0.52734375,0,0
-2.42051755776629E-05,2.43142440012889E-05,0.52734375,0,0
-1.67697835422587E-05,1.86154793482274E-05,0.52734375,0,0
-2.47021816903725E-05,2.66818187810713E-05,0.52734375,0,0
-2.15196268982254E-05,1.99775804503588E-05,0.52734375,0,0
-2.76042392215459E-05,2.25876683543902E-05,0.52734375,0,0
-2.28905937547097E-05,1.52731445268728E-05,0.52734375,0,0
-2.26920710701961E-05,1.68217939062743E-05,0.52734375,0,0
-2.03550353035098E-05,1.68079877767013E-05,0.52734375,0,0
-2.24987925321329E-05,2.04677453439217E-05,0.52734375,0,0
-2.33369300985942E-05,1.76701851160033E-05,0.52734375,0,0
-2.36157575272955E-05,1.30415783132776E-05,0.52734375,0,0
-2.26223928621039E-05,1.1727037417586E-05,0.52734375,0,0
-2.03662457352038E-05,1.27945331769297E-05,0.52734375,0,0
-2.00785198103404E-05,1.52089423863799E-05,0.52734375,0,0
-1.98841680685291E-05,1.31655597215286E-05,0.52734375,0,0
-2.18075310840504E-05,1.15492430268205E-05,0.52734375,0,0
-2.21314967348007E-05,8.89710918272613E-06,0.52734375,0,0
-2.38874126807787E-05,8.94258755579358E-06,0.52734375,0,0
-2.26153406401863E-05,5.99063560002833E-06,0.52734375,0,0
-2.26720330829266E-05,4.56093539469293E-06,0.52734375,0,0
-2.15896998270182E-05,3.03276078739145E-06,0.52734375,0,0
-2.24201030505355E-05,4.47128559244447E-06,0.52734375,0,0
-2.27454256673809E-05,4.96204620503704E-06,0.52734375,0,0
-2.32123256864725E-05,6.65440120428684E-06,0.52734375,0,0
-2.2175554477144E-05,8.5004494394525E-06,0.52734375,0,0
-2.25454750761855E-05,1.09606098703807E-05,0.52734375,0,0
-2.35627921938431E-05,1.21766825031955E-05,0.52734375,0,0
-2.37185649893945E-05,1.27222483570222E-05,0.52734375,0,0
-1.93361538549652E-05,1.02388075902127E-05,0.52734375,0,0
-2.78695806628093E-05,1.25120905067888E-05,0.52734375,0,0
-2.0761510313605E-05,7.59539580030832E-06,0.52734375,0,0
-2.51384644798236E-05,1.15211123556946E-05,0.52734375,0,0
-2.21333102672361E-05,1.10277442217921E-05,0.52734375,0,0
-2.49814129347214E-05,1.40645652209059E-05,0.52734375,0,0
-2.22073031181935E-05,1.50845817188383E-05,0.52734375,0,0
-2.33632999879774E-05,1.69423274201108E-05,0.52734375,0,0
-2.43112262978684E-05,1.59520550369052E-05,0.52734375,0,0
-2.5988299967139E-05,1.74951710505411E-05,0.52734375,0,0
-2.66553870460484E-05,1.97274839592865E-05,0.52734375,0,0
-2.5838677174761E-05,1.83239881152986E-05,0.52734375,0,0
-2.66026436293032E-05,1.53486307681305E-05,0.52734375,0,0
-2.66428087343229E-05,1.24910702652414E-05,0.52734375,0,0
-2.88231967715546E-05,1.45227595567121E-05,0.52734375,0,0
-2.7724337996915E-05,1.50816276800469E-05,0.52734375,0,0
-2.85512232949259E-05,1.30008129417547E-05,0.52734375,0,0
-2.81663033092627E-05,7.48681986806332E-06,0.52734375,0,0
-2.90909702016506E-05,6.11808809480863E-06,0.52734375,0,0
-2.76910159300314E-05,7.46445812183083E-06,0.52734375,0,0
-2.72691358986776E-05,9.47258376982063E-06,0.52734375,0,0
-2.51186011155369E-05,1.0537851267145E-05,0.52734375,0,0
-2.46021991188172E-05,1.23780146168428E-05,0.52734375,0,0
-2.41482521232683E-05,1.24272810353432E-05,0.52734375,0,0
-2.44892362388782E-05,1.20784834507504E-05,0.52734375,0,0
-2.46574072662042E-05,1.19652395369485E-05,0.52734375,0,0
-2.5982661099988E-05,1.00675651992788E-05,0.52734375,0,0
-2.19249886868056E-05,2.06103482014441E-06,0.52734375,0,0
-3.08873823087197E-05,1.1809265743068E-06,0.52734375,0,0
-2.31165995501215E-05,1.63549509579752E-06,0.52734375,0,0
-2.85098594758892E-05,4.84902375319507E-06,0.52734375,0,0
-2.40300651057623E-05,4.5845399654354E-06,0.52734375,0,0
-2.69610882241977E-05,7.35065805201884E-06,0.52734375,0,0
-2.40563531406224E-05,1.03118500192068E-05,0.52734375,0,0
-2.58698073594132E-05,1.3232056517154E-05,0.52734375,0,0
-2.61151035374496E-05,1.41022492243792E-05,0.52734375,0,0
-2.6814108423423E-05,1.53745695570251E-05,0.52734375,0,0
-2.72955603577429E-05,1.55062061821809E-05,0.52734375,0,0
-2.66042679868406E-05,1.31783008328057E-05,0.52734375,0,0
-2.73175410256954E-05,1.12434590846533E-05,0.52734375,0,0
-2.57231749856146E-05,9.51461333897896E-06,0.52734375,0,0
-2.70308992185164E-05,7.11954317011987E-06,0.52734375,0,0
-2.68645962933078E-05,4.13290217693429E-06,0.52734375,0,0
-2.9604125302285E-05,4.27221038989956E-06,0.52734375,0,0
-2.98472059512278E-05,5.51507082491298E-06,0.52734375,0,0
-3.06260917568579E-05,5.70770134800114E-06,0.52734375,0,0
-2.71331409749109E-05,4.99382758789579E-06,0.52734375,0,0
-2.47103143919958E-05,7.70927999838023E-06,0.52734375,0,0
-2.27260679821484E-05,1.2216427421663E-05,0.52734375,0,0
-2.48513679252937E-05,1.542764948681E-05,0.52734375,0,0
-2.54666574619478E-05,1.6976797269308E-05,0.52734375,0,0
-2.3934702767292E-05,1.67670423252275E-05,0.52734375,0,0
-2.26334213948576E-05,1.37437746161595E-05,0.52734375,0,0
-2.36722662521061E-05,9.59572116698837E-06,0.52734375,0,0
-1.85305616469122E-05,5.30325087311212E-06,0.52734375,0,0
-2.32788297580555E-05,7.02860234014224E-06,0.52734375,0,0
-1.26459108287236E-05,3.46178353538562E-06,0.52734375,0,0
-1.66166792041622E-05,2.60522506323468E-06,0.52734375,0,0
-1.46143411257071E-05,1.06362719520803E-07,0.52734375,0,0
-1.91938779607881E-05,1.65239578109322E-06,0.52734375,0,0
-1.79351318365661E-05,3.68455812349566E-06,0.52734375,0,0
-2.00624999706633E-05,6.11855375609593E-06,0.52734375,0,0
-2.01312432182021E-05,7.47276681067888E-06,0.52734375,0,0
-1.99576479644747E-05,8.64989397086902E-06,0.52734375,0,0
-1.8728647773969E-05,8.57994564285036E-06,0.52734375,0,0
-1.71370811585803E-05,8.62241267896025E-06,0.52734375,0,0
-1.8639520931174E-05,1.1105651537946E-05,0.52734375,0,0
-1.8905455362983E-05,1.43680790642975E-05,0.52734375,0,0
-2.14356350625167E-05,1.70212133525638E-05,0.52734375,0,0
-2.12503164220834E-05,1.82047460839385E-05,0.52734375,0,0
-2.25873009185307E-05,2.0822479200433E-05,0.52734375,0,0
-2.21573445742251E-05,2.30568493861938E-05,0.52734375,0,0
-2.39199653151445E-05,2.33782157010864E-05,0.52734375,0,0
-2.37480271607637E-05,2.04602347366745E-05,0.52734375,0,0
-2.3985488951439E-05,1.78572208824335E-05,0.52734375,0,0
-2.21556620090269E-05,1.60866402438842E-05,0.52734375,0,0
-2.21279296965804E-05,1.47038117574994E-05,0.52734375,0,0
-2.2202315449249E-05,1.37086026370525E-05,0.52734375,0,0
-2.32082838920178E-05,1.38846453410224E-05,0.52734375,0,0
-2.32437250815565E-05,1.31945062094019E-05,0.52734375,0,0
-2.21626196434954E-05,1.28488600239507E-05,0.52734375,0,0
-1.69036375154974E-05,1.07442565422389E-05,0.52734375,0,0
-2.27908312808722E-05,1.60884173965314E-05,0.52734375,0,0
-1.63389231602196E-05,1.30382250063121E-05,0.52734375,0,0
-2.04108655452728E-05,1.61550542543409E-05,0.52734375,0,0
-1.62744654517155E-05,1.32264349304023E-05,0.52734375,0,0
-1.90219507203437E-05,1.06941115518566E-05,0.52734375,0,0
-1.75627810676815E-05,3.60557305612019E-06,0.52734375,0,0
-1.97075914911693E-05,-1.2266998510313E-06,0.52734375,0,0
-2.05889118660707E-05,-3.66742870028247E-06,0.52734375,0,0
-2.12797494896222E-05,-2.29829652198532E-06,0.52734375,0,0
-2.04880543606123E-05,-6.05833605504813E-08,0.52734375,0,0
-1.87635887414217E-05,2.19587650462927E-06,0.52734375,0,0
-1.98679772438481E-05,5.45073407920427E-06,0.52734375,0,0
-2.05480555450777E-05,5.88230295761605E-06,0.52734375,0,0
-2.4021179342526E-05,6.63139780954225E-06,0.52734375,0,0
-2.45128085225588E-05,8.43051111587556E-06,0.52734375,0,0
-2.55923150689341E-05,1.27108414744725E-05,0.52734375,0,0
-2.56527382589411E-05,1.39107960421825E-05,0.52734375,0,0
-2.80655876849778E-05,1.39990988827776E-05,0.52734375,0,0
-2.72810357273556E-05,1.28508190755383E-05,0.52734375,0,0
-2.70412911049789E-05,1.2303587027418E-05,0.52734375,0,0
-2.64045447693206E-05,1.11312147055287E-05,0.52734375,0,0
-2.68524800048908E-05,1.06179795693606E-05,0.52734375,0,0
-2.6264484404237E-05,1.06588058770285E-05,0.52734375,0,0
-2.650701571838E-05,1.25156620924827E-05,0.52734375,0,0
-2.5971365175792E-05,1.35183681777562E-05,0.52734375,0,0
-2.40752397075994E-05,1.24451080409926E-05,0.52734375,0,0
-1.81191717274487E-05,6.39671043245471E-06,0.52734375,0,0
-2.62530793406768E-05,4.10144230045262E-06,0.52734375,0,0
-2.11480237339856E-05,-4.62780826637754E-06,0.52734375,0,0
-2.61394088738598E-05,-3.95802862840355E-06,0.52734375,0,0
-2.19405428651953E-05,-2.56108114626841E-06,0.52734375,0,0
-2.50667944783345E-05,4.84232759845327E-06,0.52734375,0,0
-2.45831997744972E-05,9.05593242350733E-06,0.52734375,0,0
-2.62967860180652E-05,1.04928267319337E-05,0.52734375,0,0
-2.60757078649476E-05,7.92214541434078E-06,0.52734375,0,0
-2.57536630670074E-05,6.21234539721627E-06,0.52734375,0,0
-2.49171171162743E-05,7.07946992406505E-06,0.52734375,0,0
-2.43256490648491E-05,7.375489531114E-06,0.52734375,0,0
-2.61336190305883E-05,7.37760683477973E-06,0.52734375,0,0
-2.60228935076157E-05,6.35432616036269E-06,0.52734375,0,0
-2.75719758064952E-05,6.6027191678586E-06,0.52734375,0,0
-2.75448965112446E-05,6.94971276971046E-06,0.52734375,0,0
-2.97708265861729E-05,9.24122105061542E-06,0.52734375,0,0
-3.05861467495561E-05,9.68128097156296E-06,0.52734375,0,0
-3.22426567436196E-05,8.99691076483577E-06,0.52734375,0,0
-3.00133724522311E-05,7.76398246671306E-06,0.52734375,0,0
-2.95670452032937E-05,7.81406288297148E-06,0.52734375,0,0
-3.01104355457937E-05,7.08411698724376E-06,0.52734375,0,0
-3.17008380079642E-05,7.64346987125464E-06,0.52734375,0,0
-3.12208649120294E-05,1.02222966233967E-05,0.52734375,0,0
-2.8602469683392E-05,1.30479220388224E-05,0.52734375,0,0
-2.54387250606669E-05,1.52405145854573E-05,0.52734375,0,0
-2.55247450695606E-05,1.6628073353786E-05,0.52734375,0,0
-2.01479524548631E-05,1.10133914859034E-05,0.52734375,0,0
-2.71963763225358E-05,1.35880482048378E-05,0.52734375,0,0
-1.90928130905377E-05,8.87330588739133E-06,0.52734375,0,0
-2.57978608715348E-05,1.41946493386058E-05,0.52734375,0,0
-2.33744176512118E-05,1.23302115753177E-05,0.52734375,0,0
-2.62620906141819E-05,1.33555831780541E-05,0.52734375,0,0
-2.35284114751266E-05,1.02289513961296E-05,0.52734375,0,0
-2.50612338277278E-05,7.89341720519587E-06,0.52734375,0,0
-2.45815463131294E-05,5.62408331461484E-06,0.52734375,0,0
-2.43387821683427E-05,4.59897000837373E-06,0.52734375,0,0
-2.37794283748372E-05,4.39917766925646E-06,0.52734375,0,0
-2.27855707635172E-05,4.57604710391024E-06,0.52734375,0,0
-2.37166987062665E-05,7.28644681657897E-06,0.52734375,0,0
-2.20821457332931E-05,1.01416462712223E-05,0.52734375,0,0
-2.16526877920842E-05,1.23010013339808E-05,0.52734375,0,0
-2.01310285774525E-05,1.17514646262862E-05,0.52734375,0,0
-2.26971296797274E-05,1.23026393339387E-05,0.52734375,0,0
-2.26805386773776E-05,1.08471203930094E-05,0.52734375,0,0
-2.31953254115069E-05,1.00401257441263E-05,0.52734375,0,0
-2.14125921047525E-05,9.12304858502466E-06,0.52734375,0,0
-2.20876590901753E-05,1.02081503428053E-05,0.52734375,0,0
-2.19591638597194E-05,1.11507124529453E-05,0.52734375,0,0
-2.2872993213241E-05,1.2259668437764E-05,0.52734375,0,0
-2.18132299778517E-05,1.11436875158688E-05,0.52734375,0,0
-2.07783286896301E-05,8.46088732942007E-06,0.52734375,0,0
-2.03051749849692E-05,8.57241684570909E-06,0.52734375,0,0
-2.08663532248465E-05,1.19561391329626E-05,0.52734375,0,0
-1.75810346263461E-05,1.13217529360554E-05,0.52734375,0,0
-2.57342926488491E-05,1.76176999957534E-05,0.52734375,0,0
-2.0821951693506E-05,1.29089412439498E-05,0.52734375,0,0
-2.56282582995482E-05,1.15248894871911E-05,0.52734375,0,0
-2.21893824345898E-05,5.14461316925008E-06,0.52734375,0,0
-2.49337736022426E-05,2.19105663745722E-06,0.52734375,0,0
-2.33522805501707E-05,6.39963332105253E-07,0.52734375,0,0
-2.41536381508922E-05,5.03124738315819E-06,0.52734375,0,0
-2.40144145209342E-05,8.84912151377648E-06,0.52734375,0,0
-2.49398490268504E-05,1.07767782537849E-05,0.52734375,0,0
-2.57314313785173E-05,1.06932120615966E-05,0.52734375,0,0
-2.48768628807738E-05,9.19101512408815E-06,0.52734375,0,0
-2.43759404838784E-05,9.67090909398394E-06,0.52734375,0,0
-2.23702372750267E-05,1.05878680187743E-05,0.52734375,0,0
-2.35871921177022E-05,1.22962746900157E-05,0.52734375,0,0
-2.42984278884251E-05,1.26060849652276E-05,0.52734375,0,0
-2.50755438173655E-05,1.48912340591778E-05,0.52734375,0,0
-2.12638424272882E-05,1.57394260895671E-05,0.52734375,0,0
-1.9573662939365E-05,1.48824874486309E-05,0.52734375,0,0
-1.82050698640523E-05,1.15021639430779E-05,0.52734375,0,0
-1.85465705726529E-05,9.44301700656069E-06,0.52734375,0,0
-1.78230038727634E-05,8.79430444911122E-06,0.52734375,0,0
-1.87077930604573E-05,9.05957858776674E-06,0.52734375,0,0
-1.91227882169187E-05,6.55811163596809E-06,0.52734375,0,0
-1.92998286365764E-05,4.33670675192843E-06,0.52734375,0,0
-1.81375762622338E-05,5.0577245929162E-06,0.52734375,0,0
-1.8375181753072E-05,7.67921119404491E-06,0.52734375,0,0
-1.64844514074503E-05,6.94530262990156E-06,0.52734375,0,0
-2.28770659305155E-05,8.55309281178052E-06,0.52734375,0,0
-1.67165053426288E-05,3.96873656427488E-06,0.52734375,0,0
-2.200615745096E-05,5.04826039104955E-06,0.52734375,0,0
-1.94477761397138E-05,3.84674513043137E-06,0.52734375,0,0
-2.11696806218242E-05,5.19860532222083E-06,0.52734375,0,0
-1.95301854546415E-05,4.71108796773478E-06,0.52734375,0,0
-2.15116670005955E-05,5.29216322320281E-06,0.52734375,0,0
-2.12003633350832E-05,6.3127286011877E-06,0.52734375,0,0
-2.02956580324098E-05,9.47090939007467E-06,0.52734375,0,0
-2.05439973797183E-05,1.39933927130187E-05,0.52734375,0,0
-2.08235996979056E-05,1.68605693033896E-05,0.52734375,0,0
-2.18162131204735E-05,1.72270774783101E-05,0.52734375,0,0
-1.97972640307853E-05,1.59318697114941E-05,0.52734375,0,0
-1.95057837117929E-05,1.40218135129544E-05,0.52734375,0,0
-1.95747634279542E-05,9.17549095902359E-06,0.52734375,0,0
-2.25647327170009E-05,6.49057346890913E-06,0.52734375,0,0
-2.24550421989989E-05,7.63300977268955E-06,0.52734375,0,0
-2.17442375287646E-05,1.11798863144941E-05,0.52734375,0,0
-1.96738837985322E-05,1.09142320070532E-05,0.52734375,0,0
-2.07631201192271E-05,9.39997335080989E-06,0.52734375,0,0
-2.16272746911272E-05,1.06246834548074E-05,0.52734375,0,0
-2.34056133194827E-05,1.49607785715489E-05,0.52734375,0,0
-2.54538881563349E-05,1.68173410202144E-05,0.52734375,0,0
-2.87555376417004E-05,1.59650153364055E-05,0.52734375,0,0
-3.03100459859706E-05,1.47195469253347E-05,0.52734375,0,0
-2.92127315333346E-05,1.47939690577914E-05,0.52734375,0,0
-2.23188908421434E-05,1.40148067657719E-05,0.52734375,0,0
-3.13517375616357E-05,2.08586643566377E-05,0.52734375,0,0
-2.29729193961248E-05,1.53845867316704E-05,0.52734375,0,0
-2.83605659205932E-05,1.69260511029279E-05,0.52734375,0,0
-2.29151391977211E-05,1.45150997923338E-05,0.52734375,0,0
-2.52193822234403E-05,1.89805759873707E-05,0.52734375,0,0
-2.34121816902189E-05,2.16655498661567E-05,0.52734375,0,0
-2.56554249062901E-05,2.43537724600174E-05,0.52734375,0,0
-2.44727089011576E-05,2.1750152882305E-05,0.52734375,0,0
-2.30502027989132E-05,2.02627543330891E-05,0.52734375,0,0
-2.34205836022738E-05,1.98402558453381E-05,0.52734375,0,0
-2.47064654104179E-05,1.78307491296437E-05,0.52734375,0,0
-2.73627738351934E-05,1.77862675627694E-05,0.52734375,0,0
-2.74854719464201E-05,1.68260467034997E-05,0.52734375,0,0
-2.87960592686431E-05,1.59590745170135E-05,0.52734375,0,0
-2.65694743575295E-05,1.30635808091029E-05,0.52734375,0,0
-2.69752672465984E-05,1.33459088829113E-05,0.52734375,0,0
-2.65855614998145E-05,1.49928719110903E-05,0.52734375,0,0
-2.91772557829972E-05,1.87012901733397E-05,0.52734375,0,0
-2.90091047645547E-05,1.83462598215556E-05,0.52734375,0,0
-2.91172782453941E-05,1.65002984431339E-05,0.52734375,0,0
-2.72867673629662E-05,1.31464475998655E-05,0.52734375,0,0
-2.73937457677675E-05,1.18451707749045E-05,0.52734375,0,0
-2.71710614470067E-05,1.41125683512655E-05,0.52734375,0,0
-2.71033895842265E-05,1.6786909327493E-05,0.52734375,0,0
-2.65028975263704E-05,1.51032745634438E-05,0.52734375,0,0
-2.81192988040857E-05,1.06112693174509E-05,0.52734375,0,0
-2.35637326113647E-05,3.83020051231142E-06,0.52734375,0,0
-3.34681571985129E-05,2.90422076432151E-06,0.52734375,0,0
-2.57782176049659E-05,2.63303945757798E-07,0.52734375,0,0
-3.1642153771827E-05,4.21402592110098E-06,0.52734375,0,0
-2.63402907876298E-05,6.03330636295141E-06,0.52734375,0,0
-3.04041950585088E-05,5.98443375565694E-06,0.52734375,0,0
-2.92659860861022E-05,3.56906207343854E-06,0.52734375,0,0
-3.17209523927886E-05,4.94261121275485E-06,0.52734375,0,0
-3.06112196994945E-05,7.96320364315761E-06,0.52734375,0,0
-2.89781455649063E-05,1.28792007672018E-05,0.52734375,0,0
-2.78423667623429E-05,1.64619705174118E-05,0.52734375,0,0
-2.70023956545629E-05,1.64368630066747E-05,0.52734375,0,0
-2.82471264654305E-05,1.47651089719147E-05,0.52734375,0,0
-2.65781491179951E-05,1.22650471894303E-05,0.52734375,0,0
-2.66622973867925E-05,1.22112378448946E-05,0.52734375,0,0
-2.4479801140842E-05,1.49809657159494E-05,0.52734375,0,0
-2.55790546361823E-05,1.97519366338383E-05,0.52734375,0,0
-2.40610606851988E-05,2.15978943742812E-05,0.52734375,0,0
-2.44645307247993E-05,2.07048888114514E-05,0.52734375,0,0
-2.22958424274111E-05,1.77355141204316E-05,0.52734375,0,0
-2.17652232095134E-05,1.60315994435223E-05,0.52734375,0,0
-2.07452267204644E-05,1.62352171173552E-05,0.52734375,0,0
-2.20501515286742E-05,1.76720513991313E-05,0.52734375,0,0
-2.15273230423918E-05,1.70095008797944E-05,0.52734375,0,0
-1.98257930605905E-05,1.41817818075651E-05,0.52734375,0,0
-1.8598457245389E-05,1.13654750748537E-05,0.52734375,0,0
-2.06849799724296E-05,1.05393510239082E-05,0.52734375,0,0
-1.93690630112542E-05,9.66615152719896E-06,0.52734375,0,0
-2.73090863629477E-05,1.50541281982441E-05,0.52734375,0,0
-1.94003732758574E-05,1.21284510896658E-05,0.52734375,0,0
-2.2954029191169E-05,1.3181816029828E-05,0.52734375,0,0
-1.74210599652724E-05,1.04074497357942E-05,0.52734375,0,0
-1.87399054993875E-05,1.07226478576194E-05,0.52734375,0,0
-1.7978236428462E-05,8.44532132759923E-06,0.52734375,0,0
-2.02605624508578E-05,7.21818832971621E-06,0.52734375,0,0
-2.02316987270024E-05,6.26201426712214E-06,0.52734375,0,0
-1.93730029423023E-05,7.93435992818559E-06,0.52734375,0,0
-1.78897698788205E-05,1.02758103821543E-05,0.52734375,0,0
-1.60702675202629E-05,1.12165489554172E-05,0.52734375,0,0
-1.76427311089356E-05,1.32061331896693E-05,0.52734375,0,0
-1.90799164556665E-05,1.38129162223777E-05,0.52734375,0,0
-2.24465748033253E-05,1.1716253538907E-05,0.52734375,0,0
-2.25431849685265E-05,5.53479640075238E-06,0.52734375,0,0
-2.3144395527197E-05,1.08014478428231E-06,0.52734375,0,0
-2.09780955628958E-05,-1.14219869828958E-06,0.52734375,0,0
-2.12731974897906E-05,2.4808247189867E-07,0.52734375,0,0
-2.13588828046341E-05,1.89233185210469E-06,0.52734375,0,0
-2.31105241255136E-05,3.55139013663575E-06,0.52734375,0,0
-2.35304287343752E-05,4.30870159107144E-06,0.52734375,0,0
-2.44027123699198E-05,5.54895132154343E-06,0.52734375,0,0
-2.28634271479677E-05,7.10263248038245E-06,0.52734375,0,0
-2.12265622394625E-05,9.51099445956061E-06,0.52734375,0,0
-2.19309513340704E-05,9.18410569283878E-06,0.52734375,0,0
-2.46752497332636E-05,7.0112150751811E-06,0.52734375,0,0
-1.97361569007626E-05,4.22990251536248E-06,0.52734375,0,0
-2.648865665833E-05,8.88676913746167E-06,0.52734375,0,0
-1.93402374861762E-05,1.15568491310114E-05,0.52734375,0,0
-2.53296639129985E-05,1.35023465190898E-05,0.52734375,0,0
-2.03557792701758E-05,1.21444918477209E-05,0.52734375,0,0
-2.26944175665267E-05,1.35520149342483E-05,0.52734375,0,0
-1.97225162992254E-05,1.6187395885936E-05,0.52734375,0,0
-2.04562347789761E-05,1.8281443772139E-05,0.52734375,0,0
-2.04888856387697E-05,1.56900150614092E-05,0.52734375,0,0
-2.2969643396209E-05,1.14690874397638E-05,0.52734375,0,0
-2.58491982094711E-05,1.00269180620671E-05,0.52734375,0,0
-2.59880871453788E-05,1.07491823655437E-05,0.52734375,0,0
-2.59550870396197E-05,1.18153229777818E-05,0.52734375,0,0
-2.42338974203449E-05,8.43222733237781E-06,0.52734375,0,0
-2.53112757491181E-05,-4.30850519705928E-07,0.52734375,0,0
-2.39566852542339E-05,-8.23017398943193E-06,0.52734375,0,0
-2.47648731601657E-05,-7.4563899943314E-06,0.52734375,0,0
-2.45835035457276E-05,-3.14293458814063E-07,0.52734375,0,0
-2.75773236353416E-05,8.14272152638296E-06,0.52734375,0,0
-2.78875359072117E-05,1.32263348859851E-05,0.52734375,0,0
-2.80479398497846E-05,1.51588883454679E-05,0.52734375,0,0
-2.61816185229691E-05,1.66102799994405E-05,0.52734375,0,0
-2.62852499872679E-05,1.61461884999881E-05,0.52734375,0,0
-2.61125023826025E-05,1.16811806947226E-05,0.52734375,0,0
-2.72376109933248E-05,8.00961061031558E-06,0.52734375,0,0
-2.77653616649332E-05,7.05251977706212E-06,0.52734375,0,0
-2.71511707978789E-05,7.48550337448251E-06,0.52734375,0,0
-2.05677297344664E-05,8.85381541593233E-06,0.52734375,0,0
-2.88177343463758E-05,1.63865206559421E-05,0.52734375,0,0
-2.09465106308926E-05,1.58877610374475E-05,0.52734375,0,0
-2.64979298663093E-05,1.50938039951143E-05,0.52734375,0,0
-2.33815608225996E-05,9.75929742708104E-06,0.52734375,0,0
-2.79468677035766E-05,6.71927637085901E-06,0.52734375,0,0
-2.75535221589962E-05,5.10121481056558E-06,0.52734375,0,0
-3.03511915262789E-05,6.01481406192761E-06,0.52734375,0,0
-3.15558027068619E-05,3.51237349605071E-06,0.52734375,0,0
-3.12204138026573E-05,1.52771576722444E-06,0.52734375,0,0
-2.99741350318072E-05,3.35475078827585E-06,0.52734375,0,0
-2.89868476102129E-05,7.09190362613299E-06,0.52734375,0,0
-3.05586945614778E-05,9.9972567113582E-06,0.52734375,0,0
-3.02415937767364E-05,9.82792789727682E-06,0.52734375,0,0
-3.18512466037646E-05,8.7170374172274E-06,0.52734375,0,0
-3.06856163660996E-05,6.49130333840731E-06,0.52734375,0,0
-3.02363750961376E-05,4.8327246986446E-06,0.52734375,0,0
-2.69128031504806E-05,2.86468070953561E-06,0.52734375,0,0
-2.5272758648498E-05,3.78815911972197E-06,0.52734375,0,0
-2.26836000365438E-05,6.11088125879178E-06,0.52734375,0,0
-2.35423813137459E-05,8.33232934382977E-06,0.52734375,0,0
-2.43882186623523E-05,8.5291776485974E-06,0.52734375,0,0
-2.66183760686545E-05,1.00513352663256E-05,0.52734375,0,0
-2.68049698206596E-05,1.35968157337629E-05,0.52734375,0,0
-2.5636871214374E-05,1.89684524229961E-05,0.52734375,0,0
-2.31995181820821E-05,2.13861640077084E-05,0.52734375,0,0
-2.17471406358527E-05,2.03581312234746E-05,0.52734375,0,0
-1.78453155967873E-05,1.42640128615312E-05,0.52734375,0,0
-2.46823128691176E-05,1.56155147124082E-05,0.52734375,0,0
-1.69857157743536E-05,6.81451365380781E-06,0.52734375,0,0
-1.99997848540079E-05,1.36989010570687E-05,0.52734375,0,0
-1.6951140423771E-05,1.51635613292456E-05,0.52734375,0,0
-2.0351872080937E-05,2.01766561076511E-05,0.52734375,0,0
-1.71279571077321E-05,1.75552486325614E-05,0.52734375,0,0
-1.72360669239424E-05,1.65263827511808E-05,0.52734375,0,0
-1.7245900380658E-05,1.37689848997979E-05,0.52734375,0,0
-1.85027893166989E-05,1.48580784298247E-05,0.52734375,0,0
-1.95306311070453E-05,1.87455698323902E-05,0.52734375,0,0
-1.93112828128506E-05,2.02588307729457E-05,0.52734375,0,0
-1.94487038243096E-05,1.89081947610248E-05,0.52734375,0,0
-1.71829888131469E-05,1.34476549646934E-05,0.52734375,0,0
-1.75684126588749E-05,9.89174986898433E-06,0.52734375,0,0
-1.72214040503604E-05,4.84509564557811E-06,0.52734375,0,0
-1.90614427992841E-05,2.40550616581459E-06,0.52734375,0,0
-1.90401806321461E-05,-4.18956858538877E-07,0.52734375,0,0
-2.07084958674386E-05,-6.43423305746182E-08,0.52734375,0,0
-1.91585895663593E-05,-3.6958908822271E-07,0.52734375,0,0
-1.77692072611535E-05,1.61831724199146E-06,0.52734375,0,0
-1.53788605530281E-05,3.18698380397109E-06,0.52734375,0,0
-1.55434099724516E-05,6.26088012722903E-06,0.52734375,0,0
-1.70608363987412E-05,8.7937260104809E-06,0.52734375,0,0
-2.06597342184978E-05,1.15084103526897E-05,0.52734375,0,0
-2.33908813243033E-05,1.14693502837326E-05,0.52734375,0,0
-2.28084354603197E-05,1.0438005119795E-05,0.52734375,0,0
-1.62154738063691E-05,1.11931376522989E-05,0.52734375,0,0
-2.22260350710712E-05,1.91251365322387E-05,0.52734375,0,0
-1.70511011674535E-05,1.71502833836712E-05,0.52734375,0,0
-2.35798670473741E-05,1.96311430045171E-05,0.52734375,0,0
-2.19160410779295E-05,1.84198397619184E-05,0.52734375,0,0
-2.5605782866478E-05,1.69986924447585E-05,0.52734375,0,0
-2.60329434240703E-05,1.16194014481152E-05,0.52734375,0,0
-2.95300324069103E-05,8.36750587041024E-06,0.52734375,0,0
-2.99812145385658E-05,8.30246062832884E-06,0.52734375,0,0
-2.90217012661742E-05,1.22214996736147E-05,0.52734375,0,0
-2.76042683253763E-05,1.55125362653052E-05,0.52734375,0,0
-2.56103703577537E-05,1.476172292314E-05,0.52734375,0,0
-2.54363385465695E-05,1.39874091473757E-05,0.52734375,0,0
-2.3668741050642E-05,1.30878088384634E-05,0.52734375,0,0
-2.3014479666017E-05,1.23725940284203E-05,0.52734375,0,0
-2.11400947591756E-05,1.01200212156982E-05,0.52734375,0,0
-2.29276520258281E-05,9.47195894696051E-06,0.52734375,0,0
-2.30702480621403E-05,8.55773396324366E-06,0.52734375,0,0
-2.30001587624429E-05,6.77755087963305E-06,0.52734375,0,0
-2.03677409444936E-05,3.48739922628738E-06,0.52734375,0,0
-1.96969431272009E-05,4.97736618854105E-06,0.52734375,0,0
-1.95875309145777E-05,9.4454289865098E-06,0.52734375,0,0
-2.12594131880905E-05,1.25038113765186E-05,0.52734375,0,0
-2.20769379666308E-05,1.22772189570242E-05,0.52734375,0,0
-2.21730952034704E-05,1.05988028735737E-05,0.52734375,0,0
-2.18939894693904E-05,8.91579111339524E-06,0.52734375,0,0
-2.2321954020299E-05,7.37396158001502E-06,0.52734375,0,0
-1.97577010112582E-05,3.68076666745765E-06,0.52734375,0,0
-2.97513979603536E-05,1.66959193848015E-06,0.52734375,0,0
-2.43921167566441E-05,-2.93825769404066E-06,0.52734375,0,0
-3.01528798445361E-05,-6.39791664980294E-07,0.52734375,0,0
-2.78592669928912E-05,5.01857698509411E-07,0.52734375,0,0
-3.04021923511755E-05,2.15580962503736E-06,0.52734375,0,0
-2.70665477728471E-05,4.13881934946403E-06,0.52734375,0,0
-2.8022199330735E-05,8.85686222318327E-06,0.52734375,0,0
-2.89667641482083E-05,1.10927121568238E-05,0.52734375,0,0
-2.96351954602869E-05,1.37987217385671E-05,0.52734375,0,0
-2.87371076410636E-05,1.59300434461329E-05,0.52734375,0,0
-2.63856945821317E-05,1.57357808348024E-05,0.52734375,0,0
-2.55778486462077E-05,1.6050340491347E-05,0.52734375,0,0
-2.21341651922558E-05,1.56428613991011E-05,0.52734375,0,0
-2.08651508728508E-05,1.38841332955053E-05,0.52734375,0,0
-1.93615524040069E-05,1.08443728095153E-05,0.52734375,0,0
-2.19460616790457E-05,1.01023360912222E-05,0.52734375,0,0
-2.23018832912203E-05,1.13516098281252E-05,0.52734375,0,0
-2.23448405449744E-05,1.42496182888863E-05,0.52734375,0,0
-1.98771813302301E-05,1.54560857481556E-05,0.52734375,0,0
-1.85446024261182E-05,1.7514012142783E-05,0.52734375,0,0
-1.61278694577049E-05,2.01292623387417E-05,0.52734375,0,0
-1.62939777510474E-05,2.20556776184822E-05,0.52734375,0,0
-1.76877674675779E-05,2.17653378058458E-05,0.52734375,0,0
-2.0213459720253E-05,2.0653676983784E-05,0.52734375,0,0
-2.13355506275548E-05,1.96982673514867E-05,0.52734375,0,0
-2.09649188036565E-05,1.73512344190385E-05,0.52734375,0,0
-1.73029930010671E-05,1.29258078231942E-05,0.52734375,0,0
-2.60115575656528E-05,1.87853966053808E-05,0.52734375,0,0
-2.22330454562325E-05,1.3945627870271E-05,0.52734375,0,0
-2.81217089650454E-05,1.78017435246147E-05,0.52734375,0,0
-2.55283266596962E-05,1.62682481459342E-05,0.52734375,0,0
-2.74597477982752E-05,1.81618561327923E-05,0.52734375,0,0
-2.47215139097534E-05,1.7236565327039E-05,0.52734375,0,0
-2.53370235441253E-05,1.75207223946927E-05,0.52734375,0,0
-2.49106469709659E-05,1.59832852659747E-05,0.52734375,0,0
-2.45626633841312E-05,1.32216910060379E-05,0.52734375,0,0
-2.45348837779602E-05,1.05435692603351E-05,0.52734375,0,0
-2.41951456700917E-05,7.70275710237911E-06,0.52734375,0,0
-2.49818458541995E-05,5.57623343411251E-06,0.52734375,0,0
-2.40065473917639E-05,3.72049566976784E-06,0.52734375,0,0
-2.49206041189609E-05,6.66068126520258E-06,0.52734375,0,0
-2.39110140682897E-05,1.19145915959962E-05,0.52734375,0,0
-2.38061802519951E-05,1.82561543624615E-05,0.52734375,0,0
-2.19618887058459E-05,1.92997795238625E-05,0.52734375,0,0
-2.29279557970585E-05,1.58079637913033E-05,0.52734375,0,0
-2.35315219470067E-05,7.39846609576489E-06,0.52734375,0,0
-2.61394488916267E-05,7.35669686946494E-07,0.52734375,0,0
-2.72308752755634E-05,-1.62861806529691E-06,0.52734375,0,0
-2.80479398497846E-05,-2.65200213789285E-07,0.52734375,0,0
-2.70812179223867E-05,-9.26837287806848E-07,0.52734375,0,0
-2.51194451266201E-05,-2.16211628867313E-06,0.52734375,0,0
-2.3088461603038E-05,-1.40178724450379E-06,0.52734375,0,0
-2.28852150030434E-05,2.84665225080971E-06,0.52734375,0,0
-1.87878340511816E-05,6.55429539619945E-06,0.52734375,0,0
-2.76269274763763E-05,1.11095905594993E-05,0.52734375,0,0
-2.19406683754642E-05,9.13943586056121E-06,0.52734375,0,0
-2.73703117272817E-05,1.04320452010143E-05,0.52734375,0,0
-2.43967806454748E-05,1.05078897831845E-05,0.52734375,0,0
-2.64316222455818E-05,9.65149320109049E-06,0.52734375,0,0
-2.26203610509401E-05,6.6194197643199E-06,0.52734375,0,0
-2.16542903217487E-05,5.04959552927176E-06,0.52734375,0,0
-2.07724606298143E-05,2.38664460994187E-06,0.52734375,0,0
-2.24039395106956E-05,1.82838917339723E-07,0.52734375,0,0
-2.46332274400629E-05,1.28103056340478E-06,0.52734375,0,0
-2.47618754656287E-05,4.66838355350774E-06,0.52734375,0,0
-2.46622457780177E-05,9.55393261392601E-06,0.52734375,0,0
-2.20903148147045E-05,1.22025030577788E-05,0.52734375,0,0
-2.21869904635241E-05,1.39434268930927E-05,0.52734375,0,0
-2.18379427678883E-05,1.44860978252837E-05,0.52734375,0,0
-2.30053265113384E-05,1.48091003211448E-05,0.52734375,0,0
-2.10396847251104E-05,1.41221280500758E-05,0.52734375,0,0
-2.14250194403576E-05,1.40771398946526E-05,0.52734375,0,0
-2.1131167159183E-05,1.4161294529913E-05,0.52734375,0,0
-2.12103950616438E-05,1.41611080834991E-05,0.52734375,0,0
-1.93592841242207E-05,1.38444665935822E-05,0.52734375,0,0
-1.93344021681696E-05,1.31307815536275E-05,0.52734375,0,0
-2.02882984012831E-05,1.31645410874626E-05,0.52734375,0,0
-2.36863979807822E-05,1.37313691084273E-05,0.52734375,0,0
-2.67074701696401E-05,1.29893405755865E-05,0.52734375,0,0
-2.60499909927603E-05,1.22602077681222E-05,0.52734375,0,0
-1.87958048627479E-05,8.56448059494141E-06,0.52734375,0,0
-2.63039528363151E-05,1.18125626613619E-05,0.52734375,0,0
-2.10521175176837E-05,1.03465908978251E-05,0.52734375,0,0
-2.88312876364216E-05,1.57738886628067E-05,0.52734375,0,0
-2.63895781245083E-05,1.57645426952513E-05,0.52734375,0,0
-2.85685728158569E-05,1.82579442480346E-05,0.52734375,0,0
-2.58555537584471E-05,1.81497598532587E-05,0.52734375,0,0
-2.67728337348672E-05,1.79351973201847E-05,0.52734375,0,0
-2.50301200139802E-05,1.5767367585795E-05,0.52734375,0,0
-2.39293985941913E-05,1.59135997819249E-05,0.52734375,0,0
-2.45179053308675E-05,1.64958637469681E-05,0.52734375,0,0
-2.58750660577789E-05,1.56014011736261E-05,0.52734375,0,0
-2.89255513052922E-05,1.65568708325736E-05,0.52734375,0,0
-2.89976414933335E-05,1.75194145413116E-05,0.52734375,0,0
-3.02442986139795E-05,1.49941133713583E-05,0.52734375,0,0
-2.89936670014868E-05,7.18653836884187E-06,0.52734375,0,0
-2.92362819891423E-05,3.63758954335935E-06,0.52734375,0,0
-2.69227421085816E-05,5.44030581295374E-06,0.52734375,0,0
-2.64737882389454E-05,1.12498555608909E-05,0.52734375,0,0
-2.38076900132E-05,1.61148091137875E-05,0.52734375,0,0
-2.2206219000509E-05,1.92362695088377E-05,0.52734375,0,0
-2.03799936571158E-05,1.88102185347816E-05,0.52734375,0,0
-2.18318054976407E-05,1.76731809915509E-05,0.52734375,0,0
-2.29097913688747E-05,1.5639940102119E-05,0.52734375,0,0
-2.32683123613242E-05,1.47737655424862E-05,0.52734375,0,0
-2.24542236537673E-05,1.33438161356025E-05,0.52734375,0,0
-2.17347060242901E-05,1.03453330666525E-05,0.52734375,0,0
-1.67490743478993E-05,7.4975810093747E-06,0.52734375,0,0
-2.27483178605326E-05,1.16859127956559E-05,0.52734375,0,0
-1.6615420463495E-05,9.01529620023211E-06,0.52734375,0,0
-2.23535080294823E-05,9.25052154343575E-06,0.52734375,0,0
-1.91251383512281E-05,7.37658047000878E-06,0.52734375,0,0
-2.14489173231414E-05,6.40269490759238E-06,0.52734375,0,0
-2.01719340111595E-05,1.54587610268209E-06,0.52734375,0,0
-2.07481189136161E-05,-1.69719601217366E-06,0.52734375,0,0
-1.98761408682913E-05,-3.92650690628216E-06,0.52734375,0,0
-2.11388669413282E-05,-4.30013005825458E-06,0.52734375,0,0
-2.32579586736392E-05,-2.98390500574897E-06,0.52734375,0,0
-2.44387756538345E-05,-8.82153869952162E-07,0.52734375,0,0
-2.63647962128744E-05,9.64861669672246E-07,0.52734375,0,0
-2.60052020166768E-05,2.55677605309756E-06,0.52734375,0,0
-2.68225885520224E-05,7.24630172044272E-06,0.52734375,0,0
-2.58796953858109E-05,1.11969538920675E-05,0.52734375,0,0
-2.66984370682621E-05,1.25964106700849E-05,0.52734375,0,0
-2.6161686037085E-05,1.04596065284568E-05,0.52734375,0,0
-2.86702797893668E-05,9.36508604354458E-06,0.52734375,0,0
-2.95711015496636E-05,8.31329816719517E-06,0.52734375,0,0
-3.02635198750068E-05,6.17665637037135E-06,0.52734375,0,0
-2.82733071799157E-05,3.24773304782866E-06,0.52734375,0,0
-2.57719184446614E-05,3.33755269821268E-06,0.52734375,0,0
-2.37942986132111E-05,4.57948226539884E-06,0.52734375,0,0
-2.38434768107254E-05,6.0168345044076E-06,0.52734375,0,0
-2.23454862862127E-05,8.41709515952971E-06,0.52734375,0,0
-2.04786756512476E-05,1.10448017949238E-05,0.52734375,0,0
-1.53989130922128E-05,9.25237964111147E-06,0.52734375,0,0
-2.21169211727101E-05,1.10598193714395E-05,0.52734375,0,0
-1.73132466443349E-05,5.83245673624333E-06,0.52734375,0,0
-1.9952974980697E-05,1.04575738077983E-05,0.52734375,0,0
-1.49144125316525E-05,1.25408205349231E-05,0.52734375,0,0
-1.71124847838655E-05,1.646316559345E-05,0.52734375,0,0
-1.63350850925781E-05,1.59965275088325E-05,0.52734375,0,0
-1.73753560375189E-05,1.65766614372842E-05,0.52734375,0,0
-1.70794646692229E-05,1.36872095026774E-05,0.52734375,0,0
-1.83855463546934E-05,9.12596078705974E-06,0.52734375,0,0
-1.90600858331891E-05,7.32332182451501E-06,0.52734375,0,0
-1.98020679818001E-05,7.85443990025669E-06,0.52734375,0,0
-2.37839522014838E-05,1.09587490442209E-05,0.52734375,0,0
-2.5527104298817E-05,1.39364683491294E-05,0.52734375,0,0
-2.58798136201222E-05,1.48045446621836E-05,0.52734375,0,0
-2.30042096518446E-05,9.89346790447598E-06,0.52734375,0,0
-2.32155580306426E-05,5.39395341547788E-06,0.52734375,0,0
-2.41975394601468E-05,3.66340941582166E-06,0.52734375,0,0
-2.78824900306063E-05,6.97249151926371E-06,0.52734375,0,0
-2.86732138192747E-05,1.08614194687107E-05,0.52734375,0,0
-2.77555627690163E-05,1.34518204504275E-05,0.52734375,0,0
-2.43827653321205E-05,1.23637346405303E-05,0.52734375,0,0
-2.33597875194391E-05,1.25466867757495E-05,0.52734375,0,0
-2.32302791118855E-05,1.58234252012335E-05,0.52734375,0,0
-2.37706881307531E-05,1.89727870747447E-05,0.52734375,0,0
-2.42443747993093E-05,1.80163042386994E-05,0.52734375,0,0
-2.45276405621553E-05,1.71416559169302E-05,0.52734375,0,0
-1.96058190340409E-05,1.56528330990113E-05,0.52734375,0,0
-2.74708163487958E-05,2.48882806772599E-05,0.52734375,0,0
-2.11730948649347E-05,2.05217111215461E-05,0.52734375,0,0
-2.71040207735496E-05,2.10621019505197E-05,0.52734375,0,0
-2.38020802498795E-05,1.42632061397308E-05,0.52734375,0,0
-2.71797289315145E-05,1.4295318578661E-05,0.52734375,0,0
-2.52868958341423E-05,1.26601225929335E-05,0.52734375,0,0
-2.70980144705391E-05,1.21310968097532E-05,0.52734375,0,0
-2.66730767179979E-05,1.07860560092377E-05,0.52734375,0,0
-2.63622951024445E-05,1.26551212815684E-05,0.52734375,0,0
-2.55947452387773E-05,1.45096455526073E-05,0.52734375,0,0
-2.49792865361087E-05,1.40531456054305E-05,0.52734375,0,0
-2.70610198640497E-05,1.56774167408003E-05,0.52734375,0,0
-2.77982544503175E-05,1.65254932653625E-05,0.52734375,0,0
-2.96920879918616E-05,1.68124588526553E-05,0.52734375,0,0
-2.79330342891626E-05,1.31437418531277E-05,0.52734375,0,0
-2.71276931016473E-05,1.05016952147707E-05,0.52734375,0,0
-2.38395859923912E-05,9.50368939811597E-06,0.52734375,0,0
-2.42886162595823E-05,1.27510074889869E-05,0.52734375,0,0
-2.40580357058207E-05,1.32689247038797E-05,0.52734375,0,0
-2.51162473432487E-05,1.12192947199219E-05,0.52734375,0,0
-2.33842110901605E-05,6.77514981362037E-06,0.52734375,0,0
-2.16606586036505E-05,4.28696102972026E-06,0.52734375,0,0
-1.99353489733767E-05,2.88926639768761E-06,0.52734375,0,0
-2.06808217626531E-05,1.35289803893102E-06,0.52734375,0,0
-2.12747399928048E-05,1.89653182047778E-08,0.52734375,0,0
-2.13089115277398E-05,2.62939170170284E-06,0.52734375,0,0
-1.77188867382938E-05,6.977101747907E-06,0.52734375,0,0
-2.51358669629553E-05,1.12791176434257E-05,0.52734375,0,0
-1.88157864613459E-05,7.50873778088135E-06,0.52734375,0,0
-2.4128372388077E-05,6.55052690490265E-06,0.52734375,0,0
-2.26802549150307E-05,6.01877945882734E-06,0.52734375,0,0
-2.67035084107192E-05,8.05335366749205E-06,0.52734375,0,0
-2.60184533544816E-05,9.11703227757243E-06,0.52734375,0,0
-2.80465683317743E-05,9.72671659837943E-06,0.52734375,0,0
-2.73576297331601E-05,8.68691495270468E-06,0.52734375,0,0
-2.61509376286995E-05,6.19719639871619E-06,0.52734375,0,0
-2.59089028986637E-05,3.18859065373545E-06,0.52734375,0,0
-2.55062077485491E-05,9.33478531806031E-07,0.52734375,0,0
-2.62798257608665E-05,2.05743663173052E-06,0.52734375,0,0
-2.49393324338598E-05,3.18239153784816E-06,0.52734375,0,0
-2.51647215918638E-05,4.18861964135431E-06,0.52734375,0,0
-2.37713356909808E-05,6.40772759652464E-06,0.52734375,0,0
-2.50527355092345E-05,1.12615161924623E-05,0.52734375,0,0
-2.46784438786563E-05,1.50909081639838E-05,0.52734375,0,0
-2.52845329669071E-05,1.58798520715209E-05,0.52734375,0,0
-2.40656045207288E-05,1.27009552670643E-05,0.52734375,0,0
-2.43841386691201E-05,9.37236563913757E-06,0.52734375,0,0
-2.41169873334002E-05,9.00694976735394E-06,0.52734375,0,0
-2.49770637310576E-05,1.11794424810796E-05,0.52734375,0,0
-2.53908820013748E-05,1.31470460473793E-05,0.52734375,0,0
-2.63721412920859E-05,1.64607063197764E-05,0.52734375,0,0
-2.62288504018215E-05,2.00812937691808E-05,0.52734375,0,0
-2.62566627498018E-05,2.12278046092251E-05,0.52734375,0,0
-2.20577803702326E-05,1.58899820235092E-05,0.52734375,0,0
-3.17417398036923E-05,2.11041460715933E-05,0.52734375,0,0
-2.51010260399198E-05,1.35323898575734E-05,0.52734375,0,0
-3.19806313200388E-05,1.61898387887049E-05,0.52734375,0,0
-2.80183085124008E-05,1.2256463378435E-05,0.52734375,0,0
-3.10568138957024E-05,1.5230179997161E-05,0.52734375,0,0
-2.88568371615838E-05,1.19323030958185E-05,0.52734375,0,0
-2.93724187940825E-05,1.03976990430965E-05,0.52734375,0,0
-2.74467038252624E-05,8.05569834483322E-06,0.52734375,0,0
-2.63855690718628E-05,9.61044770519948E-06,0.52734375,0,0
-2.50361517828424E-05,1.30039425130235E-05,0.52734375,0,0
-2.35722527577309E-05,1.41240470838966E-05,0.52734375,0,0
-2.58329364442034E-05,1.49948555190349E-05,0.52734375,0,0
-2.63911224465119E-05,1.3167747965781E-05,0.52734375,0,0
-2.71044846158475E-05,1.16979354061186E-05,0.52734375,0,0
-2.43254762608558E-05,9.98534414975438E-06,0.52734375,0,0
-2.47939733526437E-05,1.24785237858305E-05,0.52734375,0,0
-2.30320711125387E-05,1.18691186798969E-05,0.52734375,0,0
-2.24618524953257E-05,1.17807630886091E-05,0.52734375,0,0
-1.9861661712639E-05,1.08535086837946E-05,0.52734375,0,0
-1.99166279344354E-05,1.14646063593682E-05,0.52734375,0,0
-1.84242053364869E-05,1.10604514702572E-05,0.52734375,0,0
-1.77479123522062E-05,1.13193782453891E-05,0.52734375,0,0
-1.6830388631206E-05,1.04090531749534E-05,0.52734375,0,0
-1.78819082066184E-05,8.49483240017435E-06,0.52734375,0,0
-1.98347133846255E-05,5.90972649661126E-06,0.52734375,0,0
-2.0938083252986E-05,6.39954305370338E-06,0.52734375,0,0
-1.71747251442866E-05,7.53426684241276E-06,0.52734375,0,0
-2.54151709668804E-05,1.01993337011663E-05,0.52734375,0,0
-2.10153757507214E-05,3.16140221912065E-06,0.52734375,0,0
-2.68471339950338E-05,9.29977545638394E-07,0.52734375,0,0
-2.5347033442813E-05,-5.05647733461956E-07,0.52734375,0,0
-2.86017548205564E-05,7.45113027278421E-07,0.52734375,0,0
-2.61774839600548E-05,2.48495553023531E-06,0.52734375,0,0
-2.5613720936235E-05,4.92999470225186E-06,0.52734375,0,0
-2.52824684139341E-05,6.14564578427235E-06,0.52734375,0,0
-2.69595166173531E-05,7.43015834814287E-06,0.52734375,0,0
-2.74624562734971E-05,9.56493568082806E-06,0.52734375,0,0
-2.55554623436183E-05,1.11268245746032E-05,0.52734375,0,0
-2.53681300819153E-05,1.30412108774181E-05,0.52734375,0,0
-2.48938194999937E-05,1.52992488438031E-05,0.52734375,0,0
-2.57624997175299E-05,1.77953552338295E-05,0.52734375,0,0
-2.35986590269022E-05,1.81565155799035E-05,0.52734375,0,0
-2.26293614105089E-05,1.88172543857945E-05,0.52734375,0,0
-2.14525207411498E-05,2.01012062461814E-05,0.52734375,0,0
-2.27570290007861E-05,2.21445006900467E-05,0.52734375,0,0
-2.17046435864177E-05,2.14736191992415E-05,0.52734375,0,0
-2.1577388906735E-05,1.9192088075215E-05,0.52734375,0,0
-2.01469956664369E-05,1.71999618032714E-05,0.52734375,0,0
-1.96174914890435E-05,1.52725715452107E-05,0.52734375,0,0
-1.89276706805686E-05,1.2093034456484E-05,0.52734375,0,0
-1.95938573597232E-05,7.20621983418823E-06,0.52734375,0,0
-2.08588426175993E-05,7.12130031388369E-07,0.52734375,0,0
-2.19384910451481E-05,-4.45127307102666E-06,0.52734375,0,0
-1.78410737134982E-05,-5.81959420742351E-06,0.52734375,0,0
-2.50814355240436E-05,-7.30156352801714E-06,0.52734375,0,0
-1.89454985957127E-05,-2.25448661694827E-06,0.52734375,0,0
-2.4593962734798E-05,-1.4923310800441E-06,0.52734375,0,0
-2.29128163482528E-05,1.51940852788357E-07,0.52734375,0,0
-2.68961575784488E-05,-1.15334421479929E-06,0.52734375,0,0
-2.52923364314483E-05,-6.04199499321112E-07,0.52734375,0,0
-2.42955702560721E-05,-2.40338522417005E-07,0.52734375,0,0
-2.01100847334601E-05,3.4575258212044E-08,0.52734375,0,0
-1.94429194380064E-05,1.86794139267477E-07,0.52734375,0,0
-2.24815630645026E-05,-3.77787046090816E-07,0.52734375,0,0
-2.47130283241859E-05,-1.6329823893102E-06,0.52734375,0,0
-2.50873090408277E-05,3.88178023058572E-07,0.52734375,0,0
-2.22630824282533E-05,5.65168602406629E-06,0.52734375,0,0
-2.18991972360527E-05,7.61207229516003E-06,0.52734375,0,0
-2.03009858523728E-05,7.03585419614683E-06,0.52734375,0,0
-2.10377183975652E-05,5.74303385292296E-06,0.52734375,0,0
-2.05687665584264E-05,6.50848687655525E-06,0.52734375,0,0
-2.2661211914965E-05,8.28660449769814E-06,0.52734375,0,0
-2.26374522753758E-05,1.18588168334099E-05,0.52734375,0,0
-2.27988057304174E-05,1.49150000652298E-05,0.52734375,0,0
-2.10729594982695E-05,1.77785841515288E-05,0.52734375,0,0
-2.0490455426625E-05,2.01720740733435E-05,0.52734375,0,0
-1.93516334547894E-05,2.10978851100663E-05,0.52734375,0,0
-1.85198932740605E-05,1.85876670002472E-05,0.52734375,0,0
-1.79823582584504E-05,1.51009444380179E-05,0.52734375,0,0
-1.99842015717877E-05,1.27325429275515E-05,0.52734375,0,0
-1.86687539098784E-05,1.01736741271452E-05,0.52734375,0,0
-2.75456950475927E-05,1.53396758832969E-05,0.52734375,0,0
-2.25109070015606E-05,1.33099401864456E-05,0.52734375,0,0
-2.67331124632619E-05,1.7370894056512E-05,0.52734375,0,0
-2.17184715438634E-05,1.24803664220963E-05,0.52734375,0,0
-2.45094979618443E-05,8.15785278973635E-06,0.52734375,0,0
-2.28245771722868E-05,5.81620497541735E-06,0.52734375,0,0
-2.30256409849972E-05,1.09813208837295E-05,0.52734375,0,0
-2.16223652387271E-05,1.76922985701822E-05,0.52734375,0,0
-2.13702296605334E-05,2.29540492000524E-05,0.52734375,0,0
-2.27127984544495E-05,2.42139758483972E-05,0.52734375,0,0
-2.31370777328266E-05,2.06835775315994E-05,0.52734375,0,0
-2.36628420680063E-05,1.67942507687258E-05,0.52734375,0,0
-2.18000823224429E-05,1.48335857375059E-05,0.52734375,0,0
-2.27526361413766E-05,1.65254696185002E-05,0.52734375,0,0
-2.23904171434697E-05,1.69119684869656E-05,0.52734375,0,0
-2.36261839745566E-05,1.65447036124533E-05,0.52734375,0,0
-2.22216040128842E-05,1.61271782417316E-05,0.52734375,0,0
-2.27895943680778E-05,1.79454655153677E-05,0.52734375,0,0
-2.28651460929541E-05,1.7480859241914E-05,0.52734375,0,0
-2.4730828954489E-05,1.63983750098851E-05,0.52734375,0,0
-2.55831855611177E-05,1.53215642058058E-05,0.52734375,0,0
-2.72863035206683E-05,1.72516538441414E-05,0.52734375,0,0
-2.7882118956768E-05,2.17841425182996E-05,0.52734375,0,0
-2.83047502307454E-05,2.68803069047863E-05,0.52734375,0,0
-2.69066895270953E-05,2.88353603536962E-05,0.52734375,0,0
-2.45385181187885E-05,2.65040180238429E-05,0.52734375,0,0
-1.75677541847108E-05,1.67185626196442E-05,0.52734375,0,0
-2.39086002693512E-05,2.30444657063344E-05,0.52734375,0,0
-1.85126427822979E-05,1.77217207237845E-05,0.52734375,0,0
-2.52076151809888E-05,2.19977246160852E-05,0.52734375,0,0
-2.29277939070016E-05,1.66345198522322E-05,0.52734375,0,0
-2.69514512183378E-05,1.77657639142126E-05,0.52734375,0,0
-2.5148829081445E-05,1.5016593351902E-05,0.52734375,0,0
-2.646587563504E-05,1.80307779373834E-05,0.52734375,0,0
-2.59643729805248E-05,1.89278398465831E-05,0.52734375,0,0
-2.55578324868111E-05,1.82444364327239E-05,0.52734375,0,0
-2.53160869760904E-05,1.39764115374419E-05,0.52734375,0,0
-2.47200368903577E-05,7.70317365095252E-06,0.52734375,0,0
-2.61014865827747E-05,6.13114116276847E-06,0.52734375,0,0
-2.53749294643058E-05,5.66529024581541E-06,0.52734375,0,0
-2.66012466454413E-05,8.24067865323741E-06,0.52734375,0,0
-2.6564450308797E-05,1.07405348899192E-05,0.52734375,0,0
-2.81213397101965E-05,1.52050743054133E-05,0.52734375,0,0
-2.67239920503926E-05,1.40682341225329E-05,0.52734375,0,0
-2.75059555860935E-05,1.2312129001657E-05,0.52734375,0,0
-2.67068298853701E-05,1.0806194950419E-05,0.52734375,0,0
-2.61730710917618E-05,1.21016246339423E-05,0.52734375,0,0
-2.41569614445325E-05,1.06535144368536E-05,0.52734375,0,0
-2.51414858212229E-05,9.25314998312388E-06,0.52734375,0,0
-2.63817528320942E-05,7.6326778071234E-06,0.52734375,0,0
-2.60346241702791E-05,8.31149827718036E-06,0.52734375,0,0
-2.35991883528186E-05,1.02362610050477E-05,0.52734375,0,0
-2.17384531424614E-05,1.11016024675337E-05,0.52734375,0,0
-1.75777495314833E-05,7.39180904929526E-06,0.52734375,0,0
-2.65272155957064E-05,8.96387246029917E-06,0.52734375,0,0
-2.33548089454416E-05,5.64990978091373E-06,0.52734375,0,0
-2.88493574771564E-05,7.60914281272562E-06,0.52734375,0,0
-2.39188102568733E-05,5.09163010065095E-06,0.52734375,0,0
-2.45112041739048E-05,4.85903728986159E-06,0.52734375,0,0
-2.23792285396485E-05,4.61602985524223E-06,0.52734375,0,0
-2.419475458737E-05,8.11322297522565E-06,0.52734375,0,0
-2.41611032834044E-05,8.38613414089195E-06,0.52734375,0,0
-2.34415401791921E-05,6.74425928082201E-06,0.52734375,0,0
-2.18775785469916E-05,6.68583516016952E-06,0.52734375,0,0
-2.07860502996482E-05,7.78564208303578E-06,0.52734375,0,0
-2.2689433535561E-05,8.5081956058275E-06,0.52734375,0,0
-2.22438629862154E-05,6.18150215814239E-06,0.52734375,0,0
-2.25535659410525E-05,5.27472957401187E-06,0.52734375,0,0
-2.11811002372997E-05,5.47457011634833E-06,0.52734375,0,0
-2.2327980332193E-05,7.30550118532847E-06,0.52734375,0,0
-2.19710364035564E-05,7.9969513535616E-06,0.52734375,0,0
-2.29086399485823E-05,9.02573992789257E-06,0.52734375,0,0
-2.17364922718843E-05,7.95221330918139E-06,0.52734375,0,0
-2.187636346207E-05,6.79351524013327E-06,0.52734375,0,0
-2.09617664950201E-05,5.21271385878208E-06,0.52734375,0,0
-2.09761419682764E-05,3.75439799427113E-06,0.52734375,0,0
-2.21154386963462E-05,1.62403955528134E-06,0.52734375,0,0
-2.50527536991285E-05,-7.23038340311177E-07,0.52734375,0,0
-2.653370029293E-05,-2.39537257584743E-06,0.52734375,0,0
-2.63245474343421E-05,-1.5956496781655E-06,0.52734375,0,0
-2.13842940866016E-05,8.46634293338866E-07,0.52734375,0,0
-3.08980634144973E-05,2.84072507383826E-06,0.52734375,0,0
-2.40559820667841E-05,4.78758238386945E-06,0.52734375,0,0
-2.87497223325772E-05,6.06739695285796E-06,0.52734375,0,0
-2.38592529058224E-05,6.6008515204885E-06,0.52734375,0,0
-2.74632911896333E-05,5.58511601411738E-06,0.52734375,0,0
-2.65972412307747E-05,4.39949053543387E-06,0.52734375,0,0
-2.88059545709984E-05,3.48067646882555E-06,0.52734375,0,0
-2.75674501608592E-05,3.17063199872791E-06,0.52734375,0,0
-2.78191600955324E-05,4.7518510655209E-06,0.52734375,0,0
-2.98845206998521E-05,7.60095917939907E-06,0.52734375,0,0
-3.04930581478402E-05,8.57054146763403E-06,0.52734375,0,0
-3.10136929329019E-05,7.98878954810789E-06,0.52734375,0,0
-2.8753715014318E-05,8.08198728918796E-06,0.52734375,0,0
-2.95974350592587E-05,8.80679908732418E-06,0.52734375,0,0
-2.94412275252398E-05,8.56244423630415E-06,0.52734375,0,0
-3.18429338221904E-05,7.1754761847842E-06,0.52734375,0,0
-3.21827646985184E-05,7.13940698915394E-06,0.52734375,0,0
-3.38429090334103E-05,8.90119008545298E-06,0.52734375,0,0
-3.11099574901164E-05,1.05735052784439E-05,0.52734375,0,0
-2.85241840174422E-05,1.17837498692097E-05,0.52734375,0,0
-2.58082309301244E-05,1.1986408935627E-05,0.52734375,0,0
-2.59524113062071E-05,9.83823156275321E-06,0.52734375,0,0
-2.54883925663307E-05,8.12243797554402E-06,0.52734375,0,0
-2.56020666711265E-05,1.03495558505529E-05,0.52734375,0,0
-2.36104242503643E-05,1.27861803775886E-05,0.52734375,0,0
-2.09762765734922E-05,1.09542925201822E-05,0.52734375,0,0
-1.75946006493177E-05,6.65272091282532E-06,0.52734375,0,0
-2.585072616057E-05,9.63321053859545E-06,0.52734375,0,0
-1.95102747966303E-05,9.04308944882359E-06,0.52734375,0,0
-2.20406727748923E-05,1.35605969262542E-05,0.52734375,0,0
-1.78626723936759E-05,1.30015532704419E-05,0.52734375,0,0
-2.06720596906962E-05,1.17433783088927E-05,0.52734375,0,0
-1.88831199920969E-05,1.01324658317026E-05,0.52734375,0,0
-1.92586630873848E-05,1.31364622575347E-05,0.52734375,0,0
-1.89374623005278E-05,1.40656593430322E-05,0.52734375,0,0
-1.8559278032626E-05,1.4983943401603E-05,0.52734375,0,0
-1.83588763320586E-05,1.58291732077487E-05,0.52734375,0,0
-1.70373041328276E-05,1.50410560308956E-05,0.52734375,0,0
-1.65149340318749E-05,1.56975347636035E-05,0.52734375,0,0
-1.4319673027785E-05,1.69794129760703E-05,0.52734375,0,0
-1.44568211908336E-05,1.79631006176351E-05,0.52734375,0,0
-1.34115107357502E-05,1.68994865816785E-05,0.52734375,0,0
-1.48712770169368E-05,1.66213576449081E-05,0.52734375,0,0
-1.47037635542802E-05,1.60769868671196E-05,0.52734375,0,0
-1.56637142936233E-05,1.61942316481145E-05,0.52734375,0,0
-1.51446238305653E-05,1.46176744237891E-05,0.52734375,0,0
-1.68083934113383E-05,1.29956333694281E-05,0.52734375,0,0
-1.80486840690719E-05,1.19367659863201E-05,0.52734375,0,0
-1.87321420526132E-05,1.25128235595184E-05,0.52734375,0,0
-1.88918093044776E-05,1.09019320007064E-05,0.52734375,0,0
-1.99212627194356E-05,7.94787865743274E-06,0.52734375,0,0
-1.95146403711988E-05,5.74437035538722E-06,0.52734375,0,0
-1.83554457180435E-05,4.32125307270326E-06,0.52734375,0,0
-1.40342808663263E-05,3.96628138332744E-06,0.52734375,0,0
-2.01854945771629E-05,8.22409310785588E-06,0.52734375,0,0
-1.67200523719657E-05,1.10225246316986E-05,0.52734375,0,0
-2.24788454943337E-05,1.43421984830638E-05,0.52734375,0,0
-2.11693968594773E-05,1.34597066789865E-05,0.52734375,0,0
-2.32124875765294E-05,1.03521178971278E-05,0.52734375,0,0
-2.11035494430689E-05,8.12683447293239E-06,0.52734375,0,0
-2.34200851991773E-05,1.08467265818035E-05,0.52734375,0,0
-2.58583095273934E-05,1.29602640299709E-05,0.52734375,0,0
-2.73536170425359E-05,1.24486605272978E-05,0.52734375,0,0
-2.75353013421409E-05,9.55087034526514E-06,0.52734375,0,0
-2.69795091298874E-05,4.28733756052679E-06,0.52734375,0,0
-2.87101411231561E-05,1.36967457819992E-06,0.52734375,0,0
-2.9421620638459E-05,2.90105549538566E-06,0.52734375,0,0
-3.08900416712277E-05,7.38242579245707E-06,0.52734375,0,0
-2.94821420538938E-05,9.76732280832948E-06,0.52734375,0,0
-2.75963266176404E-05,9.02009105629986E-06,0.52734375,0,0
-2.41908255702583E-05,5.91707612329628E-06,0.52734375,0,0
-2.46481395151932E-05,3.33074831360136E-06,0.52734375,0,0
-2.55857630691025E-05,2.58807767750113E-06,0.52734375,0,0
-2.62387547991239E-05,4.96070651934133E-06,0.52734375,0,0
-2.42554870055756E-05,9.19056310522137E-06,0.52734375,0,0
-2.3405691536027E-05,1.19858159450814E-05,0.52734375,0,0
-2.27444197662408E-05,1.22317624118295E-05,0.52734375,0,0
-2.27317595999921E-05,1.12825809992501E-05,0.52734375,0,0
-2.44193488470046E-05,9.57515840127598E-06,0.52734375,0,0
-2.79710475297179E-05,8.05824856797699E-06,0.52734375,0,0
-2.28479657380376E-05,7.49586979509331E-06,0.52734375,0,0
-3.12217489408795E-05,1.27387584143435E-05,0.52734375,0,0
-2.28426197281806E-05,1.19342012112611E-05,0.52734375,0,0
-2.8520076739369E-05,1.36163980641868E-05,0.52734375,0,0
-2.19156590901548E-05,1.24105872600921E-05,0.52734375,0,0
-2.44561415456701E-05,1.30634171000565E-05,0.52734375,0,0
-2.18332497752272E-05,1.14755803224398E-05,0.52734375,0,0
-2.40237841353519E-05,1.02839221653994E-05,0.52734375,0,0
-2.38355514738942E-05,8.52068478707224E-06,0.52734375,0,0
-2.43037247855682E-05,7.81306880526245E-06,0.52734375,0,0
-2.42559290200006E-05,8.26367977424525E-06,0.52734375,0,0
-2.27323998842621E-05,8.58379371493356E-06,0.52734375,0,0
-2.29827110160841E-05,9.68139465840068E-06,0.52734375,0,0
-2.1954654584988E-05,1.09631428131252E-05,0.52734375,0,0
-2.40123299590778E-05,1.29938316604239E-05,0.52734375,0,0
-2.28734097618144E-05,1.25561609820579E-05,0.52734375,0,0
-2.38843367696973E-05,1.05618892121129E-05,0.52734375,0,0
-2.1984282284393E-05,6.76949275657535E-06,0.52734375,0,0
-2.2014568457962E-05,5.43088935955893E-06,0.52734375,0,0
-2.02465125767048E-05,6.4999421738321E-06,0.52734375,0,0
-2.09702793654287E-05,7.81439212005353E-06,0.52734375,0,0
-1.86751240107697E-05,7.29430394130759E-06,0.52734375,0,0
-1.74569977389183E-05,7.85042448114837E-06,0.52734375,0,0
-1.63584845722653E-05,9.64609171205666E-06,0.52734375,0,0
-1.67708858498372E-05,9.83270365395583E-06,0.52734375,0,0
-1.78167611011304E-05,8.61579246702604E-06,0.52734375,0,0
-1.86225024663145E-05,8.94494132808177E-06,0.52734375,0,0
-1.56927180796629E-05,8.58140992932022E-06,0.52734375,0,0
-2.30066452786559E-05,1.42918634082889E-05,0.52734375,0,0
-1.94084659597138E-05,1.45001076816698E-05,0.52734375,0,0
-2.50760786002502E-05,1.69233844644623E-05,0.52734375,0,0
-2.25752264668699E-05,1.19212681966019E-05,0.52734375,0,0
-2.32448710448807E-05,9.68712629401125E-06,0.52734375,0,0
-2.04924544959795E-05,8.45824888529023E-06,0.52734375,0,0
-2.25801177293761E-05,1.01122168416623E-05,0.52734375,0,0
-2.37398890021723E-05,1.13602154669934E-05,0.52734375,0,0
-2.39068631344708E-05,1.30829012050526E-05,0.52734375,0,0
-2.42745609284611E-05,1.45245576277375E-05,0.52734375,0,0
-2.44862785621081E-05,1.40137199196033E-05,0.52734375,0,0
-2.48259384534322E-05,1.41100108521641E-05,0.52734375,0,0
-2.32260917982785E-05,1.34665133373346E-05,0.52734375,0,0
-2.37553977058269E-05,1.3118870811013E-05,0.52734375,0,0
-2.27833425014978E-05,1.23825657283305E-05,0.52734375,0,0
-2.33084701903863E-05,1.30074322441942E-05,0.52734375,0,0
-2.24327268369962E-05,1.28435995065956E-05,0.52734375,0,0
-2.38852771872189E-05,1.28647898236522E-05,0.52734375,0,0
-2.46910312853288E-05,1.26697541418253E-05,0.52734375,0,0
-2.63897218246711E-05,1.32457871586666E-05,0.52734375,0,0
-2.55431550613139E-05,1.26466356960009E-05,0.52734375,0,0
-2.54857131949393E-05,1.34855126816547E-05,0.52734375,0,0
-2.56237890425837E-05,1.57538288476644E-05,0.52734375,0,0
-2.61333370872308E-05,1.69336635735817E-05,0.52734375,0,0
-2.70767850452103E-05,1.57556460180786E-05,0.52734375,0,0
-2.78480220003985E-05,1.56214482558426E-05,0.52734375,0,0
-2.2182013708516E-05,1.31958795464016E-05,0.52734375,0,0
-3.24746142723598E-05,1.97029567061691E-05,0.52734375,0,0
-2.66304286924424E-05,1.4491442925646E-05,0.52734375,0,0
-3.25063774653245E-05,1.57135746121639E-05,0.52734375,0,0
-2.67314699158305E-05,1.23318095575087E-05,0.52734375,0,0
-2.99191542580957E-05,1.47874443428009E-05,0.52734375,0,0
-2.79712785413722E-05,1.37255501613254E-05,0.52734375,0,0
-2.9037386411801E-05,1.3285340173752E-05,0.52734375,0,0
-2.81757602351718E-05,1.19100914162118E-05,0.52734375,0,0
-2.79377090919297E-05,1.28664814837975E-05,0.52734375,0,0
-2.82762302958872E-05,1.62587712111417E-05,0.52734375,0,0
-2.83175486401888E-05,1.73308890225599E-05,0.52734375,0,0
-2.96824018732877E-05,1.74738252098905E-05,0.52734375,0,0
-2.87415241473354E-05,1.65438923431793E-05,0.52734375,0,0
-2.97385868179845E-05,1.59103929036064E-05,0.52734375,0,0
-2.87404509435873E-05,1.30326634462108E-05,0.52734375,0,0
-2.99300372716971E-05,1.24980078908266E-05,0.52734375,0,0
-2.71068201982416E-05,1.4061527508602E-05,0.52734375,0,0
-2.64033442363143E-05,1.75387031049468E-05,0.52734375,0,0
-2.60397700913018E-05,1.76876801560866E-05,0.52734375,0,0
-2.83939280052437E-05,1.82127550942823E-05,0.52734375,0,0
-2.84198031295091E-05,1.81998857442522E-05,0.52734375,0,0
-2.84482557617594E-05,1.7057936929632E-05,0.52734375,0,0
-2.66500137513503E-05,1.45944841278833E-05,0.52734375,0,0
-2.67294126388151E-05,1.28080246213358E-05,0.52734375,0,0
-2.71205826720688E-05,1.11536310214433E-05,0.52734375,0,0
-2.66070001089247E-05,1.05459621408954E-05,0.52734375,0,0
-2.16634743992472E-05,7.49470746086445E-06,0.52734375,0,0
-3.2067640859168E-05,9.4542028818978E-06,0.52734375,0,0
-2.53755897574592E-05,7.03145860825316E-06,0.52734375,0,0
-2.97003261948703E-05,1.15102266136091E-05,0.52734375,0,0
-2.37630483752582E-05,1.1442917639215E-05,0.52734375,0,0
-2.63583260675659E-05,1.17173049147823E-05,0.52734375,0,0
-2.57207084359834E-05,9.22210529097356E-06,0.52734375,0,0
-2.73007844953099E-05,9.04386797628831E-06,0.52734375,0,0
-2.47548177867429E-05,8.4317643995746E-06,0.52734375,0,0
-2.2019255993655E-05,8.66628397488967E-06,0.52734375,0,0
-2.07930261240108E-05,8.03404509497341E-06,0.52734375,0,0
-2.08793589990819E-05,6.38654728390975E-06,0.52734375,0,0
-2.49018721660832E-05,5.77393075218424E-06,0.52734375,0,0
-2.80467593256617E-05,4.477482434595E-06,0.52734375,0,0
-3.26601184497122E-05,3.95617689719074E-06,0.52734375,0,0
-3.32342569890898E-05,3.43914507539012E-06,0.52734375,0,0
-3.54915428033564E-05,4.71178054795018E-06,0.52734375,0,0
-3.60286976501811E-05,4.66092160422704E-06,0.52734375,0,0
-3.72172762581613E-05,6.04960632699658E-06,0.52734375,0,0
-3.48643188772257E-05,6.47740534986951E-06,0.52734375,0,0
-3.35207078023814E-05,5.66959806747036E-06,0.52734375,0,0
-3.15107936330605E-05,4.74504031444667E-06,0.52734375,0,0
-3.20047220156994E-05,5.87305430599372E-06,0.52734375,0,0
-3.22797459375579E-05,5.70468409932801E-06,0.52734375,0,0
-3.20955587085336E-05,4.34916728409007E-06,0.52734375,0,0
-3.15841789415572E-05,2.31498916036799E-06,0.52734375,0,0
-3.13392265525181E-05,1.16180967779655E-06,0.52734375,0,0
-2.53320522460854E-05,2.06851927941898E-06,0.52734375,0,0
-3.70374436897691E-05,5.3750572988065E-06,0.703125,0,0
-2.80820459011011E-05,5.86435317018186E-06,0.703125,0,0
-3.15877041430213E-05,5.21155743626878E-06,0.703125,0,0
-2.39572545979172E-05,6.53481674817158E-06,0.703125,0,0
-2.5483097488177E-05,7.5243601713737E-06,0.703125,0,0
-2.05262058443623E-05,7.59554495743942E-06,0.703125,0,0
-1.96733053599019E-05,8.69028099259594E-06,0.703125,0,0
-1.64006778504699E-05,1.06315019365866E-05,0.703125,0,0
-1.35344125737902E-05,1.18334401122411E-05,0.703125,0,0
-1.12161787910736E-05,1.1193036698387E-05,0.703125,0,0
-8.51898039400112E-06,9.50986941461451E-06,0.703125,0,0
-7.27820179236005E-06,8.15239945950452E-06,0.703125,0,0
-2.95246081805089E-06,8.67020662553841E-06,0.703125,0,0
-1.56295232045522E-06,1.05731896837824E-05,0.703125,0,0
1.97463486983906E-06,1.23591689771274E-05,0.703125,0,0
1.94567883227137E-06,1.23609106594813E-05,0.703125,0,0
3.06396032101475E-06,9.242850865121E-06,0.703125,0,0
4.0240254861601E-07,5.30776924279053E-06,0.703125,0,0
-6.54983523418196E-07,3.72837826034811E-06,0.703125,0,0
-3.07727418658033E-06,4.46898320660694E-06,0.703125,0,0
-3.45096327691863E-06,5.63313278689748E-06,0.703125,0,0
-5.60779608349549E-06,8.29774671728956E-06,0.703125,0,0
-6.85590021021198E-06,1.34695237647975E-05,0.703125,0,0
-6.9251377681212E-06,1.86233428394189E-05,0.703125,0,0
-6.1045061556797E-06,1.96804394363426E-05,0.703125,0,0
-7.87177123129368E-06,1.88577869266737E-05,0.703125,0,0
-8.90675528353313E-06,1.47936179928365E-05,0.703125,0,0
-1.30463276946102E-05,2.08773508347804E-05,0.703125,0,0
-1.04079772427212E-05,1.60274521476822E-05,0.703125,0,0
-1.29621212181519E-05,1.97144945559558E-05,0.703125,0,0
-1.37683682623901E-05,1.42702083394397E-05,0.703125,0,0
-1.85278113349341E-05,1.53028868226102E-05,0.703125,0,0
-2.03816616703989E-05,1.45425001392141E-05,0.703125,0,0
-2.1807407392771E-05,1.58258608280448E-05,0.703125,0,0
-2.2077141693444E-05,1.52598859131103E-05,0.703125,0,0
-2.26543143071467E-05,1.72816016856814E-05,0.703125,0,0
-2.3215041437652E-05,1.92099341802532E-05,0.703125,0,0
-2.26614738494391E-05,1.70523289853008E-05,0.703125,0,0
-2.26181437028572E-05,1.49125762618496E-05,0.703125,0,0
-2.33053178817499E-05,1.42369890454574E-05,0.703125,0,0
-2.66893948719371E-05,1.74745509866625E-05,0.703125,0,0
-2.84362395177595E-05,1.93280029634479E-05,0.703125,0,0
-2.8500415282906E-05,2.10353318834677E-05,0.703125,0,0
-2.59770495176781E-05,1.94519325305009E-05,0.703125,0,0
-2.51704423135379E-05,1.87326222658157E-05,0.703125,0,0
-2.58613854384748E-05,1.51214580910164E-05,0.703125,0,0
-2.80444837699179E-05,1.29869349621003E-05,0.703125,0,0
-2.99380844808184E-05,1.20531103675603E-05,0.703125,0,0
-3.27494781231508E-05,1.26613267639186E-05,0.703125,0,0
-3.53203467966523E-05,1.29835079860641E-05,0.703125,0,0
-3.67611901310738E-05,1.48848848766647E-05,0.703125,0,0
-3.52642819052562E-05,1.58456932695117E-05,0.703125,0,0
-3.32716808770783E-05,1.46592010423774E-05,0.703125,0,0
-2.73297264357097E-05,8.85750614543213E-06,0.703125,0,0
-3.97209696529899E-05,1.08626327346428E-05,0.703125,0,0
-2.99970452033449E-05,5.84482540944009E-06,0.703125,0,0
-3.64568550139666E-05,8.33888680062955E-06,0.703125,0,0
-3.08053058688529E-05,7.92570153862471E-06,0.703125,0,0
-3.4110573324142E-05,1.00450288300635E-05,0.703125,0,0
-3.14504140987992E-05,8.83301527210278E-06,0.703125,0,0
-3.39779180649202E-05,9.08808942767791E-06,0.703125,0,0
-3.52989591192454E-05,8.59993451740593E-06,0.703125,0,0
-3.79543271264993E-05,1.03020611277316E-05,0.703125,0,0
-3.99702003051061E-05,1.23478830573731E-05,0.703125,0,0
-3.89851084037218E-05,1.25830611068523E-05,0.703125,0,0
-3.8446974940598E-05,1.26601498777745E-05,0.703125,0,0
-3.59536752512213E-05,1.07225196188665E-05,0.703125,0,0
-3.68643231922761E-05,8.22396759758703E-06,0.703125,0,0
-3.46959350281395E-05,5.40722976438701E-06,0.703125,0,0
-3.47857640008442E-05,6.12243047726224E-06,0.703125,0,0
-3.14093522320036E-05,7.84054736868711E-06,0.703125,0,0
-3.06128276861273E-05,1.06929492176278E-05,0.703125,0,0
-2.84103589365259E-05,1.06036477518501E-05,0.703125,0,0
-2.78936713584699E-05,9.94798756437376E-06,0.703125,0,0
-2.41761299548671E-05,9.44083421927644E-06,0.703125,0,0
-2.19849644054193E-05,9.63323054747889E-06,0.703125,0,0
-1.98775778699201E-05,7.31512500351528E-06,0.703125,0,0
-1.89340298675234E-05,4.90243292006198E-06,0.703125,0,0
-1.77975307451561E-05,3.7985271319485E-06,0.703125,0,0
-1.75828499777708E-05,4.03646845370531E-06,0.703125,0,0
-1.58391940203728E-05,6.28626958132372E-06,0.703125,0,0
-2.41098641708959E-05,1.11110184661811E-05,0.703125,0,0
-2.09030040423386E-05,9.80417553364532E-06,0.703125,0,0
-2.52041809289949E-05,1.0342660061724E-05,0.703125,0,0
-2.14025931200013E-05,1.00856914286851E-05,0.703125,0,0
-2.36649466387462E-05,9.82813071459532E-06,0.703125,0,0
-2.39152104768436E-05,8.66408481670078E-06,0.703125,0,0
-2.5742356228875E-05,8.86782800080255E-06,0.703125,0,0
-2.4838680474204E-05,8.065796464507E-06,0.703125,0,0
-2.35471579799196E-05,8.80311927176081E-06,0.703125,0,0
-2.32926850003423E-05,1.00207453215262E-05,0.703125,0,0
-2.26899737754138E-05,8.42358895170037E-06,0.703125,0,0
-2.24455943680368E-05,5.8157934290648E-06,0.703125,0,0
-1.97379486053251E-05,4.98615463584429E-06,0.703125,0,0
-1.9064029402216E-05,7.16655540600186E-06,0.703125,0,0
-1.78542159119388E-05,9.49735112953931E-06,0.703125,0,0
-1.84916461876128E-05,1.10069922811817E-05,0.703125,0,0
-1.6919240806601E-05,1.05046547105303E-05,0.703125,0,0
-1.66525551321683E-05,1.15546754386742E-05,0.703125,0,0
-1.5257181985362E-05,1.41031277962611E-05,0.703125,0,0
-1.5439180060639E-05,1.5889232599875E-05,0.703125,0,0
-1.59162427735282E-05,1.46652882904164E-05,0.703125,0,0
-1.56845944729866E-05,1.1580250429688E-05,0.703125,0,0
-1.22764013212873E-05,7.40546511224238E-06,0.703125,0,0
-9.26232132769655E-06,6.47577235213248E-06,0.703125,0,0
-7.27382393961307E-06,8.69674022396794E-06,0.703125,0,0
-5.64856554774451E-06,9.9401595434756E-06,0.703125,0,0
-2.88937258119404E-06,7.48477896195254E-06,0.703125,0,0
-2.45692604039505E-06,1.06473125924822E-05,0.703125,0,0
-7.45422568115828E-08,7.98089149611769E-06,0.703125,0,0
-1.99451255866734E-06,1.05206709122285E-05,0.703125,0,0
-3.63656886293029E-06,9.82779874902917E-06,0.703125,0,0
-5.52103438167251E-06,1.13530495582381E-05,0.703125,0,0
-5.82902475798619E-06,1.24237176351016E-05,0.703125,0,0
-6.73773547532619E-06,1.60405888891546E-05,0.703125,0,0
-8.30567933007842E-06,1.7926742657437E-05,0.703125,0,0
-1.23270574476919E-05,1.87052482942818E-05,0.703125,0,0
-1.81949799298309E-05,1.91643921425566E-05,0.703125,0,0
-2.40055505855707E-05,1.84202781383647E-05,0.703125,0,0
-2.8466527510318E-05,1.84248619916616E-05,0.703125,0,0
-3.14597018586937E-05,1.87321293196874E-05,0.703125,0,0
-3.47850036632735E-05,1.88961748790462E-05,0.703125,0,0
-3.72107970179059E-05,1.66689314937685E-05,0.703125,0,0
-3.86305182473734E-05,1.51360090967501E-05,0.703125,0,0
-3.87794170819689E-05,1.37320457724854E-05,0.703125,0,0
-3.90372988476884E-05,1.23089575936319E-05,0.703125,0,0
-3.84631493943743E-05,1.00714178188355E-05,0.703125,0,0
-3.80938690796029E-05,1.07215637399349E-05,0.703125,0,0
-3.74442570318934E-05,1.20341765068588E-05,0.703125,0,0
-3.61356360372156E-05,1.15582361104316E-05,0.703125,0,0
-3.50479494954925E-05,9.2755290097557E-06,0.703125,0,0
-3.50081209035125E-05,7.1168892645801E-06,0.703125,0,0
-3.40548976964783E-05,5.73774786971626E-06,0.703125,0,0
-3.16954065056052E-05,5.36723291588714E-06,0.703125,0,0
-2.4053295419435E-05,3.97001304008882E-06,0.703125,0,0
-3.33757925545797E-05,4.80028711535851E-06,0.703125,0,0
-2.38411230384372E-05,2.14249052987725E-06,0.703125,0,0
-3.01654163195053E-05,2.89366289507598E-06,0.703125,0,0
-2.57276115007699E-05,3.17727403853496E-06,0.703125,0,0
-3.07020673062652E-05,4.73383579446818E-06,0.703125,0,0
-2.96745311061386E-05,5.19716786584468E-06,0.703125,0,0
-3.13268246827647E-05,5.5485543271061E-06,0.703125,0,0
-3.03891956718871E-05,5.29269436810864E-06,0.703125,0,0
-3.05076882796129E-05,6.32106593911885E-06,0.703125,0,0
-2.90736898023169E-05,6.76277613820275E-06,0.703125,0,0
-2.58977725025034E-05,5.80583810005919E-06,0.703125,0,0
-2.49255244852975E-05,5.29845374330762E-06,0.703125,0,0
-2.13218008866534E-05,4.59525790574844E-06,0.703125,0,0
-2.02883165911771E-05,3.57212456947309E-06,0.703125,0,0
-1.73234093381325E-05,2.90362049781834E-06,0.703125,0,0
-1.75265886355191E-05,5.36015795660205E-06,0.703125,0,0
-1.5838180843275E-05,8.76035755936755E-06,0.703125,0,0
-1.71122428582748E-05,1.09803522718721E-05,0.703125,0,0
-1.51866952364799E-05,9.79325795924524E-06,0.703125,0,0
-1.43929482874228E-05,5.98836868448416E-06,0.703125,0,0
-1.35602158479742E-05,1.77802621692535E-06,0.703125,0,0
-1.6226264051511E-05,9.03983448097279E-07,0.703125,0,0
-1.90008795470931E-05,8.45124816351017E-07,0.703125,0,0
-2.20696183532709E-05,-1.05358446944592E-06,0.703125,0,0
-2.31712092499947E-05,-3.50724553754844E-06,0.703125,0,0
-2.28107255679788E-05,-2.66583083430305E-06,0.703125,0,0
-1.77306192199467E-05,1.79583855697274E-06,0.703125,0,0
-2.53887646977091E-05,5.11750886289519E-06,0.703125,0,0
-2.05979849852156E-05,6.65015795675572E-06,0.703125,0,0
-2.58883228525519E-05,7.76640354160918E-06,0.703125,0,0
-2.28536209760932E-05,1.00608622233267E-05,0.703125,0,0
-2.67527084361063E-05,1.18661673695897E-05,0.703125,0,0
-2.5987452318077E-05,1.44437781273155E-05,2.63671875,0,0
-2.78601055470062E-05,1.6692589269951E-05,2.63671875,0,0
-2.76705159194535E-05,1.61434036272112E-05,2.63671875,0,0
-2.76962309726514E-05,1.53476867126301E-05,2.63671875,0,0
-2.82679648080375E-05,1.60511463036528E-05,2.63671875,0,0
-2.85217738564825E-05,1.71973060787423E-05,2.63671875,0,0
-2.94989531539613E-05,2.00298745767213E-05,2.63671875,0,0
-2.70193140750052E-05,2.2230027752812E-05,2.63671875,0,0
-2.58573782048188E-05,2.25479852815624E-05,2.63671875,0,0
-2.41299239860382E-05,2.19585090235341E-05,2.63671875,0,0
-2.54764872806845E-05,2.04569769266527E-05,2.63671875,0,0
-2.47304305958096E-05,1.83913634828059E-05,2.63671875,0,0
-2.5062559871003E-05,1.75651239260333E-05,2.63671875,0,0
-2.35940278798807E-05,1.80721872311551E-05,2.63671875,0,0
-2.43265549215721E-05,1.85285189218121E-05,2.63671875,0,0
-2.51151996053522E-05,1.88942958629923E-05,2.63671875,0,0
-2.64590489678085E-05,1.85226235771552E-05,2.63671875,0,0
-2.54788792517502E-05,1.76772955455817E-05,2.63671875,0,0
-2.48798751272261E-05,1.67692760442151E-05,2.63671875,0,0
-2.65735707216663E-05,1.22280962386867E-05,2.63671875,0,0
-3.13528107653838E-05,4.07163497584406E-06,2.63671875,0,0
-2.89941253868164E-05,8.17825821286533E-07,2.63671875,0,0
-4.20112919528037E-05,5.23913149663713E-06,2.63671875,0,0
-3.28115165757481E-05,1.13539917947492E-05,2.63671875,0,0
-4.00153039663564E-05,1.37554416141938E-05,2.63671875,0,0
-3.38531499437522E-05,1.28375804706593E-05,2.63671875,0,0
-3.78889781131875E-05,1.00839488368365E-05,2.63671875,0,0
-3.47218738170341E-05,8.8554434114485E-06,2.63671875,0,0
-3.60692101821769E-05,1.00395200206549E-05,2.63671875,0,0
-3.50042973877862E-05,1.11306217149831E-05,2.63671875,0,0
-3.50691771018319E-05,1.24859643619857E-05,2.63671875,0,0
-3.4902728657471E-05,1.29823611132451E-05,2.63671875,0,0
-3.3032541978173E-05,1.26263112179004E-05,2.63671875,0,0
-3.41906779794954E-05,1.25196247608983E-05,2.63671875,0,0
-3.43157225870527E-05,1.41628361234325E-05,2.63671875,0,0
-3.77097785531078E-05,1.5385783626698E-05,2.63671875,0,0
-3.72095018974505E-05,1.47083155752625E-05,2.63671875,0,0
-3.97963412979152E-05,1.39598796522478E-05,2.63671875,0,0
-4.04543388867751E-05,1.30910957523156E-05,2.63671875,0,0
-4.48512146249413E-05,1.07603964352165E-05,2.63671875,0,0
-4.62508505734149E-05,8.87002624949673E-06,2.63671875,0,0
-4.78231268061791E-05,9.42267888603965E-06,2.63671875,0,0
-4.46317972091492E-05,9.93857520370511E-06,2.63671875,0,0
-4.18118870584294E-05,8.04920819064137E-06,2.63671875,0,0
-3.88189837394748E-05,5.48686512047425E-06,2.63671875,0,0
-3.65237792721018E-05,7.3469445851515E-06,2.63671875,0,0
-3.28638525388669E-05,1.02851017800276E-05,2.63671875,0,0
-3.07702248392161E-05,9.46666295931209E-06,2.63671875,0,0
-2.45325936703011E-05,7.20194293535315E-06,2.63671875,0,0
-3.19113096338697E-05,1.1321516467433E-05,2.63671875,0,0
-1.84557229658822E-05,1.0090851901623E-05,2.63671875,0,0
-1.96201635844773E-05,1.38935229188064E-05,2.63671875,0,0
-9.06267086975276E-06,1.41229829750955E-05,2.63671875,0,0
-8.27931307867402E-06,1.45389258250361E-05,2.63671875,0,0
-2.03512513508031E-06,1.53522414620966E-05,2.63671875,0,0
3.79454007770619E-07,1.8196891687694E-05,2.63671875,0,0
6.32215187579277E-06,1.79533162736334E-05,2.63671875,0,0
1.21229159049108E-05,1.74074721144279E-05,2.63671875,0,0
1.59965784405358E-05,1.71937317645643E-05,2.63671875,0,0
1.94309668586357E-05,1.71472511283355E-05,2.63671875,0,0
2.09230947803007E-05,1.79420858330559E-05,2.63671875,0,0
2.49571585300146E-05,1.73541029653279E-05,2.63671875,0,0
2.47288116952404E-05,1.67571197380312E-05,2.63671875,0,0
2.41921261476818E-05,1.59564224304631E-05,2.63671875,0,0
1.85718799912138E-05,1.69308896147413E-05,2.63671875,0,0
1.39835019581369E-05,1.71646679518744E-05,2.63671875,0,0
5.80951245865435E-06,1.65370784088736E-05,2.63671875,0,0
7.42499992156809E-07,1.39908424898749E-05,2.63671875,0,0
-4.45702926299418E-06,1.29353929878562E-05,2.63671875,0,0
-6.16691204413655E-06,1.22807487059617E-05,2.63671875,0,0
-8.10381970950402E-06,1.09941483970033E-05,2.63671875,0,0
-9.96900143945822E-06,9.47053104027873E-06,2.63671875,0,0
-1.39234743983252E-05,1.03814472822705E-05,2.63671875,0,0
-1.65518395078834E-05,1.12580764835002E-05,2.63671875,0,0
-1.78073041752214E-05,9.73931309999898E-06,2.63671875,0,0
-1.67906582646538E-05,7.48641377867898E-06,2.63671875,0,0
-2.55972390732495E-05,9.98590712697478E-06,2.63671875,0,0
-2.13660368899582E-05,5.00758778798627E-06,2.63671875,0,0
-2.55082250077976E-05,4.31702801506617E-06,2.63671875,0,0
-2.29303077503573E-05,2.77055323749664E-06,2.63671875,0,0
-2.52641020779265E-05,4.71888552056043E-06,2.63671875,0,0
-2.48036667471752E-05,4.77152025268879E-06,2.63671875,0,0
-2.91997275780886E-05,7.33893102733418E-06,2.63671875,0,0
-3.38023928634357E-05,8.2598598964978E-06,2.63671875,0,0
-3.77867836505175E-05,8.05102990852902E-06,2.63671875,0,0
-3.93265436287038E-05,9.20269485504832E-06,2.63671875,0,0
-3.91186185879633E-05,1.14358190330677E-05,2.63671875,0,0
-4.14587739214767E-05,1.20413224067306E-05,2.63671875,0,0
-4.39107279817108E-05,9.23950574360788E-06,2.63671875,0,0
-4.76455352327321E-05,7.99841654952616E-06,2.63671875,0,0
-4.78628098790068E-05,7.93305935076205E-06,2.63671875,0,0
-4.90758175146766E-05,9.7754382295534E-06,2.63671875,0,0
-4.91717655677348E-05,1.02006051747594E-05,2.63671875,0,0
-5.11901234858669E-05,1.018081093207E-05,2.63671875,0,0
-5.04689960507676E-05,8.44387705001282E-06,2.63671875,0,0
-4.89895355713088E-05,6.83837106407736E-06,2.63671875,0,0
-4.58805661764927E-05,4.28192288381979E-06,2.63671875,0,0
-4.33489003626164E-05,2.79663618130144E-06,2.63671875,0,0
-4.09092026529834E-05,3.62834452971583E-06,2.63671875,0,0
-3.95483111788053E-05,6.14764121564804E-06,2.63671875,0,0
-3.82165708288085E-05,7.6719734352082E-06,2.63671875,0,0
-3.69338049495127E-05,7.7460981628974E-06,2.63671875,0,0
-2.78866191365523E-05,5.03987848787801E-06,2.63671875,0,0
-3.82486614398658E-05,6.36988943369943E-06,2.63671875,0,0
-2.57064220932079E-05,4.81811093777651E-06,2.63671875,0,0
-2.98765608022222E-05,8.34974980534753E-06,2.63671875,0,0
-2.12034647120163E-05,8.25258848635713E-06,2.63671875,0,0
-2.40681438299362E-05,8.77104139362928E-06,2.63671875,0,0
-1.97529370780103E-05,8.72866894496838E-06,2.63671875,0,0
-1.95129214262124E-05,1.01091764008743E-05,2.63671875,0,0
-1.78730733750854E-05,1.06854358818964E-05,2.63671875,0,0
-1.80372717295541E-05,1.10744394987705E-05,2.63671875,0,0
-1.7966476661968E-05,1.12361449282616E-05,2.63671875,0,0
-1.57369267981267E-05,1.07239338831278E-05,2.63671875,0,0
-1.6272993889288E-05,1.0319369721401E-05,2.63671875,0,0
-1.51593567352393E-05,8.81818414200097E-06,2.63671875,0,0
-1.69066206581192E-05,7.52747473597992E-06,2.63671875,0,0
-1.54415029101074E-05,6.60026535115321E-06,2.63671875,0,0
-1.79802682396257E-05,7.04419016983593E-06,2.63671875,0,0
-1.7981752534979E-05,6.57859209240996E-06,2.63671875,0,0
-1.88894046004862E-05,7.82078404881759E-06,2.63671875,0,0
-1.56713977048639E-05,1.15580769488588E-05,2.63671875,0,0
-1.6100797438412E-05,1.54757999553112E-05,2.63671875,0,0
-1.68250098795397E-05,1.58875900524436E-05,2.63671875,0,0
-1.75888599187601E-05,1.37398810693412E-05,2.63671875,0,0
-1.47626842590398E-05,1.12586130853742E-05,2.63671875,0,0
-1.32064988065395E-05,1.1015350537491E-05,2.63671875,0,0
-1.39660678541986E-05,1.07785790532944E-05,2.63671875,0,0
-1.60833424160955E-05,1.18854950414971E-05,2.63671875,0,0
-1.3798227882944E-05,1.21062685138895E-05,2.63671875,0,0
-1.89715356100351E-05,1.78901209437754E-05,2.63671875,0,0
-1.48122098835302E-05,1.28068049889407E-05,2.63671875,0,0
-2.01772199943662E-05,1.29011741591967E-05,2.63671875,0,0
-1.83592565008439E-05,7.98815563030075E-06,2.63671875,0,0
-2.21179761865642E-05,9.77265153778717E-06,2.63671875,0,0
-2.32387847063364E-05,1.16271630759002E-05,2.63671875,0,0
-2.48095548158744E-05,1.44632958836155E-05,2.63671875,0,0
-2.48083924816456E-05,1.25603255582973E-05,2.63671875,0,0
-2.53938742389437E-05,9.51510264712851E-06,2.63671875,0,0
-2.63239708147012E-05,7.93136587162735E-06,2.63671875,0,0
-2.6233990865876E-05,6.49080357106868E-06,2.63671875,0,0
-2.71773551503429E-05,6.93507445248542E-06,2.63671875,0,0
-2.71534281637287E-05,7.55906285121455E-06,2.63671875,0,0
-2.9416180041153E-05,8.29453256301349E-06,2.63671875,0,0
-3.06974252453074E-05,5.96837253397098E-06,2.63671875,0,0
-3.24845823342912E-05,5.40206383448094E-06,2.63671875,0,0
-3.15163779305294E-05,5.1610377340694E-06,2.63671875,0,0
-3.22520572808571E-05,6.52804737910628E-06,2.63671875,0,0
-3.1918054446578E-05,7.07156596035929E-06,2.63671875,0,0
-3.16700570692774E-05,8.62476372276433E-06,2.63671875,0,0
-3.1041468901094E-05,9.34120907913893E-06,2.63671875,0,0
-3.08593771478627E-05,9.59098179009743E-06,2.63671875,0,0
-2.97688657155959E-05,8.63850800669752E-06,2.63671875,0,0
-2.87739730993053E-05,9.15373584575718E-06,2.63671875,0,0
-2.82889996015001E-05,9.50469893723493E-06,2.63671875,0,0
-2.9434047974064E-05,7.80799564381596E-06,2.63671875,0,0
-2.24457962758606E-05,7.2444454417564E-06,2.63671875,0,0
-3.06360816466622E-05,1.40407864819281E-05,2.63671875,0,0
-2.31634185183793E-05,1.45198146128678E-05,2.63671875,0,0
-3.01913842122303E-05,1.47722776091541E-05,2.63671875,0,0
-2.43874528678134E-05,1.11101071524899E-05,2.63671875,0,0
-2.61606655840296E-05,8.25631650513969E-06,2.63671875,0,0
-2.19285211642273E-05,6.44918736725231E-06,2.63671875,0,0
-2.25360363401705E-05,8.50933429319412E-06,2.63671875,0,0
-2.0435783881112E-05,1.10358641904895E-05,7.91015625,0,0
-1.95836455532117E-05,1.1074081157858E-05,7.91015625,0,0
-2.07202901947312E-05,9.37909408094129E-06,7.91015625,0,0
-2.13088005693862E-05,8.29631790111307E-06,7.91015625,0,0
-2.24712221097434E-05,9.03695763554424E-06,7.91015625,0,0
-2.05408869078383E-05,8.59452484291978E-06,7.91015625,0,0
-2.14724914258113E-05,6.45545969746308E-06,7.91015625,0,0
-2.09905065275962E-05,4.35453603131464E-06,7.91015625,0,0
-2.27307245950215E-05,4.93418974656379E-06,7.91015625,0,0
-2.09920290217269E-05,4.91403579871985E-06,7.91015625,0,0
-2.15772888623178E-05,3.52477263731998E-06,7.91015625,0,0
-1.97913341253297E-05,1.65625669978908E-06,7.91015625,0,0
-2.01561233552638E-05,1.15134025691077E-06,7.91015625,0,0
-1.94605800061254E-05,9.89269437923213E-07,7.91015625,0,0
-2.05927044589771E-05,3.10598306896281E-06,7.91015625,0,0
-2.08404198929202E-05,7.58394025979214E-06,7.91015625,0,0
-2.04370971914614E-05,1.04313894553343E-05,7.91015625,0,0
-1.90791834029369E-05,9.1435358626768E-06,7.91015625,0,0
-1.98695652215974E-05,6.60437535771052E-06,7.91015625,0,0
-1.73150201590033E-05,5.72877206650446E-06,7.91015625,0,0
-2.40250392380403E-05,1.07468713395065E-05,7.91015625,0,0
-1.87527057278203E-05,1.11615790956421E-05,7.91015625,0,0
-2.52795489359414E-05,1.19078467832878E-05,7.91015625,0,0
-2.42527876253007E-05,9.76924002316082E-06,7.91015625,0,0
-2.89989911834709E-05,9.78230764303589E-06,7.91015625,0,0
-2.73715613730019E-05,1.05260960481246E-05,7.91015625,0,0
-2.77848776022438E-05,1.09089905890869E-05,7.91015625,0,0
-2.85107980744215E-05,9.68499352893559E-06,7.91015625,0,0
-3.14848075504415E-05,1.07869145722361E-05,7.91015625,0,0
-3.48795110767242E-05,1.36722892420948E-05,7.91015625,0,0
-3.71820933651179E-05,1.5295290722861E-05,7.91015625,0,0
-3.88860462408047E-05,1.61533516802592E-05,7.91015625,0,0
-3.65694686479401E-05,1.67250964295818E-05,7.91015625,0,0
-3.52536371792667E-05,1.69666727742879E-05,7.91015625,0,0
-3.23249259963632E-05,1.65945548360469E-05,7.91015625,0,0
-3.23553467751481E-05,1.73624939634465E-05,7.91015625,0,0
-3.15089091600385E-05,1.7319986000075E-05,7.91015625,0,0
-3.19404061883688E-05,1.74540127773071E-05,7.91015625,0,0
-2.96080761472695E-05,1.82377352757612E-05,7.91015625,0,0
-2.79701762337936E-05,1.84540494956309E-05,7.91015625,0,0
-2.37000294873724E-05,1.59617393364897E-05,7.91015625,0,0
-1.99022670130944E-05,1.49385541590163E-05,7.91015625,0,0
-1.73577027453575E-05,1.51136564454646E-05,7.91015625,0,0
-1.82609564944869E-05,1.37762708618538E-05,7.91015625,0,0
-1.92289080587216E-05,1.04662894955254E-05,7.91015625,0,0
-1.84301970875822E-05,7.3679748311406E-06,7.91015625,0,0
-1.15821403596783E-05,6.67234007778461E-06,7.91015625,0,0
-1.39434150696616E-05,1.13207706817775E-05,7.91015625,0,0
-6.76301942803548E-06,1.11682647911948E-05,7.91015625,0,0
-7.12023847881937E-06,1.39462408697E-05,7.91015625,0,0
-1.18186233066808E-06,1.15760049084201E-05,7.91015625,0,0
1.06843106095766E-06,9.05394244909985E-06,7.91015625,0,0
6.20518994765007E-06,7.93229446571786E-06,7.91015625,0,0
5.44083195563871E-06,1.05233038993902E-05,7.91015625,0,0
3.87850468541728E-06,1.37824708872358E-05,7.91015625,0,0
2.57491660704545E-06,1.73450407601194E-05,7.91015625,0,0
1.43341617331316E-06,1.97910540009616E-05,7.91015625,0,0
-9.88948727354E-07,1.90571481653024E-05,7.91015625,0,0
-5.8812506722461E-06,1.73837324837223E-05,7.91015625,0,0
-8.72028067533392E-06,1.58272468979703E-05,7.91015625,0,0
-1.01940377135179E-05,1.42385461003869E-05,7.91015625,0,0
-8.84063956618775E-06,1.13286841951776E-05,7.91015625,0,0
-1.03418942671851E-05,9.6807889349293E-06,7.91015625,0,0
-1.17149975267239E-05,8.07609649200458E-06,7.91015625,0,0
-1.30170792544959E-05,6.26542305326439E-06,7.91015625,0,0
-1.20184013212565E-05,3.87126965506468E-06,7.91015625,0,0
-1.20564409371582E-05,4.9442478484707E-06,7.91015625,0,0
-1.10852488433011E-05,1.03996480902424E-05,7.91015625,0,0
-1.15186658149469E-05,1.6671674529789E-05,7.91015625,0,0
-1.22690726129804E-05,1.87648020073539E-05,7.91015625,0,0
-1.41444716064143E-05,1.75586956174811E-05,7.91015625,0,0
-1.57931262947386E-05,1.45908115882776E-05,7.91015625,0,0
-1.79709331860067E-05,1.01313280538307E-05,7.91015625,0,0
-1.82512321771355E-05,6.13441079622135E-06,7.91015625,0,0
-2.88145856757183E-05,9.22618528420571E-06,7.91015625,0,0
-2.5745344828465E-05,7.66158609621925E-06,7.91015625,0,0
-3.24680695484858E-05,9.95879054244142E-06,7.91015625,0,0
-3.23629174090456E-05,1.05783583421726E-05,7.91015625,0,0
-3.79562916350551E-05,1.18228745122906E-05,7.91015625,0,0
-3.88357730116695E-05,9.94280799204716E-06,7.91015625,0,0
-4.11131113651209E-05,1.01440909929806E-05,7.91015625,0,0
-4.19981333834585E-05,1.17843173939036E-05,7.91015625,0,0
-4.44336801592726E-05,1.34493338919128E-05,7.91015625,0,0
-4.64427248516586E-05,1.31974538817303E-05,7.91015625,0,0
-4.57418573205359E-05,1.23118497867836E-05,7.91015625,0,0
-4.53711290901992E-05,1.26195791381178E-05,7.91015625,0,0
-4.37060771218967E-05,1.21029379442916E-05,7.91015625,0,0
-4.44644138042349E-05,1.13690894067986E-05,7.91015625,0,0
-4.23380552092567E-05,1.06593834061641E-05,7.91015625,0,0
-4.07007391913794E-05,1.18223215395119E-05,7.91015625,0,0
-3.8195212255232E-05,1.32044278871035E-05,7.91015625,0,0
-3.913665204891E-05,1.50540681715938E-05,7.91015625,0,0
-3.93084628740326E-05,1.37930965138366E-05,7.91015625,0,0
-3.93726731999777E-05,1.17625768325524E-05,7.91015625,0,0
-3.71967944374774E-05,1.14638423838187E-05,7.91015625,0,0
-3.68624896509573E-05,1.27395196614088E-05,7.91015625,0,0
-3.73322909581475E-05,1.33557705339626E-05,7.91015625,0,0
-3.83787300961558E-05,1.26162731248769E-05,7.91015625,0,0
-3.94000453525223E-05,1.04904902400449E-05,7.91015625,0,0
-4.28635757998563E-05,9.28161261981586E-06,7.91015625,0,0
-3.93083428207319E-05,8.85683311935281E-06,7.91015625,0,0
-5.75395315536298E-05,1.11205072244047E-05,7.91015625,0,0
-4.46291633124929E-05,5.35081380803604E-06,7.91015625,0,0
-5.45050970686134E-05,8.76205285749165E-06,7.91015625,0,0
-4.73156906082295E-05,9.83144036581507E-06,7.91015625,0,0
-5.31336227140855E-05,1.0250319064653E-05,7.91015625,0,0
-4.78563633805607E-05,9.01142175280256E-06,7.91015625,0,0
-4.73606596642639E-05,1.03608899735264E-05,7.91015625,0,0
-4.33014211012051E-05,1.0316908628738E-05,7.91015625,0,0
-3.97790754504967E-05,1.1211206583539E-05,7.91015625,0,0
-3.60828416887671E-05,1.31888482428622E-05,7.91015625,0,0
-3.09337046928704E-05,1.4196673873812E-05,7.91015625,0,0
-2.93107550533023E-05,1.47236614793655E-05,7.91015625,0,0
-2.42908645304851E-05,1.3857379599358E-05,7.91015625,0,0
-2.34753788390663E-05,1.21316243166802E-05,7.91015625,0,0
-2.01002967514796E-05,7.63487605581759E-06,7.91015625,0,0
-2.24408195208525E-05,5.38868198418641E-06,7.91015625,0,0
-2.03420931939036E-05,4.71491284770309E-06,7.91015625,0,0
-1.99202677322319E-05,5.50024287804263E-06,7.91015625,0,0
-1.50840169226285E-05,5.45627335668541E-06,7.91015625,0,0
-1.43689931064728E-05,5.85082898396649E-06,7.91015625,0,0
-1.34508654809906E-05,4.27624081567046E-06,7.91015625,0,0
-1.46875527207158E-05,3.09702181766625E-06,7.91015625,0,0
-1.22851470223395E-05,3.3357571282977E-06,7.91015625,0,0
-1.04855944300652E-05,3.66344102076255E-06,7.91015625,0,0
-9.79962169367354E-06,3.27995189763897E-06,7.91015625,0,0
-9.90548869594932E-06,1.46503134601517E-06,7.91015625,0,0
-7.16796830602107E-06,-6.43151906842832E-07,7.91015625,0,0
-8.52860375744058E-06,3.11057647195412E-07,7.91015625,0,0
-3.88332728107343E-06,2.34465119319793E-06,7.91015625,0,0
-5.90598119742936E-06,2.73156274488429E-06,7.91015625,0,0
-7.17026568963774E-06,3.99057626054855E-06,7.91015625,0,0
-9.00313898455352E-06,3.63949584425427E-06,7.91015625,0,0
-7.60888406148297E-06,2.53342273026647E-06,7.91015625,0,0
-6.84406268192106E-06,2.36588675761595E-06,7.91015625,0,0
-6.79471258990816E-06,3.5086320622213E-06,7.91015625,0,0
-8.80592506291578E-06,6.72338501317427E-06,7.91015625,0,0
-1.12328189061373E-05,1.02144686024985E-05,7.91015625,0,0
-1.19015085147112E-05,1.09186230474734E-05,7.91015625,0,0
-1.15145967356511E-05,1.07725245470647E-05,7.91015625,0,0
-1.04525170172565E-05,1.19724218166084E-05,7.91015625,0,0
-1.06998031697003E-05,1.19626783998683E-05,7.91015625,0,0
-1.12385587272001E-05,9.70055680227233E-06,7.91015625,0,0
-1.29653526528273E-05,8.06839034339646E-06,7.91015625,0,0
-1.33872654259903E-05,8.31097258924274E-06,7.91015625,0,0
-1.31000315377605E-05,8.16527881397633E-06,7.91015625,0,0
-1.09805096144555E-05,7.72973271523369E-06,7.91015625,0,0
-1.08867261587875E-05,6.84468795952853E-06,7.91015625,0,0
-1.17598410724895E-05,5.42456700713956E-06,7.91015625,0,0
-1.19910491775954E-05,5.79910283704521E-06,7.91015625,0,0
-1.18141069833655E-05,8.60196541907499E-06,7.91015625,0,0
-1.3822768778482E-05,1.17030331239221E-05,7.91015625,0,0
-1.59547962539364E-05,1.29901163745672E-05,7.91015625,0,0
-1.68198766914429E-05,1.24286625577952E-05,7.91015625,0,0
-1.46904712892137E-05,1.12758789327927E-05,7.91015625,0,0
-2.20962301682448E-05,1.76629800989758E-05,7.91015625,0,0
-1.9152777895215E-05,1.55227426148485E-05,7.91015625,0,0
-2.46648487518542E-05,2.147941813746E-05,7.91015625,0,0
-2.34502240346046E-05,2.19726425711997E-05,7.91015625,0,0
-2.7848926038132E-05,2.1492629457498E-05,7.91015625,0,0
-2.94744659186108E-05,1.67350626725238E-05,7.91015625,0,0
-3.28216119669378E-05,1.48257686305442E-05,7.91015625,0,0
-3.29359427269083E-05,1.50953874253901E-05,7.91015625,0,0
-3.2662195735611E-05,1.69973791344091E-05,7.91015625,0,0
-3.21972365782131E-05,1.69661925610853E-05,7.91015625,0,0
-3.07274276565295E-05,1.62049200298497E-05,7.91015625,0,0
-2.96953076031059E-05,1.7600714272703E-05,7.91015625,0,0
-2.71492936008144E-05,1.64498233061749E-05,7.91015625,0,0
-2.66362858383218E-05,1.40722340802313E-05,7.91015625,0,0
-2.59711250691907E-05,1.11490708150086E-05,7.91015625,0,0
-2.68836611212464E-05,1.18407651825692E-05,7.91015625,0,0
-2.48900760198012E-05,1.19175274448935E-05,7.91015625,0,0
-2.43466474785237E-05,1.0898319487751E-05,7.91015625,0,0
-2.22712224058341E-05,7.51964398659766E-06,7.91015625,0,0
-2.02399387490004E-05,6.52694097880158E-06,7.91015625,0,0
-1.79651324287988E-05,8.73778390086954E-06,7.91015625,0,0
-1.89978782145772E-05,1.1039693163184E-05,7.91015625,0,0
-2.08959809242515E-05,9.28173176362179E-06,7.91015625,0,0
-2.27956115850247E-05,6.98100620866171E-06,7.91015625,0,0
-2.42186142713763E-05,6.25770007900428E-06,7.91015625,0,0
-2.57450938079273E-05,8.97553582035471E-06,7.91015625,0,0
-2.19134180952096E-05,1.04838336483226E-05,7.91015625,0,0
-3.22134292218834E-05,1.4109395124251E-05,7.91015625,0,0
-2.61539153143531E-05,9.70904147834517E-06,7.91015625,0,0
-3.31726332660764E-05,1.44213190651499E-05,7.91015625,0,0
-2.97901478916174E-05,1.38968753162771E-05,7.91015625,0,0
-3.3562901080586E-05,1.33742532852921E-05,7.91015625,0,0
-3.17987905873451E-05,1.11496683530277E-05,7.91015625,0,0
-3.23651947837789E-05,1.15961447590962E-05,7.91015625,0,0
-3.07945265376475E-05,1.05127492133761E-05,7.91015625,0,0
-3.04398017760832E-05,1.17777544801356E-05,7.91015625,0,0
-3.05751564155798E-05,1.3289655726112E-05,7.91015625,0,0
-2.90519874397432E-05,1.17245226647356E-05,7.91015625,0,0
-2.9897781132604E-05,1.05912386061391E-05,7.91015625,0,0
-3.01318959827768E-05,1.02198700915324E-05,7.91015625,0,0
-3.15214820147958E-05,1.11591798486188E-05,7.91015625,0,0
-2.83077242784202E-05,1.04274222394451E-05,7.91015625,0,0
-2.68767307716189E-05,1.19392962005804E-05,7.91015625,0,0
-2.53351663559442E-05,1.30082908071927E-05,7.91015625,0,0
-2.7567990400712E-05,1.42516200867249E-05,7.91015625,0,0
-2.71201806754107E-05,1.54374756675679E-05,7.91015625,0,0
-2.68548847088823E-05,1.84134260052815E-05,7.91015625,0,0
-2.46955805778271E-05,1.80835086212028E-05,7.91015625,0,0
-2.42591486312449E-05,1.67926755239023E-05,7.91015625,0,0
-2.4152095647878E-05,1.50068399307202E-05,7.91015625,0,0
-2.43812573899049E-05,1.30091739265481E-05,7.91015625,0,0
-2.3455017071683E-05,1.0686056157283E-05,7.91015625,0,0
-2.18515724554891E-05,8.08258937468054E-06,7.91015625,0,0
-1.67675098055042E-05,6.41543829260627E-06,7.91015625,0,0
-2.27280506805982E-05,9.99840813165065E-06,7.91015625,0,0
-1.58775255840737E-05,8.53880465001566E-06,7.91015625,0,0
-1.96207765839063E-05,1.17375948320841E-05,7.91015625,0,0
-1.47639548231382E-05,1.18890720841591E-05,7.91015625,0,0
-1.53579330799403E-05,1.17612853500759E-05,7.91015625,0,0
-1.3224069334683E-05,1.1380759133317E-05,7.91015625,0,0
-1.61765929078683E-05,1.27973171402118E-05,7.91015625,0,0
-1.85874469025293E-05,1.29091649796464E-05,7.91015625,0,0
-2.08931251108879E-05,1.22998289953102E-05,7.91015625,0,0
-2.26512293011183E-05,1.19378164527006E-05,7.91015625,0,0
-2.5132196242339E-05,1.06953930298914E-05,7.91015625,0,0
-3.02041698887479E-05,1.03783477243269E-05,7.91015625,0,0
-3.25014771078713E-05,1.01682117019664E-05,7.91015625,0,0
-3.48426437994931E-05,1.06085071820416E-05,7.91015625,0,0
-3.40388614858966E-05,1.08667936729034E-05,7.91015625,0,0
-3.45951339113526E-05,1.17160489025991E-05,7.91015625,0,0
-3.24213178828359E-05,1.14092226795037E-05,7.91015625,0,0
-3.0741430236958E-05,1.20308550322079E-05,7.91015625,0,0
-2.74137946689734E-05,1.31485821839306E-05,7.91015625,0,0
-2.62529774772702E-05,1.38349269036553E-05,7.91015625,0,0
-2.40636472881306E-05,1.33548237499781E-05,7.91015625,0,0
-2.33061964536319E-05,1.36767894218792E-05,7.91015625,0,0
-2.26774209295399E-05,1.45824997161981E-05,7.91015625,0,0
-2.1207222744124E-05,1.47828168337583E-05,7.91015625,0,0
-1.86131146620028E-05,1.34101364892558E-05,7.91015625,0,0
-1.77074907696806E-05,1.14922495413339E-05,7.91015625,0,0
-1.34888605316519E-05,8.15471594250994E-06,7.91015625,0,0
-1.65176861628424E-05,1.09684197013848E-05,7.91015625,0,0
-7.75696389609948E-06,8.63883906276897E-06,7.91015625,0,0
-9.67053983913502E-06,1.33566472868552E-05,7.91015625,0,0
-9.02810643310659E-06,1.33864450617693E-05,7.91015625,0,0
-1.43108209158527E-05,1.49887900988688E-05,7.91015625,0,0
-1.4075336366659E-05,1.49177967614378E-05,7.91015625,0,0
-1.44933810588554E-05,1.44699724842212E-05,7.91015625,0,0
-1.36570315589779E-05,1.10334913188126E-05,7.91015625,0,0
-1.55226607603254E-05,1.0726488653745E-05,7.91015625,0,0
-1.86198849405628E-05,1.17093923108769E-05,7.91015625,0,0
-2.21224181586877E-05,1.10257660708157E-05,7.91015625,0,0
-2.72281304205535E-05,1.03690017567715E-05,7.91015625,0,0
-2.97841397696175E-05,1.12364241431351E-05,7.91015625,0,0
-3.15213765134104E-05,1.52426819113316E-05,7.91015625,0,0
-3.16543264489155E-05,1.66828358487692E-05,7.91015625,0,0
-3.4390472137602E-05,1.5822850400582E-05,7.91015625,0,0
-3.49467627529521E-05,1.26327986436081E-05,15.8203125,0,0
-3.62672872142866E-05,1.07690721051767E-05,15.8203125,0,0
-3.54392795998137E-05,8.76015110407025E-06,15.8203125,0,0
-3.41378363373224E-05,7.92096034274437E-06,15.8203125,0,0
-3.00316805805778E-05,6.84210726831225E-06,15.8203125,0,0
-2.6541809347691E-05,7.56053304939996E-06,15.8203125,0,0
-2.35573497775476E-05,9.24295000004349E-06,15.8203125,0,0
-2.0396284526214E-05,1.13461046566954E-05,15.8203125,0,0
-1.61227253556717E-05,1.04269638541155E-05,15.8203125,0,0
-1.41296695801429E-05,8.28187967272243E-06,15.8203125,0,0
-1.15911971079186E-05,7.50010849515093E-06,15.8203125,0,0
-1.65608671522932E-05,1.18135812954279E-05,15.8203125,0,0
-1.24939997476758E-05,9.97035112959566E-06,15.8203125,0,0
-1.70585662999656E-05,1.07691357698059E-05,15.8203125,0,0
-1.76404100784566E-05,7.56722647565766E-06,15.8203125,0,0
-2.08551773539511E-05,5.80015421292046E-06,15.8203125,0,0
-2.03009021788603E-05,5.72326371184317E-06,15.8203125,0,0
-2.08177934837295E-05,1.05272465589223E-05,15.8203125,0,0
-2.16702646866906E-05,1.27951252579805E-05,15.8203125,0,0
-2.25975454668514E-05,1.34000429170555E-05,15.8203125,0,0
-2.25844996748492E-05,1.35394193421234E-05,15.8203125,0,0
-2.18172208406031E-05,1.22847532111336E-05,15.8203125,0,0
-2.05128872039495E-05,1.12202633317793E-05,15.8203125,0,0
-1.82270068762591E-05,1.00034130809945E-05,15.8203125,0,0
-1.89713591680629E-05,1.06343677543919E-05,15.8203125,0,0
-1.875288944575E-05,1.13734395199572E-05,15.8203125,0,0
-1.83927277248586E-05,1.23277486636653E-05,15.8203125,0,0
-1.67436355695827E-05,1.13550040623522E-05,15.8203125,0,0
-1.7692009350867E-05,1.08015728983446E-05,15.8203125,0,0
-1.92540064745117E-05,1.02177900771494E-05,15.8203125,0,0
-2.14972642424982E-05,1.00169054348953E-05,15.8203125,0,0
-2.13572093343828E-05,9.24269352253759E-06,15.8203125,0,0
-2.18274672079133E-05,9.3959770310903E-06,15.8203125,0,0
-2.30641726375325E-05,9.64803803071845E-06,15.8203125,0,0
-2.46909130510176E-05,1.12520710899844E-05,15.8203125,0,0
-2.63908714259742E-05,1.27998428069986E-05,15.8203125,0,0
-2.86860631604213E-05,1.28576193674235E-05,15.8203125,0,0
-2.51541550824186E-05,1.03502698038938E-05,15.8203125,0,0
-3.60952399205416E-05,1.40454822030733E-05,15.8203125,0,0
-2.7257427063887E-05,9.62710601015715E-06,15.8203125,0,0
-3.48179164575413E-05,1.35909313030425E-05,15.8203125,0,0
-3.30035400111228E-05,1.42351100294036E-05,15.8203125,0,0
-4.01660690840799E-05,1.74069318745751E-05,15.8203125,0,0
-3.9703805668978E-05,1.67401703947689E-05,15.8203125,0,0
-4.12890549341682E-05,1.51999302033801E-05,15.8203125,0,0
-3.97147668991238E-05,1.05262524812133E-05,15.8203125,0,0
-3.94415801565629E-05,9.15072359930491E-06,15.8203125,0,0
-3.89623564842623E-05,1.16903966045356E-05,15.8203125,0,0
-3.67119646398351E-05,1.28989904624177E-05,15.8203125,0,0
-3.63939943781588E-05,1.31048291223124E-05,15.8203125,0,0
-3.42924977303483E-05,1.24611397041008E-05,15.8203125,0,0
-3.58200013579335E-05,1.28074279928114E-05,15.8203125,0,0
-3.45607295457739E-05,1.11781046143733E-05,15.8203125,0,0
-3.42452876793686E-05,1.08716048998758E-05,15.8203125,0,0
-3.08813905576244E-05,1.03003822005121E-05,15.8203125,0,0
-3.09078313875943E-05,1.02278299891623E-05,15.8203125,0,0
-2.82569781120401E-05,8.17958880361402E-06,15.8203125,0,0
-2.63083456957247E-05,8.21596859168494E-06,15.8203125,0,0
-2.28448207053589E-05,9.54185634327587E-06,15.8203125,0,0
-2.18707355088554E-05,1.10986211439013E-05,15.8203125,0,0
-2.06914301088545E-05,1.12228972284356E-05,15.8203125,0,0
-2.00021258933702E-05,8.63734658196336E-06,15.8203125,0,0
-1.92499010154279E-05,3.76542288904602E-06,15.8203125,0,0
-1.95884804270463E-05,1.81279233402165E-06,15.8203125,0,0
-1.62368905876065E-05,2.48250262302463E-06,15.8203125,0,0
-2.28609860641882E-05,3.84495751859504E-06,15.8203125,0,0
-1.73957469087327E-05,3.26033114106394E-06,15.8203125,0,0
-2.38490265473956E-05,4.45062414655695E-06,15.8203125,0,0
-2.34155322687002E-05,7.29881594452308E-06,15.8203125,0,0
-2.61190834862646E-05,9.74203248915728E-06,15.8203125,0,0
-2.45663577516098E-05,8.37373681861209E-06,15.8203125,0,0
-2.60204105870798E-05,7.47080594010185E-06,15.8203125,0,0
-2.61469813267468E-05,9.13762414711528E-06,15.8203125,0,0
-2.59016305790283E-05,1.28110641526291E-05,15.8203125,0,0
-2.54416299867444E-05,1.38957211675006E-05,15.8203125,0,0
-2.4124468836817E-05,1.16970613817102E-05,15.8203125,0,0
-2.33808223129017E-05,9.47176795307314E-06,15.8203125,0,0
-1.99264268303523E-05,7.53586300561437E-06,15.8203125,0,0
-1.81018494913587E-05,6.12137682765024E-06,15.8203125,0,0
-1.7173793821712E-05,5.13875556862331E-06,15.8203125,0,0
-1.99358128156746E-05,5.9902617977059E-06,15.8203125,0,0
-1.93645464605652E-05,7.16727709004772E-06,15.8203125,0,0
-1.82717903953744E-05,7.1425674832426E-06,15.8203125,0,0
-1.620903640287E-05,6.75945420880453E-06,15.8203125,0,0
-1.64233479154063E-05,8.04483443062054E-06,15.8203125,0,0
-1.70054318004986E-05,7.40568430046551E-06,15.8203125,0,0
-1.92858587979572E-05,4.57564965472557E-06,15.8203125,0,0
-2.09022546187043E-05,3.41739337272884E-06,15.8203125,0,0
-2.23088045459008E-05,6.53810184303438E-06,15.8203125,0,0
-2.23688002733979E-05,1.13138457891182E-05,15.8203125,0,0
-2.22525013668928E-05,1.32835702970624E-05,15.8203125,0,0
-1.92021325347014E-05,9.64668925007572E-06,15.8203125,0,0
-2.74103385891067E-05,1.42874650919111E-05,15.8203125,0,0
-2.07416560442653E-05,1.24774469441036E-05,15.8203125,0,0
-2.60135402641026E-05,1.60293857334182E-05,15.8203125,0,0
-2.12945215025684E-05,1.32347931867116E-05,15.8203125,0,0
-2.22418839257443E-05,1.28370138554601E-05,15.8203125,0,0
-2.01104594452772E-05,1.20152817544295E-05,15.8203125,0,0
-2.15027430385817E-05,1.41364771479857E-05,15.8203125,0,0
-2.01624279725365E-05,1.28561950987205E-05,15.8203125,0,0
-1.66358040587511E-05,1.04760110843927E-05,15.8203125,0,0
-1.37120605359087E-05,8.30572571430821E-06,15.8203125,0,0
-1.17741392386961E-05,6.10859660810092E-06,15.8203125,0,0
-1.13747828436317E-05,3.98113297706004E-06,15.8203125,0,0
-9.07322191778803E-06,2.57316219176573E-06,15.8203125,0,0
-8.99893348105252E-06,4.35931360698305E-06,15.8203125,0,0
-8.19400611362653E-06,5.3991680033505E-06,15.8203125,0,0
-1.02432777566719E-05,6.50636047794251E-06,15.8203125,0,0
-1.1157120752614E-05,6.94610343998647E-06,15.8203125,0,0
-1.45974327097065E-05,9.12478117243154E-06,15.8203125,0,0
-1.68757906067185E-05,8.74888883117819E-06,15.8203125,0,0
-2.05245632969309E-05,8.11370045994408E-06,15.8203125,0,0
-2.27713808271801E-05,8.03563762019621E-06,15.8203125,0,0
-2.63298588834004E-05,1.05964054455399E-05,15.8203125,0,0
-2.79445339401718E-05,1.14921922431677E-05,15.8203125,0,0
-2.95275694952579E-05,9.81583070824854E-06,15.8203125,0,0
-3.2605337764835E-05,7.59510385250906E-06,15.8203125,0,0
-3.60747071681544E-05,6.45917407382512E-06,15.8203125,0,0
-3.06071960949339E-05,5.32670765096555E-06,15.8203125,0,0
-4.35662877862342E-05,8.5814544945606E-06,15.8203125,0,0
-3.39200742018875E-05,9.57476186158601E-06,15.8203125,0,0
-4.31892731285188E-05,1.44079476740444E-05,15.8203125,0,0
-3.64356383215636E-05,1.48581457324326E-05,15.8203125,0,0
-3.92135298170615E-05,1.41321879709722E-05,15.8203125,0,0
-3.45851731253788E-05,1.29747122628032E-05,15.8203125,0,0
-3.50669215549715E-05,1.42476728797192E-05,15.8203125,0,0
-3.31182636728045E-05,1.57508493430214E-05,15.8203125,0,0
-3.34420619765297E-05,1.77640977199189E-05,15.8203125,0,0
-3.4276643418707E-05,1.95759039343102E-05,15.8203125,0,0
-3.33471471094526E-05,1.91031922440743E-05,15.8203125,0,0
-3.29245012835599E-05,1.65163964993553E-05,15.8203125,0,0
-2.88751089101424E-05,1.44977284435299E-05,15.8203125,0,0
-2.96260768664069E-05,1.55124835146125E-05,15.8203125,0,0
-2.75213733402779E-05,1.67436883202754E-05,15.8203125,0,0
-2.72954966931138E-05,1.77624606294557E-05,15.8203125,0,0
-2.25063504331047E-05,1.7599366401555E-05,15.8203125,0,0
-2.1621517589665E-05,1.70180446730228E-05,15.8203125,0,0
-2.00699960259954E-05,1.49669322127011E-05,15.8203125,0,0
-2.07551711355336E-05,1.34507772600045E-05,15.8203125,0,0
-1.77659276232589E-05,1.34311585497926E-05,15.8203125,0,0
-1.74690067069605E-05,1.39927924465155E-05,15.8203125,0,0
-1.88905705726938E-05,1.25196875160327E-05,15.8203125,0,0
-2.2679183530272E-05,1.24353064165916E-05,15.8203125,0,0
-2.42579790210584E-05,1.34263318614103E-05,15.8203125,0,0
-2.4334618501598E-05,1.2527612852864E-05,15.8203125,0,0
-2.06068743864307E-05,8.57554368849378E-06,15.8203125,0,0
-3.03550514217932E-05,1.25886836030986E-05,15.8203125,0,0
-2.64417776634218E-05,1.04936252682819E-05,15.8203125,0,0
-3.45492990163621E-05,1.38126979436493E-05,15.8203125,0,0
-3.13516320602503E-05,1.29051068142871E-05,15.8203125,0,0
-3.47798304574098E-05,1.25065444080974E-05,15.8203125,0,0
-3.37707097060047E-05,1.06062761915382E-05,15.8203125,0,0
-3.48404282703996E-05,1.18369380288641E-05,15.8203125,0,0
-3.42837738571689E-05,1.03262418633676E-05,15.8203125,0,0
-3.50605514540803E-05,9.98095947579714E-06,15.8203125,0,0
-3.71555324818473E-05,1.19181013360503E-05,15.8203125,0,0
-4.04321472160518E-05,1.37942215587827E-05,15.8203125,0,0
-4.73403815703932E-05,1.38818959385389E-05,15.8203125,0,0
-5.11304970132187E-05,1.15129232653999E-05,15.8203125,0,0
-5.18760170962196E-05,1.0710529750213E-05,15.8203125,0,0
-4.57468304375652E-05,9.00484974408755E-06,15.8203125,0,0
-4.03147751057986E-05,7.24115807315684E-06,15.8203125,0,0
-3.32749477820471E-05,5.21254378327285E-06,15.8203125,0,0
-2.87005241261795E-05,5.70511701880605E-06,15.8203125,0,0
-2.19962148548802E-05,5.69041458220454E-06,15.8203125,0,0
-1.639064430492E-05,5.48895241081482E-06,15.8203125,0,0
-9.66383777267765E-06,5.03403634866118E-06,15.8203125,0,0
-4.42801137978677E-06,6.7230189415568E-06,15.8203125,0,0
1.78726293142972E-06,8.44671103550354E-06,15.8203125,0,0
6.79561344441026E-06,1.11097697299556E-05,15.8203125,0,0
8.59790816321038E-06,1.31215201690793E-05,15.8203125,0,0
6.34469733995502E-06,1.37956676553586E-05,15.8203125,0,0
6.18650943806642E-08,1.15799939521821E-05,15.8203125,0,0
-2.22762764678919E-06,1.64402954396792E-05,15.8203125,0,0
-1.78570383013721E-06,1.14068334369222E-05,15.8203125,0,0
3.94222433897085E-06,1.51124886542675E-05,15.8203125,0,0
7.28618624634692E-06,1.43609213409945E-05,15.8203125,0,0
9.62286594585748E-06,1.44649284266052E-05,15.8203125,0,0
1.01262830867199E-05,1.19047117550508E-05,15.8203125,0,0
1.20480526675237E-05,1.28296023831354E-05,15.8203125,0,0
1.45177364174742E-05,1.27189259728766E-05,15.8203125,0,0
1.59752380568534E-05,1.09137836261652E-05,15.8203125,0,0
1.46865986607736E-05,8.46523107611574E-06,15.8203125,0,0
1.0802419637912E-05,6.87192641635193E-06,15.8203125,0,0
3.99979126086691E-06,9.41715552471578E-06,15.8203125,0,0
-4.22986659032176E-06,1.22258879855508E-05,15.8203125,0,0
-1.13660717033781E-05,1.48577437357744E-05,15.8203125,0,0
-1.78035770659335E-05,1.45244603118044E-05,15.8203125,0,0
-2.41795878537232E-05,1.38368732223171E-05,15.8203125,0,0
-3.01858781313058E-05,1.16745741252089E-05,15.8203125,0,0
-3.45518819813151E-05,1.11238387034973E-05,15.8203125,0,0
-3.80097990273498E-05,9.05715478438651E-06,15.8203125,0,0
-4.06103972636629E-05,6.04814295002143E-06,15.8203125,0,0
-4.23971578129567E-05,3.37501728608913E-06,15.8203125,0,0
-4.1972834878834E-05,3.24059328704607E-06,15.8203125,0,0
-4.20099968323484E-05,3.59533646587806E-06,15.8203125,0,0
-4.34706307714805E-05,2.96019811685255E-06,15.8203125,0,0
-4.45216828666162E-05,1.67094896141862E-07,15.8203125,0,0
-4.40048206655774E-05,-1.66172242188622E-07,15.8203125,0,0
-3.40747355949134E-05,1.79519395260286E-06,15.8203125,0,0
-4.52508429589216E-05,4.85897680846392E-06,15.8203125,0,0
-2.8672169719357E-05,7.39963024898316E-06,15.8203125,0,0
-3.55483607563656E-05,1.09967550088186E-05,15.8203125,0,0
-2.58911350101698E-05,1.31501319629024E-05,15.8203125,0,0
-2.88849569187732E-05,1.43779207064654E-05,15.8203125,0,0
-2.35022689594189E-05,1.52427855937276E-05,15.8203125,0,0
-2.317771941307E-05,1.25139667943586E-05,15.8203125,0,0
-1.78745958692161E-05,1.07778105302714E-05,15.8203125,0,0
-1.5824707588763E-05,1.18006646516733E-05,15.8203125,0,0
-1.5878586054896E-05,1.2709653674392E-05,15.8203125,0,0
-1.45942003655364E-05,1.20789918582886E-05,15.8203125,0,0
-1.73273183463607E-05,1.26389650176861E-05,15.8203125,0,0
-1.83704796654638E-05,1.42296676131082E-05,15.8203125,0,0
-2.22920771193458E-05,1.35235695779556E-05,15.8203125,0,0
-2.06855293072294E-05,1.14044714791817E-05,15.8203125,0,0
-2.30359382840106E-05,1.08288149931468E-05,15.8203125,0,0
-2.26557822315954E-05,1.25735523397452E-05,15.8203125,0,0
-2.58315176324686E-05,1.35048985612229E-05,15.8203125,0,0
-2.44289458350977E-05,1.23785384857911E-05,15.8203125,0,0
-2.4645691155456E-05,1.0904141163337E-05,15.8203125,0,0
-2.18910281546414E-05,1.0623473826854E-05,15.8203125,0,0
-2.07775501621654E-05,1.1968629223702E-05,15.8203125,0,0
-1.85207991307834E-05,1.38834338940796E-05,15.8203125,0,0
-1.72016880242154E-05,1.38538634928409E-05,15.8203125,0,0
-1.54012395796599E-05,1.27380853882642E-05,15.8203125,0,0
-1.5100047676242E-05,1.23246391012799E-05,15.8203125,0,0
-1.34217298182193E-05,9.90389708022121E-06,15.8203125,0,0
-1.98042362171691E-05,1.28458641484031E-05,15.8203125,0,0
-1.73888147401158E-05,7.68612335377838E-06,15.8203125,0,0
-2.21969166886993E-05,9.14367410587147E-06,15.8203125,0,0
-2.01897655642824E-05,5.5765622164472E-06,15.8203125,0,0
-2.2501479179482E-05,6.83185908201267E-06,15.8203125,0,0
-2.23252391151618E-05,7.29409248378943E-06,15.8203125,0,0
-2.41533507505665E-05,8.75596015248448E-06,15.8203125,0,0
-2.48974356509279E-05,6.45475302007981E-06,15.8203125,0,0
-2.55519626080059E-05,5.48017806067946E-06,15.8203125,0,0
-2.6477162464289E-05,7.49774108044221E-06,15.8203125,0,0
-2.66762071987614E-05,9.57853080763016E-06,15.8203125,0,0
-2.84964553429745E-05,1.04752907645889E-05,15.8203125,0,0
-3.01578202197561E-05,9.45300871535437E-06,15.8203125,0,0
-3.36412340402603E-05,9.53037033468718E-06,15.8203125,0,0
-3.58073048118968E-05,9.28900499275187E-06,15.8203125,0,0
-3.83349070034456E-05,1.05043473013211E-05,15.8203125,0,0
-3.7473193515325E-05,9.57626434683334E-06,15.8203125,0,0
-3.69577755918726E-05,8.58255771163385E-06,15.8203125,0,0
-3.63178041880019E-05,6.51590607958497E-06,15.8203125,0,0
-3.7039237213321E-05,7.23913080946659E-06,15.8203125,0,0
-3.67473003279883E-05,7.96472886577249E-06,15.8203125,0,0
-3.71816859114915E-05,8.0875997809926E-06,24.609375,0,0
-3.67100255971309E-05,7.95789765106747E-06,24.609375,0,0
-3.69242516171653E-05,9.83763584372355E-06,24.609375,0,0
-3.82475445803721E-05,1.21521825349191E-05,24.609375,0,0
-3.91527028114069E-05,1.26174936667667E-05,24.609375,0,0
-3.01901036436902E-05,1.10457549453713E-05,24.609375,0,0
-4.10232132708188E-05,1.69694267242448E-05,24.609375,0,0
-2.73133482551202E-05,1.3118065908202E-05,24.609375,0,0
-3.19763676088769E-05,1.39989406306995E-05,24.609375,0,0
-2.28303233598126E-05,1.00784645837848E-05,24.609375,0,0
-2.59876524069114E-05,9.51619585976005E-06,24.609375,0,0
-2.23302395170322E-05,8.82613312569447E-06,24.609375,0,0
-2.47410989686614E-05,1.11624531200505E-05,24.609375,0,0
-2.33167484111618E-05,1.10855835373513E-05,24.609375,0,0
-2.14779811358312E-05,9.23131574381841E-06,24.609375,0,0
-1.88886206160532E-05,7.40621362638194E-06,24.609375,0,0
-1.52113298099721E-05,5.80559481022647E-06,24.609375,0,0
-1.48627786984434E-05,5.605391379504E-06,24.609375,0,0
-1.28584688354749E-05,4.07233392252238E-06,24.609375,0,0
-1.47455184560386E-05,4.79982963952352E-06,24.609375,0,0
-1.34176125357044E-05,5.47126137462328E-06,24.609375,0,0
-1.58100665430538E-05,6.52629933028948E-06,24.609375,0,0
-1.51037411342259E-05,6.33836225460982E-06,24.609375,0,0
-1.70875864569098E-05,7.72027487982996E-06,24.609375,0,0
-1.6571138985455E-05,9.18175737751881E-06,24.609375,0,0
-2.00720041902969E-05,1.13762989712995E-05,24.609375,0,0
-2.14934098039521E-05,1.12314937723568E-05,24.609375,0,0
-2.25174244405935E-05,9.24842242966406E-06,24.609375,0,0
-2.09426580113359E-05,7.10209906173986E-06,24.609375,0,0
-2.17461929423735E-05,6.35216383670922E-06,24.609375,0,0
-2.30911045946414E-05,6.6018737925333E-06,24.609375,0,0
-2.40512963500805E-05,9.00740360521013E-06,24.609375,0,0
-1.96443852473749E-05,8.85602730704704E-06,24.609375,0,0
-2.74324011115823E-05,1.15199345600558E-05,24.609375,0,0
-2.22229045903077E-05,6.54772884445265E-06,24.609375,0,0
-2.99133826047182E-05,8.22200399852591E-06,24.609375,0,0
-2.77995823125821E-05,6.5070253185695E-06,24.609375,0,0
-3.36097364197485E-05,8.16180181573145E-06,24.609375,0,0
-3.45126500178594E-05,9.00819031812716E-06,24.609375,0,0
-3.64618499588687E-05,9.95593472907785E-06,24.609375,0,0
-3.4674747439567E-05,7.67535220802529E-06,24.609375,0,0
-3.35645490849856E-05,7.27717088011559E-06,24.609375,0,0
-3.46316810464486E-05,9.36634296522243E-06,24.609375,0,0
-3.56149685103446E-05,1.07295363704907E-05,24.609375,0,0
-3.73124930774793E-05,1.1629359505605E-05,24.609375,0,0
-3.58991383109242E-05,1.19570913739153E-05,24.609375,0,0
-3.63225262844935E-05,1.40077327159815E-05,24.609375,0,0
-3.56083328370005E-05,1.48344806802925E-05,24.609375,0,0
-3.70398483937606E-05,1.70274088304723E-05,24.609375,0,0
-3.48826688423287E-05,1.85207754839212E-05,24.609375,0,0
-3.43053798133042E-05,1.90781902347226E-05,24.609375,0,0
-3.23485655826516E-05,1.73897115018917E-05,24.609375,0,0
-3.2928535802057E-05,1.69660725077847E-05,24.609375,0,0
-3.328341699671E-05,1.59792416525306E-05,24.609375,0,0
-3.40349797625095E-05,1.43147999551729E-05,24.609375,0,0
-3.30539114656858E-05,1.3312540431798E-05,24.609375,0,0
-3.23578424286097E-05,1.27176617752411E-05,24.609375,0,0
-3.04507211694727E-05,1.13162523120991E-05,24.609375,0,0
-2.80455133179203E-05,1.19080987133202E-05,24.609375,0,0
-2.08344608836342E-05,1.07612850115402E-05,24.609375,0,0
-2.80263302556705E-05,1.46236661748844E-05,24.609375,0,0
-1.88863923540339E-05,1.01982432170189E-05,24.609375,0,0
-2.31198755500373E-05,1.28705723909661E-05,24.609375,0,0
-2.02239516511327E-05,1.02901303762337E-05,24.609375,0,0
-2.85464011540171E-05,1.11370554805035E-05,24.609375,0,0
-3.00654028251302E-05,9.98497853288427E-06,24.609375,0,0
-3.12044030579273E-05,1.00554279924836E-05,24.609375,0,0
-2.78395746136084E-05,7.20013849786483E-06,24.609375,0,0
-2.39777200476965E-05,6.38984556644573E-06,24.609375,0,0
-2.05992873816285E-05,8.82615586306201E-06,24.609375,0,0
-1.88050071301404E-05,1.0369930350862E-05,24.609375,0,0
-2.06669210456312E-05,1.02552430689684E-05,24.609375,0,0
-2.06902441277634E-05,7.89934347267263E-06,24.609375,0,0
-2.19203593587736E-05,7.27548740542261E-06,24.609375,0,0
-1.94438816834008E-05,5.09036590301548E-06,24.609375,0,0
-1.84970849659294E-05,3.26515964843566E-06,24.609375,0,0
-1.53952096297871E-05,1.95669281310984E-06,24.609375,0,0
-1.569165942783E-05,3.55185420630733E-06,24.609375,0,0
-1.55795478349319E-05,3.89268916478613E-06,24.609375,0,0
-1.74788910953794E-05,5.31216301169479E-06,24.609375,0,0
-1.67678863363108E-05,6.64161461827462E-06,24.609375,0,0
