biceps_emg, triceps_emg, subject_position, position_estimate, brace_position
1.21605228287081E-06,-1.63643690029858E-05,0.52734375,0,0
2.3059558316163E-06,-1.66625250130892E-05,0.52734375,0,0
3.98784641220118E-06,-1.69936320162378E-05,0.52734375,0,0
4.61796616946231E-06,-1.64243774634087E-05,0.52734375,0,0
3.42127918884216E-06,-1.7506006770418E-05,0.52734375,0,0
2.28963358495093E-06,-1.6352871170966E-05,0.52734375,0,0
3.85945213565719E-06,-1.54346835188335E-05,0.52734375,0,0
6.21848357695853E-06,-1.32076647787471E-05,0.52734375,0,0
7.63588832342066E-06,-1.22142246254953E-05,0.52734375,0,0
7.91618913353886E-06,-1.03022730399971E-05,0.52734375,0,0
8.96642541192705E-06,-1.10397959360853E-05,0.52734375,0,0
9.88170540949795E-06,-1.22390847536735E-05,0.52734375,0,0
9.60237321123714E-06,-1.37487941174186E-05,0.52734375,0,0
8.52677840157412E-06,-1.41961718327366E-05,0.52734375,0,0
6.28031830274267E-06,-1.47958862726227E-05,0.52734375,0,0
4.18173112848308E-06,-1.6206990039791E-05,0.52734375,0,0
4.64300774183357E-06,-1.70643088495126E-05,0.52734375,0,0
4.49789422418689E-06,-1.33509383886121E-05,0.52734375,0,0
6.11696759733604E-06,-2.04035586648388E-05,0.52734375,0,0
3.35322783939773E-06,-1.88376998266904E-05,0.52734375,0,0
3.08215317090799E-06,-2.48508204094833E-05,0.52734375,0,0
1.70550060829555E-06,-2.29456145461882E-05,0.52734375,0,0
2.27492250814976E-06,-2.51677611231571E-05,0.52734375,0,0
8.88626061623654E-07,-2.49077638727613E-05,0.52734375,0,0
-3.25615673091306E-07,-2.71738117589848E-05,0.52734375,0,0
1.91136251714852E-07,-2.84903471765574E-05,0.52734375,0,0
2.35495508604799E-06,-2.93293360300595E-05,0.52734375,0,0
4.37588732893346E-06,-2.92196364171105E-05,0.52734375,0,0
5.47732361155795E-06,-2.71766930382E-05,0.52734375,0,0
5.65673053642968E-06,-2.569269236119E-05,0.52734375,0,0
4.81822371511953E-06,-2.28165317821549E-05,0.52734375,0,0
4.84730344396667E-06,-2.19580251723528E-05,0.52734375,0,0
5.32863668922801E-06,-2.01666971406667E-05,0.52734375,0,0
6.6834927565651E-06,-1.95538541447604E-05,0.52734375,0,0
7.29554039935465E-06,-1.75798541022232E-05,0.52734375,0,0
7.57713587518083E-06,-1.6610232705716E-05,0.52734375,0,0
6.93953415975557E-06,-1.43936858876259E-05,0.52734375,0,0
6.26769087830326E-06,-1.30610251289909E-05,0.52734375,0,0
5.20814683113713E-06,-1.08744852695963E-05,0.52734375,0,0
5.17122498422395E-06,-1.01163068393362E-05,0.52734375,0,0
4.8839228838915E-06,-1.05787776192301E-05,0.52734375,0,0
3.60922763320559E-06,-1.20835802590591E-05,0.52734375,0,0
2.49267259277985E-06,-1.45132116813329E-05,0.52734375,0,0
1.93215169019823E-06,-1.79247963387752E-05,0.52734375,0,0
9.63519937613455E-07,-1.57878184836591E-05,0.52734375,0,0
1.60041977892433E-07,-2.10060716199223E-05,0.52734375,0,0
-4.21005182715817E-07,-1.27269913718919E-05,0.52734375,0,0
1.39600183501898E-06,-1.55277903104434E-05,0.52734375,0,0
2.26693532567879E-06,-1.23749969134224E-05,0.52734375,0,0
2.49906292992819E-06,-1.37243860081071E-05,0.52734375,0,0
5.5120290198829E-07,-9.79201831796672E-06,0.52734375,0,0
-6.54585790016426E-07,-9.9228182079969E-06,0.52734375,0,0
-2.20589214450229E-07,-1.13322348624934E-05,0.52734375,0,0
1.07842640773015E-06,-1.33365028887056E-05,0.52734375,0,0
2.61477589447168E-06,-1.36016751639545E-05,0.52734375,0,0
2.65907988250547E-06,-1.25275264508673E-05,0.52734375,0,0
1.68687301993486E-06,-1.35157506520045E-05,0.52734375,0,0
9.64876107900636E-07,-1.37432252813596E-05,0.52734375,0,0
1.44545299463061E-06,-1.54255067172926E-05,0.52734375,0,0
2.61446302829427E-06,-1.43767611007206E-05,0.52734375,0,0
4.6331992962223E-06,-1.41521049954463E-05,0.52734375,0,0
5.74167142985971E-06,-1.24150819829083E-05,0.52734375,0,0
4.52151016361313E-06,-1.42252756631933E-05,0.52734375,0,0
2.20162451114447E-06,-1.59673472808208E-05,0.52734375,0,0
1.20358504318574E-06,-1.7362162907375E-05,0.52734375,0,0
1.57190868321777E-06,-1.69831146195065E-05,0.52734375,0,0
2.29686224884063E-06,-1.72191012097755E-05,0.52734375,0,0
1.17956983558543E-06,-1.51741924128146E-05,0.52734375,0,0
-1.94655726204473E-07,-1.3829115232511E-05,0.52734375,0,0
5.96677864450612E-07,-1.33382027343032E-05,0.52734375,0,0
2.36485198001901E-06,-1.40548891067738E-05,0.52734375,0,0
1.49362767842831E-06,-1.18589032354066E-05,0.52734375,0,0
1.34512265503872E-06,-1.70858347701142E-05,0.52734375,0,0
5.97082760123158E-07,-1.62621818162734E-05,0.52734375,0,0
1.6810362239994E-06,-2.43102276726859E-05,0.52734375,0,0
1.44761656883929E-06,-2.47508851316525E-05,0.52734375,0,0
2.60299430010491E-06,-2.67226951109478E-05,0.52734375,0,0
3.70740531252522E-06,-2.33829614444403E-05,0.52734375,0,0
3.26375288750569E-06,-2.10240268643247E-05,0.52734375,0,0
1.31153558413644E-06,-1.85784938366851E-05,0.52734375,0,0
1.8598966562422E-06,-1.94693966477644E-05,0.52734375,0,0
4.15660178987309E-06,-2.07756656891434E-05,0.52734375,0,0
4.92367917104275E-06,-1.87481782631949E-05,0.52734375,0,0
4.05720402341103E-06,-1.59772371262079E-05,0.52734375,0,0
2.71471549240232E-06,-1.2023370800307E-05,0.52734375,0,0
2.70728583018354E-06,-1.05891422208515E-05,0.52734375,0,0
3.56752593688725E-06,-1.13618007162586E-05,0.52734375,0,0
3.97276789954049E-06,-1.64921348186908E-05,0.52734375,0,0
2.89106651507609E-06,-1.87073164852336E-05,0.52734375,0,0
2.04458979169431E-06,-1.86757351912092E-05,0.52734375,0,0
2.30888690566644E-06,-1.65731507877354E-05,0.52734375,0,0
3.48119647242129E-06,-1.72451727848966E-05,0.52734375,0,0
4.51380674348911E-06,-1.80379302037181E-05,0.52734375,0,0
5.13837130711181E-06,-1.93057239812333E-05,0.52734375,0,0
4.46834428657894E-06,-1.92569186765468E-05,0.52734375,0,0
3.54982284989092E-06,-1.77009496837854E-05,0.52734375,0,0
2.94994174510066E-06,-1.61116386152571E-05,0.52734375,0,0
3.66342396773689E-06,-1.69794366229326E-05,0.52734375,0,0
3.67108714272035E-06,-1.51066888065543E-05,0.52734375,0,0
4.83520943816984E-06,-1.96427590708481E-05,0.52734375,0,0
4.16427428717725E-06,-1.26850709420978E-05,0.52734375,0,0
5.76463571633212E-06,-1.64069278980605E-05,0.52734375,0,0
3.24987672684074E-06,-1.35972695716191E-05,0.52734375,0,0
1.67412827067892E-06,-1.83683932846179E-05,0.52734375,0,0
6.06022126703465E-07,-2.01734310394386E-05,0.52734375,0,0
1.38903703827964E-06,-2.32859383686446E-05,0.52734375,0,0
1.19159722089535E-06,-2.24190407607239E-05,0.52734375,0,0
-4.03028707296471E-07,-2.06887652893784E-05,0.52734375,0,0
-1.95875463759876E-06,-2.00584945559967E-05,0.52734375,0,0
-1.67010568929982E-06,-1.96147102542454E-05,0.52734375,0,0
1.69910592262568E-08,-2.02414194063749E-05,0.52734375,0,0
1.43672775720916E-06,-1.9561037333915E-05,0.52734375,0,0
2.74935791821918E-06,-2.00205668079434E-05,0.52734375,0,0
2.31457261179457E-06,-1.7815042156144E-05,0.52734375,0,0
2.00191470867139E-06,-1.77219608303858E-05,0.52734375,0,0
2.16496891880524E-06,-1.75469103851356E-05,0.52734375,0,0
2.84955808638188E-06,-1.86159541044617E-05,0.52734375,0,0
2.65620406025846E-06,-1.66027621162357E-05,0.52734375,0,0
2.50324319495121E-06,-1.63923741638428E-05,0.52734375,0,0
1.688111524345E-06,-1.6301264622598E-05,0.52734375,0,0
1.09931852421141E-06,-1.67120579135371E-05,0.52734375,0,0
1.70177841596342E-07,-1.55539837578544E-05,0.52734375,0,0
8.28753798032267E-07,-1.5689405699959E-05,0.52734375,0,0
2.48057199314644E-06,-1.62790256581502E-05,0.52734375,0,0
1.6517570884389E-06,-1.74394190253224E-05,0.52734375,0,0
1.59186086534646E-08,-1.32113518702681E-05,0.52734375,0,0
-1.59549689016103E-08,-1.5215206076391E-05,0.52734375,0,0
2.68715893980698E-07,-7.1334870881401E-06,0.52734375,0,0
1.19246863050648E-07,-1.07397027022671E-05,0.52734375,0,0
-4.04789318508847E-07,-9.09924710867926E-06,0.52734375,0,0
6.0055606354581E-07,-1.14135436888319E-05,0.52734375,0,0
2.39414703173679E-06,-7.90747162682237E-06,0.52734375,0,0
3.05641083286901E-06,-7.99691042630002E-06,0.52734375,0,0
3.59444106834417E-06,-8.01584519649623E-06,0.52734375,0,0
3.96895165977185E-06,-8.54751397127984E-06,0.52734375,0,0
3.76285652237129E-06,-8.54940026329132E-06,0.52734375,0,0
3.03237015941704E-06,-8.18729859020095E-06,0.52734375,0,0
2.88933892989007E-06,-8.93838387128199E-06,0.52734375,0,0
3.29185763803252E-06,-9.04803982848534E-06,0.52734375,0,0
2.46469608100597E-06,-1.36763101181714E-05,0.52734375,0,0
1.08343181182136E-06,-1.82840067282086E-05,0.52734375,0,0
9.99904045784206E-07,-2.34826202358818E-05,0.52734375,0,0
2.44817761085869E-06,-2.51706369454041E-05,0.52734375,0,0
3.55788188244333E-06,-2.67791674559703E-05,0.52734375,0,0
3.53865675606357E-06,-2.55490722338436E-05,0.52734375,0,0
4.08760297432309E-06,-2.60843153228052E-05,0.52734375,0,0
5.65887648917851E-06,-2.74260091828182E-05,0.52734375,0,0
7.3514029281796E-06,-3.04957466141786E-05,0.52734375,0,0
8.24864036985673E-06,-3.13214768539183E-05,0.52734375,0,0
8.08697859611129E-06,-2.92323620669777E-05,0.52734375,0,0
6.98976919011329E-06,-2.65554645011434E-05,0.52734375,0,0
5.30948364030337E-06,-2.40775170823326E-05,0.52734375,0,0
4.20890728491941E-06,-1.72987838595873E-05,0.52734375,0,0
8.11531481303973E-06,-2.28580338443862E-05,0.52734375,0,0
8.75238674780121E-06,-1.58795501192799E-05,0.52734375,0,0
8.82618132891366E-06,-2.07919692911673E-05,0.52734375,0,0
6.44125429971609E-06,-1.58564198500244E-05,0.52734375,0,0
5.76756383452448E-06,-1.70365292433416E-05,0.52734375,0,0
5.20753474120284E-06,-1.58349266712321E-05,0.52734375,0,0
5.7988158914668E-06,-1.88556623470504E-05,0.52734375,0,0
5.24173810845241E-06,-1.8643888324732E-05,0.52734375,0,0
4.84755764773581E-06,-1.82424591912422E-05,0.52734375,0,0
5.32960075361189E-06,-1.89110342034837E-05,0.52734375,0,0
6.00932980887592E-06,-1.82796666194918E-05,0.52734375,0,0
5.96703375776997E-06,-1.88041649380466E-05,0.52734375,0,0
5.31772502654349E-06,-1.79107919393573E-05,0.52734375,0,0
5.23275821251445E-06,-1.87359855772229E-05,0.52734375,0,0
5.30334682480316E-06,-1.7990438209381E-05,0.52734375,0,0
6.65988727632794E-06,-1.97480658243876E-05,0.52734375,0,0
7.57340148993535E-06,-1.88390058610821E-05,0.52734375,0,0
7.71732993598562E-06,-1.82557450898457E-05,0.52734375,0,0
7.05711863702163E-06,-1.54777881107293E-05,0.52734375,0,0
6.80342827763525E-06,-1.50066489368328E-05,0.52734375,0,0
5.89153250984964E-06,-1.3591637070931E-05,0.52734375,0,0
5.42249472346157E-06,-1.2853134649049E-05,0.52734375,0,0
6.02786167291924E-06,-1.18197867777781E-05,0.52734375,0,0
7.3551223067625E-06,-1.15853326860815E-05,0.52734375,0,0
7.47135618439643E-06,-1.09908096419531E-05,0.52734375,0,0
6.12126405030722E-06,-1.08083768282086E-05,0.52734375,0,0
4.22646007791627E-06,-9.96957987808855E-06,0.52734375,0,0
7.571630703751E-06,-1.48838680615881E-05,0.52734375,0,0
9.14521478989627E-06,-1.27030598378042E-05,0.52734375,0,0
1.10009041236481E-05,-1.50363221109728E-05,0.52734375,0,0
8.89147213456454E-06,-1.11199888124247E-05,0.52734375,0,0
8.19457818579394E-06,-1.00733886938542E-05,0.52734375,0,0
7.21662672731327E-06,-9.32111197471386E-06,0.52734375,0,0
7.31224190531066E-06,-1.28098745335592E-05,0.52734375,0,0
6.68104894430144E-06,-1.46595175465336E-05,0.52734375,0,0
6.9046927819727E-06,-1.48435829032678E-05,0.52734375,0,0
7.11823213350726E-06,-1.51727381307865E-05,0.52734375,0,0
5.8037398957822E-06,-1.55713878484676E-05,0.52734375,0,0
3.59685009243549E-06,-1.68279675563099E-05,0.52734375,0,0
1.05088126645114E-07,-1.64056564244675E-05,0.52734375,0,0
-2.37709582506795E-06,-1.64299781317823E-05,0.52734375,0,0
-3.17828130391717E-06,-1.62852247740375E-05,0.52734375,0,0
-1.98287921193696E-06,-1.80959214048926E-05,0.52734375,0,0
-1.68266865330224E-06,-1.75285495060962E-05,0.52734375,0,0
-2.09586551136454E-06,-1.55060370161664E-05,0.52734375,0,0
-1.72272666532081E-06,-1.22312421808601E-05,0.52734375,0,0
9.92454715742497E-07,-1.18885163828963E-05,0.52734375,0,0
3.13995110445831E-06,-1.3580185623141E-05,0.52734375,0,0
4.11922110288288E-06,-1.53842865984188E-05,0.52734375,0,0
4.08932373829884E-06,-1.44034656841541E-05,0.52734375,0,0
3.91993080484099E-06,-1.26936783999554E-05,0.52734375,0,0
3.52419328919495E-06,-1.2859706657764E-05,0.52734375,0,0
3.6608266782423E-06,-1.54826466314262E-05,0.52734375,0,0
2.59352623288578E-06,-1.37491606437834E-05,0.52734375,0,0
3.539565796018E-06,-1.74413144122809E-05,0.52734375,0,0
3.62851164936728E-06,-1.08310578070814E-05,0.52734375,0,0
5.32922149432125E-06,-1.65777619258733E-05,0.52734375,0,0
3.93233676732052E-06,-1.591663385625E-05,0.52734375,0,0
2.50179732574907E-06,-1.78611589944921E-05,0.52734375,0,0
3.81685197226034E-07,-1.55368234118214E-05,0.52734375,0,0
-1.71711150187548E-07,-1.51416479639011E-05,0.52734375,0,0
7.07325511939416E-07,-1.39023959491169E-05,0.52734375,0,0
2.40334179579804E-06,-1.50946652865969E-05,0.52734375,0,0
2.62179264609586E-06,-1.81565392267657E-05,0.52734375,0,0
1.05435901787132E-06,-1.94908479898004E-05,0.52734375,0,0
4.38610214814616E-07,-1.98851521417964E-05,0.52734375,0,0
1.47396997363103E-06,-1.80968672793824E-05,0.52734375,0,0
2.84428347185894E-06,-1.65756409842288E-05,0.52734375,0,0
2.31249350690632E-06,-1.40351903610281E-05,0.52734375,0,0
3.96083038367578E-07,-1.49457509905915E-05,0.52734375,0,0
-1.32736408886558E-06,-1.50468304127571E-05,0.52734375,0,0
-6.91718526013574E-07,-1.66383342730114E-05,0.52734375,0,0
3.49161609847215E-07,-1.76469111465849E-05,0.52734375,0,0
5.62890988931031E-07,-1.9119048374705E-05,0.52734375,0,0
3.37225458224566E-07,-1.81817140401108E-05,0.52734375,0,0
1.64659945767198E-06,-1.78110967681278E-05,0.52734375,0,0
2.91166315946612E-06,-1.651860839047E-05,0.52734375,0,0
3.10574182549317E-06,-1.60651470650919E-05,0.52734375,0,0
2.92927347800287E-06,-1.77818510564975E-05,0.52734375,0,0
2.64008349404321E-06,-2.09016270673601E-05,0.52734375,0,0
2.32638535635488E-06,-1.9065291780862E-05,0.52734375,0,0
2.22368726099376E-06,-2.77432845905423E-05,0.52734375,0,0
1.75530033175164E-06,-2.08512155950302E-05,0.52734375,0,0
4.98098961543292E-06,-2.4703022063477E-05,0.52734375,0,0
5.11342068421072E-06,-2.15120180655504E-05,0.52734375,0,0
3.91196954296902E-06,-2.49644181167241E-05,0.52734375,0,0
2.58126897278999E-06,-2.23200586333405E-05,0.52734375,0,0
2.98692020805902E-06,-2.15675900108181E-05,0.52734375,0,0
3.88455418942613E-06,-2.03000599867664E-05,0.52734375,0,0
4.64745380668319E-06,-2.10764374060091E-05,0.52734375,0,0
3.53214909409871E-06,-2.1730586013291E-05,0.52734375,0,0
1.56876012624707E-06,-2.09449153771857E-05,0.52734375,0,0
7.53742369852262E-07,-2.19157172978157E-05,0.52734375,0,0
-9.57176553129102E-07,-2.08777928492054E-05,0.52734375,0,0
-1.36380833737348E-06,-2.03150211746106E-05,0.52734375,0,0
-1.48681223777203E-07,-1.69131362781627E-05,0.52734375,0,0
1.67897439951048E-06,-1.71624542417703E-05,0.52734375,0,0
2.19692128666793E-06,-1.77523979800753E-05,0.52734375,0,0
1.75869820395747E-06,-2.05239139177138E-05,0.52734375,0,0
7.94228469658265E-07,-2.00314225367038E-05,0.52734375,0,0
4.18869063878446E-08,-2.00700760615291E-05,0.52734375,0,0
-1.21767857308441E-06,-1.9383323888178E-05,0.52734375,0,0
-2.0629983055187E-07,-1.97348836081801E-05,0.52734375,0,0
2.85533610622224E-06,-1.96996443264652E-05,0.52734375,0,0
4.79731988889398E-06,-1.94906151591567E-05,0.52734375,0,0
5.03693809150718E-06,-1.89585007319693E-05,0.52734375,0,0
4.2820033741009E-06,-2.01227176148677E-05,0.52734375,0,0
1.90405376088165E-06,-1.70320399774937E-05,0.52734375,0,0
1.79236099029367E-06,-2.43075592152309E-05,0.52734375,0,0
2.17546883618525E-07,-2.00318245333619E-05,0.52734375,0,0
4.08701083642882E-07,-2.56460843957029E-05,0.52734375,0,0
-1.42192916996464E-07,-2.0026289348607E-05,0.52734375,0,0
1.48676065236941E-06,-1.97716108232271E-05,0.52734375,0,0
2.80600829682953E-06,-1.81693121703574E-05,0.52734375,0,0
3.54738926944265E-06,-1.97857116290834E-05,0.52734375,0,0
3.10230871036765E-06,-1.85127591976197E-05,0.52734375,0,0
2.55397344517405E-06,-1.77865422301693E-05,0.52734375,0,0
2.63172478298657E-06,-1.72050895344E-05,0.52734375,0,0
2.58300701716507E-06,-1.54838071466656E-05,0.52734375,0,0
2.15820477933448E-06,-1.50189298437908E-05,0.52734375,0,0
2.08152732739109E-06,-1.3755090549239E-05,0.52734375,0,0
2.69634597316326E-06,-1.43081933856593E-05,0.52734375,0,0
2.85453165815852E-06,-1.26023096527206E-05,0.52734375,0,0
3.01915065392677E-06,-1.26864379126346E-05,0.52734375,0,0
3.31550086229981E-06,-1.08199474198045E-05,0.52734375,0,0
4.65268431071308E-06,-1.01061632449273E-05,0.52734375,0,0
4.6723653213121E-06,-8.3742052083835E-06,0.52734375,0,0
2.8285887765378E-06,-9.93576668406604E-06,0.52734375,0,0
1.40836141326872E-06,-1.02864278233028E-05,0.52734375,0,0
2.75842057817499E-06,-1.05532599263825E-05,0.52734375,0,0
5.92820970268804E-06,-1.08747435660916E-05,0.52734375,0,0
7.81693597673438E-06,-1.26777658806532E-05,0.52734375,0,0
7.02148736309027E-06,-1.42631115522818E-05,0.52734375,0,0
6.7638247855939E-06,-1.66173285833793E-05,0.52734375,0,0
5.84420740779024E-06,-1.49892475747038E-05,0.52734375,0,0
6.62036109133624E-06,-2.11415026569739E-05,0.52734375,0,0
2.46141735260608E-06,-1.68061415024567E-05,0.52734375,0,0
3.3917988275789E-06,-2.24983232328668E-05,0.52734375,0,0
1.81676375632378E-06,-2.10142752621323E-05,0.52734375,0,0
2.41443763115967E-06,-2.47482385020703E-05,0.52734375,0,0
1.54347947045608E-06,-2.40548652072903E-05,0.52734375,0,0
3.339538579894E-06,-2.4342623873963E-05,0.52734375,0,0
5.82019401917933E-06,-2.19933026528452E-05,0.52734375,0,0
7.54288703319617E-06,-1.9167364371242E-05,0.52734375,0,0
6.83663984091254E-06,-1.72650925378548E-05,0.52734375,0,0
5.13395070811384E-06,-1.53252040036023E-05,0.52734375,0,0
5.42401130587677E-06,-1.43783317980706E-05,0.52734375,0,0
5.23399376106681E-06,-1.22505434774212E-05,0.52734375,0,0
4.64598133476102E-06,-1.25348533401848E-05,0.52734375,0,0
3.48462344845757E-06,-1.13942578536808E-05,0.52734375,0,0
4.00553699364536E-06,-1.21461653179722E-05,0.52734375,0,0
3.82418193112244E-06,-1.18949365059962E-05,0.52734375,0,0
4.89355170429917E-06,-1.29284699141863E-05,0.52734375,0,0
6.36482627669466E-06,-1.12928619273589E-05,0.52734375,0,0
7.47484864405124E-06,-9.47578155319206E-06,0.52734375,0,0
6.89166654410656E-06,-8.29144028102746E-06,0.52734375,0,0
6.08573782301391E-06,-1.04468163044658E-05,0.52734375,0,0
5.95681103732204E-06,-1.22611108963611E-05,0.52734375,0,0
7.80597383709392E-06,-1.23817371786572E-05,0.52734375,0,0
8.75830937729916E-06,-1.08617505247821E-05,0.52734375,0,0
8.83658685779665E-06,-9.7175725386478E-06,0.52734375,0,0
6.1240493778314E-06,-8.89034345163964E-06,0.52734375,0,0
6.6074162532459E-06,-1.30617509057629E-05,0.52734375,0,0
2.3138547931012E-06,-9.88755527941976E-06,0.52734375,0,0
4.10380334869842E-06,-1.11272593130707E-05,0.52734375,0,0
3.13447640110098E-06,-1.2286343917367E-05,0.52734375,0,0
4.0903787521529E-06,-2.00671765924199E-05,0.52734375,0,0
2.77171079687832E-06,-2.46375930146314E-05,0.52734375,0,0
2.59210742115101E-06,-2.80283893516753E-05,0.52734375,0,0
1.80720360276609E-06,-2.83457120531239E-05,0.52734375,0,0
1.37839379021898E-06,-2.61590357695241E-05,0.52734375,0,0
9.01584201074002E-07,-2.34521539823618E-05,0.52734375,0,0
1.09408927073673E-06,-2.12951199500822E-05,0.52734375,0,0
2.88581259155762E-06,-2.18089571717428E-05,0.52734375,0,0
2.89835679723183E-06,-2.22287580982083E-05,0.52734375,0,0
1.94769404515682E-06,-2.21093450818444E-05,0.52734375,0,0
5.19923673891753E-07,-2.04594543902203E-05,0.52734375,0,0
1.42954286275199E-06,-2.1161453332752E-05,0.52734375,0,0
1.86890929398942E-06,-2.11280057555996E-05,0.52734375,0,0
2.27350619752542E-06,-2.026567926805E-05,0.52734375,0,0
7.62797469633369E-07,-1.7927959561348E-05,0.52734375,0,0
-1.35007141466303E-07,-1.696437902865E-05,0.52734375,0,0
9.74897488958959E-07,-1.62875076057389E-05,0.52734375,0,0
4.18929175793892E-06,-1.66410245583393E-05,0.52734375,0,0
4.79290838484303E-06,-1.66350164363394E-05,0.52734375,0,0
2.97952556138625E-06,-1.56108017108636E-05,0.52734375,0,0
1.29541763271845E-06,-1.39937183121219E-05,0.52734375,0,0
1.74323517398989E-07,-1.26702134366496E-05,0.52734375,0,0
-2.59309416605902E-07,-9.39425990509335E-06,0.52734375,0,0
-3.9960573872122E-07,-1.29586087496136E-05,0.52734375,0,0
-1.42196404340211E-06,-9.4764645837131E-06,0.52734375,0,0
-3.16899445351737E-06,-1.16662868094863E-05,0.52734375,0,0
-3.69558983948082E-06,-1.00960660347482E-05,0.52734375,0,0
-3.35786671712413E-06,-1.46390129884821E-05,0.52734375,0,0
-1.10393523300445E-06,-1.91760718735168E-05,0.52734375,0,0
2.67551030219693E-07,-2.23489605559735E-05,0.52734375,0,0
-3.03820826275114E-08,-1.92159241123591E-05,0.52734375,0,0
2.36071429071671E-07,-1.72472937265411E-05,0.52734375,0,0
1.18320099318225E-06,-1.90879854926607E-05,0.52734375,0,0
2.37493372878816E-06,-2.19711928366451E-05,0.52734375,0,0
2.98366035167419E-06,-2.40506196860224E-05,0.52734375,0,0
3.27805537381209E-06,-2.34567905863514E-05,0.52734375,0,0
3.14322869598982E-06,-2.36169253184926E-05,0.52734375,0,0
2.02830347006966E-06,-2.29220240726136E-05,0.52734375,0,0
-2.6428980959281E-07,-2.26739557547262E-05,0.52734375,0,0
-1.99710962078825E-06,-2.03109520953149E-05,0.52734375,0,0
-1.81617849648319E-06,-1.87262739927974E-05,0.52734375,0,0
-3.8485740105898E-07,-1.65131041285349E-05,0.52734375,0,0
5.60783689707023E-07,-1.57574941113126E-05,0.52734375,0,0
-1.06999998195079E-07,-1.54326426127227E-05,0.52734375,0,0
-4.06818571718759E-07,-1.69540035130922E-05,0.52734375,0,0
1.6730492689021E-06,-1.70998009707546E-05,0.52734375,0,0
4.55462031823117E-06,-1.4600114809582E-05,0.52734375,0,0
5.8800228543987E-06,-1.20017402878148E-05,0.52734375,0,0
5.57751945962082E-06,-1.19756532512838E-05,0.52734375,0,0
4.75217711937148E-06,-9.39547135203611E-06,0.52734375,0,0
7.04807507645455E-06,-1.29575164464768E-05,0.52734375,0,0
3.63470144293387E-06,-1.13756568680401E-05,0.52734375,0,0
2.0835855139012E-06,-1.61951011250494E-05,0.52734375,0,0
1.55982888827566E-06,-1.37034139697789E-05,0.52734375,0,0
3.33674483954383E-06,-1.37810829983209E-05,0.52734375,0,0
2.53155076279654E-06,-1.2409944247338E-05,0.52734375,0,0
3.72495242118021E-06,-1.37058650580002E-05,0.52734375,0,0
4.83110670757014E-06,-1.33138410092215E-05,0.52734375,0,0
5.0548533181427E-06,-1.28273441077909E-05,0.52734375,0,0
4.96016173201497E-06,-1.36813441713457E-05,0.52734375,0,0
3.99550026486395E-06,-1.34451602207264E-05,0.52734375,0,0
3.51320682057121E-06,-1.29815243781195E-05,0.52734375,0,0
2.89532476926979E-06,-1.30501230160007E-05,0.52734375,0,0
2.94618598672969E-06,-1.53698529175017E-05,0.52734375,0,0
1.92899778994615E-06,-1.63212171173655E-05,0.52734375,0,0
1.32005993691564E-06,-1.64540051628137E-05,0.52734375,0,0
1.30105070184072E-06,-1.42524113471154E-05,0.52734375,0,0
2.43492604568019E-06,-1.47567297972273E-05,0.52734375,0,0
3.25041560245154E-06,-1.61387124535395E-05,0.52734375,0,0
3.62871537618048E-06,-1.72674590430688E-05,0.52734375,0,0
3.38407426170306E-06,-1.70047642313875E-05,0.52734375,0,0
3.18335082738486E-06,-1.90151240531122E-05,0.52734375,0,0
2.4314851998497E-06,-2.073136420222E-05,0.52734375,0,0
1.72451177604671E-06,-2.01902912522201E-05,0.52734375,0,0
1.2179597206341E-06,-1.6748193957028E-05,0.52734375,0,0
1.57427666636067E-06,-1.26169297800516E-05,0.52734375,0,0
2.87283933175786E-06,-8.17706677480601E-06,0.52734375,0,0
4.83810754303704E-06,-1.35773570946185E-05,0.52734375,0,0
5.52319488633657E-06,-1.48801364048268E-05,0.52734375,0,0
7.59664317229181E-06,-2.05260475922842E-05,0.52734375,0,0
5.76220008952077E-06,-2.09649515454657E-05,0.52734375,0,0
4.18592890127911E-06,-2.38396096392535E-05,0.52734375,0,0
4.71472230856307E-06,-2.44709535763832E-05,0.52734375,0,0
6.49536286800867E-06,-2.43403883359861E-05,0.52734375,0,0
7.68625250202604E-06,-2.25812163989758E-05,0.52734375,0,0
7.38214839657303E-06,-2.14749416045379E-05,0.52734375,0,0
6.64548178974655E-06,-2.08028395718429E-05,0.52734375,0,0
5.58608917344827E-06,-1.9588816940086E-05,0.52734375,0,0
4.70014310849365E-06,-1.89233560377033E-05,0.52734375,0,0
3.65211553798872E-06,-1.81061877810862E-05,0.52734375,0,0
2.62329967881669E-06,-1.90861410374055E-05,0.52734375,0,0
1.51243261825584E-06,-2.07243556360481E-05,0.52734375,0,0
1.1795061709563E-06,-2.28213539230637E-05,0.52734375,0,0
1.82900248546503E-06,-2.03197523660492E-05,0.52734375,0,0
3.45350395036803E-06,-1.51648609971744E-05,0.52734375,0,0
4.68513462692499E-06,-1.02712156149209E-05,0.52734375,0,0
6.13332485954743E-06,-9.21919036045438E-06,0.52734375,0,0
7.49571790947812E-06,-9.32786588236922E-06,0.52734375,0,0
7.79781657911371E-06,-9.77942727331538E-06,0.52734375,0,0
8.01138321548933E-06,-1.04490891317255E-05,0.52734375,0,0
9.28365170693723E-06,-1.09266702565947E-05,0.52734375,0,0
9.94230322248768E-06,-1.02202366178972E-05,0.52734375,0,0
9.57100110099418E-06,-9.19413650990464E-06,0.52734375,0,0
8.01907208369812E-06,-7.90741796663497E-06,0.52734375,0,0
1.1956805792579E-05,-1.29220879898639E-05,0.52734375,0,0
8.94623372005299E-06,-1.3578060134023E-05,0.52734375,0,0
1.02025223895907E-05,-2.09724785236176E-05,0.52734375,0,0
8.57259419717593E-06,-2.49240729317535E-05,0.52734375,0,0
1.04818946056184E-05,-2.61451259575551E-05,0.52734375,0,0
9.45287592912791E-06,-2.34348353842506E-05,0.52734375,0,0
8.23237587610492E-06,-2.301276254002E-05,0.52734375,0,0
6.7355613282416E-06,-2.1134250346222E-05,0.52734375,0,0
6.11565201324993E-06,-1.82811636477709E-05,0.52734375,0,0
5.74589103052858E-06,-1.6056195818237E-05,0.52734375,0,0
4.59601551483502E-06,-1.45509802678134E-05,0.52734375,0,0
5.0362536967441E-06,-1.44344066939084E-05,0.52734375,0,0
4.43192629973055E-06,-1.39393969220691E-05,0.52734375,0,0
3.0262956443039E-06,-1.36695389301167E-05,0.52734375,0,0
8.51212860197847E-07,-1.27699167933315E-05,0.52734375,0,0
1.10459643565264E-06,-1.44090781759587E-05,0.52734375,0,0
1.42857345508673E-06,-1.62945016199956E-05,0.52734375,0,0
1.80298934537859E-06,-1.71145075000823E-05,0.52734375,0,0
1.39047517677682E-06,-1.55578636622522E-05,0.52734375,0,0
2.40979466070712E-06,-1.50578007378499E-05,0.52734375,0,0
2.75281672657002E-06,-1.60998370120069E-05,0.52734375,0,0
2.2065889879741E-06,-1.81452542165061E-05,0.52734375,0,0
1.01112800621195E-06,-1.7596265024622E-05,0.52734375,0,0
1.18280915728519E-07,-1.61616426339606E-05,0.52734375,0,0
9.25604865642526E-07,-1.45797539516934E-05,0.52734375,0,0
2.25322878577572E-06,-1.47465825648396E-05,0.52734375,0,0
1.91598542187421E-06,-1.31857705127914E-05,0.52734375,0,0
2.83156305158627E-06,-1.78704176505562E-05,0.52734375,0,0
2.1374382868089E-06,-1.14328004201525E-05,0.52734375,0,0
2.40258918893232E-06,-1.45133590194746E-05,0.52734375,0,0
1.80233166702237E-06,-1.28501951621729E-05,0.52734375,0,0
1.02586852790409E-06,-1.53519376908662E-05,0.52734375,0,0
-2.91913977434888E-07,-1.43775241667754E-05,0.52734375,0,0
-4.70664133445098E-07,-1.45426974995644E-05,0.52734375,0,0
-2.23354291506439E-07,-1.25858741739648E-05,0.52734375,0,0
6.51622315217537E-07,-1.1242475011386E-05,0.52734375,0,0
2.6882337351708E-06,-1.0732722330431E-05,0.52734375,0,0
4.77221237815684E-06,-1.17943554869271E-05,0.52734375,0,0
5.56405439056107E-06,-1.4664441550849E-05,0.52734375,0,0
5.07878939970396E-06,-1.7102291167248E-05,0.52734375,0,0
3.5332047900738E-06,-2.06457680178573E-05,0.52734375,0,0
1.61358195782668E-06,-2.13226521736942E-05,0.52734375,0,0
1.5335715488618E-06,-2.20303099922603E-05,0.52734375,0,0
2.1048360849818E-06,-2.1186073354329E-05,0.52734375,0,0
1.93213827515137E-06,-2.25748754019151E-05,0.52734375,0,0
1.07479979760683E-06,-2.29938777920324E-05,0.52734375,0,0
1.14055251287937E-06,-2.39194032474188E-05,0.52734375,0,0
9.27783958104556E-07,-2.30103469220921E-05,0.52734375,0,0
-3.13713769628521E-07,-2.29076686082408E-05,0.52734375,0,0
-1.02921160305414E-06,-2.15739819395822E-05,0.52734375,0,0
2.08595267281453E-07,-2.04710049729329E-05,0.52734375,0,0
2.38998927670764E-06,-2.08899127756013E-05,0.52734375,0,0
3.81067570742744E-06,-2.20737147174077E-05,0.52734375,0,0
2.58102818406769E-06,-1.86461675184546E-05,0.52734375,0,0
2.89399804387358E-06,-2.75687871180708E-05,0.52734375,0,0
6.38231142602308E-07,-2.08427863981342E-05,0.52734375,0,0
2.18032141674485E-06,-2.36963733186712E-05,0.52734375,0,0
2.68446819973178E-06,-1.8675589672057E-05,0.52734375,0,0
2.34342337535054E-06,-2.10159851121716E-05,0.52734375,0,0
2.02630371859414E-06,-2.0067889636266E-05,0.52734375,0,0
2.75793422588322E-06,-2.17680790228769E-05,0.52734375,0,0
3.51747917193279E-06,-2.13661933230469E-05,0.52734375,0,0
4.60088449472096E-06,-1.97498920897488E-05,0.52734375,0,0
4.74594435218023E-06,-1.73173320945352E-05,0.52734375,0,0
2.4894629859773E-06,-1.61611042130971E-05,0.52734375,0,0
5.7540097486708E-07,-1.80268762051128E-05,0.52734375,0,0
-1.62309660822757E-07,-1.6780932128313E-05,0.52734375,0,0
-5.11396820002119E-07,-1.65884175657993E-05,0.52734375,0,0
-7.25039967619523E-07,-1.58407074195566E-05,0.52734375,0,0
-6.1917199900563E-07,-1.7805246898206E-05,0.52734375,0,0
-4.6755587845837E-07,-1.67210600920953E-05,0.52734375,0,0
7.53140341203107E-07,-1.618052192498E-05,0.52734375,0,0
2.39243149735557E-06,-1.46088241308462E-05,0.52734375,0,0
2.8233444027137E-06,-1.48801782415831E-05,0.52734375,0,0
1.1748705901482E-06,-1.47997398016741E-05,0.52734375,0,0
8.11546726708912E-07,-1.61294192366768E-05,0.52734375,0,0
3.72668546333443E-06,-1.6115460311994E-05,0.52734375,0,0
6.97493942425353E-06,-1.60014551511267E-05,0.52734375,0,0
6.52150947644259E-06,-1.52961492858594E-05,0.52734375,0,0
4.47202910436317E-06,-1.4918226042937E-05,0.52734375,0,0
3.40088399752858E-06,-1.32334853333305E-05,0.52734375,0,0
4.57687565358356E-06,-1.92685856745811E-05,0.52734375,0,0
3.5573405057221E-06,-1.45925178003381E-05,0.52734375,0,0
4.66765959572513E-06,-1.81099148903741E-05,0.52734375,0,0
3.14474846163648E-06,-1.67342986969743E-05,0.52734375,0,0
3.00700867228443E-06,-1.82488165592076E-05,0.52734375,0,0
2.87221837425022E-06,-1.69679187820293E-05,0.52734375,0,0
4.71418024972081E-06,-1.80552178790094E-05,0.52734375,0,0
6.2123349380272E-06,-1.69913455465576E-05,0.52734375,0,0
5.30198394699255E-06,-1.59888586495072E-05,0.52734375,0,0
3.32992181029113E-06,-1.47244600157137E-05,0.52734375,0,0
2.51142887464084E-06,-1.27481443996658E-05,0.52734375,0,0
3.8633816075162E-06,-1.35669151859474E-05,0.52734375,0,0
4.83571193399257E-06,-1.42103990583564E-05,0.52734375,0,0
4.15171780332457E-06,-1.47581386045204E-05,0.52734375,0,0
1.87101284154778E-06,-1.31623519337154E-05,0.52734375,0,0
1.27963960494526E-06,-1.39103722176515E-05,0.52734375,0,0
2.7118212528876E-06,-1.39722351377713E-05,0.52734375,0,0
5.57770226805587E-06,-1.41408490890171E-05,0.52734375,0,0
6.77928073855583E-06,-1.22783349070232E-05,0.52734375,0,0
6.85225131746847E-06,-1.31161796161905E-05,0.52734375,0,0
6.62748516333522E-06,-1.40543197630905E-05,0.52734375,0,0
5.22528534929734E-06,-1.43860470416257E-05,0.52734375,0,0
3.23224139719969E-06,-1.47789378388552E-05,0.52734375,0,0
1.34172353227768E-06,-1.54865465447074E-05,0.52734375,0,0
-5.19953118782723E-07,-1.49861598401912E-05,0.52734375,0,0
-8.03260206794221E-07,-1.5169851394603E-05,0.52734375,0,0
8.42019403535232E-07,-1.34875617732177E-05,0.52734375,0,0
1.52827055899252E-06,-1.94107997231185E-05,0.52734375,0,0
1.10650262286072E-06,-1.42349299494526E-05,0.52734375,0,0
2.17100182453578E-06,-1.70882558450103E-05,0.52734375,0,0
4.4334683479974E-06,-1.57107842824189E-05,0.52734375,0,0
4.78320862384862E-06,-1.87596560863312E-05,0.52734375,0,0
3.28483156408765E-06,-1.70572966453619E-05,0.52734375,0,0
1.9740605239349E-06,-1.7326765373582E-05,0.52734375,0,0
2.68377584689006E-06,-1.62923133757431E-05,0.52734375,0,0
4.29679494118318E-06,-1.56513597175945E-05,0.52734375,0,0
5.43753458259744E-06,-1.52932698256336E-05,0.52734375,0,0
5.01662680107984E-06,-1.34936899485183E-05,0.52734375,0,0
4.69517271994846E-06,-1.30944472402916E-05,0.52734375,0,0
4.7211265155056E-06,-1.27331504700123E-05,0.52734375,0,0
4.53584698334453E-06,-1.47036971611669E-05,0.52734375,0,0
5.01845124745159E-06,-1.50132609633147E-05,0.52734375,0,0
6.37725042906823E-06,-1.56253663590178E-05,0.52734375,0,0
7.41745816412731E-06,-1.40777310662088E-05,0.52734375,0,0
6.71667612550664E-06,-1.38346085805097E-05,0.52734375,0,0
4.67125300929183E-06,-1.27286366478074E-05,0.52734375,0,0
2.36960408983578E-06,-1.30179141706321E-05,0.52734375,0,0
1.41347629778465E-06,-1.27342073028558E-05,0.52734375,0,0
2.42209807765903E-06,-1.42308717840933E-05,0.52734375,0,0
3.88262151318486E-06,-1.63582844834309E-05,0.52734375,0,0
4.42619193563587E-06,-1.76487228600308E-05,0.52734375,0,0
3.99781401938526E-06,-1.77326983248349E-05,0.52734375,0,0
3.75003696717613E-06,-1.70683961187024E-05,0.52734375,0,0
2.298685558344E-06,-1.38953200803371E-05,0.52734375,0,0
3.70266479876591E-06,-2.11768528970424E-05,0.52734375,0,0
4.45170462626265E-06,-1.8669978089747E-05,0.52734375,0,0
6.63814034851384E-06,-2.45727824221831E-05,0.52734375,0,0
6.22149036644259E-06,-2.50610846705968E-05,0.52734375,0,0
5.9554586187005E-06,-2.80017065961147E-05,0.52734375,0,0
5.37765981789562E-06,-2.57248193520354E-05,0.52734375,0,0
5.6460230553057E-06,-2.49210661422694E-05,0.52734375,0,0
4.9003401727532E-06,-2.17649667320075E-05,0.52734375,0,0
4.32444221587502E-06,-1.98343132069567E-05,0.52734375,0,0
4.74314401799347E-06,-1.88291614904301E-05,0.52734375,0,0
6.15340832155198E-06,-1.71564115589717E-05,0.52734375,0,0
7.28198801880353E-06,-1.48442004501703E-05,0.52734375,0,0
5.94382345298072E-06,-1.10598220999236E-05,0.52734375,0,0
3.68050814358867E-06,-1.11542858576286E-05,0.52734375,0,0
2.7839978429256E-06,-1.31621591208386E-05,0.52734375,0,0
4.25235157308634E-06,-1.86567704076879E-05,0.52734375,0,0
5.32846161149791E-06,-2.0085315554752E-05,0.52734375,0,0
5.33826323589892E-06,-1.82819512701826E-05,0.52734375,0,0
4.21928689320339E-06,-1.42567014336237E-05,0.52734375,0,0
3.01554882753408E-06,-1.35631626108079E-05,0.52734375,0,0
1.76751666458586E-06,-1.23897407320328E-05,0.52734375,0,0
1.1135341537738E-06,-1.19505657494301E-05,0.52734375,0,0
4.74649795023652E-07,-1.23448407975957E-05,0.52734375,0,0
-9.00608441156692E-08,-1.4339068911795E-05,0.52734375,0,0
8.21133454564915E-08,-1.66538102348568E-05,0.52734375,0,0
2.33083028433612E-07,-1.62741598614957E-05,0.52734375,0,0
1.5112821074581E-06,-1.0630149517965E-05,0.52734375,0,0
4.08618734581978E-06,-1.44271971294074E-05,0.52734375,0,0
5.64017864235211E-06,-1.15704242489301E-05,0.52734375,0,0
5.09744131704792E-06,-1.4829139217909E-05,0.52734375,0,0
3.00302372124861E-06,-1.2115693607484E-05,0.52734375,0,0
1.77045865257242E-06,-1.54164135892643E-05,0.52734375,0,0
2.45039313995221E-06,-1.660363341216E-05,0.52734375,0,0
3.94886637877789E-06,-2.07712055271259E-05,0.52734375,0,0
4.84494557895232E-06,-2.4554594347137E-05,0.52734375,0,0
5.50852064407081E-06,-2.74028661806369E-05,0.52734375,0,0
5.62478135179845E-06,-2.72269135166425E-05,0.52734375,0,0
6.00795010541333E-06,-2.444119854772E-05,0.52734375,0,0
7.11226812200039E-06,-2.30101395573001E-05,0.52734375,0,0
7.47450167182251E-06,-2.15989584830822E-05,0.52734375,0,0
6.86295425111894E-06,-2.14951614907477E-05,0.52734375,0,0
6.25767097517382E-06,-1.95493375940714E-05,0.52734375,0,0
6.33083209322649E-06,-1.9503791918396E-05,0.52734375,0,0
5.90578338233172E-06,-1.84405034815427E-05,0.52734375,0,0
5.26827807334485E-06,-1.82902040251065E-05,0.52734375,0,0
5.14919292982086E-06,-1.76463272509864E-05,0.52734375,0,0
5.2472732932074E-06,-1.88705016626045E-05,0.52734375,0,0
4.92587196276872E-06,-1.87036275747232E-05,0.52734375,0,0
3.78298068426375E-06,-1.64902321557747E-05,0.52734375,0,0
2.45404476117983E-06,-1.2272498679522E-05,0.52734375,0,0
3.69206941286393E-06,-1.03408792710979E-05,0.52734375,0,0
5.27121437698952E-06,-1.08799004010507E-05,0.52734375,0,0
5.59510954190046E-06,-1.21012935778708E-05,0.52734375,0,0
4.20542164647486E-06,-1.17220497486414E-05,0.52734375,0,0
4.56773841506219E-06,-1.80743245437043E-05,0.52734375,0,0
2.33101059166074E-06,-1.68235419550911E-05,0.52734375,0,0
4.11189739679685E-06,-2.23819879465736E-05,0.52734375,0,0
2.81735742646561E-06,-2.08499513973948E-05,0.52734375,0,0
2.60408887697849E-06,-2.0312543711043E-05,0.52734375,0,0
1.21275013498234E-06,-1.81022423930699E-05,0.52734375,0,0
1.80812810413045E-06,-1.8372824342805E-05,0.52734375,0,0
1.80292875029409E-06,-1.63406457431847E-05,0.52734375,0,0
1.18909360935504E-06,-1.70240527950227E-05,0.52734375,0,0
5.23987921496882E-07,-1.98140078282449E-05,0.52734375,0,0
1.74615308878856E-07,-1.98795987671474E-05,0.52734375,0,0
5.05951277318673E-07,-1.85434182640165E-05,0.52734375,0,0
3.26073433143392E-07,-1.68606420629658E-05,0.52734375,0,0
3.20748114290836E-07,-1.70004677784164E-05,0.52734375,0,0
-3.54860077322883E-07,-1.57392914843513E-05,0.52734375,0,0
-5.33395564161765E-07,-1.59288701979676E-05,0.52734375,0,0
-1.95560602378464E-07,-1.49564220919274E-05,0.52734375,0,0
1.34069341584109E-06,-1.4051085599931E-05,0.52734375,0,0
1.17056958970352E-06,-1.17716444947291E-05,0.52734375,0,0
6.41874692064448E-07,-1.25818933156552E-05,0.52734375,0,0
2.3843668373047E-07,-1.34238343889592E-05,0.52734375,0,0
6.62887714497629E-07,-1.393361526425E-05,0.52734375,0,0
8.61974854160508E-07,-1.47136224768474E-05,0.52734375,0,0
1.0002855788116E-06,-1.53352375491522E-05,0.52734375,0,0
1.23702352539112E-06,-1.427664210496E-05,0.52734375,0,0
2.15809427572822E-06,-1.36369344545528E-05,0.52734375,0,0
9.65224330684578E-07,-1.13119249363081E-05,0.52734375,0,0
2.91093840587564E-07,-1.65754827321507E-05,0.52734375,0,0
2.75391869308805E-07,-1.27644962049089E-05,0.52734375,0,0
2.66626852862828E-06,-1.4839590221527E-05,0.52734375,0,0
4.1946696001105E-06,-1.26924423966557E-05,0.52734375,0,0
4.98483723276877E-06,-1.49296038216562E-05,0.52734375,0,0
3.14126714329177E-06,-1.49739098560531E-05,0.52734375,0,0
2.06844697459019E-06,-1.77024612639798E-05,0.52734375,0,0
2.34189633374626E-06,-1.92436746146996E-05,0.52734375,0,0
3.42367206940253E-06,-2.01416987692937E-05,0.52734375,0,0
3.91956791645498E-06,-1.92361712834099E-05,0.52734375,0,0
2.07767971005524E-06,-1.68866135936696E-05,0.52734375,0,0
-3.71126589016058E-07,-1.71672909345943E-05,0.52734375,0,0
-1.20282618354395E-06,-1.77453475771472E-05,0.52734375,0,0
9.16933799999242E-08,-1.8802827980835E-05,0.52734375,0,0
1.87794717021461E-06,-1.81229170266306E-05,0.52734375,0,0
3.29926297126804E-06,-1.95706907106796E-05,0.52734375,0,0
2.73882642432E-06,-2.07973680517171E-05,0.52734375,0,0
1.81693280865147E-06,-2.23504011955811E-05,0.52734375,0,0
2.07960988518607E-06,-2.1519012079807E-05,0.52734375,0,0
3.1113515888137E-06,-2.20503097807523E-05,0.52734375,0,0
3.10387849822291E-06,-2.30132045544451E-05,0.52734375,0,0
3.10137875203509E-06,-2.44902839767747E-05,0.52734375,0,0
2.85100486507872E-06,-2.50656903517665E-05,0.52734375,0,0
1.14580143417697E-06,-2.53720427281223E-05,0.52734375,0,0
3.2397585414401E-07,-2.6232170057483E-05,0.52734375,0,0
3.0169587716955E-06,-2.59819607890677E-05,0.52734375,0,0
3.38840186486777E-06,-1.91865019587567E-05,0.52734375,0,0
2.35464312936529E-06,-2.70335876848549E-05,0.52734375,0,0
-1.34624258407712E-06,-2.04029183805687E-05,0.52734375,0,0
1.01908153737895E-06,-2.36531068367185E-05,0.52734375,0,0
1.17202318961063E-06,-1.71399715327425E-05,0.52734375,0,0
1.78901245817542E-06,-1.96829896594863E-05,0.52734375,0,0
2.44338912125386E-06,-1.7666672647465E-05,0.52734375,0,0
3.35690879182948E-06,-1.73900407389738E-05,0.52734375,0,0
3.50157893080905E-06,-1.3900782505516E-05,0.52734375,0,0
3.89176966564264E-06,-1.24592916108668E-05,0.52734375,0,0
4.15109616369591E-06,-1.31892320496263E-05,0.52734375,0,0
4.21649474446895E-06,-1.30863782032975E-05,0.52734375,0,0
4.06839353672694E-06,-1.38562163556344E-05,0.52734375,0,0
2.71909880211751E-06,-1.35109112306964E-05,0.52734375,0,0
1.70704004176514E-06,-1.44771474879235E-05,0.52734375,0,0
1.06845448044623E-06,-1.15740622277372E-05,0.52734375,0,0
9.45098179272463E-07,-1.04876226032502E-05,0.52734375,0,0
-3.86981781730356E-07,-8.21893900138093E-06,0.52734375,0,0
-1.22053995710303E-06,-9.55793711909791E-06,0.52734375,0,0
-6.50190543183271E-07,-9.6416515589226E-06,0.52734375,0,0
1.33934770474298E-06,-1.09485217762995E-05,0.52734375,0,0
2.06048275686044E-06,-1.07493633549893E-05,0.52734375,0,0
1.88112142041064E-06,-1.1675751011353E-05,0.52734375,0,0
1.68926601418207E-06,-1.11494318844052E-05,0.52734375,0,0
2.98915119856247E-06,-1.10799901449354E-05,0.52734375,0,0
3.50139225702151E-06,-1.19233791338047E-05,0.52734375,0,0
3.08765879708517E-06,-1.26226550491992E-05,0.52734375,0,0
2.72038073489966E-06,-8.87928945303429E-06,0.52734375,0,0
3.21488937515824E-06,-1.34718084154883E-05,0.52734375,0,0
1.61418142852199E-06,-1.32251088871271E-05,0.52734375,0,0
3.2083185033116E-06,-1.72052987181814E-05,0.52734375,0,0
4.4613484533329E-06,-1.52404318214394E-05,0.52734375,0,0
5.92671221966157E-06,-1.73757343873149E-05,0.52734375,0,0
5.63175035495078E-06,-1.84384953172412E-05,0.52734375,0,0
5.87559588893782E-06,-1.98334510059794E-05,0.52734375,0,0
4.99564202982583E-06,-1.91455401363783E-05,0.52734375,0,0
3.17733042720647E-06,-1.89296206372092E-05,0.52734375,0,0
2.46152831095969E-06,-1.91695635294309E-05,0.52734375,0,0
2.47487241722411E-06,-1.92072293430101E-05,0.52734375,0,0
1.893591957014E-06,-1.99319001694676E-05,0.52734375,0,0
5.82977520480199E-07,-1.92114239325747E-05,0.52734375,0,0
9.09867196696723E-07,-1.90961927728495E-05,0.52734375,0,0
2.08568985726743E-06,-1.86844972631661E-05,0.52734375,0,0
3.43258375323785E-06,-1.99584137590136E-05,0.52734375,0,0
4.57037731393939E-06,-1.9968940250692E-05,0.52734375,0,0
5.50297500012675E-06,-2.00273698283127E-05,0.52734375,0,0
4.93675042889663E-06,-1.89062211575219E-05,0.52734375,0,0
4.02099158236524E-06,-1.79451744770631E-05,0.52734375,0,0
2.95968652608281E-06,-1.55200141307432E-05,0.52734375,0,0
3.46699403053208E-06,-1.49119459820213E-05,0.52734375,0,0
5.5956970754778E-06,-1.65087785717333E-05,0.52734375,0,0
7.71775648900075E-06,-1.88834965229034E-05,0.52734375,0,0
7.54036227590404E-06,-2.00500489881961E-05,0.52734375,0,0
4.87751776745426E-06,-2.28698099817848E-05,0.52734375,0,0
2.86457134279772E-06,-2.24352988880128E-05,0.52734375,0,0
3.92590800402104E-06,-3.3667227398837E-05,0.52734375,0,0
3.67277084478701E-06,-2.76769351330586E-05,0.52734375,0,0
5.67986080568517E-06,-3.26107547152787E-05,0.52734375,0,0
6.13552901995718E-06,-2.5921210180968E-05,0.52734375,0,0
7.98061864770716E-06,-2.72912366199307E-05,0.52734375,0,0
8.60106683830963E-06,-2.24628893192858E-05,0.52734375,0,0
9.05454271560302E-06,-2.08182682399638E-05,0.52734375,0,0
9.34951276576612E-06,-1.84215205081273E-05,0.52734375,0,0
9.83615791483317E-06,-1.67285361385439E-05,0.52734375,0,0
9.86640316114062E-06,-1.53215823956998E-05,0.52734375,0,0
8.02573777036741E-06,-1.4006493074703E-05,0.52734375,0,0
6.22165725872037E-06,-1.5423358490807E-05,0.52734375,0,0
5.42310363016441E-06,-1.47048458529753E-05,0.52734375,0,0
5.09215260535711E-06,-1.59986338985618E-05,0.52734375,0,0
4.92636627313914E-06,-1.47680484587909E-05,0.52734375,0,0
5.80883897782769E-06,-1.47589926200453E-05,0.52734375,0,0
5.46887895325199E-06,-1.11374038169743E-05,0.52734375,0,0
3.96778477806947E-06,-9.25119911698857E-06,0.52734375,0,0
2.87584248326311E-06,-6.88687259753351E-06,0.52734375,0,0
3.02661828754935E-06,-8.76294416229939E-06,0.52734375,0,0
3.16440764436265E-06,-1.06633206087281E-05,0.52734375,0,0
3.54994176632317E-06,-1.23851050375379E-05,0.52734375,0,0
2.49940899266221E-06,-1.13202559077763E-05,0.52734375,0,0
1.45749345392687E-06,-1.0244741133647E-05,0.52734375,0,0
1.98874295165297E-06,-9.41327743930742E-06,0.52734375,0,0
3.66506469617889E-06,-1.02333015092881E-05,0.52734375,0,0
4.49613935415982E-06,-1.06672778201755E-05,0.52734375,0,0
7.03951218383736E-06,-1.62281539815012E-05,0.52734375,0,0
6.7118589868187E-06,-1.40312140501919E-05,0.52734375,0,0
8.36553044791799E-06,-1.82080511876848E-05,0.52734375,0,0
8.19830529508181E-06,-1.79380058398237E-05,0.52734375,0,0
8.60263025970198E-06,-1.83996598934755E-05,0.52734375,0,0
6.48267678116099E-06,-1.44584400914027E-05,0.52734375,0,0
6.00632893110742E-06,-1.31091237562941E-05,0.52734375,0,0
5.35781191501883E-06,-1.38420155053609E-05,0.52734375,0,0
5.5404211707355E-06,-1.47613927765633E-05,0.52734375,0,0
5.97000416746596E-06,-1.54056724568363E-05,0.52734375,0,0
4.53928532806458E-06,-1.68197584571317E-05,0.52734375,0,0
3.00737042380206E-06,-1.99259393411921E-05,0.52734375,0,0
2.43784916165168E-06,-2.08845594897866E-05,0.52734375,0,0
3.57296175934607E-06,-2.09605932468548E-05,0.52734375,0,0
4.50008064944996E-06,-1.94310377992224E-05,0.52734375,0,0
5.16462614541524E-06,-1.91183880815515E-05,0.52734375,0,0
4.45131308879354E-06,-1.70842085935874E-05,0.52734375,0,0
4.22723451265483E-06,-1.46889187817578E-05,0.52734375,0,0
3.53488735527208E-06,-1.26799668578315E-05,0.52734375,0,0
3.04766899716924E-06,-1.39165604196023E-05,0.52734375,0,0
3.1181441499939E-06,-1.45973554026568E-05,0.52734375,0,0
4.32922206528019E-06,-1.39104031404713E-05,0.52734375,0,0
4.17601359004038E-06,-1.24095658975421E-05,0.52734375,0,0
2.64263621829741E-06,-1.32724744617008E-05,0.52734375,0,0
1.52613438331173E-06,-1.54394274431979E-05,0.52734375,0,0
1.93222240341129E-06,-1.76576686499175E-05,0.52734375,0,0
2.87395209852548E-06,-1.53729197336361E-05,0.52734375,0,0
4.57369924333761E-06,-1.99052101379493E-05,0.52734375,0,0
5.01654994877754E-06,-1.21489083539927E-05,0.52734375,0,0
5.4057854868006E-06,-1.56892274389975E-05,0.52734375,0,0
2.40527901951282E-06,-1.24954976854497E-05,0.52734375,0,0
1.28337512705912E-06,-1.58197799464688E-05,0.52734375,0,0
1.97116023059607E-07,-1.53753207996488E-05,0.52734375,0,0
-4.11172891290335E-07,-1.66327936312882E-05,0.52734375,0,0
-5.80687924411905E-07,-1.61581447173376E-05,0.52734375,0,0
6.62622596792062E-07,-1.68606911756797E-05,0.52734375,0,0
2.31994704336103E-06,-1.86450415640138E-05,0.52734375,0,0
1.77685342350742E-06,-2.02282772079343E-05,0.52734375,0,0
3.28049566178379E-07,-2.29742236115271E-05,0.52734375,0,0
-6.8575292289097E-07,-2.32807997235795E-05,0.52734375,0,0
-4.21978427311842E-07,-2.45747996814316E-05,0.52734375,0,0
-5.20186119956634E-07,-2.40733643295243E-05,0.52734375,0,0
1.18836013029977E-07,-2.48057694989257E-05,0.52734375,0,0
1.0267744983139E-06,-2.26267638936406E-05,0.52734375,0,0
2.20050651478232E-06,-2.1692916561733E-05,0.52734375,0,0
2.9051523142698E-06,-1.96538658201462E-05,0.52734375,0,0
2.97211181532475E-06,-1.9060567865381E-05,0.52734375,0,0
2.22425160245621E-06,-1.91303661267739E-05,0.52734375,0,0
1.85171597877343E-06,-2.18298573599895E-05,0.52734375,0,0
2.27667942453991E-06,-2.30169844144257E-05,0.52734375,0,0
2.91397304863494E-06,-2.30947862291941E-05,0.52734375,0,0
3.1667034363636E-06,-2.29458710236941E-05,0.52734375,0,0
3.79089851776371E-06,-2.30000914598349E-05,0.52734375,0,0
2.5888955406117E-06,-1.78353220690042E-05,0.52734375,0,0
1.17598756332882E-06,-2.45620831265114E-05,0.52734375,0,0
-1.70768419138767E-06,-1.7668529835646E-05,0.52734375,0,0
4.78741029041885E-08,-2.16687003558036E-05,0.52734375,0,0
-3.07465199966828E-07,-1.69350787473377E-05,0.52734375,0,0
-3.24735225376571E-08,-1.89408237929456E-05,0.52734375,0,0
-2.69716394996067E-07,-1.5688161511207E-05,0.52734375,0,0
7.12384121470677E-07,-1.49635770867462E-05,0.52734375,0,0
9.27980693177233E-07,-1.31794049593736E-05,0.52734375,0,0
1.42888325171953E-07,-1.28347364807269E-05,0.52734375,0,0
-6.42256395622098E-07,-1.29103855215362E-05,0.52734375,0,0
-1.16848866582586E-06,-1.18080051834113E-05,0.52734375,0,0
-3.23498682064383E-07,-1.30383441501181E-05,0.52734375,0,0
6.86213184053486E-07,-1.28026558741112E-05,0.52734375,0,0
1.07568962448568E-06,-1.28122255773633E-05,0.52734375,0,0
5.23518167483417E-07,-1.10444498204743E-05,0.52734375,0,0
1.26442535020033E-06,-1.35474119815626E-05,0.52734375,0,0
3.34251308231615E-06,-1.47245309563004E-05,0.52734375,0,0
5.9199055613135E-06,-1.63005151989637E-05,0.52734375,0,0
5.8537548284221E-06,-1.52776374306995E-05,0.52734375,0,0
4.54430028185016E-06,-1.52026186697185E-05,0.52734375,0,0
3.53688596987922E-06,-1.37698689286481E-05,0.52734375,0,0
4.17979981648386E-06,-1.41009186336305E-05,0.52734375,0,0
4.67910149382078E-06,-1.4170111171552E-05,0.52734375,0,0
3.22230766869325E-06,-1.44339410326211E-05,0.52734375,0,0
1.17298827717605E-06,-1.39632675200119E-05,0.52734375,0,0
-7.66542029850825E-07,-1.32728409880656E-05,0.52734375,0,0
-1.75478646724514E-06,-1.21482080430724E-05,0.52734375,0,0
-1.741069468153E-06,-2.03476447495632E-05,0.52734375,0,0
-5.05651541971019E-07,-2.10282978514442E-05,0.52734375,0,0
-3.93780339891237E-07,-2.48084543272853E-05,0.52734375,0,0
1.42465273711423E-06,-1.8381997506367E-05,0.52734375,0,0
1.18053799269546E-06,-1.39144367494737E-05,0.52734375,0,0
9.97902475319279E-07,-9.88246483757393E-06,0.52734375,0,0
1.2124908153055E-06,-1.03791899164207E-05,0.52734375,0,0
1.84367831934651E-06,-9.57623342401348E-06,0.52734375,0,0
2.66472784460348E-06,-9.68570566328708E-06,0.52734375,0,0
4.23283108830219E-06,-1.14881477202289E-05,0.52734375,0,0
5.75323247176129E-06,-1.20329577839584E-05,0.52734375,0,0
6.60860860079993E-06,-1.22159008242306E-05,0.52734375,0,0
7.2104849095922E-06,-1.14292533908156E-05,0.52734375,0,0
6.52577000437304E-06,-1.28098154164036E-05,0.52734375,0,0
5.48043453818536E-06,-1.36391045089113E-05,0.52734375,0,0
4.27478562414763E-06,-1.52550619532121E-05,0.52734375,0,0
3.92820766137447E-06,-1.4601005204895E-05,0.52734375,0,0
3.80057053916971E-06,-1.45466110552661E-05,0.52734375,0,0
3.75014997189282E-06,-1.43508395922254E-05,0.52734375,0,0
3.06274432659848E-06,-1.61180887516821E-05,0.52734375,0,0
2.78398715636285E-06,-1.76034827745752E-05,0.52734375,0,0
3.64617130799161E-06,-1.90214304893743E-05,0.52734375,0,0
4.48348873760551E-06,-1.89993806998245E-05,0.52734375,0,0
3.97710482502589E-06,-1.96026394405635E-05,0.52734375,0,0
4.1649136619526E-06,-2.14131850952981E-05,0.52734375,0,0
3.63601247954648E-06,-2.19694247789448E-05,0.52734375,0,0
2.03658555619768E-06,-1.7287333321292E-05,0.52734375,0,0
4.75032584290602E-06,-2.52376503340201E-05,0.52734375,0,0
7.02854094924987E-06,-1.98080724658212E-05,0.52734375,0,0
7.4575705184543E-06,-2.37707954511279E-05,0.52734375,0,0
5.82377151658875E-06,-1.99028563656611E-05,0.52734375,0,0
6.60323257761775E-06,-2.18075729208067E-05,0.52734375,0,0
6.5617855398159E-06,-1.87617861229228E-05,0.52734375,0,0
6.14644704910461E-06,-1.90949158422882E-05,0.52734375,0,0
5.65543814445846E-06,-1.83211759576807E-05,0.52734375,0,0
5.15991860083886E-06,-1.87533587450162E-05,0.52734375,0,0
4.6149089030223E-06,-1.92269235412823E-05,0.52734375,0,0
3.7616434838128E-06,-1.78464833879843E-05,0.52734375,0,0
3.21994684782112E-06,-1.85237313417019E-05,0.52734375,0,0
3.785059789152E-06,-1.80000733962515E-05,0.52734375,0,0
5.12482938574976E-06,-1.80845399881946E-05,0.52734375,0,0
5.22081836606958E-06,-1.50147798194666E-05,0.52734375,0,0
4.24600693804678E-06,-1.43658362503629E-05,0.52734375,0,0
3.22026812682452E-06,-1.31713013615808E-05,0.52734375,0,0
2.48492392529442E-06,-1.29549580378807E-05,0.52734375,0,0
9.1099803967154E-07,-1.0004823707277E-05,0.52734375,0,0
7.39496215373947E-07,-9.67831874731928E-06,0.52734375,0,0
1.30226828787272E-06,-1.14213562483201E-05,0.52734375,0,0
1.28085798678512E-06,-1.48144563354435E-05,0.52734375,0,0
1.77213041752111E-06,-1.50991945702117E-05,0.52734375,0,0
3.05533490063681E-06,-1.41276386784739E-05,0.52734375,0,0
3.25693008562666E-06,-1.41972668643575E-05,0.52734375,0,0
2.53940106631489E-06,-1.54771187226288E-05,0.52734375,0,0
6.72178771310428E-07,-1.55489051394397E-05,0.52734375,0,0
5.83175904012023E-07,-2.63715501205297E-05,0.52734375,0,0
1.5456537312275E-06,-2.61781951849116E-05,0.52734375,0,0
3.16228738483915E-06,-3.0613813578384E-05,0.52734375,0,0
2.01045418180001E-06,-2.59662465396104E-05,0.52734375,0,0
8.72313876243425E-07,-2.42704882111866E-05,0.52734375,0,0
5.13445456817863E-07,-1.99212499865098E-05,0.52734375,0,0
2.18838863474957E-06,-1.84493928827578E-05,0.52734375,0,0
2.98536906484514E-06,-1.68059686984634E-05,0.52734375,0,0
3.89623983210186E-06,-1.7689462765702E-05,0.52734375,0,0
5.58030524189235E-06,-1.9265655282652E-05,0.52734375,0,0
6.31424563835026E-06,-1.94661679415731E-05,0.52734375,0,0
5.92434616919491E-06,-1.99728874576977E-05,0.52734375,0,0
3.56036935045267E-06,-1.94680505956057E-05,0.52734375,0,0
1.11331723928743E-06,-1.99494552362012E-05,0.52734375,0,0
8.09893037967413E-07,-1.77802230609814E-05,0.52734375,0,0
2.79938444691652E-06,-1.7750971892383E-05,0.52734375,0,0
4.13122688769363E-06,-1.72738418768859E-05,0.52734375,0,0
4.69611541120685E-06,-1.84756099770311E-05,0.52734375,0,0
4.30879754276248E-06,-1.72508625837509E-05,0.52734375,0,0
4.06259005103493E-06,-1.54702702275245E-05,0.52734375,0,0
4.92840899823932E-06,-1.42493181556347E-05,0.52734375,0,0
5.6861881603254E-06,-1.54612589540193E-05,0.52734375,0,0
5.66480912311818E-06,-1.51558497236692E-05,0.52734375,0,0
5.19414788868744E-06,-1.44400519275223E-05,0.52734375,0,0
4.41017982666381E-06,-1.48154076669016E-05,0.52734375,0,0
1.94569406630762E-06,-1.56025507749291E-05,0.52734375,0,0
-6.7319359686735E-07,-1.32209579533082E-05,0.52734375,0,0
-5.30161194944867E-08,-1.98082652786979E-05,0.52734375,0,0
1.23578081456799E-06,-1.61009156727232E-05,0.52734375,0,0
1.19233391160378E-06,-1.82760577445151E-05,0.52734375,0,0
1.66985773830675E-06,-1.37196311698062E-05,0.52734375,0,0
1.64598657192983E-06,-1.39190506160958E-05,0.52734375,0,0
1.4818164117969E-06,-1.29597920022206E-05,0.52734375,0,0
6.0684919844789E-07,-1.45304984471295E-05,0.52734375,0,0
-1.82423931960329E-07,-1.34272795548895E-05,0.52734375,0,0
8.81795983787015E-07,-1.25820506582386E-05,0.52734375,0,0
3.26927761307161E-06,-1.1873534276674E-05,0.52734375,0,0
5.13957502334961E-06,-1.00211736935307E-05,0.52734375,0,0
4.84674910694594E-06,-9.365200639877E-06,0.52734375,0,0
3.53399627783801E-06,-9.84332200459903E-06,0.52734375,0,0
3.19735954690259E-06,-1.30193611767027E-05,0.52734375,0,0
3.53668610841851E-06,-1.38646628329298E-05,0.52734375,0,0
3.56535406353942E-06,-1.54865174408769E-05,0.52734375,0,0
3.75197919311177E-06,-1.55798206833424E-05,0.52734375,0,0
3.83932683689636E-06,-1.60919880727306E-05,0.52734375,0,0
3.63782351087139E-06,-1.5118970623007E-05,0.52734375,0,0
2.74503281616489E-06,-1.59939081640914E-05,0.52734375,0,0
2.01283364731353E-06,-1.64695957209915E-05,0.52734375,0,0
1.94118365470786E-06,-1.75281365955016E-05,0.52734375,0,0
2.52157974500733E-06,-1.88516423804685E-05,0.52734375,0,0
3.21996958518866E-06,-2.07121320272563E-05,0.52734375,0,0
3.73515490537102E-06,-2.1341844330891E-05,0.52734375,0,0
3.21599463859457E-06,-2.27550590352621E-05,0.52734375,0,0
2.04121192837192E-06,-1.89147212950047E-05,0.52734375,0,0
4.48280661657918E-06,-2.67775631073164E-05,0.52734375,0,0
3.48741173183953E-06,-1.97931040020194E-05,0.52734375,0,0
2.07468065127614E-06,-2.42602363869082E-05,0.52734375,0,0
2.74128251476213E-06,-1.96424625755753E-05,0.52734375,0,0
4.01894840251771E-06,-2.16078260564245E-05,0.52734375,0,0
4.15822069044225E-06,-2.00902577489614E-05,0.52734375,0,0
3.10893233290699E-06,-2.20391466427827E-05,0.52734375,0,0
1.16149760742701E-06,-2.09855843422702E-05,0.52734375,0,0
7.81208257194521E-07,-1.92572970263427E-05,0.52734375,0,0
1.80354595613608E-06,-1.74417891685152E-05,0.52734375,0,0
3.01760837828624E-06,-1.52711763803381E-05,0.52734375,0,0
3.38200970873004E-06,-1.53654618770815E-05,0.52734375,0,0
3.31767751049483E-06,-1.47404662129702E-05,0.52734375,0,0
3.79941684514051E-06,-1.63072636496508E-05,0.52734375,0,0
4.77387129649287E-06,-1.5718627764727E-05,0.52734375,0,0
6.73128170092241E-06,-1.69918330357177E-05,0.52734375,0,0
8.40231950860471E-06,-1.58479397214251E-05,0.52734375,0,0
8.08346521807835E-06,-1.62771702889586E-05,0.52734375,0,0
6.74852435622597E-06,-1.613300810277E-05,0.52734375,0,0
5.9265230447636E-06,-1.81875402631704E-05,0.52734375,0,0
4.79081563753425E-06,-1.86990146175958E-05,0.52734375,0,0
4.62932166556129E-06,-1.95661377802026E-05,0.52734375,0,0
5.9487374528544E-06,-1.83155771082966E-05,0.52734375,0,0
8.33697959023993E-06,-1.65755700436421E-05,0.52734375,0,0
1.08167114376556E-05,-1.43309971463168E-05,0.52734375,0,0
9.80226286628749E-06,-1.16440533020068E-05,0.52734375,0,0
4.47522552349255E-06,-6.98443818691885E-06,0.52734375,0,0
5.35360231879167E-06,-9.82992514764192E-06,0.52734375,0,0
4.45822115580086E-06,-8.31829220260261E-06,0.52734375,0,0
6.82149538988597E-06,-1.09460161183961E-05,0.52734375,0,0
4.60151522929664E-06,-1.12790712591959E-05,0.52734375,0,0
3.9818046388973E-06,-1.490310569352E-05,0.52734375,0,0
2.74765511676378E-06,-1.55198686115909E-05,0.52734375,0,0
5.26839039594051E-06,-1.60909639816964E-05,0.52734375,0,0
7.40922814657097E-06,-1.61711159307742E-05,0.52734375,0,0
8.04725095804315E-06,-1.7471411410952E-05,0.52734375,0,0
7.76034357841127E-06,-1.8060525690089E-05,0.52734375,0,0
7.45237275623367E-06,-1.82778621820034E-05,0.52734375,0,0
7.68727386457613E-06,-2.00275262614014E-05,0.52734375,0,0
6.97221094014822E-06,-2.02820938284276E-05,0.52734375,0,0
6.39743393548997E-06,-1.95527190953726E-05,0.52734375,0,0
4.99812858834048E-06,-1.76904486579588E-05,0.52734375,0,0
4.30205000157002E-06,-1.87253790500108E-05,0.52734375,0,0
4.08129608331365E-06,-1.9873534256476E-05,0.52734375,0,0
5.8796126722882E-06,-2.08666479011299E-05,0.52734375,0,0
7.3052601692325E-06,-2.02968349185539E-05,0.52734375,0,0
7.98960536485538E-06,-2.0147568648099E-05,0.52734375,0,0
6.81763640386635E-06,-1.9478842659737E-05,0.52734375,0,0
5.79094921704382E-06,-1.89643906196579E-05,0.52734375,0,0
4.19765865444788E-06,-1.83498032129137E-05,0.52734375,0,0
2.5840447506198E-06,-1.85610406333581E-05,0.52734375,0,0
2.57330657404964E-06,-1.86014131031698E-05,0.52734375,0,0
4.10164329878171E-06,-1.71502888406394E-05,0.52734375,0,0
4.23398068960523E-06,-1.22422452477622E-05,0.52734375,0,0
6.37940547676408E-06,-1.70339026226429E-05,0.52734375,0,0
4.27325448981719E-06,-1.33214862216846E-05,0.52734375,0,0
3.83429096473265E-06,-1.71503361343639E-05,0.52734375,0,0
3.07647269437439E-06,-1.3972242413729E-05,0.52734375,0,0
3.13588429889933E-06,-1.52638676809147E-05,0.52734375,0,0
2.24287327910133E-06,-1.45570102176862E-05,0.52734375,0,0
2.69644920081191E-06,-1.67424750543432E-05,0.52734375,0,0
1.64928110280016E-06,-1.63615204655798E-05,0.52734375,0,0
-4.14799288250833E-08,-1.60516574396752E-05,0.52734375,0,0
-1.27875398447941E-06,-1.54086992552038E-05,0.52734375,0,0
-1.31254716961848E-06,-1.35192822199315E-05,0.52734375,0,0
-3.93370214624156E-07,-1.45215408338117E-05,0.52734375,0,0
4.20154066205214E-07,-1.77713900484378E-05,0.52734375,0,0
1.50710707202961E-06,-2.28000171773601E-05,0.52734375,0,0
1.63345634973666E-06,-2.42567712120945E-05,0.52734375,0,0
1.28087822304224E-06,-2.52944155363366E-05,0.52734375,0,0
6.05132072450942E-07,-2.37633212236688E-05,0.52734375,0,0
1.02914407307253E-06,-2.33542232308537E-05,0.52734375,0,0
1.18125944936764E-06,-2.28849276027177E-05,0.52734375,0,0
2.15966770156228E-06,-2.43448721448658E-05,0.52734375,0,0
3.47546028933721E-06,-2.4675346139702E-05,0.52734375,0,0
3.99070495404885E-06,-2.2630962121184E-05,0.52734375,0,0
3.42611656378722E-06,-1.53580149344634E-05,0.52734375,0,0
3.65570235771884E-06,-8.8478509496781E-06,0.52734375,0,0
4.0925592657004E-06,-6.80649463902228E-06,0.52734375,0,0
4.86104136143695E-06,-8.99291899258969E-06,0.52734375,0,0
2.86431077256566E-06,-1.14599342850852E-05,0.52734375,0,0
1.69168197317049E-06,-1.88594240171369E-05,0.52734375,0,0
-1.85204919489479E-06,-1.68665392266121E-05,0.52734375,0,0
-8.6624203277097E-07,-1.95752982108388E-05,0.52734375,0,0
-9.67300252341374E-07,-1.81368013727479E-05,0.52734375,0,0
4.07176571570744E-07,-1.72768413904123E-05,0.52734375,0,0
6.44194130927644E-07,-1.35957243401208E-05,0.52734375,0,0
5.82910956836713E-07,-1.51894773807726E-05,0.52734375,0,0
1.37852653736559E-08,-1.68744518305175E-05,0.52734375,0,0
-7.48577349440893E-07,-1.61086063599214E-05,0.52734375,0,0
-1.40947418003634E-06,-1.38801724460791E-05,0.52734375,0,0
-1.25707526876795E-06,-1.22209448818467E-05,0.52734375,0,0
5.61398167064908E-07,-1.24186653920333E-05,0.52734375,0,0
2.73788919002982E-06,-1.08269032352837E-05,0.52734375,0,0
5.06254446008825E-06,-9.44839212024817E-06,0.52734375,0,0
5.83756855121464E-06,-8.81171854416607E-06,0.52734375,0,0
4.85059081256622E-06,-1.17438112283708E-05,0.52734375,0,0
2.81179768535367E-06,-1.32808081616531E-05,0.52734375,0,0
2.58685895460076E-06,-1.3874460819352E-05,0.52734375,0,0
3.04288050756441E-06,-1.37206670842716E-05,0.52734375,0,0
3.99036707676714E-06,-1.57060330820968E-05,0.52734375,0,0
5.67097868042765E-06,-1.75951499841176E-05,0.52734375,0,0
7.23588664186536E-06,-1.90511891560163E-05,0.52734375,0,0
5.72996259506908E-06,-1.81107552634785E-05,0.52734375,0,0
3.82285725208931E-06,-1.7301721527474E-05,0.52734375,0,0
4.47888623966719E-06,-1.72536783793475E-05,0.52734375,0,0
6.20725222688634E-06,-1.8630375052453E-05,0.52734375,0,0
4.48277705800137E-06,-1.75526984094176E-05,0.52734375,0,0
5.60857824893901E-06,-2.81303546216805E-05,0.52734375,0,0
4.46858621216961E-06,-2.6126816010219E-05,0.52734375,0,0
6.91151990395156E-06,-3.11821859213524E-05,0.52734375,0,0
5.0770659072441E-06,-2.57269712164998E-05,0.52734375,0,0
4.87824445372098E-06,-2.49147578870179E-05,0.52734375,0,0
3.72539716408937E-06,-2.09378540603211E-05,0.52734375,0,0
3.46123260897002E-06,-2.17061315197498E-05,0.52734375,0,0
3.43761757903849E-06,-2.12114537134767E-05,0.52734375,0,0
3.33591879098094E-06,-1.94710009964183E-05,0.52734375,0,0
1.92034804058494E-06,-1.80306396941887E-05,0.52734375,0,0
-2.4828355549289E-07,-1.69808026839746E-05,0.52734375,0,0
-9.90274770629185E-07,-1.73609714693157E-05,0.52734375,0,0
-4.96172731345723E-07,-1.61994812515331E-05,0.52734375,0,0
1.21399159525026E-06,-1.90262671821984E-05,0.52734375,0,0
1.91423850992578E-06,-2.20654546865262E-05,0.52734375,0,0
1.88477201845672E-06,-2.39824839809444E-05,0.52734375,0,0
2.10217137919244E-07,-1.99887363123707E-05,0.52734375,0,0
-9.57695533543301E-07,-1.5438634363818E-05,0.52734375,0,0
-1.55291024839244E-06,-1.03810680229799E-05,0.52734375,0,0
-1.02853960015636E-06,-9.59299359237775E-06,0.52734375,0,0
-8.73821647928708E-07,-9.99523945210967E-06,0.52734375,0,0
-5.67408505958156E-07,-1.28983838294516E-05,0.52734375,0,0
-1.11673421088199E-06,-1.52438960867585E-05,0.52734375,0,0
-1.10739870251564E-06,-1.57965514517855E-05,0.52734375,0,0
1.92785396535555E-08,-1.46549218698055E-05,0.52734375,0,0
2.78660053254498E-07,-1.37832212203648E-05,0.52734375,0,0
9.74151930677181E-07,-1.13192763819825E-05,0.52734375,0,0
2.38410189012939E-06,-1.63053155119997E-05,0.52734375,0,0
2.45605269810767E-06,-1.28957917695516E-05,0.52734375,0,0
1.78579989551508E-06,-1.62597934831865E-05,0.52734375,0,0
1.67015946317406E-06,-1.47835835377919E-05,0.52734375,0,0
1.12413238184672E-06,-1.71086594491499E-05,0.52734375,0,0
5.5619523209316E-07,-1.49282914208015E-05,0.52734375,0,0
2.25422439825707E-07,-1.36630305860308E-05,0.52734375,0,0
1.46644367760018E-07,-1.20997501653619E-05,0.52734375,0,0
1.47522405313794E-06,-1.10883456727606E-05,0.52734375,0,0
3.51406947629584E-06,-1.10880755528342E-05,0.52734375,0,0
3.73509783457848E-06,-1.06743618744076E-05,0.52734375,0,0
1.99435953618377E-06,-1.20190716188517E-05,0.52734375,0,0
1.44194882523152E-06,-1.3525029316952E-05,0.52734375,0,0
2.65843846136704E-06,-1.59410792548442E-05,0.52734375,0,0
3.71804935639375E-06,-1.62283231475158E-05,0.52734375,0,0
3.55506335836253E-06,-1.74317210621666E-05,0.52734375,0,0
2.41972634285048E-06,-1.75046534423018E-05,0.52734375,0,0
1.28543513255863E-06,-1.84744076250354E-05,0.52734375,0,0
8.49353455123492E-07,-1.81687410076847E-05,0.52734375,0,0
1.16078035716782E-06,-1.82123676495394E-05,0.52734375,0,0
1.57088732066768E-06,-1.87705536518479E-05,0.52734375,0,0
1.69325687693345E-06,-1.89876918739174E-05,0.52734375,0,0
2.19641037801921E-06,-1.61018469952978E-05,0.52734375,0,0
3.5338371162652E-06,-1.37444121719454E-05,0.52734375,0,0
4.20670539824641E-06,-1.27472949316143E-05,0.52734375,0,0
3.14561793857138E-06,-1.30309390442562E-05,0.52734375,0,0
1.36766152536438E-06,-1.11769613795332E-05,0.52734375,0,0
2.58699787991645E-06,-1.69081504282076E-05,0.52734375,0,0
2.81393454315548E-06,-1.43914803629741E-05,0.52734375,0,0
3.14630824505002E-06,-1.82242802111432E-05,0.52734375,0,0
2.81133225144004E-06,-1.71769661392318E-05,0.52734375,0,0
4.12850022257771E-06,-1.86272955033928E-05,0.52734375,0,0
5.3596954785462E-06,-1.77353977051098E-05,0.52734375,0,0
4.48141690867487E-06,-1.8390890545561E-05,0.52734375,0,0
3.22043342748657E-06,-1.70156454259995E-05,0.52734375,0,0
3.12042493533227E-06,-1.77866077137878E-05,0.52734375,0,0
3.81649897462921E-06,-1.89784259418957E-05,0.52734375,0,0
4.83732674183557E-06,-1.84139607881662E-05,0.52734375,0,0
5.86941678193398E-06,-1.76488720171619E-05,0.52734375,0,0
5.62006880500121E-06,-1.48552271639346E-05,0.52734375,0,0
3.98420434066793E-06,-1.34701022034278E-05,0.52734375,0,0
2.84611314782524E-06,-1.23643803817686E-05,0.52734375,0,0
4.08494815928862E-06,-1.3632896298077E-05,0.52734375,0,0
6.03793796472019E-06,-1.43524994200561E-05,0.52734375,0,0
7.16380873200251E-06,-1.73952557815937E-05,0.52734375,0,0
7.29189059711643E-06,-1.98380967049161E-05,0.52734375,0,0
6.50593847240089E-06,-2.07829543796834E-05,0.52734375,0,0
6.04251317781745E-06,-1.86206962098368E-05,0.52734375,0,0
6.90524575475138E-06,-1.71031133504584E-05,0.52734375,0,0
7.64203559810994E-06,-1.64284920174396E-05,0.52734375,0,0
7.2842058216338E-06,-1.61051884788321E-05,0.52734375,0,0
6.93983247401775E-06,-1.6022551790229E-05,0.52734375,0,0
6.09218341196538E-06,-1.85379431059118E-05,0.52734375,0,0
3.53454561263788E-06,-1.79661401489284E-05,0.52734375,0,0
4.51122377853608E-06,-2.62053181359079E-05,0.52734375,0,0
2.68540156866948E-06,-1.96612163563259E-05,0.52734375,0,0
2.64258301285736E-06,-2.25152343773516E-05,0.52734375,0,0
1.61190166636516E-06,-1.86690249392996E-05,0.52734375,0,0
3.67074130736E-06,-2.16829812416108E-05,0.52734375,0,0
4.063628239237E-06,-1.97000663320068E-05,0.52734375,0,0
3.34080959873972E-06,-2.13079783861758E-05,0.52734375,0,0
1.50716118696437E-06,-2.22032795136329E-05,0.52734375,0,0
3.65573384897289E-07,-2.36953364947112E-05,0.52734375,0,0
-3.3806057331276E-07,-2.44077837123768E-05,0.52734375,0,0
-7.17879345302208E-07,-2.36435007536784E-05,0.52734375,0,0
-1.06552079159883E-06,-2.44333659793483E-05,0.52734375,0,0
-1.82212238541979E-06,-2.31038702622755E-05,0.52734375,0,0
-1.76494631887181E-06,-2.33671416935977E-05,0.52734375,0,0
-1.87056605227554E-06,-2.16830503632082E-05,0.52734375,0,0
-1.48740627992083E-06,-2.07239008886972E-05,0.52734375,0,0
-1.23647237160185E-06,-1.74450888152933E-05,0.52734375,0,0
-3.9439589727408E-07,-1.77123147295788E-05,0.52734375,0,0
8.24707740321173E-07,-1.71428400790319E-05,0.52734375,0,0
3.46339970747067E-06,-1.72815380210523E-05,0.52734375,0,0
4.70390750706429E-06,-1.68083024618682E-05,0.52734375,0,0
4.75389742859988E-06,-1.78542704816209E-05,0.52734375,0,0
5.06637115904596E-06,-1.81288723979378E-05,0.52734375,0,0
5.56898476133938E-06,-1.8250468201586E-05,0.52734375,0,0
4.93490688313614E-06,-1.66325153259095E-05,0.52734375,0,0
5.24832921655616E-06,-1.38850600706064E-05,0.52734375,0,0
5.31403611603309E-06,-1.03780530480435E-05,0.52734375,0,0
8.46294642542489E-06,-1.53336895891698E-05,0.52734375,0,0
7.85231713962276E-06,-1.18142379506025E-05,0.52734375,0,0
9.57803422352299E-06,-1.37420229293639E-05,0.52734375,0,0
8.64757021190599E-06,-1.17849203888909E-05,0.52734375,0,0
8.46655166242272E-06,-1.34871934278635E-05,0.52734375,0,0
6.88330374032375E-06,-1.39420008054003E-05,0.52734375,0,0
6.81102847011061E-06,-1.54406570800347E-05,0.52734375,0,0
7.04921922078938E-06,-1.41920772875892E-05,0.52734375,0,0
8.33815738587873E-06,-1.38755594889517E-05,0.52734375,0,0
8.69642644829582E-06,-1.57424201461254E-05,0.52734375,0,0
7.23101675248472E-06,-1.65340661624214E-05,0.52734375,0,0
5.85971247346606E-06,-1.60724157467484E-05,0.52734375,0,0
4.50881088909227E-06,-1.39855774250464E-05,0.52734375,0,0
3.29306271851237E-06,-1.30113012346555E-05,0.52734375,0,0
1.59696435275691E-06,-1.17959452836658E-05,0.52734375,0,0
1.76874732460419E-06,-1.28111696540145E-05,0.52734375,0,0
2.91739183921891E-06,-1.28463489090791E-05,0.52734375,0,0
4.63737569589284E-06,-1.29766649479279E-05,0.52734375,0,0
4.75040360470302E-06,-1.25747783386032E-05,0.52734375,0,0
5.43586884305114E-06,-1.33230041683419E-05,0.52734375,0,0
6.03094986217911E-06,-1.2040623005305E-05,0.52734375,0,0
5.90681020185002E-06,-1.07164869405096E-05,0.52734375,0,0
5.16245972903562E-06,-1.20248214443563E-05,0.52734375,0,0
5.06783135278965E-06,-1.60489562404109E-05,0.52734375,0,0
4.97797191201244E-06,-1.98514826479368E-05,0.52734375,0,0
4.47508909928729E-06,-2.36245523410616E-05,0.52734375,0,0
2.45740943682904E-06,-2.20404708670685E-05,0.52734375,0,0
2.55628856393741E-06,-3.22837004205212E-05,0.52734375,0,0
1.57790157118143E-06,-2.35722327488475E-05,0.52734375,0,0
3.11326357405051E-06,-2.56748935498763E-05,0.52734375,0,0
3.52523738911259E-06,-1.84976997843478E-05,0.52734375,0,0
4.95571111969184E-06,-1.86861125257565E-05,0.52734375,0,0
4.81381584904739E-06,-1.53215223690495E-05,0.52734375,0,0
5.24206097907154E-06,-1.77918245753972E-05,0.52734375,0,0
4.39678160546464E-06,-1.82927287823986E-05,0.52734375,0,0
3.24074312629818E-06,-1.93161158676958E-05,0.52734375,0,0
2.90731782115472E-06,-1.99686019186629E-05,0.52734375,0,0
2.94058850158763E-06,-1.9014789359062E-05,0.52734375,0,0
3.28208056998847E-06,-1.87632213055622E-05,0.52734375,0,0
2.80607287095336E-06,-1.62705673574237E-05,0.52734375,0,0
2.29856118494354E-06,-1.56900296133244E-05,0.52734375,0,0
8.63428908814967E-07,-1.29711152112577E-05,0.52734375,0,0
-7.89918829013914E-07,-1.3879126527172E-05,0.52734375,0,0
-1.67363668879261E-06,-1.31991937450948E-05,0.52734375,0,0
5.56258505923779E-09,-1.413865993527E-05,0.52734375,0,0
1.07441132968233E-06,-1.29288937387173E-05,0.52734375,0,0
9.66751827036205E-07,-1.4165966604196E-05,0.52734375,0,0
4.38939792957171E-07,-1.41786467793281E-05,0.52734375,0,0
3.58537477040954E-07,-1.39720877996297E-05,0.52734375,0,0
1.30541150156205E-06,-1.28189003589796E-05,0.52734375,0,0
3.35327672473795E-06,-1.20768472697819E-05,0.52734375,0,0
3.96999985241564E-06,-9.62229023571126E-06,0.52734375,0,0
3.61850970875821E-06,-8.87341138877673E-06,0.52734375,0,0
4.08605319535127E-06,-7.81367361923913E-06,0.52734375,0,0
6.46018179395469E-06,-1.07131600088906E-05,0.52734375,0,0
4.24381914854166E-06,-7.06653418092174E-06,0.52734375,0,0
2.97545602734317E-06,-9.5755776783335E-06,0.52734375,0,0
2.27152281695453E-06,-1.09587126644328E-05,0.52734375,0,0
4.19564639742021E-06,-1.39008116093464E-05,0.52734375,0,0
4.57578335044673E-06,-1.32947170641273E-05,0.52734375,0,0
5.15856299898587E-06,-1.22952151286881E-05,0.52734375,0,0
5.57422481506364E-06,-1.15106104203733E-05,0.52734375,0,0
5.79234438191634E-06,-1.21133862194256E-05,0.52734375,0,0
5.55704991711536E-06,-1.30510670715012E-05,0.52734375,0,0
4.74399212180288E-06,-1.36052740344894E-05,0.52734375,0,0
4.03356352762785E-06,-1.54371173266554E-05,0.52734375,0,0
3.11423241328157E-06,-1.68198857863899E-05,0.52734375,0,0
2.36156211030902E-06,-1.73859152710065E-05,0.52734375,0,0
1.99567352865415E-06,-1.59513783728471E-05,0.52734375,0,0
2.9773418646073E-06,-1.64431330631487E-05,0.52734375,0,0
4.11980181524996E-06,-1.76682151504792E-05,0.52734375,0,0
5.3596418183588E-06,-1.94675067177741E-05,0.52734375,0,0
4.21914501202991E-06,-1.92232037079521E-05,0.52734375,0,0
1.84523969437578E-06,-1.80273254954955E-05,0.52734375,0,0
2.2888043815783E-07,-1.60247145686299E-05,0.52734375,0,0
5.41708061518875E-07,-1.57652575580869E-05,0.52734375,0,0
9.96935114017106E-07,-1.81447430804838E-05,0.52734375,0,0
1.1436975455581E-06,-2.0400697394507E-05,0.52734375,0,0
9.03976228983083E-07,-2.0886003767373E-05,0.52734375,0,0
9.31351110011747E-07,-2.11857914109714E-05,0.52734375,0,0
9.57082647801144E-07,-1.65948622452561E-05,0.52734375,0,0
1.61363993811392E-06,-2.32300262723584E-05,0.52734375,0,0
1.41798250297143E-06,-1.79114249476697E-05,0.52734375,0,0
3.03893784803222E-06,-2.24746218009386E-05,0.52734375,0,0
3.46455703947868E-06,-1.84872060344787E-05,0.52734375,0,0
2.0152940578555E-06,-2.07432003662689E-05,0.52734375,0,0
1.15036255010637E-06,-1.75303102878388E-05,0.52734375,0,0
1.78895720637229E-06,-1.74291781149805E-05,0.52734375,0,0
4.39836776422453E-06,-1.69431768881623E-05,0.52734375,0,0
6.12417170486879E-06,-1.69737213582266E-05,0.52734375,0,0
5.77339187657344E-06,-1.67072539625224E-05,0.52734375,0,0
4.11201972383424E-06,-1.55616544361692E-05,0.52734375,0,0
2.88028036266041E-06,-1.62845390150324E-05,0.52734375,0,0
2.81105303656659E-06,-1.72119252965786E-05,0.52734375,0,0
2.70587111117493E-06,-1.96071996469982E-05,0.52734375,0,0
1.70394184806355E-06,-1.79217695404077E-05,0.52734375,0,0
1.66172230819939E-06,-1.72245236171875E-05,0.52734375,0,0
4.10157599617378E-06,-1.51321228258894E-05,0.52734375,0,0
6.61610692986869E-06,-1.58253587869694E-05,0.52734375,0,0
6.06985940976301E-06,-1.59733390319161E-05,0.52734375,0,0
3.49143442690547E-06,-1.79408270923886E-05,0.52734375,0,0
1.54733038471022E-06,-1.78422069438966E-05,0.52734375,0,0
3.47668816402802E-07,-1.71641349879792E-05,0.52734375,0,0
1.0003883517129E-06,-1.62907854246441E-05,0.52734375,0,0
2.26383326662472E-06,-1.75383956957376E-05,0.52734375,0,0
3.31713863488403E-06,-1.77047004399356E-05,0.52734375,0,0
3.09568599732302E-06,-1.72272557392716E-05,0.52734375,0,0
5.41347503713041E-07,-1.38985669764224E-05,0.52734375,0,0
1.21173670208918E-07,-2.0648367353715E-05,0.52734375,0,0
6.42257646177313E-07,-1.68958849826595E-05,0.52734375,0,0
1.74352339854522E-06,-1.93050109373871E-05,0.52734375,0,0
3.65086208375942E-07,-1.54780154844048E-05,0.52734375,0,0
-2.51823166763643E-07,-1.84071068360936E-05,0.52734375,0,0
-3.84159086763702E-08,-1.73764183273306E-05,0.52734375,0,0
7.4069163247259E-07,-1.75225468410645E-05,0.52734375,0,0
4.21121313820549E-07,-1.72310774360085E-05,0.52734375,0,0
2.36204670045481E-07,-1.77898291440215E-05,0.52734375,0,0
8.05162130745885E-07,-1.66543413797626E-05,0.52734375,0,0
1.31283150039962E-06,-1.34905185404932E-05,0.52734375,0,0
2.23093456952483E-06,-1.20697050078888E-05,0.52734375,0,0
2.90888010567869E-06,-1.16064738904242E-05,0.52734375,0,0
2.90153457171982E-06,-1.45652757055359E-05,0.52734375,0,0
3.04647710436257E-06,-1.4923752132745E-05,0.52734375,0,0
3.54952908310224E-06,-1.48265462485142E-05,0.52734375,0,0
3.39660323334101E-06,-1.26847507999628E-05,0.52734375,0,0
3.00970464195416E-06,-1.29450572785572E-05,0.52734375,0,0
1.84222608368145E-06,-1.35183854581555E-05,0.52734375,0,0
1.67642141946089E-07,-1.73142980202101E-05,0.52734375,0,0
-6.12030476077052E-07,-2.11551450775005E-05,0.52734375,0,0
2.02377592017911E-07,-2.41365323745413E-05,0.52734375,0,0
1.58897830715432E-06,-2.50217144639464E-05,0.52734375,0,0
3.47138416145754E-06,-2.44348666456062E-05,0.52734375,0,0
4.46272179033258E-06,-2.08233632292831E-05,0.52734375,0,0
3.9882174860395E-06,-1.54108565766364E-05,0.52734375,0,0
3.40673796017654E-06,-9.26679331314517E-06,0.52734375,0,0
5.49149854123243E-06,-1.39418852995732E-05,0.52734375,0,0
4.26645419793203E-06,-1.35826112455106E-05,0.52734375,0,0
4.52494987257523E-06,-1.84220807568636E-05,0.52734375,0,0
4.22038692704518E-06,-1.63600234373007E-05,0.52734375,0,0
4.48785476692137E-06,-1.70051825989503E-05,0.52734375,0,0
3.7303107092157E-06,-1.68646183738019E-05,0.52734375,0,0
3.54281860381889E-06,-1.94292879314162E-05,0.52734375,0,0
4.18755053033237E-06,-2.00435606529936E-05,0.52734375,0,0
5.67087863601046E-06,-1.95329794223653E-05,0.52734375,0,0
6.40336475044023E-06,-1.93218475033063E-05,0.52734375,0,0
6.83399275658303E-06,-1.9465112927719E-05,0.52734375,0,0
8.41994369693566E-06,-1.98864163394319E-05,0.52734375,0,0
9.73190435615834E-06,-1.80679726327071E-05,0.52734375,0,0
9.45834290178027E-06,-1.69730719790095E-05,0.52734375,0,0
7.96051153884036E-06,-1.66850513778627E-05,0.52734375,0,0
6.94202890372253E-06,-1.87039713637205E-05,0.52734375,0,0
6.10151801083703E-06,-1.96199071069714E-05,0.52734375,0,0
6.04695469519356E-06,-2.16615571844159E-05,0.52734375,0,0
6.78977221468813E-06,-2.22882208618103E-05,0.52734375,0,0
8.00180259830086E-06,-2.21534301090287E-05,0.52734375,0,0
7.14216548658442E-06,-2.14025585592026E-05,0.52734375,0,0
6.23651203568443E-06,-2.12014037970221E-05,0.52734375,0,0
6.06789535595453E-06,-2.03006748051848E-05,0.52734375,0,0
5.2345235417306E-06,-2.04472071345663E-05,0.52734375,0,0
4.02142313760123E-06,-2.03655945369974E-05,0.52734375,0,0
4.91739774588495E-06,-2.02446190087358E-05,0.52734375,0,0
5.57506882614689E-06,-1.60493073053658E-05,0.52734375,0,0
8.5980746007408E-06,-2.32465245062485E-05,0.52734375,0,0
6.10973984294105E-06,-1.89708644029452E-05,0.52734375,0,0
5.26017720403615E-06,-2.3760383555782E-05,0.52734375,0,0
2.69920178652683E-06,-2.0232355382177E-05,0.52734375,0,0
2.91083051706664E-06,-2.06824370252434E-05,0.52734375,0,0
2.20215497392928E-06,-1.51363865370513E-05,0.52734375,0,0
2.76090941042639E-06,-1.48952485687914E-05,0.52734375,0,0
2.4628809569549E-06,-1.64561861311086E-05,0.52734375,0,0
1.37710037506622E-06,-1.88398553291336E-05,0.52734375,0,0
5.50369463780953E-07,-1.98133911908371E-05,0.52734375,0,0
3.87660008982493E-07,-1.91200560948346E-05,0.52734375,0,0
7.4178188924634E-07,-1.89442689588759E-05,0.52734375,0,0
-1.56257058847586E-07,-1.76411394932074E-05,0.52734375,0,0
1.71485183386721E-07,-1.80795032065362E-05,0.52734375,0,0
1.02692752079747E-06,-1.68665937962942E-05,0.52734375,0,0
2.02727915166179E-06,-1.82019975909498E-05,0.52734375,0,0
1.28341059735249E-06,-1.78622067323886E-05,0.52734375,0,0
-3.58053512172773E-07,-1.91194030776387E-05,0.52734375,0,0
-2.01292482415738E-06,-1.89045549632283E-05,0.52734375,0,0
-9.27628605040809E-07,-1.9825096387649E-05,0.52734375,0,0
8.43968280150875E-07,-1.86677989404416E-05,0.52734375,0,0
1.89918137039058E-06,-1.70273397088749E-05,0.52734375,0,0
1.87708985777135E-06,-1.5594188880641E-05,0.703125,0,0
1.20304616757494E-06,-1.68266560649499E-05,0.703125,0,0
7.72030119833289E-08,-1.6445455912617E-05,0.703125,0,0
-7.4906353120241E-08,-1.58172169903992E-05,0.703125,0,0
1.78945595052937E-06,-1.29451173052075E-05,0.703125,0,0
4.46778085461119E-06,-1.77149959199596E-05,0.703125,0,0
5.30733859704924E-06,-1.40809861477464E-05,0.703125,0,0
4.27432496508118E-06,-1.90391019714298E-05,0.703125,0,0
3.23510266753146E-06,-1.55220113811083E-05,0.703125,0,0
3.79809875994397E-06,-1.61945208674297E-05,0.703125,0,0
4.17511409978033E-06,-1.49984125528135E-05,0.703125,0,0
3.76349953512545E-06,-1.57170507009141E-05,0.703125,0,0
2.55104214375024E-06,-1.34841875478742E-05,0.703125,0,0
1.03646186744299E-06,-1.16496848932002E-05,0.703125,0,0
1.3830870102538E-06,-1.18493608169956E-05,0.703125,0,0
3.58013562617998E-06,-1.27516859720345E-05,0.703125,0,0
5.51605126020149E-06,-1.40065803861944E-05,0.703125,0,0
5.38266567673418E-06,-1.29549025587039E-05,0.703125,0,0
4.11060227634152E-06,-1.33079829538474E-05,0.703125,0,0
3.89736032957444E-06,-1.27230150610558E-05,0.703125,0,0
4.98484041600022E-06,-1.38902623803006E-05,0.703125,0,0
5.18454544362612E-06,-1.3670800399268E-05,0.703125,0,0
4.86537419419619E-06,-1.51824178828974E-05,0.703125,0,0
5.54717144041206E-06,-1.57832491822774E-05,0.703125,0,0
6.99783959134948E-06,-1.78742684511235E-05,0.703125,0,0
7.80789014243055E-06,-1.98122088477248E-05,0.703125,0,0
7.40396581022651E-06,-2.13338971661869E-05,0.703125,0,0
6.05151763011236E-06,-1.99519581656205E-05,0.703125,0,0
3.98768906961777E-06,-1.75795030372683E-05,0.703125,0,0
2.88918977275898E-06,-1.61725220095832E-05,0.703125,0,0
3.71486135009036E-06,-1.66305308084702E-05,0.703125,0,0
4.62641582998913E-06,-1.29476011352381E-05,0.703125,0,0
6.84358928992879E-06,-1.78449427039595E-05,0.703125,0,0
6.53558981866809E-06,-1.27539478853578E-05,0.703125,0,0
9.33067167352419E-06,-1.60755862452788E-05,0.703125,0,0
8.95052107807714E-06,-1.39732783281943E-05,0.703125,0,0
1.04505515992059E-05,-1.68933074746747E-05,0.703125,0,0
1.03964366644504E-05,-1.58915299834916E-05,0.703125,0,0
8.88933027454186E-06,-1.62015985551989E-05,0.703125,0,0
6.23657024334534E-06,-1.62713931786129E-05,0.703125,0,0
5.38827225682326E-06,-1.72309191839304E-05,0.703125,0,0
6.525311164296E-06,-1.78725094883703E-05,0.703125,0,0
6.7806004153681E-06,-1.69840459420811E-05,0.703125,0,0
7.05758520780364E-06,-1.61425359692657E-05,0.703125,0,0
7.09402820575633E-06,-1.44719042509678E-05,0.703125,0,0
7.27777160136611E-06,-1.47525033753482E-05,0.703125,0,0
6.93016727382201E-06,-1.36418793772464E-05,0.703125,0,0
6.94069831297384E-06,-1.41023283504182E-05,0.703125,0,0
5.90177387493895E-06,-1.32954637592775E-05,0.703125,0,0
4.8661240725778E-06,-1.29852560348809E-05,0.703125,0,0
3.902236585418E-06,-1.02759286164655E-05,0.703125,0,0
4.34194907938945E-06,-8.35966693557566E-06,0.703125,0,0
4.76854120279313E-06,-7.2176958383352E-06,0.703125,0,0
4.51801270173746E-06,-8.75678233569488E-06,0.703125,0,0
2.81251800515747E-06,-1.14638523882604E-05,0.703125,0,0
1.27476340594512E-07,-1.42117896757554E-05,0.703125,0,0
-1.65685480624234E-06,-1.54132849274902E-05,0.703125,0,0
-1.85583553502511E-06,-1.54386780195637E-05,0.703125,0,0
-7.97137715835561E-07,-1.06314964796184E-05,0.703125,0,0
2.6312680923013E-09,-1.36367552840966E-05,0.703125,0,0
9.78808657237096E-07,-1.01735768112121E-05,0.703125,0,0
-6.76455442771839E-07,-1.52523989527253E-05,0.703125,0,0
-1.04513185306132E-06,-1.4499777535093E-05,0.703125,0,0
-7.75916930706444E-07,-1.79882590600755E-05,0.703125,0,0
5.38819449502626E-07,-1.81512095878134E-05,0.703125,0,0
1.77088986674789E-06,-2.00578579097055E-05,0.703125,0,0
1.81650716513104E-06,-2.0863411918981E-05,0.703125,0,0
1.65515541539207E-06,-2.12702689168509E-05,0.703125,0,0
2.73733917310892E-06,-2.14662213693373E-05,0.703125,0,0
4.04060392611427E-06,-2.04439511435339E-05,0.703125,0,0
4.35876472693053E-06,-2.04622974706581E-05,0.703125,0,0
3.23170615956769E-06,-2.18099557969254E-05,0.703125,0,0
1.84355133114877E-06,-2.52650261245435E-05,0.703125,0,0
2.03639342544193E-06,-2.55763970926637E-05,0.703125,0,0
1.70741975580313E-06,-2.60016677202657E-05,0.703125,0,0
3.20336596359994E-07,-2.52304489549715E-05,0.703125,0,0
-4.52232228553839E-07,-2.54326096182922E-05,0.703125,0,0
2.05883864623502E-07,-2.45989904215094E-05,0.703125,0,0
1.5931159396132E-06,-2.42508394876495E-05,0.703125,0,0
3.39240455105028E-06,-2.2428845113609E-05,0.703125,0,0
4.66564642920275E-06,-2.17445794987725E-05,0.703125,0,0
5.066087396699E-06,-2.11357728403527E-05,0.703125,0,0
3.96611267206026E-06,-2.03846884687664E-05,0.703125,0,0
3.21248921864026E-06,-1.92610787053127E-05,0.703125,0,0
4.06570552513585E-06,-1.8116865248885E-05,0.703125,0,0
3.25216296914732E-06,-1.34810934468987E-05,0.703125,0,0
5.18717843078775E-06,-1.94196018128423E-05,0.703125,0,0
4.66517394670518E-06,-1.57428457896458E-05,0.703125,0,0
5.22462096341769E-06,-1.96063610928832E-05,0.703125,0,0
2.83711597148795E-06,-1.69603117683437E-05,0.703125,0,0
1.66809900292719E-06,-1.87614550668513E-05,0.703125,0,0
9.4109600468073E-07,-1.6111169315991E-05,0.703125,0,0
9.70522592069756E-07,-1.6271938875434E-05,0.703125,0,0
-1.58865930188767E-07,-1.58422881213482E-05,0.703125,0,0
-1.01030877885933E-06,-1.6366975614801E-05,0.703125,0,0
1.94186284829811E-08,-1.74752640305087E-05,0.703125,0,0
9.6250028036593E-07,-1.79729631781811E-05,0.703125,0,0
9.27539133499522E-07,-1.83175234269584E-05,0.703125,0,0
6.52429150704847E-07,-1.75973600562429E-05,0.703125,0,0
1.39629878503911E-06,-1.93226132978452E-05,0.703125,0,0
1.70409839483909E-06,-1.92643055925146E-05,0.703125,0,0
1.76131868556695E-06,-2.01084785658168E-05,0.703125,0,0
1.55258453560236E-06,-1.84934669960057E-05,0.703125,0,0
1.22332357932464E-06,-1.7779599147616E-05,0.703125,0,0
-2.84225734503707E-07,-1.67168363987003E-05,0.703125,0,0
-1.73325179275707E-06,-1.78870741365245E-05,0.703125,0,0
-2.20932929551054E-06,-1.80417137016775E-05,0.703125,0,0
-2.48108585765294E-06,-1.8837499737856E-05,0.703125,0,0
-3.05063986161258E-06,-1.92154202522943E-05,0.703125,0,0
-1.80461393028963E-06,-1.8728043869487E-05,0.703125,0,0
4.10251033144959E-07,-1.72575091710314E-05,0.703125,0,0
2.21090976992855E-06,-1.60902509378502E-05,0.703125,0,0
2.58996783486509E-06,-1.2266576050024E-05,0.703125,0,0
4.72627516501234E-06,-1.72715353983222E-05,0.703125,0,0
4.20459400629625E-06,-1.2843092008552E-05,0.703125,0,0
2.43147906076047E-06,-1.73193038790487E-05,0.703125,0,0
1.65358883918998E-07,-1.81898576556705E-05,0.703125,0,0
1.68351289175916E-06,-2.12941740755923E-05,0.703125,0,0
4.14754185840138E-06,-1.82799576577963E-05,0.703125,0,0
5.7719339565665E-06,-1.71221272466937E-05,0.703125,0,0
5.23231256011059E-06,-1.57737285917392E-05,0.703125,0,0
3.57036856257764E-06,-1.53711043822113E-05,0.703125,0,0
1.60977117502625E-06,-1.5768169760122E-05,0.703125,0,0
1.0535675301071E-06,-1.67038597282954E-05,0.703125,0,0
2.68431085714838E-06,-1.85620556294452E-05,0.703125,0,0
4.41966813014005E-06,-1.78779428097187E-05,0.703125,0,0
4.33645163866458E-06,-1.70567218447104E-05,0.703125,0,0
3.02397552331968E-06,-1.38275645440444E-05,0.703125,0,0
2.69737915914448E-06,-1.12654397526057E-05,0.703125,0,0
3.22504251926148E-06,-7.34615287001361E-06,0.703125,0,0
4.12031840824056E-06,-5.93804907111917E-06,0.703125,0,0
3.31024011757108E-06,-5.75452304474311E-06,0.703125,0,0
2.43669683186454E-06,-7.84632175054867E-06,0.703125,0,0
2.5459212338319E-06,-9.5937375590438E-06,0.703125,0,0
2.89224112748343E-06,-1.19247288239421E-05,0.703125,0,0
2.16552598431008E-06,-1.35341497298214E-05,0.703125,0,0
1.33422929593507E-06,-1.54489789565559E-05,0.703125,0,0
2.08156416192651E-06,-1.75255809153896E-05,0.703125,0,0
1.81910411356512E-06,-2.05030064535094E-05,0.703125,0,0
9.41848643520871E-09,-1.96072105609346E-05,0.703125,0,0
5.16995044108626E-07,-2.9308977900655E-05,0.703125,0,0
1.53120890900027E-06,-2.41024245042354E-05,0.703125,0,0
2.20901847569621E-06,-2.83588015008718E-05,0.703125,0,0
2.97174233310216E-06,-2.30413679673802E-05,0.703125,0,0
3.35215690938639E-06,-2.36616742768092E-05,0.703125,0,0
3.65009145752992E-06,-1.99638579942985E-05,0.703125,0,0
3.91715957448469E-06,-2.12597733479925E-05,0.703125,0,0
3.33715638589638E-06,-2.2267444364843E-05,0.703125,0,0
2.00806016437127E-06,-2.5103276129812E-05,0.703125,0,0
1.03169804788195E-06,-2.64342615992064E-05,0.703125,0,0
1.36704443320923E-06,-2.51407782343449E-05,0.703125,0,0
2.195403112637E-06,-2.45615610765526E-05,0.703125,0,0
2.71806447926792E-06,-2.13428156712325E-05,0.703125,0,0
2.85286182588607E-06,-1.94374442799017E-05,0.703125,0,0
3.3846961287054E-06,-1.58334951265715E-05,0.703125,0,0
3.27453790305299E-06,-1.67803973454284E-05,0.703125,0,0
2.95104723591066E-06,-1.62878895935137E-05,0.703125,0,0
3.55902784576756E-06,-1.55851903400617E-05,0.703125,0,0
3.71516148334194E-06,-1.28385972857359E-05,0.703125,0,0
3.34508831656422E-06,-1.46796983244712E-05,0.703125,0,0
3.99287955588079E-06,-1.72869931702735E-05,0.703125,0,0
5.91366597291199E-06,-2.01578259293456E-05,0.703125,0,0
6.99863358022412E-06,-2.03174877242418E-05,0.703125,0,0
5.83944620302645E-06,-1.9250144760008E-05,0.703125,0,0
4.5427600525727E-06,-1.86733195732813E-05,1.40625,0,0
4.96891607326688E-06,-1.95983302546665E-05,1.40625,0,0
4.48449054601952E-06,-1.52697157318471E-05,1.40625,0,0
6.13046631769976E-06,-1.87585628736997E-05,1.40625,0,0
3.7196127777861E-06,-9.93763387668878E-06,1.40625,0,0
3.90362492908025E-06,-1.39028488774784E-05,1.40625,0,0
2.75464503829426E-06,-1.06528204923961E-05,1.40625,0,0
4.50361585535575E-06,-1.03445136119262E-05,1.40625,0,0
6.21625031271833E-06,-7.48074353396078E-06,1.40625,0,0
7.5267175816407E-06,-1.11273220682051E-05,1.40625,0,0
6.21815843260265E-06,-1.49812594827381E-05,1.40625,0,0
4.39412588093546E-06,-1.80931110662641E-05,1.40625,0,0
3.01891168419388E-06,-1.60645868163556E-05,1.40625,0,0
3.08790890812816E-06,-8.26073573989561E-06,1.40625,0,0
4.51088317277026E-06,-3.36052721650049E-06,1.40625,0,0
4.62257366962149E-06,-2.78522111329949E-06,1.40625,0,0
4.57349415228236E-06,-8.03905368229607E-06,1.40625,0,0
4.50635161541868E-06,-1.23230602184776E-05,1.40625,0,0
5.55291626369581E-06,-1.81943833013065E-05,1.40625,0,0
6.69632709104917E-06,-2.18338427657727E-05,1.40625,0,0
7.78128105594078E-06,-2.635014061525E-05,1.40625,0,0
7.18904584573465E-06,-2.82457185676321E-05,1.40625,0,0
6.51383879812784E-06,-2.83367880911101E-05,1.40625,0,0
6.08827167525305E-06,-2.42526275542332E-05,1.40625,0,0
6.38138999420335E-06,-1.96944802155485E-05,1.40625,0,0
6.60207297187299E-06,-1.52996290125884E-05,1.40625,0,0
6.83415828461875E-06,-1.34289521156461E-05,1.40625,0,0
5.6513563322369E-06,-1.31786928250222E-05,1.40625,0,0
4.83892654301599E-06,-1.35838554342627E-05,1.40625,0,0
3.81683230443741E-06,-1.06436991700321E-05,1.40625,0,0
4.49293065685197E-06,-1.49395145854214E-05,1.40625,0,0
1.4066968105908E-06,-1.260048156837E-05,1.40625,0,0
1.89048057563923E-06,-1.77363963302923E-05,1.40625,0,0
2.18110881178291E-06,-1.56760888785357E-05,1.40625,0,0
3.38823815582145E-06,-1.49947591125965E-05,1.40625,0,0
2.79188111562689E-06,-1.25312044474413E-05,1.40625,0,0
2.22884546019486E-06,-1.39257035698392E-05,1.40625,0,0
7.12557039150852E-07,-1.54166427819291E-05,1.40625,0,0
3.1409004463967E-07,-1.655325286265E-05,1.40625,0,0
1.61560569722496E-06,-1.64783323270967E-05,1.40625,0,0
3.27863449456345E-06,-1.5566778529319E-05,1.40625,0,0
4.36728714703349E-06,-1.57155518536456E-05,1.40625,0,0
4.40022722614231E-06,-1.50601326822652E-05,1.40625,0,0
5.39823895451264E-06,-1.61312073032605E-05,1.40625,0,0
6.18783360550879E-06,-1.649582736718E-05,1.40625,0,0
6.77981870467192E-06,-1.69971754075959E-05,1.40625,0,0
6.75262390359421E-06,-1.44770956467255E-05,1.40625,0,0
6.49498269922333E-06,-1.36355529321008E-05,1.40625,0,0
4.62909792986466E-06,-1.40740876304335E-05,1.40625,0,0
3.2487548651261E-06,-1.54995341290487E-05,1.40625,0,0
3.02357852888235E-06,-1.53327018779237E-05,1.40625,0,0
4.22918992626364E-06,-1.49281904668896E-05,1.40625,0,0
5.01169552080682E-06,-1.36621902129264E-05,1.40625,0,0
4.98895224154694E-06,-1.39362718982738E-05,1.40625,0,0
4.46884951088578E-06,-1.47586670209421E-05,1.40625,0,0
4.42179907622631E-06,-1.32725217554253E-05,1.40625,0,0
4.08306232202449E-06,-9.95568825601367E-06,1.40625,0,0
6.85945542500122E-06,-1.52930315380218E-05,1.40625,0,0
7.34116656531114E-06,-1.30075450215372E-05,1.40625,0,0
7.93299477663822E-06,-1.47591654240387E-05,1.40625,0,0
4.16767306887778E-06,-1.21839966595871E-05,1.40625,0,0
4.21381037085666E-06,-1.50724790728418E-05,1.40625,0,0
5.35245135324658E-06,-1.62626165547408E-05,1.40625,0,0
5.52376332052518E-06,-1.77197071025148E-05,1.40625,0,0
4.28756493420224E-06,-1.70961775438627E-05,1.40625,0,0
3.44069621860399E-06,-1.57593603944406E-05,1.40625,0,0
4.0340778468817E-06,-1.43775678225211E-05,1.40625,0,0
5.20075445820112E-06,-1.25372480397345E-05,1.40625,0,0
6.8968170126027E-06,-1.32574004965136E-05,1.40625,0,0
7.55102200855617E-06,-1.43828056025086E-05,1.40625,0,0
7.45950956115848E-06,-1.57180365931708E-05,1.40625,0,0
6.41353972241632E-06,-1.55336565512698E-05,1.40625,0,0
5.51460607312038E-06,-1.72833970282227E-05,1.40625,0,0
5.13551003678003E-06,-1.77447636815486E-05,1.40625,0,0
5.75591411688947E-06,-1.73575717781205E-05,1.40625,0,0
5.29845374330762E-06,-1.56355908984551E-05,1.40625,0,0
4.0813520172378E-06,-1.59826067829272E-05,1.40625,0,0
2.78965922007046E-06,-1.74073647940531E-05,1.40625,0,0
2.30102409659594E-06,-1.80374063347699E-05,1.40625,0,0
8.6063249682411E-07,-1.71607807715191E-05,1.40625,0,0
-3.98045415295201E-07,-1.65603159985039E-05,1.40625,0,0
2.8282093467169E-07,-1.49273937495309E-05,1.40625,0,0
1.71283875260997E-06,-1.38762879942078E-05,1.40625,0,0
1.90983541870082E-06,-1.2119008715672E-05,1.40625,0,0
3.23195968121581E-06,-1.85361695912434E-05,1.40625,0,0
2.9576078759419E-06,-1.50366931848112E-05,1.40625,0,0
3.8417551877501E-06,-1.62565029313555E-05,1.40625,0,0
4.16053717344766E-06,-1.29365353132016E-05,1.40625,0,0
4.88888235850027E-06,-1.53780420077965E-05,1.40625,0,0
4.61639729110175E-06,-1.53583550854819E-05,1.40625,0,0
3.48884987033671E-06,-1.73228163475869E-05,1.40625,0,0
2.32599495575414E-06,-1.67064790730365E-05,1.40625,0,0
9.75895545707317E-07,-1.50763235069462E-05,1.40625,0,0
2.41558041125245E-07,-1.43045426739263E-05,1.40625,0,0
-2.43895073026579E-07,-1.46202191899647E-05,1.40625,0,0
-6.67842982693401E-07,-1.55880297825206E-05,1.40625,0,0
9.61530162157942E-08,-1.46286183735356E-05,1.40625,0,0
1.89372133263532E-06,-1.58514758368256E-05,1.40625,0,0
2.54928067988658E-06,-1.65797428053338E-05,1.40625,0,0
1.43332783864025E-06,-1.83008851308841E-05,1.40625,0,0
2.95074098488612E-08,-1.83147549250862E-05,1.40625,0,0
-6.03646697072691E-07,-1.89312395377783E-05,1.40625,0,0
-8.10261497008469E-07,-1.74222914210986E-05,1.40625,0,0
-8.58745067944255E-07,-1.66468762472505E-05,1.40625,0,0
-6.15687667959719E-07,-1.69815539265983E-05,1.40625,0,0
4.93537584134174E-08,-1.97034059965517E-05,1.40625,0,0
-5.85900579608278E-07,-2.22372855205322E-05,1.40625,0,0
-1.89147067430895E-06,-2.30710720643401E-05,1.40625,0,0
-2.06013169190555E-06,-2.19480662053684E-05,1.40625,0,0
-1.23656309369835E-06,-2.07994544325629E-05,1.40625,0,0
-4.00430934632823E-07,-1.66117970366031E-05,1.40625,0,0
-1.77352933405928E-06,-2.53172584052663E-05,1.40625,0,0
-3.41523445968051E-06,-2.22470880544279E-05,1.40625,0,0
-3.31031242239987E-06,-2.67422037723009E-05,1.40625,0,0
-1.93060736819461E-06,-2.2225087377592E-05,1.40625,0,0
-1.2260030644029E-06,-2.33922928600805E-05,1.40625,0,0
-4.23927644987998E-07,-2.07241428142879E-05,1.40625,0,0
2.60328818058042E-07,-2.14130304811988E-05,1.40625,0,0
9.09876519017416E-07,-2.16103890124941E-05,1.40625,0,0
1.46653781030182E-06,-2.28870685532456E-05,1.40625,0,0
1.76720834588195E-06,-2.29984925681492E-05,1.40625,0,0
2.57934584624309E-06,-2.16783155337907E-05,1.40625,0,0
4.35743231719243E-06,-2.18863788177259E-05,1.40625,0,0
5.39061829840648E-06,-2.06011791306082E-05,1.40625,0,0
5.08028279000428E-06,-2.07126740860986E-05,1.40625,0,0
4.93041125082527E-06,-1.89580878213746E-05,1.40625,0,0
4.74810440209694E-06,-1.93052637769142E-05,1.40625,0,0
4.29688816439011E-06,-1.87853820534656E-05,1.40625,0,0
4.12948247685563E-06,-2.08653109439183E-05,1.40625,0,0
3.82626240025274E-06,-2.03920426429249E-05,1.40625,0,0
3.77057108380541E-06,-1.96635901374975E-05,1.40625,0,0
4.05352739107911E-06,-1.78148529812461E-05,1.40625,0,0
4.40176290794625E-06,-1.71018909895793E-05,1.40625,0,0
4.61309355159756E-06,-1.56045352923684E-05,1.40625,0,0
4.29536294177524E-06,-1.52983375301119E-05,1.40625,0,0
4.24760355599574E-06,-1.56333480845205E-05,1.40625,0,0
4.01318266085582E-06,-1.61558309628163E-05,1.40625,0,0
3.11567646349431E-06,-1.40356014526333E-05,1.40625,0,0
5.1244624046376E-06,-1.95236334548099E-05,1.40625,0,0
5.97565167481662E-06,-1.38744289870374E-05,1.40625,0,0
7.68180052546086E-06,-1.63406075444072E-05,1.40625,0,0
5.89766068515019E-06,-1.3148144716979E-05,1.40625,0,0
5.13479744768119E-06,-1.56836831592955E-05,1.40625,0,0
4.64294089397299E-06,-1.37440883918316E-05,1.40625,0,0
4.80022299598204E-06,-1.37572178573464E-05,1.40625,0,0
3.9356878005492E-06,-1.31753395180567E-05,1.40625,0,0
3.63401591130241E-06,-1.33696066768607E-05,1.40625,0,0
3.34073274643742E-06,-1.41459022415802E-05,1.40625,0,0
3.89707292924868E-06,-1.40735292006866E-05,1.40625,0,0
5.21338233738788E-06,-1.56848855112912E-05,1.40625,0,0
6.2777153289062E-06,-1.67112848430406E-05,1.40625,0,0
7.20770594853093E-06,-1.82700659934198E-05,1.40625,0,0
6.56585280012223E-06,-1.74781453097239E-05,1.40625,0,0
5.4808870117995E-06,-1.84840901056305E-05,1.40625,0,0
4.6403056330746E-06,-1.80017304955982E-05,1.40625,0,0
5.61667775400565E-06,-1.84283380804118E-05,1.40625,0,0
6.72017768010846E-06,-1.77924939634977E-05,1.40625,0,0
7.90149260865292E-06,-1.87691530300071E-05,1.40625,0,0
7.57129464545869E-06,-1.87262266990729E-05,1.40625,0,0
6.03085754846688E-06,-1.88520079973387E-05,1.40625,0,0
3.86409692509915E-06,-1.78955579031026E-05,1.40625,0,0
3.72708200302441E-06,-1.76657813426573E-05,1.40625,0,0
4.11608652939321E-06,-1.76180019479943E-05,1.40625,0,0
3.80656888410158E-06,-1.75983695953619E-05,1.40625,0,0
4.63137166661909E-06,-1.48492435982917E-05,1.40625,0,0
8.02183785708621E-06,-2.01616858248599E-05,1.40625,0,0
6.10752795182634E-06,-1.33604753500549E-05,1.40625,0,0
5.15930014444166E-06,-1.66311510838568E-05,1.40625,0,0
4.5829001464881E-06,-1.37169918161817E-05,1.40625,0,0
5.40930750503321E-06,-1.51291960719391E-05,1.40625,0,0
5.78308299736818E-06,-1.32912064145785E-05,1.40625,0,0
8.08157528808806E-06,-1.57158101501409E-05,1.40625,0,0
9.42242604651256E-06,-1.68597489391686E-05,1.40625,0,0
9.43315717449877E-06,-1.7192878658534E-05,1.40625,0,0
9.26936991163529E-06,-1.76766716322163E-05,1.40625,0,0
8.8454880824429E-06,-1.67618163686711E-05,1.40625,0,0
7.64454398449743E-06,-1.64118082466302E-05,1.40625,0,0
5.37232153874356E-06,-1.53685377881629E-05,1.40625,0,0
3.85199928132351E-06,-1.66056597663555E-05,1.40625,0,0
2.02502201318566E-06,-1.62034648383269E-05,1.40625,0,0
3.47212733231572E-07,-1.66796780831646E-05,1.40625,0,0
-3.58275485723425E-07,-1.50890218719724E-05,1.40625,0,0
8.35277830901759E-07,-1.54531371663325E-05,1.40625,0,0
1.72718205249112E-06,-1.51890899360296E-05,1.40625,0,0
1.47863488564326E-06,-1.56586756929755E-05,1.40625,0,0
3.97480334868305E-07,-1.54463614308042E-05,1.40625,0,0
4.14560730632729E-07,-1.65516757988371E-05,1.40625,0,0
1.41076236559456E-06,-1.69007271324517E-05,1.40625,0,0
3.46717001775687E-06,-1.70793446159223E-05,1.40625,0,0
4.49306025984697E-06,-1.65332730830414E-05,1.40625,0,0
4.25487633037847E-06,-1.60506879183231E-05,1.40625,0,0
2.04379443857761E-06,-1.35023310576798E-05,1.40625,0,0
2.7717860575649E-06,-1.88696449185954E-05,1.40625,0,0
3.15796592076367E-06,-1.50051482705749E-05,1.40625,0,0
4.18377203459386E-06,-1.9223280105507E-05,1.40625,0,0
1.82045914698392E-06,-1.64013199537294E-05,1.40625,0,0
1.22531150736904E-06,-1.83753509190865E-05,1.40625,0,0
2.22188623411057E-06,-1.67765756486915E-05,1.40625,0,0
3.90481636713957E-06,-1.7898011719808E-05,1.40625,0,0
3.19493938150117E-06,-1.79145645233803E-05,1.40625,0,0
1.71077340382908E-06,-1.79676026164088E-05,1.40625,0,0
1.89890590718278E-06,-1.77151468960801E-05,1.40625,0,0
3.147283450744E-06,-1.64990378834773E-05,1.40625,0,0
4.37080007031909E-06,-1.65676956385141E-05,1.40625,0,0
4.80420021631289E-06,-1.54930294229416E-05,1.40625,0,0
4.47655884272535E-06,-1.597832851985E-05,1.40625,0,0
2.98178656521486E-06,-1.49528495967388E-05,1.40625,0,0
1.57170018155739E-06,-1.56358255480882E-05,1.40625,0,0
9.79695300884487E-07,-1.41217360578594E-05,1.40625,0,0
1.77245988197683E-06,-1.30536363940337E-05,1.40625,0,0
1.18274022042897E-06,-1.05040999187622E-05,1.40625,0,0
-3.35320891053925E-07,-9.97187180473702E-06,1.40625,0,0
-2.47608312520242E-07,-1.04081309473258E-05,1.40625,0,0
1.62279116011632E-06,-1.08705626189476E-05,1.40625,0,0
2.12734653359803E-06,-8.79182698554359E-06,1.40625,0,0
1.38725317810895E-06,-7.64621290727519E-06,1.40625,0,0
9.68899939834955E-07,-7.53682434151415E-06,1.40625,0,0
5.8688397075457E-07,-9.90954322332982E-06,1.40625,0,0
-4.03174738039525E-07,-1.2140554645157E-05,1.40625,0,0
-1.63787922247138E-06,-2.02231458388269E-05,1.40625,0,0
-2.21726054405735E-06,-2.08311539608985E-05,1.40625,0,0
-2.61751711150282E-06,-2.64864229393424E-05,1.40625,0,0
-3.89678871215438E-06,-2.39040709857363E-05,1.40625,0,0
-4.80177186545916E-06,-2.47924672294175E-05,1.40625,0,0
-5.38432732355432E-06,-2.60905071627349E-05,1.40625,0,0
-5.75964759264025E-06,-3.00035644613672E-05,1.40625,0,0
-5.10765084982268E-06,-3.07123846141621E-05,1.40625,0,0
-3.4656604839256E-06,-2.91175329039106E-05,1.40625,0,0
-2.23153779188578E-06,-2.76610608125338E-05,1.40625,0,0
-2.415413291601E-06,-2.51370474870782E-05,1.40625,0,0
-2.95335166811128E-06,-2.28097469516797E-05,1.40625,0,0
-2.71167573373532E-06,-2.0327621314209E-05,1.40625,0,0
-1.98915677174227E-06,-2.13170496863313E-05,1.40625,0,0
-6.68883558319067E-07,-2.26237352762837E-05,1.40625,0,0
5.97164842019993E-07,-2.48344604187878E-05,1.40625,0,0
1.34537719986838E-06,-2.45787596213631E-05,1.40625,0,0
2.15393606595171E-06,-2.36534324358217E-05,1.40625,0,0
2.81833331428061E-06,-2.12595496122958E-05,1.40625,0,0
2.59503349298029E-06,-2.00579524971545E-05,1.40625,0,0
2.45602245740884E-06,-1.77821239049081E-05,1.40625,0,0
3.38180234393803E-06,-1.48946401168359E-05,1.40625,0,0
3.67875850315613E-06,-1.18599155030097E-05,1.40625,0,0
2.7610528832156E-06,-1.10118890006561E-05,1.40625,0,0
2.99202997666725E-06,-1.12846491902019E-05,1.40625,0,0
6.01864394411677E-06,-1.08975818875479E-05,1.40625,0,0
6.93339234203449E-06,-8.85481676959898E-06,1.40625,0,0
9.7468146122992E-06,-1.38894511110266E-05,1.40625,0,0
7.1966360337683E-06,-1.35231703097816E-05,1.40625,0,0
9.03100863069994E-06,-1.79044945980422E-05,1.40625,0,0
6.45873751636827E-06,-1.6862522898009E-05,1.40625,0,0
5.80448386244825E-06,-1.74501074070577E-05,1.40625,0,0
3.69156168744667E-06,-1.54657973325811E-05,1.40625,0,0
3.29195768244972E-06,-1.48892677316326E-05,2.4609375,0,0
3.59682576345222E-06,-1.29993659356842E-05,2.4609375,0,0
3.99676719098352E-06,-1.32528375615948E-05,2.4609375,0,0
4.04626780436956E-06,-1.58720868057571E-05,2.4609375,0,0
3.53921086571063E-06,-1.7172125808429E-05,2.4609375,0,0
4.09189988204162E-06,-1.77133933902951E-05,2.4609375,0,0
4.58305976280826E-06,-1.65997171279741E-05,2.4609375,0,0
6.36191680314369E-06,-1.68932692758972E-05,2.4609375,0,0
7.31826094124699E-06,-1.71271803992568E-05,2.4609375,0,0
8.1021125879488E-06,-1.80950682988623E-05,2.4609375,0,0
7.23994116924587E-06,-1.65548681252403E-05,2.4609375,0,0
6.86918747305754E-06,-1.47683858813252E-05,2.4609375,0,0
6.8548056333384E-06,-1.28209121612599E-05,2.4609375,0,0
7.31490126781864E-06,-1.18447132990696E-05,2.4609375,0,0
7.43940108804964E-06,-1.08749609353254E-05,2.4609375,0,0
7.78173671278637E-06,-1.2435299140634E-05,2.4609375,0,0
6.46571788820438E-06,-1.36595126605243E-05,2.4609375,0,0
5.08382299813093E-06,-1.29836071209866E-05,2.4609375,0,0
4.44188754045172E-06,-1.24254738693708E-05,2.4609375,0,0
5.02903094456997E-06,-1.24003618111601E-05,2.4609375,0,0
4.7722201088618E-06,-9.52628943196032E-06,2.4609375,0,0
6.63480614093714E-06,-1.36828066388262E-05,2.4609375,0,0
4.4713260649587E-06,-1.10151086119004E-05,2.4609375,0,0
4.78657193525578E-06,-1.35188711283263E-05,2.4609375,0,0
2.86293879980803E-06,-1.13360883915448E-05,2.4609375,0,0
2.36600862990599E-06,-1.46920092447544E-05,2.4609375,0,0
1.8408603636999E-06,-1.68592760019237E-05,2.4609375,0,0
3.27122984344896E-06,-1.85182834684383E-05,2.4609375,0,0
4.44023226009449E-06,-1.73780736076878E-05,2.4609375,0,0
5.63780167794903E-06,-1.68371298059355E-05,2.4609375,0,0
5.89542742090998E-06,-1.62710784934461E-05,2.4609375,0,0
6.13302108831704E-06,-1.54369135998422E-05,2.4609375,0,0
7.26032976672286E-06,-1.5436295143445E-05,2.4609375,0,0
8.1875259638764E-06,-1.39770691021113E-05,2.4609375,0,0
9.35216576181119E-06,-1.30225153043284E-05,2.4609375,0,0
9.15551754587796E-06,-1.2511525710579E-05,2.4609375,0,0
8.03190687292954E-06,-1.5711762898718E-05,2.4609375,0,0
6.55931171422708E-06,-1.8327591533307E-05,2.4609375,0,0
7.42092197469901E-06,-2.01301063498249E-05,2.4609375,0,0
7.56826511860709E-06,-1.98013021872612E-05,2.4609375,0,0
6.89795797370607E-06,-2.08463679882698E-05,2.4609375,0,0
6.08456684858538E-06,-2.15861346077872E-05,2.4609375,0,0
5.71136570215458E-06,-2.1883020963287E-05,2.4609375,0,0
4.17310275224736E-06,-2.20138972508721E-05,2.4609375,0,0
3.00991200674616E-06,-2.35802672250429E-05,2.4609375,0,0
3.70471502719738E-06,-2.36175474128686E-05,2.4609375,0,0
4.57295755040832E-06,-1.96686905837851E-05,2.4609375,0,0
3.68406108464114E-06,-9.38582525122911E-06,2.4609375,0,0
5.74269097342039E-06,-1.23141589938314E-05,2.4609375,0,0
4.75384740639129E-06,-1.12893503683154E-05,2.4609375,0,0
4.57619535154663E-06,-1.72726722666994E-05,2.4609375,0,0
2.75810725725023E-06,-1.38828245326295E-05,2.4609375,0,0
3.27013822243316E-06,-1.21114680950996E-05,2.4609375,0,0
3.41417785421072E-06,-9.56982148636598E-06,2.4609375,0,0
4.27788336310186E-06,-1.2184597835585E-05,2.4609375,0,0
4.55528197562671E-06,-1.29732907225844E-05,2.4609375,0,0
4.48059336122242E-06,-1.34133406390902E-05,2.4609375,0,0
4.43159751739586E-06,-1.39120629683021E-05,2.4609375,0,0
4.02136720367707E-06,-1.37222987177665E-05,2.4609375,0,0
4.12608869737596E-06,-1.4497307347483E-05,2.4609375,0,0
3.71596911463712E-06,-1.43076431413647E-05,2.4609375,0,0
3.16861246574263E-06,-1.46520651469473E-05,2.4609375,0,0
1.49036634411459E-06,-1.43619490700075E-05,2.4609375,0,0
3.15602136424786E-07,-1.68306542036589E-05,2.4609375,0,0
3.42976164802167E-07,-1.76466946868459E-05,2.4609375,0,0
1.13064061224577E-06,-1.81974210136104E-05,2.4609375,0,0
6.62959848796163E-07,-1.80825190909673E-05,2.4609375,0,0
2.36917372831158E-07,-2.02335086214589E-05,2.4609375,0,0
2.35741495657749E-07,-2.09912868740503E-05,2.4609375,0,0
8.79300046108256E-07,-2.12007198570063E-05,2.4609375,0,0
1.39612893690355E-06,-2.1584168280242E-05,2.4609375,0,0
1.96908240468474E-06,-2.25453422899591E-05,2.4609375,0,0
2.32726210924739E-06,-2.28826957027195E-05,2.4609375,0,0
1.76558762632339E-06,-2.23190672841156E-05,2.4609375,0,0
1.40067115239617E-07,-1.81024497578619E-05,2.4609375,0,0
-3.35027095843543E-07,-2.61357017734554E-05,2.4609375,0,0
1.44566627113818E-07,-1.90474220289616E-05,2.4609375,0,0
1.68761141594587E-06,-2.09829340747092E-05,2.4609375,0,0
2.5301594632765E-06,-1.54206154547865E-05,2.4609375,0,0
2.29149736696854E-06,-1.83465126610827E-05,2.4609375,0,0
1.25683152418787E-06,-1.84035397978732E-05,2.4609375,0,0
2.25740632231464E-06,-2.02815936063416E-05,2.4609375,0,0
3.49021320289467E-06,-1.84486107173143E-05,2.4609375,0,0
4.03559943151777E-06,-1.68582064361544E-05,2.4609375,0,0
4.13815496358438E-06,-1.61405387189006E-05,2.4609375,0,0
3.58836791747308E-06,-1.56748901645187E-05,2.4609375,0,0
2.98641816698364E-06,-1.71064675669186E-05,2.4609375,0,0
2.02015939976263E-06,-1.64784069056623E-05,2.4609375,0,0
1.68965968327939E-07,-1.73155513039092E-05,2.4609375,0,0
-1.97436247617588E-06,-1.61324915097794E-05,2.4609375,0,0
-3.04174091070308E-06,-1.7251029930776E-05,2.4609375,0,0
-3.11770008920575E-06,-1.67108337336686E-05,2.4609375,0,0
-1.80968447693886E-06,-1.79198723344598E-05,2.4609375,0,0
-4.80872415664635E-07,-1.79155013029231E-05,2.4609375,0,0
-2.89758929739037E-07,-1.93830383068416E-05,2.4609375,0,0
-7.28519353287993E-07,-1.90176233445527E-05,2.4609375,0,0
-3.28259716297907E-07,-1.77614438143792E-05,2.4609375,0,0
1.11037127226155E-06,-1.47642094816547E-05,2.4609375,0,0
1.7815456203607E-06,-1.43810266308719E-05,2.4609375,0,0
8.67976211793575E-07,-1.5533860278083E-05,2.4609375,0,0
-6.75064939059666E-07,-1.6822590623633E-05,2.4609375,0,0
-1.49233221691247E-06,-1.43156148624257E-05,2.4609375,0,0
-1.08067320070404E-06,-1.97723820747342E-05,2.4609375,0,0
2.05869923775026E-06,-1.39843195938738E-05,2.4609375,0,0
2.86945169136743E-06,-1.84969758265652E-05,2.4609375,0,0
1.78071070422448E-06,-1.67324797075707E-05,2.4609375,0,0
4.12398748039777E-07,-1.95126704056747E-05,2.4609375,0,0
8.38915411804919E-07,-2.00179165403824E-05,2.4609375,0,0
1.51531821757089E-06,-2.15841228055069E-05,2.4609375,0,0
1.88265801170928E-06,-2.07145021704491E-05,2.4609375,0,0
2.01468674276839E-06,-2.07634366233833E-05,2.4609375,0,0
2.36256073549157E-06,-2.15370127989445E-05,2.4609375,0,0
1.56264911765902E-06,-2.11204605875537E-05,2.4609375,0,0
-8.39286713016918E-07,-2.18020741158398E-05,2.4609375,0,0
-2.29841361942817E-06,-2.10760554182343E-05,2.4609375,0,0
-1.28476699501334E-06,-2.04783409571974E-05,2.4609375,0,0
1.214960661855E-06,-1.7544978618389E-05,2.4609375,0,0
2.61862442130223E-06,-1.69840459420811E-05,2.4609375,0,0
3.10683367388265E-06,-1.64750781550538E-05,2.4609375,0,0
2.96398070531723E-06,-1.87746791198151E-05,2.4609375,0,0
2.52442828241328E-06,-2.00160156964557E-05,2.4609375,0,0
2.06761160370661E-06,-2.07057728403015E-05,2.4609375,0,0
2.1576768176601E-06,-2.01462135009933E-05,2.4609375,0,0
3.33992034029507E-06,-2.04524603759637E-05,2.4609375,0,0
5.36840479981038E-06,-1.92075422091875E-05,2.4609375,0,0
5.2987261369708E-06,-1.70270541275386E-05,2.4609375,0,0
4.56280940852594E-06,-1.46976599353366E-05,2.4609375,0,0
5.40333257958991E-06,-1.37495180752012E-05,2.4609375,0,0
5.5672521739325E-06,-1.10411901914631E-05,2.4609375,0,0
7.81606468081009E-06,-1.64516059157904E-05,2.4609375,0,0
4.95839140057797E-06,-1.48743738463963E-05,2.4609375,0,0
5.33839556737803E-06,-2.03436557058012E-05,2.4609375,0,0
2.39914561461774E-06,-1.97824792849133E-05,2.4609375,0,0
1.97607914742548E-06,-2.05454525712412E-05,2.4609375,0,0
2.74419335255516E-06,-1.79687885975E-05,2.4609375,0,0
4.71249722977518E-06,-1.86058605322614E-05,2.4609375,0,0
5.60020953344065E-06,-1.84712935151765E-05,2.4609375,0,0
5.4877359616512E-06,-1.7688520529191E-05,2.4609375,0,0
4.89742205900257E-06,-1.53881956066471E-05,2.4609375,0,0
4.44094530394068E-06,-1.32813984237146E-05,2.4609375,0,0
4.94796495331684E-06,-1.44479772643535E-05,2.4609375,0,0
5.21954098076094E-06,-1.56787973537575E-05,2.4609375,0,0
5.79909874431905E-06,-1.69868781085825E-05,2.4609375,0,0
5.97945745539619E-06,-1.61811385623878E-05,2.4609375,0,0
6.82160862197634E-06,-1.70971779880347E-05,2.4609375,0,0
6.36384856989025E-06,-1.64986231538933E-05,2.4609375,0,0
4.97903829455026E-06,-1.64614830282517E-05,2.4609375,0,0
3.85868679586565E-06,-1.54914396262029E-05,2.4609375,0,0
5.61424894840457E-06,-1.48500448631239E-05,2.4609375,0,0
7.29808925825637E-06,-1.33941439344198E-05,2.4609375,0,0
7.16109570930712E-06,-1.43629504236742E-05,2.4609375,0,0
6.44238161839894E-06,-1.53947385115316E-05,2.4609375,0,0
6.44417832518229E-06,-1.55355792230694E-05,2.4609375,0,0
6.12080702921958E-06,-1.47981936606811E-05,2.4609375,0,0
5.37525829713559E-06,-1.50210908032022E-05,2.4609375,0,0
2.04655111701868E-06,-1.31997558128205E-05,2.4609375,0,0
1.98008251572901E-06,-1.90403843589593E-05,2.4609375,0,0
1.38258928927826E-06,-1.59475312102586E-05,2.4609375,0,0
2.82542760032811E-06,-2.14566225622548E-05,2.4609375,0,0
2.46714444074314E-06,-1.80921633727849E-05,2.4609375,0,0
3.09045913127193E-06,-1.67544003488729E-05,2.4609375,0,0
1.62825278948731E-06,-1.3423060408968E-05,2.4609375,0,0
8.4643647824123E-07,-1.39013045554748E-05,2.4609375,0,0
1.64955815762369E-06,-1.28079163914663E-05,2.4609375,0,0
3.48575849784538E-06,-1.21429675346008E-05,2.4609375,0,0
5.38030508323573E-06,-1.23582112792064E-05,2.4609375,0,0
6.33773197478149E-06,-1.1910718967556E-05,2.4609375,0,0
6.29944770480506E-06,-1.30819626065204E-05,2.4609375,0,0
6.09021026320988E-06,-1.45956046253559E-05,2.4609375,0,0
6.54509449304896E-06,-1.75688837771304E-05,2.4609375,0,0
5.40440987606416E-06,-1.69960876519326E-05,2.4609375,0,0
3.57128033101617E-06,-1.62412798090372E-05,2.4609375,0,0
2.85169517155737E-06,-1.48363542393781E-05,2.4609375,0,0
4.20571450376883E-06,-1.6163379768841E-05,2.4609375,0,0
5.11556390847545E-06,-1.6691976270522E-05,2.4609375,0,0
5.38319500265061E-06,-1.75158838828793E-05,2.4609375,0,0
5.62775176149444E-06,-1.5726840501884E-05,2.4609375,0,0
5.91702109886683E-06,-1.33930061565479E-05,2.4609375,0,0
5.61690194444964E-06,-1.18667994684074E-05,2.4609375,0,0
5.19817058375338E-06,-1.23202407849021E-05,2.4609375,0,0
4.32472916145343E-06,-1.28447127281106E-05,2.4609375,0,0
4.68005737275234E-06,-1.29601212393027E-05,2.4609375,0,0
4.48894888904761E-06,-1.10453102024621E-05,2.4609375,0,0
6.12690337220556E-06,-1.77618330781115E-05,2.4609375,0,0
4.60814590041991E-06,-1.60290364874527E-05,2.4609375,0,0
6.80120683682617E-06,-1.68172064149985E-05,2.4609375,0,0
5.7769088925852E-06,-1.09991196950432E-05,2.4609375,0,0
3.78948448087613E-06,-1.16765886559733E-05,2.4609375,0,0
1.61879347615468E-06,-1.34341025841422E-05,2.4609375,0,0
2.37068502428883E-06,-1.46690963447327E-05,2.4609375,0,0
2.66100937551528E-06,-1.27380699268542E-05,2.4609375,0,0
2.95326572086196E-06,-1.31624619825743E-05,2.4609375,0,0
3.06706760966335E-06,-1.73643838934368E-05,2.4609375,0,0
2.77859521702339E-06,-2.33229220611975E-05,2.4609375,0,0
3.16663044941379E-06,-2.74440062639769E-05,2.4609375,0,0
3.54763642462785E-06,-2.61180230154423E-05,2.4609375,0,0
4.11785777032492E-06,-2.32752390729729E-05,2.4609375,0,0
4.42209147877293E-06,-1.9913033611374E-05,2.4609375,0,0
5.41342660653754E-06,-1.89361926459242E-05,2.4609375,0,0
5.27225984114921E-06,-1.76244338945253E-05,2.4609375,0,0
4.85515420223237E-06,-1.74978176801233E-05,2.4609375,0,0
3.62302762368927E-06,-1.56027363118483E-05,2.4609375,0,0
3.16354839924315E-06,-1.3881490303902E-05,2.4609375,0,0
3.29582348967961E-06,-1.22000128612854E-05,2.4609375,0,0
4.36860182162491E-06,-1.24143807624932E-05,2.4609375,0,0
4.6989362090244E-06,-1.19992355394061E-05,2.4609375,0,0
4.78689753435901E-06,-1.13043488454423E-05,2.4609375,0,0
5.64748188480735E-06,-1.09554102891707E-05,2.4609375,0,0
6.93863739797962E-06,-1.1599066965573E-05,2.4609375,0,0
5.4408237701864E-06,-1.17178969958331E-05,2.4609375,0,0
7.61488990974613E-06,-1.87353434739634E-05,2.4609375,0,0
6.46171474727453E-06,-1.71422871062532E-05,2.4609375,0,0
9.54642928263638E-06,-2.06110289582284E-05,2.4609375,0,0
8.94837467058096E-06,-1.8456272300682E-05,2.4609375,0,0
8.69099130795803E-06,-1.96953169506742E-05,2.4609375,0,0
6.72105306875892E-06,-1.81176146725193E-05,2.4609375,0,0
5.8358004935144E-06,-1.73671342054149E-05,2.4609375,0,0
4.99937323183985E-06,-1.51386147990706E-05,2.4609375,0,0
5.78516528548789E-06,-1.38969953695778E-05,2.4609375,0,0
6.20914397586603E-06,-1.5109117157408E-05,2.4609375,0,0
5.25424138686503E-06,-1.77614292624639E-05,2.4609375,0,0
4.9327322813042E-06,-2.00368522200733E-05,2.4609375,0,0
3.90683317164076E-06,-1.87048244697507E-05,2.4609375,0,0
2.18442528421292E-06,-1.72875152202323E-05,2.4609375,0,0
-2.98597370829157E-07,-1.60923354997067E-05,2.4609375,0,0
-2.51379589144562E-07,-1.84072850970551E-05,2.4609375,0,0
-1.01857075662792E-07,-2.03862527996534E-05,2.4609375,0,0
-1.30839214307343E-06,-2.19251614907989E-05,2.4609375,0,0
-3.46334923051472E-06,-2.11018250411144E-05,2.4609375,0,0
-2.88130036096845E-06,-2.16314892895753E-05,2.4609375,0,0
-1.78848620180361E-06,-2.24377999984426E-05,2.4609375,0,0
-1.51997880948329E-06,-2.28509088628925E-05,2.4609375,0,0
-2.00451063392393E-06,-2.09079389605904E-05,2.4609375,0,0
-8.61673754570802E-07,-2.03805957426084E-05,2.4609375,0,0
1.11079589260044E-06,-2.03899162443122E-05,2.4609375,0,0
2.11124324778211E-06,-1.97776626009727E-05,2.4609375,0,0
2.05177707357507E-06,-1.67381458595628E-05,2.4609375,0,0
2.62979369836103E-06,-2.4730112272664E-05,2.4609375,0,0
8.28245958928164E-07,-1.85849949048134E-05,2.4609375,0,0
-7.65328195484472E-07,-2.12214308703551E-05,2.4609375,0,0
-1.37124425236834E-06,-1.7610869690543E-05,2.4609375,0,0
3.59520527126733E-07,-2.01759248739108E-05,2.4609375,0,0
9.30556041112141E-07,-1.80458591785282E-05,2.4609375,0,0
1.66473785156995E-06,-1.78565296664601E-05,2.4609375,0,0
1.92111860997102E-06,-1.66967492987169E-05,2.4609375,0,0
1.75912441591208E-06,-1.6546915503568E-05,2.4609375,0,0
2.08951678359881E-06,-1.66488389368169E-05,2.4609375,0,0
4.01652914661099E-06,-1.55659399752039E-05,2.4609375,0,0
5.1645015446411E-06,-1.61871939781122E-05,4.04296875,0,0
4.34165531260078E-06,-1.67238194990205E-05,4.04296875,0,0
3.48066100741562E-06,-1.83701449714135E-05,4.04296875,0,0
3.52954293703078E-06,-1.68270616995869E-05,4.04296875,0,0
3.79509083359153E-06,-1.76882385858335E-05,4.04296875,0,0
2.05363767236122E-06,-1.9261769921286E-05,4.04296875,0,0
1.05651042758836E-06,-2.36530140682589E-05,4.04296875,0,0
1.91861545317806E-06,-2.42224177782191E-05,4.04296875,0,0
4.57834221379017E-06,-2.24959912884515E-05,4.04296875,0,0
6.39902191323927E-06,-1.89824168046471E-05,4.04296875,0,0
5.42409861736814E-06,-1.76673147507245E-05,4.04296875,0,0
2.38260236073984E-06,-1.77315014298074E-05,4.04296875,0,0
8.29471275665128E-07,-1.9840399545501E-05,4.04296875,0,0
1.86740476237901E-06,-2.2183136024978E-05,4.04296875,0,0
3.32051581608539E-06,-2.31532776524546E-05,4.04296875,0,0
2.04084903998591E-06,-1.8102995454683E-05,4.04296875,0,0
1.85224769211345E-06,-2.46900381171145E-05,4.04296875,0,0
-7.08279912942089E-07,-1.85909375431947E-05,4.04296875,0,0
-1.36804499106802E-06,-2.39763794525061E-05,4.04296875,0,0
-1.621332103241E-06,-1.82839958142722E-05,4.04296875,0,0
-4.33348006367851E-08,-2.03083418455208E-05,4.04296875,0,0
1.60271849836136E-06,-1.98367233679164E-05,4.04296875,0,0
3.42034536515712E-06,-2.03996423806529E-05,4.04296875,0,0
3.63845106221561E-06,-1.72865693457425E-05,4.04296875,0,0
4.43723229182069E-06,-1.59171650011558E-05,4.04296875,0,0
5.53030986338854E-06,-1.59943829203257E-05,4.04296875,0,0
4.84809561385191E-06,-1.61776843015105E-05,4.04296875,0,0
2.6877864911512E-06,-1.83988522621803E-05,4.04296875,0,0
6.92323851581023E-07,-1.85401440830901E-05,4.04296875,0,0
6.38830499610776E-07,-1.9198529116693E-05,4.04296875,0,0
1.07228083834343E-06,-1.68528622452868E-05,4.04296875,0,0
1.49509310176654E-06,-1.6720896383049E-05,4.04296875,0,0
1.72293312061811E-06,-1.5449402781087E-05,4.04296875,0,0
2.13714247365715E-06,-1.64867178682471E-05,4.04296875,0,0
2.65794369624928E-06,-1.57801750901854E-05,4.04296875,0,0
3.53214591086726E-06,-1.64365919772536E-05,4.04296875,0,0
2.71113390226674E-06,-1.6299727576552E-05,4.04296875,0,0
1.80156837359391E-06,-1.7622052837396E-05,4.04296875,0,0
2.13906650969875E-06,-1.62795422511408E-05,4.04296875,0,0
3.86585179512622E-06,-1.37123670356232E-05,4.04296875,0,0
5.68270434087026E-06,-1.09549746412085E-05,4.04296875,0,0
5.42862426300417E-06,-9.34071340452647E-06,4.04296875,0,0
4.49998469775892E-06,-6.43803878119797E-06,4.04296875,0,0
7.03492696629837E-06,-1.06366451291251E-05,4.04296875,0,0
5.57804560230579E-06,-9.12940140551655E-06,4.04296875,0,0
5.20491903444054E-06,-9.11417555471417E-06,4.04296875,0,0
2.97017095363117E-06,-9.69104439718649E-06,4.04296875,0,0
3.11165831590188E-06,-1.37316410473431E-05,4.04296875,0,0
3.3534827252879E-06,-1.4217115676729E-05,4.04296875,0,0
4.40988378613838E-06,-1.52499178511789E-05,4.04296875,0,0
3.82803455067915E-06,-1.41903001349419E-05,4.04296875,0,0
3.82785037800204E-06,-1.17299268822535E-05,4.04296875,0,0
5.70509428143851E-06,-1.0399335224065E-05,4.04296875,0,0
7.19656509318156E-06,-9.92559762380552E-06,4.04296875,0,0
6.94092386765988E-06,-1.07011628642795E-05,4.04296875,0,0
3.71906298823887E-06,-1.07462337837205E-05,4.04296875,0,0
1.67602649980836E-06,-1.08762478703284E-05,4.04296875,0,0
2.20728315980523E-06,-1.08086387626827E-05,4.04296875,0,0
4.52503400083515E-06,-1.24422431326821E-05,4.04296875,0,0
5.91887419432169E-06,-1.32688364828937E-05,4.04296875,0,0
6.74879493089975E-06,-1.36748685690691E-05,4.04296875,0,0
5.65120581086376E-06,-1.28601805045037E-05,4.04296875,0,0
3.91622097595246E-06,-1.25623182611889E-05,4.04296875,0,0
3.09785082208691E-06,-1.32365894387476E-05,4.04296875,0,0
3.13059376821911E-06,-1.42931430673343E-05,4.04296875,0,0
2.38689631260058E-06,-1.50387058965862E-05,4.04296875,0,0
2.20976517084637E-06,-1.57787872012705E-05,4.04296875,0,0
2.80018480225408E-06,-1.56066034833202E-05,4.04296875,0,0
3.03489787256694E-06,-1.51498024933971E-05,4.04296875,0,0
2.04891830435372E-06,-1.29280260807718E-05,4.04296875,0,0
2.37049675888557E-06,-1.93099058378721E-05,4.04296875,0,0
-5.70254883314192E-07,-1.53426608449081E-05,4.04296875,0,0
-2.0828706510656E-06,-1.8614873624756E-05,4.04296875,0,0
-1.39242843033571E-06,-1.69829218066297E-05,4.04296875,0,0
9.59621274887468E-07,-1.91043000086211E-05,4.04296875,0,0
1.93785399460467E-06,-1.73328789969673E-05,4.04296875,0,0
2.74465878646879E-06,-1.78858590516029E-05,4.04296875,0,0
3.02412536257179E-06,-1.81130199052859E-05,4.04296875,0,0
4.11461223848164E-06,-1.90866867342265E-05,4.04296875,0,0
5.11001553604729E-06,-1.95341126527637E-05,4.04296875,0,0
4.49184744866216E-06,-1.92299085028935E-05,4.04296875,0,0
3.52943129655614E-06,-2.02358460228425E-05,4.04296875,0,0
3.18077127303695E-06,-1.99836704268819E-05,4.04296875,0,0
3.83544647775125E-06,-2.09802637982648E-05,4.04296875,0,0
3.89007436751854E-06,-2.0725612557726E-05,4.04296875,0,0
3.27399538946338E-06,-2.11122533073649E-05,4.04296875,0,0
1.9378333036002E-06,-2.01160873984918E-05,4.04296875,0,0
5.34128730578232E-07,-2.09840109164361E-05,4.04296875,0,0
-8.80758665999792E-09,-2.05346132133855E-05,4.04296875,0,0
1.35718528326834E-06,-2.03508207050618E-05,4.04296875,0,0
2.65049743575219E-06,-1.95821758097736E-05,4.04296875,0,0
3.34990272676805E-06,-1.98056841327343E-05,4.04296875,0,0
3.05912317344337E-06,-1.93561045307433E-05,4.04296875,0,0
3.27629709317989E-06,-1.83877782546915E-05,4.04296875,0,0
4.54812288808171E-06,-1.65510009537684E-05,4.04296875,0,0
