biceps_emg, triceps_emg, subject_position, position_estimate, brace_position
-4.58729338959074E-08,-1.17380395749933E-05,2.8125,0,0
-1.36981498144451E-06,-1.51641452248441E-05,2.8125,0,0
-1.65197889145929E-06,-1.95101547433296E-05,2.8125,0,0
-1.77627487119025E-06,-2.04423431569012E-05,2.8125,0,0
-2.60591787082376E-06,-2.06409131351393E-05,2.8125,0,0
-3.96312316297553E-06,-1.88314606930362E-05,2.8125,0,0
-3.58167449121538E-06,-1.89942911674734E-05,2.8125,0,0
-1.33547337100026E-06,-1.95403517864179E-05,2.8125,0,0
1.38361599510972E-06,-2.01676830329234E-05,2.8125,0,0
2.15512795875838E-06,-1.84300479304511E-05,2.8125,0,0
2.45602223003516E-06,-1.7393769667251E-05,2.8125,0,0
3.30797183778486E-06,-1.74155884451466E-05,2.8125,0,0
4.01988700104994E-06,-1.9467028323561E-05,2.8125,0,0
4.40344820162863E-06,-2.16360112972325E-05,2.8125,0,0
4.66240771856974E-06,-2.35994957620278E-05,2.8125,0,0
4.82401128465426E-06,-2.37359745369758E-05,2.8125,0,0
6.08645768807037E-06,-2.15078034671023E-05,2.8125,0,0
5.03178944200045E-06,-1.48314247780945E-05,2.8125,0,0
6.2451686062559E-06,-1.95244119822746E-05,2.8125,0,0
2.21734103433846E-06,-1.27638641060912E-05,2.8125,0,0
1.46230445352558E-06,-1.45269241329515E-05,2.8125,0,0
-9.45078056702187E-07,-9.90780245047063E-06,2.8125,0,0
-2.63666407818164E-07,-1.22292403830215E-05,2.8125,0,0
7.26869529898977E-07,-9.24610685615335E-06,2.8125,0,0
2.29620195568714E-06,-9.95495793176815E-06,2.8125,0,0
2.19733419726253E-06,-1.06753677755478E-05,2.8125,0,0
2.69668248620292E-06,-1.22593601190601E-05,2.8125,0,0
4.43474073108519E-06,-1.28289193526143E-05,2.8125,0,0
4.78110177937197E-06,-1.36136195578729E-05,2.8125,0,0
3.8807970668131E-06,-1.66421705216635E-05,2.8125,0,0
2.87403872789582E-06,-1.76026005647145E-05,2.8125,0,0
3.83614406018751E-06,-1.92249044630444E-05,2.8125,0,0
4.62212119600736E-06,-1.95226366486168E-05,2.8125,0,0
5.20944513482391E-06,-2.37928197748261E-05,2.8125,0,0
4.52265066996915E-06,-2.69588908849983E-05,2.8125,0,0
4.20945070800371E-06,-2.99341918434948E-05,2.8125,0,0
4.55419421996339E-06,-2.91041124000913E-05,2.8125,0,0
6.21192248217994E-06,-2.86281428998336E-05,2.8125,0,0
6.41885435470613E-06,-2.65309117821744E-05,2.8125,0,0
5.70202973904088E-06,-2.47604421019787E-05,2.8125,0,0
5.25290988662164E-06,-2.31263402383775E-05,2.8125,0,0
5.44946260561119E-06,-2.32906422752421E-05,2.8125,0,0
5.27743804923375E-06,-2.27591444854625E-05,2.8125,0,0
4.68998359792749E-06,-2.04625503101852E-05,2.8125,0,0
2.99247949442361E-06,-1.54143235704396E-05,2.8125,0,0
4.39307450506021E-06,-2.28887256525923E-05,2.8125,0,0
5.20187450092635E-06,-1.82237308763433E-05,2.8125,0,0
5.62037666895776E-06,-2.09417194128037E-05,2.8125,0,0
1.30694797917386E-06,-1.61159514391329E-05,2.8125,0,0
9.68722702054947E-07,-1.6627942386549E-05,2.8125,0,0
2.3663067167945E-06,-1.51894337250269E-05,2.8125,0,0
4.47154889116064E-06,-1.61971947818529E-05,2.8125,0,0
3.78294839720184E-06,-1.41891396197025E-05,2.8125,0,0
1.45281626373617E-06,-1.33798321257927E-05,2.8125,0,0
-6.9667109414695E-08,-1.51601007019053E-05,2.8125,0,0
-2.57542950521383E-07,-1.61375355673954E-05,2.8125,0,0
2.71774155180537E-07,-1.71659758052556E-05,2.8125,0,0
-3.69282616929922E-07,-1.65055371326162E-05,2.8125,0,0
-1.04116850252467E-06,-1.7947761079995E-05,2.8125,0,0
-1.84246482604067E-06,-1.76747835212154E-05,2.8125,0,0
-1.35066693474073E-06,-1.83894298970699E-05,2.8125,0,0
-7.77303682752972E-07,-1.63961012731306E-05,2.8125,0,0
-4.68846110379673E-07,-1.51380854731542E-05,2.8125,0,0
-1.04279831703025E-06,-1.40014362841612E-05,2.8125,0,0
-1.19575668122707E-06,-1.56090463860892E-05,2.8125,0,0
-1.28050101011468E-06,-1.69812119565904E-05,2.8125,0,0
-9.421833055967E-07,-1.74649685504846E-05,2.8125,0,0
-4.7091415211753E-08,-1.50357864185935E-05,2.8125,0,0
2.12944496524869E-06,-1.45744315886986E-05,2.8125,0,0
2.32334286920377E-06,-1.67616726685083E-05,2.8125,0,0
1.16500450531021E-06,-1.82646235771244E-05,2.8125,0,0
2.05450305656996E-06,-1.40302881845855E-05,2.8125,0,0
4.73116779176053E-06,-1.91373183042742E-05,2.8125,0,0
5.65633490623441E-06,-1.20257845992455E-05,2.8125,0,0
6.09203470958164E-06,-1.2802787750843E-05,2.8125,0,0
5.17691069035209E-06,-1.01386240203283E-05,2.8125,0,0
3.89313890991616E-06,-1.50373625729117E-05,2.8125,0,0
3.26841040987347E-06,-1.48648268805118E-05,2.8125,0,0
3.69838016922586E-06,-1.35926402435871E-05,2.8125,0,0
4.46907370132976E-06,-7.65353343012976E-06,2.8125,0,0
4.13702036894392E-06,-3.36645916831912E-06,2.8125,0,0
3.93105574403307E-06,-4.85808641315089E-06,2.8125,0,0
5.02840339322574E-06,-1.06198403955204E-05,2.8125,0,0
5.96011022935272E-06,-1.701698602119E-05,2.8125,0,0
5.18084971190547E-06,-2.05667547561461E-05,2.8125,0,0
3.73707189282868E-06,-2.57907486229669E-05,2.8125,0,0
3.29552131006494E-06,-2.80345157079864E-05,2.8125,0,0
3.52804977410415E-06,-2.80586082226364E-05,2.8125,0,0
3.51969310941058E-06,-2.28949393203948E-05,2.8125,0,0
3.43993997375946E-06,-1.8321150491829E-05,2.8125,0,0
2.72155057245982E-06,-1.4223748621589E-05,2.8125,0,0
1.51307028772862E-06,-1.39445855893428E-05,2.8125,0,0
2.34660956266453E-06,-1.40320344144129E-05,2.8125,0,0
5.09777373736142E-06,-1.43483703141101E-05,2.8125,0,0
6.45590171188815E-06,-1.36892749651452E-05,2.8125,0,0
6.35454807706992E-06,-1.47638420457952E-05,2.8125,0,0
6.83979897075915E-06,-1.62289452418918E-05,2.8125,0,0
8.6982108769007E-06,-1.67424768733326E-05,2.8125,0,0
7.4717017923831E-06,-1.26648828882026E-05,2.8125,0,0
1.09237553260755E-05,-1.65476376423612E-05,2.8125,0,0
8.47572118800599E-06,-1.0480337550689E-05,2.8125,0,0
8.83531265571946E-06,-1.37259085022379E-05,2.8125,0,0
5.92495689488715E-06,-1.26709846881568E-05,2.8125,0,0
7.21708238415886E-06,-1.6871650586836E-05,2.8125,0,0
5.60656326342723E-06,-1.67751404660521E-05,2.8125,0,0
6.27399231234449E-06,-1.7751404811861E-05,2.8125,0,0
6.3902921283443E-06,-1.68493534147274E-05,2.8125,0,0
5.27137444805703E-06,-1.72017225850141E-05,2.8125,0,0
4.37762446381385E-06,-1.98811085283523E-05,2.8125,0,0
4.33494187745964E-06,-2.43931863224134E-05,2.8125,0,0
6.02533327764831E-06,-2.77235048997682E-05,2.8125,0,0
6.89081161908689E-06,-2.43929225689499E-05,2.8125,0,0
7.89766454545315E-06,-1.93301148101455E-05,2.8125,0,0
6.58986891721725E-06,-1.28284318634542E-05,2.8125,0,0
5.05677508044755E-06,-1.1323038052069E-05,2.8125,0,0
2.28087492359919E-06,-1.23733325381181E-05,2.8125,0,0
1.32640229821845E-06,-1.556122515467E-05,2.8125,0,0
2.44080956690595E-06,-1.67956459335983E-05,2.8125,0,0
5.6286826293217E-06,-1.93308151210658E-05,2.8125,0,0
6.87486908645951E-06,-1.94524382095551E-05,2.8125,0,0
6.51198934065178E-06,-1.78552018041955E-05,2.8125,0,0
5.4973552323645E-06,-1.69643026310951E-05,2.8125,0,0
4.94512960358406E-06,-1.84942600753857E-05,2.8125,0,0
5.14974681209424E-06,-1.97170083993115E-05,2.8125,0,0
5.52826259081485E-06,-1.99975547729991E-05,2.8125,0,0
4.77709954793681E-06,-1.64776411111234E-05,2.8125,0,0
7.8137099990272E-06,-2.48584456130629E-05,2.8125,0,0
8.09163338999497E-06,-1.80504885065602E-05,2.8125,0,0
9.4458937383024E-06,-1.68996230058838E-05,2.8125,0,0
5.4267452469503E-06,-9.82624351308914E-06,2.8125,0,0
3.4427303035045E-06,-9.14843622012995E-06,2.8125,0,0
3.81824975193013E-06,-4.90254024043679E-06,2.8125,0,0
5.50615550309885E-06,-5.2030000006198E-06,2.8125,0,0
5.29159297002479E-06,-3.88760372516117E-06,2.8125,0,0
4.05365244660061E-06,-2.58325576396601E-06,2.8125,0,0
3.75156400878041E-06,-3.85489875043277E-06,2.8125,0,0
3.9515903154097E-06,-6.66304003971163E-06,2.8125,0,0
4.59381226391997E-06,-1.09332750071189E-05,2.8125,0,0
5.3303515414882E-06,-1.38119594339514E-05,2.8125,0,0
6.040022981324E-06,-1.82123476406559E-05,2.8125,0,0
4.36784421253833E-06,-2.14417468669126E-05,2.8125,0,0
2.0399945697136E-06,-2.73811856459361E-05,2.8125,0,0
8.40320467432321E-07,-3.15116958518047E-05,2.8125,0,0
1.68937526723312E-06,-3.5179949918529E-05,2.8125,0,0
1.27100281588355E-06,-3.38640893460251E-05,2.8125,0,0
1.05776018699544E-06,-3.16955593007151E-05,2.8125,0,0
1.89225602298393E-06,-2.91592496068915E-05,2.8125,0,0
2.6517509468249E-06,-2.73855293926317E-05,2.8125,0,0
2.46751960730762E-06,-2.52374320552917E-05,2.8125,0,0
1.78740140199807E-06,-2.56343228102196E-05,2.8125,0,0
5.36351535629365E-07,-2.60395263467217E-05,2.8125,0,0
-1.31652325308096E-06,-2.37386484513991E-05,2.8125,0,0
-2.84750194623484E-06,-1.72953987203073E-05,2.8125,0,0
-3.8105399653432E-06,-2.60194010479609E-05,2.8125,0,0
-2.20147262552928E-06,-2.07065804715967E-05,2.8125,0,0
-2.68581470663776E-06,-2.31936646741815E-05,2.8125,0,0
-1.53534153923829E-06,-1.63368422363419E-05,2.8125,0,0
-1.70256851106387E-06,-1.44302130138385E-05,2.8125,0,0
-2.6085397166753E-06,-1.12350435301778E-05,2.8125,0,0
-3.90636205338524E-06,-1.23806130432058E-05,2.8125,0,0
-4.00482258555712E-06,-1.11317831397173E-05,2.8125,0,0
-2.72475426754681E-06,-1.08643489511451E-05,2.8125,0,0
-1.14065437628597E-06,-1.11896924863686E-05,2.8125,0,0
-7.01886619935976E-07,-1.10222981675179E-05,2.8125,0,0
-1.29858244690695E-06,-1.19636233648635E-05,2.8125,0,0
-1.15726186322718E-06,-1.1011809874617E-05,2.8125,0,0
-7.89244438692549E-07,-1.169983715954E-05,2.8125,0,0
-1.28130875509669E-06,-1.23702575365314E-05,2.8125,0,0
-3.5046468838118E-06,-1.8113989426638E-05,2.8125,0,0
-4.67293739347951E-06,-2.32339098147349E-05,2.8125,0,0
-4.13452698921901E-06,-2.77189774351427E-05,2.8125,0,0
-2.53178859566106E-06,-2.74192352662794E-05,2.8125,0,0
-2.05863057090028E-06,-2.6879020879278E-05,2.8125,0,0
-2.48171045313939E-06,-2.43730482907267E-05,2.8125,0,0
-2.12629834095424E-06,-2.1662752260454E-05,2.8125,0,0
-7.28300506125379E-07,-1.8883994926E-05,2.8125,0,0
3.97417807107558E-07,-1.69880404428113E-05,2.8125,0,0
8.12343614597921E-07,-1.45153589983238E-05,2.8125,0,0
-3.22720467238469E-07,-1.26968707263586E-05,2.8125,0,0
-4.11623773288738E-07,-1.00998095149407E-05,2.8125,0,0
2.11085890100549E-07,-1.46893517012359E-05,2.8125,0,0
1.58650902903901E-06,-1.25242177091422E-05,2.8125,0,0
1.79134246991453E-06,-1.46686506923288E-05,2.8125,0,0
1.86854651929025E-06,-1.02819549283595E-05,2.8125,0,0
2.27783539230586E-06,-1.05312919913558E-05,2.8125,0,0
3.22077085002093E-06,-9.24135565583128E-06,2.8125,0,0
3.24922643812897E-06,-1.01673804238089E-05,2.8125,0,0
2.19424146052916E-06,-1.08056419776403E-05,2.8125,0,0
1.75175068761746E-06,-1.10200699054985E-05,2.8125,0,0
2.37911308431649E-06,-1.12897023427649E-05,2.8125,0,0
3.27439329339541E-06,-1.05065992102027E-05,2.8125,0,0
4.1431926547375E-06,-9.65858180279611E-06,2.8125,0,0
5.13235954713309E-06,-9.49689001572551E-06,2.8125,0,0
6.08166374149732E-06,-1.11543740786146E-05,2.8125,0,0
6.76833451507264E-06,-1.04759183159331E-05,2.8125,0,0
6.71288353260024E-06,-1.05068129414576E-05,2.8125,0,0
6.6080829128623E-06,-9.57559768721694E-06,2.8125,0,0
7.03057503415039E-06,-1.00696006484213E-05,2.8125,0,0
6.93396668793866E-06,-1.05816216091625E-05,2.8125,0,0
6.06535286351573E-06,-1.17373792818398E-05,2.8125,0,0
6.35008063909481E-06,-1.11009530883166E-05,2.8125,0,0
7.02340048519545E-06,-1.20080103442888E-05,2.8125,0,0
7.64116339269094E-06,-1.5470335711143E-05,2.8125,0,0
9.06306649994804E-06,-1.96342170966091E-05,2.8125,0,0
8.97874815564137E-06,-2.18324948946247E-05,2.8125,0,0
7.63743446441367E-06,-2.40223816945218E-05,2.8125,0,0
5.83973132961546E-06,-2.19026896957075E-05,2.8125,0,0
7.80919435783289E-06,-3.11706280626822E-05,2.8125,0,0
5.94496123085264E-06,-2.22148883040063E-05,2.8125,0,0
8.35871560411761E-06,-2.51168548857095E-05,2.8125,0,0
7.29334260540782E-06,-1.64558259712067E-05,2.8125,0,0
7.95717551227426E-06,-1.69129671121482E-05,2.8125,0,0
6.33294575891341E-06,-1.55771158460993E-05,2.8125,0,0
6.30714202998206E-06,-1.9384775441722E-05,2.8125,0,0
6.29201895208098E-06,-2.21807567868382E-05,2.8125,0,0
5.69852090848144E-06,-2.45182163780555E-05,2.8125,0,0
4.73689897262375E-06,-2.66147872025613E-05,2.8125,0,0
4.47804768555216E-06,-2.66206589003559E-05,2.8125,0,0
5.72829640077543E-06,-2.66006536548957E-05,2.8125,0,0
5.89367482461967E-06,-2.3620708816452E-05,2.8125,0,0
6.192226010171E-06,-2.25245039473521E-05,2.8125,0,0
5.53150857740548E-06,-1.9801747839665E-05,2.8125,0,0
4.54514656667016E-06,-2.12467675737571E-05,2.8125,0,0
2.95870427180489E-06,-2.08227593248012E-05,2.8125,0,0
3.40377550855919E-06,-2.08136680157622E-05,2.8125,0,0
4.24968857259955E-06,-1.85799071914516E-05,2.8125,0,0
4.94909727422055E-06,-1.79748931259383E-05,2.8125,0,0
4.38209963249392E-06,-1.62976029969286E-05,2.8125,0,0
4.42689270130359E-06,-1.61854623002E-05,2.8125,0,0
5.05872958456166E-06,-1.49153429447324E-05,2.8125,0,0
6.69330802338663E-06,-1.39502226375043E-05,2.8125,0,0
7.54200755181955E-06,-1.38700488605537E-05,2.8125,0,0
7.84433541412E-06,-1.48277322296053E-05,2.8125,0,0
6.94953905622242E-06,-1.29675254356698E-05,2.8125,0,0
9.73096848611021E-06,-1.86131328518968E-05,2.8125,0,0
4.80744438391412E-06,-1.39202984428266E-05,2.8125,0,0
3.12522706735763E-06,-1.47668242789223E-05,2.8125,0,0
1.20937295378098E-06,-9.39706114877481E-06,2.8125,0,0
3.64243192052527E-06,-1.14832109829877E-05,2.8125,0,0
3.72501745005138E-06,-1.26299755720538E-05,2.8125,0,0
3.50566733686719E-06,-1.42620410770178E-05,2.8125,0,0
3.06970105157234E-06,-1.24489088193513E-05,2.8125,0,0
3.97581425204407E-06,-1.14465492515592E-05,2.8125,0,0
5.54568396182731E-06,-1.18947373266565E-05,2.8125,0,0
5.72218687011627E-06,-1.12185016405419E-05,2.8125,0,0
6.04094384470955E-06,-1.15704451673082E-05,2.8125,0,0
4.71099474452785E-06,-1.1676235772029E-05,2.8125,0,0
3.32949639414437E-06,-1.30966545839328E-05,2.8125,0,0
2.53508801506541E-06,-1.21884113468695E-05,2.8125,0,0
2.99003227155481E-06,-1.46412958201836E-05,2.8125,0,0
2.01281159206701E-06,-1.83900519914459E-05,2.8125,0,0
1.25777933135396E-06,-2.3483946279157E-05,2.8125,0,0
1.00086447218928E-06,-2.55637951340759E-05,2.8125,0,0
2.25984217649966E-06,-2.53479720413452E-05,2.8125,0,0
2.95609538625286E-06,-2.14008196053328E-05,2.8125,0,0
2.62686398855294E-06,-1.92160132428398E-05,2.8125,0,0
2.18442573896027E-06,-1.99881160369841E-05,2.8125,0,0
2.8130973532825E-06,-2.16924854612444E-05,2.8125,0,0
2.92032177640067E-06,-2.31726680794964E-05,2.8125,0,0
3.08306448459916E-06,-2.50659340963466E-05,2.8125,0,0
4.23514529757085E-06,-2.16299467865611E-05,2.8125,0,0
6.90362458044547E-06,-2.96015714411624E-05,2.8125,0,0
5.54521375306649E-06,-1.91873386938823E-05,2.8125,0,0
4.69931273983093E-06,-2.35964671446709E-05,2.8125,0,0
3.43364172294969E-06,-1.97453700820915E-05,2.8125,0,0
4.6153190851328E-06,-2.21606023842469E-05,2.8125,0,0
4.48655509899254E-06,-1.81522427737946E-05,2.8125,0,0
5.09768642587005E-06,-1.74686938407831E-05,2.8125,0,0
4.33428613177966E-06,-1.57655777002219E-05,2.8125,0,0
2.76145465250011E-06,-1.59073024406098E-05,2.8125,0,0
2.42163946495566E-06,-1.67152174981311E-05,2.8125,0,0
2.92428876491613E-06,-1.55943816935178E-05,2.8125,0,0
3.78359550268215E-06,-1.53401088027749E-05,2.8125,0,0
3.18216143568861E-06,-1.42834524012869E-05,2.8125,0,0
1.98814859686536E-06,-1.50107052832027E-05,2.8125,0,0
8.9600142416657E-08,-1.25943015518715E-05,2.8125,0,0
-1.24889334074396E-06,-1.30869539134437E-05,2.8125,0,0
-2.25491817218426E-06,-1.20076147140935E-05,2.8125,0,0
-1.66101096965576E-06,-1.36166609081556E-05,2.8125,0,0
-7.6584871067098E-07,-1.42001135827741E-05,2.8125,0,0
-5.91498860558204E-07,-1.65291567100212E-05,2.8125,0,0
-3.1237453868016E-07,-1.61295247380622E-05,2.8125,0,0
1.39387373110367E-06,-1.4841246411379E-05,2.8125,0,0
1.26489396734542E-06,-1.2142204468546E-05,2.8125,0,0
-7.06920246784648E-08,-1.18158168334048E-05,2.8125,0,0
-3.10742649389795E-07,-1.30140188048244E-05,2.8125,0,0
8.24458766146563E-07,-1.38590539791039E-05,2.8125,0,0
1.36995026878139E-06,-1.18894704428385E-05,2.8125,0,0
1.53231565036549E-06,-1.63942950166529E-05,2.8125,0,0
1.5100783912203E-07,-1.11680428744876E-05,2.8125,0,0
6.11735970323934E-07,-1.3898598808737E-05,2.8125,0,0
1.02184048955678E-06,-1.24866828628001E-05,2.8125,0,0
1.2155504691691E-06,-1.49330589920282E-05,2.8125,0,0
1.04532261957502E-06,-1.57505091920029E-05,2.8125,0,0
5.98988208366791E-07,-1.80976094270591E-05,2.8125,0,0
1.17126342047413E-06,-1.95749762497144E-05,2.8125,0,0
3.39286430062202E-06,-2.17022388824262E-05,2.8125,0,0
4.7453363549721E-06,-2.33202790695941E-05,2.8125,0,0
4.51050755145843E-06,-2.45400733547285E-05,2.8125,0,0
3.69080498785479E-06,-2.68631392827956E-05,2.8125,0,0
2.42588657783926E-06,-2.78159659501398E-05,2.8125,0,0
1.98615043700556E-06,-2.86174927168759E-05,2.8125,0,0
2.59554553849739E-06,-2.61913519352674E-05,2.8125,0,0
3.54378630618157E-06,-2.34107246797066E-05,2.8125,0,0
4.27878740083543E-06,-1.91753642866388E-05,2.8125,0,0
5.00041414852603E-06,-1.67100461112568E-05,2.8125,0,0
5.89262253924971E-06,-1.39636649691965E-05,2.8125,0,0
6.89439366396982E-06,-1.46173906614422E-05,2.8125,0,0
6.68876964482479E-06,-1.85927474376513E-05,2.8125,0,0
4.87574288854375E-06,-2.33341015700717E-05,2.8125,0,0
2.51313986154855E-06,-2.33633199968608E-05,2.8125,0,0
1.34190599965223E-06,-1.99425867322134E-05,2.8125,0,0
9.22367462408147E-07,-1.57933063746896E-05,2.8125,0,0
1.36405242301407E-06,-1.46847478390555E-05,2.8125,0,0
1.76845662736014E-06,-1.08955209725536E-05,2.8125,0,0
3.70169482266647E-06,-1.33743096739636E-05,2.8125,0,0
4.39113819084014E-06,-7.48181446397211E-06,2.8125,0,0
4.87049510411453E-06,-1.08882086351514E-05,2.8125,0,0
4.9185759962711E-06,-9.74507202045061E-06,2.8125,0,0
5.57165412828908E-06,-1.39727781061083E-05,2.8125,0,0
5.25059613210033E-06,-1.55141569848638E-05,2.8125,0,0
4.92269282403868E-06,-1.57637605298078E-05,2.8125,0,0
4.08586674893741E-06,-1.37912456921185E-05,2.8125,0,0
3.74988417206623E-06,-1.46896773003391E-05,2.8125,0,0
4.85204691358376E-06,-1.85682238225127E-05,2.8125,0,0
6.11111590842484E-06,-2.34234921663301E-05,2.8125,0,0
6.56925612929626E-06,-2.89311356027611E-05,2.8125,0,0
6.51745449431473E-06,-3.09802999254316E-05,2.8125,0,0
6.84137285134057E-06,-2.90804418909829E-05,2.8125,0,0
6.86351722833933E-06,-2.12342365557561E-05,2.8125,0,0
6.45741829430335E-06,-1.37827655635192E-05,2.8125,0,0
6.66211917632609E-06,-8.45288923301268E-06,2.8125,0,0
7.45083889341913E-06,-9.72032194113126E-06,2.8125,0,0
6.84427504893392E-06,-1.23896725199302E-05,2.8125,0,0
5.41276085641584E-06,-1.40607735374942E-05,2.8125,0,0
4.47164393335697E-06,-1.35576956381556E-05,2.8125,0,0
4.84838801639853E-06,-1.40144393299124E-05,2.8125,0,0
5.1781726142508E-06,-1.30591733977781E-05,2.8125,0,0
4.87042916574865E-06,-1.09049697130104E-05,2.8125,0,0
4.59616740045021E-06,-8.34995989862364E-06,2.8125,0,0
5.07495133206248E-06,-6.61102967569605E-06,2.8125,0,0
3.79834273189772E-06,-4.91977243655128E-06,2.8125,0,0
3.19612377097656E-06,-7.86943473940482E-06,2.8125,0,0
-1.15226430352777E-06,-6.66217692923965E-06,2.8125,0,0
-5.34156299636379E-07,-6.91367904437357E-06,2.8125,0,0
-5.24665608736541E-07,-4.62112666355097E-06,2.8125,0,0
9.6169492280751E-07,-5.33886941411765E-06,2.8125,0,0
1.29744671539811E-06,-6.40185544398264E-06,2.8125,0,0
2.12228155760386E-06,-6.43050634607789E-06,2.8125,0,0
2.99004341286491E-06,-4.7327439460787E-06,2.8125,0,0
4.97164955959306E-06,-3.94552716898033E-06,2.8125,0,0
5.22281743542408E-06,-6.29727765044663E-06,2.8125,0,0
4.4404155232769E-06,-1.1833257303806E-05,2.8125,0,0
4.25205826104502E-06,-2.05008636839921E-05,2.8125,0,0
3.16262935484701E-06,-2.69611609837739E-05,2.8125,0,0
2.40923077399202E-06,-2.7881222194992E-05,2.8125,0,0
1.28376302654942E-06,-2.5107670808211E-05,2.8125,0,0
5.15226645347866E-07,-2.38169704971369E-05,2.8125,0,0
-6.00683335960639E-07,-2.32793972827494E-05,2.8125,0,0
-6.5773070900832E-07,-2.3450811568182E-05,2.8125,0,0
-9.65035383160284E-07,-2.49314252869226E-05,2.8125,0,0
-1.06689356016432E-06,-2.78537208941998E-05,2.8125,0,0
-6.62619015656674E-07,-2.96051930490648E-05,2.8125,0,0
1.1997178717138E-06,-2.95115387416445E-05,2.8125,0,0
1.7916449905897E-06,-2.77288290817523E-05,2.8125,0,0
1.46869604122912E-06,-2.52711652137805E-05,2.8125,0,0
5.3217780759951E-07,-2.2548361812369E-05,2.8125,0,0
-8.7101028611869E-07,-2.10923553822795E-05,2.8125,0,0
-9.33272872316593E-07,-1.53427972691134E-05,2.8125,0,0
2.04338036269291E-07,-1.98066354641924E-05,2.8125,0,0
2.92116374112084E-06,-1.10375622170977E-05,2.8125,0,0
3.43368174071657E-06,-1.32827181005268E-05,2.8125,0,0
2.77170829576789E-06,-9.72456382442033E-06,2.8125,0,0
1.60676995619724E-06,-1.12047982838703E-05,2.8125,0,0
1.70623138728843E-06,-8.27899748401251E-06,2.8125,0,0
8.01102999048453E-07,-9.78520347416634E-06,2.8125,0,0
8.88172166924051E-07,-8.9038139776676E-06,2.8125,0,0
3.59551518158696E-06,-9.30750138650183E-06,2.8125,0,0
6.15902808931423E-06,-1.16996779979672E-05,2.8125,0,0
5.45860712009016E-06,-1.39498260978144E-05,2.8125,0,0
4.0390527829004E-06,-1.56956884893589E-05,2.8125,0,0
3.79877906198089E-06,-1.37957367769559E-05,2.8125,0,0
3.81248332814721E-06,-1.49196330312407E-05,2.8125,0,0
4.09752874475089E-06,-1.84661566891009E-05,2.8125,0,0
4.5655078793061E-06,-2.59104963333812E-05,2.8125,0,0
5.18557999384939E-06,-2.89549316221382E-05,2.8125,0,0
5.19220930073061E-06,-3.0152446925058E-05,2.8125,0,0
6.04951992499991E-06,-2.91614869638579E-05,2.8125,0,0
6.88569298290531E-06,-2.91380838461919E-05,2.8125,0,0
6.01674264544272E-06,-2.70920900220517E-05,2.8125,0,0
3.70219390788407E-06,-2.55378654401284E-05,2.8125,0,0
1.40849829222134E-06,-2.3545311705675E-05,2.8125,0,0
-2.90951533088446E-07,-2.1411904526758E-05,2.8125,0,0
-4.66621443706572E-08,-1.77590172825148E-05,2.8125,0,0
3.41145579341173E-07,-1.79144390131114E-05,2.8125,0,0
1.22172025385225E-06,-1.75773711816873E-05,2.8125,0,0
2.53332359534397E-06,-2.73154819296906E-05,2.8125,0,0
2.85045189230004E-06,-2.26035062951269E-05,2.8125,0,0
2.51051756094967E-06,-2.40012504946208E-05,2.8125,0,0
1.08522863229155E-06,-1.63959866767982E-05,2.8125,0,0
4.95850372317364E-07,-1.53441324073356E-05,2.8125,0,0
4.13691935818861E-07,-1.37418728627381E-05,2.8125,0,0
1.13737826268334E-06,-1.55464349518297E-05,2.8125,0,0
3.29208523908164E-06,-1.40106440085219E-05,2.8125,0,0
5.90933177591069E-06,-1.39042849696125E-05,2.8125,0,0
6.8995632318547E-06,-1.46673855851986E-05,2.8125,0,0
6.21096523900633E-06,-1.29846339405049E-05,2.8125,0,0
5.8526511566015E-06,-1.19752749014879E-05,2.8125,0,0
7.04334706824739E-06,-1.16798937597196E-05,2.8125,0,0
8.88121667230735E-06,-1.33499743242282E-05,2.8125,0,0
9.91728575172601E-06,-1.17716544991708E-05,2.8125,0,0
9.27436758502154E-06,-1.3065181519778E-05,2.8125,0,0
7.13503277438576E-06,-1.42561120810569E-05,2.8125,0,0
5.91048546993989E-06,-1.55555917444872E-05,2.8125,0,0
5.92259766563075E-06,-1.38274517667014E-05,2.8125,0,0
5.82139637117507E-06,-1.49398501889664E-05,2.8125,0,0
4.08888672609464E-06,-1.56116257130634E-05,2.8125,0,0
1.85666488050629E-06,-1.49665338540217E-05,2.8125,0,0
9.9763394700858E-07,-1.2797115232388E-05,2.8125,0,0
1.04608761830605E-06,-1.31563228933373E-05,2.8125,0,0
1.29564728013065E-06,-1.44878822538885E-05,2.8125,0,0
1.52943005105044E-06,-1.4959244253987E-05,2.8125,0,0
6.78382093610708E-07,-1.24110711112735E-05,2.8125,0,0
1.10215989934659E-06,-1.81137802428566E-05,2.8125,0,0
2.1901494164922E-06,-1.53459168359404E-05,2.8125,0,0
3.80809251510073E-06,-2.01960792765021E-05,2.8125,0,0
3.08224957734637E-06,-1.80672159331152E-05,2.8125,0,0
2.5868807824736E-06,-1.87218302016845E-05,2.8125,0,0
4.23107212554896E-06,-1.5400455595227E-05,2.8125,0,0
6.70191593599156E-06,-1.3519960702979E-05,2.8125,0,0
7.09787127561867E-06,-1.19175101644942E-05,2.8125,0,0
5.38840095032356E-06,-1.20567592603038E-05,2.8125,0,0
2.4988637505885E-06,-1.33795801957604E-05,2.8125,0,0
1.69467216437624E-06,-1.42017470352584E-05,2.8125,0,0
4.01919533032924E-06,-1.49945844896138E-05,2.8125,0,0
6.43536668576417E-06,-1.38375362439547E-05,2.8125,0,0
7.44657290852047E-06,-1.35059808599181E-05,2.8125,0,0
6.3523066273774E-06,-1.18980642582756E-05,2.8125,0,0
4.85755754198181E-06,-1.31562801470864E-05,2.8125,0,0
4.91906894239946E-06,-1.49066827361821E-05,2.8125,0,0
6.0964007388975E-06,-1.80909974005772E-05,2.8125,0,0
6.30345721219783E-06,-1.98020698007895E-05,2.8125,0,0
5.88875855100923E-06,-2.1674160961993E-05,2.8125,0,0
5.11681446369039E-06,-2.10050184250576E-05,2.8125,0,0
4.45401474280516E-06,-1.98197940335376E-05,2.8125,0,0
4.83004532725317E-06,-1.86771831067745E-05,2.8125,0,0
6.28173074801452E-06,-1.897344191093E-05,2.8125,0,0
7.19345689503825E-06,-1.97897334146546E-05,2.8125,0,0
6.64049457554938E-06,-2.02425853785826E-05,2.8125,0,0
3.93468098991434E-06,-1.6055997548392E-05,2.8125,0,0
5.10087465954712E-06,-2.27134914894123E-05,2.8125,0,0
4.13066754845204E-06,-1.74552660610061E-05,2.8125,0,0
6.77709340379806E-06,-2.17794622585643E-05,2.8125,0,0
6.68804341330542E-06,-1.77639485627878E-05,2.8125,0,0
6.28588941253838E-06,-2.0147397663095E-05,2.8125,0,0
3.20768572237284E-06,-1.8497092241887E-05,2.8125,0,0
1.63434106070781E-06,-1.84529362741159E-05,2.8125,0,0
1.70437181168381E-06,-1.58262046170421E-05,2.8125,0,0
3.43061242347176E-06,-1.34178799271467E-05,2.8125,0,0
3.99112605009577E-06,-1.21016873890767E-05,2.8125,0,0
3.43291344506724E-06,-1.05053049992421E-05,2.8125,0,0
3.92559149986482E-06,-1.13240594146191E-05,2.8125,0,0
4.09621134167537E-06,-1.14408239824115E-05,2.8125,0,0
3.50834966411639E-06,-1.22915698739234E-05,2.8125,0,0
1.15904367703479E-06,-1.05953813545057E-05,2.8125,0,0
-1.07149230643699E-06,-1.14399281301303E-05,2.8125,0,0
-2.61745640273148E-06,-1.24722964756074E-05,2.8125,0,0
-2.37882045439619E-06,-1.61111292982241E-05,2.8125,0,0
-2.36570213019149E-06,-1.72671425389126E-05,2.8125,0,0
-1.64092375598557E-06,-1.77825531864073E-05,2.8125,0,0
-4.86392423226789E-07,-1.67771049746079E-05,2.8125,0,0
5.95831124883262E-07,-1.73879470821703E-05,2.8125,0,0
-1.33726434370374E-08,-1.90344653674401E-05,2.8125,0,0
-5.65199059110455E-07,-2.23106508201454E-05,2.8125,0,0
1.17218426964882E-07,-2.45454175455961E-05,2.8125,0,0
1.54001008922933E-06,-2.68243293248815E-05,2.8125,0,0
1.91463072951592E-06,-2.46341605816269E-05,2.8125,0,0
2.832013706211E-06,-3.35843214998022E-05,2.8125,0,0
1.50505047713523E-06,-2.14312349271495E-05,2.8125,0,0
8.51157153647364E-07,-2.50412613240769E-05,2.8125,0,0
5.78395145112154E-07,-2.0022440367029E-05,2.8125,0,0
1.5426130630658E-06,-2.40081080846721E-05,2.8125,0,0
1.54339147684368E-06,-2.09402260225033E-05,2.8125,0,0
1.30327964598109E-06,-2.12547620321857E-05,2.8125,0,0
1.94246149476385E-06,-1.97876925085438E-05,2.8125,0,0
3.93732716474915E-06,-1.88314133993117E-05,2.8125,0,0
5.70561587664997E-06,-1.60995568876388E-05,2.8125,0,0
6.25415759714087E-06,-1.25464939628728E-05,2.8125,0,0
5.73898432776332E-06,-1.28928904814529E-05,2.8125,0,0
3.4048198358505E-06,-1.17938407129259E-05,2.8125,0,0
1.20065965347749E-06,-1.24199586934992E-05,2.8125,0,0
1.36205687795155E-06,-1.01247524071368E-05,2.8125,0,0
3.53260656993371E-06,-1.14009462777176E-05,2.8125,0,0
4.60076989838853E-06,-1.05350245576119E-05,2.8125,0,0
4.17426690546563E-06,-1.18401185318362E-05,2.8125,0,0
2.88741171061702E-06,-9.96612197923241E-06,2.8125,0,0
2.26993734031566E-06,-9.0713583631441E-06,2.8125,0,0
2.47068123826466E-06,-6.37875700704171E-06,2.8125,0,0
2.45367823481502E-06,-5.01511613038019E-06,2.8125,0,0
1.88121407518338E-06,-2.86843464891717E-06,2.8125,0,0
1.83657778052293E-06,-3.62182868229866E-06,2.8125,0,0
3.46562637787429E-06,-3.93293521483429E-06,2.8125,0,0
4.61686477137846E-06,-3.45198031936889E-06,2.8125,0,0
2.0369668618514E-06,-1.96519067685585E-06,2.8125,0,0
2.1208061298239E-06,-3.04698073705367E-06,2.8125,0,0
8.05476361165347E-07,-4.96868506161263E-06,2.8125,0,0
1.24430198411574E-06,-7.70139740779996E-06,2.8125,0,0
3.32726870055922E-07,-9.76965111476602E-06,2.8125,0,0
1.67271423379134E-06,-1.46721304190578E-05,2.8125,0,0
2.24552877625683E-06,-2.0011870219605E-05,2.8125,0,0
1.22634128274512E-06,-2.54185979429167E-05,2.8125,0,0
-3.52271740666765E-07,-2.86398608295713E-05,2.8125,0,0
-5.85787688578421E-07,-3.15717807097826E-05,2.8125,0,0
-2.27333263325136E-08,-3.69776607840322E-05,2.8125,0,0
5.23392429840897E-07,-4.35859074059408E-05,2.8125,0,0
1.68127121469297E-06,-4.67455247417092E-05,2.8125,0,0
2.49527715823206E-06,-4.37959679402411E-05,2.8125,0,0
2.58548470810638E-06,-3.83353290089872E-05,2.8125,0,0
1.42888336540636E-06,-3.43494757544249E-05,2.8125,0,0
6.53862002764072E-07,-3.31498158629984E-05,2.8125,0,0
8.3284925267435E-07,-3.15575452987105E-05,2.8125,0,0
1.7649529127084E-06,-2.84930683847051E-05,2.8125,0,0
2.70968166660168E-06,-2.40400040638633E-05,2.8125,0,0
4.38941651736968E-06,-2.1543555703829E-05,2.8125,0,0
5.57137491341564E-06,-2.04750413104193E-05,2.8125,0,0
5.93153026784421E-06,-1.86731685971608E-05,2.8125,0,0
5.40392647963017E-06,-1.66849440574879E-05,2.8125,0,0
4.9342461352353E-06,-1.61741081683431E-05,2.8125,0,0
5.60175840291777E-06,-1.56809164764127E-05,2.8125,0,0
5.93766617384972E-06,-1.45057938425452E-05,2.8125,0,0
4.21473350797896E-06,-1.10062546809786E-05,2.8125,0,0
7.05819275026442E-06,-1.64864359248895E-05,2.8125,0,0
6.72359692543978E-06,-1.44607947731856E-05,2.8125,0,0
6.14075588600826E-06,-1.77449728653301E-05,2.8125,0,0
2.10145253731753E-06,-1.40306901812437E-05,2.8125,0,0
1.57480349116668E-06,-1.41058935696492E-05,2.8125,0,0
1.78333812073106E-06,-1.28078900161199E-05,2.8125,0,0
2.48449759965297E-06,-1.44775158332777E-05,2.8125,0,0
2.11090764423716E-06,-1.46850770761375E-05,2.8125,0,0
1.42994963425735E-06,-1.46780403156299E-05,2.8125,0,0
1.82787232461123E-06,-1.36383678182028E-05,2.8125,0,0
2.87263651443936E-06,-1.2572604646266E-05,2.8125,0,0
2.92335789708886E-06,-1.25325404951582E-05,2.8125,0,0
1.21279651921213E-06,-1.17698018584633E-05,2.8125,0,0
4.52613392099011E-07,-1.28233141367673E-05,2.8125,0,0
5.25143832419417E-07,-1.2472130038077E-05,2.8125,0,0
1.36332221245539E-06,-1.27010525829974E-05,2.8125,0,0
1.31905858324899E-06,-1.16864457595511E-05,2.8125,0,0
2.05183937396214E-06,-1.24254893307807E-05,2.8125,0,0
4.49715935246786E-06,-1.21321054393775E-05,2.8125,0,0
7.04515969118802E-06,-1.21972962006112E-05,2.8125,0,0
6.15423232375178E-06,-1.06125307866023E-05,2.8125,0,0
4.02981459046714E-06,-9.68141830526292E-06,2.8125,0,0
3.51479570781521E-06,-9.0430921773077E-06,2.8125,0,0
4.52290851171711E-06,-9.50348749029217E-06,2.8125,0,0
4.84963356939261E-06,-9.16282988328021E-06,2.8125,0,0
4.72256806460791E-06,-8.81374126038281E-06,2.8125,0,0
3.54345024788927E-06,-7.77292279963149E-06,2.8125,0,0
5.42309635420679E-06,-1.32541981656686E-05,2.8125,0,0
4.66243500341079E-06,-1.36871312861331E-05,2.8125,0,0
6.32743604001007E-06,-1.46826414493262E-05,2.8125,0,0
6.02671752858441E-06,-1.07393534563016E-05,2.8125,0,0
5.33197226104676E-06,-1.19963860925054E-05,2.8125,0,0
4.7079665819183E-06,-1.45019348565256E-05,2.8125,0,0
6.30746490060119E-06,-2.09301069844514E-05,2.8125,0,0
6.80578023093403E-06,-2.67991636064835E-05,2.8125,0,0
5.20183675689623E-06,-2.97311362373875E-05,2.8125,0,0
3.74224418919766E-06,-2.89945473923581E-05,2.8125,0,0
4.47586262453115E-06,-2.62112225755118E-05,2.8125,0,0
5.4571401051362E-06,-2.40465833485359E-05,2.8125,0,0
4.13218685935135E-06,-2.17284577956889E-05,2.8125,0,0
3.03154729408561E-06,-2.07098564715125E-05,2.8125,0,0
3.39306757268787E-06,-1.96012406377122E-05,2.8125,0,0
4.25511098001152E-06,-2.12818322324893E-05,2.8125,0,0
3.22008691000519E-06,-2.292542012583E-05,2.8125,0,0
2.09714403354155E-06,-2.37433687289013E-05,2.8125,0,0
2.34510594054882E-06,-2.19876565097366E-05,2.8125,0,0
3.78949471269152E-06,-2.05987926165108E-05,2.8125,0,0
4.6919890337449E-06,-2.00511422008276E-05,2.8125,0,0
5.17059015692212E-06,-2.03574036277132E-05,2.8125,0,0
3.78776758225285E-06,-2.0012785171275E-05,2.8125,0,0
1.91711569641484E-06,-1.93048308574362E-05,2.8125,0,0
1.16389981030807E-06,-1.80350434675347E-05,2.8125,0,0
1.02756712294649E-06,-1.72855525306659E-05,2.8125,0,0
1.37215272388858E-06,-1.40117490445846E-05,2.8125,0,0
2.05497985916736E-06,-1.99434271053178E-05,2.8125,0,0
9.18750458822615E-07,-1.6192714610952E-05,2.8125,0,0
-2.51796109296265E-07,-2.23720344365574E-05,2.8125,0,0
9.74504530404374E-08,-2.0966530428268E-05,2.8125,0,0
2.0365473574202E-06,-2.29318411584245E-05,2.8125,0,0
2.62953540186572E-06,-2.12058948818594E-05,2.8125,0,0
2.19747948904114E-06,-2.13424900721293E-05,2.8125,0,0
1.48482035911002E-06,-2.03861509362469E-05,2.8125,0,0
1.46934223721473E-06,-2.03703457373194E-05,2.8125,0,0
1.40297447615012E-06,-2.02787723537767E-05,2.8125,0,0
1.67713892551546E-06,-1.90772334462963E-05,2.8125,0,0
2.47420712184976E-06,-1.83242318598786E-05,2.8125,0,0
3.86298688681563E-06,-1.7081565601984E-05,2.8125,0,0
5.61719343750156E-06,-1.85849039553432E-05,2.8125,0,0
7.05808452039491E-06,-1.86618071893463E-05,2.8125,0,0
8.37079096527305E-06,-1.79235103132669E-05,2.8125,0,0
9.27645669435151E-06,-1.40370802910184E-05,2.8125,0,0
9.48172510106815E-06,-1.38718487505685E-05,2.8125,0,0
7.94003699411405E-06,-1.48451672430383E-05,2.8125,0,0
5.77091077502701E-06,-1.74157867149916E-05,2.8125,0,0
4.3667241698131E-06,-1.85835033335024E-05,2.8125,0,0
4.8138740567083E-06,-1.87386649486143E-05,2.8125,0,0
6.33036506769713E-06,-1.61997268151026E-05,2.8125,0,0
7.89584828453371E-06,-1.39804806167376E-05,2.8125,0,0
8.1694715845515E-06,-1.29403169921716E-05,2.8125,0,0
7.8153525464586E-06,-1.22916271720896E-05,2.8125,0,0
6.25965549261309E-06,-1.13188616523985E-05,2.8125,0,0
6.92989760864293E-06,-1.59081337187672E-05,2.8125,0,0
1.6449997701784E-06,-1.20754330055206E-05,2.8125,0,0
1.46329227845854E-06,-1.78553091245703E-05,2.8125,0,0
-5.52985454760346E-07,-1.77915135282092E-05,2.8125,0,0
1.10267967556865E-06,-1.75119603227358E-05,2.8125,0,0
1.98048473976087E-06,-1.56067326315679E-05,2.8125,0,0
4.0925351640908E-06,-1.64917746587889E-05,2.8125,0,0
5.29535873283749E-06,-1.57180311362026E-05,2.8125,0,0
6.42373652226524E-06,-1.45218045872753E-05,2.8125,0,0
7.41594203645946E-06,-1.46744778248831E-05,2.8125,0,0
7.02864917911938E-06,-1.55613797687693E-05,2.8125,0,0
5.78027311348706E-06,-1.64931479957886E-05,2.8125,0,0
4.14795658798539E-06,-1.46491856867215E-05,2.8125,0,0
4.67828340333654E-06,-1.37449078465579E-05,2.8125,0,0
4.9220611799683E-06,-1.27026560221566E-05,2.8125,0,0
5.41961708222516E-06,-1.34108531710808E-05,2.8125,0,0
5.36379593540914E-06,-1.25024107546778E-05,2.8125,0,0
6.1253836065589E-06,-1.1545776942512E-05,2.8125,0,0
5.99408622292685E-06,-1.00599390862044E-05,2.8125,0,0
5.08442053614999E-06,-1.05283397715539E-05,2.8125,0,0
2.99035855277907E-06,-1.05456801975379E-05,2.8125,0,0
2.54964311352524E-06,-1.01275527413236E-05,2.8125,0,0
2.70215309683408E-06,-9.71218196355039E-06,2.8125,0,0
3.05150661006337E-06,-1.10127166408347E-05,2.8125,0,0
3.70423958884203E-06,-1.25771330203861E-05,2.8125,0,0
4.85793634652509E-06,-1.51023596117739E-05,2.8125,0,0
3.14729868478025E-06,-1.32043487610645E-05,2.8125,0,0
2.33108244174218E-06,-1.98269972315757E-05,2.8125,0,0
-5.32263356944895E-07,-1.78524187504081E-05,2.8125,0,0
1.26269483757824E-07,-2.25166131713195E-05,2.8125,0,0
-3.40308901058961E-07,-1.88296144187916E-05,2.8125,0,0
2.16377179640403E-06,-2.03774688998237E-05,2.8125,0,0
2.76611081062583E-06,-2.00140839297092E-05,2.8125,0,0
1.95739767150371E-06,-2.15385316550964E-05,2.8125,0,0
2.96336651217644E-07,-2.00299546122551E-05,2.8125,0,0
2.61379142330043E-07,-1.89972906809999E-05,2.8125,0,0
1.28384226627531E-06,-1.97774079424562E-05,2.8125,0,0
1.50583889535483E-06,-1.97279259737115E-05,2.8125,0,0
1.54336453306314E-06,-1.98066627490334E-05,2.8125,0,0
1.43492047754989E-06,-1.79449052666314E-05,2.8125,0,0
2.68916778622952E-06,-1.53948822116945E-05,2.8125,0,0
3.8924404179852E-06,-9.9870458143414E-06,2.8125,0,0
4.87120814796072E-06,-7.28949407857726E-06,2.8125,0,0
4.447905212146E-06,-4.25581401941599E-06,2.8125,0,0
4.11784549214644E-06,-2.00093268176715E-06,2.8125,0,0
4.15205431636423E-06,-1.84150849236175E-07,2.8125,0,0
4.61466015622136E-06,-2.93879497803573E-06,2.8125,0,0
3.84148506782367E-06,-6.16617626292282E-06,2.8125,0,0
3.62090395356063E-06,-9.63393176789396E-06,2.8125,0,0
3.29552426592272E-06,-1.18330535769928E-05,2.8125,0,0
3.41795362146513E-06,-1.39433586809901E-05,2.8125,0,0
3.57845192411332E-06,-1.60083727678284E-05,2.8125,0,0
2.87836360257643E-06,-1.8850842025131E-05,2.8125,0,0
1.22718847705983E-06,-1.90566515811952E-05,2.8125,0,0
9.51867264120665E-07,-2.88032460957766E-05,2.8125,0,0
-1.97669393742217E-07,-2.3130309273256E-05,2.8125,0,0
-1.75858190232248E-07,-2.67964223894523E-05,2.8125,0,0
-1.39928465614503E-06,-2.30307250603801E-05,2.8125,0,0
-1.8001666148848E-06,-2.49306904152036E-05,2.8125,0,0
-1.44192540574295E-06,-2.13969087781152E-05,2.8125,0,0
3.19678775895227E-07,-2.29571014642715E-05,2.8125,0,0
2.2139388420328E-06,-2.36050109378994E-05,2.8125,0,0
2.79064988717437E-06,-2.26215524889994E-05,2.8125,0,0
1.79376809228415E-06,-2.11337846849347E-05,2.8125,0,0
1.15229863695276E-06,-2.06224285648204E-05,2.8125,0,0
9.80462687039108E-07,-2.28482913371408E-05,2.8125,0,0
8.43547525164468E-07,-2.29890447371872E-05,2.8125,0,0
1.54158908571844E-06,-2.35114584938856E-05,2.8125,0,0
2.07548760045029E-06,-2.1526282580453E-05,2.8125,0,0
2.67270706899581E-06,-2.24945852096425E-05,2.8125,0,0
3.30796956404811E-06,-2.17741071537603E-05,2.8125,0,0
3.61821139449603E-06,-2.25245476030977E-05,2.8125,0,0
2.94114943244495E-06,-2.10413090826478E-05,2.8125,0,0
3.00508008876932E-06,-2.04592288355343E-05,2.8125,0,0
3.45624539477285E-06,-1.8865617676056E-05,2.8125,0,0
4.41423026131815E-06,-1.80025526788086E-05,2.8125,0,0
4.83939766127151E-06,-1.62706928676926E-05,2.8125,0,0
3.86435067412094E-06,-1.6382666217396E-05,2.8125,0,0
3.23421500070253E-06,-1.75148470589193E-05,2.8125,0,0
3.15455486088467E-06,-1.82703242899152E-05,2.8125,0,0
2.98957547784084E-06,-1.47206874316907E-05,2.8125,0,0
4.13044608649216E-06,-2.18042714550393E-05,2.8125,0,0
3.1768699955137E-06,-1.86716715688817E-05,2.8125,0,0
4.20163360104198E-06,-2.28152803174453E-05,2.8125,0,0
3.473175183899E-06,-1.91598646779312E-05,2.8125,0,0
3.53334030478436E-06,-2.09865738725057E-05,2.8125,0,0
3.03431170323165E-06,-1.8721801097854E-05,2.8125,0,0
3.6863207242277E-06,-1.80245006049518E-05,2.8125,0,0
4.05350829169038E-06,-1.70455314218998E-05,2.8125,0,0
3.2694888432161E-06,-1.83086358447326E-05,2.8125,0,0
1.12230372906197E-06,-1.84550353878876E-05,2.8125,0,0
-4.13533626897333E-07,-1.52076954691438E-05,2.8125,0,0
3.44694086606978E-07,-1.27434150272165E-05,2.8125,0,0
1.859433723439E-06,-1.17501213026117E-05,2.8125,0,0
3.42635803463054E-06,-1.41940627145232E-05,2.8125,0,0
3.21506718137243E-06,-1.42631397466175E-05,2.8125,0,0
2.44470038524014E-06,-1.46545708048507E-05,2.8125,0,0
2.66373308477341E-06,-1.3999317161506E-05,2.8125,0,0
4.36350774180028E-06,-1.6183690604521E-05,2.8125,0,0
4.90688262289041E-06,-1.78832160599995E-05,2.8125,0,0
5.35231174580986E-06,-1.97537410713267E-05,2.8125,0,0
5.7409733926761E-06,-1.81273426278494E-05,2.8125,0,0
5.53324480279116E-06,-1.5160290786298E-05,2.8125,0,0
4.81622237202828E-06,-1.19192345664487E-05,2.8125,0,0
4.389580226416E-06,-1.21698813018156E-05,2.8125,0,0
3.97871463064803E-06,-1.33614166770712E-05,2.8125,0,0
3.16708292302792E-06,-1.44883542816387E-05,2.8125,0,0
2.73296313935134E-06,-1.28182246044162E-05,2.8125,0,0
4.6485101847793E-06,-1.96167438843986E-05,2.8125,0,0
2.7142054932483E-06,-1.64893099281471E-05,2.8125,0,0
6.6243109131392E-07,-1.81827344931662E-05,2.8125,0,0
-1.05910885395133E-06,-1.3194880921219E-05,2.8125,0,0
-1.3339258657652E-06,-1.36522903630976E-05,2.8125,0,0
-1.25615463275608E-06,-1.47472956086858E-05,2.8125,0,0
-2.26420851845432E-07,-2.08952442335431E-05,2.8125,0,0
1.16283570150699E-06,-2.44524835579796E-05,2.8125,0,0
1.97769622900523E-06,-2.46386789513053E-05,2.8125,0,0
1.66218069352908E-06,-2.25578605750343E-05,2.8125,0,0
1.23401696328074E-06,-1.93337946257088E-05,2.8125,0,0
1.51419385474583E-06,-1.7269199815928E-05,2.8125,0,0
2.51232290793268E-06,-1.50097739606281E-05,2.8125,0,0
4.40701751358574E-06,-1.55409052240429E-05,2.8125,0,0
5.25739051226992E-06,-1.51949452629196E-05,2.8125,0,0
4.92748449687497E-06,-1.56196638272377E-05,2.8125,0,0
4.86550516143325E-06,-1.44933637784561E-05,2.8125,0,0
4.70727263746085E-06,-1.48677709148615E-05,2.8125,0,0
3.75969739252469E-06,-1.47254604598857E-05,2.8125,0,0
3.35802201334445E-06,-1.52776137838373E-05,2.8125,0,0
2.15590625884943E-06,-1.40732072395622E-05,2.8125,0,0
2.75677336958324E-07,-1.40737784022349E-05,2.8125,0,0
-3.23535346069548E-07,-1.60153595061274E-05,2.8125,0,0
1.60983734076581E-06,-1.95534703379963E-05,2.8125,0,0
3.46643560078519E-06,-2.10595990211004E-05,2.8125,0,0
3.86563306165044E-06,-2.01504481083248E-05,2.8125,0,0
3.67719871974259E-06,-1.57961258082651E-05,2.8125,0,0
5.3542826208286E-06,-2.09965965041192E-05,2.8125,0,0
3.92285346606513E-06,-1.1471785910544E-05,2.8125,0,0
4.60442561234231E-06,-1.32666955323657E-05,2.8125,0,0
3.91049161407864E-06,-1.14731801659218E-05,2.8125,0,0
3.72883687305148E-06,-1.64166012837086E-05,2.8125,0,0
3.50435607288091E-06,-1.68818023666972E-05,2.8125,0,0
5.13870918439352E-06,-1.69695340446197E-05,2.8125,0,0
5.12828501086915E-06,-1.4014678527019E-05,2.8125,0,0
4.63483956991695E-06,-1.29677709992393E-05,2.8125,0,0
5.28394275534083E-06,-1.42115268317866E-05,2.8125,0,0
5.82326401854516E-06,-1.55919824464945E-05,2.8125,0,0
5.03790079164901E-06,-2.0268253138056E-05,2.8125,0,0
3.70026941709511E-06,-2.37073800235521E-05,2.8125,0,0
4.05318087359774E-06,-2.52264198934427E-05,2.8125,0,0
4.06696972277132E-06,-2.20609726966359E-05,2.8125,0,0
3.82173857360613E-06,-2.04252883122535E-05,2.8125,0,0
3.26510485137987E-06,-1.81258965312736E-05,2.8125,0,0
3.44015029440925E-06,-1.74214674188988E-05,2.8125,0,0
2.91971832666604E-06,-1.56028800120112E-05,2.8125,0,0
1.75534307800262E-06,-1.46932006828138E-05,2.8125,0,0
6.63480705043185E-07,-1.30030766740674E-05,2.8125,0,0
1.66540007739968E-06,-1.3009058420721E-05,2.8125,0,0
3.14689509650634E-06,-1.31570077428478E-05,2.8125,0,0
3.77145192942407E-06,-1.39608764584409E-05,2.8125,0,0
3.02983607980423E-06,-1.38598943522084E-05,2.8125,0,0
3.00116153084673E-06,-1.27612074720673E-05,2.8125,0,0
3.67750726582017E-06,-8.87256373971468E-06,2.8125,0,0
5.22249820278375E-06,-1.20307931865682E-05,2.8125,0,0
2.84641373582417E-06,-7.95752293925034E-06,2.8125,0,0
2.89124386654294E-06,-9.63086768024368E-06,2.8125,0,0
3.57466433342779E-06,-8.86331599758705E-06,2.8125,0,0
5.70358633922297E-06,-1.16367200462264E-05,2.8125,0,0
5.55470842300565E-06,-1.18174893941614E-05,2.8125,0,0
5.56785653316183E-06,-1.34677884489065E-05,2.8125,0,0
5.74026080357726E-06,-1.43024062708719E-05,2.8125,0,0
5.48863363292185E-06,-1.60579529620009E-05,2.8125,0,0
4.79575737699633E-06,-1.77848869498121E-05,2.8125,0,0
3.56675286639074E-06,-1.79699127329513E-05,2.8125,0,0
3.06754714074486E-06,-1.80878432729514E-05,2.8125,0,0
3.68044788956468E-06,-1.81968098331708E-05,2.8125,0,0
4.73069167128415E-06,-1.94654676306527E-05,2.8125,0,0
4.4226944737602E-06,-1.87240202649264E-05,2.8125,0,0
3.69996405424899E-06,-1.9207702280255E-05,2.8125,0,0
3.5114421734761E-06,-1.97668523469474E-05,2.8125,0,0
5.22593018104089E-06,-2.0961721020285E-05,2.8125,0,0
5.85692441745778E-06,-1.98909983737394E-05,2.8125,0,0
4.04954289479065E-06,-1.8953658582177E-05,2.8125,0,0
1.20120876090368E-06,-1.80193910637172E-05,2.8125,0,0
7.10414553850569E-07,-1.8550321328803E-05,2.8125,0,0
1.99235796571884E-06,-1.81887717189966E-05,2.8125,0,0
2.09536915463104E-06,-1.68120259331772E-05,2.8125,0,0
1.29020497752208E-06,-1.56706446432509E-05,2.8125,0,0
2.71276007879351E-06,-1.52463999256724E-05,2.8125,0,0
3.12829502036038E-06,-1.29294803627999E-05,2.8125,0,0
3.66483141078788E-06,-1.94401127373567E-05,2.8125,0,0
2.2442143290391E-06,-1.5787773008924E-05,2.8125,0,0
3.933506377507E-06,-1.8047485355055E-05,2.8125,0,0
5.06153219248517E-06,-1.38110026455252E-05,2.8125,0,0
6.78969945511199E-06,-1.65531419042964E-05,2.8125,0,0
5.12739052282996E-06,-1.83987358468585E-05,2.8125,0,0
3.80989445147861E-06,-2.00205686269328E-05,2.8125,0,0
3.59940804628422E-06,-1.87244386324892E-05,2.8125,0,0
4.26670203523827E-06,-1.84082928171847E-05,2.8125,0,0
3.77212745661382E-06,-1.96727323782397E-05,2.8125,0,0
3.11085705106962E-06,-2.05058458959684E-05,2.8125,0,0
4.04754200644675E-06,-2.16536664083833E-05,2.8125,0,0
5.2511713874992E-06,-2.14844039874151E-05,2.8125,0,0
6.08381151323556E-06,-2.19152370846132E-05,2.8125,0,0
5.52453229829553E-06,-1.97716235561529E-05,2.8125,0,0
5.05711341247661E-06,-1.79579546966124E-05,2.8125,0,0
3.92754873246304E-06,-1.55580582941184E-05,2.8125,0,0
3.52272490999894E-06,-1.63019212777726E-05,2.8125,0,0
3.67916959476133E-06,-1.68432961800136E-05,2.8125,0,0
3.72854606212059E-06,-1.7688831576379E-05,2.8125,0,0
2.1940179522062E-06,-1.71227766259108E-05,2.8125,0,0
6.88412342242373E-07,-1.77854744833894E-05,2.8125,0,0
-4.89111073420645E-07,-1.85508342838148E-05,2.8125,0,0
-2.26047419005226E-07,-1.91246090253117E-05,2.8125,0,0
1.1846098004753E-06,-2.02631363208639E-05,2.8125,0,0
4.13522548114997E-06,-2.27069576794747E-05,2.8125,0,0
5.03672617924167E-06,-1.98630732484162E-05,2.8125,0,0
5.58145757167949E-06,-2.72138950094813E-05,2.8125,0,0
2.57795420566254E-07,-1.93628657143563E-05,2.8125,0,0
-8.0340646491095E-07,-2.39416131080361E-05,2.8125,0,0
-1.77771619291889E-06,-1.93388677871553E-05,2.8125,0,0
-2.68840256723024E-08,-2.19016164919594E-05,2.8125,0,0
3.85359243182393E-07,-1.87388268386712E-05,2.8125,0,0
7.67495009768027E-07,-1.8859884221456E-05,2.8125,0,0
-5.32653587015375E-07,-1.67632460943423E-05,2.8125,0,0
-2.0698273601738E-06,-1.66527806868544E-05,2.98828125,0,0
-2.37651624956925E-06,-1.86069773917552E-05,2.98828125,0,0
-9.60776219471882E-07,-2.00207850866718E-05,2.98828125,0,0
1.47494984048535E-06,-2.12454324355349E-05,2.98828125,0,0
1.78041921117256E-06,-1.89177917491179E-05,2.98828125,0,0
1.3064577615296E-06,-1.76439043571008E-05,2.98828125,0,0
7.54270615743735E-07,-1.54954504978377E-05,2.98828125,0,0
1.5861548945395E-06,-1.89357942872448E-05,2.98828125,0,0
2.10774669540115E-06,-1.98166835616576E-05,2.98828125,0,0
1.90473281236336E-06,-2.06420427275589E-05,2.98828125,0,0
3.95604388359061E-07,-1.84376913239248E-05,2.98828125,0,0
7.17157888630027E-07,-1.72823893080931E-05,2.98828125,0,0
2.69761767413002E-06,-1.52766679093475E-05,2.98828125,0,0
4.84744350615074E-06,-1.51696631291998E-05,2.98828125,0,0
4.31744001616607E-06,-1.38243603942101E-05,2.98828125,0,0
3.8737944123568E-06,-1.32044278871035E-05,2.98828125,0,0
4.9434042921348E-06,-1.19362803161494E-05,2.98828125,0,0
5.10149357069167E-06,-1.14077956823166E-05,2.98828125,0,0
2.58688965004694E-06,-1.05172830444644E-05,2.98828125,0,0
3.54726830664731E-06,-1.47337595990393E-05,2.98828125,0,0
4.75899378216127E-06,-1.04424216260668E-05,2.98828125,0,0
7.03543628333136E-06,-1.19685400932212E-05,2.98828125,0,0
5.87104113947134E-06,-8.95902576303342E-06,2.98828125,0,0
7.05698357705842E-06,-1.03372503872379E-05,2.98828125,0,0
7.24528445061878E-06,-9.80268669081852E-06,2.98828125,0,0
6.84197857481195E-06,-1.0009193829319E-05,2.98828125,0,0
6.08770187682239E-06,-9.29503676161403E-06,2.98828125,0,0
7.17763577995356E-06,-9.26878965401556E-06,2.98828125,0,0
7.94833613326773E-06,-1.05787057691487E-05,2.98828125,0,0
6.99369729773025E-06,-1.34422316477867E-05,2.98828125,0,0
6.14104419582873E-06,-1.67455891642021E-05,2.98828125,0,0
5.42034558748128E-06,-1.59142909978982E-05,2.98828125,0,0
5.22176696904353E-06,-1.48610606629518E-05,2.98828125,0,0
5.31850128027145E-06,-1.41339032779797E-05,2.98828125,0,0
6.03076796323876E-06,-1.60503750521457E-05,2.98828125,0,0
5.78417530050501E-06,-1.73213884409051E-05,2.98828125,0,0
5.9430153669382E-06,-2.01658021978801E-05,2.98828125,0,0
6.47741308057448E-06,-2.32277907343814E-05,2.98828125,0,0
6.84667065797839E-06,-2.75622041954193E-05,2.98828125,0,0
5.35097842657706E-06,-2.97998631140217E-05,2.98828125,0,0
4.27428994953516E-06,-2.94797373499023E-05,2.98828125,0,0
4.09053291150485E-06,-2.59952303167665E-05,2.98828125,0,0
4.94005689688493E-06,-2.29913457587827E-05,2.98828125,0,0
5.1299789447512E-06,-2.17034903471358E-05,2.98828125,0,0
5.10120662511326E-06,-2.05491396627622E-05,2.98828125,0,0
5.0373314479657E-06,-1.59162063937401E-05,2.98828125,0,0
7.42224437999539E-06,-2.22600119741401E-05,2.98828125,0,0
5.58737656319863E-06,-1.60377639986109E-05,2.98828125,0,0
6.34823300060816E-06,-2.00994472834282E-05,2.98828125,0,0
4.8134379539988E-06,-1.66006320796441E-05,2.98828125,0,0
5.16156842422788E-06,-1.68030237546191E-05,2.98828125,0,0
4.70529221274774E-06,-1.32567292894237E-05,2.98828125,0,0
3.94022345062695E-06,-1.54234749061288E-05,2.98828125,0,0
1.90925152310228E-06,-1.74609067471465E-05,2.98828125,0,0
1.12715781597217E-06,-1.91747731150826E-05,2.98828125,0,0
1.25773431136622E-06,-1.96597211470362E-05,2.98828125,0,0
5.00261990055151E-07,-1.85907083505299E-05,2.98828125,0,0
-6.49671790142747E-07,-1.75401055457769E-05,2.98828125,0,0
-1.44716852901183E-06,-1.47710316014127E-05,2.98828125,0,0
1.98417851038357E-07,-1.57055255840532E-05,2.98828125,0,0
1.45781893934327E-06,-1.55538582475856E-05,2.98828125,0,0
1.82769144885242E-06,-1.48711706060567E-05,2.98828125,0,0
1.89137733741518E-06,-1.05400358734187E-05,2.98828125,0,0
3.89750175600057E-06,-7.92794344306458E-06,2.98828125,0,0
4.58429622085532E-06,-4.7263811211451E-06,2.98828125,0,0
3.51661424247141E-06,-3.78560730496247E-06,2.98828125,0,0
2.33089008361276E-06,-2.80194808510714E-06,2.98828125,0,0
1.96962264453759E-06,-2.62342518908554E-06,2.98828125,0,0
1.8348489447817E-06,-2.53286816587206E-06,2.98828125,0,0
2.56678026744339E-06,-5.72568796997075E-06,2.98828125,0,0
3.23546169056499E-06,-1.06890074675903E-05,2.98828125,0,0
2.99499424727401E-06,-1.55228190124035E-05,2.98828125,0,0
3.42400630870543E-06,-1.44436089613009E-05,2.98828125,0,0
8.23680511530256E-06,-2.01056864170823E-05,2.98828125,0,0
1.00612987807835E-05,-1.58330403792206E-05,2.98828125,0,0
8.11126938060625E-06,-2.03725012397626E-05,2.98828125,0,0
4.48317041445989E-06,-1.6600144590484E-05,2.98828125,0,0
2.74938884103904E-06,-1.89142901945161E-05,2.98828125,0,0
2.4513738026144E-06,-2.04715743166162E-05,2.98828125,0,0
4.34544654126512E-06,-2.53732141572982E-05,2.98828125,0,0
5.03459250467131E-06,-2.61111435975181E-05,2.98828125,0,0
5.39536540600238E-06,-2.64368627540534E-05,2.98828125,0,0
5.31233445144608E-06,-2.95416302833473E-05,2.98828125,0,0
4.40598796558334E-06,-3.29217946273275E-05,2.98828125,0,0
3.53866016666871E-06,-3.55263473466039E-05,2.98828125,0,0
3.30791613123438E-06,-3.30727962136734E-05,2.98828125,0,0
4.11935025113053E-06,-2.86262402369175E-05,2.98828125,0,0
3.98486781705287E-06,-2.13244893529918E-05,2.98828125,0,0
2.96031839752686E-06,-1.72284690052038E-05,2.98828125,0,0
1.16309377062862E-06,-1.37994584292755E-05,2.98828125,0,0
8.18086220988334E-07,-1.47491055031423E-05,2.98828125,0,0
2.15722889151948E-06,-1.66996178450063E-05,2.98828125,0,0
3.97117810280179E-06,-1.85468288691482E-05,2.98828125,0,0
4.30979207521887E-06,-1.71357878571143E-05,2.98828125,0,0
3.43929445989488E-06,-1.57448248501169E-05,2.98828125,0,0
2.02986916519876E-06,-1.44702926263562E-05,2.98828125,0,0
1.60260299253423E-06,-1.54223343997728E-05,2.98828125,0,0
2.39363293985662E-06,-1.63671684276778E-05,2.98828125,0,0
2.90841262540198E-06,-1.76679041032912E-05,2.98828125,0,0
1.91124559023592E-06,-1.497875291534E-05,2.98828125,0,0
3.09936308440228E-06,-2.01007387659047E-05,2.98828125,0,0
3.77990772904013E-06,-1.31162123579998E-05,2.98828125,0,0
4.3497716433194E-06,-1.57972426677588E-05,2.98828125,0,0
2.49042363975605E-06,-1.06328498077346E-05,2.98828125,0,0
2.32688466894615E-06,-1.06466013676254E-05,2.98828125,0,0
1.90484581708006E-06,-9.66380503086839E-06,2.98828125,0,0
1.64897130616737E-06,-1.37227934828843E-05,2.98828125,0,0
1.79545952505578E-06,-1.41981017804937E-05,2.98828125,0,0
2.11211226996966E-06,-1.21974808280356E-05,2.98828125,0,0
2.72022748504241E-06,-1.10193977889139E-05,2.98828125,0,0
3.33862271872931E-06,-1.04150467450381E-05,2.98828125,0,0
2.87568173007458E-06,-1.25970209410298E-05,2.98828125,0,0
9.76869500846078E-07,-1.39657267936855E-05,2.98828125,0,0
-6.5117757230837E-07,-1.56442802108359E-05,2.98828125,0,0
-1.27496321056242E-06,-1.47969658428337E-05,2.98828125,0,0
-6.86975454300409E-07,-1.65116816788213E-05,2.98828125,0,0
-4.03483284117101E-07,-1.68819151440402E-05,2.98828125,0,0
-7.47624653740786E-07,-1.72397212736541E-05,2.98828125,0,0
-1.09990173768892E-06,-1.51334324982599E-05,2.98828125,0,0
1.90213384598792E-07,-1.43656698128325E-05,2.98828125,0,0
1.82206531462725E-06,-1.44563946378184E-05,2.98828125,0,0
2.48463561547396E-06,-1.65435194503516E-05,2.98828125,0,0
1.86244835731486E-06,-1.79827347892569E-05,2.98828125,0,0
6.2028772163103E-07,-2.07072898774641E-05,2.98828125,0,0
-1.75887109321593E-07,-2.14210122067016E-05,2.98828125,0,0
2.78236143458344E-07,-1.94161730178166E-05,2.98828125,0,0
2.46564695771667E-06,-1.40222500704112E-05,2.98828125,0,0
4.25441385232261E-06,-1.94086533156224E-05,2.98828125,0,0
2.68106100520527E-06,-1.39177200253471E-05,2.98828125,0,0
2.97068777399545E-06,-1.69530449056765E-05,2.98828125,0,0
4.46597732661758E-06,-1.46229849633528E-05,2.98828125,0,0
4.71191333417664E-06,-1.82156545633916E-05,2.98828125,0,0
4.46033800471923E-06,-1.63990971486783E-05,2.98828125,0,0
4.98175859320327E-06,-1.53537184814923E-05,2.98828125,0,0
4.8370607146353E-06,-1.3977734852233E-05,2.98828125,0,0
4.2903930079774E-06,-1.47595519592869E-05,2.98828125,0,0
4.75660999654792E-06,-1.44765272125369E-05,2.98828125,0,0
5.75170452066232E-06,-1.24983162095305E-05,2.98828125,0,0
5.88451939620427E-06,-1.27044750115601E-05,2.98828125,0,0
4.17570390709443E-06,-1.29716281662695E-05,2.98828125,0,0
3.0451462862402E-06,-1.38613186209113E-05,2.98828125,0,0
3.91779894926003E-06,-1.19633241411066E-05,2.98828125,0,0
5.84319195695571E-06,-1.26011109387036E-05,2.98828125,0,0
6.67910535412375E-06,-1.36124217533506E-05,2.98828125,0,0
6.22312290943228E-06,-1.58519487740705E-05,2.98828125,0,0
5.62441891815979E-06,-1.51167605508817E-05,2.98828125,0,0
5.91055868426338E-06,-1.54524277604651E-05,2.98828125,0,0
6.1473683672375E-06,-1.56367459567264E-05,2.98828125,0,0
5.75962940274621E-06,-1.71702158695553E-05,2.98828125,0,0
4.80365315524978E-06,-1.70601961144712E-05,2.98828125,0,0
3.47375475939771E-06,-1.5794354112586E-05,2.98828125,0,0
1.97680014935031E-06,-1.50612368088332E-05,2.98828125,0,0
1.14235228920734E-06,-1.57079703058116E-05,2.98828125,0,0
1.4985980669735E-06,-1.32183658934082E-05,2.98828125,0,0
2.39023597714549E-06,-1.90213868336286E-05,2.98828125,0,0
1.87937291684648E-06,-1.59664214152144E-05,2.98828125,0,0
2.00688873519539E-06,-2.18027307710145E-05,2.98828125,0,0
1.62793321578647E-06,-2.11140486499062E-05,2.98828125,0,0
1.28801900700637E-06,-2.37442036450375E-05,2.98828125,0,0
8.09630023468344E-07,-2.32004131248686E-05,2.98828125,0,0
1.39290943934611E-06,-2.44573748204857E-05,2.98828125,0,0
2.37912172451615E-06,-2.24713166971924E-05,2.98828125,0,0
3.33316233991354E-06,-2.10003945539938E-05,2.98828125,0,0
2.6851448637899E-06,-2.12518152693519E-05,2.98828125,0,0
6.25561483502679E-07,-2.10798771149712E-05,3.69140625,0,0
-2.88870523945661E-07,-2.09219142561778E-05,3.69140625,0,0
-5.93964671224967E-07,-2.0194167518639E-05,3.69140625,0,0
-1.05283857010363E-06,-2.23903934966074E-05,3.69140625,0,0
-8.10850565358123E-07,-2.27029486268293E-05,3.69140625,0,0
9.00993654795457E-07,-2.24933482968481E-05,3.69140625,0,0
1.81789494035911E-06,-1.95764150703326E-05,3.69140625,0,0
1.77981894466939E-06,-1.88588965102099E-05,3.69140625,0,0
1.51510460000281E-06,-1.80010156327626E-05,3.69140625,0,0
1.68390283761255E-06,-1.83931824722094E-05,3.69140625,0,0
2.42239639192121E-06,-1.82140302058542E-05,3.69140625,0,0
3.0825437988824E-06,-1.8896083929576E-05,3.69140625,0,0
2.75478919320449E-06,-1.78727495949715E-05,3.69140625,0,0
2.55763620771177E-06,-1.69016911968356E-05,3.69140625,0,0
3.50858454112313E-06,-1.8455000827089E-05,3.69140625,0,0
4.87749957756023E-06,-2.14258307096316E-05,3.69140625,0,0
5.5757900554454E-06,-1.81028262886684E-05,3.69140625,0,0
8.33340254757786E-06,-2.52159716183087E-05,3.69140625,0,0
5.60390662940335E-06,-1.88484955288004E-05,3.69140625,0,0
5.86225314691546E-06,-2.43068043346284E-05,3.69140625,0,0
5.14719340571901E-06,-2.05469186767004E-05,3.69140625,0,0
6.15460248809541E-06,-2.24894065468106E-05,3.69140625,0,0
6.08959817327559E-06,-2.09245827136328E-05,3.69140625,0,0
7.12138489689096E-06,-2.28838343900861E-05,3.69140625,0,0
6.59654415358091E-06,-2.17228953260928E-05,3.69140625,0,0
5.96354357185191E-06,-2.03818908630637E-05,3.69140625,0,0
6.82101881466224E-06,-1.87256555364002E-05,3.69140625,0,0
7.48211687096045E-06,-1.57580579980277E-05,3.69140625,0,0
7.19754370948067E-06,-1.50722798935021E-05,3.69140625,0,0
5.93108507018769E-06,-1.3638794371218E-05,3.69140625,0,0
5.31686055182945E-06,-1.38513978527044E-05,3.69140625,0,0
4.37096832683892E-06,-1.14009217213606E-05,3.69140625,0,0
4.02831210521981E-06,-1.12587686089682E-05,3.69140625,0,0
3.65484288522566E-06,-1.00047072919551E-05,3.69140625,0,0
3.75152080778207E-06,-1.09272805275396E-05,3.69140625,0,0
3.12990232487209E-06,-1.0232261956844E-05,3.69140625,0,0
2.77451704278064E-06,-1.16229593913886E-05,3.69140625,0,0
1.68542806022742E-06,-1.26211252791109E-05,3.69140625,0,0
8.52018786190456E-07,-1.47874088725075E-05,3.69140625,0,0
-6.38716244338866E-07,-1.56621663336409E-05,3.69140625,0,0
-1.37487540996517E-06,-1.71289557329146E-05,3.69140625,0,0
-3.96401800273338E-09,-1.85834705916932E-05,3.69140625,0,0
3.12235670207883E-06,-1.92299394257134E-05,3.69140625,0,0
3.94743847209611E-06,-1.62151154654566E-05,3.69140625,0,0
4.56024690720369E-06,-2.32770544243976E-05,3.69140625,0,0
2.11764927371405E-06,-1.66819936566753E-05,3.69140625,0,0
2.57436477113515E-06,-1.81803516170476E-05,3.69140625,0,0
1.7339149280815E-06,-1.2752968359564E-05,3.69140625,0,0
3.06531796923082E-06,-1.40164456752245E-05,3.69140625,0,0
2.95597442345752E-06,-1.29524141811999E-05,3.69140625,0,0
4.43008639194886E-06,-1.49497500387952E-05,3.69140625,0,0
4.78642277812469E-06,-1.52146758409799E-05,3.69140625,0,0
3.44657087225642E-06,-1.53921555465786E-05,3.69140625,0,0
1.76327296230738E-06,-1.47534947245731E-05,3.69140625,0,0
1.31230319766473E-06,-1.32155482788221E-05,3.69140625,0,0
2.58466911873256E-06,-1.36889193527168E-05,3.69140625,0,0
2.90735624730587E-06,-1.2898894965474E-05,3.69140625,0,0
3.13376995109138E-06,-1.29730087792268E-05,3.69140625,0,0
3.27679572365014E-06,-1.16193668873166E-05,3.69140625,0,0
4.2057768041559E-06,-1.29267809825251E-05,3.69140625,0,0
4.18082981923362E-06,-1.30320913740434E-05,3.69140625,0,0
3.62449441126955E-06,-1.46141592267668E-05,3.69140625,0,0
2.11136625694053E-06,-1.42759763548383E-05,3.69140625,0,0
1.61515720265015E-06,-1.53466680785641E-05,3.69140625,0,0
1.57816168666614E-06,-1.59901901497506E-05,3.69140625,0,0
2.59931221080478E-06,-1.76891589944717E-05,3.69140625,0,0
4.23998517362634E-06,-1.80445786099881E-05,3.69140625,0,0
6.05824197918992E-06,-1.88378271559486E-05,3.69140625,0,0
6.0336083151924E-06,-1.91168401215691E-05,3.69140625,0,0
5.7368993111595E-06,-1.91171202459373E-05,3.69140625,0,0
4.48833634436596E-06,-1.59263490786543E-05,3.69140625,0,0
6.12850908510154E-06,-2.35654024436371E-05,3.69140625,0,0
4.47916409029858E-06,-2.01067432499258E-05,3.69140625,0,0
5.76530601392733E-06,-2.58888576354366E-05,3.69140625,0,0
3.61743877874687E-06,-2.22159178520087E-05,3.69140625,0,0
2.99226235256356E-06,-2.30793539230945E-05,3.69140625,0,0
1.93391588254599E-06,-2.15137752093142E-05,3.69140625,0,0
1.07324024156696E-06,-2.24102586798836E-05,3.69140625,0,0
3.34846816940626E-07,-2.1342128093238E-05,3.69140625,0,0
4.34802359450259E-07,-2.11071328521939E-05,3.69140625,0,0
8.02183024006808E-07,-2.08820274565369E-05,3.69140625,0,0
4.6272876375042E-07,-1.94669264601544E-05,3.69140625,0,0
-8.08656892559156E-08,-1.87730656762142E-05,3.69140625,0,0
1.39396917120393E-07,-1.7259986634599E-05,3.69140625,0,0
8.97364714091964E-07,-1.79430044227047E-05,3.69140625,0,0
-1.86633386078938E-07,-1.77400397660676E-05,3.69140625,0,0
-7.47136311929353E-07,-1.97762637981214E-05,3.69140625,0,0
4.09118463551295E-08,-1.92808893189067E-05,3.69140625,0,0
1.78333812073106E-06,-1.89295788004529E-05,3.69140625,0,0
2.36465234593197E-06,-1.68452970683575E-05,3.69140625,0,0
2.90137427327863E-06,-1.66946483659558E-05,3.69140625,0,0
2.8735935302393E-06,-1.60072413564194E-05,3.69140625,0,0
3.18385013997613E-06,-1.6097732441267E-05,3.69140625,0,0
3.11511303152656E-06,-1.53822293214034E-05,3.69140625,0,0
2.62991943600355E-06,-1.46355960168876E-05,3.69140625,0,0
2.70268697022402E-06,-1.29802274386748E-05,3.69140625,0,0
2.37096674027271E-06,-1.37342085508863E-05,3.69140625,0,0
1.6480835256516E-06,-1.25353626572178E-05,3.69140625,0,0
2.83321378446999E-06,-1.84515502041904E-05,3.69140625,0,0
1.53616770148801E-06,-1.45321046147728E-05,3.69140625,0,0
1.85116661555185E-07,-1.77521342266118E-05,3.69140625,0,0
-8.60565819493786E-07,-1.62788801389979E-05,3.69140625,0,0
-1.344456222796E-06,-1.86576762644108E-05,3.69140625,0,0
-1.43732199830993E-06,-1.86186371138319E-05,3.69140625,0,0
3.38242389652521E-09,-2.13478069781559E-05,3.69140625,0,0
3.17109265779436E-06,-2.1741760065197E-05,3.69140625,0,0
6.33909530733945E-06,-2.23289625864709E-05,3.69140625,0,0
7.59654039939051E-06,-2.24788509513019E-05,3.69140625,0,0
6.94632581144106E-06,-2.07573011721252E-05,3.69140625,0,0
6.32406045042444E-06,-1.96508026419906E-05,3.69140625,0,0
6.32977435088833E-06,-1.80973001988605E-05,3.69140625,0,0
7.02436273058993E-06,-1.84059317689389E-05,3.69140625,0,0
7.55367500460125E-06,-1.76195535459556E-05,3.69140625,0,0
6.71416228215094E-06,-1.8177392121288E-05,3.69140625,0,0
4.86193130200263E-06,-1.73333155544242E-05,3.69140625,0,0
3.98305110138608E-06,-1.78890950337518E-05,3.69140625,0,0
4.3477180042828E-06,-1.70668972714338E-05,3.69140625,0,0
4.79118716611993E-06,-1.63123731908854E-05,3.69140625,0,0
4.00310409531812E-06,-1.47561922858586E-05,3.69140625,0,0
3.05312778436928E-06,-1.46289576150593E-05,3.69140625,0,0
2.35984316532267E-06,-1.37643701236811E-05,3.69140625,0,0
1.53602059072E-06,-1.28473411677987E-05,3.69140625,0,0
1.58988643761404E-06,-1.34459505716222E-05,3.69140625,0,0
2.93761081593402E-06,-1.53262244566577E-05,3.69140625,0,0
2.98227473649604E-06,-1.29422815007274E-05,3.69140625,0,0
3.61289244210639E-06,-1.75859131559264E-05,3.69140625,0,0
2.0244790448487E-06,-1.2622613212443E-05,3.69140625,0,0
4.62567459180718E-06,-1.68835449585458E-05,3.69140625,0,0
5.98715178057319E-06,-1.5498038919759E-05,3.69140625,0,0
5.39237817065441E-06,-1.75926361407619E-05,3.69140625,0,0
3.38494828611147E-06,-1.58066613948904E-05,3.69140625,0,0
4.30849104304798E-06,-1.57933282025624E-05,3.69140625,0,0
5.3016260608274E-06,-1.34831861942075E-05,3.69140625,0,0
5.50462073078961E-06,-1.24018406495452E-05,3.69140625,0,0
5.42201132702758E-06,-1.31180340758874E-05,3.69140625,0,0
5.36825700692134E-06,-1.28784095068113E-05,3.69140625,0,0
6.1779142015439E-06,-1.21938937809318E-05,3.69140625,0,0
6.87883493810659E-06,-1.02450903796125E-05,3.69140625,0,0
8.02708473202074E-06,-1.0410432878416E-05,3.69140625,0,0
9.12698214960983E-06,-9.84982580121141E-06,3.69140625,0,0
1.04865503089968E-05,-1.02269214039552E-05,3.69140625,0,0
1.01353443824337E-05,-8.26086125016445E-06,3.69140625,0,0
9.30170608626213E-06,-7.17273587724776E-06,3.69140625,0,0
8.85802364791743E-06,-4.95307585879345E-06,3.69140625,0,0
8.42467488837428E-06,-5.11637426825473E-06,3.69140625,0,0
7.32163789507467E-06,-5.08377843289054E-06,3.69140625,0,0
6.93710626364918E-06,-5.94600351178087E-06,3.69140625,0,0
6.90810202286229E-06,-7.59710746933706E-06,3.69140625,0,0
6.22997686150484E-06,-1.04631371868891E-05,3.69140625,0,0
4.85972304886673E-06,-1.12898615043378E-05,3.69140625,0,0
3.37536494043889E-06,-1.08861840999452E-05,3.69140625,0,0
1.77650122168416E-06,-8.86527050170116E-06,3.69140625,0,0
1.32513264361478E-06,-1.46682396007236E-05,3.69140625,0,0
7.13022529907903E-07,-1.59436549438396E-05,3.69140625,0,0
4.33643663200201E-06,-2.11660699278582E-05,3.69140625,0,0
5.7414872571826E-06,-2.1038664272055E-05,3.69140625,0,0
4.8691731535655E-06,-2.34301278396742E-05,3.69140625,0,0
3.3765147691156E-06,-2.35888219322078E-05,3.69140625,0,0
3.43888723364216E-06,-2.57101819443051E-05,3.69140625,0,0
4.10794109484414E-06,-2.7333860998624E-05,3.69140625,0,0
4.09909853260615E-06,-2.84908255707705E-05,3.69140625,0,0
2.54780957220646E-06,-2.86184440483339E-05,3.69140625,0,0
9.68184508565173E-07,-2.75599813903682E-05,3.69140625,0,0
7.07094329754909E-07,-2.69035444944166E-05,3.69140625,0,0
9.21288972222101E-07,-2.59249572991394E-05,3.69140625,0,0
1.49831544149492E-06,-2.52963145612739E-05,3.69140625,0,0
2.55743270827224E-06,-2.30969417316373E-05,3.69140625,0,0
4.63467176814447E-06,-2.16819535125978E-05,3.69140625,0,0
5.83170003665145E-06,-1.80202532646945E-05,3.69140625,0,0
5.84147528570611E-06,-1.37412498588674E-05,3.69140625,0,0
5.08826451550704E-06,-9.65770959737711E-06,3.69140625,0,0
5.18056504006381E-06,-9.55834639171371E-06,3.69140625,0,0
5.16019917995436E-06,-1.16310575322132E-05,3.69140625,0,0
4.76435525342822E-06,-1.38718796733883E-05,3.69140625,0,0
3.89154865843011E-06,-1.43917086461443E-05,3.69140625,0,0
2.18066338675271E-06,-1.58874372573337E-05,3.69140625,0,0
2.72884904006787E-07,-1.72702530107927E-05,3.69140625,0,0
-6.65372738239967E-07,-1.75845398189267E-05,3.69140625,0,0
-6.75010994655167E-07,-1.41476393764606E-05,3.69140625,0,0
-7.10032225015311E-07,-2.00057293113787E-05,3.69140625,0,0
-1.86917679911858E-06,-1.51366493810201E-05,3.69140625,0,0
-4.34388357462012E-06,-2.1140340322745E-05,3.69140625,0,0
-4.35587253377889E-06,-2.32434013014426E-05,3.69140625,0,0
-3.3819628697529E-06,-3.02496027870802E-05,3.69140625,0,0
-2.18642253457801E-06,-3.01159452646971E-05,3.69140625,0,0
-2.14669807974133E-06,-2.95233712677145E-05,3.69140625,0,0
-1.70111763964087E-06,-2.86056147160707E-05,3.69140625,0,0
-1.37834160796046E-06,-2.9012040613452E-05,3.69140625,0,0
-1.57311228576873E-06,-2.87090933852596E-05,3.69140625,0,0
-1.77465221895545E-06,-2.59204207395669E-05,3.69140625,0,0
-2.77805429504951E-06,-2.36293835769175E-05,3.69140625,0,0
-3.51222274730389E-06,-1.99499172595097E-05,3.69140625,0,0
-3.37948245032749E-06,-1.72246545844246E-05,3.69140625,0,0
-2.14690066968615E-06,-1.40948486659909E-05,3.69140625,0,0
-1.55362477016752E-06,-1.61041389219463E-05,3.69140625,0,0
-1.72843840573478E-06,-1.93682881217683E-05,3.69140625,0,0
-2.09800964512397E-06,-2.40476056205807E-05,3.69140625,0,0
-1.47300090702629E-06,-2.47388070420129E-05,3.69140625,0,0
-7.68213681112684E-07,-2.19775556615787E-05,3.69140625,0,0
2.11639601843672E-07,-1.58585444296477E-05,3.69140625,0,0
2.24669497583818E-06,-1.14625172500382E-05,3.69140625,0,0
5.11552661919268E-06,-1.08165795609239E-05,3.69140625,0,0
7.19511990610044E-06,-1.26667882796028E-05,3.69140625,0,0
6.93128868078929E-06,-1.35668724396965E-05,3.69140625,0,0
4.90803313368815E-06,-1.4778700460738E-05,3.69140625,0,0
2.04047341867408E-06,-1.13053038148792E-05,3.69140625,0,0
3.8264433896984E-06,-1.52696466102498E-05,3.69140625,0,0
4.17671662944485E-06,-1.10976852738531E-05,3.69140625,0,0
5.84425424676738E-06,-1.45817139127757E-05,3.69140625,0,0
7.32427270122571E-06,-1.34037154566613E-05,3.69140625,0,0
8.28612792247441E-06,-1.76104877027683E-05,3.69140625,0,0
7.91315233072964E-06,-1.89547263289569E-05,3.69140625,0,0
7.62622858019313E-06,-2.05904671020107E-05,3.69140625,0,0
6.75788623993867E-06,-1.79274920810713E-05,3.69140625,0,0
5.62527293368476E-06,-1.53828950715251E-05,3.69140625,0,0
5.44815748071414E-06,-1.54422668856569E-05,3.69140625,0,0
7.10982430973672E-06,-1.67210837389575E-05,3.69140625,0,0
8.87819260242395E-06,-1.79405305971159E-05,3.69140625,0,0
8.72674900165293E-06,-1.6617381334072E-05,3.69140625,0,0
7.15728401701199E-06,-1.68559854500927E-05,3.69140625,0,0
5.62349714527954E-06,-1.66988520504674E-05,3.69140625,0,0
5.24243432664662E-06,-1.82445655809715E-05,3.69140625,0,0
5.16469253852847E-06,-1.81023497134447E-05,3.69140625,0,0
5.14903240400599E-06,-1.88311696547316E-05,3.69140625,0,0
4.8586325647193E-06,-1.81383638846455E-05,3.69140625,0,0
4.94857795274584E-06,-1.78929421963403E-05,3.69140625,0,0
5.15995270689018E-06,-1.61801890499191E-05,3.69140625,0,0
5.08757102579693E-06,-1.44519199238857E-05,3.69140625,0,0
4.25149801230873E-06,-1.27997900563059E-05,3.69140625,0,0
3.91943194699707E-06,-1.32376735564321E-05,3.69140625,0,0
4.7642424760852E-06,-1.52600496221567E-05,3.69140625,0,0
5.24806819157675E-06,-1.6904541553231E-05,3.69140625,0,0
2.71201520263276E-06,-1.32065424622851E-05,3.69140625,0,0
3.4885777040472E-06,-1.7455720808357E-05,3.69140625,0,0
3.12236056743131E-06,-1.02466574389837E-05,3.69140625,0,0
4.4901526052854E-06,-1.21311759357923E-05,3.69140625,0,0
2.84432212538377E-06,-8.44111036713002E-06,3.69140625,0,0
1.22513790756784E-06,-8.81857067724923E-06,3.69140625,0,0
-7.97304153365985E-07,-8.23878963274183E-06,3.69140625,0,0
1.22019912396354E-07,-1.14792428576038E-05,3.69140625,0,0
1.07988716990803E-06,-1.19951764645521E-05,3.69140625,0,0
1.34313313537859E-06,-1.23190920930938E-05,3.69140625,0,0
1.61726495662151E-06,-1.31791130115744E-05,3.69140625,0,0
1.90869945981831E-06,-1.34585397972842E-05,3.69140625,0,0
1.21559230592538E-06,-1.38276527650305E-05,3.69140625,0,0
2.60842710986253E-07,-1.278093077417E-05,3.69140625,0,0
1.27870885080483E-06,-1.32895893329987E-05,3.69140625,0,0
3.03716933558462E-06,-1.27966695799842E-05,3.69140625,0,0
4.04831644118531E-06,-1.40994534376659E-05,3.69140625,0,0
2.81687584902102E-06,-1.41085110954009E-05,3.69140625,0,0
2.02275759875192E-06,-1.56530113599729E-05,3.69140625,0,0
1.69341080891172E-06,-1.556198731123E-05,3.69140625,0,0
2.39975793192571E-06,-1.58325728989439E-05,5.2734375,0,0
3.89174147130689E-06,-1.41113687277539E-05,5.2734375,0,0
5.99370105192065E-06,-1.29803911477211E-05,5.2734375,0,0
6.93817219143966E-06,-1.3077788935334E-05,5.2734375,0,0
5.89722731092479E-06,-1.55007473949809E-05,5.2734375,0,0
4.61860645373235E-06,-1.7146581740235E-05,5.2734375,0,0
4.60587216366548E-06,-1.75240966200363E-05,5.2734375,0,0
4.23016399508924E-06,-1.42924654937815E-05,5.2734375,0,0
5.98772749071941E-06,-2.00587619474391E-05,5.2734375,0,0
3.57220460500685E-06,-1.39633930302807E-05,5.2734375,0,0
3.9261944948521E-06,-1.5701787560829E-05,5.2734375,0,0
3.73177158508042E-06,-1.15384646051098E-05,5.2734375,0,0
4.88465047965292E-06,-1.41311020342982E-05,5.2734375,0,0
4.2349652176199E-06,-1.42811359182815E-05,5.2734375,0,0
2.79623895949044E-06,-1.63369331858121E-05,5.2734375,0,0
1.45705246268335E-06,-1.53952696564374E-05,5.2734375,0,0
1.61319962899142E-06,-1.35491663968423E-05,5.2734375,0,0
2.52387735599768E-06,-1.23822464956902E-05,5.2734375,0,0
3.103794369963E-06,-1.20659042295301E-05,5.2734375,0,0
3.92469110011007E-06,-1.37740462378133E-05,5.2734375,0,0
3.24414281749341E-06,-1.44609803101048E-05,5.2734375,0,0
1.98175894183805E-06,-1.62497271958273E-05,5.2734375,0,0
9.96257313090609E-07,-1.594527020643E-05,5.2734375,0,0
9.6251426384697E-07,-1.67706512002042E-05,5.2734375,0,0
1.13857436190301E-06,-1.65438850672217E-05,5.2734375,0,0
1.19987998914439E-06,-1.91222425200976E-05,5.2734375,0,0
-4.18094998622109E-07,-2.02153332793387E-05,5.2734375,0,0
-1.56526732553175E-06,-2.05273736355593E-05,5.2734375,0,0
-1.26305781122937E-06,-1.96840992430225E-05,5.2734375,0,0
-7.88652982919302E-07,-2.05184114747681E-05,5.2734375,0,0
-2.11219730772427E-06,-2.08681503863772E-05,5.2734375,0,0
-3.678202347146E-06,-2.13117582461564E-05,5.2734375,0,0
-4.967002041667E-06,-2.06877848540898E-05,5.2734375,0,0
-5.54799908059067E-06,-1.99844107555691E-05,5.2734375,0,0
-2.83009512713761E-06,-1.53846449393313E-05,5.2734375,0,0
-2.25290159505676E-06,-2.2263162463787E-05,5.2734375,0,0
-2.6817838261195E-07,-1.85016924660886E-05,5.2734375,0,0
-1.47758385082852E-06,-2.34483359236037E-05,5.2734375,0,0
-8.35446542168938E-07,-1.95593529497273E-05,5.2734375,0,0
-2.25477106141625E-06,-2.07591456273803E-05,5.2734375,0,0
-2.81733235851789E-07,-1.80485440068878E-05,5.2734375,0,0
1.9785502445302E-06,-1.81952382263262E-05,5.2734375,0,0
4.76226978207706E-06,-1.86461638804758E-05,5.2734375,0,0
7.06964829078061E-06,-2.08748133445624E-05,5.2734375,0,0
6.7240207499708E-06,-2.19259582081577E-05,5.2734375,0,0
5.00126861879835E-06,-2.02199244085932E-05,5.2734375,0,0
3.81412269234716E-06,-1.91872950381367E-05,5.2734375,0,0
3.48193407262443E-06,-1.84696800715756E-05,5.2734375,0,0
3.34398509949096E-06,-1.93169726117048E-05,5.2734375,0,0
4.38472125097178E-06,-1.66384197655134E-05,5.2734375,0,0
4.88858040625928E-06,-1.59413302753819E-05,5.2734375,0,0
5.12371843797155E-06,-1.53338278323645E-05,5.2734375,0,0
5.38814492756501E-06,-1.76430930878269E-05,5.2734375,0,0
7.43191094443318E-06,-1.84838190762093E-05,5.2734375,0,0
8.05649597168667E-06,-1.86096240213374E-05,5.2734375,0,0
6.98744725013967E-06,-1.67298949236283E-05,5.2734375,0,0
5.60710623176419E-06,-1.73188400367508E-05,5.2734375,0,0
5.27788279214292E-06,-1.80024835572112E-05,5.2734375,0,0
6.37685707260971E-06,-1.82763742486713E-05,5.2734375,0,0
8.89544753590599E-06,-1.73478802025784E-05,5.2734375,0,0
9.80477580014849E-06,-1.63147979037603E-05,5.2734375,0,0
6.63846594761708E-06,-1.37662809720496E-05,5.2734375,0,0
7.80601294536609E-06,-2.13705916394247E-05,5.2734375,0,0
4.3330201151548E-06,-1.93554114957806E-05,5.2734375,0,0
6.3926281654858E-06,-2.39939436141867E-05,5.2734375,0,0
3.6859985357296E-06,-2.22647158807376E-05,5.2734375,0,0
2.88021738015232E-06,-2.43141566897975E-05,5.2734375,0,0
1.53157895965705E-06,-2.17697761399904E-05,5.2734375,0,0
3.22422783938237E-06,-2.13525345316157E-05,5.2734375,0,0
2.5718902634253E-06,-1.89734892046545E-05,5.2734375,0,0
1.49367167523451E-06,-1.72542204381898E-05,5.2734375,0,0
1.5123996490729E-06,-1.73380958585767E-05,5.2734375,0,0
2.86490376311122E-06,-1.70098810485797E-05,5.2734375,0,0
4.76913510283339E-06,-1.72383042809088E-05,5.2734375,0,0
4.03907733925735E-06,-1.53112559928559E-05,5.2734375,0,0
3.44181034961366E-06,-1.34144738694886E-05,5.2734375,0,0
3.42204498338106E-06,-8.95503671927145E-06,5.2734375,0,0
4.72668079964933E-06,-7.07489425622043E-06,5.2734375,0,0
4.0401832848147E-06,-6.47394244879251E-06,5.2734375,0,0
3.30692751049355E-06,-8.81525920704007E-06,5.2734375,0,0
1.64097616561776E-06,-9.50235698837787E-06,5.2734375,0,0
1.53392818447173E-06,-1.00452789411065E-05,5.2734375,0,0
1.75677791958151E-06,-9.49207242229022E-06,5.2734375,0,0
2.9814834761055E-06,-1.03698803286534E-05,5.2734375,0,0
3.72027284356591E-06,-1.26075383377611E-05,5.2734375,0,0
3.61209072252677E-06,-1.57069898705231E-05,5.2734375,0,0
3.2275181638397E-06,-1.67438265634701E-05,5.2734375,0,0
4.18537047153222E-06,-1.60436193255009E-05,5.2734375,0,0
5.05152502228157E-06,-1.21257144201081E-05,5.2734375,0,0
9.24975665839156E-06,-1.85313019755995E-05,5.2734375,0,0
8.01904116087826E-06,-1.70646108017536E-05,5.2734375,0,0
7.69257530919276E-06,-2.27954824367771E-05,5.2734375,0,0
6.50228048471035E-06,-2.1821240807185E-05,5.2734375,0,0
5.98616725255852E-06,-2.33638784266077E-05,5.2734375,0,0
4.3286599975545E-06,-2.23077040573116E-05,5.2734375,0,0
3.72336103282578E-06,-2.41335728787817E-05,5.2734375,0,0
3.44914383276773E-06,-2.39861419686349E-05,5.2734375,0,0
2.82978749055474E-06,-2.2562317099073E-05,5.2734375,0,0
3.36020389113401E-06,-2.10621383303078E-05,5.2734375,0,0
4.78318816021783E-06,-1.97686022147536E-05,5.2734375,0,0
5.95866731600836E-06,-1.99754795175977E-05,5.2734375,0,0
5.29733006260358E-06,-1.93684300029418E-05,5.2734375,0,0
5.11998587171547E-06,-2.01172970264452E-05,5.2734375,0,0
6.10289407632081E-06,-2.05761152756168E-05,5.2734375,0,0
7.63150546845282E-06,-2.24211271415697E-05,5.2734375,0,0
7.14062616680167E-06,-2.20100118895061E-05,5.2734375,0,0
4.47076899945387E-06,-2.15250256587751E-05,5.2734375,0,0
1.63641914241452E-06,-1.84476975846337E-05,5.2734375,0,0
1.36364337777195E-06,-1.51268641275237E-05,5.2734375,0,0
2.1654341253452E-06,-1.28706860778038E-05,5.2734375,0,0
2.64024333773705E-06,-1.3654262147611E-05,5.2734375,0,0
3.17514309244871E-06,-1.35427544591948E-05,5.2734375,0,0
3.96068844565889E-06,-1.34281845021178E-05,5.2734375,0,0
5.14004022988956E-06,-1.30991202240693E-05,5.2734375,0,0
6.88444470142713E-06,-1.24660882647731E-05,5.2734375,0,0
5.57346766072442E-06,-8.85596909938613E-06,5.2734375,0,0
6.8913791437808E-06,-1.1784179150709E-05,5.2734375,0,0
4.63697779196082E-06,-9.33164119487628E-06,5.2734375,0,0
5.91929119764245E-06,-1.2836831047025E-05,5.2734375,0,0
2.99353723676177E-06,-1.1683539923979E-05,5.2734375,0,0
2.98106851914781E-06,-1.56710048031528E-05,5.2734375,0,0
2.48189712692692E-06,-1.71944975591032E-05,5.2734375,0,0
3.24152188113658E-06,-1.81621489900863E-05,5.2734375,0,0
2.43221006712702E-06,-1.66960035130614E-05,5.2734375,0,0
1.70280645761522E-06,-1.58760794874979E-05,5.2734375,0,0
1.91276853911404E-06,-1.51981648741639E-05,5.2734375,0,0
3.07782397612755E-06,-1.39161847982905E-05,5.2734375,0,0
4.47951333626406E-06,-1.39794938149862E-05,5.2734375,0,0
3.8905691326363E-06,-1.46614847835735E-05,5.2734375,0,0
2.93283937935485E-06,-1.65294313774211E-05,5.2734375,0,0
2.01829971047118E-06,-1.5907082342892E-05,5.2734375,0,0
3.0106727990642E-06,-1.62051637744298E-05,5.2734375,0,0
2.81378675026644E-06,-1.64618249982595E-05,5.2734375,0,0
1.3624382972921E-06,-1.92112001968781E-05,5.2734375,0,0
-1.24712335036747E-06,-2.04442276299233E-05,5.2734375,0,0
-1.4885315522406E-06,-1.98738307517488E-05,5.2734375,0,0
-4.84592021621211E-07,-1.86436736839823E-05,5.2734375,0,0
1.38290783979755E-06,-1.99631322175264E-05,5.2734375,0,0
1.08287179045874E-06,-2.2631998945144E-05,5.2734375,0,0
-4.9301485205433E-07,-2.57810497714672E-05,5.2734375,0,0
-1.79472124273161E-06,-2.78561255981913E-05,5.2734375,0,0
-2.64440382125031E-06,-2.90402058453765E-05,5.2734375,0,0
-1.33458968321065E-06,-2.29850065807113E-05,5.2734375,0,0
-1.30601495129667E-06,-2.97016958938912E-05,5.2734375,0,0
-3.64957742249317E-07,-1.83642132469686E-05,5.2734375,0,0
-4.41154753616502E-07,-2.36625528486911E-05,5.2734375,0,0
2.25181270252506E-06,-1.82606272574048E-05,5.2734375,0,0
4.26606084147352E-06,-2.01356288016541E-05,5.2734375,0,0
5.18441584063112E-06,-1.56396636157297E-05,5.2734375,0,0
5.96740164837684E-06,-1.63781023729825E-05,5.2734375,0,0
7.22949016562779E-06,-1.42907229019329E-05,5.2734375,0,0
6.62333013679017E-06,-1.36535245474079E-05,5.2734375,0,0
5.72593626202433E-06,-1.45885051097139E-05,5.2734375,0,0
7.14188627171097E-06,-1.5715761037427E-05,5.2734375,0,0
9.44887233345071E-06,-1.87326950253919E-05,5.2734375,0,0
1.07483865576796E-05,-1.83050524356076E-05,5.2734375,0,0
9.88309420790756E-06,-1.94655167433666E-05,5.2734375,0,0
7.3424807851552E-06,-1.73521057149628E-05,5.2734375,0,0
4.5591996240546E-06,-1.78302270796848E-05,5.2734375,0,0
3.27508951158961E-06,-1.63524437084561E-05,5.2734375,0,0
3.29552131006494E-06,-1.85826957022073E-05,5.2734375,0,0
3.55231668436318E-06,-1.95712764252676E-05,5.2734375,0,0
2.26474617193162E-06,-2.23174720304087E-05,5.2734375,0,0
9.25257438666449E-07,-2.12964696402196E-05,5.2734375,0,0
1.09680570403725E-06,-1.9747350961552E-05,5.2734375,0,0
2.99112048196548E-06,-1.72733434737893E-05,5.2734375,0,0
4.43691169493832E-06,-1.75832356035244E-05,5.2734375,0,0
3.91838966606883E-06,-1.76028570422204E-05,5.2734375,0,0
2.7711573693523E-06,-1.61000625666929E-05,5.2734375,0,0
1.76331616330572E-06,-1.17495119411615E-05,5.2734375,0,0
1.60142383265338E-06,-1.51546546476311E-05,5.2734375,0,0
6.93009596375305E-08,-9.61259138421156E-06,5.2734375,0,0
4.6723999957976E-07,-1.19849573820829E-05,5.2734375,0,0
-3.94720878205135E-08,-9.6683243100415E-06,5.2734375,0,0
2.04551426463695E-07,-1.13925843834295E-05,5.2734375,0,0
-6.13516748515508E-09,-1.01470068329945E-05,5.2734375,0,0
2.47599047042968E-07,-1.22947712952737E-05,5.2734375,0,0
2.24249717462044E-07,-1.19507103590877E-05,5.2734375,0,0
-1.95254486357044E-07,-1.14510039566085E-05,5.2734375,0,0
-3.52683429127865E-07,-1.19804444693727E-05,5.2734375,0,0
4.97433461532637E-07,-1.14686135930242E-05,5.2734375,0,0
1.33970240767667E-06,-1.13030237116618E-05,5.2734375,0,0
1.7033524954968E-06,-1.01670193544123E-05,5.2734375,0,0
1.96879591385368E-06,-1.10003547888482E-05,5.2734375,0,0
1.580800812917E-06,-1.08204121715971E-05,5.2734375,0,0
9.4993293942025E-07,-1.42567532748217E-05,5.2734375,0,0
6.27344377335248E-07,-1.71265528479125E-05,5.2734375,0,0
1.75485047293478E-06,-2.06207914743572E-05,5.2734375,0,0
3.49018864653772E-06,-2.2535132302437E-05,5.2734375,0,0
5.22011123393895E-06,-2.3596832761541E-05,5.2734375,0,0
5.21515539730899E-06,-2.2048136088415E-05,5.2734375,0,0
4.83284384245053E-06,-2.1092731913086E-05,5.2734375,0,0
5.87193881074199E-06,-2.05751493922435E-05,5.2734375,0,0
7.87034150562249E-06,-2.06776512641227E-05,5.2734375,0,0
8.43953239382245E-06,-2.06376407732023E-05,5.2734375,0,0
7.31045065549552E-06,-2.04719144676346E-05,5.2734375,0,0
3.80890946871659E-06,-1.5653498849133E-05,5.2734375,0,0
5.55481392439106E-06,-1.94958884094376E-05,5.2734375,0,0
5.83289420319488E-06,-1.20642998808762E-05,5.2734375,0,0
8.53240726428339E-06,-1.76200574060204E-05,5.2734375,0,0
7.04268040863099E-06,-1.63147669809405E-05,5.2734375,0,0
5.41260396857979E-06,-2.00136928469874E-05,5.2734375,0,0
3.41268832926289E-06,-1.86211509571876E-05,5.2734375,0,0
3.99722330257646E-06,-2.04376738111023E-05,5.2734375,0,0
4.6649256546516E-06,-1.92817278730217E-05,5.2734375,0,0
5.40928522241302E-06,-1.90628070413368E-05,5.2734375,0,0
5.85220050197677E-06,-2.10175312531646E-05,5.2734375,0,0
5.22579921380384E-06,-2.27558084588964E-05,5.2734375,0,0
3.79984544451872E-06,-2.36505748034688E-05,5.2734375,0,0
1.91792196346796E-06,-2.04465832212009E-05,5.2734375,0,0
1.86242630206834E-06,-1.87683945114259E-05,5.2734375,0,0
2.7468465759739E-06,-1.7068714441848E-05,5.2734375,0,0
3.44469890478649E-06,-1.9272227291367E-05,5.2734375,0,0
2.18956620301469E-06,-1.9896720914403E-05,5.2734375,0,0
2.39539008362044E-06,-2.15314994420623E-05,5.2734375,0,0
4.19732441514498E-06,-2.04984589800006E-05,5.2734375,0,0
6.45243972030585E-06,-2.08957626455231E-05,5.2734375,0,0
6.34770231044968E-06,-2.01980401470792E-05,5.2734375,0,0
4.91593709739391E-06,-1.95584671018878E-05,5.2734375,0,0
3.42285534316034E-06,-1.8576722141006E-05,5.2734375,0,0
2.00627255253494E-06,-1.73526477738051E-05,5.2734375,0,0
1.93703863260453E-06,-1.42739791044733E-05,5.2734375,0,0
2.96334451377334E-06,-1.31719798446284E-05,5.2734375,0,0
2.454593186485E-06,-1.22840356198139E-05,5.2734375,0,0
3.87427235182258E-06,-1.86993602255825E-05,5.2734375,0,0
3.48355592905136E-06,-1.54681929416256E-05,5.2734375,0,0
3.88557282349211E-06,-1.70295115822228E-05,5.2734375,0,0
3.75293689103273E-06,-1.34497331600869E-05,5.2734375,0,0
5.324784979166E-06,-1.54164390551159E-05,5.2734375,0,0
6.97683071848587E-06,-1.58183775056386E-05,5.2734375,0,0
9.29496309254318E-06,-1.85188036994077E-05,5.2734375,0,0
8.74905163072981E-06,-1.96048058569431E-05,5.2734375,0,0
5.3944236242387E-06,-2.02021947188769E-05,5.2734375,0,0
2.10774783226952E-06,-1.94225613086019E-05,5.2734375,0,0
7.79184119892307E-07,-1.70501443790272E-05,5.2734375,0,0
1.05959111351694E-06,-1.67985217558453E-05,5.2734375,0,0
1.38546840844356E-06,-1.76704179466469E-05,5.2734375,0,0
2.43886915995972E-06,-1.98692832782399E-05,5.2734375,0,0
3.57621593138902E-06,-1.8629734768183E-05,5.2734375,0,0
4.51721916761016E-06,-1.77994970727013E-05,5.2734375,0,0
3.97797930418164E-06,-1.58574930537725E-05,5.2734375,0,0
2.88255955638306E-06,-1.53812270582421E-05,5.2734375,0,0
1.74406170572183E-06,-1.42417165989173E-05,5.2734375,0,0
2.09565428122005E-06,-1.38727000376093E-05,5.2734375,0,0
3.38739755534334E-06,-1.23605204862542E-05,5.2734375,0,0
4.89139392811921E-06,-1.18475918498007E-05,5.2734375,0,0
5.62766854272923E-06,-1.22799747259705E-05,5.2734375,0,0
5.14788962391322E-06,-1.29522304632701E-05,5.2734375,0,0
3.84506256523309E-06,-1.24826501632924E-05,6.85546875,0,0
3.41694499184086E-06,-1.26403001559083E-05,6.85546875,0,0
3.12678662339749E-06,-1.02191343103186E-05,6.85546875,0,0
3.40258065989474E-06,-1.47698674481944E-05,6.85546875,0,0
1.86240663424542E-06,-1.24612752188114E-05,6.85546875,0,0
3.39036319019215E-06,-1.75166424014606E-05,6.85546875,0,0
3.04579521070991E-06,-1.67384005180793E-05,6.85546875,0,0
3.46872593581793E-06,-1.72670115716755E-05,6.85546875,0,0
3.32395620716852E-06,-1.62500637088669E-05,6.85546875,0,0
4.87414672534214E-06,-1.76773955899989E-05,6.85546875,0,0
4.59184047940653E-06,-1.6740914361435E-05,6.85546875,0,0
3.94772632716922E-06,-1.61152256623609E-05,6.85546875,0,0
3.85572730010608E-06,-1.66058161994442E-05,6.85546875,0,0
3.66632980330905E-06,-1.58655293489574E-05,6.85546875,0,0
4.43846147391014E-06,-1.56423138832906E-05,6.85546875,0,0
4.73943282486289E-06,-1.59274877660209E-05,6.85546875,0,0
4.86607723360066E-06,-1.66769859788474E-05,6.85546875,0,0
4.17017690779176E-06,-1.45362046168884E-05,6.85546875,0,0
3.66470112567185E-06,-1.34598412842024E-05,6.85546875,0,0
2.67675363829767E-06,-1.37671331685851E-05,6.85546875,0,0
2.79044547824014E-06,-1.77261426870245E-05,6.85546875,0,0
3.34395804202359E-06,-2.02777373488061E-05,6.85546875,0,0
4.51027290182537E-06,-2.05192827706924E-05,6.85546875,0,0
5.02729790241574E-06,-1.89100992429303E-05,6.85546875,0,0
5.20919502378092E-06,-1.80252118298085E-05,6.85546875,0,0
4.13236284657614E-06,-1.74077104020398E-05,6.85546875,0,0
2.62844741882873E-06,-1.74577726284042E-05,6.85546875,0,0
2.56643102147791E-06,-1.72767231561011E-05,6.85546875,0,0
4.40656094724545E-06,-1.87599671335192E-05,6.85546875,0,0
4.4891016841575E-06,-1.76999365066877E-05,6.85546875,0,0
5.46899673281587E-06,-2.5284884031862E-05,6.85546875,0,0
2.89512604467745E-06,-1.82314888661494E-05,6.85546875,0,0
4.67679501525708E-06,-2.21888622036204E-05,6.85546875,0,0
2.77170579465746E-06,-1.84677901415853E-05,6.85546875,0,0
2.1016941786911E-07,-2.00932809093501E-05,6.85546875,0,0
-1.83337385806226E-06,-1.85510834853631E-05,6.85546875,0,0
-3.99486452806741E-07,-1.92647530639078E-05,6.85546875,0,0
1.46763761676993E-06,-1.769212212821E-05,6.85546875,0,0
2.7212822715228E-06,-1.70099519891664E-05,6.85546875,0,0
3.18650177177915E-06,-1.80359929800034E-05,6.85546875,0,0
2.4284418032039E-06,-1.83453485078644E-05,6.85546875,0,0
2.4992989438033E-06,-1.85443641385064E-05,6.85546875,0,0
3.02232297144656E-06,-1.64944631251274E-05,6.85546875,0,0
3.24072152579902E-06,-1.60838917508954E-05,6.85546875,0,0
2.00672866412788E-06,-1.47185692185303E-05,6.85546875,0,0
1.30506577988854E-06,-1.5593237549183E-05,6.85546875,0,0
8.97933603027923E-07,-1.46511456478038E-05,6.85546875,0,0
1.71495025824697E-06,-1.61560128617566E-05,6.85546875,0,0
2.3008115022094E-06,-1.69621871464187E-05,6.85546875,0,0
2.32408456213307E-06,-1.80894221557537E-05,6.85546875,0,0
1.94639574147004E-06,-1.72495438164333E-05,6.85546875,0,0
1.54700899201998E-06,-1.70697767316597E-05,6.85546875,0,0
8.73885539931507E-07,-1.58329676196445E-05,6.85546875,0,0
2.48482660936133E-06,-1.56401183630805E-05,6.85546875,0,0
4.767086920765E-06,-1.5123563571251E-05,6.85546875,0,0
5.53521840629401E-06,-1.46079719343106E-05,6.85546875,0,0
5.58898500457872E-06,-1.24139351100894E-05,6.85546875,0,0
8.4517696450348E-06,-1.78474292624742E-05,6.85546875,0,0
5.55445194549975E-06,-1.3449293874146E-05,6.85546875,0,0
4.16490411225823E-06,-1.6293097360176E-05,6.85546875,0,0
1.16847036224499E-06,-1.38356081151869E-05,6.85546875,0,0
1.40825488870178E-06,-1.53351247718092E-05,6.85546875,0,0
1.24557959679805E-06,-1.39438352562138E-05,6.85546875,0,0
1.6022861473175E-06,-1.36737289722078E-05,6.85546875,0,0
1.48536446431535E-06,-1.31706610773108E-05,6.85546875,0,0
1.30119963159814E-06,-1.5078519936651E-05,6.85546875,0,0
1.05778440229187E-06,-1.68218884937232E-05,6.85546875,0,0
1.31058345687052E-06,-1.67873677128227E-05,6.85546875,0,0
2.599896333777E-06,-1.81766972673358E-05,6.85546875,0,0
2.38789994000399E-06,-1.85455282917246E-05,6.85546875,0,0
1.80341567102005E-06,-1.94998083316023E-05,6.85546875,0,0
1.20498611977382E-06,-1.99743353732629E-05,6.85546875,0,0
1.02849003269512E-06,-2.2621126845479E-05,6.85546875,0,0
-3.6928871072206E-09,-2.37886870309012E-05,6.85546875,0,0
8.48634044814389E-07,-2.64930567936972E-05,6.85546875,0,0
2.66650181401928E-06,-2.84879552054917E-05,6.85546875,0,0
3.96914083466982E-06,-2.95020545308944E-05,6.85546875,0,0
3.1128729460761E-06,-2.65450544247869E-05,6.85546875,0,0
1.27065777633106E-06,-2.29840770771261E-05,6.85546875,0,0
2.20234511516537E-07,-2.03831077669747E-05,6.85546875,0,0
1.26543386613776E-06,-1.93990872503491E-05,6.85546875,0,0
3.00578926726303E-06,-1.7763521100278E-05,6.85546875,0,0
3.77102924176143E-06,-1.62947308126604E-05,6.85546875,0,0
1.368592847939E-06,-1.27983375932672E-05,6.85546875,0,0
1.79910830411245E-06,-1.83219726750394E-05,6.85546875,0,0
2.04547814064426E-06,-1.4054342500458E-05,6.85546875,0,0
3.3034632451745E-06,-1.7650445442996E-05,6.85546875,0,0
3.03423871628183E-06,-1.55772977450397E-05,6.85546875,0,0
2.40951544583368E-06,-1.8136035578209E-05,6.85546875,0,0
1.44319187711517E-06,-1.8024542441708E-05,6.85546875,0,0
2.83398435385607E-06,-2.01169386855327E-05,6.85546875,0,0
4.73701038572472E-06,-1.94764634215971E-05,6.85546875,0,0
6.30396380074671E-06,-1.73714161064709E-05,6.85546875,0,0
6.74997272653854E-06,-1.57190152094699E-05,6.85546875,0,0
6.40829875919735E-06,-1.48543467730633E-05,6.85546875,0,0
6.05617105975398E-06,-1.45896638059639E-05,6.85546875,0,0
5.40972405360662E-06,-1.21226175906486E-05,6.85546875,0,0
5.36347170054796E-06,-1.19409933176939E-05,6.85546875,0,0
4.18154832004802E-06,-1.14719150587916E-05,6.85546875,0,0
2.3291397610592E-06,-1.25627184388577E-05,6.85546875,0,0
1.53840869643318E-06,-1.20668983072392E-05,6.85546875,0,0
1.79597054739133E-06,-1.26437671497115E-05,6.85546875,0,0
1.2190865845696E-06,-1.135511774919E-05,6.85546875,0,0
2.65726185944004E-07,-1.06593124655774E-05,6.85546875,0,0
-5.04934803302604E-07,-1.10448954728781E-05,6.85546875,0,0
-3.79822495233384E-07,-1.35517921080464E-05,6.85546875,0,0
4.00419651214179E-07,-1.52596148836892E-05,6.85546875,0,0
1.69031238783646E-06,-1.58452967298217E-05,6.85546875,0,0
2.9666837235709E-06,-1.51937038026517E-05,6.85546875,0,0
3.80458800464112E-06,-1.39681615110021E-05,6.85546875,0,0
2.85606324723631E-06,-1.07732648757519E-05,6.85546875,0,0
2.75178717856761E-06,-1.65858473337721E-05,6.85546875,0,0
-5.85967711685953E-07,-1.3323034181667E-05,6.85546875,0,0
-6.4497623952775E-07,-1.58525363076478E-05,6.85546875,0,0
5.72150575806063E-08,-1.53951405081898E-05,6.85546875,0,0
2.62015419139061E-06,-1.70533421623986E-05,6.85546875,0,0
2.33543210015341E-06,-1.47481705425889E-05,6.85546875,0,0
1.34195352075039E-06,-1.41531490953639E-05,6.85546875,0,0
1.98452494259982E-06,-1.35014252009569E-05,6.85546875,0,0
3.18534080179234E-06,-1.39410230985959E-05,6.85546875,0,0
2.68813710135873E-06,-1.47433593156165E-05,6.85546875,0,0
1.8412506506138E-06,-1.49261768456199E-05,6.85546875,0,0
2.25770213546639E-06,-1.45861768032773E-05,6.85546875,0,0
1.69198870025866E-06,-1.23025056382176E-05,6.85546875,0,0
1.04606317563594E-06,-1.21235752885696E-05,6.85546875,0,0
1.29206102883472E-06,-1.22044893942075E-05,6.85546875,0,0
2.88066371467721E-06,-1.29527024910203E-05,6.85546875,0,0
3.55329098056245E-06,-1.20533122753841E-05,6.85546875,0,0
3.2293523872795E-06,-1.27084995256155E-05,6.85546875,0,0
2.72924808086827E-06,-1.31059623527108E-05,6.85546875,0,0
2.80260337603977E-06,-1.37981814987143E-05,6.85546875,0,0
3.10781729240261E-06,-1.37349597935099E-05,6.85546875,0,0
4.80643802802661E-06,-1.45499725476839E-05,6.85546875,0,0
6.2339845499082E-06,-1.47761829794035E-05,6.85546875,0,0
5.92918695474509E-06,-1.45146677823504E-05,6.85546875,0,0
5.01205249747727E-06,-1.53253040480195E-05,6.85546875,0,0
4.30032787335222E-06,-1.77466099557932E-05,6.85546875,0,0
4.22946050093742E-06,-1.5379049727926E-05,6.85546875,0,0
7.04107469573501E-06,-2.09514328162186E-05,6.85546875,0,0
4.97073961014394E-06,-1.57059712364571E-05,6.85546875,0,0
3.84509257855825E-06,-2.05078522412805E-05,6.85546875,0,0
3.234684754716E-06,-1.62646465469152E-05,6.85546875,0,0
4.96262055094121E-06,-1.72835025296081E-05,6.85546875,0,0
5.36264224137994E-06,-1.52653374243528E-05,6.85546875,0,0
5.07073900735122E-06,-1.63329805218382E-05,6.85546875,0,0
4.3591871872195E-06,-1.63748554768972E-05,6.85546875,0,0
3.81737163479556E-06,-1.65947785717435E-05,6.85546875,0,0
3.36889320351474E-06,-1.51193025885732E-05,6.85546875,0,0
2.65302833213354E-06,-1.38515624712454E-05,6.85546875,0,0
2.23624283535173E-06,-1.55350808199728E-05,6.85546875,0,0
2.53832217822492E-06,-1.46978627526551E-05,6.85546875,0,0
3.71513260688516E-06,-1.39580142786144E-05,6.85546875,0,0
4.56787984148832E-06,-1.19464330055052E-05,6.85546875,0,0
5.15768260811456E-06,-1.3939403288532E-05,6.85546875,0,0
4.41416204921552E-06,-1.50204514284269E-05,6.85546875,0,0
3.10963559968513E-06,-1.64490975294029E-05,6.85546875,0,0
1.54705026034208E-06,-1.6575750123593E-05,6.85546875,0,0
1.83869053671515E-06,-1.83093397936318E-05,6.85546875,0,0
2.92038203042466E-06,-1.69343074958306E-05,6.85546875,0,0
2.40863892031484E-06,-1.58985913003562E-05,6.85546875,0,0
3.75932557972192E-07,-1.50496862261207E-05,6.85546875,0,0
-1.17340005090227E-06,-1.52565071402933E-05,6.85546875,0,0
-1.36181574816874E-06,-1.50200976349879E-05,6.85546875,0,0
3.02079172342928E-07,-1.49870484165149E-05,6.85546875,0,0
1.78004233930551E-06,-1.37707102112472E-05,6.85546875,0,0
3.82048301617033E-06,-2.08391174965072E-05,6.85546875,0,0
4.595419341058E-06,-1.55610323417932E-05,6.85546875,0,0
5.12808810526622E-06,-1.71608862729045E-05,6.85546875,0,0
4.13604129789746E-06,-1.47105993164587E-05,6.85546875,0,0
2.80029144050786E-06,-1.78463487827685E-05,8.4375,0,0
2.2729814190825E-06,-1.84472864930285E-05,8.4375,0,0
3.31272826770146E-06,-2.04541101993527E-05,8.4375,0,0
4.88474825033336E-06,-2.05424785235664E-05,8.4375,0,0
5.74660452912212E-06,-1.97941590158734E-05,8.4375,0,0
4.4996136239206E-06,-1.82048406713875E-05,8.4375,0,0
2.62699199993222E-06,-1.58680795721011E-05,8.4375,0,0
2.84128145722207E-06,-1.74323322426062E-05,8.4375,0,0
3.33822504217096E-06,-1.85373573913239E-05,8.4375,0,0
2.44365946855396E-06,-2.00671347556636E-05,8.4375,0,0
1.67232360581693E-06,-2.02927240025019E-05,8.4375,0,0
3.18184970637958E-06,-2.18553068407346E-05,8.4375,0,0
4.79355412608129E-06,-2.15174241020577E-05,8.4375,0,0
4.99130874231923E-06,-2.18837831198471E-05,8.4375,0,0
4.25312009610934E-06,-2.09717800316866E-05,8.4375,0,0
3.74309615835955E-06,-1.95805569092045E-05,8.4375,0,0
4.04592310587759E-06,-1.7805246898206E-05,8.4375,0,0
5.15227065989166E-06,-1.86159231816418E-05,8.4375,0,0
6.45065301796421E-06,-2.05375854420708E-05,8.4375,0,0
6.53063216304872E-06,-2.27649670705432E-05,8.4375,0,0
5.59001773581258E-06,-2.25066396524198E-05,8.4375,0,0
4.89891863253433E-06,-2.09590307349572E-05,8.4375,0,0
2.9857953904866E-06,-1.75551540451124E-05,8.4375,0,0
2.55746499533416E-06,-2.52339777944144E-05,8.4375,0,0
1.2111547675886E-07,-1.91476829058956E-05,8.4375,0,0
7.93089782291645E-07,-2.21532773139188E-05,8.4375,0,0
3.29429866496866E-07,-1.63242548296694E-05,8.4375,0,0
2.50745119956264E-06,-1.77073088707402E-05,8.4375,0,0
2.66808638116345E-06,-1.73459848156199E-05,8.4375,0,0
1.30400121634011E-06,-2.19737812585663E-05,8.4375,0,0
-3.00669398711761E-07,-2.46919207711471E-05,8.4375,0,0
2.82588615618806E-07,-2.69330957962666E-05,8.4375,0,0
1.81736186277703E-06,-2.63746042037383E-05,8.4375,0,0
3.40793963005126E-06,-2.15043000935111E-05,8.4375,0,0
3.41488794219913E-06,-1.72443942574319E-05,8.4375,0,0
1.99613191398385E-06,-1.2818572940887E-05,8.4375,0,0
1.96393853002519E-06,-1.26858258227003E-05,8.4375,0,0
2.07630341719778E-06,-1.41358395921998E-05,8.4375,0,0
2.1209061742411E-06,-2.01923849090235E-05,8.4375,0,0
1.90377807030018E-06,-2.30960122280521E-05,8.4375,0,0
2.88346882371116E-06,-2.50454904744402E-05,8.4375,0,0
3.52556708094198E-06,-2.4266888431157E-05,8.4375,0,0
4.20543074142188E-06,-2.45008668571245E-05,8.4375,0,0
3.70431553164963E-06,-2.3183894882095E-05,8.4375,0,0
3.24150232700049E-06,-2.18785680772271E-05,8.4375,0,0
2.6930049443763E-06,-1.90675746125635E-05,8.4375,0,0
1.9334713670105E-06,-1.78454793058336E-05,8.4375,0,0
1.04909372566908E-06,-1.89449638128281E-05,8.4375,0,0
1.55810187152383E-06,-2.02928658836754E-05,8.4375,0,0
2.73601631306519E-06,-1.5393996363855E-05,8.4375,0,0
4.25008875026833E-06,-2.00172489712713E-05,8.4375,0,0
2.52584095505881E-06,-1.32432078316924E-05,8.4375,0,0
2.5959361664718E-06,-1.89659258467145E-05,8.4375,0,0
2.70243390332325E-06,-1.65503170137526E-05,8.4375,0,0
3.13273176288931E-06,-1.69654322235147E-05,8.4375,0,0
4.03949115934665E-06,-1.38837312988471E-05,8.4375,0,0
5.42579027751344E-06,-1.52475149661768E-05,8.4375,0,0
6.19696993453545E-06,-1.52926331793424E-05,8.4375,0,0
6.26957398708328E-06,-1.59950523084262E-05,8.4375,0,0
5.88918510402436E-06,-1.67061116371769E-05,8.4375,0,0
5.003962542105E-06,-1.47920100062038E-05,8.4375,0,0
3.20382991958468E-06,-1.40847359944019E-05,8.4375,0,0
8.30786575534148E-07,-1.39291787490947E-05,8.4375,0,0
5.18336150889809E-07,-1.58866969286464E-05,8.4375,0,0
1.21522271001595E-06,-1.40246802402544E-05,8.4375,0,0
1.51299127537641E-06,-1.2728400179185E-05,8.4375,0,0
1.4535502259605E-06,-1.08322437881725E-05,8.4375,0,0
1.6213043636526E-06,-1.24987891467754E-05,8.4375,0,0
9.06137302081333E-07,-1.30762809931184E-05,8.4375,0,0
3.42908265338338E-07,-1.27137627714546E-05,8.4375,0,0
8.47625187816448E-07,-1.02500889624935E-05,8.4375,0,0
3.25209725815512E-06,-1.06687321022036E-05,8.4375,0,0
5.73318629903952E-06,-1.22380943139433E-05,8.4375,0,0
6.3776192291698E-06,-1.38299783429829E-05,8.4375,0,0
6.79313598084264E-06,-1.51759431901155E-05,8.4375,0,0
6.2087988226267E-06,-1.5917350538075E-05,8.4375,0,0
4.21343793277629E-06,-1.2537621842057E-05,8.4375,0,0
7.58545411372324E-06,-1.63444838108262E-05,8.4375,0,0
9.00446048035519E-06,-1.05960152723128E-05,8.4375,0,0
9.61165824264754E-06,-1.2451465408958E-05,8.4375,0,0
5.46363708053832E-06,-8.49462867336115E-06,8.4375,0,0
3.83538008463802E-06,-1.13284186227247E-05,8.4375,0,0
2.66855818153999E-06,-1.17317267722683E-05,8.4375,0,0
4.00776298192795E-06,-1.55321649799589E-05,8.4375,0,0
4.95145559398225E-06,-1.87953446584288E-05,8.4375,0,0
5.62258583158837E-06,-2.1495599867194E-05,8.4375,0,0
6.659612608928E-06,-2.33053469855804E-05,8.4375,0,0
6.714474693581E-06,-2.37301974266302E-05,8.4375,0,0
6.87612782712677E-06,-2.4970606318675E-05,8.4375,0,0
6.93602532919613E-06,-2.52140216616681E-05,8.4375,0,0
6.44540341454558E-06,-2.63181900663767E-05,8.4375,0,0
4.40018766312278E-06,-2.47667194344103E-05,8.4375,0,0
3.11863050228567E-06,-2.46905310632428E-05,8.4375,0,0
1.85569922450668E-06,-2.24796040129149E-05,8.4375,0,0
1.01816988262726E-06,-1.9900651750504E-05,8.4375,0,0
1.28392844089831E-06,-1.56235382746672E-05,8.4375,0,0
2.50692755798809E-06,-1.39932863021386E-05,8.4375,0,0
2.29036186283338E-06,-1.33988751258585E-05,8.4375,0,0
3.01248860523629E-06,-1.36440521600889E-05,8.4375,0,0
4.4205407903064E-06,-1.30657026602421E-05,8.4375,0,0
5.76345428271452E-06,-1.42910212161951E-05,8.4375,0,0
5.85164798394544E-06,-1.64046687132213E-05,8.4375,0,0
4.0975592128234E-06,-1.61653642862802E-05,8.4375,0,0
8.19211720681778E-07,-1.28131641758955E-05,8.4375,0,0
5.03377805216587E-07,-1.88319354492705E-05,8.4375,0,0
1.19441165224998E-06,-1.57203885464696E-05,8.4375,0,0
2.97046767627762E-06,-1.87025179911871E-05,8.4375,0,0
1.84591294782877E-06,-1.43303877848666E-05,8.4375,0,0
1.14501415282575E-06,-1.60595063789515E-05,8.4375,0,0
1.39987002967246E-06,-1.7157246475108E-05,8.4375,0,0
3.18154138767568E-06,-2.06466793315485E-05,8.4375,0,0
3.90755258194986E-06,-2.18726163438987E-05,8.4375,0,0
2.80504582406138E-06,-2.26308566197986E-05,8.4375,0,0
1.74449633050244E-06,-2.40476347244112E-05,8.4375,0,0
2.22022435991676E-06,-2.5097326215473E-05,8.4375,0,0
3.52530423697317E-06,-2.6166419047513E-05,8.4375,0,0
4.04968341172207E-06,-2.43547838181257E-05,8.4375,0,0
4.50760217063362E-06,-2.26550546358339E-05,8.4375,0,0
4.86449516756693E-06,-2.02181145141367E-05,8.4375,0,0
5.14387238581548E-06,-2.00645263248589E-05,8.4375,0,0
5.8051223277289E-06,-1.8017452021013E-05,8.4375,0,0
7.11704615241615E-06,-1.7021520761773E-05,8.4375,0,0
6.10349343332928E-06,-1.48553963299491E-05,8.4375,0,0
3.71871351489972E-06,-1.43808119901223E-05,8.4375,0,0
3.16252226184588E-06,-1.47350010593073E-05,8.4375,0,0
4.40075837104814E-06,-1.48027247632854E-05,8.4375,0,0
6.09787093708292E-06,-1.38935483846581E-05,8.4375,0,0
7.724809620413E-06,-1.37741462822305E-05,8.4375,0,0
7.40753921490978E-06,-1.36045946419472E-05,8.4375,0,0
5.13084660269669E-06,-1.34122083181865E-05,8.4375,0,0
3.53983682543912E-06,-9.27460951061221E-06,8.4375,0,0
6.87288229528349E-06,-1.19599026220385E-05,8.4375,0,0
7.1387462412531E-06,-8.07273772807093E-06,8.4375,0,0
6.96440247338614E-06,-1.14739896162064E-05,8.4375,0,0
4.77146977573284E-06,-1.05074059320032E-05,8.4375,0,0
4.14428041040082E-06,-1.32179711727076E-05,8.4375,0,0
3.35129152517766E-06,-1.40810889206477E-05,8.4375,0,0
3.48818912243587E-06,-1.66069894476095E-05,8.4375,0,0
4.61414401797811E-06,-1.64417306223186E-05,8.4375,0,0
5.76085903958301E-06,-1.47044511322747E-05,8.4375,0,0
5.74303385292296E-06,-1.48372955663945E-05,8.4375,0,0
4.71698331239168E-06,-1.65046712936601E-05,8.4375,0,0
4.43268845629063E-06,-1.84962227649521E-05,8.4375,0,0
4.29633837484289E-06,-1.88732628885191E-05,8.4375,0,0
4.62636398879113E-06,-2.05810210900381E-05,8.4375,0,0
4.73393174615921E-06,-2.08075216505677E-05,8.4375,0,0
4.43743238065508E-06,-2.15315303648822E-05,8.4375,0,0
3.52827601091121E-06,-2.17826109292218E-05,8.4375,0,0
3.32345780407195E-06,-2.26357569772517E-05,8.4375,0,0
3.54495296051027E-06,-2.1423191356007E-05,8.4375,0,0
3.70305451724562E-06,-2.0488747395575E-05,8.4375,0,0
3.09055235447886E-06,-1.87629775609821E-05,8.4375,0,0
3.03852198157983E-06,-1.76802914211294E-05,8.4375,0,0
3.37043934450776E-06,-1.62242940859869E-05,8.4375,0,0
2.33572609431576E-06,-1.50826563185547E-05,8.4375,0,0
4.3222809154031E-07,-1.55203888425604E-05,8.4375,0,0
-7.89586295013578E-07,-1.6555957699893E-05,8.4375,0,0
-1.21948153264384E-06,-1.429306485079E-05,8.4375,0,0
-1.22026233384531E-06,-2.0057075744262E-05,8.4375,0,0
-1.80820975970164E-07,-1.38394225359662E-05,8.4375,0,0
-4.89546550852538E-07,-1.58743787324056E-05,8.4375,0,0
-1.0587383769689E-07,-1.28814454001258E-05,8.4375,0,0
-1.18761569467551E-07,-1.55485904542729E-05,8.4375,0,0
1.57743698991908E-07,-1.34419369715033E-05,8.4375,0,0
1.16542059913627E-06,-1.3533845958591E-05,8.4375,0,0
2.71733028966992E-06,-1.38736450026045E-05,8.4375,0,0
3.19144214699918E-06,-1.55163488670951E-05,8.4375,0,0
3.51612561644288E-06,-1.64792945724912E-05,9.66796875,0,0
4.95831363878096E-06,-1.55096586240688E-05,9.66796875,0,0
6.40064990875544E-06,-1.54556619236246E-05,9.66796875,0,0
5.77965965931071E-06,-1.45655994856497E-05,9.66796875,0,0
2.94222013508261E-06,-1.56586702360073E-05,9.66796875,0,0
1.27829071061569E-06,-1.6033509382396E-05,9.66796875,0,0
1.85616113412834E-06,-1.77840065589407E-05,9.66796875,0,0
2.47008051701414E-06,-1.65819619724061E-05,9.66796875,0,0
1.11669612579135E-06,-1.66887584782671E-05,9.66796875,0,0
-4.99214891647171E-08,-1.63141994562466E-05,9.66796875,0,0
-4.45405525795195E-08,-1.6801968740765E-05,9.66796875,0,0
6.49628262294755E-08,-1.62897831614828E-05,9.66796875,0,0
-5.91280581829778E-07,-1.76116063812515E-05,9.66796875,0,0
-4.69123108359781E-07,-1.90733808267396E-05,9.66796875,0,0
3.52650971535695E-07,-1.96581604541279E-05,9.66796875,0,0
1.1164642046424E-06,-1.97284134628717E-05,9.66796875,0,0
1.52215136495215E-06,-2.08784822461894E-05,9.66796875,0,0
1.3564088021667E-06,-1.78395002876641E-05,9.66796875,0,0
2.20322476707224E-06,-2.58717136603082E-05,9.66796875,0,0
2.23130678023153E-06,-1.99631849682191E-05,9.66796875,0,0
3.67789607480518E-06,-2.39686614804668E-05,9.66796875,0,0
5.4969959819573E-06,-1.90040191228036E-05,9.66796875,0,0
7.54420534576639E-06,-2.06592285394436E-05,9.66796875,0,0
7.97692609921796E-06,-1.94612512132153E-05,9.66796875,0,0
8.37593961477978E-06,-2.1083360479679E-05,9.66796875,0,0
9.16799126571277E-06,-2.10879697988275E-05,9.66796875,0,0
9.94646416074829E-06,-2.04164844035404E-05,9.66796875,0,0
9.83345216809539E-06,-1.93720297829714E-05,9.66796875,0,0
7.64807009545621E-06,-1.88005578820594E-05,9.66796875,0,0
5.12049973622197E-06,-1.99675378098618E-05,9.66796875,0,0
4.60528326584608E-06,-1.83851680048974E-05,9.66796875,0,0
5.3441272029886E-06,-1.78519439941738E-05,9.66796875,0,0
5.15239298692904E-06,-1.60671152116265E-05,9.66796875,0,0
4.59331658930751E-06,-1.68718815984903E-05,9.66796875,0,0
4.67895006295294E-06,-1.50856358231977E-05,9.66796875,0,0
5.30189572600648E-06,-1.3857224075764E-05,9.66796875,0,0
5.82948314331588E-06,-1.19030955829658E-05,9.66796875,0,0
6.43991734250449E-06,-1.34799684019526E-05,9.66796875,0,0
4.9233954086958E-06,-1.48168674058979E-05,9.66796875,0,0
2.30169371207012E-06,-1.63221775437705E-05,9.66796875,0,0
1.31413071358111E-06,-1.74169945239555E-05,9.66796875,0,0
1.79510220732482E-06,-1.84401178557891E-05,9.66796875,0,0
1.31145554860268E-06,-1.84832624654518E-05,9.66796875,0,0
-4.20276563772859E-07,-1.81150790012907E-05,9.66796875,0,0
-8.1899406723096E-07,-1.26778832054697E-05,9.66796875,0,0
-3.69567061397902E-07,-1.74568231159355E-05,9.66796875,0,0
1.52296468058921E-06,-1.35976670208038E-05,9.66796875,0,0
2.77966682915576E-06,-1.86219840543345E-05,9.66796875,0,0
2.64702748609125E-06,-1.71223400684539E-05,9.66796875,0,0
5.1878964768548E-07,-2.14026076719165E-05,9.66796875,0,0
-3.01093336929625E-08,-2.30880777962739E-05,9.66796875,0,0
1.5540119875368E-06,-2.44283419306157E-05,9.66796875,0,0
3.30755460709042E-06,-2.25255844270578E-05,9.66796875,0,0
2.30571731663076E-06,-2.15163690882036E-05,9.66796875,0,0
-4.64601242811113E-07,-2.11888618650846E-05,9.66796875,0,0
-1.83981001100619E-06,-2.01515013031894E-05,9.66796875,0,0
-9.52355946992611E-07,-2.19117300730431E-05,9.66796875,0,0
9.01024975519249E-07,-2.20801612158539E-05,9.66796875,0,0
2.25954499910586E-06,-2.19369703700067E-05,9.66796875,0,0
3.09888923766266E-06,-2.02016963157803E-05,9.66796875,0,0
2.77455433206342E-06,-2.06267759494949E-05,9.66796875,0,0
2.04603406928072E-06,-1.97169665625552E-05,9.66796875,0,0
2.24186373998236E-06,-1.92105708265444E-05,9.66796875,0,0
3.4503709684941E-06,-1.7675800336292E-05,9.66796875,0,0
3.08897915601847E-06,-1.79673970706062E-05,9.66796875,0,0
1.20781567147787E-06,-1.72678446688224E-05,9.66796875,0,0
3.05043442949682E-07,-1.65011260833126E-05,9.66796875,0,0
4.85059331367665E-07,-1.51179619933828E-05,9.66796875,0,0
2.60022801512605E-07,-1.43010129249888E-05,9.66796875,0,0
8.31763770747784E-07,-1.45514832183835E-05,9.66796875,0,0
2.63619449469843E-06,-1.43224051498692E-05,9.66796875,0,0
3.39179405273171E-06,-1.24003636301495E-05,9.66796875,0,0
3.7961790440022E-06,-1.70707389770541E-05,9.66796875,0,0
-5.05920297655393E-07,-1.10276614577742E-05,9.66796875,0,0
-6.8382632889552E-07,-1.30318030642229E-05,9.66796875,0,0
9.34778483951959E-07,-1.12898951556417E-05,9.66796875,0,0
2.38661255025363E-06,-1.51655767695047E-05,9.66796875,0,0
9.2078954594399E-07,-1.51946524056257E-05,9.66796875,0,0
4.06483025017224E-07,-1.49451288962155E-05,9.66796875,0,0
8.31104387088999E-07,-1.35097225211211E-05,9.66796875,0,0
2.08827577807824E-06,-1.38976947710034E-05,9.66796875,0,0
2.76958257927618E-06,-1.59724095283309E-05,9.66796875,0,0
1.9296371647215E-06,-1.68466795003042E-05,9.66796875,0,0
9.16618603241659E-07,-1.82362728082808E-05,9.66796875,0,0
-5.85951738685253E-07,-1.76864214154193E-05,9.66796875,0,0
-8.11751249329973E-07,-1.75669320015004E-05,9.66796875,0,0
-2.48043335204784E-07,-1.60710696945898E-05,9.66796875,0,0
1.23153461117909E-06,-1.60353556566406E-05,9.66796875,0,0
2.56650810115389E-06,-1.51747444760986E-05,9.66796875,0,0
3.23076096719888E-06,-1.61987045430578E-05,9.66796875,0,0
2.84097018266039E-06,-1.62250235007377E-05,9.66796875,0,0
2.39483756558911E-06,-1.58747479872545E-05,9.66796875,0,0
1.69318718690192E-06,-1.42367389344145E-05,9.66796875,0,0
2.35282277571969E-06,-1.37659553729463E-05,9.66796875,0,0
2.98772852147522E-06,-1.37284869197174E-05,9.66796875,0,0
1.52133929987031E-06,-1.32468348965631E-05,9.66796875,0,0
-7.14586406047601E-07,-1.13839296318474E-05,9.66796875,0,0
-1.69231168456463E-06,-1.03615220723441E-05,9.66796875,0,0
1.5873288461421E-08,-8.31758552521933E-06,9.66796875,0,0
2.35096968026483E-06,-1.28455394587945E-05,9.66796875,0,0
4.46387002739357E-06,-1.2304614756431E-05,9.66796875,0,0
2.61088757724792E-06,-1.50299620145233E-05,9.66796875,0,0
1.25644544368697E-06,-1.25231790661928E-05,9.66796875,0,0
1.76269804796902E-06,-1.44932000694098E-05,9.66796875,0,0
2.9355499009398E-06,-1.623922798899E-05,9.66796875,0,0
3.58436795977468E-06,-1.8460572391632E-05,9.66796875,0,0
3.90226932722726E-06,-1.63177537615411E-05,9.66796875,0,0
4.01830993723706E-06,-1.37770157380146E-05,9.66796875,0,0
4.21887625634554E-06,-1.31421375044738E-05,9.66796875,0,0
4.26916312790127E-06,-1.27376852105954E-05,9.66796875,0,0
4.21068943978753E-06,-1.28369947560714E-05,9.66796875,0,0
3.82707594326348E-06,-1.14536742330529E-05,9.66796875,0,0
3.05141952594568E-06,-1.04393366200384E-05,9.66796875,0,0
2.3372228952212E-06,-9.34947547648335E-06,9.66796875,0,0
2.53016082751856E-06,-1.16075643745717E-05,9.66796875,0,0
3.28924284076493E-06,-1.32996547108633E-05,9.66796875,0,0
3.20791309604829E-06,-1.32152936203056E-05,9.66796875,0,0
3.17894205181801E-06,-1.08387312138802E-05,9.66796875,0,0
3.54710186911689E-06,-9.97320239548571E-06,9.66796875,0,0
5.30984561919468E-06,-1.00874294730602E-05,9.66796875,0,0
8.30890712677501E-06,-1.1091662599938E-05,9.66796875,0,0
1.01155646916595E-05,-1.10188775579445E-05,9.66796875,0,0
8.78957689565141E-06,-1.07483556348598E-05,9.66796875,0,0
7.54211259845761E-06,-1.18343268695753E-05,9.66796875,0,0
6.96515962772537E-06,-1.40496413223445E-05,9.66796875,0,0
3.5327557270648E-06,-1.36154403662658E-05,9.66796875,0,0
2.54030487667478E-06,-2.00066442630487E-05,9.66796875,0,0
-8.11789902854798E-07,-1.54539502545958E-05,9.66796875,0,0
1.51882420595939E-06,-1.94541735254461E-05,9.66796875,0,0
1.41617579174635E-06,-1.92032257473329E-05,9.66796875,0,0
1.63645677275781E-06,-2.28021544899093E-05,9.66796875,0,0
7.55301812205289E-07,-2.16016305785161E-05,9.66796875,0,0
1.64519303780253E-06,-2.17394135688664E-05,9.66796875,0,0
3.39968505613797E-06,-2.15965610550484E-05,9.66796875,0,0
5.1362872000027E-06,-2.23627266677795E-05,9.66796875,0,0
5.07730510435067E-06,-2.20955807890277E-05,9.66796875,0,0
3.43442184203013E-06,-2.07574212254258E-05,9.66796875,0,0
2.41514612753235E-06,-2.07682242034934E-05,9.66796875,0,0
1.93912296708731E-06,-2.02153496502433E-05,9.66796875,0,0
3.45357125297596E-06,-2.03404415515251E-05,9.66796875,0,0
5.23636754223844E-06,-1.8407739844406E-05,9.66796875,0,0
6.54114410281181E-06,-1.87452278623823E-05,9.66796875,0,0
6.38732990410062E-06,-1.85989047167823E-05,9.66796875,0,0
6.66773757984629E-06,-2.01548155018827E-05,9.66796875,0,0
6.9883376454527E-06,-2.05953620024957E-05,9.66796875,0,0
7.29638486518525E-06,-2.19556968659163E-05,9.66796875,0,0
6.43815201328835E-06,-2.20036345126573E-05,9.66796875,0,0
5.95967503613792E-06,-2.16796815948328E-05,9.66796875,0,0
5.91866682952968E-06,-2.01625498448266E-05,9.66796875,0,0
5.62032801099122E-06,-1.94007279787911E-05,9.66796875,0,0
5.20362436873256E-06,-2.03276067622937E-05,9.66796875,0,0
5.63790672458708E-06,-2.2654176063952E-05,9.66796875,0,0
4.63088372271159E-06,-1.75517943716841E-05,9.66796875,0,0
7.49945684219711E-06,-2.18184977711644E-05,9.66796875,0,0
6.35011792837759E-06,-1.21566818052088E-05,9.66796875,0,0
6.80621269566473E-06,-1.59730261657387E-05,9.66796875,0,0
5.01516342410469E-06,-1.26204186017276E-05,9.66796875,0,0
4.52531958217151E-06,-1.66718509717612E-05,9.66796875,0,0
4.59096872873488E-06,-1.56591122504324E-05,9.66796875,0,0
5.9059279919893E-06,-1.6166084606084E-05,9.66796875,0,0
5.20796038472326E-06,-1.37558845381136E-05,9.66796875,0,0
4.19037542087608E-06,-1.35924328787951E-05,9.66796875,0,0
3.82269399779034E-06,-1.45825797517318E-05,9.66796875,0,0
3.53384393747547E-06,-1.44526757139829E-05,9.66796875,0,0
4.14864598496933E-06,-1.472241274314E-05,10.72265625,0,0
4.38408096670173E-06,-1.32982650029589E-05,10.72265625,0,0
3.32530726154801E-06,-1.30086846183985E-05,10.72265625,0,0
1.56323062583397E-06,-9.90796070254873E-06,10.72265625,0,0
1.68869962635654E-06,-1.06864235931425E-05,10.72265625,0,0
1.66106167398539E-06,-1.08860831460333E-05,10.72265625,0,0
1.88330216133181E-06,-1.27206385514E-05,10.72265625,0,0
2.43607200900442E-06,-1.22756837299676E-05,10.72265625,0,0
3.03102547150047E-06,-1.39918665809091E-05,10.72265625,0,0
2.79592745755508E-06,-1.44651094160508E-05,10.72265625,0,0
1.56136775331106E-06,-1.45176027217531E-05,10.72265625,0,0
-6.52012261070922E-07,-1.35363034132752E-05,10.72265625,0,0
-2.33333622645659E-07,-1.47483060572995E-05,10.72265625,0,0
1.13491887532291E-06,-1.63612639880739E-05,10.72265625,0,0
1.19922663088801E-06,-1.84141827048734E-05,10.72265625,0,0
1.78313291598897E-06,-1.48559302033391E-05,10.72265625,0,0
3.68537848771666E-06,-1.9499369955156E-05,10.72265625,0,0
3.14303974846553E-06,-1.27888342831284E-05,10.72265625,0,0
2.11627389035129E-06,-1.60818926815409E-05,10.72265625,0,0
1.99711416826176E-06,-1.23557410915964E-05,10.72265625,0,0
3.05338835460134E-06,-1.42014023367665E-05,10.72265625,0,0
3.92546962757478E-06,-1.33960629682406E-05,10.72265625,0,0
4.0193826862378E-06,-1.71083411260042E-05,10.72265625,0,0
3.92348329114611E-06,-1.94829244719585E-05,10.72265625,0,0
4.1456510189164E-06,-2.08177752938354E-05,10.72265625,0,0
3.67428879144427E-06,-2.14994652196765E-05,10.72265625,0,0
2.83627082353632E-06,-2.0817840777454E-05,10.72265625,0,0
2.53894791057974E-06,-2.01291877601761E-05,10.72265625,0,0
1.78563459485304E-06,-1.88586727745133E-05,10.72265625,0,0
8.18794148926827E-07,-2.07085759029724E-05,10.72265625,0,0
1.17883098482707E-06,-2.12190298043424E-05,10.72265625,0,0
2.77526078207302E-06,-2.2176771381055E-05,10.72265625,0,0
4.20265314460266E-06,-2.01894472411368E-05,10.72265625,0,0
4.74635226055398E-06,-2.07780776690925E-05,10.72265625,0,0
4.26593351221527E-06,-2.07025659619831E-05,10.72265625,0,0
3.99249029214843E-06,-2.06416243599961E-05,10.72265625,0,0
4.32309161624289E-06,-2.01043567358283E-05,10.72265625,0,0
4.67194104203372E-06,-2.24932646233356E-05,10.72265625,0,0
5.17128137289546E-06,-2.33835307881236E-05,10.72265625,0,0
5.85664292884758E-06,-2.2429354430642E-05,10.72265625,0,0
5.72801400267053E-06,-2.07480588869657E-05,10.72265625,0,0
5.53687277715653E-06,-2.09739027923206E-05,10.72265625,0,0
4.48629089078167E-06,-1.77024157892447E-05,10.72265625,0,0
6.91901323079946E-06,-2.56798466580221E-05,10.72265625,0,0
6.38267101749079E-06,-2.0319661416579E-05,10.72265625,0,0
6.82443123878329E-06,-2.50280518230284E-05,10.72265625,0,0
4.00843100578641E-06,-2.2642852854915E-05,10.72265625,0,0
4.16440116168815E-06,-2.74744870694121E-05,10.72265625,0,0
4.32774777436862E-06,-2.63951169472421E-05,10.72265625,0,0
4.52768836112227E-06,-2.62432786257705E-05,10.72265625,0,0
3.41104032486328E-06,-2.22773651330499E-05,10.72265625,0,0
3.20592630487226E-06,-1.69555514730746E-05,10.72265625,0,0
3.13883924718539E-06,-1.22428773465799E-05,10.72265625,0,0
2.69847441813909E-06,-9.36379365157336E-06,10.72265625,0,0
2.31543776862964E-06,-1.16767505460302E-05,10.72265625,0,0
1.58294676566584E-06,-1.43411534736515E-05,10.72265625,0,0
1.91055028153642E-06,-1.67464986589039E-05,10.72265625,0,0
2.14656938624103E-06,-1.31611404867726E-05,10.72265625,0,0
2.60189585787884E-06,-9.53831840888597E-06,10.72265625,0,0
2.17467481888889E-06,-5.57424209546298E-06,10.72265625,0,0
1.89801073702256E-06,-7.3575092756073E-06,10.72265625,0,0
3.47577412185274E-07,-9.71048484643688E-06,10.72265625,0,0
-2.658765652086E-07,-1.25739497889299E-05,10.72265625,0,0
7.70429721796972E-07,-1.34920655909809E-05,10.72265625,0,0
2.57687315752264E-06,-1.47617010952672E-05,10.72265625,0,0
2.99800512948423E-06,-1.49106317621772E-05,10.72265625,0,0
3.34627111442387E-06,-1.56404203153215E-05,10.72265625,0,0
4.64302183900145E-06,-1.61570405907696E-05,10.72265625,0,0
5.33519641976454E-06,-1.51541999002802E-05,10.72265625,0,0
3.41235136147588E-06,-1.0778534488054E-05,10.72265625,0,0
5.09296978634666E-06,-1.39496878546197E-05,10.72265625,0,0
5.21496167493751E-06,-8.62658362166258E-06,10.72265625,0,0
7.43077407605597E-06,-1.16502960736398E-05,10.72265625,0,0
5.77812670599087E-06,-9.73179976426763E-06,10.72265625,0,0
3.89407159673283E-06,-1.20512377179693E-05,10.72265625,0,0
2.06681988856872E-06,-1.272625013371E-05,10.72265625,0,0
1.89424042673636E-06,-1.47336868394632E-05,10.72265625,0,0
1.64821994985687E-06,-1.61810112331295E-05,10.72265625,0,0
1.46681497881218E-06,-1.76590310729807E-05,10.72265625,0,0
1.48935578181408E-06,-1.79461785592139E-05,10.72265625,0,0
1.01652301509603E-06,-1.65534620464314E-05,10.72265625,0,0
1.37959659696207E-06,-1.65489545906894E-05,10.72265625,0,0
2.46495892497478E-06,-1.58529019245179E-05,10.72265625,0,0
3.72800195691525E-06,-1.61102252604906E-05,10.72265625,0,0
4.26608630732517E-06,-1.60576983034844E-05,10.72265625,0,0
5.89808587392326E-06,-1.9374800103833E-05,10.72265625,0,0
7.08859079168178E-06,-2.25157109525753E-05,10.72265625,0,0
7.05514185028733E-06,-2.48449887294555E-05,10.72265625,0,0
5.94934317632578E-06,-2.49902332143392E-05,10.72265625,0,0
5.05736988998251E-06,-2.48728592850966E-05,10.72265625,0,0
4.39793211626238E-06,-2.29954948736122E-05,10.72265625,0,0
5.91476600675378E-06,-2.2316486138152E-05,10.72265625,0,0
7.78971661929972E-06,-2.14941501326393E-05,10.72265625,0,0
8.45485465106322E-06,-2.01718048629118E-05,10.72265625,0,0
8.50318519951543E-06,-1.86431225301931E-05,10.72265625,0,0
8.45011618366698E-06,-1.71061547007412E-05,10.72265625,0,0
6.92756520948024E-06,-1.41653772516293E-05,10.72265625,0,0
9.09594200493302E-06,-2.18290006159805E-05,10.72265625,0,0
7.12095697963377E-06,-1.80792394530727E-05,10.72265625,0,0
1.00954403023934E-05,-2.22621201828588E-05,10.72265625,0,0
7.23532320989762E-06,-1.96281253010966E-05,10.72265625,0,0
6.59973920846824E-06,-1.84305481525371E-05,10.72265625,0,0
5.047158083471E-06,-1.43533588925493E-05,10.72265625,0,0
5.36471907253144E-06,-1.45295380207244E-05,10.72265625,0,0
5.14976363774622E-06,-1.54526605911087E-05,10.72265625,0,0
4.62433263237472E-06,-1.68324368132744E-05,10.72265625,0,0
4.0854538383428E-06,-1.71820411196677E-05,10.72265625,0,0
3.32765876009944E-06,-1.62172054842813E-05,10.72265625,0,0
2.19139656110201E-06,-1.65524288604502E-05,10.72265625,0,0
-3.3874064797601E-07,-1.54908520926256E-05,10.72265625,0,0
-7.55916573780269E-07,-1.47675518746837E-05,10.72265625,0,0
2.98567698564511E-07,-1.35175960167544E-05,10.72265625,0,0
2.46704416895227E-06,-1.47777236634283E-05,10.72265625,0,0
2.80100016425422E-06,-1.45305339174229E-05,10.72265625,0,0
2.88425349026511E-06,-1.49475963553414E-05,10.72265625,0,0
2.56105727203249E-06,-1.4537255083269E-05,10.72265625,0,0
3.67706866200024E-06,-1.50132391354418E-05,10.72265625,0,0
3.76048069483659E-06,-1.42193921419675E-05,10.72265625,0,0
4.03924059355631E-06,-1.46962274811813E-05,10.72265625,0,0
4.61647232441464E-06,-1.50376445162692E-05,10.72265625,0,0
6.24200902166194E-06,-1.6192336261156E-05,10.72265625,0,0
6.57642794976709E-06,-1.69539325725054E-05,10.72265625,0,0
5.31600335307303E-06,-1.63342829182511E-05,10.72265625,0,0
3.41395298164571E-06,-1.32082886921125E-05,10.72265625,0,0
3.51199037140759E-06,-1.92946426977869E-05,10.72265625,0,0
1.78970856268279E-06,-1.41866721605766E-05,10.72265625,0,0
4.17355522586149E-06,-1.62334963533795E-05,10.72265625,0,0
3.66055269296339E-06,-1.51341819218942E-05,10.72265625,0,0
2.78587572211109E-06,-2.01931125047849E-05,10.72265625,0,0
1.34567630993843E-06,-2.11834158108104E-05,10.72265625,0,0
2.05291735255742E-06,-2.26728407142218E-05,10.72265625,0,0
2.75739512289874E-06,-2.15001382457558E-05,10.72265625,0,0
2.63138144873665E-06,-2.0080384274479E-05,10.72265625,0,0
2.29880356528156E-06,-1.92383504327154E-05,10.72265625,0,0
1.30181467739021E-06,-1.97250301425811E-05,10.72265625,0,0
-5.6458657127223E-07,-2.09833597182296E-05,10.72265625,0,0
-2.3175084606919E-06,-1.91892941074912E-05,10.72265625,0,0
-1.49080585742922E-06,-1.86450233741198E-05,10.72265625,0,0
6.37381560864014E-07,-1.7474485503044E-05,10.72265625,0,0
2.68500025413232E-06,-1.77643360075308E-05,10.72265625,0,0
2.57529450209404E-06,-1.7053956980817E-05,10.72265625,0,0
2.47785237661446E-06,-1.9217641238356E-05,10.72265625,0,0
2.54200631388812E-06,-2.05251035367837E-05,10.72265625,0,0
