biceps_emg, triceps_emg, subject_position, position_estimate, brace_position
-1.97634180949535E-05,1.1839481885545E-05,0,0,0.00862881311360449
-2.89564959530253E-05,1.85529315785971E-05,0,0,0.00862881311360449
-2.26200845645508E-05,1.69485520018497E-05,0,0,0.00862881311360449
-2.7940730433329E-05,1.86810520972358E-05,0,0,0.00862881311360449
-2.47588250203989E-05,1.22644632938318E-05,0,0,0.00862881311360449
-2.69831361947581E-05,1.20086415336118E-05,0,0,0.00862881311360449
-2.45054743572837E-05,1.11801891762298E-05,0,0,0.00862881311360449
-2.49735603574663E-05,1.18096058940864E-05,0,0,0.00862881311360449
-2.43787089857506E-05,1.10798682726454E-05,0,0,0.00862881311360449
-2.48096603172598E-05,1.1628316315182E-05,0,0,0.00862881311360449
-2.52379559242399E-05,1.21261837193742E-05,0,0,0.00862881311360449
-2.51446126640076E-05,1.21282228064956E-05,0,0,0.00862881311360449
-2.64642330876086E-05,1.28529436551617E-05,0,0,0.00862881311360449
-2.48129254032392E-05,1.17224517452996E-05,0,0,0.00862881311360449
-2.47428943112027E-05,1.06582010630518E-05,0,0,0.00862881311360449
-2.35998722928343E-05,8.25514780444792E-06,0,0,0.00862881311360449
-2.46616164076841E-05,8.70177245815285E-06,0,0,0.00862881311360449
-2.34530689340318E-05,9.53781636781059E-06,0,0,0.00862881311360449
-2.46575236815261E-05,1.1302416169201E-05,0,0,0.00862881311360449
-2.44777638727101E-05,1.08777876448585E-05,0,0,0.00862881311360449
-2.44332441070583E-05,1.13916730697383E-05,0,0,0.00862881311360449
-2.20459714910248E-05,1.11775143523118E-05,0,0,0.00862881311360449
-2.15687068703119E-05,1.00716642918997E-05,0,0,0.00862881311360449
-2.17795277421828E-05,9.52621303440537E-06,0,0,0.00862881311360449
-2.2952632207307E-05,1.27053363030427E-05,0,0,0.00862881311360449
-2.30458081205143E-05,1.63250424520811E-05,0,0,0.00862881311360449
-2.26173924602335E-05,1.80164224730106E-05,0,0,0.00862881311360449
-1.8114913473255E-05,1.23876607176499E-05,0,0,0.00862881311360449
-2.5467483283137E-05,1.56410060299095E-05,0,0,0.00862881311360449
-1.94940457731718E-05,1.0173592272622E-05,0,0,0.00862881311360449
-2.61886943917489E-05,1.43854003908928E-05,0,0,0.00862881311360449
-2.37859221670078E-05,1.19993856060319E-05,0,0,0.00862881311360449
-2.60205524682533E-05,1.3779676919512E-05,0,0,0.00862881311360449
-2.38300435739802E-05,1.15136981548858E-05,0,0,0.00862881311360449
-2.31664453167468E-05,1.15206776172272E-05,0,0,0.00862881311360449
-2.16570751945255E-05,1.05784247352858E-05,0,0,0.00862881311360449
-2.2755730242352E-05,1.04432510852348E-05,0,0,0.00862881311360449
-2.38677130255383E-05,1.09072625491535E-05,0,0,0.00862881311360449
-2.33782357099699E-05,1.18987527457648E-05,0,0,0.00862881311360449
-2.36387404584093E-05,1.37396200443618E-05,0,0,0.00862881311360449
-2.28598164540017E-05,1.21702223623288E-05,0,0,0.00862881311360449
-2.46963973040693E-05,1.06323259387864E-05,0,0,0.00862881311360449
-2.49378699663794E-05,8.66553909872891E-06,0,0,0.00862881311360449
-2.59575208474416E-05,9.89622913039057E-06,0,0,0.00862881311360449
-2.44722996285418E-05,9.9271774161025E-06,0,0,0.00862881311360449
-2.52771642408334E-05,1.0631479199219E-05,0,0,0.00862881311360449
-2.51252913585631E-05,9.85988026513951E-06,0,0,0.00862881311360449
-2.64349364442751E-05,1.06501702248352E-05,0,0,0.00862881311360449
-2.57384108408587E-05,1.13494579636608E-05,0,0,0.00862881311360449
-2.59870266745565E-05,1.313711709372E-05,0,0,0.00862881311360449
-2.63241363427369E-05,1.24214529932942E-05,0,0,0.00862881311360449
-2.80830481642624E-05,1.04310875030933E-05,0,0,0.00862881311360449
-2.93038829113357E-05,9.96099697658792E-06,0,0,0.00862881311360449
-2.99883395200595E-05,1.0280751666869E-05,0,0,0.00862881311360449
-2.35432635236066E-05,7.50631079426967E-06,0,0,0.00862881311360449
-3.19101818604395E-05,1.08893746073591E-05,0,0,0.00862881311360449
-2.22031067096395E-05,1.00277065939736E-05,0,0,0.00862881311360449
-2.87053262582049E-05,1.21599787235027E-05,0,0,0.00862881311360449
-2.32812544709304E-05,8.63913101056824E-06,0,0,0.00862881311360449
-2.52370646194322E-05,9.43867871683324E-06,0,0,0.00862881311360449
-2.11558726732619E-05,9.55237010202836E-06,0,0,0.00862881311360449
-2.2023497876944E-05,1.04516411738587E-05,0,0,0.00862881311360449
-2.24118757614633E-05,9.09305072127609E-06,0,0,0.00862881311360449
-2.35478273680201E-05,8.01595251687104E-06,0,0,0.00862881311360449
-2.41429734160192E-05,9.31955946725793E-06,0,0,0.00862881311360449
-2.31977792282123E-05,1.06094221337116E-05,0,0,0.00862881311360449
-2.45384744630428E-05,1.04173677755171E-05,0,0,0.00862881311360449
-2.41361067310208E-05,8.60547243064502E-06,0,0,0.00862881311360449
-2.62493958871346E-05,8.58091607369715E-06,0,0,0.00862881311360449
-2.52385125349974E-05,8.57030136103276E-06,0,0,0.00862881311360449
-2.58781474258285E-05,9.09607842913829E-06,0,0,0.00862881311360449
-2.33530427067308E-05,7.88535726314876E-06,0,0,0.00862881311360449
-2.33573009609245E-05,7.6780770541518E-06,0,0,0.00862881311360449
-2.20104266190901E-05,7.16684962753789E-06,0,0,0.00862881311360449
-2.23846836888697E-05,7.08946481609019E-06,0,0,0.00862881311360449
-2.12188861041795E-05,6.29549140285235E-06,0,0,0.00862881311360449
-2.12367613130482E-05,5.77757873543305E-06,0,0,0.00862881311360449
-1.95199008885538E-05,6.0604374994E-06,0,0,0.00862881311360449
-1.91393137356499E-05,7.94623701949604E-06,0,0,0.00862881311360449
-1.9907120076823E-05,1.10073897303664E-05,0,0,0.00862881311360449
-2.14644824154675E-05,1.42483349918621E-05,0,0,0.00862881311360449
-1.84072232514154E-05,1.26609447761439E-05,0,0,0.00862881311360449
-2.58337477134774E-05,1.74706874531694E-05,0,0,0.00862881311360449
-1.91772214748198E-05,1.28275260067312E-05,0,0,0.00862881311360449
-2.44989350903779E-05,1.64050270541338E-05,0,0,0.00862881311360449
-2.27284526772564E-05,1.28980864246842E-05,0,0,0.00862881311360449
-2.7293135644868E-05,1.26882250697236E-05,0,0,0.00862881311360449
-2.59286862274166E-05,9.14701377041638E-06,0,0,0.00862881311360449
-2.59417738561751E-05,9.28698591451393E-06,0,0,0.00862881311360449
-2.4061102521955E-05,1.11505260065314E-05,0,0,0.00862881311360449
-2.36534251598641E-05,1.42756962304702E-05,0,0,0.00862881311360449
-2.40111712628277E-05,1.51196454680758E-05,0,0,0.00862881311360449
-2.2966785763856E-05,1.19385576908826E-05,0,0,0.00862881311360449
-2.34355611610226E-05,8.76839203556301E-06,0,0,0.00862881311360449
-2.18017139559379E-05,5.57951898372266E-06,0,0,0.00862881311360449
-2.10517137020361E-05,5.46161572856363E-06,0,0,0.00862881311360449
-1.90761948033469E-05,6.05743298365269E-06,0,0,0.00862881311360449
-2.08486617339076E-05,9.72613452177029E-06,0,0,0.00862881311360449
-2.13021212402964E-05,1.11589279185864E-05,0,0,0.00862881311360449
-2.30187342822319E-05,1.21822022265405E-05,0,0,0.00862881311360449
-2.17073375097243E-05,1.19588485176791E-05,0,0,0.00862881311360449
-2.09111858566757E-05,1.22854216897395E-05,0,0,0.00862881311360449
-1.97794361156411E-05,1.13018759293482E-05,0,0,0.00862881311360449
-2.1476749680005E-05,1.22864457807736E-05,0,0,0.00862881311360449
-2.27758791879751E-05,1.32431605379679E-05,0,0,0.00862881311360449
-2.32672246056609E-05,1.21564262371976E-05,0,0,0.00862881311360449
-2.27927357627777E-05,1.08395825009211E-05,0,0,0.00862881311360449
-2.25185194722144E-05,1.12331817945233E-05,0,0,0.00862881311360449
-1.89258225873346E-05,8.32127625471912E-06,0,0,0.00862881311360449
-2.61069926636992E-05,1.17898925964255E-05,0,0,0.00862881311360449
-1.84736181836342E-05,9.51568108575884E-06,0,0,0.00862881311360449
-2.31728845392354E-05,1.09703059933963E-05,0,0,0.00862881311360449
-1.8901344446931E-05,7.36583751859143E-06,0,0,0.00862881311360449
-2.11609421967296E-05,7.42384827390197E-06,0,0,0.00862881311360449
-2.03187173610786E-05,6.03148282607435E-06,0,0,0.00862881311360449
-2.2979676941759E-05,7.11187431079452E-06,0,0,0.00862881311360449
-2.36242376558948E-05,8.1386906458647E-06,0,0,0.00862881311360449
-2.3964556021383E-05,1.01082769106142E-05,0,0,0.00862881311360449
-2.3145112209022E-05,1.18264588309103E-05,0,0,0.00862881311360449
-2.27102736971574E-05,1.27338043967029E-05,0,0,0.00862881311360449
-2.43640151893487E-05,1.45035946843564E-05,0,0,0.00862881311360449
-2.32136990234721E-05,1.40826869028388E-05,0,0,0.00862881311360449
-2.4000115445233E-05,1.30104199342895E-05,0,0,0.00862881311360449
-2.32429010793567E-05,1.11913150249165E-05,0,0,0.00862881311360449
-2.45700302912155E-05,1.0801651114889E-05,0,0,0.00862881311360449
-2.41394645854598E-05,1.08131443994353E-05,0,0,0.00862881311360449
-2.64823538600467E-05,1.28609954117564E-05,0,0,0.00862881311360449
-2.68858566414565E-05,1.32056184156681E-05,0,0,0.00862881311360449
-2.71103672275785E-05,1.36833359647426E-05,0,0,0.00862881311360449
-2.46152721956605E-05,1.38578679980128E-05,0,0,0.00862881311360449
-2.36550567933591E-05,1.54680128616747E-05,0,0,0.00862881311360449
-2.38153770624194E-05,1.63982895173831E-05,0,0,0.00862881311360449
-2.55033410212491E-05,1.49442603287753E-05,0,0,0.00862881311360449
-2.47480475081829E-05,1.25885017041583E-05,0,0,0.00862881311360449
-2.18934510485269E-05,1.18234584078891E-05,0,0,0.00862881311360449
-1.68983115145238E-05,1.04817609098973E-05,0,0,0.00862881311360449
-2.52952613664093E-05,1.64801622304367E-05,0,0,0.00862881311360449
-2.21104892261792E-05,1.46581414810498E-05,0,0,0.00862881311360449
-2.78062543657143E-05,1.64717039297102E-05,0,0,0.00862881311360449
-2.43485974351643E-05,1.22901146824006E-05,0,0,0.00862881311360449
-2.58832696999889E-05,1.21998637041543E-05,0,0,0.00862881311360449
-2.3237822460942E-05,1.17726831376785E-05,0,0,0.00862881311360449
-2.36253326875158E-05,1.40273505166988E-05,0,0,0.00862881311360449
-2.30225523409899E-05,1.31177930597914E-05,0,0,0.00862881311360449
-2.41322868532734E-05,9.75044531514868E-06,0,0,0.00862881311360449
-2.53338093898492E-05,6.70436429572874E-06,0,0,0.00862881311360449
-2.51000237767585E-05,5.30465149495285E-06,0,0,0.00862881311360449
-2.53843954851618E-05,4.7288458517869E-06,0,0,0.00862881311360449
-2.30405785259791E-05,2.52410836765193E-06,0,0,0.00862881311360449
-2.32090624194825E-05,2.06798517865536E-06,0,0,0.00862881311360449
-2.34274775721133E-05,2.96093753604509E-06,0,0,0.00862881311360449
-2.56562816502992E-05,6.95424432706204E-06,0,0,0.00862881311360449
-2.5250081307604E-05,1.0591528734949E-05,0,0,0.00862881311360449
-2.62967478192877E-05,1.38330169647816E-05,0,0,0.00862881311360449
-2.59573389485013E-05,1.33653838929604E-05,0,0,0.00862881311360449
-2.59234384429874E-05,1.24688749565394E-05,0,0,0.00862881311360449
-2.41412180912448E-05,1.15935081339558E-05,0,0,0.00862881311360449
-2.44871735048946E-05,1.12773459477467E-05,0,0,0.00862881311360449
-2.50680441240547E-05,9.7297825050191E-06,0,0,0.00862881311360449
-2.50653083639918E-05,8.64433604874648E-06,0,0,0.00862881311360449
-2.34598373936024E-05,7.60264174459735E-06,0,0,0.00862881311360449
-2.33348455367377E-05,7.78678440838121E-06,0,0,0.00862881311360449
-2.05658634513384E-05,6.27595409241621E-06,0,0,0.00862881311360449
-2.84217894659378E-05,6.52025119052269E-06,0,0,0.00862881311360449
-2.03782128664898E-05,9.59637986852613E-07,0,0,0.00862881311360449
-2.59202697634464E-05,3.36414768753457E-06,0,0,0.00862881311360449
-2.16112530324608E-05,5.82161601414555E-06,0,0,0.00862881311360449
-2.34225299209356E-05,1.00884653875255E-05,0,0,0.00862881311360449
-2.08629699045559E-05,1.07629794001696E-05,0,0,0.00862881311360449
-2.23232236749027E-05,1.14608119474724E-05,0,0,0.00862881311360449
-2.21287700696848E-05,1.19975147754303E-05,0,0,0.00862881311360449
-2.25221756409155E-05,1.16537530630012E-05,0,0,0.00862881311360449
-2.32566544582369E-05,9.93249796010787E-06,0,0,0.00862881311360449
-2.34447688853834E-05,7.98201745055849E-06,0,0,0.00862881311360449
-2.54285314440494E-05,8.57990380609408E-06,0,0,0.00862881311360449
-2.5140494471998E-05,1.03952743302216E-05,0,0,0.00862881311360449
-2.63816182268783E-05,1.32894638227299E-05,0,0,0.00862881311360449
-2.54366532317363E-05,1.41997097671265E-05,0,0,0.00862881311360449
-2.64096324826824E-05,1.44313762575621E-05,0,0,0.00862881311360449
-2.51159308390925E-05,1.33973317133496E-05,0,0,0.00862881311360449
-2.66915067186346E-05,1.30044845718658E-05,0,0,0.00862881311360449
-2.69053580268519E-05,1.20455479191151E-05,0,0,0.00862881311360449
-2.76454557024408E-05,1.26910481412779E-05,0,0,0.00862881311360449
-2.58409054367803E-05,1.3519356798497E-05,0,0,0.00862881311360449
-2.55550166912144E-05,1.20683371278574E-05,0,0,0.00862881311360449
-2.49914464802714E-05,9.09139816940296E-06,0,0,0.00862881311360449
-2.49566528509604E-05,6.83756479702424E-06,0,0,0.00862881311360449
-2.4573444534326E-05,5.81044878344983E-06,0,0,0.00862881311360449
-2.38146531046368E-05,5.3150656640355E-06,0,0,0.00862881311360449
-1.85354383575032E-05,3.14095154863026E-06,0,0,0.00862881311360449
-2.64303416770417E-05,3.91636558561004E-06,0,0,0.00862881311360449
-2.05211144930217E-05,3.14229123432597E-06,0,0,0.00862881311360449
-2.54765618592501E-05,6.67957874611602E-06,0,0,0.00862881311360449
-2.19656994886464E-05,1.16770816021017E-05,0,0,0.00862881311360449
-2.57215233432362E-05,1.83256834134227E-05,0,0,0.00862881311360449
-2.436346221657E-05,2.10367088584462E-05,0,0,0.00862881311360449
-2.52471163548762E-05,2.07196608243976E-05,0,0,0.00862881311360449
-2.48379565164214E-05,1.6454763681395E-05,0,0,0.00862881311360449
-2.51003457378829E-05,1.17243480417528E-05,0,0,0.00862881311360449
-2.5259727408411E-05,9.74061913439073E-06,0,0,0.00862881311360449
-2.38024713326013E-05,9.67744563240558E-06,0,0,0.00862881311360449
-2.35023198911222E-05,9.37447020987747E-06,0,0,0.00862881311360449
-2.21205809793901E-05,7.90097419667291E-06,0,0,0.00862881311360449
-2.3687023713137E-05,7.59542717787554E-06,0,0,0.00862881311360449
-2.26930114877177E-05,8.60857107909396E-06,0,0,0.00862881311360449
-2.30582099902676E-05,1.08317917693057E-05,0,0,0.00862881311360449
-2.24800223804777E-05,1.15905231723445E-05,0,0,0.00862881311360449
-2.49808890657732E-05,1.05326062111999E-05,0,0,0.00862881311360449
-2.50104458245914E-05,7.63779735279968E-06,0,0,0.00862881311360449
-2.40355420828564E-05,6.36878576187883E-06,0,0,0.00862881311360449
-2.06852037081262E-05,7.78618868935155E-06,0,0,0.00862881311360449
-1.95697357412428E-05,9.37462391448207E-06,0,0,0.00862881311360449
-2.00620197574608E-05,8.2677588579827E-06,0,0,0.00862881311360449
-2.23144415940624E-05,7.27592168914271E-06,0,0,0.00862881311360449
-2.42280984821264E-05,7.89832301961724E-06,0,0,0.00862881311360449
-2.43898193730274E-05,9.36381002247799E-06,0,0,0.00862881311360449
-1.85180724656675E-05,8.42959252622677E-06,0,0,0.00862881311360449
-2.46068630076479E-05,1.26673721752013E-05,0,0,0.00862881311360449
-1.68192764249397E-05,1.14787189886556E-05,0,0,0.00862881311360449
-2.15225481952075E-05,1.38530094773159E-05,0,0,0.00862881311360449
-1.76349512912566E-05,1.12193638415192E-05,0,0,0.00862881311360449
-2.19600315176649E-05,1.1835752047773E-05,0,0,0.00862881311360449
-2.10679754673038E-05,1.10718756332062E-05,0,0,0.00862881311360449
-2.15801501326496E-05,1.47130858749733E-05,0,0,0.00862881311360449
-1.97604185814271E-05,1.77288166014478E-05,0,0,0.00862881311360449
-1.96613545995206E-05,1.86206962098368E-05,0,0,0.00862881311360449
-2.11052010854473E-05,1.5937697753543E-05,0,0,0.00862881311360449
-2.14651663554832E-05,1.20549038911122E-05,0,0,0.00862881311360449
-2.22828566620592E-05,1.00082834251225E-05,0,0,0.00862881311360449
-2.11493206734303E-05,7.49571108826785E-06,0,0,0.00862881311360449
-2.21827067434788E-05,7.23053699402954E-06,0,0,0.00862881311360449
-2.11198675970081E-05,7.3159571911674E-06,0,0,0.00862881311360449
-2.19451503653545E-05,9.43705890676938E-06,0,0,0.00862881311360449
-2.05322485271608E-05,1.03795973700471E-05,0,0,0.00862881311360449
-2.15731961361598E-05,1.06941552076023E-05,0,0,0.00862881311360449
-2.124105594703E-05,8.86759335116949E-06,0,0,0.00862881311360449
-2.1893996745348E-05,8.58199746289756E-06,0,0,0.00862881311360449
-2.08260789804626E-05,9.58387772698188E-06,0,0,0.00862881311360449
-2.09783338505076E-05,1.06931356640416E-05,0,0,0.00862881311360449
-2.11090828088345E-05,1.0264826414641E-05,0,0,0.00862881311360449
-2.17758642975241E-05,1.00791030490655E-05,0,0,0.00862881311360449
-2.15721720451256E-05,1.04040673249983E-05,0,0,0.00862881311360449
-2.13744951906847E-05,1.06858478829963E-05,0,0,0.00862881311360449
-1.79950930032646E-05,8.59393458085833E-06,0,0,0.00862881311360449
-2.61766854237067E-05,1.2569271348184E-05,0,0,0.00862881311360449
-1.99420082935831E-05,9.75419425230939E-06,0,0,0.00862881311360449
-2.42025362240383E-05,1.22969213407487E-05,0,0,0.00862881311360449
-2.11649057746399E-05,1.23857525977655E-05,0,0,0.00862881311360449
-2.41151228692615E-05,1.47625733006862E-05,0,0,0.00862881311360449
-2.3054808480083E-05,1.29261397887603E-05,0,0,0.00862881311360449
-2.49943059316138E-05,1.16306000563782E-05,0,0,0.00862881311360449
-2.62062640103977E-05,1.24766538647236E-05,0,0,0.00862881311360449
-2.67925115622347E-05,1.58840721269371E-05,0,0,0.00862881311360449
-2.63584406638984E-05,1.68086298799608E-05,0,0,0.00862881311360449
-2.50314315053402E-05,1.34661368065281E-05,0,0,0.00862881311360449
-2.57030587818008E-05,1.08145004560356E-05,0,0,0.00862881311360449
-2.55990380537696E-05,1.07611504063243E-05,0,0,0.00862881311360449
-2.67708728642901E-05,1.29369445858174E-05,0,0,0.00862881311360449
-2.50929006142542E-05,1.20747381515685E-05,0,0,0.00862881311360449
-2.47588486672612E-05,1.02135973065742E-05,0,0,0.00862881311360449
-2.28644203161821E-05,8.78768878465053E-06,0,0,0.00862881311360449
-2.31499816436553E-05,9.79990363703109E-06,0,0,0.00862881311360449
-2.3189610146801E-05,7.99165809439728E-06,0,0,0.00862881311360449
-2.57372794294497E-05,4.02162959289853E-06,0,0,0.00862881311360449
-2.66508668573806E-05,1.64480150033341E-06,0,0,0.00862881311360449
-2.79020459856838E-05,4.87603347210097E-06,0,0,0.00862881311360449
-2.84096240648068E-05,1.04674254544079E-05,0,0,0.00862881311360449
-2.76478040177608E-05,1.42284607136389E-05,0,0,0.00862881311360449
-2.60653832810931E-05,1.45872463690466E-05,0,0,0.00862881311360449
-2.59399894275703E-05,1.39996309371782E-05,0,0,0.00862881311360449
-2.20566362258978E-05,1.00714441941818E-05,0,0,0.00862881311360449
-3.20051767630503E-05,1.14298891276121E-05,0,0,0.00862881311360449
-2.43440408667084E-05,5.82709117225022E-06,0,0,0.00862881311360449
-2.83954323094804E-05,1.01853238447802E-05,0,0,0.00862881311360449
-2.31940521189244E-05,1.03396841950598E-05,0,0,0.00862881311360449
-2.63642305071699E-05,1.62025498866569E-05,0,0,0.00862881311360449
-2.36960659094621E-05,1.83671654667705E-05,0,0,0.00862881311360449
-2.45863120653667E-05,1.77700694621308E-05,0,0,0.00862881311360449
-2.41246725636302E-05,1.3998756003275E-05,0,0,0.00862881311360449
-2.51787150773453E-05,1.26745808302076E-05,0,0,0.00862881311360449
-2.5807201382122E-05,1.3706317076867E-05,0,0,0.00862881311360449
-2.36720152315684E-05,1.37373453981127E-05,0,0,0.00862881311360449
-2.28998487727949E-05,1.27861021610443E-05,0,0,0.00862881311360449
-2.11525493796216E-05,1.03174097603187E-05,0,0,0.00862881311360449
-2.26773918257095E-05,1.01265977718867E-05,0,0,0.00862881311360449
-2.14571482501924E-05,9.57334395934595E-06,0,0,0.00862881311360449
-2.17226133827353E-05,1.04433247543056E-05,0,0,0.00862881311360449
-2.06557233468629E-05,1.09537904791068E-05,0,0,0.00862881311360449
-2.32795155170606E-05,1.33926387206884E-05,0,0,0.00862881311360449
-2.35137449635658E-05,1.37932920551975E-05,0,0,0.00862881311360449
-2.4084798496915E-05,1.33108487716527E-05,0,0,0.00862881311360449
-2.27921827899991E-05,1.04077080322895E-05,0,0,0.00862881311360449
-2.29056695388863E-05,9.01713974599261E-06,0,0,0.00862881311360449
-2.34108065342298E-05,9.04081207409035E-06,0,0,0.00862881311360449
-2.53692724072607E-05,8.45929571369197E-06,0,0,0.00862881311360449
-2.59906828432577E-05,7.23039147487725E-06,0,0,0.00862881311360449
-2.59891330642859E-05,6.58890712657012E-06,0,0,0.00862881311360449
-2.00233498617308E-05,6.83350162944407E-06,0,0,0.00862881311360449
-2.84390280285152E-05,1.13572732516332E-05,0,0,0.00862881311360449
-2.25725234486163E-05,9.37857294047717E-06,0,0,0.00862881311360449
-2.85457754216623E-05,9.37131608225172E-06,0,0,0.00862881311360449
-2.41533070948208E-05,8.09537414170336E-06,0,0,0.00862881311360449
-2.67593804892385E-05,9.55468749452848E-06,0,0,0.00862881311360449
-2.43825688812649E-05,9.12601353775244E-06,0,0,0.00862881311360449
-2.49438726314111E-05,9.37618096941151E-06,0,0,0.00862881311360449
-2.28874996537343E-05,1.07963869595551E-05,0,0,0.00862881311360449
-2.20471974898828E-05,1.10270575532923E-05,0,0,0.00862881311360449
-2.22283251787303E-05,9.47278658713913E-06,0,0,0.00862881311360449
-2.2599062504014E-05,8.68314509716583E-06,0,0,0.00862881311360449
-2.51565761573147E-05,1.0967638445436E-05,0,0,0.00862881311360449
-2.52802328759572E-05,1.29636655401555E-05,0,0,0.00862881311360449
-2.60564411291853E-05,1.242094731424E-05,0,0,0.00862881311360449
-2.38348093262175E-05,9.21011269383598E-06,0,0,0.00862881311360449
-2.42761070694542E-05,7.82770712248748E-06,0,0,0.00862881311360449
-2.24925279326271E-05,8.02832892077276E-06,0,0,0.00862881311360449
-2.2470192561741E-05,8.47603678266751E-06,0,0,0.00862881311360449
-2.21728896576678E-05,6.63014725432731E-06,0,0,0.00862881311360449
-2.47885709541151E-05,5.47672925677034E-06,0,0,0.00862881311360449
-2.47506013693055E-05,6.7226569626655E-06,0,0,0.00862881311360449
-2.3595268430654E-05,8.93218930286821E-06,0,0,0.00862881311360449
-2.04046700673644E-05,9.44371731748106E-06,0,0,0.00862881311360449
-1.92872139450628E-05,8.6845129771973E-06,0,0,0.00862881311360449
-1.99991209228756E-05,6.91597142576939E-06,0,0,0.00862881311360449
-2.24414379772497E-05,4.60725186712807E-06,0,0,0.00862881311360449
-1.90678892977303E-05,4.10108759751893E-06,0,0,0.00862881311360449
-2.6296365831513E-05,7.49732589611085E-06,0,0,0.00862881311360449
-1.96359724213835E-05,8.44264468469191E-06,0,0,0.00862881311360449
-2.49857184826396E-05,1.06720590338227E-05,0,0,0.00862881311360449
-2.06903350772336E-05,8.51122877065791E-06,0,0,0.00862881311360449
-2.28550343308598E-05,6.64254730509128E-06,0,0,0.00862881311360449
-2.10862435778836E-05,7.68255085858982E-06,0,0,0.00862881311360449
-2.39122728089569E-05,9.63439106271835E-06,0,0,0.00862881311360449
-2.43284830503399E-05,9.77401123236632E-06,0,0,0.00862881311360449
-2.51719757216051E-05,8.24716789793456E-06,0,0,0.00862881311360449
-2.558775304351E-05,6.76027821100433E-06,0,0,0.00862881311360449
-2.46268755290657E-05,6.19054890194093E-06,0,0,0.00862881311360449
-2.55440027103759E-05,6.31075727142161E-06,0,0,0.00862881311360449
-2.50268803938525E-05,7.05824868418858E-06,0,0,0.00862881311360449
-2.62688772636466E-05,7.93679828348104E-06,0,0,0.00862881311360449
-2.46029703703243E-05,7.16618887963705E-06,0,0,0.00862881311360449
-2.52391691901721E-05,5.11085272592027E-06,0,0,0.00862881311360449
-2.47618172579678E-05,1.78367633907328E-06,0,0,0.00862881311360449
-2.68596886598971E-05,-7.30116539671144E-07,0,0,0.00862881311360449
-2.71555509243626E-05,-4.2832957092287E-07,0,0,0.00862881311360449
-2.80820459011011E-05,3.59254136128584E-06,0,0,0.00862881311360449
-2.59463668044191E-05,8.73148928803857E-06,0,0,0.00862881311360449
-2.44628299697069E-05,1.19712622108636E-05,0,0,0.00862881311360449
-2.35563729802379E-05,1.24631296785083E-05,0,0,0.00862881311360449
-2.45128758251667E-05,1.30100061142002E-05,0,0,0.00862881311360449
-2.43666945607401E-05,1.29907884911518E-05,0,0,0.00862881311360449
-2.39713681366993E-05,1.25657652461086E-05,0,0,0.00862881311360449
-2.002926885325E-05,9.37460481509333E-06,0,0,0.00862881311360449
-2.86933500319719E-05,1.36367743834853E-05,0,0,0.00862881311360449
-2.13200401049107E-05,1.15486736831372E-05,0,0,0.00862881311360449
-2.49233071372146E-05,1.44981022458524E-05,0,0,0.00862881311360449
-1.97372737602564E-05,1.11622712211101E-05,0,0,0.00862881311360449
-2.2626851205132E-05,1.25335773191182E-05,0,0,0.00862881311360449
-2.10644393519033E-05,1.25197802844923E-05,0,0,0.00862881311360449
-2.27068539970787E-05,1.28750871226657E-05,0,0,0.00862881311360449
-2.31762714975048E-05,1.14528666017577E-05,0,0,0.00862881311360449
-2.33033242693637E-05,1.02806407085154E-05,0,0,0.00862881311360449
-2.24524665100034E-05,9.58663986239117E-06,0,0,0.00862881311360449
-2.05863816518104E-05,9.59990757110063E-06,0,0,0.00862881311360449
-2.15731215575943E-05,1.22631736303447E-05,0,0,0.00862881311360449
-2.11354163184296E-05,1.48499411807279E-05,0,0,0.00862881311360449
-2.17941105802311E-05,1.78382924787002E-05,0,0,0.00862881311360449
-2.00163194676861E-05,1.76330795511603E-05,0,0,0.00862881311360449
-2.10897633223794E-05,1.64457633218262E-05,0,0,0.00862881311360449
-2.08437177207088E-05,1.50366340676555E-05,0,0,0.00862881311360449
-2.21870996028883E-05,1.50940286403056E-05,0,0,0.00862881311360449
-2.10628622880904E-05,1.21202765512862E-05,0,0,0.00862881311360449
-2.12720315175829E-05,8.87749320099829E-06,0,0,0.00862881311360449
-2.16128592001041E-05,7.29350495021208E-06,0,0,0.00862881311360449
-2.3213937311084E-05,8.49536445457488E-06,0,0,0.00862881311360449
-2.31144858844345E-05,1.01276891655289E-05,0,0,0.00862881311360449
-2.41562265728135E-05,1.10758383016218E-05,0,0,0.00862881311360449
-2.58521449723048E-05,1.06730121842702E-05,0,0,0.00862881311360449
-2.7146312277182E-05,1.10710607259534E-05,0,0,0.00862881311360449
-2.13801104109734E-05,1.02136336863623E-05,0,0,0.00862881311360449
-2.93256671284325E-05,1.45100921145058E-05,0,0,0.00862881311360449
-2.21384580072481E-05,1.10659993879381E-05,0,0,0.00862881311360449
-2.86185895674862E-05,1.5221638022922E-05,0,0,0.00862881311360449
-2.28751014219597E-05,1.52326119859936E-05,0,0,0.00862881311360449
-2.41286179516464E-05,1.70764997164952E-05,0,0,0.00862881311360449
-2.11755832424387E-05,1.422886907676E-05,0,0,0.00862881311360449
-2.40397603192832E-05,1.22022611321881E-05,0,0,0.00862881311360449
-2.53009657171788E-05,1.07887390186079E-05,0,0,0.00862881311360449
-2.58591298916144E-05,1.05059234556393E-05,0,0,0.00862881311360449
-2.49719178100349E-05,1.09763068394386E-05,0,0,0.00862881311360449
-2.32333950407337E-05,1.14594267870416E-05,0,0,0.00862881311360449
-2.47143561864505E-05,1.29481068142923E-05,0,0,0.00862881311360449
-2.5267760065617E-05,1.38521199914976E-05,0,0,0.00862881311360449
-2.74883732345188E-05,1.57781323650852E-05,0,0,0.00862881311360449
-2.57322462857701E-05,1.53859600686701E-05,0,0,0.00862881311360449
-2.57349001913099E-05,1.51027752508526E-05,0,0,0.00862881311360449
-2.3669277652516E-05,1.37041442940244E-05,0,0,0.00862881311360449
-2.52835416176822E-05,1.26691384139122E-05,0,0,0.00862881311360449
-2.50981156568741E-05,1.04589362308616E-05,0,0,0.00862881311360449
-2.46743420575513E-05,1.06530533230398E-05,0,0,0.00862881311360449
-2.21246536966646E-05,1.21596494864207E-05,0,0,0.00862881311360449
-2.25749663513852E-05,1.44974401337095E-05,0,0,0.00862881311360449
-2.37458880292252E-05,1.55077141243964E-05,0,0,0.00862881311360449
-2.46742456511129E-05,1.50284859046224E-05,0,0,0.00862881311360449
-2.4569369998062E-05,1.34787660499569E-05,0,0,0.00862881311360449
-2.4707453121664E-05,1.30662010633387E-05,0,0,0.00862881311360449
-1.9762333977269E-05,1.04734508568072E-05,0,0,0.00862881311360449
-2.88285009446554E-05,1.17533763841493E-05,0,0,0.00862881311360449
-2.30564019148005E-05,3.9842389014666E-06,0,0,0.00862881311360449
-2.82551281998167E-05,7.36930587663664E-06,0,0,0.00862881311360449
-2.4115746782627E-05,8.37393781694118E-06,0,0,0.00862881311360449
-2.57149040407967E-05,1.36666767502902E-05,0,0,0.00862881311360449
-2.32194288400933E-05,1.49066127050901E-05,0,0,0.00862881311360449
-2.5311532226624E-05,1.52938100654865E-05,0,0,0.00862881311360449
-2.52983518294059E-05,1.33050216390984E-05,0,0,0.00862881311360449
-2.56444600381656E-05,1.17651507025585E-05,0,0,0.00862881311360449
-2.5728108084877E-05,1.01705045381095E-05,0,0,0.00862881311360449
-2.49818021984538E-05,8.14966006146278E-06,0,0,0.00862881311360449
-2.53456582868239E-05,8.32380101201124E-06,0,0,0.00862881311360449
-2.29035995289451E-05,7.91936508903746E-06,0,0,0.00862881311360449
-2.21962382056518E-05,8.27439089334803E-06,0,0,0.00862881311360449
-2.05847027245909E-05,7.38313838155591E-06,0,0,0.00862881311360449
-2.26944048336009E-05,8.76812282513129E-06,0,0,0.00862881311360449
-2.30933856073534E-05,9.90135049505625E-06,0,0,0.00862881311360449
-2.42612422880484E-05,1.18367443064926E-05,0,0,0.00862881311360449
-2.18103450606577E-05,1.21815201055142E-05,0,0,0.00862881311360449
-2.11524275073316E-05,1.36981916512013E-05,0,0,0.00862881311360449
-2.11655660677934E-05,1.57208414748311E-05,0,0,0.00862881311360449
-2.25425701501081E-05,1.66542322403984E-05,0,0,0.00862881311360449
-2.1702071535401E-05,1.3132765161572E-05,0,0,0.00862881311360449
-2.10639427677961E-05,7.62387844588375E-06,0,0,0.00862881311360449
-2.09065328817815E-05,2.12420468415075E-06,0,0,0.00862881311360449
-2.23358256334905E-05,-1.95440989614326E-07,0,0,0.00862881311360449
-1.87923451449024E-05,2.08432015824656E-06,0,0,0.00862881311360449
-2.61754757957533E-05,4.43661429017084E-06,0,0,0.00862881311360449
-2.03525123652071E-05,5.05384696225519E-06,0,0,0.00862881311360449
-2.6471307137399E-05,6.59778879708028E-06,0,0,0.00862881311360449
-2.21971477003535E-05,1.0016104170063E-05,0,0,0.00862881311360449
-2.54547194344923E-05,1.41137952596182E-05,0,0,0.00862881311360449
-2.4676563043613E-05,1.50264113472076E-05,0,0,0.00862881311360449
-2.61819131992524E-05,1.26817394630052E-05,0,0,0.00862881311360449
-2.56317180173937E-05,1.12559555418557E-05,0,0,0.00862881311360449
-2.44892617047299E-05,1.05995295598404E-05,0,0,0.00862881311360449
-2.29900979320519E-05,1.03355205283151E-05,0,0,0.00862881311360449
-2.14650317502674E-05,1.02193607744994E-05,0,0,0.00862881311360449
-2.23979950533248E-05,9.9527796919574E-06,0,0,0.00862881311360449
-2.23251936404267E-05,9.19784542929847E-06,0,0,0.00862881311360449
-2.42680271185236E-05,8.81586765899556E-06,0,0,0.00862881311360449
-2.34621966228588E-05,8.99611677596113E-06,0,0,0.00862881311360449
-2.36916966969147E-05,8.62287379277404E-06,0,0,0.00862881311360449
-2.11849819606869E-05,7.22312688594684E-06,0,0,0.00862881311360449
-2.08040310099022E-05,7.24980282029719E-06,0,0,0.00862881311360449
-2.04878069780534E-05,9.78368279902497E-06,0,0,0.00862881311360449
-2.34303570323391E-05,1.21322027553106E-05,0,0,0.00862881311360449
-2.45576629822608E-05,1.20208942462341E-05,0,0,0.00862881311360449
-2.44666771322954E-05,1.0426105291117E-05,0,0,0.00862881311360449
-2.299754487467E-05,9.58136661211029E-06,0,0,0.00862881311360449
-2.37135245697573E-05,8.51415734359762E-06,0,0,0.00862881311360449
-2.48026044573635E-05,6.43993143967236E-06,0,0,0.00862881311360449
-2.55773338722065E-05,6.16971192357596E-06,0,0,0.00862881311360449
-2.0833756934735E-05,5.97713460592786E-06,0,0,0.00862881311360449
-2.88152823486598E-05,1.02389385574497E-05,0,0,0.00862881311360449
-2.04119714908302E-05,1.09799384517828E-05,0,0,0.00862881311360449
-2.4947739802883E-05,1.22084211398032E-05,0,0,0.00862881311360449
-2.06997701752698E-05,9.86949180514785E-06,0,0,0.00862881311360449
-2.4457218387397E-05,1.13327423605369E-05,0,0,0.00862881311360449
-2.34554481721716E-05,1.11262907012133E-05,0,0,0.00862881311360449
-2.60223914665403E-05,1.22816254588543E-05,0,0,0.00862881311360449
-2.57621359196492E-05,1.28619012684794E-05,0,0,0.00862881311360449
-2.53216057899408E-05,1.34533129312331E-05,0,0,0.00862881311360449
-2.43610229517799E-05,1.20264567158301E-05,0,0,0.00862881311360449
-2.31842623179546E-05,8.84022301761433E-06,0,0,0.00862881311360449
-2.47721200139495E-05,7.41479652788257E-06,0,0,0.00862881311360449
-2.48041433223989E-05,6.56069596516318E-06,0,0,0.00862881311360449
-2.64952905126847E-05,6.20758419245249E-06,0,0,0.00862881311360449
-2.50622942985501E-05,5.53794279767317E-06,0,0,0.00862881311360449
-2.54519800364506E-05,7.47858803151757E-06,0,0,0.00862881311360449
-2.39633518503979E-05,8.84220025909599E-06,0,0,0.00862881311360449
-2.4861763449735E-05,8.57474060467212E-06,0,0,0.00862881311360449
-2.35261541092768E-05,6.40565986032016E-06,0,0,0.00862881311360449
-2.4174150894396E-05,6.23698997515021E-06,0,0,0.00862881311360449
-2.40956942434423E-05,7.59522436055704E-06,0,0,0.00862881311360449
-2.53685575444251E-05,9.79946253210073E-06,0,0,0.00862881311360449
-2.58704076259164E-05,1.16453511509462E-05,0,0,0.00862881311360449
-2.69924239546526E-05,1.25916949400562E-05,0,0,0.00862881311360449
-2.61639834207017E-05,1.36477237902E-05,0,0,0.00862881311360449
-2.39193213928957E-05,1.54808567458531E-05,0,0,0.00862881311360449
-1.89491529454244E-05,1.22381252367632E-05,0,0,0.00862881311360449
-2.72673405561363E-05,1.59852042997954E-05,0,0,0.00862881311360449
-2.07201010198332E-05,9.38759148993995E-06,0,0,0.00862881311360449
-2.52543104579672E-05,1.20058803076972E-05,0,0,0.00862881311360449
-2.22097860387294E-05,1.02404637800646E-05,0,0,0.00862881311360449
-2.44982002186589E-05,1.30801963678095E-05,0,0,0.00862881311360449
-2.07640714506852E-05,1.25476726680063E-05,0,0,0.00862881311360449
-2.03374729608186E-05,1.41722939588362E-05,0,0,0.00862881311360449
-1.97863155335654E-05,1.44005161928362E-05,0,0,0.00862881311360449
-2.13910061575007E-05,1.28151596072712E-05,0,0,0.00862881311360449
-2.29336565098492E-05,1.05971739685629E-05,0,0,0.00862881311360449
-2.22267699427903E-05,9.94758011074737E-06,0,0,0.00862881311360449
-2.26675456360681E-05,1.07688874777523E-05,0,0,0.00862881311360449
-2.20478868868668E-05,1.07334690255811E-05,0,0,0.00862881311360449
-2.34008766710758E-05,1.3546593436331E-05,0,0,0.00862881311360449
-2.27851014642511E-05,1.54783738253172E-05,0,0,0.00862881311360449
-2.42440346482908E-05,1.70520233950811E-05,0,0,0.00862881311360449
-2.31361227633897E-05,1.56562255142489E-05,0,0,0.00862881311360449
-2.36522519116988E-05,1.5156707377173E-05,0,0,0.00862881311360449
-2.25775002036244E-05,1.41741838888265E-05,0,0,0.00862881311360449
-2.27618838835042E-05,1.56354362843558E-05,0,0,0.00862881311360449
-2.14976007555379E-05,1.61757452588063E-05,0,0,0.00862881311360449
-2.18170425796416E-05,1.52513221109984E-05,0,0,0.00862881311360449
-2.18747154576704E-05,1.28232850329368E-05,0,0,0.00862881311360449
-2.20221245399443E-05,1.07343439594842E-05,0,0,0.00862881311360449
-2.16336611629231E-05,9.13287931325613E-06,0,0,0.00862881311360449
-2.08847759495256E-05,9.87374914984684E-06,0,0,0.00862881311360449
-1.68975857377518E-05,9.95736445474904E-06,0,0,0.00862881311360449
-2.34532890317496E-05,1.45006251841551E-05,0,0,0.00862881311360449
-1.77956062543672E-05,1.0728248525993E-05,0,0,0.00862881311360449
-2.33749506151071E-05,1.2642847650568E-05,0,0,0.00862881311360449
-2.04912248591427E-05,1.14134663817822E-05,0,0,0.00862881311360449
-2.32216389122186E-05,1.29166992337559E-05,0,0,0.00862881311360449
-2.23383831325918E-05,1.18400676001329E-05,0,0,0.00862881311360449
-2.36372870858759E-05,1.22866176752723E-05,0,0,0.00862881311360449
-2.2613932742388E-05,1.12277848529629E-05,0,0,0.00862881311360449
-2.2509984773933E-05,9.03065028978745E-06,0,0,0.00862881311360449
-2.28888875426492E-05,4.89992862640065E-06,0,0,0.00862881311360449
-2.21596365008736E-05,2.44090097112348E-06,0,0,0.00862881311360449
-2.31877511396306E-05,5.79974175707321E-06,0,0,0.00862881311360449
-2.36561882047681E-05,1.02575004348182E-05,0,0,0.00862881311360449
-2.54992337431759E-05,1.4419257240661E-05,0,0,0.00862881311360449
-2.39687979046721E-05,1.54327080963412E-05,0,0,0.00862881311360449
-2.38104839809239E-05,1.60489416884957E-05,0,0,0.00862881311360449
-2.23679144255584E-05,1.44583473229432E-05,0,0,0.00862881311360449
-2.40606586885406E-05,1.27366383821936E-05,0,0,0.00862881311360449
-2.59133830695646E-05,1.09177044578246E-05,0,0,0.00862881311360449
-2.87827788270079E-05,1.20773147500586E-05,0,0,0.00862881311360449
-2.80367930827197E-05,1.33416669996222E-05,0,0,0.00862881311360449
-2.71817643806571E-05,1.32618952193297E-05,0,0,0.00862881311360449
-2.65394264715724E-05,1.01803098004893E-05,0,0,0.00862881311360449
-2.65194830717519E-05,8.58861130836885E-06,0,0,0.00862881311360449
-2.68908861471573E-05,9.39141773415031E-06,0,0,0.00862881311360449
-2.73908481176477E-05,1.02807171060704E-05,0,0,0.00862881311360449
-2.17825781874126E-05,8.30786848382559E-06,0,0,0.00862881311360449
-3.07004738715477E-05,1.16708879431826E-05,0,0,0.00862881311360449
-2.38481916312594E-05,8.68067672854522E-06,0,0,0.00862881311360449
-2.98961113003315E-05,8.91579384187935E-06,0,0,0.00862881311360449
-2.34398194152163E-05,4.80825337945134E-06,0,0,0.00862881311360449
-2.45156170421978E-05,5.96445488554309E-06,0,0,0.00862881311360449
-2.15270156331826E-05,5.96198196944897E-06,0,0,0.00862881311360449
-2.34289800573606E-05,7.17490820534294E-06,0,0,0.00862881311360449
-2.34068629652029E-05,8.4926541603636E-06,0,0,0.00862881311360449
-2.27404398174258E-05,1.1221240129089E-05,0,0,0.00862881311360449
-2.14474493986927E-05,1.14831800601678E-05,0,0,0.00862881311360449
-2.01986149477307E-05,8.75546720635612E-06,0,0,0.00862881311360449
-2.22014714381658E-05,7.26003554518684E-06,0,0,0.00862881311360449
-2.23265233216807E-05,7.07783328834921E-06,0,0,0.00862881311360449
-2.43642680288758E-05,7.72972271079198E-06,0,0,0.00862881311360449
-2.37349031522172E-05,5.81350423090043E-06,0,0,0.00862881311360449
-2.48576689045876E-05,4.61521040051593E-06,0,0,0.00862881311360449
-2.28200133278733E-05,3.61071761290077E-06,0,0,0.00862881311360449
-2.31674748647492E-05,4.3614400055958E-06,0,0,0.00862881311360449
-2.17011038330384E-05,4.79420168630895E-06,0,0,0.00862881311360449
-2.19385037780739E-05,6.04360275247018E-06,0,0,0.00862881311360449
-2.22278995352099E-05,6.42388749838574E-06,0,0,0.00862881311360449
-2.42718942899955E-05,7.61643150326563E-06,0,0,0.00862881311360449
-2.38267039094353E-05,9.84076450549765E-06,0,0,0.00862881311360449
-2.31105113925878E-05,1.19229716801783E-05,0,0,0.00862881311360449
-2.2624219127465E-05,1.09354741653078E-05,0,0,0.00862881311360449
-2.24910600081785E-05,9.82004075922305E-06,0,0,0.00862881311360449
-1.78554892045213E-05,7.77660170570016E-06,0,0,0.00862881311360449
-2.59889693552395E-05,1.15404136522557E-05,0,0,0.00862881311360449
-2.11788337765029E-05,1.10839428089093E-05,0,0,0.00862881311360449
-2.57381962001091E-05,1.39993544507888E-05,0,0,0.00862881311360449
-2.15259788092226E-05,1.03542206488783E-05,0,0,0.00862881311360449
-2.46583349508001E-05,1.04129821920651E-05,0,0,0.00862881311360449
-2.32909151236527E-05,1.02988587968866E-05,0,0,0.00862881311360449
-2.37553340411978E-05,1.21129978651879E-05,0,0,0.00862881311360449
-2.24364812311251E-05,1.3198006854509E-05,0,0,0.00862881311360449
-2.20710753637832E-05,1.31784354380216E-05,0,0,0.00862881311360449
-2.18581262743101E-05,1.14676158773364E-05,0,0,0.00862881311360449
-2.06444219656987E-05,7.41620624467032E-06,0,0,0.00862881311360449
-2.10626640182454E-05,3.71051578440529E-06,0,0,0.00862881311360449
-2.08878627745435E-05,3.29332124238135E-06,0,0,0.00862881311360449
-2.41078614635626E-05,1.09000930024195E-05,0,0,0.00862881311360449
-2.54917467827909E-05,2.04501939151669E-05,0,0,0.00862881311360449
-2.67308714683168E-05,2.62590674537933E-05,0,0,0.00862881311360449
-2.505945849407E-05,2.37201456911862E-05,0,0,0.00862881311360449
-2.63785059360089E-05,1.73540902324021E-05,0,0,0.00862881311360449
-2.66285042016534E-05,1.04467862911406E-05,0,0,0.00862881311360449
-2.72853176284116E-05,6.82407790009165E-06,0,0,0.00862881311360449
-2.6331565095461E-05,4.26725091529079E-06,0,0,0.00862881311360449
-2.60162378253881E-05,3.27020370605169E-06,0,0,0.00862881311360449
-2.42421592702158E-05,3.66954759556393E-06,0,0,0.00862881311360449
-2.34485887631308E-05,5.28340706296149E-06,0,0,0.00862881311360449
-2.35907955357106E-05,7.93396793596912E-06,0,0,0.00862881311360449
-2.38378488575108E-05,8.29604232421843E-06,0,0,0.00862881311360449
-1.93405885511311E-05,5.45673947272007E-06,0,0,0.00862881311360449
-2.85241439996753E-05,8.25669940240914E-06,0,0,0.00862881311360449
-2.38687316596042E-05,7.55773999117082E-06,0,0,0.00862881311360449
-2.97007354674861E-05,1.02268777482095E-05,0,0,0.00862881311360449
-2.55045197263826E-05,1.03465108622913E-05,0,0,0.00862881311360449
-2.81613374681911E-05,1.1896056093974E-05,0,0,0.00862881311360449
-2.67103132500779E-05,1.26207714856719E-05,0,0,0.00862881311360449
-2.8253452910576E-05,1.47684795592795E-05,0,0,0.00862881311360449
-2.77938015642576E-05,1.56471960508497E-05,0,0,0.00862881311360449
-2.70712098426884E-05,1.48419376273523E-05,0,0,0.00862881311360449
-2.54797996603884E-05,1.21963284982485E-05,0,0,0.00862881311360449
-2.34170329349581E-05,9.39716392167611E-06,0,0,0.00862881311360449
-2.38201537285931E-05,8.66139998834115E-06,0,0,0.00862881311360449
-2.31063095270656E-05,9.37098047870677E-06,0,0,0.00862881311360449
-2.39562014030525E-05,1.13573423732305E-05,0,0,0.00862881311360449
-2.2623606128036E-05,1.23846375572612E-05,0,0,0.00862881311360449
-2.34135695791338E-05,1.35603022499708E-05,0,0,0.00862881311360449
-2.29958604904823E-05,1.41745258588344E-05,0,0,0.00862881311360449
-2.51198343903525E-05,1.4954459402361E-05,0,0,0.00862881311360449
-2.397734351689E-05,1.44510595418978E-05,0,0,0.00862881311360449
-2.21674526983406E-05,1.46774154927698E-05,0,0,0.00862881311360449
-1.95060947589809E-05,1.5735071428935E-05,0,0,0.00862881311360449
-2.02080809685867E-05,1.69279119290877E-05,0,0,0.00862881311360449
-2.07442426471971E-05,1.71183346537873E-05,0,0,0.00862881311360449
-2.18295645026956E-05,1.69014256243827E-05,0,0,0.00862881311360449
-2.34572635235963E-05,1.63433105626609E-05,0,0,0.00862881311360449
-2.453988599882E-05,1.57735412358306E-05,0,0,0.00862881311360449
-1.93428004422458E-05,1.01972445918364E-05,0,0,0.00862881311360449
-2.60218675975921E-05,1.29514819491305E-05,0,0,0.00862881311360449
-1.86021152330795E-05,8.2477527030278E-06,0,0,0.00862881311360449
-2.47609059442766E-05,1.0505759746593E-05,0,0,0.00862881311360449
-2.09981935768155E-05,7.08687730366364E-06,0,0,0.00862881311360449
-2.37170879699988E-05,8.47837236506166E-06,0,0,0.00862881311360449
-2.16172156797256E-05,7.352354714385E-06,0,0,0.00862881311360449
-2.27322634600569E-05,8.17302952782484E-06,0,0,0.00862881311360449
-2.27727050514659E-05,8.35103037388762E-06,0,0,0.00862881311360449
-2.28312146646203E-05,9.6541643870296E-06,0,0,0.00862881311360449
-2.19133635255275E-05,1.02903950391919E-05,0,0,0.00862881311360449
-2.05234664463205E-05,9.77199761109659E-06,0,0,0.00862881311360449
-2.16584685404086E-05,1.08542208181461E-05,0,0,0.00862881311360449
-2.141394179489E-05,1.18926473078318E-05,0,0,0.00862881311360449
-2.27996060857549E-05,1.34239862745744E-05,0,0,0.00862881311360449
-2.12511458812514E-05,1.17817162390566E-05,0,0,0.00862881311360449
-2.16545922739897E-05,1.07259129435988E-05,0,0,0.00862881311360449
-2.05688193091191E-05,9.94670244836016E-06,0,0,0.00862881311360449
-2.21244281419786E-05,1.16047167466604E-05,0,0,0.00862881311360449
-2.27782838919666E-05,1.18981815830921E-05,0,0,0.00862881311360449
-2.56169987551402E-05,1.18945017675287E-05,0,0,0.00862881311360449
-2.61426757788286E-05,1.03741858765716E-05,0,0,0.00862881311360449
-2.67307186732069E-05,1.01362347777467E-05,0,0,0.00862881311360449
-2.58992349699838E-05,1.0619561180647E-05,0,0,0.00862881311360449
-2.62769081018632E-05,1.23709532999783E-05,0,0,0.00862881311360449
-2.659332130861E-05,1.31978113131481E-05,0,0,0.00862881311360449
-2.62741359620122E-05,1.23933932627551E-05,0,0,0.00862881311360449
-2.1922340238234E-05,9.13203348318348E-06,0,0,0.00862881311360449
-3.02309235848952E-05,1.19028109111241E-05,0,0,0.00862881311360449
-2.0644076357712E-05,7.73300052969716E-06,0,0,0.00862881311360449
-2.54959886660799E-05,9.66170046012849E-06,0,0,0.00862881311360449
-2.21192367462208E-05,6.93096399118076E-06,0,0,0.00862881311360449
-2.67474224528996E-05,7.98334986029658E-06,0,0,0.00862881311360449
-2.53707639785716E-05,7.23833636584459E-06,0,0,0.00862881311360449
-2.66149309027242E-05,9.55948780756444E-06,0,0,0.00862881311360449
-2.49740442086477E-05,1.33796638692729E-05,0,0,0.00862881311360449
-2.3264638002729E-05,1.61679381562863E-05,0,0,0.00862881311360449
-2.23102870222647E-05,1.44479508890072E-05,0,0,0.00862881311360449
-2.12370032386389E-05,8.60010641190456E-06,0,0,0.00862881311360449
-2.22399830818176E-05,3.87459522244171E-06,0,0,0.00862881311360449
-2.11087753996253E-05,2.32565935220919E-06,0,0,0.00862881311360449
-2.18881050386699E-05,4.40933035861235E-06,0,0,0.00862881311360449
-2.03323779714992E-05,4.80660764878849E-06,0,0,0.00862881311360449
-2.15545551327523E-05,5.70259135201923E-06,0,0,0.00862881311360449
-2.10597172554117E-05,7.16594468030962E-06,0,0,0.00862881311360449
-2.31766316574067E-05,1.00671186373802E-05,0,0,0.00862881311360449
-2.36158957704902E-05,1.04140153780463E-05,0,0,0.00862881311360449
-2.53999041888164E-05,1.0357728569943E-05,0,0,0.00862881311360449
-2.48118503805017E-05,8.61594799062004E-06,0,0,0.00862881311360449
-2.42461428570095E-05,7.28349550627172E-06,0,0,0.00862881311360449
-2.30752393690636E-05,7.57355155656114E-06,0,0,0.00862881311360449
-2.38879438256845E-05,9.1216297732899E-06,0,0,0.00862881311360449
-2.43214617512422E-05,9.19255307962885E-06,0,0,0.00862881311360449
-2.46006493398454E-05,9.0914181782864E-06,0,0,0.00862881311360449
-1.92092666111421E-05,7.62728859626804E-06,0,0,0.00862881311360449
-2.67485102085629E-05,1.0702454346756E-05,0,0,0.00862881311360449
-2.10545476875268E-05,7.81814560468774E-06,0,0,0.00862881311360449
-2.72723536909325E-05,9.75110287981806E-06,0,0,0.00862881311360449
-2.31360445468454E-05,8.25962888484355E-06,0,0,0.00862881311360449
-2.5737519536051E-05,8.67741619003937E-06,0,0,0.00862881311360449
-2.2216176148504E-05,5.80897267354885E-06,0,0,0.00862881311360449
-2.12389659282053E-05,5.23280050401809E-06,0,0,0.00862881311360449
-2.01446855498943E-05,7.46354044167674E-06,0,0,0.00862881311360449
-2.09239860851085E-05,1.03310567283188E-05,0,0,0.00862881311360449
-2.10141242860118E-05,1.04732507679728E-05,0,0,0.00862881311360449
-1.97046992980177E-05,8.49830030347221E-06,0,0,0.00862881311360449
-2.00912800210062E-05,7.36780111765256E-06,0,0,0.00862881311360449
-1.91935141629074E-05,6.49080402581603E-06,0,0,0.00862881311360449
-2.04830939765088E-05,7.3442743087071E-06,0,0,0.00862881311360449
-2.02506507775979E-05,7.64277319831308E-06,0,0,0.00862881311360449
-2.2740567146684E-05,7.95173946244176E-06,0,0,0.00862881311360449
-2.23339266085532E-05,6.12272378930356E-06,0,0,0.00862881311360449
-2.34143353736727E-05,6.28847874395433E-06,0,0,0.00862881311360449
-2.28153185162228E-05,8.93981723493198E-06,0,0,0.00862881311360449
-2.31449666898698E-05,1.33385465233005E-05,0,0,0.00862881311360449
-2.16439620999154E-05,1.60284143930767E-05,0,0,0.00862881311360449
-2.24540817725938E-05,1.5094460650289E-05,0,0,0.00862881311360449
-2.39527616940904E-05,1.21594157462823E-05,0,0,0.00862881311360449
-2.53988073382061E-05,1.1281431397947E-05,0,0,0.00862881311360449
-2.4927212507464E-05,1.0616920008033E-05,0,0,0.00862881311360449
-2.54725709964987E-05,1.0518058843445E-05,0,0,0.00862881311360449
-2.08345554710831E-05,8.85474219103344E-06,0,0,0.00862881311360449
-2.9209857530077E-05,1.29683230625233E-05,0,0,0.00862881311360449
-2.19961366383359E-05,1.01635123428423E-05,0,0,0.00862881311360449
-2.71503649855731E-05,1.20143540698336E-05,0,0,0.00862881311360449
-2.10829875868512E-05,1.04846249087132E-05,0,0,0.00862881311360449
-2.27993841690477E-05,1.23495810839813E-05,0,0,0.00862881311360449
-2.18839813896921E-05,9.75146940618288E-06,0,0,0.00862881311360449
-2.50221601163503E-05,6.11890118307201E-06,0,0,0.00862881311360449
-2.45364353759214E-05,2.82934865936113E-06,0,0,0.00862881311360449
-2.40547888097353E-05,3.44070122082485E-06,0,0,0.00862881311360449
-2.33926384680672E-05,6.60837986288243E-06,0,0,0.00862881311360449
-2.23940241994569E-05,9.22898470889777E-06,0,0,0.00862881311360449
-2.42144087678753E-05,1.0628197742335E-05,0,0,0.00862881311360449
-2.412171488686E-05,9.51597394305281E-06,0,0,0.00862881311360449
-2.60892284131842E-05,9.51118272496387E-06,0,0,0.00862881311360449
-2.54756650974741E-05,9.97600091068307E-06,0,0,0.00862881311360449
-2.64758582488867E-05,1.17029949251446E-05,0,0,0.00862881311360449
-2.44527309405385E-05,1.15625252874452E-05,0,0,0.00862881311360449
-2.43913946178509E-05,1.17377321657841E-05,0,0,0.00862881311360449
-2.30805126193445E-05,1.09778538899263E-05,0,0,0.00862881311360449
-2.40275021496927E-05,1.10583578134538E-05,0,0,0.00862881311360449
-2.38816119235707E-05,1.05539593278081E-05,0,0,0.00862881311360449
-2.38418779190397E-05,1.08655040094163E-05,0,0,0.00862881311360449
-2.1638226826326E-05,1.22094315884169E-05,0,0,0.00862881311360449
-2.1425972590805E-05,1.27570338008809E-05,0,0,0.00862881311360449
-2.25321655307198E-05,1.26748318507452E-05,0,0,0.00862881311360449
-2.30135919991881E-05,1.35472364490852E-05,0,0,0.00862881311360449
-1.88091089512454E-05,1.13007745312643E-05,0,0,0.00862881311360449
-2.72103661700385E-05,1.75086097442545E-05,0,0,0.00862881311360449
-2.07575521926628E-05,1.62382712005638E-05,0,0,0.00862881311360449
-2.47411790041951E-05,2.17812666960526E-05,0,0,0.00862881311360449
-2.12493250728585E-05,2.14467090700055E-05,0,0,0.00862881311360449
-2.43956055783201E-05,2.3773414795869E-05,0,0,0.00862881311360449
-2.27977379836375E-05,2.08226283575641E-05,0,0,0.00862881311360449
-2.3906886781333E-05,1.82104085979518E-05,0,0,0.00862881311360449
-2.31410122069065E-05,1.79384169314289E-05,0,0,0.00862881311360449
-2.32982183661079E-05,1.90124992514029E-05,0,0,0.00862881311360449
-2.37947933783289E-05,1.90652972378302E-05,0,0,0.00862881311360449
-2.44038419623394E-05,1.9087761756964E-05,0,0,0.00862881311360449
-2.7029351258534E-05,2.06804616027512E-05,0,0,0.00862881311360449
-2.72062134172302E-05,2.07098382816184E-05,0,0,0.00862881311360449
-2.80792119156104E-05,1.98131438082783E-05,0,0,0.00862881311360449
-2.61201748799067E-05,1.58890070451889E-05,0,0,0.00862881311360449
-2.52472746069543E-05,1.4297806956165E-05,0,0,0.00862881311360449
-2.28027838602429E-05,1.4213730537449E-05,0,0,0.00862881311360449
-2.3817308829166E-05,1.5296260244213E-05,0,0,0.00862881311360449
-2.40305707848165E-05,1.33121666294755E-05,0,0,0.00862881311360449
-2.48701617238112E-05,1.09510256152134E-05,0,0,0.00862881311360449
-2.41834477492375E-05,1.03316697277478E-05,0,0,0.00862881311360449
-2.53186626650859E-05,1.12096186057897E-05,0,0,0.00862881311360449
-2.48841242864728E-05,1.10313176264754E-05,0,0,0.00862881311360449
-2.37244476011256E-05,8.90565661393339E-06,0,0,0.00862881311360449
-2.29400466196239E-05,3.49088531947928E-06,0,0,0.00862881311360449
-2.3739874450257E-05,6.77286834616098E-07,0,0,0.00862881311360449
-2.0710345779662E-05,3.17631929647177E-06,0,0,0.00862881311360449
-3.03176220768364E-05,8.87669102667132E-06,0,0,0.00862881311360449
-2.28864810196683E-05,1.42288217830355E-05,0,0,0.00862881311360449
-2.73721198027488E-05,1.51998056026059E-05,0,0,0.00862881311360449
-2.42811602220172E-05,1.14219719762332E-05,0,0,0.00862881311360449
-2.74059366347501E-05,1.01271334642661E-05,0,0,0.00862881311360449
-2.54901224252535E-05,1.06685383798322E-05,0,0,0.00862881311360449
-2.67144423560239E-05,1.15094198918086E-05,0,0,0.00862881311360449
-2.65760136244353E-05,1.23881436593365E-05,0,0,0.00862881311360449
-2.78323732345598E-05,1.16278661153046E-05,0,0,0.00862881311360449
-2.85987534880405E-05,1.10728342406219E-05,0,0,0.00862881311360449
-2.73537098109955E-05,1.18954403660609E-05,0,0,0.00862881311360449
-2.68568310275441E-05,1.2161981430836E-05,0,0,0.00862881311360449
-2.52488498517778E-05,1.1123293916171E-05,0,0,0.00862881311360449
-2.65768449025927E-05,1.03572474472458E-05,0,0,0.00862881311360449
-2.58043946814723E-05,9.87637122307206E-06,0,0,0.00862881311360449
-2.62144258158514E-05,9.87272778729675E-06,0,0,0.00862881311360449
-2.34354993153829E-05,9.06285549717722E-06,0,0,0.00862881311360449
-2.3131864509196E-05,7.19977197150001E-06,0,0,0.00862881311360449
-2.24886371142929E-05,6.00764087721473E-06,0,0,0.00862881311360449
-2.38235224969685E-05,7.64908418204868E-06,0,0,0.00862881311360449
-2.27260334213497E-05,1.12165616883431E-05,0,0,0.00862881311360449
-2.18923323700437E-05,1.32140321511542E-05,0,0,0.00862881311360449
-2.12656341318507E-05,1.13634105218807E-05,0,0,0.00862881311360449
-2.24023715418298E-05,9.66906463872874E-06,0,0,0.00862881311360449
-2.3413876988343E-05,1.08133572211955E-05,0,0,0.00862881311360449
-2.39730106841307E-05,1.02451067505172E-05,0,0,0.00862881311360449
-1.92065544979414E-05,6.11801988270599E-06,0,0,0.00862881311360449
-2.75393231277121E-05,8.32339173939545E-06,0,0,0.00862881311360449
-2.15660638787085E-05,4.91499804411433E-06,0,0,0.00862881311360449
-2.7107029382023E-05,5.39643224328756E-06,0,0,0.00862881311360449
-2.31641424761619E-05,4.10111761084409E-06,0,0,0.00862881311360449
-2.42212518060114E-05,4.10724533139728E-06,0,0,0.00862881311360449
-2.07677312573651E-05,1.50740243043401E-06,0,0,0.00862881311360449
-2.22957842197502E-05,2.77504085488545E-07,0,0,0.00862881311360449
-2.30801688303472E-05,-6.17919084788809E-08,0,0,0.00862881311360449
-2.44659531745128E-05,2.05584137802362E-06,0,0,0.00862881311360449
-2.47957941610366E-05,4.31048874816042E-06,0,0,0.00862881311360449
-2.35744737437926E-05,5.77169157622848E-06,0,0,0.00862881311360449
-2.43173399212537E-05,8.65761649038177E-06,0,0,0.00862881311360449
-2.48318192461738E-05,1.27336461446248E-05,0,0,0.00862881311360449
-2.76487717201235E-05,1.61262159963371E-05,0,0,0.00862881311360449
-2.69000993284862E-05,1.5909796275082E-05,0,0,0.00862881311360449
-2.67518535110867E-05,1.47128876051283E-05,0,0,0.00862881311360449
-2.43729118665215E-05,1.29948775793309E-05,0,0,0.00862881311360449
-2.42142014030833E-05,1.24892330859439E-05,0,0,0.00862881311360449
-2.2645963326795E-05,1.0094178833242E-05,0,0,0.00862881311360449
-2.34349718084559E-05,6.16247143625515E-06,0,0,0.00862881311360449
-2.34183444263181E-05,2.59240960076568E-06,0,0,0.00862881311360449
-2.42045007325942E-05,2.44356510847865E-06,0,0,0.00862881311360449
-2.37390722759301E-05,4.54896007795469E-06,0,0,0.00862881311360449
-2.3217105990625E-05,7.4738545663422E-06,0,0,0.00862881311360449
-2.28236385737546E-05,8.23100890556816E-06,0,0,0.00862881311360449
-2.26422471314436E-05,7.90795184002491E-06,0,0,0.00862881311360449
-1.81294035428436E-05,8.04318005975802E-06,0,0,0.00862881311360449
-2.62412231677445E-05,1.32460263557732E-05,0,0,0.00862881311360449
-2.0022102035E-05,1.2400185369188E-05,0,0,0.00862881311360449
-2.4306888008141E-05,1.38154809974367E-05,0,0,0.00862881311360449
-2.05188171094051E-05,1.03023594419938E-05,0,0,0.00862881311360449
-2.23507995542604E-05,9.82712936092867E-06,0,0,0.00862881311360449
-2.0678860892076E-05,9.00291797734099E-06,0,0,0.00862881311360449
-2.19894664041931E-05,9.75185503193643E-06,0,0,0.00862881311360449
-2.16089756577276E-05,9.9212293207529E-06,0,0,0.00862881311360449
-2.18601398955798E-05,1.0186837243964E-05,0,0,0.00862881311360449
-2.27178934437688E-05,1.16732298920397E-05,0,0,0.00862881311360449
-2.37461208598688E-05,1.23688078019768E-05,0,0,0.00862881311360449
-2.58190248132451E-05,1.17642593977507E-05,0,0,0.00862881311360449
-2.44429411395686E-05,1.07249388747732E-05,0,0,0.00862881311360449
-2.40730150835589E-05,1.29316676975577E-05,0,0,0.00862881311360449
-2.31064695981331E-05,1.38187824632041E-05,0,0,0.00862881311360449
-2.50925895670662E-05,1.29762138385559E-05,0,0,0.00862881311360449
-2.43928625422996E-05,1.18864891192061E-05,0,0,0.00862881311360449
-2.36261639656732E-05,1.25486631077365E-05,0,0,0.00862881311360449
-2.14476494875271E-05,1.25147862490849E-05,0,0,0.00862881311360449
-2.27322470891522E-05,1.3204484275775E-05,0,0,0.00862881311360449
-2.41769466811093E-05,1.25240676425165E-05,0,0,0.00862881311360449
-2.50282919296296E-05,1.10124146885937E-05,0,0,0.00862881311360449
-2.32209949899698E-05,1.20153808893519E-05,0,0,0.00862881311360449
-2.25120984396199E-05,1.509904723207E-05,0,0,0.00862881311360449
-2.31995018111775E-05,1.28327437778353E-05,0,0,0.00862881311360449
-2.42898477154085E-05,6.2697922658117E-06,0,0,0.00862881311360449
-2.01583916350501E-05,9.60845909503405E-07,0,0,0.00862881311360449
-2.92892491415842E-05,1.61327886871732E-06,0,0,0.00862881311360449
-2.32971578952856E-05,3.69319923265721E-06,0,0,0.00862881311360449
-2.90303578367457E-05,5.46691489944351E-06,0,0,0.00862881311360449
-2.4836917873472E-05,5.86061059948406E-06,0,0,0.00862881311360449
-2.65915314230369E-05,8.66475420480128E-06,0,0,0.00862881311360449
-2.38461871049367E-05,8.26013092591893E-06,0,0,0.00862881311360449
-2.45484534389107E-05,6.08224763709586E-06,0,0,0.00862881311360449
-2.31501926464261E-05,5.83352493777056E-06,0,0,0.00862881311360449
-2.27381497097667E-05,7.45376382838003E-06,0,0,0.00862881311360449
-2.28960598178674E-05,8.42779354570666E-06,0,0,0.00862881311360449
-2.24538725888124E-05,7.87794397183461E-06,0,0,0.00862881311360449
-2.37619151448598E-05,5.87886006542249E-06,0,0,0.00862881311360449
-2.34324852499412E-05,3.66058566214633E-06,0,0,0.00862881311360449
-2.50055254582549E-05,4.32905380876036E-06,0,0,0.00862881311360449
-2.43702379520983E-05,6.86361318003037E-06,0,0,0.00862881311360449
-2.58478812611429E-05,8.3779987107846E-06,0,0,0.00862881311360449
-2.50755874731112E-05,8.90126557351323E-06,0,0,0.00862881311360449
-2.60853048530407E-05,1.11887193270377E-05,0,0,0.00862881311360449
-2.4302200472448E-05,1.37174492920167E-05,0,0,0.00862881311360449
-2.40966546698473E-05,1.57109952851897E-05,0,0,0.00862881311360449
-2.40083336393582E-05,1.66062127391342E-05,0,0,0.00862881311360449
-2.50581451837206E-05,1.61213465617038E-05,0,0,0.00862881311360449
-2.41391153394943E-05,1.31403267005226E-05,0,0,0.00862881311360449
-2.29270899581024E-05,8.9818413471221E-06,0,0,0.00862881311360449
-2.18207896978129E-05,7.10307222107076E-06,0,0,0.00862881311360449
-2.13323819480138E-05,8.79019989952212E-06,0,0,0.00862881311360449
-1.70330858964007E-05,1.12828747660387E-05,0,0,0.00862881311360449
-2.44379207288148E-05,1.84433320100652E-05,0,0,0.00862881311360449
-1.94646163436119E-05,1.83230167749571E-05,0,0,0.00862881311360449
-2.41771613218589E-05,2.29968773055589E-05,0,0,0.00862881311360449
-1.98332818399649E-05,1.94540207303362E-05,0,0,0.00862881311360449
-2.16002063098131E-05,1.68153983395314E-05,0,0,0.00862881311360449
-2.02499086299213E-05,1.25204205687623E-05,0,0,0.00862881311360449
-2.1860654669581E-05,1.3092573681206E-05,0,0,0.00862881311360449
-2.22965336433845E-05,1.39164158099447E-05,0,0,0.00862881311360449
-2.32671627600212E-05,1.47670452861348E-05,0,0,0.00862881311360449
-2.31675894610817E-05,1.52593402162893E-05,0,0,0.00862881311360449
-2.17584147321759E-05,1.48888766489108E-05,0,0,0.00862881311360449
-2.21987193071982E-05,1.430489737686E-05,0,0,0.00862881311360449
-2.1827529053553E-05,1.11229255708167E-05,0,0,0.00862881311360449
-2.28566841542488E-05,1.00332727015484E-05,0,0,0.00862881311360449
-2.10553116630763E-05,1.07832456706092E-05,0,0,0.00862881311360449
-2.09636436920846E-05,1.34510255520581E-05,0,0,0.00862881311360449
-1.9969165805378E-05,1.22643241411424E-05,0,0,0.00862881311360449
-2.17250253626844E-05,1.06409661384532E-05,0,0,0.00862881311360449
-2.23668612306938E-05,9.10848120838637E-06,0,0,0.00862881311360449
-2.3837430489948E-05,8.54490917845396E-06,0,0,0.00862881311360449
-2.31083813559962E-05,7.5606299105857E-06,0,0,0.00862881311360449
-2.32040601986228E-05,9.89423188002547E-06,0,0,0.00862881311360449
-2.33017908612965E-05,1.30563576021814E-05,0,0,0.00862881311360449
-2.42358128161868E-05,1.50327186929644E-05,0,0,0.00862881311360449
-2.38520315178903E-05,1.64642460731557E-05,0,0,0.00862881311360449
-2.37812910199864E-05,1.71649244293803E-05,0,0,0.00862881311360449
-1.94619387912098E-05,1.26570739666931E-05,0,0,0.00862881311360449
-2.7680633138516E-05,1.51078902490553E-05,0,0,0.00862881311360449
-2.146209590137E-05,7.48922866478097E-06,0,0,0.00862881311360449
-2.69483116426272E-05,8.21120920591056E-06,0,0,0.00862881311360449
-2.2375079424819E-05,1.38370739932725E-06,0,0,0.00862881311360449
-2.5528424885124E-05,3.0533294648194E-06,0,0,0.00862881311360449
-2.58171385212336E-05,4.67404061055277E-06,0,0,0.00862881311360449
-2.82889050140511E-05,7.81188737164484E-06,0,0,0.00862881311360449
-2.72454763035057E-05,8.83077700564172E-06,0,0,0.00862881311360449
-2.70594791800249E-05,1.0669639777916E-05,0,0,0.00862881311360449
-2.72379747912055E-05,1.31630395117099E-05,0,0,0.00862881311360449
-2.63504462054698E-05,1.4205136722012E-05,0,0,0.00862881311360449
-2.63324582192581E-05,1.30847347463714E-05,0,0,0.00862881311360449
-2.48473097599344E-05,8.45123486215016E-06,0,0,0.00862881311360449
-2.56762541539501E-05,7.26233020031941E-06,0,0,0.00862881311360449
-2.41380766965449E-05,7.71040868130513E-06,0,0,0.00862881311360449
-2.4865139494068E-05,9.26435313886032E-06,0,0,0.00862881311360449
-2.36413688980974E-05,7.62550507715787E-06,0,0,0.00862881311360449
-2.41121742874384E-05,7.55373503125156E-06,0,0,0.00862881311360449
-2.30412879318465E-05,7.16503245712374E-06,0,0,0.00862881311360449
-2.33445371122798E-05,8.88402337295702E-06,0,0,0.00862881311360449
-2.118610063917E-05,1.02689409686718E-05,0,0,0.00862881311360449
-2.0335663066362E-05,1.12122179416474E-05,0,0,0.00862881311360449
-2.10079069802305E-05,1.10588616735185E-05,0,0,0.00862881311360449
-2.23261813516729E-05,1.18463594844798E-05,0,0,0.00862881311360449
-2.19861722143833E-05,1.30522312247194E-05,0,0,0.00862881311360449
-2.31340709433425E-05,1.48803464981029E-05,0,0,0.00862881311360449
-1.92089828487951E-05,1.06327242974658E-05,0,0,0.00862881311360449
-2.70107830147026E-05,1.20571103252587E-05,0,0,0.00862881311360449
-2.08051460504066E-05,7.25235440768301E-06,0,0,0.00862881311360449
-2.63837482634699E-05,1.12945563159883E-05,0,0,0.00862881311360449
-2.16717471630545E-05,5.8577843446983E-06,0,0,0.00862881311360449
-2.45164173975354E-05,5.00993792229565E-06,0,0,0.00862881311360449
-2.30377045227215E-05,5.75965168536641E-06,0,0,0.00862881311360449
-2.39872733800439E-05,1.09938409877941E-05,0,0,0.00862881311360449
-2.47501720878063E-05,1.33145304062054E-05,0,0,0.00862881311360449
-2.66560909949476E-05,1.29493382701185E-05,0,0,0.00862881311360449
-2.68504609266529E-05,1.21956545626745E-05,0,0,0.00862881311360449
-2.45244427787839E-05,1.23492636703304E-05,0,0,0.00862881311360449
-2.49463864747668E-05,1.34040546981851E-05,0,0,0.00862881311360449
-2.45418323174817E-05,1.19561755127506E-05,0,0,0.00862881311360449
-2.59980988630559E-05,1.22389901662245E-05,0,0,0.00862881311360449
-2.50966240855632E-05,1.31078077174607E-05,0,0,0.00862881311360449
-2.61852237599669E-05,1.55529232870322E-05,0,0,0.00862881311360449
-2.53739581239643E-05,1.53181772475364E-05,0,0,0.00862881311360449
-2.59814969467698E-05,1.61948555614799E-05,0,0,0.00862881311360449
-2.55557824857533E-05,1.59368755703326E-05,0,0,0.00862881311360449
-2.7781479730038E-05,1.43175402627094E-05,0,0,0.00862881311360449
-2.80696403933689E-05,1.07840423879679E-05,0,0,0.00862881311360449
-2.7375717763789E-05,9.86769373412244E-06,0,0,0.00862881311360449
-2.52801255555823E-05,1.0381494575995E-05,0,0,0.00862881311360449
-2.47951120400103E-05,1.2123266060371E-05,0,0,0.00862881311360449
-2.53997259278549E-05,1.31282149595791E-05,0,0,0.00862881311360449
-2.57109350059181E-05,1.27397725009359E-05,0,0,0.00862881311360449
-2.00191898329649E-05,9.68621225183597E-06,0,0,0.00862881311360449
-2.8705795557471E-05,1.47728833326255E-05,0,0,0.00862881311360449
-2.20650836126879E-05,1.32815102915629E-05,0,0,0.00862881311360449
-2.58273794315755E-05,1.53741657413775E-05,0,0,0.00862881311360449
-2.04912921617506E-05,1.12022989924299E-05,0,0,0.00862881311360449
-2.37851254496491E-05,1.08693038782803E-05,0,0,0.00862881311360449
-2.2912690837984E-05,9.27939800021704E-06,0,0,0.00862881311360449
-2.51175406447146E-05,1.02839330793358E-05,0,0,0.00862881311360449
-2.34761864703614E-05,1.14438698801678E-05,0,0,0.00862881311360449
-2.11650822166121E-05,1.19030746645876E-05,0,0,0.00862881311360449
-1.96193122974364E-05,1.11217777885031E-05,0,0,0.00862881311360449
-2.00165723072132E-05,1.06578736449592E-05,0,0,0.00862881311360449
-2.24297364184167E-05,1.2128752132412E-05,0,0,0.00862881311360449
-2.12228478631005E-05,1.23954141599825E-05,0,0,0.00862881311360449
-2.12336071854224E-05,1.16034061647952E-05,0,0,0.00862881311360449
-1.93354935618117E-05,8.47107912704814E-06,0,0,0.00862881311360449
-1.99877304112306E-05,6.55608528177254E-06,0,0,0.00862881311360449
-1.91294548130827E-05,5.98206815993763E-06,0,0,0.00862881311360449
-2.08384226425551E-05,8.39416952658212E-06,0,0,0.00862881311360449
-1.99600144696888E-05,9.39660276344512E-06,0,0,0.00862881311360449
-2.12125523830764E-05,1.05901954157162E-05,0,0,0.00862881311360449
-2.28466360567836E-05,1.10591827251483E-05,0,0,0.00862881311360449
-2.44225666392595E-05,1.02973190223565E-05,0,0,0.00862881311360449
-2.29943161684787E-05,7.02747365721734E-06,0,0,0.00862881311360449
-2.33006630878663E-05,5.01670047015068E-06,0,0,0.00862881311360449
-2.34483995882329E-05,5.4844545047672E-06,0,0,0.00862881311360449
-2.20070360228419E-05,7.05372985976283E-06,0,0,0.00862881311360449
-1.64924076671014E-05,7.50362505641533E-06,0,0,0.00862881311360449
-2.22128655877896E-05,1.11520175778423E-05,0,0,0.00862881311360449
-1.62737815116998E-05,1.10452137960237E-05,0,0,0.00862881311360449
-2.24931700358866E-05,1.74063170561567E-05,0,0,0.00862881311360449
-2.10603302548407E-05,1.80186616489664E-05,0,0,0.00862881311360449
-2.47809985012282E-05,1.71337833307916E-05,0,0,0.00862881311360449
-2.27151431317907E-05,1.25736014524591E-05,0,0,0.00862881311360449
-2.2463413188234E-05,9.62284866545815E-06,0,0,0.00862881311360449
-2.13235161936609E-05,9.29852649278473E-06,0,0,0.00862881311360449
-2.17874385270989E-05,9.72410271060653E-06,0,0,0.00862881311360449
-2.32729253184516E-05,9.37905406317441E-06,0,0,0.00862881311360449
-2.35025836445857E-05,8.67375365487533E-06,0,0,0.00862881311360449
-2.39519868046045E-05,8.66619120643009E-06,0,0,0.00862881311360449
-2.24047289520968E-05,8.0430190791958E-06,0,0,0.00862881311360449
-2.37882886722218E-05,8.27988878882024E-06,0,0,0.00862881311360449
-2.42540791077772E-05,7.71299528423697E-06,0,0,0.00862881311360449
-2.63427064055577E-05,7.50027993490221E-06,0,0,0.00862881311360449
-2.63723341049626E-05,5.22720210938132E-06,0,0,0.00862881311360449
-2.75314851023722E-05,3.21909510603291E-06,0,0,0.00862881311360449
-2.64181599050062E-05,3.00492001770181E-06,0,0,0.00862881311360449
-2.6078670998686E-05,6.18048761680257E-06,0,0,0.00862881311360449
-2.47639709414216E-05,8.32161822472699E-06,0,0,0.00862881311360449
-2.44045386352809E-05,7.33409706299426E-06,0,0,0.00862881311360449
-2.37708700296935E-05,5.46094815945253E-06,0,0,0.00862881311360449
-2.47212938120356E-05,6.97457744536223E-06,0,0,0.00862881311360449
-2.52432764682453E-05,1.08003268906032E-05,0,0,0.00862881311360449
-2.46412982960464E-05,1.27778084788588E-05,0,0,0.00862881311360449
-1.89321199286496E-05,1.0208816092927E-05,0,0,0.00862881311360449
-2.62339290202362E-05,1.38579716804088E-05,0,0,0.00862881311360449
-1.91735889529809E-05,1.07386213130667E-05,0,0,0.00862881311360449
-2.44401689997176E-05,1.39636413223343E-05,0,0,0.00862881311360449
-2.15299914998468E-05,1.15587272375706E-05,0,0,0.00862881311360449
-2.441750257276E-05,1.19870264825295E-05,0,0,0.00862881311360449
-2.18047516682418E-05,8.42707595438696E-06,0,0,0.00862881311360449
-2.33677947107935E-05,8.86701946001267E-06,0,0,0.00862881311360449
-2.29261677304748E-05,1.02104440884432E-05,0,0,0.00862881311360449
-2.29072102229111E-05,1.08178010123083E-05,0,0,0.00862881311360449
-2.37677886616439E-05,1.00378192655626E-05,0,0,0.00862881311360449
-2.36476134887198E-05,1.05206836451543E-05,0,0,0.00862881311360449
-2.41449633904267E-05,1.28759365907172E-05,0,0,0.00862881311360449
-2.28280350711429E-05,1.34731408252264E-05,0,0,0.00862881311360449
-2.35314710153034E-05,1.51105559780262E-05,0,0,0.00862881311360449
-2.17988563235849E-05,1.51342492245021E-05,0,0,0.00862881311360449
-2.22804137592902E-05,1.49036950460868E-05,0,0,0.00862881311360449
-2.07676912395982E-05,1.18093857963686E-05,0,0,0.00862881311360449
-2.17293054447509E-05,9.49191962718032E-06,0,0,0.00862881311360449
-2.19347839447437E-05,7.33089018467581E-06,0,0,0.00862881311360449
-2.32531383517198E-05,7.12433211447205E-06,0,0,0.00862881311360449
-2.20423135033343E-05,5.75545118408627E-06,0,0,0.00862881311360449
-2.25107050937368E-05,4.25507823820226E-06,0,0,0.00862881311360449
-2.27425425691763E-05,2.04957996174926E-06,0,0,0.00862881311360449
-2.21272766793845E-05,3.88094167647068E-06,0,0,0.00862881311360449
-2.12068152904976E-05,8.31000579637475E-06,0,0,0.00862881311360449
-2.2103524315753E-05,1.02307822089642E-05,0,0,0.00862881311360449
-1.90708342415746E-05,6.952300282137E-06,0,0,0.00862881311360449
-2.66863826254848E-05,8.02018166723428E-06,0,0,0.00862881311360449
-1.90753871720517E-05,4.60395858681295E-06,0,0,0.00862881311360449
-2.34881899814354E-05,7.85351403465029E-06,0,0,0.00862881311360449
-1.91543877008371E-05,8.12787675386062E-06,0,0,0.00862881311360449
-2.09527061088011E-05,1.12593706944608E-05,0,0,0.00862881311360449
-1.89074617082952E-05,1.01236992122722E-05,0,0,0.00862881311360449
-2.04482603294309E-05,9.9419021353242E-06,0,0,0.00862881311360449
-2.02117935259594E-05,1.05264125522808E-05,0,0,0.00862881311360449
-1.95685206563212E-05,1.02104613688425E-05,0,0,0.00862881311360449
-2.00374888663646E-05,9.98592076939531E-06,0,0,0.00862881311360449
-2.17925116885453E-05,1.11613253466203E-05,0,0,0.00862881311360449
-2.57180909102317E-05,1.30119360619574E-05,0,0,0.00862881311360449
-2.63937909039669E-05,1.22436049423413E-05,0,0,0.00862881311360449
-2.62843332166085E-05,1.17511026473949E-05,0,0,0.00862881311360449
-2.30879068112699E-05,1.11874633148545E-05,0,0,0.00862881311360449
-2.26333359023556E-05,1.15172915684525E-05,0,0,0.00862881311360449
-2.21094251173781E-05,1.06942989077652E-05,0,0,0.00862881311360449
-2.49540516961133E-05,1.02925423561828E-05,0,0,0.00862881311360449
-2.63817964878399E-05,8.57631312101148E-06,0,0,0.00862881311360449
-2.88237988570472E-05,6.73544809615123E-06,0,0,0.00862881311360449
-2.90429616143228E-05,5.02530792800826E-06,0,0,0.00862881311360449
-2.85158384940587E-05,6.17962450633058E-06,0,0,0.00862881311360449
-2.68460717052221E-05,8.27805251901736E-06,0,0,0.00862881311360449
-2.64759000856429E-05,8.33160538604716E-06,0,0,0.00862881311360449
-2.61852528637974E-05,7.05658385413699E-06,0,0,0.00862881311360449
-2.68862131633796E-05,8.80554216564633E-06,0,0,0.00862881311360449
-2.08265882974956E-05,1.10355076685664E-05,0,0,0.00862881311360449
-2.79033993138E-05,1.89537677215412E-05,0,0,0.00862881311360449
-2.00785652850755E-05,1.88787744264118E-05,0,0,0.00862881311360449
-2.61470722762169E-05,2.05974429263733E-05,0,0,0.00862881311360449
-2.1169034880586E-05,1.48806102515664E-05,0,0,0.00862881311360449
-2.45778264797991E-05,1.3266920177557E-05,0,0,0.00862881311360449
-2.33218233915977E-05,1.05148637885577E-05,0,0,0.00862881311360449
-2.54504502663622E-05,1.022859942168E-05,0,0,0.00862881311360449
-2.40235112869414E-05,1.03677348306519E-05,0,0,0.00862881311360449
-2.35524657909991E-05,1.05033186628134E-05,0,0,0.00862881311360449
-2.50887733272975E-05,1.15781176646124E-05,0,0,0.00862881311360449
-2.60273627645802E-05,1.30712469399441E-05,0,0,0.00862881311360449
-2.72321685770294E-05,1.4718957572768E-05,0,0,0.00862881311360449
-2.52089448622428E-05,1.40299653139664E-05,0,0,0.00862881311360449
-2.53695234277984E-05,1.25477026813314E-05,0,0,0.00862881311360449
-2.35485113080358E-05,8.84291421243688E-06,0,0,0.00862881311360449
-2.49426775553729E-05,6.51981463306583E-06,0,0,0.00862881311360449
-2.53110920311883E-05,3.67782331522903E-06,0,0,0.00862881311360449
-2.76267746812664E-05,5.60193655019248E-07,0,0,0.00862881311360449
-2.61784825852374E-05,-3.46991919286666E-06,0,0,0.00862881311360449
-2.65851285803365E-05,-2.76695595857746E-06,0,0,0.00862881311360449
-2.6603958758642E-05,2.34075628213759E-06,0,0,0.00862881311360449
-2.69493375526508E-05,8.02251997811254E-06,0,0,0.00862881311360449
-2.51970013778191E-05,9.75033526628977E-06,0,0,0.00862881311360449
-2.47138286795234E-05,8.44842270453228E-06,0,0,0.00862881311360449
-2.53723083005752E-05,7.13355802872684E-06,0,0,0.00862881311360449
-2.64712762145791E-05,7.25964355297037E-06,0,0,0.00862881311360449
-2.08430265047355E-05,6.14757254879805E-06,0,0,0.00862881311360449
-2.9070124583086E-05,8.55519101605751E-06,0,0,0.00862881311360449
-2.23192819248652E-05,6.84725364408223E-06,0,0,0.00862881311360449
-2.87195180135313E-05,1.12074412754737E-05,0,0,0.00862881311360449
-2.49863496719627E-05,1.1817652193713E-05,0,0,0.00862881311360449
-2.9054199330858E-05,1.24340531328926E-05,0,0,0.00862881311360449
-2.75413567578653E-05,1.30064090626547E-05,0,0,0.00862881311360449
-2.8505508453236E-05,1.39265030156821E-05,0,0,0.00862881311360449
-2.7089670766145E-05,1.27469302242389E-05,0,0,0.00862881311360449
-2.71358785539633E-05,1.05163626358262E-05,0,0,0.00862881311360449
-2.72895267698914E-05,1.03992178992485E-05,0,0,0.00862881311360449
-2.59346325037768E-05,1.24021808005637E-05,0,0,0.00862881311360449
-2.62248868239112E-05,1.46590045915218E-05,0,0,0.00862881311360449
-2.43512895394815E-05,1.50020068758749E-05,0,0,0.00862881311360449
-2.49437907768879E-05,1.46839547596755E-05,0,0,0.00862881311360449
-2.37352287513204E-05,1.37566421472002E-05,0,0,0.00862881311360449
-2.50842349487357E-05,1.38259765662951E-05,0,0,0.00862881311360449
-2.42274709307821E-05,1.38986251840834E-05,0,0,0.00862881311360449
-2.52360387094086E-05,1.48571352838189E-05,0,0,0.00862881311360449
-2.42586120293709E-05,1.45333797263447E-05,0,0,0.00862881311360449
-2.47687585215317E-05,1.46443680932862E-05,0,0,0.00862881311360449
-2.39010823861463E-05,1.5729490769445E-05,0,0,0.00862881311360449
-2.40019271586789E-05,1.59196952154161E-05,0,0,0.00862881311360449
-2.26017345994478E-05,1.56840178533457E-05,0,0,0.00862881311360449
-2.18663280975306E-05,1.69772356457543E-05,0,0,0.00862881311360449
-2.03520139621105E-05,1.70317234733375E-05,0,0,0.00862881311360449
-1.90324699360644E-05,1.59848477778723E-05,0,0,0.00862881311360449
-1.58267193910433E-05,1.25077804113971E-05,0,0,0.00862881311360449
-2.30711957556196E-05,1.72950185515219E-05,0,0,0.00862881311360449
-1.86029537871946E-05,1.12698526208987E-05,0,0,0.00862881311360449
-2.17946126213064E-05,1.34360298034153E-05,0,0,0.00862881311360449
-1.74639353645034E-05,1.04020291473716E-05,0,0,0.00862881311360449
-2.02507617359515E-05,1.10348310045083E-05,0,0,0.00862881311360449
-2.03859635803383E-05,8.71065276442096E-06,0,0,0.00862881311360449
-2.23746155825211E-05,1.01615914900322E-05,0,0,0.00862881311360449
-2.1916759578744E-05,1.19401311167167E-05,0,0,0.00862881311360449
-2.17531651287572E-05,1.25468395708594E-05,0,0,0.00862881311360449
-2.20080401049927E-05,1.08029835246271E-05,0,0,0.00862881311360449
-2.16235748666804E-05,8.64554840518394E-06,0,0,0.00862881311360449
-2.23314909817418E-05,9.46476666285889E-06,0,0,0.00862881311360449
-2.19601206481457E-05,1.02168505691225E-05,0,0,0.00862881311360449
-2.32185702770948E-05,1.17971230793046E-05,0,0,0.00862881311360449
-2.27371565415524E-05,1.0895574632741E-05,0,0,0.00862881311360449
-2.39627734117676E-05,1.06429260995355E-05,0,0,0.00862881311360449
-2.32232705457136E-05,9.91318938758923E-06,0,0,0.00862881311360449
-2.38665161305107E-05,1.19503029054613E-05,0,0,0.00862881311360449
-2.31357371376362E-05,1.30474763864186E-05,0,0,0.00862881311360449
-2.37604363064747E-05,1.38129043989466E-05,0,0,0.00862881311360449
-2.39459004660603E-05,1.30865255414392E-05,0,0,0.00862881311360449
-2.54779424722074E-05,1.14562717499211E-05,0,0,0.00862881311360449
-2.56128005275968E-05,7.8542398114223E-06,0,0,0.00862881311360449
-2.58411946560955E-05,7.824793101463E-06,0,0,0.00862881311360449
-2.56159419222968E-05,1.01931818790035E-05,0,0,0.00862881311360449
-2.5991959773819E-05,1.11494364318787E-05,0,0,0.00862881311360449
-2.10918387892889E-05,8.30752651381772E-06,0,0,0.00862881311360449
-2.92171844193945E-05,1.23301460916991E-05,0,0,0.00862881311360449
-2.04387506528292E-05,1.25426868180512E-05,0,0,0.00862881311360449
-2.48311898758402E-05,1.59501687448937E-05,0,0,0.00862881311360449
-2.10896705539199E-05,1.14869826575159E-05,0,0,0.00862881311360449
-2.54548740485916E-05,1.09088650788181E-05,0,0,0.00862881311360449
-2.33473529078765E-05,9.0624816948548E-06,0,0,0.00862881311360449
-2.39498185692355E-05,9.32227158045862E-06,0,0,0.00862881311360449
-2.27453128900379E-05,9.28103418118553E-06,0,0,0.00862881311360449
-2.35272054851521E-05,9.55722043727292E-06,0,0,0.00862881311360449
-2.44328693952411E-05,1.00099086921546E-05,0,0,0.00862881311360449
-2.41051693592453E-05,1.04152213680209E-05,0,0,0.00862881311360449
-2.50240027526161E-05,9.67404321272625E-06,0,0,0.00862881311360449
-2.30644582188688E-05,6.56348038319265E-06,0,0,0.00862881311360449
-2.3012406018097E-05,5.94495350014768E-06,0,0,0.00862881311360449
-2.13878574868431E-05,5.29101680513122E-06,0,0,0.00862881311360449
-2.25143903662683E-05,5.22242862643907E-06,0,0,0.00862881311360449
-2.12325903703459E-05,4.79763457406079E-06,0,0,0.00862881311360449
-2.21518457692582E-05,5.98590804656851E-06,0,0,0.00862881311360449
-2.12133163586259E-05,5.45799457540852E-06,0,0,0.00862881311360449
-2.20255333260866E-05,5.71069585930672E-06,0,0,0.00862881311360449
-2.15920008486137E-05,6.89500393491471E-06,0,0,0.00862881311360449
-2.31296689889859E-05,8.75404020916903E-06,0,0,0.00862881311360449
-2.3285467250389E-05,9.42113547353074E-06,0,0,0.00862881311360449
-2.36746436712565E-05,9.60855504672509E-06,0,0,0.00862881311360449
-2.38631291722413E-05,8.97455083759269E-06,0,0,0.00862881311360449
-2.39185592363356E-05,9.40554855333176E-06,0,0,0.00862881311360449
-1.9206156139262E-05,8.31278794066748E-06,0,0,0.00862881311360449
-2.6750160031952E-05,1.07437781480257E-05,0,0,0.00862881311360449
-1.94091080629732E-05,7.60561033530394E-06,0,0,0.00862881311360449
-2.39693908952177E-05,1.2244389836269E-05,0,0,0.00862881311360449
-2.04418774956139E-05,1.27995926959557E-05,0,0,0.00862881311360449
-2.4246257453342E-05,1.26928007375682E-05,0,0,0.00862881311360449
-2.28038370551076E-05,9.27626660995884E-06,0,0,0.00862881311360449
-2.40958215727005E-05,1.01921059467713E-05,0,0,0.00862881311360449
-2.39975033764495E-05,1.10670353024034E-05,0,0,0.00862881311360449
-2.4202156055253E-05,1.05374256236246E-05,0,0,0.00862881311360449
-2.40234639932169E-05,9.28974623093382E-06,0,0,0.00862881311360449
-2.3811651772121E-05,8.70769690664019E-06,0,0,0.00862881311360449
-2.51233195740497E-05,1.03673019111739E-05,0,0,0.00862881311360449
-2.38134307437576E-05,1.22756173368543E-05,0,0,0.00862881311360449
-2.44441544055007E-05,1.52763059304561E-05,0,0,0.00862881311360449
-2.32097681873711E-05,1.58264083438553E-05,0,0,0.00862881311360449
-2.38312186411349E-05,1.5666182662244E-05,0,0,0.00862881311360449
-2.29582110478077E-05,1.42037933983374E-05,0,0,0.00862881311360449
-2.47498974204063E-05,1.37878632813226E-05,0,0,0.00862881311360449
-2.47234420385212E-05,1.25780488815508E-05,0,0,0.00862881311360449
-2.61839886661619E-05,1.3187107470003E-05,0,0,0.00862881311360449
-2.55206505244132E-05,1.38823843371938E-05,0,0,0.00862881311360449
-2.59775260929018E-05,1.423448065907E-05,0,0,0.00862881311360449
-2.6774816433317E-05,1.29517829918768E-05,0,0,0.00862881311360449
-2.79623782262206E-05,1.27178900584113E-05,0,0,0.00862881311360449
-2.74393751169555E-05,1.26203403851832E-05,0,0,0.00862881311360449
-2.63629699475132E-05,1.00194147307775E-05,0,0,0.00862881311360449
-2.09676727536134E-05,6.12858275417238E-06,0,0,0.00862881311360449
-2.79578071058495E-05,8.70715848577674E-06,0,0,0.00862881311360449
-1.90325936273439E-05,7.77614968683338E-06,0,0,0.00862881311360449
-2.42961596086388E-05,1.16598384920508E-05,0,0,0.00862881311360449
-1.99649894057075E-05,1.18158268378465E-05,0,0,0.00862881311360449
-2.42732949118363E-05,1.29870004457189E-05,0,0,0.00862881311360449
-2.3170439817477E-05,1.21135963127017E-05,0,0,0.00862881311360449
-2.48388114414411E-05,1.19726646516938E-05,0,0,0.00862881311360449
-2.37727144849487E-05,1.05403141787974E-05,0,0,0.00862881311360449
-2.28305161726894E-05,8.27239182399353E-06,0,0,0.00862881311360449
-2.30867135542212E-05,6.98099347573589E-06,0,0,0.00862881311360449
-2.42540845647454E-05,7.93881827121368E-06,0,0,0.00862881311360449
-2.69901102001313E-05,1.02880103440839E-05,0,0,0.00862881311360449
-2.6090778192156E-05,1.14376198325772E-05,0,0,0.00862881311360449
-2.63424135482637E-05,1.16561022878159E-05,0,0,0.00862881311360449
-2.43585018324666E-05,1.00808892966597E-05,0,0,0.00862881311360449
-2.54209735430777E-05,1.02930753200781E-05,0,0,0.00862881311360449
-2.44507100433111E-05,1.17630706881755E-05,0,0,0.00862881311360449
-2.58977961493656E-05,1.43218258017441E-05,0,0,0.00862881311360449
-2.54107071668841E-05,1.58219390868908E-05,0,0,0.00862881311360449
-2.69084121100605E-05,1.69505328813102E-05,0,0,0.00862881311360449
-2.69482388830511E-05,1.53374803630868E-05,0,0,0.00862881311360449
-2.63368001469644E-05,1.30930029627052E-05,0,0,0.00862881311360449
-2.3401296857628E-05,1.14084141387139E-05,0,0,0.00862881311360449
-2.2351307052304E-05,1.13764681373141E-05,0,0,0.00862881311360449
-2.17233373405179E-05,1.24847902043257E-05,0,0,0.00862881311360449
-2.15483250940451E-05,1.19215465019806E-05,0,0,0.00862881311360449
-1.92219358723378E-05,7.47588956073741E-06,0,0,0.00862881311360449
-2.80474887404125E-05,1.0657584425644E-05,0,0,0.00862881311360449
-2.19694848055951E-05,1.01209752756404E-05,0,0,0.00862881311360449
-2.69983811449492E-05,1.31310771394055E-05,0,0,0.00862881311360449
-2.3968252207851E-05,8.78504306456307E-06,0,0,0.00862881311360449
-2.68042604147922E-05,6.18548756392556E-06,0,0,0.00862881311360449
-2.45261962845689E-05,2.8201509394421E-06,0,0,0.00862881311360449
-2.50588109338423E-05,4.3397430999903E-06,0,0,0.00862881311360449
-2.44726415985497E-05,6.40268945062417E-06,0,0,0.00862881311360449
-2.46028212131932E-05,7.42102383810561E-06,0,0,0.00862881311360449
-2.53376638283953E-05,6.21996241534362E-06,0,0,0.00862881311360449
-2.6395391614642E-05,5.52689834876219E-06,0,0,0.00862881311360449
-2.87097700493177E-05,6.5804074438347E-06,0,0,0.00862881311360449
-2.75428883469431E-05,6.16295665167854E-06,0,0,0.00862881311360449
-2.74932390311733E-05,6.86170778863016E-06,0,0,0.00862881311360449
-2.59750486293342E-05,7.66534412832698E-06,0,0,0.00862881311360449
-2.70995460596168E-05,9.20200272958027E-06,0,0,0.00862881311360449
-2.58395139098866E-05,8.00285579316551E-06,0,0,0.00862881311360449
-2.58008476521354E-05,8.03795046522282E-06,0,0,0.00862881311360449
-2.3888942450867E-05,9.3208263933775E-06,0,0,0.00862881311360449
-2.33852333622053E-05,1.07382638816489E-05,0,0,0.00862881311360449
-2.24787891056621E-05,1.04452128653065E-05,0,0,0.00862881311360449
-2.38052798522403E-05,1.14865133582498E-05,0,0,0.00862881311360449
-2.4146533178282E-05,1.1707116755133E-05,0,0,0.00862881311360449
-2.36570213019149E-05,1.08426183942356E-05,0,0,0.00862881311360449
-2.33662758546416E-05,1.10780865725246E-05,0,0,0.00862881311360449
-2.29686920647509E-05,1.2549661732919E-05,0,0,0.00862881311360449
-1.82594885700382E-05,8.16680039861239E-06,0,0,0.00862881311360449
-2.63096590060741E-05,9.64277023740578E-06,0,0,0.00862881311360449
-2.03517756744986E-05,7.24545316188596E-06,0,0,0.00862881311360449
-2.46700328716543E-05,1.3091192158754E-05,0,0,0.00862881311360449
-2.17333999898983E-05,1.14165395643795E-05,0,0,0.00862881311360449
-2.57889969361713E-05,1.16728479042649E-05,0,0,0.00862881311360449
-2.34566596191144E-05,1.09913680717E-05,0,0,0.00862881311360449
-2.30412933888147E-05,1.33367511807592E-05,0,0,0.00862881311360449
-2.17238775803708E-05,1.46384136314737E-05,0,0,0.00862881311360449
-2.08351684705121E-05,1.35714444695623E-05,0,0,0.00862881311360449
-2.06745098694228E-05,1.11093058876577E-05,0,0,0.00862881311360449
-2.13076400541468E-05,8.86948419065448E-06,0,0,0.00862881311360449
-2.36153828154784E-05,9.16777298698435E-06,0,0,0.00862881311360449
-2.31489648285788E-05,1.03578204289079E-05,0,0,0.00862881311360449
-2.33735700021498E-05,1.28661195049062E-05,0,0,0.00862881311360449
-2.17422038986115E-05,1.25307360576699E-05,0,0,0.00862881311360449
-2.23334864131175E-05,1.20317135952064E-05,0,0,0.00862881311360449
-2.00632584892446E-05,1.1234506018809E-05,0,0,0.00862881311360449
-1.95380143850343E-05,1.18207117338898E-05,0,0,0.00862881311360449
-1.88716348930029E-05,1.15701914182864E-05,0,0,0.00862881311360449
-2.01822822418762E-05,1.17915124064893E-05,0,0,0.00862881311360449
-1.92708776012296E-05,1.10572018456878E-05,0,0,0.00862881311360449
-1.98680027096998E-05,1.05437657111906E-05,0,0,0.00862881311360449
-2.08915062103188E-05,9.60644410952227E-06,0,0,0.00862881311360449
-2.17505294131115E-05,9.71767804003321E-06,0,0,0.00862881311360449
-2.24103168875445E-05,1.15106167868362E-05,0,0,0.00862881311360449
-2.29690631385893E-05,1.23691525004688E-05,0,0,0.00862881311360449
-1.83845731953625E-05,8.03400325821713E-06,0,0,0.00862881311360449
-2.53303514909931E-05,1.08924959931755E-05,0,0,0.00862881311360449
-1.88978956430219E-05,8.69445921125589E-06,0,0,0.00862881311360449
-2.41890938923461E-05,1.06397046693019E-05,0,0,0.00862881311360449
-2.02136216103099E-05,8.50229389470769E-06,0,0,0.00862881311360449
-2.29786655836506E-05,9.40728477871744E-06,0,0,0.00862881311360449
-2.14914489333751E-05,6.97195355314761E-06,0,0,0.00862881311360449
-2.34662020375254E-05,7.23324501450406E-06,0,0,0.00862881311360449
-2.42577152675949E-05,7.29840121493908E-06,0,0,0.00862881311360449
-2.50931661867071E-05,8.98718099051621E-06,0,0,0.00862881311360449
-2.46680629061302E-05,1.05005774457823E-05,0,0,0.00862881311360449
-2.26883857976645E-05,1.16971677925903E-05,0,0,0.00862881311360449
-2.16408316191519E-05,1.25472506624646E-05,0,0,0.00862881311360449
-1.96176661120262E-05,1.150924799731E-05,0,0,0.00862881311360449
-2.02603750949493E-05,1.18937778097461E-05,0,0,0.00862881311360449
-1.92966417671414E-05,1.25129881780595E-05,0,0,0.00862881311360449
-2.04678945010528E-05,1.33209468913265E-05,0,0,0.00862881311360449
-1.91454546438763E-05,1.13235819299007E-05,0,0,0.00862881311360449
-1.99343030544696E-05,1.04785804069252E-05,0,0,0.00862881311360449
-1.93351370398887E-05,8.92793104867451E-06,0,0,0.00862881311360449
-2.06279055419145E-05,8.81892174220411E-06,0,0,0.00862881311360449
-2.16654807445593E-05,8.97664722288027E-06,0,0,0.00862881311360449
-2.42673431785079E-05,1.08244485090836E-05,0,0,0.00862881311360449
-2.50274424615782E-05,1.30441931105452E-05,0,0,0.00862881311360449
-2.45298124355031E-05,1.42241233334062E-05,0,0,0.00862881311360449
-2.34442868531914E-05,1.25426222439273E-05,0,0,0.00862881311360449
-2.34993058256805E-05,1.12587085823179E-05,0,0,0.00862881311360449
-1.92112711374648E-05,1.00862043836969E-05,0,0,0.00862881311360449
-2.70072232524399E-05,1.47010996442987E-05,0,0,0.00862881311360449
-2.05566502700094E-05,1.13754431367852E-05,0,0,0.00862881311360449
-2.58796735579381E-05,1.2250357940502E-05,0,0,0.00862881311360449
-2.20027159230085E-05,9.07180401554797E-06,0,0,0.00862881311360449
-2.47310417762492E-05,1.05814551716321E-05,0,0,0.00862881311360449
-2.20826841541566E-05,8.81931646290468E-06,0,0,0.00862881311360449
-2.29516699619126E-05,8.87161604623543E-06,0,0,0.00862881311360449
-2.35371462622425E-05,8.98290909390198E-06,0,0,0.00862881311360449
-2.51188012043713E-05,8.9278764789924E-06,0,0,0.00862881311360449
-2.62938847299665E-05,9.07446610654006E-06,0,0,0.00862881311360449
-2.47490625042701E-05,9.82184610620607E-06,0,0,0.00862881311360449
-2.42125570366625E-05,1.14047534225392E-05,0,0,0.00862881311360449
-2.38533939409535E-05,1.20815875561675E-05,0,0,0.00862881311360449
-2.71960252575809E-05,1.28006304294104E-05,0,0,0.00862881311360449
-2.86234899249393E-05,1.20268914542976E-05,0,0,0.00862881311360449
-3.04756958939834E-05,1.39214762384654E-05,0,0,0.00862881311360449
-2.81501124845818E-05,1.49943925862317E-05,0,0,0.00862881311360449
-2.73437035502866E-05,1.55013894982403E-05,0,0,0.00862881311360449
-2.59657153947046E-05,1.40491993079195E-05,0,0,0.00862881311360449
-2.67141458607512E-05,1.31735569084412E-05,0,0,0.00862881311360449
-2.63310339505551E-05,1.19451897262479E-05,0,0,0.00862881311360449
-2.71309745585313E-05,1.2470498404582E-05,0,0,0.00862881311360449
-2.63819820247591E-05,1.36283961182926E-05,0,0,0.00862881311360449
-2.48167616518913E-05,1.37482502395869E-05,0,0,0.00862881311360449
-2.3004144168226E-05,9.66193783824565E-06,0,0,0.00862881311360449
-2.23481765715405E-05,5.43688565812772E-06,0,0,0.00862881311360449
-1.79872931767022E-05,4.52286167273996E-06,0,0,0.00862881311360449
-2.55280720011797E-05,8.59133251651656E-06,0,0,0.00862881311360449
-1.9104565581074E-05,1.02929025160847E-05,0,0,0.00862881311360449
-2.4259532438009E-05,1.299754876527E-05,0,0,0.00862881311360449
-2.17969936784357E-05,1.17781110020587E-05,0,0,0.00862881311360449
-2.39067303482443E-05,1.22583742268034E-05,0,0,0.00862881311360449
-2.11705755646108E-05,1.39737567224074E-05,0,0,0.00862881311360449
-2.20500569412252E-05,1.50438363561989E-05,0,0,0.00862881311360449
-2.14144583878806E-05,1.52181501107407E-05,0,0,0.00862881311360449
-2.15060008486034E-05,1.44033247124753E-05,0,0,0.00862881311360449
-2.15392701647943E-05,1.3102237971907E-05,0,0,0.00862881311360449
-2.02972532861168E-05,1.20025215437636E-05,0,0,0.00862881311360449
-2.06580571102677E-05,1.1545319466677E-05,0,0,0.00862881311360449
-2.01683342311298E-05,9.97860115603544E-06,0,0,0.00862881311360449
-2.2251857444644E-05,8.8645210780669E-06,0,0,0.00862881311360449
-2.21710906771477E-05,9.08588572201552E-06,0,0,0.00862881311360449
-2.3457288989448E-05,1.08051317511126E-05,0,0,0.00862881311360449
-2.27681794058299E-05,1.18245225166902E-05,0,0,0.00862881311360449
-2.44222792389337E-05,1.12648476715549E-05,0,0,0.00862881311360449
-2.5085408196901E-05,8.88475642568665E-06,0,0,0.00862881311360449
-2.6928306397167E-05,7.63048592489213E-06,0,0,0.00862881311360449
-2.70918553724186E-05,8.86715042724973E-06,0,0,0.00862881311360449
-2.73859368462581E-05,9.83021618594648E-06,0,0,0.00862881311360449
-2.5964991436922E-05,9.11197184905177E-06,0,0,0.00862881311360449
-2.45576829911442E-05,8.87042733666021E-06,0,0,0.00862881311360449
-2.42566256929422E-05,9.0088751676376E-06,0,0,0.00862881311360449
-2.5256567823817E-05,8.05757281341357E-06,0,0,0.00862881311360449
-2.11083242902532E-05,4.89500052935909E-06,0,0,0.00862881311360449
-2.89359959424473E-05,6.31677266937913E-06,0,0,0.00862881311360449
-2.10886446438963E-05,6.24466292720172E-06,0,0,0.00862881311360449
-2.73569057753775E-05,1.05206036096206E-05,0,0,0.00862881311360449
-2.49431868724059E-05,1.07075329651707E-05,0,0,0.00862881311360449
-2.91654159809696E-05,1.30404168885434E-05,0,0,0.00862881311360449
-2.58395648415899E-05,1.32321374621824E-05,0,0,0.00862881311360449
-2.67372106463881E-05,1.27066796267172E-05,0,0,0.00862881311360449
-2.6200752472505E-05,1.15819448183174E-05,0,0,0.00862881311360449
-2.59998851106502E-05,1.08879703475395E-05,0,0,0.00862881311360449
-2.59172320511425E-05,1.03943993963185E-05,0,0,0.00862881311360449
-2.52867066592444E-05,1.21541852422524E-05,0,0,0.00862881311360449
-2.69452757493127E-05,1.44434425237705E-05,0,0,0.00862881311360449
-2.74926915153628E-05,1.3836007383361E-05,0,0,0.00862881311360449
-2.97619390039472E-05,1.16030769277131E-05,0,0,0.00862881311360449
-2.83982590190135E-05,7.93202161730733E-06,0,0,0.00862881311360449
-2.88325809378875E-05,6.4814230427146E-06,0,0,0.00862881311360449
-2.69413467322011E-05,6.52406924928073E-06,0,0,0.00862881311360449
-2.70955242740456E-05,7.85062366048805E-06,0,0,0.00862881311360449
-2.57132087426726E-05,8.59556530485861E-06,0,0,0.00862881311360449
-2.70248638116755E-05,1.04569808172528E-05,0,0,0.00862881311360449
-2.62922276306199E-05,1.07208734334563E-05,0,0,0.00862881311360449
-2.63519486907171E-05,9.76838055066764E-06,0,0,0.00862881311360449
-2.61452569247922E-05,8.21807589090895E-06,0,0,0.00862881311360449
-2.67615705524804E-05,7.31719228497241E-06,0,0,0.00862881311360449
-2.62173416558653E-05,7.86545660957927E-06,0,0,0.00862881311360449
-2.62571065832162E-05,9.38851189857814E-06,0,0,0.00862881311360449
-2.09786139748758E-05,7.20522211850039E-06,0,0,0.00862881311360449
-2.96586422336986E-05,1.00051775007159E-05,0,0,0.00862881311360449
-2.30389541684417E-05,6.78972673995304E-06,0,0,0.00862881311360449
-3.04462810163386E-05,6.92110643285559E-06,0,0,0.00862881311360449
-2.62012108578347E-05,4.48151195087121E-06,0,0,0.00862881311360449
-2.71243552560918E-05,7.88740999269066E-06,0,0,0.00862881311360449
-2.39703240367817E-05,1.05145472844015E-05,0,0,0.00862881311360449
-2.44156526605366E-05,1.2502898243838E-05,0,0,0.00862881311360449
-2.23287515837001E-05,1.19168462333619E-05,0,0,0.00862881311360449
-2.0770647097379E-05,1.10072896859492E-05,0,0,0.00862881311360449
-2.05726009880891E-05,1.03543161458219E-05,0,0,0.00862881311360449
-2.04050174943404E-05,9.89304135146085E-06,0,0,0.00862881311360449
-2.17314336623531E-05,9.80239201453514E-06,0,0,0.00862881311360449
-2.03264753508847E-05,9.67428604781162E-06,0,0,0.00862881311360449
-2.0978826796636E-05,1.10850933197071E-05,0,0,0.00862881311360449
-1.98125890165102E-05,1.21636030598893E-05,0,0,0.00862881311360449
-2.10613561648643E-05,1.33882713271305E-05,0,0,0.00862881311360449
-2.02479586732807E-05,1.19592887131148E-05,0,0,0.00862881311360449
-2.1226280296105E-05,9.3518083303934E-06,0,0,0.00862881311360449
-1.96629243873758E-05,6.3650018091721E-06,0,0,0.00862881311360449
-1.95686079678126E-05,6.6037200667779E-06,0,0,0.00862881311360449
-1.97436947928509E-05,8.34814181871479E-06,0,0,0.00862881311360449
-2.10859561775578E-05,1.04286418718402E-05,0,0,0.00862881311360449
-2.02536084543681E-05,9.55835093918722E-06,0,0,0.00862881311360449
-2.04413045139518E-05,7.09985124558443E-06,0,0,0.00862881311360449
-2.15564632526366E-05,3.6134792935627E-06,0,0,0.00862881311360449
-2.2727215764462E-05,1.0512532071516E-06,0,0,0.00862881311360449
-1.90773371286923E-05,3.15701868203178E-06,0,0,0.00862881311360449
-2.68119056272553E-05,6.65764673613012E-06,0,0,0.00862881311360449
-1.87654295586981E-05,7.93330764281563E-06,0,0,0.00862881311360449
-2.36078758462099E-05,8.86630277818767E-06,0,0,0.00862881311360449
-2.17148171941517E-05,8.48296895128442E-06,0,0,0.00862881311360449
-2.47042953560594E-05,9.51697893469827E-06,0,0,0.00862881311360449
-2.15603722608648E-05,1.04132595879491E-05,0,0,0.00862881311360449
-2.13465482374886E-05,1.0537997695792E-05,0,0,0.00862881311360449
-2.11936239793431E-05,1.13907562990789E-05,0,0,0.00862881311360449
-2.26206757361069E-05,1.35700711325626E-05,0,0,0.00862881311360449
-2.3576634703204E-05,1.70364110090304E-05,0,0,0.00862881311360449
-2.31349622481503E-05,1.98419056687271E-05,0,0,0.00862881311360449
-2.44091788772494E-05,1.9359844372957E-05,0,0,0.00862881311360449
-2.39968067035079E-05,1.49018924275879E-05,0,0,0.00862881311360449
-2.55010800174205E-05,1.20560107461642E-05,0,0,0.00862881311360449
-2.45708397415001E-05,1.38460818561725E-05,0,0,0.00862881311360449
-2.38182874454651E-05,1.70922994584544E-05,0,0,0.00862881311360449
-2.02560586330947E-05,1.705263639451E-05,0,0,0.00862881311360449
-1.99562309717294E-05,1.56591249833582E-05,0,0,0.00862881311360449
-2.02355204237392E-05,1.5621562852175E-05,0,0,0.00862881311360449
-2.26379124796949E-05,1.62334563356126E-05,0,0,0.00862881311360449
-2.26704141823575E-05,1.55765810632147E-05,0,0,0.00862881311360449
-2.26019365072716E-05,1.48153803820605E-05,0,0,0.00862881311360449
-2.24150262511102E-05,1.50118421515799E-05,0,0,0.00862881311360449
-2.24440700549167E-05,1.44828863994917E-05,0,0,0.00862881311360449
-2.16839434870053E-05,1.25521692098118E-05,0,0,0.00862881311360449
-2.21808113565203E-05,1.23059189718333E-05,0,0,0.00862881311360449
-1.93455944099696E-05,1.07265123006073E-05,0,0,0.00862881311360449
-2.81231641565682E-05,1.32117384055164E-05,0,0,0.00862881311360449
-2.21648097067373E-05,5.78720482735662E-06,0,0,0.00862881311360449
-2.7667007088894E-05,5.18718434250331E-06,0,0,0.00862881311360449
-2.3789709302946E-05,1.89451191090484E-06,0,0,0.00862881311360449
-2.52101272053551E-05,7.22677987141651E-06,0,0,0.00862881311360449
-2.24497744056862E-05,9.79453398031183E-06,0,0,0.00862881311360449
-2.37015956372488E-05,1.19676060421625E-05,0,0,0.00862881311360449
-2.44511156779481E-05,1.20136446639663E-05,0,0,0.00862881311360449
-2.60670312854927E-05,1.1958025424974E-05,0,0,0.00862881311360449
-2.67511586571345E-05,1.07416863102117E-05,0,0,0.00862881311360449
-2.46921881625894E-05,8.02173599367961E-06,0,0,0.00862881311360449
-2.25604726438178E-05,6.84083852320327E-06,0,0,0.00862881311360449
-1.94128588191234E-05,5.91005527894595E-06,0,0,0.00862881311360449
-2.02073224500054E-05,6.26613336862647E-06,0,0,0.00862881311360449
-2.03809759113938E-05,5.41543977305992E-06,0,0,0.00862881311360449
-2.27190776058706E-05,6.65746983941062E-06,0,0,0.00862881311360449
-2.22069320443552E-05,6.78256310493452E-06,0,0,0.00862881311360449
-2.23690312850522E-05,7.81374910729937E-06,0,0,0.00862881311360449
-2.02861265279353E-05,7.93923663877649E-06,0,0,0.00862881311360449
-2.03841555048712E-05,7.50286744732875E-06,0,0,0.00862881311360449
-2.07493631023681E-05,4.29936108048423E-06,0,0,0.00862881311360449
-2.20504171011271E-05,3.02612147606851E-06,0,0,0.00862881311360449
-2.17037777474616E-05,3.30333068632171E-06,0,0,0.00862881311360449
-2.12791237572674E-05,5.31973455508705E-06,0,0,0.00862881311360449
-2.1481437215698E-05,8.31363558972953E-06,0,0,0.00862881311360449
-2.2935913875699E-05,9.92828427115455E-06,0,0,0.00862881311360449
-1.75744698935887E-05,7.77588320488576E-06,0,0,0.00862881311360449
-2.41647321672644E-05,1.06201368907932E-05,0,0,0.00862881311360449
-1.83950269274646E-05,7.97640041128034E-06,0,0,0.00862881311360449
-2.40173267229693E-05,1.09171605799929E-05,0,0,0.00862881311360449
-2.09890440601157E-05,9.28970075619873E-06,0,0,0.00862881311360449
-2.45877363340696E-05,1.01015539257787E-05,0,0,0.00862881311360449
-2.30497171287425E-05,9.61826663115062E-06,0,0,0.00862881311360449
-2.394401053607E-05,1.01224004538381E-05,0,0,0.00862881311360449
-2.30564146477263E-05,1.0157096767216E-05,0,0,0.00862881311360449
-2.23855222429847E-05,1.03650272649247E-05,0,0,0.00862881311360449
-2.19010271393927E-05,1.13894384412561E-05,0,0,0.00862881311360449
-2.19119137909729E-05,1.22710916912183E-05,0,0,0.00862881311360449
-2.33212304010522E-05,1.2875110769528E-05,0,0,0.00862881311360449
-2.22373455471825E-05,1.17295758172986E-05,0,0,0.00862881311360449
-2.32302627409808E-05,1.21194407256553E-05,0,0,0.00862881311360449
-2.27904456551187E-05,1.30356074805604E-05,0,0,0.00862881311360449
-2.42980131588411E-05,1.34621150209568E-05,0,0,0.00862881311360449
-2.41704692598432E-05,1.08720796561101E-05,0,0,0.00862881311360449
-2.51910987572046E-05,8.68890583660686E-06,0,0,0.00862881311360449
-2.42353798967088E-05,7.72767270973418E-06,0,0,0.00862881311360449
-2.57378687820164E-05,9.25778567761881E-06,0,0,0.00862881311360449
-2.54218557529384E-05,1.04042974271579E-05,0,0,0.00862881311360449
-2.64521440840326E-05,1.07571731859935E-05,0,0,0.00862881311360449
-2.817055064952E-05,1.07722416942124E-05,0,0,0.00862881311360449
-2.95357822324149E-05,1.09768452603021E-05,0,0,0.00862881311360449
-2.86305603367509E-05,1.06146680991515E-05,0,0,0.00862881311360449
-2.81189895758871E-05,1.12667958092061E-05,0,0,0.00862881311360449
-2.35527440963779E-05,1.00763782029389E-05,0,0,0.00862881311360449
-3.41356135322712E-05,1.47130676850793E-05,0,0,0.00862881311360449
-2.63441161223454E-05,1.12352981886943E-05,0,0,0.00862881311360449
-3.09826646116562E-05,1.4627705240855E-05,0,0,0.00862881311360449
-2.44330312852981E-05,1.49171019074856E-05,0,0,0.00862881311360449
-2.67003051703796E-05,1.76261401065858E-05,0,0,0.00862881311360449
-2.42617115873145E-05,1.59626324602868E-05,0,0,0.00862881311360449
-2.54073238465935E-05,1.53647579281824E-05,0,0,0.00862881311360449
-2.44245584326563E-05,1.56708756549051E-05,0,0,0.00862881311360449
-2.60276920016622E-05,1.65618384926347E-05,0,0,0.00862881311360449
-2.8106223908253E-05,1.67999260156648E-05,0,0,0.00862881311360449
-2.86792874248931E-05,1.53965065692319E-05,0,0,0.00862881311360449
-3.05635039694607E-05,1.31758833958884E-05,0,0,0.00862881311360449
-2.94798028335208E-05,1.12400557554793E-05,0,0,0.00862881311360449
-3.0236236852943E-05,1.22399924293859E-05,0,0,0.00862881311360449
-2.86603517452022E-05,1.2476515621529E-05,0,0,0.00862881311360449
-2.93427874566987E-05,1.3580219274445E-05,0,0,0.00862881311360449
-2.69704214588273E-05,1.30768003145931E-05,0,0,0.00862881311360449
-2.77276940323645E-05,1.28927131299861E-05,0,0,0.00862881311360449
-2.71040953521151E-05,1.31684673760901E-05,0,0,0.00862881311360449
-2.77494909823872E-05,1.604420140211E-05,0,0,0.00862881311360449
-2.67130417341832E-05,1.81025407073321E-05,0,0,0.00862881311360449
-2.74091235041851E-05,1.7470109014539E-05,0,0,0.00862881311360449
-2.68145686277421E-05,1.28967294585891E-05,0,0,0.00862881311360449
-2.65650087385438E-05,9.35193202167284E-06,0,0,0.00862881311360449
-2.53119269473245E-05,8.81854793988168E-06,0,0,0.00862881311360449
-2.33837945415871E-05,8.64246248966083E-06,0,0,0.00862881311360449
-1.73170192283578E-05,6.13567726759356E-06,0,0,0.00862881311360449
-2.38930733758025E-05,7.12064274921431E-06,0,0,0.00862881311360449
-1.86874676728621E-05,4.3563131839619E-06,0,0,0.00862881311360449
-2.49559780058917E-05,7.91151433077175E-06,0,0,0.00862881311360449
-2.16810967685888E-05,8.95698667591205E-06,0,0,0.00862881311360449
-2.40930930885952E-05,1.1038235243177E-05,0,0,0.00862881311360449
-2.26296106120571E-05,8.82858603290515E-06,0,0,0.00862881311360449
-2.42136538872728E-05,6.52430435366114E-06,0,0,0.00862881311360449
-2.40763438341673E-05,5.03420915265451E-06,0,0,0.00862881311360449
-2.30878431466408E-05,6.71946054353612E-06,0,0,0.00862881311360449
-2.10947564482922E-05,9.39452547754627E-06,0,0,0.00862881311360449
-1.97109766304493E-05,1.1036600881198E-05,0,0,0.00862881311360449
-2.1039579223725E-05,1.08515032479772E-05,0,0,0.00862881311360449
-2.01526763703441E-05,8.92555362952407E-06,0,0,0.00862881311360449
-2.09122117666993E-05,9.66092102316907E-06,0,0,0.00862881311360449
-2.03510044229915E-05,1.10486489575123E-05,0,0,0.00862881311360449
-2.14765968848951E-05,1.27539569803048E-05,0,0,0.00862881311360449
-2.04188527277438E-05,1.17727076940355E-05,0,0,0.00862881311360449
-2.11734022741439E-05,1.01861833172734E-05,0,0,0.00862881311360449
-2.07377233891748E-05,8.62040178617463E-06,0,0,0.00862881311360449
-2.1686335458071E-05,9.89783075056039E-06,0,0,0.00862881311360449
-2.02158425963717E-05,1.22956862469437E-05,0,0,0.00862881311360449
-1.98591042135376E-05,1.38929462991655E-05,0,0,0.00862881311360449
-1.98964535229607E-05,1.15562752398546E-05,0,0,0.00862881311360449
-2.0699257220258E-05,8.95363064046251E-06,0,0,0.00862881311360449
-2.11627429962391E-05,9.88702322501922E-06,0,0,0.00862881311360449
-2.19932444451842E-05,1.3475883861247E-05,0,0,0.00862881311360449
-1.82498042704538E-05,1.1828402421088E-05,0,0,0.00862881311360449
-2.63200363406213E-05,1.47480932355393E-05,0,0,0.00862881311360449
-2.03410454560071E-05,8.74946272233501E-06,0,0,0.00862881311360449
-2.45593255385756E-05,1.08659642137354E-05,0,0,0.00862881311360449
-2.02556675503729E-05,6.07070569458301E-06,0,0,0.00862881311360449
-2.27260024985299E-05,7.77618879510555E-06,0,0,0.00862881311360449
-2.09548543352867E-05,7.85884458309738E-06,0,0,0.00862881311360449
-2.24431914830348E-05,8.62656088429503E-06,0,0,0.00862881311360449
-2.29071483772714E-05,6.82070276525337E-06,0,0,0.00862881311360449
-2.37278291024268E-05,6.78906644679955E-06,0,0,0.00862881311360449
-2.38826778513612E-05,8.27140593173681E-06,0,0,0.00862881311360449
-2.21652117033955E-05,9.96061044133967E-06,0,0,0.00862881311360449
-2.19106987060513E-05,1.19106198326335E-05,0,0,0.00862881311360449
-2.11389760806924E-05,1.0443049177411E-05,0,0,0.00862881311360449
-2.28601384151261E-05,9.66833158599911E-06,0,0,0.00862881311360449
-2.2733571313438E-05,8.74814304552274E-06,0,0,0.00862881311360449
-2.41273573919898E-05,1.11393019324169E-05,0,0,0.00862881311360449
-2.30325567827094E-05,1.18272910185624E-05,0,0,0.00862881311360449
-2.30643636314198E-05,1.15006787382299E-05,0,0,0.00862881311360449
-2.14553456316935E-05,8.63320929056499E-06,0,0,0.00862881311360449
-2.24446157517377E-05,6.59786519463523E-06,0,0,0.00862881311360449
-2.29990309890127E-05,3.87500404031016E-06,0,0,0.00862881311360449
-2.39811379287858E-05,4.21814547735266E-06,0,0,0.00862881311360449
-2.37962467508623E-05,6.1594728322234E-06,0,0,0.00862881311360449
-2.43988579313736E-05,7.01941917213844E-06,0,0,0.00862881311360449
-2.5046332666534E-05,6.83739199303091E-06,0,0,0.00862881311360449
-2.45020110014593E-05,7.48310731069068E-06,0,0,0.00862881311360449
-1.82474559551338E-05,7.79061065259157E-06,0,0,0.00862881311360449
-2.52705485763727E-05,1.23138188428129E-05,0,0,0.00862881311360449
-1.84318250830984E-05,1.08537833511946E-05,0,0,0.00862881311360449
-2.32835900533246E-05,1.04983473647735E-05,0,0,0.00862881311360449
-2.01393668248784E-05,6.48069362796377E-06,0,0,0.00862881311360449
-2.3421796868206E-05,7.93228809925495E-06,0,0,0.00862881311360449
-2.21901354962029E-05,9.20079128263751E-06,0,0,0.00862881311360449
-2.44498460233444E-05,1.11881736302166E-05,0,0,0.00862881311360449
-2.37949134316295E-05,1.07002806544187E-05,0,0,0.00862881311360449
-2.31182621064363E-05,9.40660083870171E-06,0,0,0.00862881311360449
-2.34802992054028E-05,8.48456238600193E-06,0,0,0.00862881311360449
-2.40679783019004E-05,7.06341461409465E-06,0,0,0.00862881311360449
-2.56924613495357E-05,6.12544454270392E-06,0,0,0.00862881311360449
-2.38612938119331E-05,5.35222852704464E-06,0,0,0.00862881311360449
-2.25544135901146E-05,6.96686402079649E-06,0,0,0.00862881311360449
-1.99343121494167E-05,8.00943780632224E-06,0,0,0.00862881311360449
-2.13444927794626E-05,9.42024598771241E-06,0,0,0.00862881311360449
-2.1859748812858E-05,1.01840423667454E-05,0,0,0.00862881311360449
-2.36810064961901E-05,1.17659519673907E-05,0,0,0.00862881311360449
-2.26645643124357E-05,1.17691788545926E-05,0,0,0.00862881311360449
-2.28367298404919E-05,1.18179414130282E-05,0,0,0.00862881311360449
-2.24241903197253E-05,1.17292811410152E-05,0,0,0.00862881311360449
-2.39030978264054E-05,1.27471284940839E-05,0,0,0.00862881311360449
-2.45624887611484E-05,1.29524396470515E-05,0,0,0.00862881311360449
-2.52042191277724E-05,1.04758382803993E-05,0,0,0.00862881311360449
-2.49951172008878E-05,5.94640823692316E-06,0,0,0.00862881311360449
-2.43859303736826E-05,2.21946311285137E-06,0,0,0.00862881311360449
-1.97500557987951E-05,3.15945885631663E-06,0,0,0.00862881311360449
-2.76554364972981E-05,8.36714389151894E-06,0,0,0.00862881311360449
-2.12034447031328E-05,1.20576087283553E-05,0,0,0.00862881311360449
-2.73323385044932E-05,1.47274449773249E-05,0,0,0.00862881311360449
-2.43055364990141E-05,1.55139878188493E-05,0,0,0.00862881311360449
-2.78804818663048E-05,1.49346969919861E-05,0,0,0.00862881311360449
-2.52194768108893E-05,1.27245439216495E-05,0,0,0.00862881311360449
-2.52630215982208E-05,1.10768769445713E-05,0,0,0.00862881311360449
-2.41430643654894E-05,1.23436429930734E-05,0,0,0.00862881311360449
-2.43829963437747E-05,1.34842939587543E-05,0,0,0.00862881311360449
-2.44011371250963E-05,1.30657326735673E-05,0,0,0.00862881311360449
-2.30366185860476E-05,1.19202259156737E-05,0,0,0.00862881311360449
-2.30891309911385E-05,1.07948089862475E-05,0,0,0.00862881311360449
-2.16950193134835E-05,1.12216484922101E-05,0,0,0.00862881311360449
-2.32094134844374E-05,1.32940795083414E-05,0,0,0.00862881311360449
-2.32526126637822E-05,1.46475003930391E-05,0,0,0.00862881311360449
-2.59983535215724E-05,1.50517271322315E-05,0,0,0.00862881311360449
-2.6389234335511E-05,1.49463312482112E-05,0,0,0.00862881311360449
-2.84444504359271E-05,1.51593349073664E-05,0,0,0.00862881311360449
-2.81718639598694E-05,1.57221220433712E-05,0,0,0.00862881311360449
-2.88865448965225E-05,1.55737507157028E-05,0,0,0.00862881311360449
-2.76818573183846E-05,1.47163309520693E-05,0,0,0.00862881311360449
-2.74067388090771E-05,1.4606238437409E-05,0,0,0.00862881311360449
-2.67513369180961E-05,1.41193122544792E-05,0,0,0.00862881311360449
-2.61375535046682E-05,1.19910246212385E-05,0,0,0.00862881311360449
-2.48017950070789E-05,1.04717819340294E-05,0,0,0.00862881311360449
-2.37850817939034E-05,1.05011777122854E-05,0,0,0.00862881311360449
-1.81230916496133E-05,9.23965671972837E-06,0,0,0.00862881311360449
-2.62494650087319E-05,1.35713535200921E-05,0,0,0.00862881311360449
-2.19105804717401E-05,1.17238669190556E-05,0,0,0.00862881311360449
-2.78754869214026E-05,1.62254837050568E-05,0,0,0.00862881311360449
-2.3902483007987E-05,1.56348251039162E-05,0,0,0.00862881311360449
-2.68729399977019E-05,1.66291756613646E-05,0,0,0.00862881311360449
-2.60112537944224E-05,1.43741826832411E-05,0,0,0.00862881311360449
-2.71349072136218E-05,1.4423611901293E-05,0,0,0.00862881311360449
-2.53756534220884E-05,1.50010300785652E-05,0,0,0.00862881311360449
-2.33579357882263E-05,1.65272722369991E-05,0,0,0.00862881311360449
-2.2151745724841E-05,1.74336637428496E-05,0,0,0.00862881311360449
-2.15757263504202E-05,1.61199332069373E-05,0,0,0.00862881311360449
-2.21905520447763E-05,1.45694848470157E-05,0,0,0.00862881311360449
-2.04952084459364E-05,1.27425937535008E-05,0,0,0.00862881311360449
-2.14405918086413E-05,1.31053175209672E-05,0,0,0.00862881311360449
-2.1909583665547E-05,1.22616656881291E-05,0,0,0.00862881311360449
-2.44869315793039E-05,1.06319821497891E-05,0,0,0.00862881311360449
-2.34072922467021E-05,8.68826464284211E-06,0,0,0.00862881311360449
-2.24040468310704E-05,1.06882798718289E-05,0,0,0.00862881311360449
-2.03485269594239E-05,1.23303188956925E-05,0,0,0.00862881311360449
-2.12610666494584E-05,1.2380920452415E-05,0,0,0.00862881311360449
-2.14725660043769E-05,1.00507968454622E-05,0,0,0.00862881311360449
-2.23798433580669E-05,7.66383527661674E-06,0,0,0.00862881311360449
-2.16306307265768E-05,6.4975570239767E-06,0,0,0.00862881311360449
-2.17019769479521E-05,8.98849248187616E-06,0,0,0.00862881311360449
-2.23379684030078E-05,1.05541703305789E-05,0,0,0.00862881311360449
-2.33177179325139E-05,8.63951845531119E-06,0,0,0.00862881311360449
-2.09752943192143E-05,6.13768634138978E-06,0,0,0.00862881311360449
-3.12377560476307E-05,9.74940030573634E-06,0,0,0.00862881311360449
-2.45709707087372E-05,7.66809262131574E-06,0,0,0.00862881311360449
-2.95306836051168E-05,7.84533858677605E-06,0,0,0.00862881311360449
-2.52814497798681E-05,5.99164741288405E-06,0,0,0.00862881311360449
-2.75341080850922E-05,7.02386978446157E-06,0,0,0.00862881311360449
-2.6066685677506E-05,8.13120641396381E-06,0,0,0.00862881311360449
-2.70522468781564E-05,9.96883954940131E-06,0,0,0.00862881311360449
-2.52893551078159E-05,1.05159770100727E-05,0,0,0.00862881311360449
-2.44604379986413E-05,9.79702872427879E-06,0,0,0.00862881311360449
-2.52766985795461E-05,9.60935722105205E-06,0,0,0.00862881311360449
-2.57465271715773E-05,1.00111165011185E-05,0,0,0.00862881311360449
-2.69626798399258E-05,1.00242214102764E-05,0,0,0.00862881311360449
-2.5951942006941E-05,9.74198701442219E-06,0,0,0.00862881311360449
-2.71411026915303E-05,1.09421398519771E-05,0,0,0.00862881311360449
-2.67832783720223E-05,1.11101589936879E-05,0,0,0.00862881311360449
-2.86341637547594E-05,9.76852606981993E-06,0,0,0.00862881311360449
-2.81978864222765E-05,7.83538325777045E-06,0,0,0.00862881311360449
-2.90658717858605E-05,8.67294056661194E-06,0,0,0.00862881311360449
-2.78726347460179E-05,1.09696629806422E-05,0,0,0.00862881311360449
-2.79735031654127E-05,1.28120200315607E-05,0,0,0.00862881311360449
-2.63627716776682E-05,1.05225399238407E-05,0,0,0.00862881311360449
-2.61207715084311E-05,6.19211459707003E-06,0,0,0.00862881311360449
-2.58845884673065E-05,4.47162483396824E-06,0,0,0.00862881311360449
-2.54677870543674E-05,6.37766652289429E-06,0,0,0.00862881311360449
-2.40033805312123E-05,9.59992576099467E-06,0,0,0.00862881311360449
-2.3360968043562E-05,1.16257979243528E-05,0,0,0.00862881311360449
-1.82561452675145E-05,7.75161788624246E-06,0,0,0.00862881311360449
-2.53930757025955E-05,9.1991960289306E-06,0,0,0.00862881311360449
-1.90113532880787E-05,7.24272240404389E-06,0,0,0.00862881311360449
-2.43548056459986E-05,1.30704911498469E-05,0,0,0.00862881311360449
-2.12277082027867E-05,1.2362674169708E-05,0,0,0.00862881311360449
-2.44986404140946E-05,1.45862504723482E-05,0,0,0.00862881311360449
-2.22437411139254E-05,1.60961935762316E-05,0,0,0.00862881311360449
-2.27943874051562E-05,1.85042281373171E-05,0,0,0.00862881311360449
-2.22156922973227E-05,1.66993977472885E-05,0,0,0.00862881311360449
-2.24120303755626E-05,1.29972222566721E-05,0,0,0.00862881311360449
-2.25772491830867E-05,1.09642660390818E-05,0,0,0.00862881311360449
-2.11944807233522E-05,1.08274771264405E-05,0,0,0.00862881311360449
-2.18254353967495E-05,1.09405709736166E-05,0,0,0.00862881311360449
-2.15855889109662E-05,9.66574589256197E-06,0,0,0.00862881311360449
-2.30915939027909E-05,1.08753702079412E-05,0,0,0.00862881311360449
-2.18185286939843E-05,1.2001849427179E-05,0,0,0.00862881311360449
-2.21444443013752E-05,1.34822284962866E-05,0,0,0.00862881311360449
-2.0172432414256E-05,1.21904149636975E-05,0,0,0.00862881311360449
-1.96321470866678E-05,1.05917579276138E-05,0,0,0.00862881311360449
-1.76558551174821E-05,1.02428311947733E-05,0,0,0.00862881311360449
-1.82773164851824E-05,1.28643969219411E-05,0,0,0.00862881311360449
-1.88732228707522E-05,1.25503665913129E-05,0,0,0.00862881311360449
-2.01194088731427E-05,1.05872550193453E-05,0,0,0.00862881311360449
-1.92639727174537E-05,9.2735272119171E-06,0,0,0.00862881311360449
-1.87207788258092E-05,9.53722246777033E-06,0,0,0.00862881311360449
-1.93440664588707E-05,9.7558404377196E-06,0,0,0.00862881311360449
-2.11688857234549E-05,7.62099080020562E-06,0,0,0.00862881311360449
-1.86569250217872E-05,3.69193367077969E-06,0,0,0.00862881311360449
-2.61115237663034E-05,4.94702953801607E-06,0,0,0.00862881311360449
-1.88802659977227E-05,3.61405864168773E-06,0,0,0.00862881311360449
-2.39277214859612E-05,4.15899648942286E-06,0,0,0.00862881311360449
-2.11973001569277E-05,3.11652274831431E-06,0,0,0.00862881311360449
-2.39190267166123E-05,4.82052155348356E-06,0,0,0.00862881311360449
-2.17732886085287E-05,5.07606455357745E-06,0,0,0.00862881311360449
-2.28228636842687E-05,4.42057671534712E-06,0,0,0.00862881311360449
-2.19599714910146E-05,3.6975177408749E-06,0,0,0.00862881311360449
-2.11047154152766E-05,4.51841833637445E-06,0,0,0.00862881311360449
-2.00480553758098E-05,7.01390490576159E-06,0,0,0.00862881311360449
-1.89647580555175E-05,8.53798610478407E-06,0,0,0.00862881311360449
-1.98809102585074E-05,6.94371874487842E-06,0,0,0.00862881311360449
-1.92983970919158E-05,4.93355491926195E-06,0,0,0.00862881311360449
-2.15319450944662E-05,6.53415963824955E-06,0,0,0.00862881311360449
-2.28733060794184E-05,8.53227811603574E-06,0,0,0.00862881311360449
-2.49773020186694E-05,9.35236403165618E-06,0,0,0.00862881311360449
-2.32889324252028E-05,9.32274724618765E-06,0,0,0.00862881311360449
-2.39545552176423E-05,1.04169967016787E-05,0,0,0.00862881311360449
-2.42025689658476E-05,1.19707119665691E-05,0,0,0.00862881311360449
-2.66318420472089E-05,1.38747182063526E-05,0,0,0.00862881311360449
-2.75237325695343E-05,1.37049892146024E-05,0,0,0.00862881311360449
-2.74623471341329E-05,1.20687545859255E-05,0,0,0.00862881311360449
-2.64043446804862E-05,9.44494695431786E-06,0,0,0.00862881311360449
-2.72129163931822E-05,8.59206738823559E-06,0,0,0.00862881311360449
-2.69557913270546E-05,1.04997106973315E-05,0,0,0.00862881311360449
-2.55466638918733E-05,1.21221974040964E-05,0,0,0.00862881311360449
-2.04357147595147E-05,1.07385740193422E-05,0,0,0.00862881311360449
-2.87490966002224E-05,1.5040402104205E-05,0,0,0.00862881311360449
-2.16312837437727E-05,1.08761187220807E-05,0,0,0.00862881311360449
-2.6789470211952E-05,1.40145020850468E-05,0,0,0.00862881311360449
-2.1614521756419E-05,1.2063559552189E-05,0,0,0.00862881311360449
-2.33513565035537E-05,1.4310182450572E-05,0,0,0.00862881311360449
-2.00384620256955E-05,1.41282671393128E-05,0,0,0.00862881311360449
-2.02538412850117E-05,1.38639643409988E-05,0,0,0.00862881311360449
-2.12500835914398E-05,1.22873680084012E-05,0,0,0.00862881311360449
-2.46178224188043E-05,1.27742796394159E-05,0,0,0.00862881311360449
-2.64777991105802E-05,1.41419604915427E-05,0,0,0.00862881311360449
-2.43096983467694E-05,1.38726154546021E-05,0,0,0.00862881311360449
-2.27915406867396E-05,1.37383676701575E-05,0,0,0.00862881311360449
-2.16423177334946E-05,1.23590671137208E-05,0,0,0.00862881311360449
-2.50427365244832E-05,1.12973839350161E-05,0,0,0.00862881311360449
-2.58672916970681E-05,7.76232263888232E-06,0,0,0.00862881311360449
-2.69204101641662E-05,6.24771564616822E-06,0,0,0.00862881311360449
-2.48003671003971E-05,6.39959034742787E-06,0,0,0.00862881311360449
-2.4671131541254E-05,9.34553554543527E-06,0,0,0.00862881311360449
-2.34316012210911E-05,9.88833471637918E-06,0,0,0.00862881311360449
-2.47558291448513E-05,8.8018832684611E-06,0,0,0.00862881311360449
-2.48428441409487E-05,7.08399602444842E-06,0,0,0.00862881311360449
-2.59773278230568E-05,6.87185774950194E-06,0,0,0.00862881311360449
-2.64100035565207E-05,7.06085893398267E-06,0,0,0.00862881311360449
-2.63046022155322E-05,6.91370178174111E-06,0,0,0.00862881311360449
-2.51471301453421E-05,6.0064753597544E-06,0,0,0.00862881311360449
-2.44097009272082E-05,6.63928449284867E-06,0,0,0.00862881311360449
-1.96226519619813E-05,7.09359346728888E-06,0,0,0.00862881311360449
-2.82432665699162E-05,9.91618708212627E-06,0,0,0.00862881311360449
-2.30935329454951E-05,7.36780384613667E-06,0,0,0.00862881311360449
-3.0334329494508E-05,9.92077821138082E-06,0,0,0.00862881311360449
-2.70986420218833E-05,1.1131610335724E-05,0,0,0.00862881311360449
-2.86921767838066E-05,1.50139803736238E-05,0,0,0.00862881311360449
-2.574502468633E-05,1.48487870319514E-05,0,0,0.00862881311360449
-2.63904639723478E-05,1.52158218043041E-05,0,0,0.00862881311360449
-2.5864428607747E-05,1.41516120493179E-05,0,0,0.00862881311360449
-2.65335365838837E-05,1.12453135443502E-05,0,0,0.00862881311360449
-2.62896119238576E-05,9.47658190852962E-06,0,0,0.00862881311360449
-2.45738519879524E-05,1.01161404018058E-05,0,0,0.00862881311360449
-2.38748689298518E-05,1.29498375827097E-05,0,0,0.00862881311360449
-2.14619376492919E-05,1.30100088426843E-05,0,0,0.00862881311360449
-2.24901541514555E-05,1.11005410872167E-05,0,0,0.00862881311360449
-2.19629400817212E-05,8.41663859318942E-06,0,0,0.00862881311360449
-2.24430659727659E-05,9.4817514764145E-06,0,0,0.00862881311360449
-2.0726442016894E-05,1.15875518531539E-05,0,0,0.00862881311360449
-2.22556209337199E-05,1.25965379993431E-05,0,0,0.00862881311360449
-2.20554520637961E-05,1.18097314043553E-05,0,0,0.00862881311360449
-2.27445852942765E-05,1.2002291441604E-05,0,0,0.00862881311360449
-2.23428396566305E-05,1.19458172775921E-05,0,0,0.00862881311360449
-2.27517721214099E-05,1.25069273053668E-05,0,0,0.00862881311360449
-2.15630479942774E-05,1.29727604871732E-05,0,0,0.00862881311360449
-2.1430894776131E-05,1.25389024105971E-05,0,0,0.00862881311360449
-2.18832883547293E-05,1.10734654299449E-05,0,0,0.00862881311360449
-2.20298061321955E-05,1.04632645161473E-05,0,0,0.00862881311360449
-1.75803816091502E-05,1.04867758636829E-05,0,0,0.00862881311360449
-2.56041257671313E-05,1.77901802089764E-05,0,0,0.00862881311360449
-2.0122975911363E-05,1.8849539628718E-05,0,0,0.00862881311360449
-2.42405203607632E-05,2.31822596106213E-05,0,0,0.00862881311360449
-2.04192183446139E-05,1.97551744349767E-05,0,0,0.00862881311360449
-2.27426644414663E-05,1.84968030225718E-05,0,0,0.00862881311360449
-2.13909861486172E-05,1.40741121867904E-05,0,0,0.00862881311360449
-2.35670468100579E-05,1.13740497909021E-05,0,0,0.00862881311360449
-2.43445956584765E-05,1.01501400422421E-05,0,0,0.00862881311360449
-2.4615743313916E-05,1.03995298559312E-05,0,0,0.00862881311360449
-2.28670869546477E-05,1.08657841337845E-05,0,0,0.00862881311360449
-2.03768395294901E-05,1.10631517600268E-05,0,0,0.00862881311360449
-2.17962406168226E-05,1.18043635666254E-05,0,0,0.00862881311360449
