biceps_emg, triceps_emg, subject_position, position_estimate, brace_position
4.50038714916445E-06,-2.02879655262223E-05,0.87890625,0,0
3.76193270312797E-06,-1.95697539311368E-05,0.87890625,0,0
3.4826630326279E-06,-1.7568787370692E-05,0.87890625,0,0
4.27367149313795E-06,-2.00469130504644E-05,0.87890625,0,0
5.23894732396002E-06,-2.21706650336273E-05,0.87890625,0,0
5.91934531257721E-06,-2.3187374608824E-05,0.87890625,0,0
5.70688553125365E-06,-2.10927282751072E-05,0.87890625,0,0
6.04290380579187E-06,-2.05949636438163E-05,0.87890625,0,0
7.21655533197918E-06,-1.91118106158683E-05,0.87890625,0,0
8.99462793313432E-06,-1.90746814041631E-05,0.87890625,0,0
1.06446614154265E-05,-1.76150988409063E-05,0.87890625,0,0
1.13877458716161E-05,-1.70360945048742E-05,0.87890625,0,0
1.00252027550596E-05,-1.57461290655192E-05,0.87890625,0,0
8.10704750620062E-06,-1.55978486873209E-05,0.87890625,0,0
7.8780412877677E-06,-1.45099438668694E-05,0.87890625,0,0
9.37883305596188E-06,-1.36879198180395E-05,0.87890625,0,0
1.11184572233469E-05,-1.34864321807981E-05,0.87890625,0,0
1.13437718027853E-05,-1.27603479995742E-05,0.87890625,0,0
6.52590824756771E-06,-1.03701204352546E-05,0.87890625,0,0
6.80031780575519E-06,-1.53408946061973E-05,0.87890625,0,0
2.68293774752237E-06,-1.26936702145031E-05,0.87890625,0,0
6.30272643320495E-06,-1.66470326803392E-05,0.87890625,0,0
5.82647771807387E-06,-1.59656319738133E-05,0.87890625,0,0
6.18624426351744E-06,-1.72943582583684E-05,0.87890625,0,0
3.19260789183318E-06,-1.69694321812131E-05,0.87890625,0,0
1.72045736235305E-06,-1.90083683264675E-05,0.87890625,0,0
2.0171403321001E-06,-2.0021601812914E-05,0.87890625,0,0
2.98225131700747E-06,-2.08366927836323E-05,0.87890625,0,0
2.65699463852798E-06,-2.03085019165883E-05,0.87890625,0,0
8.10167932741024E-07,-1.84509954124223E-05,0.87890625,0,0
-2.42398840555325E-07,-1.85518911166582E-05,0.87890625,0,0
2.12618616046711E-07,-2.01261900656391E-05,0.87890625,0,0
2.8626141101995E-06,-2.40696754190139E-05,0.87890625,0,0
2.95654263027245E-06,-2.67608465946978E-05,0.87890625,0,0
8.08737240731716E-07,-2.88692463072948E-05,0.87890625,0,0
-2.09305153475725E-06,-2.77224207820836E-05,0.87890625,0,0
-1.45062176670763E-06,-2.68342519120779E-05,0.87890625,0,0
6.64421293095074E-07,-2.58043492067372E-05,0.87890625,0,0
2.25866369873984E-06,-2.41384259425104E-05,0.87890625,0,0
8.07751234788157E-07,-2.01279817702016E-05,0.87890625,0,0
4.43916661652111E-07,-1.86089946510037E-05,0.87890625,0,0
2.11738665711891E-06,-1.77889032784151E-05,0.87890625,0,0
4.54834571428364E-06,-1.65599394676974E-05,0.87890625,0,0
5.24909091836889E-06,-1.70167277246946E-05,0.87890625,0,0
4.40995836470393E-06,-1.76321118487976E-05,0.87890625,0,0
3.55024349119049E-06,-1.33455923787551E-05,0.87890625,0,0
5.15203237227979E-06,-1.89616912393831E-05,0.87890625,0,0
4.54280279882369E-06,-1.45828889799304E-05,0.87890625,0,0
6.51681284580263E-06,-1.75702589331195E-05,0.87890625,0,0
6.2800486375636E-06,-1.37048828037223E-05,0.87890625,0,0
5.81518770559342E-06,-1.57194190251175E-05,0.87890625,0,0
5.41565941603039E-06,-1.53891069203382E-05,0.87890625,0,0
7.27368978914456E-06,-1.69133309100289E-05,0.87890625,0,0
7.90539706940763E-06,-1.60134186444338E-05,0.87890625,0,0
7.5661696428142E-06,-1.49521092680516E-05,0.87890625,0,0
7.52656615077285E-06,-1.52097209138446E-05,0.87890625,0,0
6.83268535794923E-06,-1.62557753355941E-05,0.87890625,0,0
6.05439481660142E-06,-1.81045288627502E-05,0.87890625,0,0
6.18726835455163E-06,-1.7388811102137E-05,0.87890625,0,0
7.58782698540017E-06,-1.71090960066067E-05,0.87890625,0,0
8.17450199974701E-06,-1.56479291035794E-05,0.87890625,0,0
8.43702218844555E-06,-1.7508544260636E-05,0.87890625,0,0
7.83528321335325E-06,-1.87649311556015E-05,0.87890625,0,0
7.26730831956957E-06,-2.1647787434631E-05,0.87890625,0,0
6.46244143354124E-06,-2.36425294133369E-05,0.87890625,0,0
5.87694967180141E-06,-2.50145767495269E-05,0.87890625,0,0
6.53242614134797E-06,-2.3088019588613E-05,0.87890625,0,0
9.07156663743081E-06,-2.11615697480738E-05,0.87890625,0,0
9.20706861506915E-06,-1.95858447114006E-05,0.87890625,0,0
7.86302734923083E-06,-1.9296838217997E-05,0.87890625,0,0
7.02618217474082E-06,-2.03409617824946E-05,0.87890625,0,0
7.35378853278235E-06,-2.16017706407001E-05,0.87890625,0,0
6.11507903158781E-06,-1.53730597958202E-05,0.87890625,0,0
7.14152156433556E-06,-2.03036306629656E-05,0.87890625,0,0
3.44983413924638E-06,-1.62574669957394E-05,0.87890625,0,0
5.03201135870768E-06,-2.21584105020156E-05,0.87890625,0,0
3.58847069037438E-06,-1.67654252436478E-05,0.87890625,0,0
4.62846037407871E-06,-1.86819579539588E-05,0.87890625,0,0
4.12493955082027E-06,-1.73895132320467E-05,0.87890625,0,0
5.12216229253681E-06,-1.88076865015319E-05,0.87890625,0,0
5.06998094351729E-06,-1.76445537363179E-05,0.87890625,0,0
4.35081165051088E-06,-1.608171260159E-05,0.87890625,0,0
3.74802675651154E-06,-1.44219366120524E-05,0.87890625,0,0
3.64800894203654E-06,-1.24224497994874E-05,0.87890625,0,0
4.11318160331575E-06,-1.2132912161178E-05,0.87890625,0,0
2.4749965632509E-06,-1.08324520624592E-05,0.87890625,0,0
3.11809998265744E-07,-1.23163081298117E-05,0.87890625,0,0
-1.87263117368275E-06,-1.21299799502594E-05,0.87890625,0,0
-2.09195513889426E-06,-1.42467415571446E-05,0.87890625,0,0
-2.22751395995147E-06,-1.45029725899803E-05,0.87890625,0,0
-1.48584194903378E-06,-1.55755715240957E-05,0.87890625,0,0
-1.61359298544994E-06,-1.51373551489087E-05,0.87890625,0,0
-1.48288268064789E-06,-1.61575226229616E-05,0.87890625,0,0
-2.48988226303482E-06,-1.40687707244069E-05,0.87890625,0,0
-2.44174952968024E-06,-1.17666240839753E-05,0.87890625,0,0
-2.00547810891294E-06,-9.92671357380459E-06,0.87890625,0,0
-2.56197836279171E-06,-1.14002368718502E-05,0.87890625,0,0
-3.0346297990036E-06,-1.55095403897576E-05,0.87890625,0,0
-2.27934287977405E-06,-2.04246607609093E-05,0.87890625,0,0
-9.28857730286836E-07,-2.02899373107357E-05,0.87890625,0,0
-1.116566068049E-06,-2.8958604161744E-05,0.87890625,0,0
-6.25591610514675E-07,-2.02774008357665E-05,0.87890625,0,0
-8.88587749159342E-07,-2.27203727263259E-05,0.87890625,0,0
7.61135197535623E-07,-1.81940176844364E-05,0.87890625,0,0
2.13342218557955E-06,-2.23546467168489E-05,0.87890625,0,0
2.68196936303866E-06,-2.12829854717711E-05,0.87890625,0,0
2.15191107599821E-06,-2.14408864849247E-05,0.87890625,0,0
5.59368686481321E-07,-1.96871133084642E-05,0.87890625,0,0
-6.82019447140192E-07,-1.98717516468605E-05,0.87890625,0,0
-2.92456491024495E-07,-1.99527694348944E-05,0.87890625,0,0
9.64666284630766E-08,-1.81810264621163E-05,0.87890625,0,0
-6.24732422238594E-07,-1.82511903403793E-05,0.87890625,0,0
-1.6053620583989E-06,-1.75590739672771E-05,0.87890625,0,0
-2.22835933527676E-06,-1.91962299140869E-05,0.87890625,0,0
-2.48503943112155E-06,-1.87803143489873E-05,0.87890625,0,0
-2.55069858212664E-06,-2.06913991860347E-05,0.87890625,0,0
-2.4854889488779E-06,-1.96905330085428E-05,0.87890625,0,0
-2.63959736912511E-06,-1.91339440789307E-05,0.87890625,0,0
-2.88084652311227E-06,-1.61092157213716E-05,0.87890625,0,0
-3.09996948999469E-06,-1.45415206134203E-05,0.87890625,0,0
-2.53767029789742E-06,-1.28772489915718E-05,0.87890625,0,0
-1.81489747319574E-06,-1.38230770971859E-05,0.87890625,0,0
-1.96314590539259E-06,-1.37726283355732E-05,0.87890625,0,0
-2.34115645980637E-06,-1.40106503749848E-05,0.87890625,0,0
-4.73375251885955E-07,-1.38242503453512E-05,0.87890625,0,0
2.30908813136921E-06,-1.47117543747299E-05,0.87890625,0,0
2.30409523283015E-06,-1.3098514500598E-05,0.87890625,0,0
2.90627758658957E-06,-1.86803881661035E-05,0.87890625,0,0
2.4295870844071E-06,-1.32389932332444E-05,0.87890625,0,0
4.77346065963502E-06,-1.37411525429343E-05,0.87890625,0,0
4.98972030982259E-06,-8.30527915240964E-06,0.87890625,0,0
4.86211820316385E-06,-1.0713759365899E-05,0.87890625,0,0
3.55975885213411E-06,-1.18946709335432E-05,0.87890625,0,0
2.25354915528442E-06,-1.25455426314147E-05,0.87890625,0,0
1.91370691027259E-06,-1.16008586701355E-05,0.87890625,0,0
2.77365256806661E-06,-1.05405188151053E-05,0.87890625,0,0
2.69762449534028E-06,-8.43814723339165E-06,0.87890625,0,0
1.38737618726736E-06,-5.83424707656377E-06,0.87890625,0,0
9.51060712850449E-07,-6.14160671830177E-06,0.87890625,0,0
1.61125944941887E-06,-7.77611239755061E-06,0.87890625,0,0
2.9921545774414E-06,-1.04934833871084E-05,0.87890625,0,0
4.07363950216677E-06,-1.08172589534661E-05,0.87890625,0,0
4.80964945381857E-06,-1.19392916531069E-05,0.87890625,0,0
4.45234809376416E-06,-1.18593143270118E-05,0.87890625,0,0
3.68500263903115E-06,-1.38710547616938E-05,0.87890625,0,0
3.19800869874598E-06,-1.59132323460653E-05,0.87890625,0,0
3.41448594554095E-06,-1.98006619029911E-05,0.87890625,0,0
2.83373606180248E-06,-2.19588855543407E-05,0.87890625,0,0
2.67276618615142E-06,-2.2847949367133E-05,0.87890625,0,0
3.41926397595671E-06,-2.18660261452897E-05,0.87890625,0,0
3.78373010789801E-06,-2.22932176257018E-05,0.87890625,0,0
3.81993822884397E-06,-2.42463847826002E-05,0.87890625,0,0
4.48248511020211E-06,-2.46930194407469E-05,0.87890625,0,0
3.81105087399192E-06,-1.76725807250477E-05,0.87890625,0,0
5.814356427436E-06,-2.32125621550949E-05,0.87890625,0,0
3.68820883522858E-06,-1.56490223162109E-05,0.87890625,0,0
3.35405161422386E-06,-2.05826818273636E-05,0.87890625,0,0
5.02565035276348E-06,-1.79955841304036E-05,0.87890625,0,0
9.59456428972771E-06,-2.21657373913331E-05,0.87890625,0,0
1.15250159069546E-05,-1.96592172869714E-05,0.87890625,0,0
1.19925971375778E-05,-1.98776979232207E-05,0.87890625,0,0
1.04997607195401E-05,-1.78439004230313E-05,0.87890625,0,0
9.42141832638299E-06,-1.66827321663732E-05,0.87890625,0,0
9.52003665588563E-06,-1.50665446199127E-05,0.87890625,0,0
1.01914138213033E-05,-1.37363031171844E-05,0.87890625,0,0
1.02663880170439E-05,-1.56367095769383E-05,0.87890625,0,0
9.29281122807879E-06,-1.59043574967654E-05,0.87890625,0,0
9.79307787929429E-06,-1.67698544828454E-05,0.87890625,0,0
1.08714948510169E-05,-1.4958518477215E-05,0.87890625,0,0
1.0716348697315E-05,-1.59735936904326E-05,0.87890625,0,0
8.69675386638846E-06,-1.51995673149941E-05,0.87890625,0,0
7.41828580430592E-06,-1.60097060870612E-05,0.87890625,0,0
6.66184769215761E-06,-1.4907110198692E-05,0.87890625,0,0
7.37889649826684E-06,-1.58469156303909E-05,0.87890625,0,0
7.9534011092619E-06,-1.56830901687499E-05,0.87890625,0,0
8.04344199423213E-06,-1.73651314980816E-05,0.87890625,0,0
8.20754939923063E-06,-1.88923077075742E-05,0.87890625,0,0
7.82558618084295E-06,-2.11320930247894E-05,0.87890625,0,0
5.54941561858868E-06,-2.29433444474125E-05,0.87890625,0,0
4.17588353229803E-06,-2.37454241869273E-05,0.87890625,0,0
3.67819529856206E-06,-1.89401489478769E-05,0.87890625,0,0
6.27493773208698E-06,-2.67507602984551E-05,0.87890625,0,0
6.52328162686899E-06,-1.9820503439405E-05,0.87890625,0,0
8.39144558995031E-06,-2.30180830840254E-05,0.87890625,0,0
8.23448044684483E-06,-1.73381813510787E-05,0.87890625,0,0
8.07915239420254E-06,-1.93110063264612E-05,0.87890625,0,0
6.91947434461326E-06,-1.72816926351516E-05,0.87890625,0,0
6.1563682720589E-06,-1.76694393303478E-05,0.87890625,0,0
4.74850139653427E-06,-1.57774229592178E-05,0.87890625,0,0
3.99932605432696E-06,-1.61215466505382E-05,0.87890625,0,0
3.78811387236055E-06,-1.74733650055714E-05,0.87890625,0,0
3.98551310354378E-06,-1.75223904079758E-05,0.87890625,0,0
4.41376232629409E-06,-1.81030009116512E-05,0.87890625,0,0
4.37960216004285E-06,-1.69251270563109E-05,0.87890625,0,0
4.45772275270429E-06,-1.86789584404323E-05,0.87890625,0,0
4.20514288634877E-06,-1.8219785488327E-05,0.87890625,0,0
4.02236446461757E-06,-1.8357170119998E-05,0.87890625,0,0
3.34931223733292E-06,-1.56227361003403E-05,0.87890625,0,0
3.9372480387101E-06,-1.48028138937661E-05,0.87890625,0,0
4.80165545013733E-06,-1.18106163427001E-05,0.87890625,0,0
5.22816026204964E-06,-1.19691876534489E-05,0.87890625,0,0
4.63912692794111E-06,-1.30575699586188E-05,0.87890625,0,0
3.88301350540132E-06,-1.40397887662402E-05,0.87890625,0,0
2.94724645755196E-06,-1.34762667585164E-05,0.87890625,0,0
2.48486594500719E-06,-1.43509923873353E-05,0.87890625,0,0
1.28343833694089E-06,-1.46537304317462E-05,0.87890625,0,0
-1.29948557514581E-06,-1.40759448186145E-05,0.87890625,0,0
-2.29153511099867E-06,-1.12016587081598E-05,0.87890625,0,0
-1.86568456683744E-06,-1.8725366317085E-05,0.87890625,0,0
1.13227997644572E-06,-2.03763847821392E-05,0.87890625,0,0
-1.05218032331322E-06,-2.61761797446525E-05,0.87890625,0,0
-3.47816740031703E-06,-2.49419372266857E-05,0.87890625,0,0
-3.58747388418124E-06,-2.60235010500764E-05,0.87890625,0,0
-1.20462073027738E-06,-2.320571547898E-05,0.87890625,0,0
-6.85656544874291E-08,-2.13380026252707E-05,0.87890625,0,0
1.67099628356482E-07,-1.8801611076924E-05,0.87890625,0,0
1.87061402812105E-07,-1.86333218152868E-05,0.87890625,0,0
3.06678799688598E-07,-1.9120048818877E-05,0.87890625,0,0
5.55253848233406E-07,-1.71252049767645E-05,0.87890625,0,0
4.4734167659044E-07,-1.49264515130199E-05,0.87890625,0,0
1.12859788714559E-06,-1.34685533339507E-05,0.87890625,0,0
2.16649959838833E-06,-1.45453432196518E-05,0.87890625,0,0
2.65664357357309E-06,-1.41556502057938E-05,0.87890625,0,0
1.9393712591409E-06,-1.35407908601337E-05,0.87890625,0,0
2.22352628043154E-06,-1.13968308141921E-05,0.87890625,0,0
3.91842058888869E-06,-1.1648721738311E-05,0.87890625,0,0
5.16289537699777E-06,-1.21565690278658E-05,0.87890625,0,0
4.50943252872094E-06,-1.42139879244496E-05,0.87890625,0,0
3.20569029099715E-06,-1.4839382856735E-05,0.87890625,0,0
2.15767249756027E-06,-1.43450297400705E-05,0.87890625,0,0
1.75868729002104E-06,-1.26756576719345E-05,0.87890625,0,0
3.17124477078323E-06,-1.27156217786251E-05,0.87890625,0,0
4.31931312050438E-06,-1.48781346069882E-05,0.87890625,0,0
2.62257071881322E-06,-1.79466514964588E-05,0.87890625,0,0
1.34088691083889E-06,-1.59182291099569E-05,0.87890625,0,0
1.29761428979691E-06,-2.34416202147258E-05,0.87890625,0,0
7.54696941385191E-07,-1.80104507307988E-05,0.87890625,0,0
3.06081074086251E-06,-1.9636641809484E-05,0.87890625,0,0
4.52986569143832E-06,-1.44836531035253E-05,0.87890625,0,0
4.18232002630248E-06,-1.7053740521078E-05,0.87890625,0,0
2.54487031270401E-06,-1.61068110173801E-05,0.87890625,0,0
1.92549055100244E-06,-1.77370111487107E-05,0.87890625,0,0
5.48114485354745E-07,-1.6748703274061E-05,0.87890625,0,0
-1.10978710665677E-07,-1.59635092131794E-05,0.87890625,0,0
-1.37688260792856E-07,-1.75648183358135E-05,0.87890625,0,0
1.12282641850925E-07,-1.95000247913413E-05,0.87890625,0,0
5.65149832709722E-07,-2.14284755202243E-05,0.87890625,0,0
2.97026844009451E-07,-2.0737918021041E-05,0.87890625,0,0
3.99975839115996E-08,-2.21699137910036E-05,0.87890625,0,0
-3.90780542147695E-07,-2.25589028559625E-05,0.87890625,0,0
-2.26816311510447E-07,-2.3515891371062E-05,0.87890625,0,0
7.77452484612695E-08,-2.14394149224972E-05,0.87890625,0,0
1.28441843116889E-06,-2.17033120861743E-05,0.87890625,0,0
2.80346216641192E-06,-2.12333598028636E-05,0.87890625,0,0
4.22021184931509E-06,-2.01830171135953E-05,0.87890625,0,0
4.32413298767642E-06,-1.74738470377633E-05,0.87890625,0,0
3.35718573296617E-06,-1.75891727849375E-05,0.87890625,0,0
2.33857167586393E-06,-1.84848013304872E-05,0.87890625,0,0
1.13118051103811E-06,-1.92484840226825E-05,0.87890625,0,0
3.3855354786283E-07,-1.79136332008056E-05,0.87890625,0,0
3.00267993225134E-06,-1.46854226841242E-05,0.87890625,0,0
5.16641011927277E-06,-1.13303767648176E-05,0.87890625,0,0
6.96496545060654E-06,-1.91880735656014E-05,0.87890625,0,0
3.7618851820298E-06,-1.86227807716932E-05,0.87890625,0,0
4.64415234091575E-06,-2.05958676815499E-05,0.87890625,0,0
4.45019168182625E-06,-1.53639648488024E-05,0.87890625,0,0
5.34464606971596E-06,-1.20668382805889E-05,0.87890625,0,0
3.98028760173474E-06,-7.67134952184279E-06,0.87890625,0,0
4.21721006205189E-06,-7.0783166847832E-06,0.87890625,0,0
5.57523617317202E-06,-7.12897917765076E-06,0.87890625,0,0
5.82250595471123E-06,-9.00879513210384E-06,0.87890625,0,0
4.88593195768772E-06,-1.08646900116582E-05,0.87890625,0,0
4.09475342166843E-06,-1.14249878606643E-05,0.87890625,0,0
4.236297627358E-06,-1.37356146296952E-05,0.87890625,0,0
3.76303819393797E-06,-1.53661603690125E-05,0.87890625,0,0
4.01950546802254E-06,-1.72768432094017E-05,0.87890625,0,0
4.72590863864752E-06,-1.83711636054795E-05,0.87890625,0,0
6.66002915750141E-06,-2.12525956158061E-05,0.87890625,0,0
7.12179371475941E-06,-2.21259087993531E-05,0.87890625,0,0
6.33846184427966E-06,-2.28383960347855E-05,0.87890625,0,0
5.87874183111126E-06,-2.27369000640465E-05,0.87890625,0,0
6.75789033266483E-06,-2.27381988224806E-05,0.87890625,0,0
7.18888077244628E-06,-2.09482695936458E-05,0.87890625,0,0
7.90744616097072E-06,-1.87535060831578E-05,0.87890625,0,0
8.66538357513491E-06,-1.74092201632448E-05,0.87890625,0,0
9.33720639295643E-06,-1.88444810191868E-05,0.87890625,0,0
8.58620387589326E-06,-1.95469328900799E-05,0.87890625,0,0
7.03611021890538E-06,-1.73061107489048E-05,0.87890625,0,0
4.63234709968674E-06,-1.10253995444509E-05,0.87890625,0,0
6.70882263875683E-06,-1.42324297485175E-05,0.87890625,0,0
5.33317643203191E-06,-9.46180898608873E-06,0.87890625,0,0
5.72965700484929E-06,-1.35135005621123E-05,0.87890625,0,0
3.51986432178819E-06,-1.17239351311582E-05,0.87890625,0,0
3.85292605642462E-06,-1.31095630422351E-05,0.87890625,0,0
4.07965035265079E-06,-1.21874190881499E-05,0.87890625,0,0
5.60117996428744E-06,-1.34582087412127E-05,0.87890625,0,0
5.84283907301142E-06,-1.27472703752574E-05,0.87890625,0,0
5.85204861636157E-06,-1.24509351735469E-05,0.87890625,0,0
6.19752108832472E-06,-1.2563339623739E-05,0.87890625,0,0
6.05220202487544E-06,-1.20395316116628E-05,0.87890625,0,0
5.3687758736487E-06,-1.15183411253383E-05,0.87890625,0,0
4.3420254769444E-06,-9.79476772045018E-06,0.87890625,0,0
4.95357744512148E-06,-1.08155345515115E-05,0.87890625,0,0
5.62251670999103E-06,-1.19070591608761E-05,0.87890625,0,0
6.5039689616242E-06,-1.46837301144842E-05,0.87890625,0,0
6.11430914432276E-06,-1.55892357724952E-05,0.87890625,0,0
4.4238490772841E-06,-1.62346386787249E-05,0.87890625,0,0
1.1511311868162E-06,-1.51187459778157E-05,0.87890625,0,0
-3.0110236082237E-08,-1.62022370204795E-05,0.87890625,0,0
9.50688388456911E-07,-1.73546286532655E-05,0.87890625,0,0
3.12457586915116E-06,-1.81009145308053E-05,0.87890625,0,0
3.76939487978234E-06,-1.7142187061836E-05,0.87890625,0,0
3.87797626899555E-06,-1.58618422574364E-05,0.87890625,0,0
4.77286857858417E-06,-1.50355735968333E-05,0.87890625,0,0
4.78852552987519E-06,-1.60281651915284E-05,0.87890625,0,0
2.31433864428254E-06,-1.57960657816147E-05,0.87890625,0,0
2.7653888992063E-06,-2.25729800149566E-05,0.87890625,0,0
1.74095805505203E-06,-1.64228222274687E-05,0.87890625,0,0
2.76849027613935E-06,-1.9506564058247E-05,0.87890625,0,0
2.1796820419695E-06,-1.72402906173375E-05,0.87890625,0,0
1.71135150139889E-06,-2.19214725802885E-05,0.87890625,0,0
-2.92929740908221E-07,-2.26374522753758E-05,0.87890625,0,0
-3.54952959469301E-07,-2.36958803725429E-05,0.87890625,0,0
1.34339597934741E-06,-2.07849680009531E-05,0.87890625,0,0
1.37458744120522E-06,-1.72881918842904E-05,0.87890625,0,0
-1.17887020678609E-06,-1.44655377880554E-05,0.87890625,0,0
-2.36342043535842E-06,-1.1943966455874E-05,0.87890625,0,0
-2.18334065493764E-07,-1.34757128762431E-05,0.87890625,0,0
1.46714990023611E-06,-1.57278082042467E-05,0.87890625,0,0
1.7283992974626E-06,-1.81281957338797E-05,0.87890625,0,0
1.03703371223673E-06,-1.72818927239859E-05,0.87890625,0,0
2.54059273174789E-07,-1.78999925992684E-05,0.87890625,0,0
-1.14214606128371E-06,-1.64278499141801E-05,0.87890625,0,0
-1.5082122217791E-06,-1.68484020832693E-05,0.87890625,0,0
-8.06891023330536E-07,-1.72049549291842E-05,0.87890625,0,0
-2.26990962914897E-07,-1.9217208318878E-05,0.87890625,0,0
-8.09339496754546E-07,-1.93344149010954E-05,0.87890625,0,0
-1.50769437823328E-06,-1.97460467461497E-05,0.87890625,0,0
-1.93026130546059E-06,-1.94861950149061E-05,0.87890625,0,0
-1.38152870476915E-06,-1.8759839804261E-05,0.87890625,0,0
-7.15757266789296E-07,-1.55253237608122E-05,0.87890625,0,0
-1.08765391360066E-06,-1.17649215098936E-05,0.87890625,0,0
-6.67556946609693E-07,-9.96343987935688E-06,0.87890625,0,0
-5.86781993661134E-07,-1.56786627485417E-05,0.87890625,0,0
1.02116693767584E-07,-1.43491224662284E-05,0.87890625,0,0
1.38037890451415E-07,-1.77878155227518E-05,0.87890625,0,0
1.96724727175024E-06,-1.65861874847906E-05,0.87890625,0,0
3.98107567889383E-06,-1.72239706444088E-05,0.87890625,0,0
3.53965901922493E-06,-1.51895337694441E-05,0.87890625,0,0
1.96871155822009E-06,-1.54691242642002E-05,0.87890625,0,0
1.54460462908901E-06,-1.54056924657198E-05,0.87890625,0,0
2.29149304686871E-06,-1.64924676937517E-05,0.87890625,0,0
4.06355002269265E-06,-1.94438380276551E-05,0.87890625,0,0
4.91529453938711E-06,-2.15873951674439E-05,0.87890625,0,0
4.91410537506454E-06,-2.23712031584E-05,0.87890625,0,0
3.54271423930186E-06,-2.19691664824495E-05,0.87890625,0,0
1.86499744359025E-06,-2.27998825721443E-05,0.87890625,0,0
1.48648018694075E-06,-2.24691211769823E-05,0.87890625,0,0
1.91511367120256E-06,-2.2843667466077E-05,0.87890625,0,0
2.82404221252364E-06,-2.20650053961435E-05,0.87890625,0,0
3.49740344063321E-06,-2.26040956476936E-05,0.87890625,0,0
3.868687144859E-06,-2.17887209146284E-05,0.87890625,0,0
4.13782481700764E-06,-2.05147316592047E-05,0.87890625,0,0
4.51889627584023E-06,-1.88012218131917E-05,0.87890625,0,0
4.60570527138771E-06,-1.90924238268053E-05,0.87890625,0,0
3.87236059395946E-06,-1.97120953089325E-05,0.87890625,0,0
2.22462927013112E-06,-1.98546094907215E-05,0.87890625,0,0
2.03875333681935E-06,-1.95370812434703E-05,0.87890625,0,0
2.74351805273909E-06,-1.83601714525139E-05,0.87890625,0,0
3.53015798282286E-06,-1.32003315229667E-05,0.87890625,0,0
5.56608301849337E-06,-1.75933091668412E-05,0.87890625,0,0
4.7171256483125E-06,-1.27095563584589E-05,0.87890625,0,0
5.32455396751175E-06,-1.64100274560042E-05,0.87890625,0,0
3.74346859643993E-06,-1.3632240552397E-05,0.87890625,0,0
3.01879367725633E-06,-1.57641534315189E-05,0.87890625,0,0
2.1456817194121E-06,-1.34730698846397E-05,0.87890625,0,0
2.05183255275188E-06,-1.36931512315641E-05,0.87890625,0,0
1.99126770894509E-06,-1.27161420095945E-05,0.87890625,0,0
3.20699132316804E-06,-1.42152639455162E-05,0.87890625,0,0
4.71276234748075E-06,-1.70458042703103E-05,0.87890625,0,0
4.5725882955594E-06,-1.85415847226977E-05,0.87890625,0,0
3.48407297678932E-06,-1.94855820154771E-05,0.87890625,0,0
2.75122465609456E-06,-1.86533161468105E-05,0.87890625,0,0
3.16464843308495E-06,-1.97401586774504E-05,0.87890625,0,0
3.10549103232916E-06,-1.95157117559575E-05,0.87890625,0,0
3.60480362360249E-06,-2.06934892048594E-05,0.87890625,0,0
4.67678228233126E-06,-1.95345983229345E-05,0.87890625,0,0
6.28789302936639E-06,-2.00173890334554E-05,0.87890625,0,0
6.28489442533464E-06,-1.99431542569073E-05,0.87890625,0,0
5.1126885409758E-06,-2.18622371903621E-05,0.87890625,0,0
2.69857787316141E-06,-2.19285793718882E-05,0.87890625,0,0
4.01142045802771E-07,-2.1636897145072E-05,0.87890625,0,0
-2.04108033585726E-07,-2.03634299396072E-05,0.87890625,0,0
1.05180981790909E-06,-1.94520689547062E-05,0.87890625,0,0
1.72372324414027E-06,-1.96979781321716E-05,0.87890625,0,0
1.34101333060244E-06,-2.22434991883347E-05,0.87890625,0,0
1.50218340877473E-06,-2.08242272492498E-05,0.87890625,0,0
3.04440027321107E-06,-2.84269935946213E-05,0.87890625,0,0
2.58368299910217E-06,-1.81910945684649E-05,0.87890625,0,0
1.52565405642235E-06,-2.11965689231874E-05,0.87890625,0,0
2.30446843829668E-07,-1.76939884113381E-05,0.87890625,0,0
9.20036100637844E-08,-2.30825135076884E-05,0.87890625,0,0
1.58531258875882E-06,-2.39837499975692E-05,0.87890625,0,0
3.79457128474314E-06,-2.84899924736237E-05,0.87890625,0,0
4.66890287498245E-06,-2.88223473035032E-05,0.87890625,0,0
3.66739482160483E-06,-2.73806908808183E-05,0.87890625,0,0
2.21209893425112E-06,-2.5354624085594E-05,0.87890625,0,0
2.07766652238206E-06,-2.22074249904836E-05,0.87890625,0,0
3.29797649101238E-06,-2.06376262212871E-05,0.87890625,0,0
4.38768893218366E-06,-1.7573502191226E-05,0.87890625,0,0
5.17713806402753E-06,-1.62361975526437E-05,0.87890625,0,0
6.43490193397156E-06,-1.25916276374483E-05,0.87890625,0,0
7.92375612945762E-06,-1.33705152620678E-05,0.87890625,0,0
8.53106303111417E-06,-1.33218400151236E-05,0.87890625,0,0
8.11328663985478E-06,-1.41140899359016E-05,0.87890625,0,0
7.38158860258409E-06,-1.24550469990936E-05,0.87890625,0,0
6.94859318173258E-06,-1.4679009836982E-05,0.87890625,0,0
6.94909704179736E-06,-1.76735229615588E-05,0.87890625,0,0
7.16680733603425E-06,-2.15234922507079E-05,0.87890625,0,0
5.2588934522646E-06,-2.27001910388935E-05,0.87890625,0,0
3.04579839394137E-06,-2.16406406252645E-05,0.87890625,0,0
2.87437910628796E-06,-1.73556491063209E-05,0.87890625,0,0
3.28522628478822E-06,-1.44967871165136E-05,0.87890625,0,0
3.12348834086151E-06,-1.17467343443423E-05,0.87890625,0,0
3.80017036150093E-06,-1.76566554728197E-05,0.87890625,0,0
1.54634642512974E-06,-1.57660451804986E-05,0.87890625,0,0
1.91480330613558E-06,-2.20093879761407E-05,0.87890625,0,0
1.47701791775035E-06,-2.34657509281533E-05,0.87890625,0,0
2.40153417507827E-06,-2.60560082097072E-05,0.87890625,0,0
3.0965259156801E-06,-2.30413952522213E-05,0.87890625,0,0
3.94552853322239E-06,-2.06438653549412E-05,0.87890625,0,0
3.39953430739115E-06,-1.70365819940344E-05,0.87890625,0,0
3.09059714709292E-06,-1.36149719764944E-05,0.87890625,0,0
3.48491289514641E-06,-1.23669606182375E-05,0.87890625,0,0
3.33630009663466E-06,-1.21445555123501E-05,0.87890625,0,0
2.4477201350237E-06,-1.21333814604441E-05,0.87890625,0,0
1.70494695339585E-06,-1.06864663393935E-05,0.87890625,0,0
2.28984936256893E-06,-1.03460351965623E-05,0.87890625,0,0
3.44310774380574E-06,-8.78548871696694E-06,0.87890625,0,0
4.70880377179128E-06,-9.33840237848926E-06,0.87890625,0,0
4.27633540311945E-06,-9.37721415539272E-06,0.87890625,0,0
3.01019349535636E-06,-9.39553956413874E-06,0.87890625,0,0
1.50266487253248E-06,-7.85070824349532E-06,0.87890625,0,0
6.14670398135786E-07,-8.47400679049315E-06,0.87890625,0,0
-4.8596427859593E-07,-9.19711965252645E-06,0.87890625,0,0
-8.84625933395E-07,-1.06641427919385E-05,0.87890625,0,0
-9.55697373683506E-07,-1.18431125883944E-05,0.87890625,0,0
-8.36386391256383E-07,-1.42707813211018E-05,0.87890625,0,0
-2.59565268834194E-07,-1.77246856765123E-05,0.87890625,0,0
1.38487610001903E-06,-1.85790631803684E-05,0.87890625,0,0
1.64329833296506E-06,-1.3196695363149E-05,0.87890625,0,0
2.31269086725661E-06,-1.77297933987575E-05,0.87890625,0,0
2.15875115827657E-06,-1.23881900435663E-05,0.87890625,0,0
3.48888193002495E-06,-1.62982541951351E-05,0.87890625,0,0
3.22301661981328E-06,-1.3829115232511E-05,0.87890625,0,0
1.52732968672353E-06,-1.67525795404799E-05,0.87890625,0,0
-8.15705561763025E-07,-1.66621848620707E-05,0.87890625,0,0
-1.24052667160868E-06,-1.7666843632469E-05,0.87890625,0,0
-3.79264491812137E-07,-1.68509432114661E-05,0.87890625,0,0
1.56419025643117E-06,-1.71296433109092E-05,0.87890625,0,0
4.06297112931497E-06,-1.69210688909516E-05,0.87890625,0,0
5.3462022151507E-06,-1.4554778317688E-05,0.87890625,0,0
4.73739328299416E-06,-1.35517875605728E-05,0.87890625,0,0
3.44116642736481E-06,-1.36281350933132E-05,0.87890625,0,0
3.43182455253555E-06,-1.475861245126E-05,0.87890625,0,0
3.51541916643328E-06,-1.27867706396501E-05,0.87890625,0,0
3.14177714244579E-06,-1.24587322716252E-05,0.87890625,0,0
2.85847909253789E-06,-1.14736321847886E-05,0.87890625,0,0
3.86039755539969E-06,-1.21618550110725E-05,0.87890625,0,0
4.67977952212095E-06,-1.14623353510979E-05,0.87890625,0,0
5.15706005899119E-06,-1.20925787996384E-05,0.87890625,0,0
4.99805764775374E-06,-1.25427632156061E-05,0.87890625,0,0
4.00484896090347E-06,-1.27789917314658E-05,0.87890625,0,0
4.27670784119982E-06,-1.17796889753663E-05,0.87890625,0,0
6.91102650307585E-06,-1.20361783046974E-05,0.87890625,0,0
9.09701975615462E-06,-1.21191933430964E-05,0.87890625,0,0
1.00796924016322E-05,-1.17325889732456E-05,0.87890625,0,0
8.55535199661972E-06,-8.87389705894748E-06,0.87890625,0,0
1.18187954285531E-05,-1.34753618112882E-05,0.87890625,0,0
8.82449603523128E-06,-1.2717036952381E-05,0.87890625,0,0
1.15680541057372E-05,-1.60868676175596E-05,0.87890625,0,0
9.56355233938666E-06,-1.38419864015304E-05,0.87890625,0,0
1.04259233921766E-05,-1.31522665469674E-05,0.87890625,0,0
9.45850206335308E-06,-9.8180144050275E-06,0.87890625,0,0
1.03399743238697E-05,-1.02580843304168E-05,0.87890625,0,0
9.96766812022543E-06,-1.22315877888468E-05,0.87890625,0,0
9.49751574808033E-06,-1.54868976096623E-05,0.87890625,0,0
8.46363400341943E-06,-1.71147476066835E-05,0.87890625,0,0
6.87109468344715E-06,-1.54448225657688E-05,0.87890625,0,0
7.14230691301054E-06,-1.37197403091704E-05,0.87890625,0,0
7.21692231309135E-06,-1.3198766282585E-05,0.87890625,0,0
7.07780509401346E-06,-1.60798899742076E-05,0.87890625,0,0
4.8357246669184E-06,-1.8455632016412E-05,0.87890625,0,0
4.57607120551984E-06,-2.13909315789351E-05,0.87890625,0,0
5.19110835739411E-06,-2.25220410356997E-05,0.87890625,0,0
6.0165002651047E-06,-2.32964084716514E-05,0.87890625,0,0
4.86682165501406E-06,-2.25778148887912E-05,0.87890625,0,0
6.28920315648429E-06,-2.25201110879425E-05,0.87890625,0,0
8.35337232274469E-06,-2.16299213207094E-05,0.87890625,0,0
8.74306806508685E-06,-2.13731091207592E-05,0.87890625,0,0
6.44652573100757E-06,-2.18120876525063E-05,0.87890625,0,0
3.64456423085358E-06,-2.3100852558855E-05,0.87890625,0,0
2.71593967227091E-06,-2.32238071475877E-05,0.87890625,0,0
3.53837344846397E-06,-2.29440356633859E-05,0.87890625,0,0
2.06232630262093E-06,-1.94537533388939E-05,0.87890625,0,0
1.83119448138314E-06,-2.88711216853699E-05,0.87890625,0,0
7.1195685791281E-08,-2.39334294747096E-05,0.87890625,0,0
-2.55449634778415E-07,-2.87039365503006E-05,0.87890625,0,0
-1.39203575599822E-06,-2.30982477660291E-05,0.87890625,0,0
-3.08655529579482E-07,-2.50023877015337E-05,0.87890625,0,0
1.38307382258063E-06,-2.34235158131924E-05,0.87890625,0,0
3.45507760357577E-06,-2.55095274042105E-05,0.87890625,0,0
3.63897925126366E-06,-2.51913279498694E-05,0.87890625,0,0
2.22501626012672E-06,-2.38200191233773E-05,0.87890625,0,0
-6.80634926197854E-08,-2.09055779123446E-05,0.87890625,0,0
-1.88191540928528E-06,-1.79374783328967E-05,0.87890625,0,0
-2.30879390983318E-06,-1.79215294338064E-05,0.87890625,0,0
-1.47404318795452E-06,-1.6711994248908E-05,0.87890625,0,0
3.14177015070527E-07,-1.74577016878175E-05,0.87890625,0,0
1.5594775959471E-06,-1.50600981214666E-05,0.87890625,0,0
2.89981358037039E-06,-1.39890053105773E-05,0.87890625,0,0
3.01974569083541E-06,-1.27896873891586E-05,0.87890625,0,0
1.76344713054277E-06,-1.57071317516966E-05,0.87890625,0,0
-1.06337751049068E-07,-1.66143563546939E-05,0.87890625,0,0
-3.63659808044758E-07,-1.88501016964437E-05,0.87890625,0,0
2.25838988399119E-07,-1.93402302102186E-05,0.87890625,0,0
1.85681426501105E-06,-1.83608608494978E-05,0.87890625,0,0
3.70923612535989E-06,-1.56096102728043E-05,0.87890625,0,0
4.87552051708917E-06,-1.48439285112545E-05,0.87890625,0,0
4.13761699746829E-06,-1.54984008986503E-05,0.87890625,0,0
2.44621242018184E-06,-1.7443415345042E-05,0.87890625,0,0
1.5006776266091E-06,-1.54096214828314E-05,0.87890625,0,0
3.30999864672776E-06,-2.11831757042091E-05,0.87890625,0,0
2.96192683890695E-06,-1.53595792653505E-05,0.87890625,0,0
1.10057851543388E-06,-2.0374513042043E-05,0.87890625,0,0
-6.46696094008803E-07,-1.8495262338547E-05,0.87890625,0,0
8.76561898621731E-08,-2.07745197258191E-05,0.87890625,0,0
1.44726936923689E-06,-1.90967293747235E-05,0.87890625,0,0
2.07060634238587E-06,-1.97554181795567E-05,0.87890625,0,0
2.76699279311288E-06,-1.8603162970976E-05,0.87890625,0,0
3.86632564186584E-06,-1.81906580110081E-05,0.87890625,0,0
4.81204597235774E-06,-1.80949809873709E-05,0.87890625,0,0
5.0440266932128E-06,-1.69536269822856E-05,0.87890625,0,0
4.71436533189262E-06,-1.8043514501187E-05,0.87890625,0,0
3.9609753912373E-06,-1.82978565135272E-05,0.87890625,0,0
2.95033146358037E-06,-2.07778903131839E-05,0.87890625,0,0
2.63039737546933E-06,-2.23542083404027E-05,0.87890625,0,0
3.46486217495112E-06,-2.35925017477712E-05,0.87890625,0,0
5.0104272304452E-06,-1.87796576938126E-05,0.87890625,0,0
5.81217727813055E-06,-1.37629294840735E-05,0.87890625,0,0
5.06327751281788E-06,-9.87774092209293E-06,0.87890625,0,0
4.5652041080757E-06,-1.03594857137068E-05,0.87890625,0,0
5.22009759151842E-06,-1.23548970805132E-05,0.87890625,0,0
5.8351865845907E-06,-1.525852985651E-05,0.87890625,0,0
5.53130348635023E-06,-1.49197603604989E-05,0.87890625,0,0
5.1007618822041E-06,-1.33641515276395E-05,0.87890625,0,0
3.99459895561449E-06,-1.21755801956169E-05,0.87890625,0,0
3.00778151540726E-06,-1.07893165477435E-05,0.87890625,0,0
2.03343120119825E-06,-8.06497791927541E-06,0.87890625,0,0
2.64887898993038E-06,-1.27011780932662E-05,0.87890625,0,0
6.82399615925533E-07,-1.17790641525062E-05,0.87890625,0,0
6.44439012376097E-07,-1.54572862811619E-05,0.87890625,0,0
2.04757861865801E-06,-1.68668975675246E-05,0.87890625,0,0
4.48065793534624E-06,-1.93604882952059E-05,0.87890625,0,0
5.78307935938938E-06,-1.65800520335324E-05,0.87890625,0,0
6.20313130639261E-06,-1.44435107358731E-05,0.87890625,0,0
4.60673572888481E-06,-1.26810400615796E-05,0.87890625,0,0
3.46526098837785E-06,-1.18864991236478E-05,0.87890625,0,0
3.38031077262713E-06,-1.38705345307244E-05,0.87890625,0,0
3.57957583219104E-06,-1.73754942807136E-05,0.87890625,0,0
3.35471963808232E-06,-2.11909682548139E-05,0.87890625,0,0
2.09465065381664E-06,-2.30288605962414E-05,0.87890625,0,0
1.38149698614143E-06,-2.3532064005849E-05,0.87890625,0,0
1.97457370632037E-06,-2.12067516258685E-05,0.87890625,0,0
2.87673901766539E-06,-1.96038636204321E-05,0.87890625,0,0
2.11148903872527E-06,-1.86717006727122E-05,0.87890625,0,0
1.17442539249168E-06,-1.92060360859614E-05,0.87890625,0,0
1.31167189465486E-06,-1.93119631148875E-05,0.87890625,0,0
2.98526310871239E-06,-2.0254477931303E-05,0.87890625,0,0
3.28466421706253E-06,-2.07987195608439E-05,0.87890625,0,0
1.85814212727564E-06,-2.0923118427163E-05,0.87890625,0,0
9.1641993549274E-07,-2.05478518182645E-05,0.87890625,0,0
4.49889313358653E-07,-2.05330143216997E-05,0.87890625,0,0
5.21781601037219E-07,-2.03559866349678E-05,0.87890625,0,0
2.27305326916394E-06,-2.11468777706614E-05,0.87890625,0,0
3.40192127623595E-06,-1.86349079740467E-05,0.87890625,0,0
5.23327980772592E-06,-2.57378069363767E-05,0.87890625,0,0
4.38627557741711E-06,-1.70229232026031E-05,0.87890625,0,0
4.74108037451515E-06,-2.0152008801233E-05,0.87890625,0,0
3.62148898602754E-06,-1.57173235493246E-05,0.87890625,0,0
4.07371999244788E-06,-1.74177130247699E-05,0.87890625,0,0
3.93340042137424E-06,-1.25948254208197E-05,0.87890625,0,0
4.0972267925099E-06,-9.85360929917078E-06,0.87890625,0,0
3.69586905435426E-06,-7.27085716789588E-06,0.87890625,0,0
3.79428729502251E-06,-7.14931320544565E-06,0.87890625,0,0
3.5493128507369E-06,-8.60030377225485E-06,0.87890625,0,0
2.6269958652847E-06,-9.45315059652785E-06,0.87890625,0,0
3.32337276631733E-06,-1.09367138065863E-05,0.87890625,0,0
5.29099315826898E-06,-8.86285033629974E-06,0.87890625,0,0
6.49120738671627E-06,-8.28670818009414E-06,0.87890625,0,0
5.89213823332102E-06,-7.70683709561126E-06,0.87890625,0,0
5.58716465093312E-06,-9.93434969132068E-06,0.87890625,0,0
5.33095862920163E-06,-9.26878328755265E-06,0.87890625,0,0
5.43131636732141E-06,-1.05930284917122E-05,0.87890625,0,0
4.72775809612358E-06,-1.22937199193984E-05,0.87890625,0,0
4.53389247923042E-06,-1.60015952133108E-05,0.87890625,0,0
4.67232712253463E-06,-1.68560964084463E-05,0.87890625,0,0
4.32758452006965E-06,-1.77145066118101E-05,0.87890625,0,0
3.1833087632549E-06,-1.75306213350268E-05,0.87890625,0,0
2.9874101983296E-06,-1.7259571905015E-05,0.87890625,0,0
3.9724177440803E-06,-1.63619097293122E-05,0.87890625,0,0
4.07045172323706E-06,-1.54363206092967E-05,0.87890625,0,0
2.46050285568344E-06,-1.24073740153108E-05,0.87890625,0,0
3.86806732421974E-06,-1.90396058314946E-05,0.87890625,0,0
3.1102201774047E-06,-1.79408689291449E-05,0.87890625,0,0
2.70613031716493E-06,-2.25308813242009E-05,0.87890625,0,0
1.67262453487638E-06,-2.03802792384522E-05,0.87890625,0,0
2.12622808248852E-06,-2.2051381165511E-05,0.87890625,0,0
2.02248565983609E-06,-2.01505517907208E-05,0.87890625,0,0
1.64173764005682E-06,-2.02798837563023E-05,0.87890625,0,0
9.87633256954723E-07,-1.85809694812633E-05,0.87890625,0,0
2.41147608903702E-06,-1.85506123671075E-05,0.87890625,0,0
4.30299542131252E-06,-1.8702481611399E-05,0.87890625,0,0
4.15989825341967E-06,-1.73045864357846E-05,0.87890625,0,0
4.03263084081118E-06,-1.69342911249259E-05,0.87890625,0,0
5.03617366121034E-06,-1.63904915098101E-05,0.87890625,0,0
5.20425464856089E-06,-1.76718658622121E-05,0.87890625,0,0
2.31532294492354E-06,-1.75577952177264E-05,0.87890625,0,0
-1.14396459593991E-06,-1.9012968550669E-05,0.87890625,0,0
-2.30125078815036E-06,-1.91972249012906E-05,0.87890625,0,0
-5.65874586300197E-07,-2.12056693271734E-05,0.87890625,0,0
1.10015787413431E-06,-2.18204240809428E-05,0.87890625,0,0
1.07971550278307E-06,-2.15730960917426E-05,0.87890625,0,0
-1.17321098969114E-06,-1.9375715055503E-05,0.87890625,0,0
-2.78496531791461E-06,-1.89512993529206E-05,0.87890625,0,0
-2.58369709627004E-06,-1.96360142581398E-05,0.87890625,0,0
-1.89187943533398E-07,-2.15540003409842E-05,0.87890625,0,0
3.03594447359501E-06,-2.16784865187947E-05,0.87890625,0,0
4.50306288257707E-06,-2.04110310733086E-05,0.87890625,0,0
3.53566133526328E-06,-1.41529935717699E-05,0.87890625,0,0
4.37767721450655E-06,-1.78977916220902E-05,0.87890625,0,0
9.78788875727332E-07,-1.0440182450111E-05,0.87890625,0,0
-2.5974512141147E-07,-1.22811716209981E-05,0.87890625,0,0
-1.01616899428336E-06,-8.36937124404358E-06,0.87890625,0,0
4.7468230945924E-07,-1.26779304991942E-05,0.87890625,0,0
4.81367521842913E-07,-1.35985765155056E-05,0.87890625,0,0
8.54051393162081E-07,-1.58784387167543E-05,0.87890625,0,0
1.39656867759186E-06,-1.44629857459222E-05,0.87890625,0,0
1.51278254634235E-06,-1.29274494611309E-05,0.87890625,0,0
3.86433498533734E-07,-1.2760067875206E-05,0.87890625,0,0
1.69710915542964E-07,-1.3151685379853E-05,0.87890625,0,0
1.08580661617452E-06,-1.45897938637063E-05,0.87890625,0,0
9.31228498757264E-07,-1.40564634421025E-05,0.87890625,0,0
1.34311039801105E-06,-1.40446181831066E-05,0.87890625,0,0
1.77464858097665E-06,-1.19464993986185E-05,0.87890625,0,0
2.18734817281074E-06,-1.25588885566685E-05,0.87890625,0,0
2.57240458267916E-06,-1.2362585948722E-05,0.87890625,0,0
4.58795057056705E-06,-1.38348395921639E-05,0.87890625,0,0
6.58586213830858E-06,-1.37696715682978E-05,0.87890625,0,0
7.56280542191234E-06,-1.46727861647378E-05,0.87890625,0,0
7.21703327144496E-06,-1.44462946991553E-05,0.87890625,0,0
7.41353551347856E-06,-1.49266588778119E-05,0.87890625,0,0
7.33258184482111E-06,-1.5105119018699E-05,0.87890625,0,0
6.08158779868972E-06,-1.70621224242495E-05,0.87890625,0,0
5.40593646292109E-06,-1.76255707629025E-05,0.87890625,0,0
5.63426556254853E-06,-1.69920858752448E-05,0.87890625,0,0
3.81718064090819E-06,-1.33567400553147E-05,0.87890625,0,0
4.22966968471883E-06,-1.88187950698193E-05,0.87890625,0,0
2.41715088122874E-06,-1.38971963679069E-05,0.87890625,0,0
4.75864590043784E-06,-1.71409192262217E-05,0.87890625,0,0
4.93290281156078E-06,-1.55358484335011E-05,0.87890625,0,0
5.61805336474208E-06,-1.92872066691052E-05,0.87890625,0,0
4.97486371386913E-06,-1.91344552149531E-05,0.87890625,0,0
6.75736691846396E-06,-2.04981188289821E-05,0.87890625,0,0
7.82913502916927E-06,-2.00150661839871E-05,0.87890625,0,0
6.42909435555339E-06,-2.0999777916586E-05,0.87890625,0,0
4.96246366310515E-06,-2.26748070417671E-05,0.87890625,0,0
4.45259820480715E-06,-2.26081083383178E-05,0.87890625,0,0
4.55655663245125E-06,-2.37998010561569E-05,0.87890625,0,0
4.17948967879056E-06,-2.37706899497425E-05,0.87890625,0,0
4.5813853830623E-06,-2.41233847191324E-05,0.87890625,0,0
5.03237924931454E-06,-2.19474040932255E-05,0.87890625,0,0
5.3067305998411E-06,-2.1248033590382E-05,0.87890625,0,0
3.06148808704165E-06,-1.91902236110764E-05,0.87890625,0,0
7.13518602424301E-07,-1.8787110093399E-05,0.87890625,0,0
6.19115439803863E-07,-1.84988566616084E-05,0.87890625,0,0
2.37686822401884E-06,-1.90205773833441E-05,0.87890625,0,0
2.3583429538121E-06,-1.77280944626546E-05,0.87890625,0,0
1.74889908066689E-06,-1.73377393366536E-05,0.87890625,0,0
1.56129556216911E-06,-1.64159755513538E-05,0.87890625,0,0
2.31347030421603E-06,-1.5302692190744E-05,0.87890625,0,0
2.91511378236464E-06,-1.51289932546206E-05,0.87890625,0,0
3.68785822502105E-06,-1.72890522662783E-05,0.87890625,0,0
3.4047939152515E-06,-1.6617512301309E-05,0.87890625,0,0
2.73158434538345E-06,-2.29414436034858E-05,0.87890625,0,0
1.30383156715652E-07,-1.55324978550198E-05,0.87890625,0,0
2.52741028816672E-06,-1.91288327187067E-05,0.87890625,0,0
2.54017254519567E-06,-1.63074200827396E-05,0.87890625,0,0
3.1600072816218E-06,-1.87760324479314E-05,0.87890625,0,0
2.36150003729563E-06,-1.69402155734133E-05,0.87890625,0,0
2.71025351139542E-06,-1.63670647452818E-05,0.87890625,0,0
3.65294340554101E-06,-1.30333692140994E-05,0.87890625,0,0
4.19616389990551E-06,-1.16087794594932E-05,0.87890625,0,0
4.583078862197E-06,-1.30300240925862E-05,0.87890625,0,0
5.70059683013824E-06,-1.50254927575588E-05,0.87890625,0,0
7.04917192706489E-06,-1.73355292645283E-05,0.87890625,0,0
6.2492454162566E-06,-1.60446343215881E-05,0.87890625,0,0
4.82484483654844E-06,-1.5820398402866E-05,0.87890625,0,0
3.99158170694136E-06,-1.50936166392057E-05,0.87890625,0,0
5.00645091960905E-06,-1.71560313901864E-05,0.87890625,0,0
5.5150048865471E-06,-1.70981256815139E-05,0.87890625,0,0
5.17395073984517E-06,-1.88377962331288E-05,0.87890625,0,0
3.63192725671979E-06,-1.92306652024854E-05,0.87890625,0,0
3.7620777675329E-06,-2.03464751393767E-05,0.87890625,0,0
5.06783226228436E-06,-1.94395906873979E-05,0.87890625,0,0
5.53202244191198E-06,-1.9019193132408E-05,0.87890625,0,0
4.57121359431767E-06,-1.84384025487816E-05,0.87890625,0,0
3.62045034307812E-06,-1.8537091818871E-05,0.87890625,0,0
3.02264697893406E-06,-1.92470906767994E-05,0.87890625,0,0
3.45470971296891E-06,-1.99125970539171E-05,0.87890625,0,0
2.31907642955775E-06,-1.53857672557933E-05,0.87890625,0,0
2.36540995501855E-06,-2.19991215999471E-05,0.87890625,0,0
3.54054847662155E-08,-1.85005465027643E-05,0.87890625,0,0
2.50966678549958E-07,-2.48069827648578E-05,0.87890625,0,0
4.14802485693144E-07,-2.17965771298623E-05,0.87890625,0,0
9.26540451473556E-07,-2.23211518459721E-05,0.87890625,0,0
-4.36435328765583E-07,-1.88102567335591E-05,0.87890625,0,0
-4.50326268719436E-07,-1.93064133782173E-05,0.87890625,0,0
1.06338802652317E-06,-1.96213277376955E-05,0.87890625,0,0
2.22836774810276E-06,-2.00391677935841E-05,0.87890625,0,0
2.29247007155209E-06,-1.84756518137874E-05,0.87890625,0,0
1.79364064933907E-06,-1.58203602040885E-05,0.87890625,0,0
2.57364945355221E-06,-1.62499745783862E-05,0.87890625,0,0
4.31140279033571E-06,-1.61313782882644E-05,0.87890625,0,0
5.25218729308108E-06,-1.57719932758482E-05,0.87890625,0,0
4.61515537608648E-06,-1.28570563902031E-05,0.87890625,0,0
4.73227146358113E-06,-1.33320372697199E-05,0.87890625,0,0
5.28101963936933E-06,-1.35645213958924E-05,0.87890625,0,0
5.98648466620944E-06,-1.56136848090682E-05,0.87890625,0,0
5.40731571163633E-06,-1.59853370860219E-05,0.87890625,0,0
3.52575193574012E-06,-1.72965847013984E-05,0.87890625,0,0
1.27832242924342E-06,-1.88645790331066E-05,0.87890625,0,0
-2.89773595341103E-07,-2.31736339628696E-05,0.87890625,0,0
-6.91203183578182E-07,-2.50328885158524E-05,0.87890625,0,0
6.56318036362791E-07,-2.38648008235032E-05,0.87890625,0,0
2.43456656789931E-06,-2.09995323530165E-05,0.87890625,0,0
3.17747162625892E-06,-1.79523267433979E-05,0.87890625,0,0
2.5864169401757E-06,-1.3224414033175E-05,0.87890625,0,0
3.28236842506158E-06,-2.00685390154831E-05,0.87890625,0,0
8.37838172174088E-07,-1.83829088200582E-05,0.87890625,0,0
-1.29674248228184E-07,-2.18891200347571E-05,0.87890625,0,0
-1.39132259846519E-06,-1.60578256327426E-05,0.87890625,0,0
-1.44747400554479E-06,-1.51077620103024E-05,0.87890625,0,0
-2.20656261262775E-06,-1.25706073959009E-05,0.87890625,0,0
-2.64362824964337E-06,-1.34261999846785E-05,0.87890625,0,0
-1.62042488227598E-06,-1.26942923088791E-05,0.87890625,0,0
1.4324500625662E-06,-1.22240235214122E-05,0.87890625,0,0
4.22302764491178E-06,-1.28012088680407E-05,0.87890625,0,0
5.33351430931361E-06,-1.28219908219762E-05,0.87890625,0,0
5.43730311619584E-06,-1.38121822601533E-05,0.87890625,0,0
5.14504472448607E-06,-1.40453166750376E-05,0.87890625,0,0
5.13391069034697E-06,-1.53618202602956E-05,0.87890625,0,0
4.20548394686193E-06,-1.36622184072621E-05,0.87890625,0,0
3.47306240655598E-06,-1.36430398924858E-05,0.87890625,0,0
4.22176663050777E-06,-1.42375738505507E-05,0.87890625,0,0
6.03271064392175E-06,-1.70373677974567E-05,0.87890625,0,0
6.39155086901155E-06,-1.82845615199767E-05,0.87890625,0,0
6.29223814030411E-06,-1.96580131159863E-05,0.87890625,0,0
6.76985109748784E-06,-1.84204545803368E-05,0.87890625,0,0
7.06845730746863E-06,-1.63914846780244E-05,0.87890625,0,0
6.49580078970757E-06,-1.480300034018E-05,0.87890625,0,0
6.19734782958403E-06,-1.54662084241863E-05,0.87890625,0,0
5.58702367925434E-06,-1.50825117088971E-05,0.87890625,0,0
5.19492459716275E-06,-1.40491065394599E-05,0.87890625,0,0
5.5853352023405E-06,-1.28114588733297E-05,0.87890625,0,0
7.66522953199456E-06,-1.90959126484813E-05,0.87890625,0,0
3.77512333216146E-06,-1.42036024044501E-05,0.87890625,0,0
3.65976052307815E-06,-1.5565570720355E-05,0.87890625,0,0
3.46830347552896E-06,-1.29991503854399E-05,0.87890625,0,0
4.34429875895148E-06,-1.48602020999533E-05,0.87890625,0,0
2.73172713605163E-06,-1.41306463774526E-05,0.87890625,0,0
2.38621328207955E-06,-1.44742898555705E-05,0.87890625,0,0
2.54082465289684E-06,-1.24930429592496E-05,0.87890625,0,0
4.13160978496308E-06,-1.34414322019438E-05,0.87890625,0,0
5.85518682783004E-06,-1.68039860000135E-05,0.87890625,0,0
5.27336896993802E-06,-1.96485125343315E-05,0.87890625,0,0
3.89437809644733E-06,-2.27504824579228E-05,0.87890625,0,0
2.00901627067651E-06,-2.37194599321811E-05,0.87890625,0,0
8.75000353062205E-07,-2.37567655858584E-05,0.87890625,0,0
-6.13738450283563E-07,-2.10964353755116E-05,0.87890625,0,0
-5.56567727016954E-07,-2.02097089641029E-05,0.87890625,0,0
9.63312800195126E-07,-1.85594635695452E-05,0.87890625,0,0
2.78498032457719E-06,-1.8913744497695E-05,0.87890625,0,0
2.04329808184411E-06,-1.90504179045092E-05,0.87890625,0,0
1.1202993164261E-06,-2.00727008632384E-05,0.87890625,0,0
1.99047761384463E-07,-1.93516007129801E-05,0.87890625,0,0
-4.29936505952355E-07,-1.85178159881616E-05,0.87890625,0,0
-1.34468723445025E-06,-1.64826778927818E-05,0.87890625,0,0
-7.79888466695411E-07,-1.46805441545439E-05,0.87890625,0,0
1.58985380949161E-06,-1.37417882797308E-05,0.87890625,0,0
3.82704865842243E-06,-1.50917503560777E-05,0.87890625,0,0
4.08780078942073E-06,-1.41589016493526E-05,0.87890625,0,0
5.93338882026728E-06,-2.1309295334504E-05,0.87890625,0,0
4.49265235147323E-06,-1.81956311280373E-05,0.87890625,0,0
4.61464651380084E-06,-2.26240263145883E-05,0.87890625,0,0
1.31554656945809E-06,-1.85846674867207E-05,0.87890625,0,0
-3.58939587385976E-07,-1.74230899574468E-05,0.87890625,0,0
-1.99334436956633E-07,-1.40708207254647E-05,0.87890625,0,0
1.60971262630483E-06,-1.45865078593488E-05,0.87890625,0,0
1.60727813636186E-06,-1.49161733133951E-05,0.87890625,0,0
1.28882879835146E-06,-1.69135510077467E-05,0.87890625,0,0
1.50777623275644E-06,-1.85018579941243E-05,0.87890625,0,0
1.66158361025737E-06,-1.82861931534717E-05,0.87890625,0,0
2.57962619798491E-06,-1.84823693416547E-05,0.87890625,0,0
2.48236074185115E-06,-1.72192085301504E-05,0.87890625,0,0
1.74642389083601E-06,-1.74739216163289E-05,0.87890625,0,0
5.90775997011406E-08,-1.64761477208231E-05,0.87890625,0,0
-1.71838269125146E-06,-1.7192152881762E-05,0.87890625,0,0
-2.59158287008177E-06,-1.63053027790738E-05,0.87890625,0,0
-5.57538498924259E-07,-1.68100832524942E-05,0.87890625,0,0
2.00460794985702E-06,-1.58131624630187E-05,0.87890625,0,0
3.97795429307735E-06,-1.56953083205735E-05,0.87890625,0,0
4.60788260170375E-06,-1.60778999998001E-05,0.87890625,0,0
5.21325500812964E-06,-1.83374959306093E-05,0.87890625,0,0
5.5345499276882E-06,-1.84770105988719E-05,0.87890625,0,0
5.49212609257665E-06,-1.63303884619381E-05,0.87890625,0,0
5.16794261784526E-06,-1.32487757582567E-05,0.87890625,0,0
5.66739299756591E-06,-1.18927200674079E-05,0.87890625,0,0
5.02887542097596E-06,-1.24152220450924E-05,0.87890625,0,0
7.43247801437974E-06,-2.00797294382937E-05,0.87890625,0,0
7.34749119146727E-06,-1.59396258823108E-05,0.87890625,0,0
1.10662167571718E-05,-1.60015406436287E-05,0.87890625,0,0
9.97916322376113E-06,-1.38730320031755E-05,0.87890625,0,0
8.11230711406097E-06,-1.65243836818263E-05,0.87890625,0,0
5.5646883083682E-06,-1.63633885676973E-05,0.87890625,0,0
5.29494218426407E-06,-1.59614301082911E-05,0.87890625,0,0
3.90634158975445E-06,-1.36813941935543E-05,0.87890625,0,0
2.37477456721535E-06,-1.44198047564714E-05,0.87890625,0,0
1.73926753177511E-06,-1.61802399816224E-05,0.87890625,0,0
1.64802554536436E-06,-1.58644070324954E-05,0.87890625,0,0
2.22186486098508E-06,-1.71394713106565E-05,0.87890625,0,0
1.75722004769341E-06,-1.78016598511022E-05,0.87890625,0,0
1.13710962068581E-06,-1.78738355316455E-05,0.87890625,0,0
5.15174889414993E-08,-1.60768686328083E-05,0.87890625,0,0
8.38195092001115E-07,-1.66470781550743E-05,0.87890625,0,0
2.16240459849359E-06,-1.64718785526929E-05,0.87890625,0,0
3.4952054193127E-06,-1.61142033903161E-05,0.87890625,0,0
2.71306112153979E-06,-1.4319956790132E-05,0.87890625,0,0
1.105167143578E-06,-1.43742427098914E-05,0.87890625,0,0
-5.32312355971953E-07,-1.5319013982662E-05,0.87890625,0,0
1.38206189603807E-07,-1.68137048603967E-05,0.87890625,0,0
2.654404624991E-06,-1.5913776223897E-05,0.87890625,0,0
5.57255179955973E-06,-1.49056631926214E-05,0.87890625,0,0
6.86949897499289E-06,-1.70024759427179E-05,0.87890625,0,0
6.28849920758512E-06,-1.95802695088787E-05,0.87890625,0,0
4.21939375883085E-06,-1.61980315169785E-05,0.87890625,0,0
5.86934083912638E-06,-2.27685413847212E-05,0.87890625,0,0
4.50540665042354E-06,-1.76727189682424E-05,0.87890625,0,0
6.70458666718332E-06,-2.18177319766255E-05,0.87890625,0,0
7.46289379094378E-06,-1.60937870532507E-05,0.87890625,0,0
7.66713856137358E-06,-1.56165515363682E-05,0.87890625,0,0
5.04852596350247E-06,-1.3724608834309E-05,0.87890625,0,0
3.77894684788771E-06,-1.57930717250565E-05,0.87890625,0,0
3.48876301359269E-06,-1.50121759361355E-05,0.87890625,0,0
3.73396051145392E-06,-1.57451358973049E-05,0.87890625,0,0
2.30947648560687E-06,-1.63199511007406E-05,0.87890625,0,0
5.13072734520392E-07,-1.48827011798858E-05,0.87890625,0,0
1.23954703212803E-06,-1.42967055580812E-05,0.87890625,0,0
3.5336297514732E-06,-1.25298820421449E-05,0.87890625,0,0
5.30104898643913E-06,-1.32007080537733E-05,0.87890625,0,0
4.55003919341834E-06,-1.27366674860241E-05,0.87890625,0,0
3.13460418510658E-06,-1.42630451591685E-05,0.87890625,0,0
1.16092496682541E-06,-1.3150380254956E-05,0.87890625,0,0
5.71326836507069E-07,-1.34459669425269E-05,0.87890625,0,0
4.32085656143499E-08,-1.32930999825476E-05,0.87890625,0,0
-4.92921856221074E-07,-1.4669613847218E-05,0.87890625,0,0
-1.11330052732228E-06,-1.43624620250193E-05,0.87890625,0,0
-5.30846762103465E-07,-1.54111839947291E-05,0.87890625,0,0
-5.39054553883034E-07,-1.67046327987919E-05,0.87890625,0,0
-9.17720399229438E-07,-1.92750067071756E-05,0.87890625,0,0
-4.76313687158836E-07,-2.12288668990368E-05,0.87890625,0,0
1.40332838327595E-06,-2.35799016081728E-05,0.87890625,0,0
2.45535557041876E-06,-2.16589323827066E-05,0.87890625,0,0
3.47799687006045E-06,-3.22024316119496E-05,0.87890625,0,0
2.78702600553515E-06,-2.59439766523428E-05,0.87890625,0,0
2.75825595963397E-06,-2.92021286441013E-05,0.87890625,0,0
1.15013017421006E-06,-2.17195592995267E-05,0.87890625,0,0
2.09769837056228E-06,-2.32282636716263E-05,0.87890625,0,0
2.89417084786692E-06,-2.14358715311391E-05,0.87890625,0,0
3.62180776392051E-06,-2.38189168157987E-05,0.87890625,0,0
4.77047115055029E-06,-2.21554982999805E-05,0.87890625,0,0
6.29843225397053E-06,-1.93893411051249E-05,0.87890625,0,0
6.86495195623138E-06,-1.72483541973634E-05,0.87890625,0,0
5.40221253686468E-06,-1.55075940710958E-05,0.87890625,0,0
4.19893967773532E-06,-1.61663301696535E-05,0.87890625,0,0
3.79297193831007E-06,-1.48412809721776E-05,0.87890625,0,0
4.32373735748115E-06,-1.64628236234421E-05,0.87890625,0,0
4.41151860286482E-06,-1.55590205395129E-05,0.87890625,0,0
3.98219253838761E-06,-1.59185365191661E-05,0.87890625,0,0
4.05765422328841E-06,-1.31450933622546E-05,0.87890625,0,0
4.62316211269354E-06,-1.33423482111539E-05,0.87890625,0,0
3.42422663379693E-06,-1.37009565150947E-05,0.87890625,0,0
1.73308637840819E-06,-1.56885125761619E-05,0.87890625,0,0
6.18372894223285E-07,-1.53348482854199E-05,0.87890625,0,0
4.40093629094918E-07,-1.56586793309543E-05,0.87890625,0,0
7.97909422090015E-07,-1.35640775624779E-05,0.87890625,0,0
1.28150713862851E-06,-1.24151574709686E-05,0.87890625,0,0
2.0160616713838E-06,-1.34855845317361E-05,0.87890625,0,0
2.15913337342499E-06,-1.48297413034015E-05,0.87890625,0,0
1.91855792763818E-06,-1.28324372781208E-05,0.87890625,0,0
2.30069235840347E-06,-1.74974411493167E-05,0.87890625,0,0
1.88690444247186E-06,-1.34512802105746E-05,0.87890625,0,0
3.15687407237419E-06,-1.7470383681939E-05,0.87890625,0,0
2.5085737433983E-06,-1.47799892147304E-05,0.87890625,0,0
1.46382194543548E-06,-1.71001120179426E-05,0.87890625,0,0
1.94376116269268E-06,-1.51127705976251E-05,0.87890625,0,0
5.94811626797309E-06,-1.31359884107951E-05,0.87890625,0,0
8.62947672430892E-06,-1.02185758805717E-05,0.87890625,0,0
8.37821698951302E-06,-1.0135318916582E-05,0.87890625,0,0
6.59847137285396E-06,-1.38115401568939E-05,0.87890625,0,0
5.30029410583666E-06,-1.91920062206918E-05,0.87890625,0,0
5.43311853107298E-06,-2.45087903749663E-05,0.87890625,0,0
5.24557799508329E-06,-2.52290192293003E-05,0.87890625,0,0
5.45165312360041E-06,-2.44805760303279E-05,0.87890625,0,0
5.77006539970171E-06,-2.17193319258513E-05,0.87890625,0,0
5.91499338042922E-06,-2.02566116058733E-05,0.87890625,0,0
6.08499476584257E-06,-1.70253370015416E-05,0.87890625,0,0
7.46497562431614E-06,-1.70983948919456E-05,0.87890625,0,0
8.00668476585997E-06,-1.91617000382394E-05,0.87890625,0,0
7.30358806322329E-06,-2.41523157455958E-05,0.87890625,0,0
6.04834940531873E-06,-2.71713688562159E-05,0.87890625,0,0
6.22721745457966E-06,-2.83893441519467E-05,0.87890625,0,0
6.29479700364755E-06,-2.69807660515653E-05,0.87890625,0,0
5.86371334065916E-06,-2.44193288381211E-05,0.87890625,0,0
6.35992455499945E-06,-2.24220602831338E-05,0.87890625,0,0
6.54105770081514E-06,-2.20696347241756E-05,0.87890625,0,0
5.43766054761363E-06,-1.60491563292453E-05,0.87890625,0,0
7.87992667028448E-06,-1.98274028662127E-05,0.87890625,0,0
5.57697649128386E-06,-1.2490004337451E-05,0.87890625,0,0
7.2313123382628E-06,-1.8573337001726E-05,0.87890625,0,0
7.72354997025104E-06,-1.56499099830398E-05,0.87890625,0,0
8.39099993754644E-06,-1.81638115464011E-05,0.87890625,0,0
5.15095371156349E-06,-1.6311041690642E-05,0.87890625,0,0
3.14147132485232E-06,-1.78628906724043E-05,0.87890625,0,0
3.45649982591567E-06,-1.79635862878058E-05,0.87890625,0,0
4.97842529512127E-06,-1.78943100763718E-05,0.87890625,0,0
5.16550107931835E-06,-1.70077801158186E-05,0.87890625,0,0
3.85934845326119E-06,-1.61252792167943E-05,0.87890625,0,0
2.69294696408906E-06,-1.68759779626271E-05,0.87890625,0,0
1.86056399797963E-06,-1.60994313773699E-05,0.87890625,0,0
2.70672285296314E-06,-1.75680979737081E-05,0.87890625,0,0
3.03340357277193E-06,-1.69133418239653E-05,0.87890625,0,0
3.3370672554156E-06,-1.79815688170493E-05,0.87890625,0,0
3.86251258532866E-06,-1.67631078511477E-05,0.87890625,0,0
5.87618524150457E-06,-1.73612916114507E-05,0.87890625,0,0
5.5734603847668E-06,-1.71600113390014E-05,0.87890625,0,0
4.37128755947924E-06,-1.99004607566167E-05,0.87890625,0,0
4.52634230896365E-06,-2.11534188565565E-05,0.87890625,0,0
4.24442350777099E-06,-2.06014774448704E-05,0.87890625,0,0
2.62165963249572E-06,-1.80600236490136E-05,0.87890625,0,0
1.43152021792048E-06,-1.82805051736068E-05,0.87890625,0,0
1.24817518099007E-06,-1.93640298675746E-05,0.87890625,0,0
3.03988713312719E-06,-1.8628414181876E-05,0.87890625,0,0
2.87123589259863E-06,-1.43121060318663E-05,0.87890625,0,0
3.65760320164554E-06,-2.00389185920358E-05,0.87890625,0,0
2.15607383324823E-06,-1.60077215696219E-05,0.87890625,0,0
2.70830605586525E-06,-2.06441673071822E-05,0.87890625,0,0
1.51912161072687E-06,-1.53383425640641E-05,0.87890625,0,0
1.37963752422365E-06,-1.33021549117984E-05,0.87890625,0,0
9.91305682873644E-07,-1.0314352948626E-05,0.87890625,0,0
9.28935776300932E-07,-1.2733721632685E-05,0.87890625,0,0
1.31736283037753E-06,-1.38063924168819E-05,0.87890625,0,0
1.60542640514905E-06,-1.3286203284224E-05,0.87890625,0,0
7.41583505714516E-07,-1.22062210721197E-05,0.87890625,0,0
-4.71648320399254E-07,-1.10718538053334E-05,0.87890625,0,0
-5.475947659761E-07,-1.14843151095556E-05,0.87890625,0,0
1.60445082997285E-07,-1.207479454024E-05,0.87890625,0,0
1.13054534267576E-06,-1.53179043991258E-05,0.87890625,0,0
7.47079013763141E-07,-1.61000534717459E-05,0.87890625,0,0
3.22659673201997E-07,-1.77809215529123E-05,0.87890625,0,0
8.66125446918886E-08,-1.88320100278361E-05,0.87890625,0,0
2.66823860783916E-07,-2.15304808079964E-05,0.87890625,0,0
1.43015245157585E-06,-1.98781963263173E-05,0.87890625,0,0
3.31441356138384E-06,-1.68523692991585E-05,0.87890625,0,0
2.58372824646358E-06,-1.37588849611348E-05,0.87890625,0,0
5.57539749479474E-07,-1.23349736895761E-05,0.87890625,0,0
-9.08645688468823E-07,-1.14382009996916E-05,0.87890625,0,0
-1.03054071587394E-06,-1.20249114843318E-05,0.87890625,0,0
-3.93958401900818E-07,-1.22025594464503E-05,0.87890625,0,0
-7.39576478281379E-07,-1.27049743241514E-05,0.87890625,0,0
-1.76248261141154E-06,-1.03683269117028E-05,0.87890625,0,0
-2.78496236205683E-06,-1.41599439302809E-05,0.87890625,0,0
-7.75423700360989E-07,-1.16054161480861E-05,0.87890625,0,0
7.87774183663714E-07,-1.56378064275486E-05,0.87890625,0,0
7.14208795216109E-07,-1.33389648908633E-05,0.87890625,0,0
2.7445852879282E-07,-1.59442570293322E-05,0.87890625,0,0
1.92038896784652E-06,-1.58979619300226E-05,0.87890625,0,0
3.68175801668258E-06,-1.53195614984725E-05,0.87890625,0,0
4.61884974356508E-06,-1.31312317535048E-05,0.87890625,0,0
4.31612170359585E-06,-1.38080904434901E-05,0.87890625,0,0
4.52132962891483E-06,-1.66399313457077E-05,0.87890625,0,0
6.14409873378463E-06,-1.7252075849683E-05,0.87890625,0,0
7.64574360800907E-06,-1.6616957509541E-05,0.87890625,0,0
7.76197066443274E-06,-1.56513797264779E-05,0.87890625,0,0
6.50226593279513E-06,-1.75593067979207E-05,0.87890625,0,0
5.76303682464641E-06,-1.80303923116298E-05,0.87890625,0,0
5.71086320633185E-06,-1.83763950190041E-05,0.87890625,0,0
5.96354811932542E-06,-1.69159902725369E-05,0.87890625,0,0
5.95253141000285E-06,-1.76096600625897E-05,0.87890625,0,0
5.88473039897508E-06,-1.87644436664414E-05,0.87890625,0,0
5.57346675122972E-06,-1.97391600522678E-05,0.87890625,0,0
5.33547199665918E-06,-1.88716476259287E-05,0.87890625,0,0
5.11627240484813E-06,-1.92317038454348E-05,0.87890625,0,0
3.3356052426825E-06,-1.90786740859039E-05,0.87890625,0,0
5.67292772757355E-07,-1.80961851583561E-05,0.87890625,0,0
1.20279764814768E-06,-1.717007944535E-05,0.87890625,0,0
3.39844018526492E-06,-1.80943970917724E-05,0.87890625,0,0
3.80019696422096E-06,-1.53816836245824E-05,0.87890625,0,0
4.77112553198822E-06,-2.10809430427616E-05,0.87890625,0,0
2.1545065465034E-06,-1.5265482943505E-05,0.87890625,0,0
3.73961847799364E-06,-1.97139033843996E-05,0.87890625,0,0
5.06360674989992E-06,-1.65027668117546E-05,0.87890625,0,0
5.73310444451636E-06,-1.7498794477433E-05,0.87890625,0,0
4.40384519606596E-06,-1.45436961247469E-05,0.87890625,0,0
4.17402407038026E-06,-1.49149818753358E-05,0.87890625,0,0
4.93214020025334E-06,-1.46570901051746E-05,0.87890625,0,0
7.00141845300095E-06,-1.61332645802759E-05,0.87890625,0,0
7.8206367106759E-06,-1.63655713549815E-05,0.87890625,0,0
7.27418091628351E-06,-1.43957422551466E-05,0.87890625,0,0
6.5491663008288E-06,-1.42102198879002E-05,0.87890625,0,0
5.69678377360106E-06,-1.4361468856805E-05,0.87890625,0,0
4.99157749800361E-06,-1.64317916642176E-05,0.87890625,0,0
3.59145496986457E-06,-1.51360600284534E-05,0.87890625,0,0
2.25066082748526E-06,-1.507859906269E-05,0.87890625,0,0
1.63164338573552E-06,-1.48701183206867E-05,0.87890625,0,0
3.36858761329495E-06,-1.74326323758578E-05,0.87890625,0,0
3.94253447666415E-06,-1.72983418451622E-05,0.87890625,0,0
3.01373347610934E-06,-1.72746276803082E-05,0.87890625,0,0
2.09414542950981E-06,-1.67510988831054E-05,0.87890625,0,0
2.81921006717312E-06,-1.74543565663043E-05,0.87890625,0,0
2.8216500140843E-06,-1.72331747307908E-05,0.87890625,0,0
2.3318498278968E-06,-1.79134349309606E-05,0.87890625,0,0
1.84904240541073E-06,-1.90467617358081E-05,0.87890625,0,0
3.0255771434895E-06,-2.03628060262417E-05,0.87890625,0,0
4.49124945589574E-06,-1.78455284185475E-05,0.87890625,0,0
6.12261646892875E-06,-2.65229027718306E-05,0.87890625,0,0
3.3486189749965E-06,-2.01646689674817E-05,0.87890625,0,0
2.84273846773431E-06,-2.18790282815462E-05,0.87890625,0,0
6.31404020623449E-07,-1.65127275977284E-05,0.87890625,0,0
1.19715923574404E-06,-1.81774976226734E-05,0.87890625,0,0
2.69883162218321E-06,-1.58230959641514E-05,0.87890625,0,0
5.61707201995887E-06,-1.55168181663612E-05,0.87890625,0,0
7.08572542862385E-06,-1.39214880618965E-05,0.87890625,0,0
6.51946038487949E-06,-1.42802036862122E-05,0.87890625,0,0
5.12039696332067E-06,-1.51501235450269E-05,0.87890625,0,0
3.05643789033638E-06,-1.48917879414512E-05,0.87890625,0,0
2.37950416703825E-06,-1.58698821906E-05,0.87890625,0,0
3.039942612304E-06,-1.60038071044255E-05,0.87890625,0,0
2.90282423520694E-06,-1.79016296897316E-05,0.87890625,0,0
1.19015578547987E-06,-1.76010325958487E-05,0.87890625,0,0
6.18831620613491E-07,-1.81925406650407E-05,0.87890625,0,0
6.96086033258325E-07,-1.60198705998482E-05,0.87890625,0,0
1.41516102303285E-06,-1.64701341418549E-05,0.87890625,0,0
9.61473347160791E-07,-1.68175247381441E-05,0.87890625,0,0
1.00598481367342E-06,-1.85572953341762E-05,0.87890625,0,0
1.29828504213947E-06,-1.87383229786064E-05,0.87890625,0,0
8.87982025687961E-07,-1.94399253814481E-05,0.87890625,0,0
1.71960024886175E-07,-1.89563306776108E-05,0.87890625,0,0
5.88688351399469E-07,-1.97768404177623E-05,0.87890625,0,0
1.53741848407662E-06,-2.15515392483212E-05,0.87890625,0,0
1.93308142115711E-06,-2.36347223108169E-05,0.87890625,0,0
1.23687345876533E-06,-2.13819148484617E-05,0.87890625,0,0
2.82105133919686E-07,-3.0108940336504E-05,0.87890625,0,0
-1.89707759545854E-06,-2.20272577280412E-05,0.87890625,0,0
-2.49825319542651E-07,-2.79842715826817E-05,0.87890625,0,0
2.85661189991515E-06,-2.29039833357092E-05,0.87890625,0,0
5.5606865316804E-06,-2.20890615310054E-05,0.87890625,0,0
5.19667491971632E-06,-1.79140879481565E-05,0.87890625,0,0
2.4550811303925E-06,-1.88564190466423E-05,0.87890625,0,0
1.98456689304294E-07,-1.6751295333961E-05,0.87890625,0,0
6.63716605231457E-07,-1.39581079565687E-05,0.87890625,0,0
2.88664455183607E-06,-1.15883203761769E-05,0.87890625,0,0
3.68809014617E-06,-9.9894041341031E-06,0.87890625,0,0
2.99478097076644E-06,-1.25218539324123E-05,0.87890625,0,0
2.63309925685462E-06,-1.40567808557535E-05,0.87890625,0,0
3.47251943821902E-06,-1.64026841957821E-05,0.87890625,0,0
4.29693045589374E-06,-1.55009547597729E-05,0.87890625,0,0
3.98110068999813E-06,-1.65378132805927E-05,0.87890625,0,0
1.96821906683908E-06,-1.5033061572467E-05,0.87890625,0,0
-4.71748762720381E-07,-1.66580812219763E-05,0.87890625,0,0
-5.73430099848338E-07,-1.74218639585888E-05,0.87890625,0,0
2.3961895294633E-06,-1.83399934030604E-05,0.87890625,0,0
4.94037431053584E-06,-1.7293630662607E-05,0.87890625,0,0
4.68748157800292E-06,-1.79773542186012E-05,0.87890625,0,0
2.4852047317836E-06,-1.81977648026077E-05,0.87890625,0,0
2.22461449084221E-06,-1.95675384020433E-05,0.87890625,0,0
3.74460273633304E-06,-1.89472702913918E-05,0.87890625,0,0
4.54493147117319E-06,-1.64022640092298E-05,0.87890625,0,0
2.71824546871358E-06,-1.31115812109783E-05,0.87890625,0,0
4.00837234337814E-06,-1.82710700755706E-05,0.87890625,0,0
4.52461972599849E-06,-1.21761895570671E-05,0.87890625,0,0
6.51258596917614E-06,-1.48289182106964E-05,0.87890625,0,0
6.24482345301658E-06,-1.31591850731638E-05,0.87890625,0,0
7.10259473635233E-06,-1.36184735310962E-05,0.87890625,0,0
5.53512290935032E-06,-9.9408771347953E-06,0.87890625,0,0
3.48914204550965E-06,-8.21435241959989E-06,0.87890625,0,0
1.45299190990045E-06,-7.36563833925175E-06,0.87890625,0,0
1.3513009662347E-06,-9.57659631239949E-06,0.87890625,0,0
3.14682938551414E-06,-1.23985828395234E-05,0.87890625,0,0
4.31265289080329E-06,-1.39485673571471E-05,0.87890625,0,0
4.06901835958706E-06,-1.59897790581454E-05,0.87890625,0,0
2.92294953396777E-06,-1.67148300533881E-05,0.87890625,0,0
3.00709484690742E-06,-1.80236984306248E-05,0.87890625,0,0
3.77013066099607E-06,-1.76328376255697E-05,0.87890625,0,0
4.38355391452205E-06,-1.88304693438113E-05,0.87890625,0,0
4.17705268773716E-06,-1.81837349373382E-05,0.87890625,0,0
5.45647299077245E-06,-1.78000191226602E-05,0.87890625,0,0
6.49062167212833E-06,-1.73713451658841E-05,0.87890625,0,0
6.12809981248574E-06,-1.91251619980903E-05,0.87890625,0,0
5.1661181714735E-06,-1.89908041647868E-05,0.87890625,0,0
5.26066241945955E-06,-1.9119048374705E-05,0.87890625,0,0
6.15592307440238E-06,-1.90728060260881E-05,0.87890625,0,0
6.04800879955292E-06,-1.85756398423109E-05,0.87890625,0,0
4.14427222494851E-06,-1.90838927665027E-05,0.87890625,0,0
3.32904073729878E-06,-2.2272686692304E-05,0.87890625,0,0
3.40969654644141E-06,-1.93230353033869E-05,0.87890625,0,0
5.88370221521473E-06,-2.57786978181684E-05,0.87890625,0,0
5.85311772738351E-06,-1.64292596309679E-05,0.87890625,0,0
7.33245497031021E-06,-2.08677665796131E-05,0.87890625,0,0
8.91500894795172E-06,-1.81653576873941E-05,0.87890625,0,0
1.10590253825649E-05,-2.1070140064694E-05,0.87890625,0,0
9.73939495452214E-06,-1.73528678715229E-05,0.87890625,0,0
7.37600657885196E-06,-1.7241307432414E-05,0.87890625,0,0
5.021993729315E-06,-1.54781846504193E-05,0.87890625,0,0
4.7075814109121E-06,-1.52053326019086E-05,0.87890625,0,0
5.45214925296023E-06,-1.50057858263608E-05,0.87890625,0,0
5.55679753233562E-06,-1.40242755151121E-05,0.87890625,0,0
4.40346093455446E-06,-1.5020679711597E-05,0.87890625,0,0
2.05821334020584E-06,-1.30417683976702E-05,0.87890625,0,0
1.21556183785287E-06,-1.2285237062315E-05,0.87890625,0,0
9.10600249426352E-07,-1.0463161743246E-05,0.87890625,0,0
9.29140526295669E-07,-1.26135655591497E-05,0.87890625,0,0
3.47350521678891E-07,-1.20642162073636E-05,0.87890625,0,0
5.11098278366262E-07,-1.20504791993881E-05,0.87890625,0,0
1.60796116688289E-06,-1.09201082523214E-05,0.87890625,0,0
3.92559968531714E-06,-1.27750954561634E-05,0.87890625,0,0
5.66088056075387E-06,-1.23485297081061E-05,0.87890625,0,0
5.34276023245184E-06,-1.24268735817168E-05,0.87890625,0,0
3.33857883560995E-06,-1.32457225845428E-05,0.87890625,0,0
2.97520978165267E-06,-1.52991451614071E-05,0.87890625,0,0
3.73927332475432E-06,-1.66336212714668E-05,0.87890625,0,0
2.46263675762748E-06,-1.8052953237202E-05,0.87890625,0,0
9.63602133197128E-07,-1.34869333123788E-05,0.87890625,0,0
1.21228731586598E-06,-1.81004470505286E-05,0.87890625,0,0
1.23197969514877E-06,-1.40898364406894E-05,0.87890625,0,0
1.69053771514882E-06,-1.94560452655423E-05,0.87890625,0,0
1.02718206562713E-06,-1.61254665727029E-05,0.87890625,0,0
1.05251308468723E-06,-1.7590919014765E-05,0.87890625,0,0
1.72736076820001E-06,-1.64834546012571E-05,0.87890625,0,0
2.68039616457827E-06,-1.85586814041017E-05,0.87890625,0,0
1.77750757757167E-06,-1.96136552403914E-05,0.87890625,0,0
4.60257240320061E-07,-2.0650206352002E-05,0.87890625,0,0
3.92139668292657E-07,-2.08179244509665E-05,0.87890625,0,0
6.22308391484694E-07,-1.87244131666375E-05,0.87890625,0,0
9.6263897830795E-07,-1.70284311025171E-05,0.87890625,0,0
4.66273320398614E-07,-1.42568715091329E-05,0.87890625,0,0
-4.59917899320317E-08,-1.25522983580595E-05,0.87890625,0,0
5.52570270428987E-07,-1.00058732641628E-05,0.87890625,0,0
1.77563777015166E-06,-1.18059806482051E-05,0.87890625,0,0
1.45126318784605E-06,-1.37272863867111E-05,0.87890625,0,0
-3.08775440771569E-08,-1.47776618177886E-05,0.87890625,0,0
-9.77232502918923E-07,-1.318542399531E-05,0.87890625,0,0
-9.17692602797615E-07,-1.56903770403005E-05,0.87890625,0,0
-1.01182808975864E-06,-1.93407740880502E-05,0.87890625,0,0
-2.85475408645652E-07,-2.29638408200117E-05,0.87890625,0,0
1.68196675076615E-06,-2.47948210017057E-05,0.87890625,0,0
3.29274689647718E-06,-2.51869696512586E-05,0.87890625,0,0
4.8461170081282E-06,-2.36385458265431E-05,0.87890625,0,0
5.63079674975597E-06,-2.12747800105717E-05,0.87890625,0,0
2.03172135115892E-06,-1.45688427437562E-05,0.87890625,0,0
8.11459187843866E-07,-1.97860572370701E-05,0.87890625,0,0
-4.76379881320099E-07,-1.57089671120048E-05,0.87890625,0,0
2.152863999072E-06,-2.03618983505294E-05,0.87890625,0,0
2.672513573998E-06,-1.5829025869607E-05,0.87890625,0,0
3.23647577715747E-06,-1.7919868696481E-05,0.87890625,0,0
1.97563213077956E-06,-1.73869066202315E-05,0.87890625,0,0
2.65947096522723E-06,-1.89010588655947E-05,0.87890625,0,0
3.12304541694175E-06,-1.72910040419083E-05,0.87890625,0,0
3.72204863197112E-06,-1.6362959286198E-05,0.87890625,0,0
4.95233416586416E-06,-1.59293394972337E-05,0.87890625,0,0
5.41850795343635E-06,-1.56492442329181E-05,0.87890625,0,0
5.57331077288836E-06,-1.75686400325503E-05,0.87890625,0,0
5.22052550877561E-06,-1.87192727025831E-05,0.87890625,0,0
3.33440834765497E-06,-1.98839552467689E-05,0.87890625,0,0
1.00791304191716E-07,-1.73795015143696E-05,0.87890625,0,0
-1.51748815824249E-06,-1.80415081558749E-05,0.87890625,0,0
-1.01933994756109E-06,-1.79061808012193E-05,0.87890625,0,0
1.75271259195142E-06,-1.74034030351322E-05,0.87890625,0,0
3.82349753635935E-06,-1.41833488669363E-05,0.87890625,0,0
4.43084627477219E-06,-1.39801795739913E-05,0.87890625,0,0
3.34830497195071E-06,-1.40019001264591E-05,0.87890625,0,0
2.37307767747552E-06,-1.4575156455976E-05,0.87890625,0,0
1.00138606740074E-06,-1.46853781188838E-05,0.87890625,0,0
1.10355279048235E-06,-1.48498793350882E-05,0.87890625,0,0
1.99087298824452E-06,-1.37044489747495E-05,0.87890625,0,0
1.73236401224131E-06,-1.42151320687844E-05,0.87890625,0,0
1.77734909811988E-06,-1.32271425172803E-05,0.87890625,0,0
2.769862931018E-06,-1.79588714672718E-05,0.87890625,0,0
2.94172036774398E-06,-1.20468403110863E-05,0.87890625,0,0
4.10452730648103E-06,-1.40926476888126E-05,0.87890625,0,0
3.79184689336398E-06,-1.15004440885969E-05,0.87890625,0,0
3.4782640341291E-06,-1.41882501338841E-05,0.87890625,0,0
3.09779602503113E-06,-1.21119492177968E-05,0.87890625,0,0
3.14165549752943E-06,-1.2081201930414E-05,0.87890625,0,0
2.89174522549729E-06,-1.2261403753655E-05,0.87890625,0,0
3.21594075103349E-06,-1.49291099660331E-05,0.87890625,0,0
4.4313119360595E-06,-1.92984243767569E-05,0.87890625,0,0
5.75761669097119E-06,-2.27136242756387E-05,0.87890625,0,0
6.57308510199073E-06,-2.59226726484485E-05,0.87890625,0,0
6.3101638261287E-06,-2.70251821348211E-05,0.87890625,0,0
5.41210010851501E-06,-2.82731070910813E-05,0.87890625,0,0
4.68356120109092E-06,-2.6062763936352E-05,0.87890625,0,0
5.55123779122368E-06,-2.48646592808655E-05,0.87890625,0,0
6.95898643243709E-06,-2.29853449127404E-05,0.87890625,0,0
8.06542448117398E-06,-2.36704890994588E-05,0.87890625,0,0
7.73333340475801E-06,-2.40593963098945E-05,0.87890625,0,0
7.42086331229075E-06,-2.56746207014658E-05,0.87890625,0,0
7.02773468219675E-06,-2.52605223067803E-05,0.87890625,0,0
6.44648616798804E-06,-2.40469926211517E-05,0.87890625,0,0
5.79332936467836E-06,-2.20701840589754E-05,0.87890625,0,0
4.65073071609368E-06,-1.9202874682378E-05,0.87890625,0,0
4.496437668422E-06,-1.50074301927816E-05,0.87890625,0,0
5.45263628737303E-06,-1.15709271995001E-05,0.87890625,0,0
3.66380413652223E-06,-7.78706362325465E-06,0.87890625,0,0
5.10716017743107E-06,-1.21887487694039E-05,0.87890625,0,0
5.04200443174341E-06,-1.12868301584967E-05,0.87890625,0,0
7.92306855146308E-06,-1.49467841765727E-05,0.87890625,0,0
7.74979707784951E-06,-1.35725304062362E-05,0.87890625,0,0
8.27773237688234E-06,-1.23140926007181E-05,0.87890625,0,0
7.6750520747737E-06,-1.09091115518822E-05,0.87890625,0,0
7.61513683755766E-06,-1.13489668365219E-05,0.87890625,0,0
6.34367961538373E-06,-1.14528729682206E-05,0.87890625,0,0
5.48358821106376E-06,-1.32508130263886E-05,0.87890625,0,0
5.06871856487123E-06,-1.4462254512182E-05,0.87890625,0,0
4.22247740061721E-06,-1.38858858917956E-05,0.87890625,0,0
3.77753690372629E-06,-1.40605789056281E-05,0.87890625,0,0
3.51870539816446E-06,-1.38743343995884E-05,0.87890625,0,0
3.77258174921735E-06,-1.34993624669733E-05,0.87890625,0,0
3.54926828549651E-06,-1.24211255752016E-05,0.87890625,0,0
3.16885666507005E-06,-1.24196985780145E-05,0.87890625,0,0
2.2123704184196E-06,-1.15256470962777E-05,0.87890625,0,0
2.18519744521473E-06,-1.25702254081261E-05,0.87890625,0,0
1.33959861159383E-06,-1.42716426125844E-05,0.87890625,0,0
3.57871499545581E-07,-1.4919314708095E-05,0.87890625,0,0
7.60758894102764E-07,-1.39361727633514E-05,0.87890625,0,0
2.76115019914869E-06,-1.42441222124035E-05,0.87890625,0,0
3.9614874367544E-06,-1.43497090903111E-05,0.87890625,0,0
3.97907706428668E-06,-1.58433449541917E-05,0.87890625,0,0
2.98102918350196E-06,-1.79210474016145E-05,0.87890625,0,0
2.74073386208329E-06,-1.82792409759713E-05,0.87890625,0,0
2.19294952330529E-06,-1.45473486554692E-05,0.87890625,0,0
3.47624904861732E-06,-2.19111734622857E-05,0.87890625,0,0
2.44031275542511E-06,-1.77302317752037E-05,0.87890625,0,0
2.74054400506429E-06,-2.029745701293E-05,0.87890625,0,0
2.51798860517738E-06,-1.67086836881936E-05,0.87890625,0,0
2.30751174967736E-06,-1.82336934813065E-05,0.87890625,0,0
1.72950478827261E-06,-1.58120255946415E-05,0.87890625,0,0
1.6730932657083E-06,-1.62606811500154E-05,0.87890625,0,0
1.52473796788399E-06,-1.54044428199995E-05,0.87890625,0,0
1.2652112673095E-06,-1.71780138771283E-05,0.87890625,0,0
1.6019416761992E-06,-1.94704352907138E-05,0.87890625,0,0
1.51597362219036E-06,-1.92901261470979E-05,0.87890625,0,0
2.3491495539929E-06,-1.87863679457223E-05,0.87890625,0,0
3.25528867506364E-06,-1.74577089637751E-05,0.87890625,0,0
3.26263079841738E-06,-1.88493668247247E-05,0.87890625,0,0
2.03933473130746E-06,-1.87940404430265E-05,0.87890625,0,0
9.91084675661114E-07,-2.02365954464767E-05,0.87890625,0,0
9.64978880801937E-07,-1.99234873434762E-05,0.87890625,0,0
2.41179463955632E-06,-2.10229445656296E-05,0.87890625,0,0
3.69117128684593E-06,-2.14903066080296E-05,0.87890625,0,0
3.25830274050531E-06,-2.27344462473411E-05,0.87890625,0,0
2.51165170084278E-06,-2.17002543649869E-05,0.87890625,0,0
2.31833428188111E-06,-2.19840530917281E-05,0.87890625,0,0
2.15204818232451E-06,-2.22067501454148E-05,0.87890625,0,0
1.65699759691051E-06,-2.21993195737014E-05,0.87890625,0,0
1.05921105841844E-06,-2.02219289349159E-05,0.87890625,0,0
6.63138791878737E-07,-1.69195354828844E-05,0.87890625,0,0
1.22948540592915E-06,-1.24018051792518E-05,0.87890625,0,0
3.18445154334768E-06,-1.91765157069312E-05,0.87890625,0,0
4.56909674539929E-06,-1.6228364984272E-05,0.87890625,0,0
4.50895640824456E-06,-1.90062582987593E-05,0.87890625,0,0
2.51021401709295E-06,-1.76742614712566E-05,0.87890625,0,0
5.92569392665609E-07,-2.14402225537924E-05,0.87890625,0,0
-3.14177668769844E-07,-2.11383503483376E-05,0.87890625,0,0
6.2398714817391E-07,-2.07659049920039E-05,0.87890625,0,0
1.62237506629026E-06,-1.84701675607357E-05,0.87890625,0,0
2.00615477297106E-06,-1.77215788426111E-05,0.87890625,0,0
2.90629714072566E-06,-1.85606295417529E-05,0.87890625,0,0
3.93000800613663E-06,-1.89217516890494E-05,0.87890625,0,0
4.45582509200904E-06,-1.96450673684012E-05,0.87890625,0,0
4.72795454697916E-06,-1.89582860912196E-05,0.87890625,0,0
5.37500454811379E-06,-1.92889419849962E-05,0.87890625,0,0
5.84325016461662E-06,-1.87047171493759E-05,0.87890625,0,0
5.45725288247922E-06,-1.86611778190127E-05,0.87890625,0,0
4.32115302828606E-06,-1.64123594004195E-05,0.87890625,0,0
3.5739105896937E-06,-1.63651839102386E-05,0.87890625,0,0
3.00890769722173E-06,-1.60835497808876E-05,0.87890625,0,0
2.58197746916267E-06,-1.61679963639472E-05,0.87890625,0,0
3.18287334266643E-06,-1.48105309563107E-05,0.87890625,0,0
3.68542646356218E-06,-1.45705935210572E-05,0.87890625,0,0
2.54315659731219E-06,-1.55183752212906E-05,0.87890625,0,0
1.526849473521E-06,-1.5735571651021E-05,0.87890625,0,0
1.53927487644978E-06,-1.4753733012185E-05,0.87890625,0,0
2.0819984456466E-06,-1.4759106306883E-05,0.87890625,0,0
1.90098410257633E-06,-1.2396577403706E-05,0.87890625,0,0
2.31985245591204E-06,-1.81281830009539E-05,0.87890625,0,0
1.48715912473563E-06,-1.60912095452659E-05,0.87890625,0,0
3.09749225380074E-06,-2.24343166337349E-05,0.87890625,0,0
4.52552467322676E-06,-2.07602824957576E-05,0.87890625,0,0
6.77362004353199E-06,-2.10435846383916E-05,0.87890625,0,0
7.54290294935345E-06,-1.83057400136022E-05,0.87890625,0,0
7.53317408452858E-06,-1.82969542947831E-05,0.87890625,0,0
6.9862858254055E-06,-1.86652323463932E-05,0.87890625,0,0
6.40072812529979E-06,-1.9848084775731E-05,0.87890625,0,0
6.06788353252341E-06,-2.04650787054561E-05,0.87890625,0,0
5.82703250984196E-06,-2.01574875973165E-05,0.87890625,0,0
5.39514257980045E-06,-2.01589846255956E-05,0.87890625,0,0
4.50462175649591E-06,-1.79640810529236E-05,0.87890625,0,0
3.95877805203781E-06,-1.70173989317846E-05,0.87890625,0,0
2.438099045321E-06,-1.58650000230409E-05,0.87890625,0,0
1.49416325712082E-06,-1.69038539752364E-05,0.87890625,0,0
1.93329333342263E-06,-1.60942981892731E-05,0.87890625,0,0
2.57192095887149E-06,-1.60293639055453E-05,0.87890625,0,0
2.63621268459246E-06,-1.5567495211144E-05,0.87890625,0,0
3.55406950802717E-06,-1.67942434927681E-05,0.87890625,0,0
4.90584989165654E-06,-1.73420867213281E-05,0.87890625,0,0
5.15854162586038E-06,-1.81373088707915E-05,0.87890625,0,0
4.01782426706632E-06,-1.8394803191768E-05,0.87890625,0,0
2.45214482674783E-06,-1.89218480954878E-05,0.87890625,0,0
1.11855592876964E-06,-1.83060037670657E-05,0.87890625,0,0
1.67428638064848E-07,-1.67708312801551E-05,0.87890625,0,0
-9.40896143220016E-07,-1.25299302453641E-05,0.87890625,0,0
2.13760898759574E-07,-1.84577256732155E-05,0.87890625,0,0
2.91035576083232E-06,-1.40192023536656E-05,0.87890625,0,0
2.2306089704216E-06,-1.4696575817652E-05,0.87890625,0,0
5.44911529232195E-07,-1.15388593258103E-05,0.87890625,0,0
-2.22603002697497E-08,-1.48881936183898E-05,0.87890625,0,0
4.90136415010056E-07,-1.40183065013844E-05,0.87890625,0,0
2.52138022460713E-07,-1.44044824992307E-05,0.87890625,0,0
-2.05530099606221E-08,-1.29196096168016E-05,0.87890625,0,0
-1.73545927850682E-07,-1.25385104183806E-05,0.87890625,0,0
5.10865334035771E-07,-1.36126636789413E-05,0.87890625,0,0
1.71540705196094E-06,-1.47903383549419E-05,0.87890625,0,0
2.06441313821415E-06,-1.53877263073809E-05,0.87890625,0,0
1.70383759723336E-06,-1.35103291540872E-05,0.87890625,0,0
7.45969373383559E-07,-1.44765062941588E-05,0.87890625,0,0
1.66275683000094E-07,-1.58166803885251E-05,0.87890625,0,0
6.34195629345413E-08,-1.81596969923703E-05,0.87890625,0,0
5.6484452670702E-07,-1.77638376044342E-05,0.87890625,0,0
1.39656071951322E-06,-1.76449138962198E-05,0.87890625,0,0
3.14273370349838E-06,-1.58364327944582E-05,0.87890625,0,0
5.05307252751663E-06,-1.49873794725863E-05,0.87890625,0,0
6.42803342998377E-06,-1.41768978210166E-05,0.87890625,0,0
6.91125251250924E-06,-1.51778513099998E-05,0.87890625,0,0
7.0496653279406E-06,-1.60092695296044E-05,0.87890625,0,0
6.18034164290293E-06,-1.79301569005474E-05,0.87890625,0,0
5.57601606487879E-06,-1.94128315342823E-05,0.87890625,0,0
7.1475710683444E-06,-2.15702875721036E-05,0.87890625,0,0
7.47083549867966E-06,-1.86364395631244E-05,0.87890625,0,0
1.09225875348784E-05,-2.50803768722108E-05,0.87890625,0,0
7.59281329010264E-06,-1.72060499608051E-05,0.87890625,0,0
8.23969185148599E-06,-2.30466212087777E-05,0.87890625,0,0
6.45314912617323E-06,-1.84573927981546E-05,0.87890625,0,0
6.94084701535758E-06,-1.91540239029564E-05,0.87890625,0,0
6.26659402769292E-06,-1.82821549969958E-05,0.87890625,0,0
7.25889685782022E-06,-2.16870848817052E-05,0.87890625,0,0
6.3364541347255E-06,-2.08954897971125E-05,0.87890625,0,0
5.75312787987059E-06,-1.89645270438632E-05,0.87890625,0,0
6.37996254226891E-06,-1.75742225110298E-05,0.87890625,0,0
7.69305643189E-06,-1.6480100384797E-05,0.87890625,0,0
9.47402259043884E-06,-1.85680164577207E-05,0.87890625,0,0
9.9845819931943E-06,-1.97927529370645E-05,0.87890625,0,0
9.74899376160465E-06,-2.22759335883893E-05,0.87890625,0,0
8.24551898404025E-06,-2.15493419091217E-05,0.87890625,0,0
8.10275105322944E-06,-2.27969903789926E-05,0.87890625,0,0
7.88695888331858E-06,-2.19401463255053E-05,0.87890625,0,0
8.9813820522977E-06,-2.2154716134537E-05,0.87890625,0,0
9.11341066966997E-06,-2.06233835342573E-05,0.87890625,0,0
8.54568770591868E-06,-1.9868499293807E-05,0.87890625,0,0
6.67347467242507E-06,-1.72728705365444E-05,0.87890625,0,0
4.84707197756507E-06,-1.73471489688382E-05,0.87890625,0,0
3.28888859257859E-06,-1.85396002052585E-05,0.87890625,0,0
3.79639868697268E-06,-1.91643630387262E-05,0.87890625,0,0
4.44274110122933E-06,-1.77327565324958E-05,0.87890625,0,0
5.17957141710212E-06,-1.71958145074314E-05,0.87890625,0,0
4.23664050686057E-06,-1.54087138071191E-05,0.87890625,0,0
5.19331297255121E-06,-2.11832757486263E-05,0.87890625,0,0
2.43133581534494E-06,-1.53601904457901E-05,0.87890625,0,0
2.5380084025528E-06,-1.85510034498293E-05,0.87890625,0,0
5.01720649026538E-07,-1.46514503285289E-05,0.87890625,0,0
2.18232514725969E-07,-1.77026886376552E-05,0.87890625,0,0
5.35772926468781E-07,-1.79707731149392E-05,0.87890625,0,0
2.56461680692155E-06,-1.9733792214538E-05,0.87890625,0,0
3.21944162351429E-06,-1.73901207745075E-05,0.87890625,0,0
2.21166169467324E-06,-1.48383251143969E-05,0.87890625,0,0
1.28300609958387E-06,-1.39588082674891E-05,0.87890625,0,0
6.87770409513178E-07,-1.29577647385304E-05,0.87890625,0,0
-8.91801121838398E-08,-1.29975205709343E-05,0.87890625,0,0
-1.39569976909115E-06,-1.21141347335652E-05,0.87890625,0,0
-1.2305238215049E-06,-1.36216840473935E-05,0.87890625,0,0
-4.92563174248062E-07,-1.32657087306143E-05,0.87890625,0,0
8.07575190719945E-07,-1.42412291097571E-05,0.87890625,0,0
5.56762813630485E-07,-1.28654910440673E-05,0.87890625,0,0
-8.91395984581322E-07,-1.29711443150882E-05,0.87890625,0,0
-2.65463677351363E-06,-1.28935571410693E-05,0.87890625,0,0
-2.31087233260041E-06,-1.48104827530915E-05,0.87890625,0,0
-1.78712696197181E-06,-1.50337491504615E-05,0.87890625,0,0
-2.07896641768457E-06,-1.51526801346336E-05,0.87890625,0,0
-9.4821649554433E-07,-1.32824134198017E-05,0.87890625,0,0
1.14355759706086E-06,-1.25144888443174E-05,0.87890625,0,0
9.45527233398025E-07,-1.35019472509157E-05,0.87890625,0,0
1.33403545987676E-06,-1.4233349247661E-05,0.87890625,0,0
2.60074011748657E-06,-1.32320055854507E-05,0.87890625,0,0
4.4514708861243E-06,-1.91372710105497E-05,0.87890625,0,0
4.21493359681335E-06,-1.4276062756835E-05,0.87890625,0,0
4.75017895951169E-06,-1.75265777215827E-05,0.87890625,0,0
3.55727479472989E-06,-1.50993791976362E-05,0.87890625,0,0
3.4622198654688E-06,-1.59025603352347E-05,0.87890625,0,0
4.09225367548061E-06,-1.36127728183055E-05,0.87890625,0,0
4.07850666306331E-06,-1.31491551655927E-05,0.87890625,0,0
3.25386417898699E-06,-1.36717044370016E-05,0.87890625,0,0
2.17308661376592E-06,-1.62799169629579E-05,0.87890625,0,0
3.92265093296373E-07,-1.83415122592123E-05,0.87890625,0,0
-1.08148572053324E-06,-1.77401034306968E-05,0.87890625,0,0
-5.74417242660275E-07,-1.74141223396873E-05,0.87890625,0,0
5.04223407915561E-07,-1.62146443472011E-05,0.87890625,0,0
1.44914815791708E-06,-1.58928141900105E-05,0.87890625,0,0
1.28848671465676E-06,-1.46823504110216E-05,0.87890625,0,0
1.44962916692748E-06,-1.54084136738675E-05,0.87890625,0,0
2.43456543103093E-06,-1.4467945220531E-05,0.87890625,0,0
3.59436990038375E-06,-1.36706039484125E-05,0.87890625,0,0
4.12849840358831E-06,-1.16251203508E-05,0.87890625,0,0
3.89370279663126E-06,-1.25307515190798E-05,0.87890625,0,0
2.55549730354687E-06,-1.50814175867708E-05,0.87890625,0,0
2.0370446236484E-06,-1.82969470188254E-05,0.87890625,0,0
2.74498052021954E-06,-1.99872029043036E-05,0.87890625,0,0
4.29702049586922E-06,-1.97927656699903E-05,0.87890625,0,0
4.93299830850447E-06,-1.69399500009604E-05,0.87890625,0,0
3.32583158524358E-06,-1.49906281876611E-05,0.87890625,0,0
1.49143772887328E-06,-1.18542875497951E-05,0.87890625,0,0
2.13597786569153E-06,-1.68264905369142E-05,0.87890625,0,0
1.99389614863321E-06,-1.25874530567671E-05,0.87890625,0,0
2.71531689577387E-06,-1.41281798278214E-05,0.87890625,0,0
2.9322018235689E-06,-1.01166697277222E-05,0.87890625,0,0
3.56214172825275E-06,-1.25345213746186E-05,0.87890625,0,0
2.78405764220224E-06,-1.401836561854E-05,0.87890625,0,0
2.12746112993045E-06,-1.68426504387753E-05,0.87890625,0,0
1.21146831588703E-06,-1.72059226315469E-05,0.87890625,0,0
1.01818864095549E-06,-1.80046245077392E-05,0.87890625,0,0
9.32851548895997E-07,-1.80836686922703E-05,0.87890625,0,0
1.29166153328697E-06,-1.68217757163802E-05,0.87890625,0,0
1.97986332750588E-06,-1.70302137121325E-05,0.87890625,0,0
2.09469408218865E-06,-1.73708285728935E-05,0.87890625,0,0
2.34228468798392E-06,-1.9113504095003E-05,0.87890625,0,0
1.88582487226086E-06,-1.84078398888232E-05,0.87890625,0,0
1.36416485929658E-06,-1.73509961314267E-05,0.87890625,0,0
8.04032879386796E-07,-1.50351324919029E-05,0.87890625,0,0
1.23644247196353E-06,-1.6045323718572E-05,0.87890625,0,0
2.29590364142496E-06,-1.74627566593699E-05,0.87890625,0,0
3.06604579236591E-06,-1.96841956494609E-05,0.87890625,0,0
2.38801749219419E-06,-1.94714793906314E-05,0.87890625,0,0
1.47737330280506E-06,-1.76833691512002E-05,0.87890625,0,0
8.29258965495683E-07,-1.38922141559306E-05,0.87890625,0,0
5.82040172503184E-07,-1.17771487566642E-05,0.87890625,0,0
1.06448658243607E-06,-1.24356511150836E-05,0.87890625,0,0
1.25917074456083E-06,-1.35809195853653E-05,0.87890625,0,0
1.09737379716535E-06,-1.07647911136155E-05,0.87890625,0,0
1.53920859702339E-06,-1.55420038936427E-05,0.87890625,0,0
9.36150513553002E-07,-1.12821971924859E-05,0.87890625,0,0
1.08199924397923E-06,-1.19629094115226E-05,0.87890625,0,0
2.00262661564921E-06,-9.29745692701545E-06,0.87890625,0,0
3.92531819670694E-06,-1.2521101780294E-05,0.87890625,0,0
4.28430575993843E-06,-1.34533547679894E-05,0.87890625,0,0
4.1518360376358E-06,-1.52449783854536E-05,0.87890625,0,0
5.01062277180608E-06,-1.44955638461397E-05,0.87890625,0,0
5.92547257838305E-06,-1.44026153066079E-05,0.87890625,0,0
5.9693852563214E-06,-1.56179594341666E-05,0.87890625,0,0
5.59150157641852E-06,-1.70729599631159E-05,0.87890625,0,0
4.73575209980481E-06,-1.94685107999248E-05,0.87890625,0,0
2.31529656957719E-06,-2.05863580049481E-05,0.87890625,0,0
3.72387489733228E-07,-2.31260637519881E-05,0.87890625,0,0
3.79442809617103E-07,-2.60074375546537E-05,0.87890625,0,0
1.61621755978558E-06,-3.0548580980394E-05,0.87890625,0,0
2.40348094848741E-06,-3.20703366014641E-05,0.87890625,0,0
2.23036795432563E-06,-3.23212407238316E-05,0.87890625,0,0
1.88063643236092E-06,-3.07369482470676E-05,0.87890625,0,0
2.72681768365146E-06,-3.02875032502925E-05,0.87890625,0,0
3.85046632800368E-06,-2.85301957774209E-05,0.87890625,0,0
4.11307973990915E-06,-2.59550579357892E-05,0.87890625,0,0
3.75814693143184E-06,-2.1548685253947E-05,0.87890625,0,0
4.74575654152432E-06,-1.80954448296689E-05,1.58203125,0,0
6.22844436293235E-06,-1.70913190231659E-05,1.58203125,0,0
6.49497087579221E-06,-1.71231295098551E-05,1.58203125,0,0
6.38871597402613E-06,-1.36110120365629E-05,1.58203125,0,0
9.63008005783195E-06,-1.89604525075993E-05,1.58203125,0,0
6.54905988994869E-06,-1.27811726997606E-05,1.58203125,0,0
6.56453948977287E-06,-1.46221718750894E-05,1.58203125,0,0
5.55028236703947E-06,-1.15301027108217E-05,1.58203125,0,0
7.40120276532252E-06,-1.45228459587088E-05,1.58203125,0,0
6.67761742079165E-06,-1.38493360282155E-05,1.58203125,0,0
5.76196453039302E-06,-1.52081893247669E-05,1.58203125,0,0
4.19010257246555E-06,-1.54362533066887E-05,1.58203125,0,0
1.97199892681965E-06,-1.44290725074825E-05,1.58203125,0,0
1.75803606339286E-07,-1.28545570987626E-05,1.58203125,0,0
-2.01198432137062E-07,-1.13366468212917E-05,1.58203125,0,0
1.61090213168791E-06,-1.18548450700473E-05,1.58203125,0,0
3.62730543201906E-06,-1.09371376311174E-05,1.58203125,0,0
5.0972489589185E-06,-1.0720642421802E-05,1.58203125,0,0
4.25538473791676E-06,-1.06524248622009E-05,1.58203125,0,0
4.08890400649398E-06,-1.26473769341828E-05,1.58203125,0,0
4.98821782457526E-06,-1.20393997349311E-05,1.58203125,0,0
6.5552208070585E-06,-1.32035656861262E-05,1.58203125,0,0
6.04540855420055E-06,-1.40318525154726E-05,1.58203125,0,0
4.40564645032282E-06,-1.40915472002234E-05,1.58203125,0,0
2.8894785373268E-06,-1.15858656499768E-05,1.58203125,0,0
2.33259379456285E-06,-1.03395223050029E-05,1.58203125,0,0
1.97820281755412E-06,-9.68298081716057E-06,1.58203125,0,0
3.72269573745143E-06,-1.08607700894936E-05,1.58203125,0,0
4.56696034234483E-06,-1.07601717900252E-05,1.58203125,0,0
3.89392107535969E-06,-9.65700655797264E-06,1.58203125,0,0
3.00544547826576E-06,-7.77089098846773E-06,1.58203125,0,0
5.56345548829995E-06,-1.19414071377832E-05,1.58203125,0,0
7.18575347491424E-06,-1.00044344435446E-05,1.58203125,0,0
8.66979280544911E-06,-1.32192353703431E-05,1.58203125,0,0
5.30773422724451E-06,-1.34618821903132E-05,1.58203125,0,0
2.42137230088701E-06,-1.60007202794077E-05,1.58203125,0,0
2.20521815208485E-06,-1.78971931745764E-05,1.58203125,0,0
4.46926696895389E-06,-1.98848338186508E-05,1.58203125,0,0
5.4121233006299E-06,-2.17452361539472E-05,1.58203125,0,0
4.14890564570669E-06,-2.3829226847738E-05,1.58203125,0,0
1.42396243063558E-06,-2.39383371081203E-05,1.58203125,0,0
-7.9372472328032E-07,-2.16925745917251E-05,1.58203125,0,0
-1.15079706120014E-06,-1.85518365469761E-05,1.58203125,0,0
-5.52691346911161E-07,-1.63428812811617E-05,1.58203125,0,0
6.5726612774597E-07,-1.69631475728238E-05,1.58203125,0,0
2.01114698938909E-06,-1.78519057953963E-05,1.58203125,0,0
3.11738676828099E-06,-1.96724868146703E-05,1.58203125,0,0
2.32102706831938E-06,-2.17892102227779E-05,1.58203125,0,0
1.30858177271875E-06,-2.50614357355516E-05,1.58203125,0,0
1.46475042583916E-06,-2.6107938538189E-05,1.58203125,0,0
2.91089281745371E-06,-2.52150548476493E-05,1.58203125,0,0
3.22438154398697E-06,-2.29310062422883E-05,1.58203125,0,0
2.61756758845877E-06,-2.24520263145678E-05,1.58203125,0,0
1.79783785370091E-06,-2.2894349967828E-05,1.58203125,0,0
2.15409500015085E-06,-2.30093173740897E-05,1.58203125,0,0
3.29019849232282E-06,-2.23330607695971E-05,1.58203125,0,0
5.33970569449593E-06,-2.17085162148578E-05,1.58203125,0,0
5.56832355869119E-06,-1.80871447810205E-05,1.58203125,0,0
6.89514899931964E-06,-2.64140326180495E-05,1.58203125,0,0
4.25488315158873E-06,-2.03000035980949E-05,1.58203125,0,0
6.448108706536E-06,-2.3224489268614E-05,1.58203125,0,0
6.07965148446965E-06,-1.63679087563651E-05,1.58203125,0,0
6.9944394454069E-06,-1.67060679814313E-05,1.58203125,0,0
5.18369279234321E-06,-1.58652983373031E-05,1.58203125,0,0
4.33819650424994E-06,-1.89320799108827E-05,1.58203125,0,0
2.52509562415071E-06,-1.81356626853812E-05,1.58203125,0,0
1.04836317404988E-06,-1.72094059962546E-05,1.58203125,0,0
3.11710692812994E-07,-1.67777288879734E-05,1.58203125,0,0
-3.67712573279277E-07,-1.51488475239603E-05,1.58203125,0,0
-6.59571185224195E-07,-1.54739700519713E-05,1.58203125,0,0
-1.34253230044123E-06,-1.58749371621525E-05,1.58203125,0,0
-6.69276914777583E-07,-1.99980240722653E-05,1.58203125,0,0
-4.82989506167542E-08,-2.1624506189255E-05,1.58203125,0,0
9.24254038636718E-07,-2.3036007405608E-05,1.58203125,0,0
1.83738293912938E-07,-1.98468624148518E-05,1.58203125,0,0
3.66837412002496E-07,-1.7813365047914E-05,1.58203125,0,0
3.40087439099079E-07,-1.57081813085824E-05,1.58203125,0,0
3.84982399737055E-07,-1.57848426169949E-05,1.58203125,0,0
2.68675677261854E-07,-1.4901980648574E-05,1.58203125,0,0
2.04502475753543E-06,-1.51350413943874E-05,1.58203125,0,0
3.91446428693598E-06,-1.51770382217364E-05,1.58203125,0,0
3.35835829901043E-06,-1.57075537572382E-05,1.58203125,0,0
2.24393534153933E-06,-1.63075783348177E-05,1.58203125,0,0
3.75599893231993E-06,-1.80097013071645E-05,1.58203125,0,0
5.59416230316856E-06,-1.49834613694111E-05,1.58203125,0,0
9.76190403889632E-06,-2.03597228392027E-05,1.58203125,0,0
9.23933293961454E-06,-1.46402053360362E-05,1.58203125,0,0
9.75710645434447E-06,-1.93708856386365E-05,1.58203125,0,0
7.81575454311678E-06,-1.71167212101864E-05,1.58203125,0,0
7.19053150533E-06,-2.00449885596754E-05,1.58203125,0,0
6.74153761792695E-06,-1.87247023859527E-05,1.58203125,0,0
8.62068100104807E-06,-1.94151434698142E-05,1.58203125,0,0
9.73496844380861E-06,-1.86529505299404E-05,1.58203125,0,0
9.41151120059658E-06,-1.90170958376257E-05,1.58203125,0,0
8.39800122776069E-06,-1.9788170902757E-05,1.58203125,0,0
7.23849780115415E-06,-1.84317814273527E-05,1.58203125,0,0
5.89460069022607E-06,-1.83730444405228E-05,1.58203125,0,0
4.44750139649841E-06,-1.81831510417396E-05,1.58203125,0,0
5.01314798384556E-06,-1.97700082935626E-05,1.58203125,0,0
5.54933149032877E-06,-1.95383672689786E-05,1.58203125,0,0
5.57767771169893E-06,-2.01702841877704E-05,1.58203125,0,0
4.31634316555574E-06,-1.86420074896887E-05,1.58203125,0,0
3.31159208144527E-06,-1.89110050996533E-05,1.58203125,0,0
2.66758183897764E-06,-1.92614152183523E-05,1.58203125,0,0
3.65745017916197E-06,-2.12494815059472E-05,1.58203125,0,0
4.16789998780587E-06,-2.00806498469319E-05,1.58203125,0,0
4.16258899349486E-06,-1.91943545360118E-05,1.58203125,0,0
2.94321102956019E-06,-1.87205787369749E-05,1.58203125,0,0
2.25130406761309E-06,-1.96275886992225E-05,1.58203125,0,0
3.41310919793614E-06,-2.08318633667659E-05,1.58203125,0,0
4.2041870074172E-06,-1.98826182895573E-05,1.58203125,0,0
3.13473196911218E-06,-1.40265219670255E-05,1.58203125,0,0
4.71095563625568E-06,-2.01933617063332E-05,1.58203125,0,0
3.77643232241098E-06,-1.65857363754185E-05,1.58203125,0,0
3.42666612596076E-06,-2.03539657377405E-05,1.58203125,0,0
6.46694616079913E-07,-1.67457146744709E-05,1.58203125,0,0
6.98630699957903E-08,-1.82220719580073E-05,1.58203125,0,0
7.16778288278874E-07,-1.62524829647737E-05,1.58203125,0,0
1.3836258858646E-06,-1.7976613889914E-05,1.58203125,0,0
5.0503928150647E-07,-1.89926249731798E-05,1.58203125,0,0
2.51049499411238E-07,-2.09337376873009E-05,1.58203125,0,0
1.15310206183494E-06,-2.14790379686747E-05,1.58203125,0,0
2.54965948442987E-06,-2.04475563805318E-05,1.58203125,0,0
4.10819666285533E-06,-2.0601984942914E-05,1.58203125,0,0
4.57639089290751E-06,-1.89406491699629E-05,1.58203125,0,0
4.12797544413479E-06,-1.80425377038773E-05,1.58203125,0,0
2.78185962088173E-06,-1.57191443577176E-05,1.58203125,0,0
1.76835669662978E-06,-1.61132538778475E-05,1.58203125,0,0
1.89259083072102E-06,-1.53520340973046E-05,1.58203125,0,0
3.69741542272095E-06,-1.63891036208952E-05,1.58203125,0,0
5.16937143402174E-06,-1.60992949531646E-05,1.58203125,0,0
6.44704550722963E-06,-1.65584715432487E-05,1.58203125,0,0
7.15763235348277E-06,-1.6056083040894E-05,1.58203125,0,0
7.43549844628433E-06,-1.66573518072255E-05,1.58203125,0,0
6.33746003586566E-06,-1.71928932104493E-05,1.58203125,0,0
5.24693086845218E-06,-1.66362442541867E-05,1.58203125,0,0
4.91347282149945E-06,-1.44190044011339E-05,1.58203125,0,0
5.56907752979896E-06,-1.36635489980108E-05,1.58203125,0,0
4.75931528853835E-06,-1.05073067970807E-05,1.58203125,0,0
7.17408147465903E-06,-1.3298042176757E-05,1.58203125,0,0
5.3480735004996E-06,-9.21739137993427E-06,1.58203125,0,0
5.83038126933388E-06,-1.37174374685856E-05,1.58203125,0,0
4.21792219640338E-06,-1.30462958622957E-05,1.58203125,0,0
5.23931521456689E-06,-1.47615510286414E-05,1.58203125,0,0
5.22202526553883E-06,-1.30902044475079E-05,1.58203125,0,0
3.1650979508413E-06,-1.4627290511271E-05,1.58203125,0,0
-3.35454785727052E-07,-1.40341680889833E-05,1.58203125,0,0
-1.58069030931074E-06,-1.27398307085969E-05,1.58203125,0,0
4.05687643478814E-07,-1.2159441212134E-05,1.58203125,0,0
2.61410400526074E-06,-1.15791335701942E-05,1.58203125,0,0
3.45932107848057E-06,-1.13824207801372E-05,1.58203125,0,0
2.73924388238811E-06,-8.39820131659508E-06,1.58203125,0,0
2.45946398536034E-06,-7.38614198780851E-06,1.58203125,0,0
2.7278395009489E-06,-8.00060297478922E-06,1.58203125,0,0
4.0240224734589E-06,-1.15834700409323E-05,1.58203125,0,0
4.18356967202271E-06,-1.34045749291545E-05,1.58203125,0,0
3.78483764507109E-06,-1.51984395415639E-05,1.58203125,0,0
3.6226485917723E-06,-1.47448390634963E-05,1.58203125,0,0
4.05908895118046E-06,-1.44826708492474E-05,1.58203125,0,0
2.53729467658559E-06,-1.31052138385712E-05,1.58203125,0,0
4.25655457547691E-07,-1.16482151497621E-05,1.58203125,0,0
-1.15493968166902E-07,-1.09002685348969E-05,1.58203125,0,0
8.43416728457669E-07,-1.22002620628336E-05,1.58203125,0,0
1.84431235084048E-06,-1.25190426842892E-05,1.58203125,0,0
2.88390765490476E-06,-1.2908461940242E-05,1.58203125,0,0
2.45059777626011E-06,-1.10354512798949E-05,1.58203125,0,0
2.16803368857654E-06,-1.56678033818025E-05,1.58203125,0,0
-1.27007364625342E-08,-1.19528676805203E-05,1.58203125,0,0
7.95538596776169E-07,-1.46217071232968E-05,1.58203125,0,0
1.20295806027571E-06,-1.25097358250059E-05,2.8125,0,0
2.14039141610556E-06,-1.48846283991588E-05,2.8125,0,0
1.11023609861149E-06,-1.45546200656099E-05,2.8125,0,0
7.70656072290876E-07,-1.55588877532864E-05,2.8125,0,0
3.56720732952454E-07,-1.55428861035034E-05,2.8125,0,0
-1.22709266747734E-07,-1.66891077242326E-05,2.8125,0,0
-1.0146510476261E-06,-1.74361484823748E-05,2.8125,0,0
-1.73546015957982E-06,-1.65827568707755E-05,2.8125,0,0
-9.34874321956158E-07,-1.68420101545053E-05,2.8125,0,0
5.48764148788905E-07,-1.68033366207965E-05,2.8125,0,0
1.65628239301441E-06,-1.74617907759966E-05,2.8125,0,0
9.81220068752009E-07,-1.66525423992425E-05,2.8125,0,0
-1.25280351426227E-07,-1.78583977685776E-05,2.8125,0,0
-9.37372931275604E-07,-1.91903327504406E-05,2.8125,0,0
-3.84349732485134E-07,-2.15794989344431E-05,2.8125,0,0
6.46813646199007E-07,-2.1349727830966E-05,2.8125,0,0
1.95160760085855E-06,-2.10301204788266E-05,2.8125,0,0
2.05966057365004E-06,-1.95028896996519E-05,2.8125,0,0
1.6029986227295E-06,-1.90987448149826E-05,2.8125,0,0
-1.30669278064488E-07,-1.93467749340925E-05,2.8125,0,0
-2.48140509029326E-07,-2.03516137844417E-05,2.8125,0,0
2.36618438975711E-06,-2.03272666112753E-05,2.8125,0,0
4.57255282526603E-06,-2.05697451747255E-05,2.8125,0,0
3.39862299369997E-06,-1.8091199308401E-05,2.8125,0,0
4.31775060860673E-06,-2.57524679909693E-05,2.8125,0,0
3.17039985020529E-06,-1.78310692717787E-05,2.8125,0,0
3.88830949304975E-06,-1.87506102520274E-05,2.8125,0,0
1.33008018110559E-06,-1.28019182739081E-05,2.8125,0,0
1.08992230707372E-06,-1.60197487275582E-05,2.8125,0,0
9.4644508408237E-07,-1.52631746459519E-05,2.8125,0,0
1.55214286223782E-06,-1.71080955624348E-05,2.8125,0,0
2.16854755308304E-06,-1.84702475962695E-05,2.8125,0,0
2.51636583925574E-06,-2.20512265514117E-05,2.8125,0,0
2.38219558923447E-06,-2.52321351581486E-05,2.8125,0,0
2.5158328753605E-06,-2.57674546446651E-05,2.8125,0,0
3.80237270292128E-06,-2.59185344475554E-05,2.8125,0,0
4.14407213611412E-06,-2.36371815844905E-05,2.8125,0,0
2.7928190320381E-06,-2.37090371228987E-05,2.8125,0,0
6.77433149576245E-07,-2.2433785488829E-05,2.8125,0,0
1.341965003121E-06,-2.29275556193898E-05,2.8125,0,0
2.98150575872569E-06,-2.08487344934838E-05,2.8125,0,0
4.17800265495316E-06,-2.07588727789698E-05,2.8125,0,0
4.88352407046477E-06,-1.97153131011873E-05,2.8125,0,0
6.25446500635007E-06,-1.96259516087594E-05,2.8125,0,0
7.07301205693511E-06,-1.7660393496044E-05,2.8125,0,0
7.79869424150093E-06,-1.65930086950539E-05,2.8125,0,0
8.04444061941467E-06,-1.74789347511251E-05,2.8125,0,0
7.42606789572164E-06,-2.18413970287656E-05,2.8125,0,0
7.34811237634858E-06,-2.42370570049388E-05,2.8125,0,0
7.40842733648606E-06,-2.33371010835981E-05,2.8125,0,0
4.63250034954399E-06,-1.53984710777877E-05,2.8125,0,0
5.65595155421761E-06,-2.00147533178097E-05,2.8125,0,0
3.30148941429798E-06,-1.42562748806085E-05,2.8125,0,0
5.84005420023459E-06,-1.9503697330947E-05,2.8125,0,0
6.84568612996372E-06,-1.6269770640065E-05,2.8125,0,0
7.97923894424457E-06,-1.92973602679558E-05,2.8125,0,0
7.28733766663936E-06,-1.72945128724677E-05,2.8125,0,0
8.32442856335547E-06,-1.68973583640764E-05,2.8125,0,0
8.15798921394162E-06,-1.52007105498342E-05,2.8125,0,0
7.09148162059137E-06,-1.46754446177511E-05,2.8125,0,0
5.90893750995747E-06,-1.52438651639386E-05,2.8125,0,0
4.76013065053849E-06,-1.55496163642965E-05,2.8125,0,0
4.50652896688553E-06,-1.72760173882125E-05,2.8125,0,0
3.70492125512101E-06,-1.78992395376554E-05,2.8125,0,0
3.96826271753525E-06,-1.93439427675912E-05,2.8125,0,0
4.29456395067973E-06,-1.76374105649302E-05,2.8125,0,0
4.31221178587293E-06,-1.74981869349722E-05,2.8125,0,0
3.82442385671311E-06,-1.49676070577698E-05,2.8125,0,0
4.63446212961571E-06,-1.40138718052185E-05,2.8125,0,0
4.59450302514597E-06,-1.28879482872435E-05,2.8125,0,0
4.81455026601907E-06,-1.3827190741722E-05,2.8125,0,0
5.53442487216671E-06,-1.34393349071615E-05,2.8125,0,0
6.15494036537712E-06,-1.41895816341275E-05,2.8125,0,0
4.5865444917581E-06,-1.54276367538841E-05,2.8125,0,0
2.33345826927689E-06,-1.57516824401682E-05,2.8125,0,0
1.85865462754009E-06,-1.42487024277216E-05,2.8125,0,0
3.31525393448828E-06,-1.36456274049124E-05,2.8125,0,0
3.95404322262038E-06,-1.10562032205053E-05,2.8125,0,0
5.7371012189833E-06,-1.5777834050823E-05,2.8125,0,0
3.33582079292682E-06,-1.38104669531458E-05,2.8125,0,0
2.79764822153084E-06,-1.93887390196323E-05,2.8125,0,0
2.55645659308357E-06,-1.80415117938537E-05,2.8125,0,0
5.19063496540184E-06,-1.95666434592567E-05,2.8125,0,0
5.37533924216405E-06,-2.02902829187224E-05,2.8125,0,0
3.72652857549838E-06,-2.36653158935951E-05,2.8125,0,0
1.7280849533563E-06,-2.36323176068254E-05,2.8125,0,0
1.1191344810868E-06,-2.1288862626534E-05,2.8125,0,0
2.21442178371944E-06,-1.83535939868307E-05,2.8125,0,0
2.30171576731664E-06,-1.58657567226328E-05,2.8125,0,0
1.45590183819877E-06,-1.68094811670017E-05,2.8125,0,0
4.80064784369461E-07,-1.73843782249605E-05,2.8125,0,0
3.21917582368769E-07,-1.69917111634277E-05,2.8125,0,0
1.03330000911228E-06,-1.45731291922857E-05,2.8125,0,0
2.9698003345402E-06,-1.5133969100134E-05,2.8125,0,0
2.81842608274019E-06,-1.49098923429847E-05,2.8125,0,0
1.67069018175425E-07,-1.43578718052595E-05,2.8125,0,0
-2.03226977646409E-06,-1.20751346912584E-05,2.8125,0,0
-9.21114576613036E-07,-1.13607075036271E-05,2.8125,0,0
1.55529039602698E-06,-1.187000907521E-05,2.8125,0,0
3.03157139569521E-06,-1.32339873744058E-05,2.8125,0,0
1.8264731806994E-06,-1.25470596685773E-05,2.8125,0,0
-4.98382121350005E-07,-1.21082030091202E-05,2.8125,0,0
-1.48793924381607E-06,-1.33885851028026E-05,2.8125,0,0
-1.99000808720484E-07,-1.44806799653452E-05,2.8125,0,0
8.26606139980868E-07,-1.10362534542219E-05,2.8125,0,0
1.15139096124039E-06,-1.54043391376035E-05,2.8125,0,0
2.61650001220914E-07,-1.10650771603105E-05,2.8125,0,0
-3.36421038582557E-07,-1.35678601509426E-05,2.8125,0,0
1.38895401846639E-07,-1.15392767838784E-05,2.8125,0,0
1.75632953869354E-06,-1.35156442411244E-05,2.8125,0,0
2.33063383348053E-06,-1.30206117319176E-05,2.8125,0,0
2.01864145310537E-06,-1.41693953992217E-05,2.8125,0,0
1.55431757775659E-06,-1.33280955196824E-05,2.8125,0,0
2.31709373110789E-06,-1.29471154650673E-05,2.8125,0,0
3.80059304916358E-06,-1.34113170133787E-05,2.8125,0,0
3.25394057654194E-06,-1.40463116622414E-05,2.8125,0,0
2.14080728255794E-06,-1.59651317517273E-05,2.8125,0,0
2.25437997869449E-06,-1.64633511303691E-05,2.8125,0,0
4.03991134589887E-06,-1.68637652677717E-05,2.8125,0,0
6.7102200773661E-06,-1.62106025527464E-05,2.8125,0,0
8.69590712682111E-06,-1.8343300325796E-05,2.8125,0,0
8.92035041033523E-06,-1.96644159586867E-05,2.8125,0,0
7.3177006925107E-06,-2.15070776903303E-05,2.8125,0,0
5.1847937356797E-06,-2.16523512790445E-05,2.8125,0,0
4.42955479229568E-06,-2.14777464861982E-05,2.8125,0,0
5.14894190928317E-06,-1.84665623237379E-05,2.8125,0,0
5.49137030247948E-06,-1.62620508490363E-05,2.8125,0,0
4.74903026770335E-06,-1.68445167219033E-05,2.8125,0,0
3.50189952769142E-06,-1.81100294867065E-05,2.8125,0,0
1.73952355453366E-06,-1.77059428096982E-05,2.8125,0,0
1.34948436425475E-07,-1.76856774487533E-05,2.8125,0,0
6.90905665123864E-07,-1.53803266584873E-05,2.8125,0,0
2.27172381528362E-06,-2.13435687328456E-05,2.8125,0,0
3.9228343666764E-06,-1.48898388943053E-05,2.8125,0,0
4.53374241260462E-06,-1.97291847143788E-05,2.8125,0,0
4.49741037300555E-06,-1.86624056368601E-05,2.8125,0,0
3.88719854527153E-06,-2.03507352125598E-05,2.8125,0,0
2.78573929790582E-06,-1.69638769875746E-05,2.8125,0,0
2.71944600171992E-06,-1.68329825100955E-05,2.8125,0,0
3.07320624415297E-06,-1.57760223373771E-05,2.8125,0,0
3.36098105435667E-06,-1.58889379235916E-05,2.8125,0,0
3.89473871109658E-06,-1.68614369613351E-05,2.8125,0,0
4.67432755613117E-06,-1.60000272444449E-05,2.8125,0,0
4.77064531878568E-06,-1.52005804920918E-05,2.8125,0,0
3.11300368593948E-06,-1.33982448460301E-05,2.8125,0,0
1.19951607757685E-06,-1.51271451613866E-05,2.8125,0,0
3.89034141790034E-07,-1.73639618878951E-05,2.8125,0,0
1.06001198219019E-06,-2.11787246371387E-05,2.8125,0,0
2.45394494413631E-06,-2.19093453779351E-05,2.8125,0,0
3.44216437042633E-06,-2.34597937378567E-05,2.8125,0,0
3.71463852388843E-06,-2.36099458561512E-05,2.8125,0,0
3.93016489397269E-06,-2.48394135269336E-05,2.8125,0,0
4.01415900341817E-06,-2.3871980374679E-05,2.8125,0,0
3.27027828461723E-06,-2.07333469006699E-05,2.8125,0,0
1.98883003577066E-06,-1.5930107110762E-05,2.8125,0,0
1.26969052871573E-06,-1.40425754580065E-05,2.8125,0,0
1.61802415732382E-06,-1.43649558594916E-05,2.8125,0,0
2.46770287049003E-06,-1.49069846884231E-05,2.8125,0,0
2.86075760413951E-06,-1.26778677440598E-05,2.8125,0,0
4.71928751721862E-06,-1.77165748027619E-05,2.8125,0,0
4.18047466155258E-06,-1.25934293464525E-05,2.8125,0,0
3.69706822311855E-06,-1.57453741849167E-05,2.8125,0,0
2.3124964627641E-06,-1.41478867590195E-05,2.8125,0,0
2.50989160122117E-06,-1.63424811034929E-05,2.8125,0,0
1.7950671917788E-06,-1.53198216139572E-05,2.8125,0,0
1.82984092589322E-06,-1.68582537298789E-05,2.8125,0,0
1.34258743855753E-06,-1.7281532564084E-05,2.8125,0,0
1.06561788015824E-06,-1.76698522409424E-05,4.39453125,0,0
1.21714037959464E-06,-1.82125750143314E-05,4.39453125,0,0
1.37355198148725E-06,-1.80655151780229E-05,4.39453125,0,0
1.95909092326474E-06,-1.84319815161871E-05,4.39453125,0,0
2.97959513773094E-06,-1.72813379322179E-05,4.39453125,0,0
4.29025385528803E-06,-1.75376862898702E-05,4.39453125,0,0
4.57253281638259E-06,-1.71759456861764E-05,4.39453125,0,0
4.71177418148727E-06,-1.83884239959298E-05,4.39453125,0,0
3.81048653252947E-06,-1.79301732714521E-05,4.39453125,0,0
2.99037196782592E-06,-1.85595672519412E-05,4.39453125,0,0
2.78774245998648E-06,-1.8254957467434E-05,4.39453125,0,0
3.82583993996377E-06,-1.83598258445272E-05,4.39453125,0,0
4.09822632718715E-06,-1.69830454979092E-05,4.39453125,0,0
4.17114279116504E-06,-1.64332213898888E-05,4.39453125,0,0
4.34383628089563E-06,-1.59813007485354E-05,4.39453125,0,0
4.1632988541096E-06,-1.72518357430818E-05,4.39453125,0,0
4.96675738759222E-06,-1.9388151486055E-05,4.39453125,0,0
4.79431309940992E-06,-2.01090242626378E-05,4.39453125,0,0
2.18093373405281E-06,-1.52515067384229E-05,4.39453125,0,0
2.04162483896653E-06,-1.98289781110361E-05,4.39453125,0,0
7.08899278833997E-07,-1.29650024973671E-05,4.39453125,0,0
1.91214189726452E-06,-1.67746002261993E-05,4.39453125,0,0
1.33920502776164E-06,-1.27440334836137E-05,4.39453125,0,0
7.58296380354295E-07,-1.46510110425879E-05,4.39453125,0,0
3.91577060554482E-07,-1.31723309095833E-05,4.39453125,0,0
1.9312037693453E-06,-1.45102358146687E-05,4.39453125,0,0
3.10162113237311E-06,-1.41493082992383E-05,4.39453125,0,0
3.83231963496655E-06,-1.43827683132258E-05,4.39453125,0,0
2.74280296252982E-06,-1.55124616867397E-05,4.39453125,0,0
1.5107103763512E-06,-1.61420211952645E-05,4.39453125,0,0
2.28791122935945E-06,-1.85478147614049E-05,4.39453125,0,0
2.92225126941048E-06,-2.04884818231221E-05,4.39453125,0,0
2.72848888016597E-06,-2.35987117775949E-05,4.39453125,0,0
2.24199538934045E-06,-2.50071898335591E-05,4.39453125,0,0
2.84170528175309E-06,-2.94323745038128E-05,4.39453125,0,0
2.49647246164386E-06,-3.09870083583519E-05,4.39453125,0,0
2.25085909733025E-06,-3.14501048706006E-05,4.39453125,0,0
1.95899269783695E-06,-2.88530136458576E-05,4.39453125,0,0
1.55023815295863E-06,-2.69410502369283E-05,4.39453125,0,0
1.33102116706141E-06,-2.40545996348374E-05,4.39453125,0,0
2.46475929088774E-06,-2.19839275814593E-05,4.39453125,0,0
3.62108721674304E-06,-1.99763744603843E-05,4.39453125,0,0
4.02901196139283E-06,-1.86096021934645E-05,4.39453125,0,0
4.93159950565314E-06,-1.66024310601642E-05,4.39453125,0,0
4.81776578453719E-06,-1.55454927153187E-05,4.39453125,0,0
1.63960896770732E-06,-1.21413859233144E-05,4.39453125,0,0
1.92349602912145E-06,-1.83831980393734E-05,4.39453125,0,0
1.32642765038327E-06,-1.47394584928406E-05,4.39453125,0,0
2.79134906122636E-06,-1.60209910973208E-05,4.39453125,0,0
3.83376618628972E-06,-1.26901013572933E-05,4.39453125,0,0
4.22107041231357E-06,-1.4437582649407E-05,4.39453125,0,0
2.830476660165E-06,-1.24482276078197E-05,4.39453125,0,0
3.25030146086647E-06,-1.20750182759366E-05,4.39453125,0,0
4.24616291638813E-06,-1.1705863471434E-05,4.39453125,0,0
4.13466523241368E-06,-1.13300093289581E-05,4.39453125,0,0
3.70580255548703E-06,-9.37857203098247E-06,4.39453125,0,0
3.64879406333785E-06,-6.64628896629438E-06,4.39453125,0,0
3.75718832401617E-06,-6.09621110925218E-06,4.39453125,0,0
3.61599018106062E-06,-5.30231818629545E-06,4.39453125,0,0
4.69596579932841E-06,-7.00872078596149E-06,4.39453125,0,0
6.26665632807999E-06,-8.82274434843566E-06,4.39453125,0,0
6.8055333031225E-06,-1.14388230940676E-05,4.39453125,0,0
5.40419432581984E-06,-1.14211488835281E-05,4.39453125,0,0
4.40979511040496E-06,-1.17954123197705E-05,4.39453125,0,0
5.00305441164528E-06,-1.11208164526033E-05,4.39453125,0,0
6.63405489831348E-06,-1.13904470708803E-05,4.39453125,0,0
7.79197216616012E-06,-1.16102828542353E-05,4.39453125,0,0
7.76295019022655E-06,-1.29382960949442E-05,4.39453125,0,0
6.63408263790188E-06,-1.27263983813464E-05,4.39453125,0,0
6.35496962786419E-06,-1.14974473035545E-05,4.39453125,0,0
6.82536210661056E-06,-1.16729843284702E-05,4.39453125,0,0
6.32833507552277E-06,-1.38687682920136E-05,4.39453125,0,0
4.62391653854866E-06,-1.32159757413319E-05,4.39453125,0,0
7.63748994359048E-06,-1.95493321371032E-05,4.39453125,0,0
7.92701575846877E-06,-1.52098109538201E-05,4.39453125,0,0
9.03592444956303E-06,-1.80747774720658E-05,4.39453125,0,0
6.0461275097623E-06,-1.53343335114187E-05,4.39453125,0,0
5.48693424207158E-06,-1.69890226970892E-05,4.39453125,0,0
5.29178259967011E-06,-1.62519099831115E-05,4.39453125,0,0
5.54562257093494E-06,-1.90698101505404E-05,4.39453125,0,0
5.58430201635929E-06,-2.33177106565563E-05,4.39453125,0,0
6.6638449425227E-06,-2.63344918494113E-05,4.39453125,0,0
6.12873054706142E-06,-2.53841317316983E-05,4.39453125,0,0
4.03954345529201E-06,-2.31154263019562E-05,4.39453125,0,0
3.50171717400372E-06,-2.36198175116442E-05,4.39453125,0,0
4.30842055720859E-06,-2.35005682043266E-05,4.39453125,0,0
5.84360486755031E-06,-2.30863752221921E-05,4.39453125,0,0
6.63574564896408E-06,-2.13238436117535E-05,4.39453125,0,0
7.39701681595761E-06,-2.1312198441592E-05,4.39453125,0,0
7.20713296686881E-06,-1.92890656762756E-05,4.39453125,0,0
7.61919682190637E-06,-1.79642629518639E-05,4.39453125,0,0
7.91407364886254E-06,-1.66685422300361E-05,4.39453125,0,0
7.74675027059857E-06,-1.71937190316385E-05,4.39453125,0,0
6.7996334109921E-06,-1.69387658388587E-05,4.39453125,0,0
7.09682763044839E-06,-1.79485396074597E-05,4.39453125,0,0
7.80031314207008E-06,-1.7749047401594E-05,4.39453125,0,0
8.47512092150282E-06,-1.85093904292444E-05,4.39453125,0,0
7.28869554222911E-06,-2.06155309570022E-05,4.39453125,0,0
5.50864569959231E-06,-2.28816425078548E-05,4.39453125,0,0
3.27247516906937E-06,-2.12288050533971E-05,4.39453125,0,0
4.50886454927968E-06,-3.28274254570715E-05,4.39453125,0,0
4.36433401773684E-06,-2.66913302766625E-05,4.39453125,0,0
5.0337666834821E-06,-2.73227142315591E-05,4.39453125,0,0
2.26430233851715E-06,-1.8691844161367E-05,4.39453125,0,0
1.93009350368811E-06,-1.9486347810016E-05,4.39453125,0,0
2.61067725659814E-06,-1.50887935888022E-05,4.39453125,0,0
4.17871660829405E-06,-1.52716402226361E-05,4.39453125,0,0
3.41205645781884E-06,-1.45599560710252E-05,4.39453125,0,0
2.36693495025975E-06,-1.39407493406907E-05,4.39453125,0,0
2.54910264629871E-06,-1.36702165036695E-05,4.39453125,0,0
3.81421295969631E-06,-1.31966726257815E-05,4.39453125,0,0
3.69971530744806E-06,-1.51758831634652E-05,4.39453125,0,0
1.49471088661812E-06,-1.60649196914164E-05,4.39453125,0,0
6.07776712513441E-07,-1.75058521563187E-05,4.39453125,0,0
1.066699724106E-06,-1.33288749566418E-05,4.39453125,0,0
2.27297732635634E-06,-1.07644900708692E-05,4.39453125,0,0
1.93828645933536E-06,-8.24827384349192E-06,4.39453125,0,0
1.79828771251778E-06,-9.77293257165002E-06,4.39453125,0,0
1.32814409425919E-06,-9.96885137283243E-06,4.39453125,0,0
3.91281076872474E-07,-1.1498772437335E-05,4.39453125,0,0
-1.47314256082609E-06,-1.21776520245476E-05,4.39453125,0,0
-1.74154763499246E-06,-1.42400640470441E-05,4.39453125,0,0
-2.09616928259493E-06,-1.51681933857617E-05,4.39453125,0,0
-4.25039161200402E-06,-1.62345968419686E-05,4.39453125,0,0
-6.301440862444E-06,-1.56269397848519E-05,4.39453125,0,0
-6.30088561592856E-06,-1.39141293402645E-05,4.39453125,0,0
-3.23834251503285E-06,-9.69723441812675E-06,4.39453125,0,0
-3.22862911161792E-06,-1.34472902573179E-05,4.39453125,0,0
-1.6617976825728E-06,-1.18889793156995E-05,4.39453125,0,0
-4.13839597968035E-06,-1.58359707711497E-05,4.39453125,0,0
-2.69984070655482E-06,-1.37301194627071E-05,4.39453125,0,0
-2.48216542786395E-06,-1.58239345182665E-05,4.39453125,0,0
-1.85276007869106E-06,-1.54820681927959E-05,4.39453125,0,0
-1.27354405776714E-06,-1.63893655553693E-05,4.39453125,0,0
-5.90868239669362E-07,-1.59820683620637E-05,4.39453125,0,0
-1.04306013781752E-06,-1.67643047461752E-05,4.39453125,0,0
-2.01806551558548E-06,-1.74997294379864E-05,4.39453125,0,0
-1.63034724209865E-06,-1.82449457497569E-05,4.39453125,0,0
-4.69801022973115E-07,-2.07869634323288E-05,4.39453125,0,0
1.12898271709128E-06,-2.17578872252489E-05,4.39453125,0,0
2.75734487331647E-06,-2.14866613532649E-05,4.39453125,0,0
4.6190903049137E-06,-1.852950117609E-05,4.39453125,0,0
5.21419133292511E-06,-1.84142718353542E-05,4.39453125,0,0
5.51620996702695E-06,-1.98585385078331E-05,4.39453125,0,0
4.87715215058415E-06,-2.24804116442101E-05,4.39453125,0,0
4.44249189968104E-06,-2.3444154066965E-05,4.39453125,0,0
4.51487585451105E-06,-2.55427657975815E-05,4.39453125,0,0
4.54948531114496E-06,-2.63242909568362E-05,4.39453125,0,0
3.74905607714027E-06,-2.78649731626501E-05,4.39453125,0,0
3.48373578162864E-06,-3.00005722237984E-05,4.39453125,0,0
3.62952914656489E-06,-3.05098765238654E-05,4.39453125,0,0
4.23051733378088E-06,-2.71677163254935E-05,4.39453125,0,0
4.62625166619546E-06,-2.41942907450721E-05,4.39453125,0,0
1.73737862496637E-06,-1.80998031282797E-05,4.39453125,0,0
-6.06460162089206E-07,-2.37723033933435E-05,4.39453125,0,0
-2.69776273853495E-06,-1.5733912732685E-05,4.39453125,0,0
2.82516850802494E-07,-1.96946257347008E-05,4.39453125,0,0
1.39157009471091E-06,-1.41643286042381E-05,4.39453125,0,0
2.76989703706931E-06,-1.55535162775777E-05,4.39453125,0,0
1.73211253695627E-06,-1.26577488117618E-05,4.39453125,0,0
2.10660800803453E-06,-1.28907622638508E-05,4.39453125,0,0
2.13473299481848E-06,-1.10983455670066E-05,4.39453125,0,0
2.287061761308E-06,-1.14051117634517E-05,4.39453125,0,0
1.85486726422823E-06,-1.3561308151111E-05,4.39453125,0,0
1.67875828083197E-06,-1.45219773912686E-05,5.625,0,0
2.88056889985455E-06,-1.50070409290493E-05,5.625,0,0
4.20784454036038E-06,-1.34358133436763E-05,5.625,0,0
5.71268265048275E-06,-1.48532799357781E-05,5.625,0,0
6.06507001066348E-06,-1.43804854815244E-05,5.625,0,0
6.68648726787069E-06,-1.51443573486176E-05,5.625,0,0
6.83057669448317E-06,-1.35265672724927E-05,5.625,0,0
6.61594003759092E-06,-1.50990399561124E-05,5.625,0,0
6.2666599660588E-06,-1.61215302796336E-05,5.625,0,0
7.68285553931491E-06,-1.78897917066934E-05,5.625,0,0
8.01463284005877E-06,-1.65414112416329E-05,5.625,0,0
7.27220867702272E-06,-1.65765286510577E-05,5.625,0,0
5.74454315938056E-06,-1.69814447872341E-05,5.625,0,0
5.50534969079308E-06,-1.78950522240484E-05,5.625,0,0
8.43685393192573E-06,-1.83220872713719E-05,5.625,0,0
1.20815957416198E-05,-1.9871402400895E-05,5.625,0,0
9.3800244940212E-06,-1.67576381500112E-05,5.625,0,0
1.31052256620023E-05,-2.32648962992243E-05,5.625,0,0
1.02845278888708E-05,-1.76419598574284E-05,5.625,0,0
1.31390816022758E-05,-2.23478782572784E-05,5.625,0,0
1.00671168183908E-05,-1.80907154572196E-05,5.625,0,0
9.0963922048104E-06,-1.91676172107691E-05,5.625,0,0
6.53016468277201E-06,-1.65323326655198E-05,5.625,0,0
8.22516994958278E-06,-1.89496840903303E-05,5.625,0,0
8.69344512466341E-06,-2.05180931516225E-05,5.625,0,0
8.31375291454606E-06,-2.16125990846194E-05,5.625,0,0
7.11645498086E-06,-2.18882050830871E-05,5.625,0,0
4.87127817905275E-06,-1.96557248273166E-05,5.625,0,0
4.07993502449244E-06,-1.80428942258004E-05,5.625,0,0
4.17254250351107E-06,-1.52222592078033E-05,5.625,0,0
5.39499569640611E-06,-1.43035795190372E-05,5.625,0,0
3.8031409985706E-06,-1.19083806566778E-05,5.625,0,0
2.15021532312676E-06,-1.27569765027147E-05,5.625,0,0
5.27959855389781E-07,-1.2766380677931E-05,5.625,0,0
1.34805338802835E-06,-1.39912581289536E-05,5.625,0,0
1.16829676244379E-06,-1.3373067304201E-05,5.625,0,0
1.27518842418795E-06,-1.45925469041686E-05,5.625,0,0
1.3319994423E-06,-1.47184109664522E-05,5.625,0,0
3.07679397337779E-06,-1.40688571264036E-05,5.625,0,0
2.65162293544563E-06,-1.20265976875089E-05,5.625,0,0
3.56104976617644E-07,-1.13198775579804E-05,5.625,0,0
-1.93166329154337E-06,-1.14878503154614E-05,5.625,0,0
-1.50918242525222E-06,-1.31025599330314E-05,5.625,0,0
7.04391709405172E-07,-1.13296673589502E-05,5.625,0,0
-1.10153031585014E-07,-1.73487769643543E-05,5.625,0,0
-2.15456702790107E-06,-1.44294635902043E-05,5.625,0,0
-3.23301355820149E-06,-1.62385513249319E-05,5.625,0,0
-3.2699508665246E-06,-1.29769441628014E-05,5.625,0,0
-1.34935896767274E-06,-1.37321185320616E-05,5.625,0,0
9.4437484676746E-07,-1.19638643809594E-05,5.625,0,0
2.4492451302649E-06,-1.21631364891073E-05,5.625,0,0
2.69685506282258E-06,-1.20584845717531E-05,5.625,0,0
2.27980399358785E-06,-1.12068964881473E-05,5.625,0,0
1.79244841547188E-06,-9.95512255030917E-06,5.625,0,0
3.91152781276105E-07,-1.04421551441192E-05,5.625,0,0
-3.21046798035241E-07,-1.32359728013398E-05,5.625,0,0
2.26635620492743E-07,-1.41298878588714E-05,5.625,0,0
1.05408707895549E-06,-1.51530703078606E-05,5.625,0,0
1.25281064811134E-06,-1.60035942826653E-05,5.625,0,0
7.05954960267263E-07,-1.81444229383487E-05,5.625,0,0
-5.41106714990747E-07,-1.67095731740119E-05,5.625,0,0
-9.79995434136072E-07,-1.52288466779282E-05,5.625,0,0
-1.99065851802516E-07,-1.43842717079679E-05,5.625,0,0
8.88322972514288E-07,-1.54042099893559E-05,5.625,0,0
1.10749647319608E-06,-1.5947920473991E-05,5.625,0,0
1.71396288806136E-06,-1.72829804796493E-05,5.625,0,0
2.28819067160657E-06,-1.88905905815773E-05,5.625,0,0
2.21994127969083E-06,-2.03573872568086E-05,5.625,0,0
3.44002796737186E-06,-1.93686482816702E-05,5.625,0,0
4.34118692282937E-06,-1.71409483300522E-05,5.625,0,0
4.89693366034771E-06,-1.29337604448665E-05,5.625,0,0
9.20571528695291E-06,-1.74630458786851E-05,5.625,0,0
9.31074828258716E-06,-1.17904719445505E-05,5.625,0,0
9.56076382863102E-06,-1.3733745618083E-05,5.625,0,0
8.0303971117246E-06,-9.86576196737587E-06,5.625,0,0
7.78050252847606E-06,-1.19825599540491E-05,5.625,0,0
5.70874499317142E-06,-1.11438630483462E-05,5.625,0,0
3.88639955417602E-06,-1.32693676277995E-05,5.625,0,0
3.01920886158769E-06,-1.41415912366938E-05,5.625,0,0
4.60350884168292E-06,-1.43623819894856E-05,5.625,0,0
6.48969489702722E-06,-1.39145950015518E-05,5.625,0,0
6.3259108173952E-06,-1.24957787193125E-05,5.625,0,0
4.41685915575363E-06,-1.30300177261233E-05,5.625,0,0
1.81361383511103E-06,-1.38938721647719E-05,5.625,0,0
2.35776070667271E-07,-1.66152531164698E-05,5.625,0,0
-1.32286606913112E-06,-1.82321364263771E-05,5.625,0,0
-9.66828110904316E-07,-2.19437879422912E-05,5.625,0,0
2.36444634538202E-07,-2.28198277909542E-05,5.625,0,0
8.8682594423517E-07,-2.36555679293815E-05,5.625,0,0
-1.05019928753336E-07,-2.44042403210187E-05,5.625,0,0
-8.32146270113299E-07,-2.82913224509684E-05,5.625,0,0
