biceps_emg, triceps_emg, subject_position, position_estimate, brace_position
-2.70104392257053E-05,1.23749023259734E-05,2.98828125,0,0
-2.44283874053508E-05,1.3850990399078E-05,2.98828125,0,0
-2.33504433708731E-05,1.45963613249478E-05,2.98828125,0,0
-2.42290752794361E-05,1.35556401801296E-05,2.98828125,0,0
-2.3947319277795E-05,1.09536085801665E-05,2.98828125,0,0
-2.39757664530771E-05,1.06487414086587E-05,2.98828125,0,0
-2.15434938581893E-05,1.18104553621379E-05,2.98828125,0,0
-2.19094181375112E-05,1.23253948913771E-05,2.98828125,0,0
-2.07858047360787E-05,9.66472634900128E-06,2.98828125,0,0
-2.21040390897542E-05,7.7118329500081E-06,2.98828125,0,0
-2.12192717299331E-05,7.56629106035689E-06,2.98828125,0,0
-2.26781230594497E-05,8.14508075563936E-06,2.98828125,0,0
-2.2602533135796E-05,8.54812788020354E-06,2.98828125,0,0
-2.41762500081677E-05,1.05847075246857E-05,2.98828125,0,0
-2.37085023400141E-05,1.20029508252628E-05,2.98828125,0,0
-2.39771270571509E-05,1.23156396512059E-05,2.98828125,0,0
-2.3200716896099E-05,1.09985030576354E-05,2.98828125,0,0
-2.30803889280651E-05,8.63145123730646E-06,2.98828125,0,0
-2.29666220548097E-05,7.71303166402504E-06,2.98828125,0,0
-2.29732650041115E-05,9.49864261201583E-06,2.98828125,0,0
-1.88057438208489E-05,9.11994266061811E-06,2.98828125,0,0
-2.66872884822078E-05,1.32302684505703E-05,2.98828125,0,0
-2.13836392504163E-05,9.12301402422599E-06,2.98828125,0,0
-2.76762220892124E-05,9.81036100711208E-06,2.98828125,0,0
-2.5011047910084E-05,8.94144704943756E-06,2.98828125,0,0
-2.85072510450846E-05,1.16327182695386E-05,2.98828125,0,0
-2.63438178080833E-05,1.08335407276172E-05,2.98828125,0,0
-2.67430605163099E-05,1.16909177449998E-05,2.98828125,0,0
-2.59167263720883E-05,1.08257381725707E-05,2.98828125,0,0
-2.74513240583474E-05,9.68682434177026E-06,2.98828125,0,0
-2.94882756861625E-05,9.85517544904724E-06,2.98828125,0,0
-2.97807364404434E-05,9.61021123657702E-06,2.98828125,0,0
-2.98221293633105E-05,9.03110594663303E-06,2.98828125,0,0
-2.72238321485929E-05,8.1066782513517E-06,2.98828125,0,0
-2.71438875643071E-05,8.72439159138594E-06,2.98828125,0,0
-2.59525440924335E-05,9.42550559557276E-06,2.98828125,0,0
-2.7400130420574E-05,1.19748956421972E-05,2.98828125,0,0
-2.5991374059231E-05,1.33334315250977E-05,2.98828125,0,0
-2.61247641901718E-05,1.46159563882975E-05,2.98828125,0,0
-2.44612710957881E-05,1.39881622089888E-05,2.98828125,0,0
-2.36717223742744E-05,1.30788939713966E-05,2.98828125,0,0
-2.15641957765911E-05,1.08804470073665E-05,2.98828125,0,0
-2.24385257752147E-05,9.65622984949732E-06,2.98828125,0,0
-2.45025239564711E-05,1.05400522443233E-05,2.98828125,0,0
-2.73583755188156E-05,1.29927520902129E-05,2.98828125,0,0
-2.87129969365196E-05,1.29761538119055E-05,2.98828125,0,0
-2.77641120192129E-05,1.19685373647371E-05,2.98828125,0,0
-2.05634569283575E-05,9.53517792368075E-06,2.98828125,0,0
-2.94800738629419E-05,1.34092024381971E-05,2.98828125,0,0
-2.40469544223743E-05,9.63285128818825E-06,2.98828125,0,0
-3.02155349345412E-05,1.24267226055963E-05,2.98828125,0,0
-2.39289784076391E-05,1.11241533886641E-05,2.98828125,0,0
-2.45409519266104E-05,1.23194886327838E-05,2.98828125,0,0
-2.21935642912285E-05,1.23620275189751E-05,2.98828125,0,0
-2.47026819124585E-05,1.36616108648013E-05,2.98828125,0,0
-2.49012609856436E-05,1.21366147141089E-05,2.98828125,0,0
-2.49331551458454E-05,1.03286629382637E-05,2.98828125,0,0
-2.4543996914872E-05,9.04993885342265E-06,2.98828125,0,0
-2.35420156968758E-05,7.31998989067506E-06,2.98828125,0,0
-2.39322780544171E-05,5.75810963709955E-06,2.98828125,0,0
-2.17462657019496E-05,4.62957632407779E-06,2.98828125,0,0
-2.20398142118938E-05,6.29495161774685E-06,2.98828125,0,0
-2.15370127989445E-05,6.85866780258948E-06,2.98828125,0,0
-2.31916674238164E-05,8.11726840765914E-06,2.98828125,0,0
-2.09806712518912E-05,9.00305349205155E-06,2.98828125,0,0
-2.09915997402277E-05,1.16395276563708E-05,2.98828125,0,0
-2.12511313293362E-05,1.30797006931971E-05,2.98828125,0,0
-2.38324319070671E-05,1.39624644361902E-05,2.98828125,0,0
-2.40652152569965E-05,1.44724044730538E-05,2.98828125,0,0
-2.50962602876825E-05,1.60876224981621E-05,2.98828125,0,0
-2.58992167800898E-05,1.67419220815646E-05,2.98828125,0,0
-2.75993497780291E-05,1.71357351064216E-05,2.98828125,0,0
-2.6803141736309E-05,1.56972328113625E-05,2.98828125,0,0
-2.53573598456569E-05,1.28381961985724E-05,2.98828125,0,0
-2.13907605939312E-05,9.81007451628102E-06,2.98828125,0,0
-3.06275323964655E-05,1.39246740218368E-05,2.98828125,0,0
-2.26701740757562E-05,1.12610186988604E-05,2.98828125,0,0
-2.57176652667113E-05,1.47589171319851E-05,2.98828125,0,0
-2.03097824851284E-05,1.16602550406242E-05,2.98828125,0,0
-2.35351799346972E-05,1.13103315015906E-05,2.98828125,0,0
-2.0930077880621E-05,9.1952988441335E-06,2.98828125,0,0
-2.20285510295071E-05,7.54041684558615E-06,2.98828125,0,0
-2.12128088605823E-05,5.45792272532708E-06,2.98828125,0,0
-2.14159190363716E-05,5.45001694263192E-06,2.98828125,0,0
-2.18534369196277E-05,7.06182208887185E-06,2.98828125,0,0
-2.06507738766959E-05,8.37926199892536E-06,2.98828125,0,0
-2.1461144569912E-05,9.45401370699983E-06,2.98828125,0,0
-2.07453449547756E-05,9.55108498601476E-06,2.98828125,0,0
-2.13901930692373E-05,1.0750727597042E-05,2.98828125,0,0
-1.87990845006425E-05,9.07437151909107E-06,2.98828125,0,0
-1.85756052815123E-05,7.28369604985346E-06,2.98828125,0,0
-1.65661185747013E-05,6.05254444963066E-06,2.98828125,0,0
-1.74040796991903E-05,7.13819326847442E-06,2.98828125,0,0
-1.71818010130664E-05,7.0469700403919E-06,2.98828125,0,0
-1.82984913408291E-05,7.50227582102525E-06,2.98828125,0,0
-1.75101558852475E-05,8.34592174214777E-06,2.98828125,0,0
-1.90716782526579E-05,1.14380272862036E-05,2.98828125,0,0
-2.05406740860781E-05,1.30658991110977E-05,2.98828125,0,0
-2.14509327634005E-05,1.17253575808718E-05,2.98828125,0,0
-2.09642166737467E-05,9.53790458879666E-06,2.98828125,0,0
-2.12410050153267E-05,1.01588184406864E-05,2.98828125,0,0
-1.70420971699059E-05,1.02067751868162E-05,2.98828125,0,0
-2.28505978157045E-05,1.55701181938639E-05,2.98828125,0,0
-1.62976921274094E-05,1.18248308353941E-05,2.98828125,0,0
-2.14144947676687E-05,1.17748832053621E-05,2.98828125,0,0
-1.73937460203888E-05,8.37687730381731E-06,2.98828125,0,0
-1.8932716557174E-05,1.01313908089651E-05,2.98828125,0,0
-1.73462613020092E-05,9.91257638816023E-06,2.98828125,0,0
-1.95458778762259E-05,1.16391820483841E-05,2.98828125,0,0
-1.96430119103752E-05,1.16990513561177E-05,2.98828125,0,0
-2.0806684915442E-05,1.09467609945568E-05,2.98828125,0,0
-2.31698231800692E-05,1.10398741526296E-05,2.98828125,0,0
-2.31530466408003E-05,1.14864205897902E-05,2.98828125,0,0
-2.25971161853522E-05,1.18499192467425E-05,2.98828125,0,0
-2.03740419237874E-05,9.84035523288185E-06,2.98828125,0,0
-2.17887827602681E-05,8.81578125699889E-06,2.98828125,0,0
-2.23486968025099E-05,7.8340790423681E-06,2.98828125,0,0
-2.5107698093052E-05,8.15981366031338E-06,2.98828125,0,0
-2.61744844465284E-05,7.73923693486722E-06,2.98828125,0,0
-2.78780644293875E-05,8.42949793877779E-06,2.98828125,0,0
-2.68677049461985E-05,7.63977368478663E-06,2.98828125,0,0
-2.7091518859379E-05,6.63139871903695E-06,2.98828125,0,0
-2.6908184736385E-05,5.70160909774131E-06,2.98828125,0,0
-2.81433949567145E-05,7.49132050259504E-06,2.98828125,0,0
-2.79246651189169E-05,9.47473381529562E-06,2.98828125,0,0
-2.75495658570435E-05,1.05345861811657E-05,2.98828125,0,0
-2.55962731898762E-05,1.00358001873246E-05,2.98828125,0,0
-2.39119472098537E-05,1.02222165878629E-05,2.98828125,0,0
-2.02894443646073E-05,9.94539550447371E-06,2.98828125,0,0
-2.90925272565801E-05,1.41182863444556E-05,2.98828125,0,0
-2.10969337786082E-05,1.14090616989415E-05,2.98828125,0,0
-2.51549299719045E-05,1.53058426803909E-05,2.98828125,0,0
-2.29257657338167E-05,1.36581629703869E-05,2.98828125,0,0
-2.87641669274308E-05,1.4864381228108E-05,2.98828125,0,0
-2.7995523851132E-05,1.35916152430582E-05,2.98828125,0,0
-2.77516901405761E-05,1.30042817545473E-05,2.98828125,0,0
-2.51091714744689E-05,1.117363171943E-05,2.98828125,0,0
-2.47090974880848E-05,9.75807506620185E-06,2.98828125,0,0
-2.49105578404851E-05,9.6887915788102E-06,2.98828125,0,0
-2.4287744963658E-05,1.07122996269027E-05,2.98828125,0,0
-2.58459112956189E-05,1.30663411255227E-05,2.98828125,0,0
-2.59872704191366E-05,1.40944966915413E-05,2.98828125,0,0
-2.76618247880833E-05,1.52669908857206E-05,2.98828125,0,0
-2.60039560089353E-05,1.49595070979558E-05,2.98828125,0,0
-2.64144127868349E-05,1.51878130054683E-05,2.98828125,0,0
-2.61408877122449E-05,1.33696466946276E-05,2.98828125,0,0
-2.83880963252159E-05,1.27754728964646E-05,2.98828125,0,0
-2.77024537354009E-05,1.21086259241565E-05,2.98828125,0,0
-2.73318346444285E-05,1.16617720777867E-05,2.98828125,0,0
-2.53356683970196E-05,9.39079200179549E-06,2.98828125,0,0
-2.44120165007189E-05,7.74965337768663E-06,2.98828125,0,0
-2.34705585171469E-05,7.58656233301735E-06,2.98828125,0,0
-2.47082170972135E-05,8.96277560968883E-06,2.98828125,0,0
-2.56071543844882E-05,9.25540552998427E-06,2.98828125,0,0
-2.55472805292811E-05,1.02308467830881E-05,2.98828125,0,0
-1.98860798263922E-05,1.1305447515042E-05,2.98828125,0,0
-2.83773315459257E-05,1.71063584275544E-05,2.98828125,0,0
-2.27428445214173E-05,1.39042849696125E-05,2.98828125,0,0
-2.83351419056999E-05,1.6006541045499E-05,2.98828125,0,0
-2.47038387897192E-05,1.2010452337563E-05,2.98828125,0,0
-2.87140192085644E-05,9.80853383225622E-06,2.98828125,0,0
-2.58990457950858E-05,6.60604928270914E-06,2.98828125,0,0
-2.55555696639931E-05,8.63275818119291E-06,2.98828125,0,0
-2.35081861319486E-05,1.01832474683761E-05,2.98828125,0,0
-2.39128657995025E-05,1.15318607640802E-05,2.98828125,0,0
-2.5655757781351E-05,1.3452187886287E-05,2.98828125,0,0
-2.55638205999276E-05,1.49939232869656E-05,2.98828125,0,0
-2.60003453149693E-05,1.57386621140176E-05,2.98828125,0,0
-2.48095111601288E-05,1.37359165819362E-05,2.98828125,0,0
-2.61760396824684E-05,1.31457491079345E-05,2.98828125,0,0
-2.54879560088739E-05,1.30231937873759E-05,2.98828125,0,0
-2.63587044173619E-05,1.46474276334629E-05,2.98828125,0,0
-2.42860351136187E-05,1.4236606148188E-05,2.98828125,0,0
-2.47002899413928E-05,1.36736816784833E-05,2.98828125,0,0
-2.3737376977806E-05,1.21993189168279E-05,2.98828125,0,0
-2.40972094616154E-05,1.19544993140153E-05,2.98828125,0,0
-2.35294755839277E-05,1.08389067463577E-05,2.98828125,0,0
-2.49049608100904E-05,1.11333874883712E-05,2.98828125,0,0
-2.4312346795341E-05,1.08239310065983E-05,2.98828125,0,0
-2.43722843151772E-05,9.30902024265379E-06,2.98828125,0,0
-2.4722832677071E-05,7.37996924726758E-06,2.98828125,0,0
-2.35541665460914E-05,7.80552090873243E-06,2.98828125,0,0
-1.79900453076698E-05,9.00466602615779E-06,2.98828125,0,0
-2.46039944613585E-05,1.52506991071277E-05,2.98828125,0,0
-1.84054333658423E-05,1.38871464514523E-05,2.98828125,0,0
-2.39060864259955E-05,1.56974165292922E-05,2.98828125,0,0
-2.05675896722823E-05,1.41462423925987E-05,2.98828125,0,0
-2.32814782066271E-05,1.39572266562027E-05,2.98828125,0,0
-2.09751433430938E-05,1.11455792648485E-05,2.98828125,0,0
-2.24868654186139E-05,7.35928233552841E-06,2.98828125,0,0
-2.26938009291189E-05,3.03489173347771E-07,2.98828125,0,0
-2.36517244047718E-05,-4.10359461966436E-06,2.98828125,0,0
-2.41790785366902E-05,-1.3248051118353E-06,2.98828125,0,0
-2.20551846723538E-05,5.01686736242846E-06,2.98828125,0,0
-2.09837016882375E-05,1.12203088065144E-05,2.98828125,0,0
-1.95221546164248E-05,1.3817242688674E-05,2.98828125,0,0
-2.12845952773932E-05,1.39427293106564E-05,2.98828125,0,0
-2.14870815398172E-05,1.13715732368291E-05,2.98828125,0,0
-2.34051512961742E-05,1.00779780041194E-05,2.98828125,0,0
-2.19425746763591E-05,8.97900827112608E-06,2.98828125,0,0
-2.17104570765514E-05,7.90547437645728E-06,2.98828125,0,0
-2.09097379411105E-05,6.95672088113497E-06,2.98828125,0,0
-2.27519594773185E-05,8.00930683908518E-06,2.98828125,0,0
-2.31498925131746E-05,8.09481116448296E-06,2.98828125,0,0
-2.40872868744191E-05,8.05049512564437E-06,2.98828125,0,0
-2.45457376877312E-05,8.3730228652712E-06,2.98828125,0,0
-2.63089877989842E-05,9.1702104327851E-06,2.98828125,0,0
-2.73445693892427E-05,8.95739503903314E-06,2.98828125,0,0
-2.718321957218E-05,8.38237428979483E-06,2.98828125,0,0
-2.16474727494642E-05,6.40226335235639E-06,2.98828125,0,0
-2.94531801046105E-05,8.3032055044896E-06,2.98828125,0,0
-2.1037194528617E-05,5.53631070943084E-06,2.98828125,0,0
-2.71782428171718E-05,7.22854520063265E-06,2.98828125,0,0
-2.30077075684676E-05,5.29424187334371E-06,2.98828125,0,0
-2.64966674876632E-05,7.86192049417878E-06,2.98828125,0,0
-2.4505543478881E-05,1.06195629996364E-05,2.98828125,0,0
-2.61306558968499E-05,1.18205962280626E-05,2.98828125,0,0
-2.49240492848912E-05,1.03197689895751E-05,2.98828125,0,0
-2.39997389144264E-05,9.50984394876286E-06,2.98828125,0,0
-2.35133993555792E-05,1.00856905191904E-05,2.98828125,0,0
-2.25459898501867E-05,1.12879033622448E-05,2.98828125,0,0
-2.36298801610246E-05,1.22546653074096E-05,2.98828125,0,0
-2.168862556573E-05,1.08255153463688E-05,2.98828125,0,0
-2.16957851080224E-05,9.74267459241673E-06,2.98828125,0,0
-2.00860395125346E-05,9.40689915296389E-06,2.98828125,0,0
-2.179252805945E-05,1.0271623978042E-05,2.98828125,0,0
-2.19378380279522E-05,9.42765018407954E-06,2.98828125,0,0
-2.4764509362285E-05,8.82310087035876E-06,2.98828125,0,0
-2.50441516982391E-05,7.97291613707785E-06,2.98828125,0,0
-2.51919263973832E-05,7.2570414886286E-06,2.98828125,0,0
-2.2586671548197E-05,6.59009265291388E-06,2.98828125,0,0
-2.20711299334653E-05,8.21678167994833E-06,2.98828125,0,0
-2.2488484319183E-05,9.71759982348885E-06,2.98828125,0,0
-2.38891170738498E-05,9.4681054179091E-06,2.98828125,0,0
-2.38272496062564E-05,8.4064186012256E-06,2.98828125,0,0
-2.36397972912528E-05,8.06727439339738E-06,2.98828125,0,0
-1.96286091522779E-05,6.81375877320534E-06,2.98828125,0,0
-2.87635029962985E-05,1.04584523796802E-05,2.98828125,0,0
-2.23439019464422E-05,8.65231777424924E-06,2.98828125,0,0
-2.57497722486733E-05,1.06253364720033E-05,2.98828125,0,0
-2.17650776903611E-05,1.11250456029666E-05,2.98828125,0,0
-2.65207563643344E-05,1.36795724756666E-05,2.98828125,0,0
-2.57854444498662E-05,1.27043904285529E-05,2.98828125,0,0
-2.54582755587762E-05,1.13389733087388E-05,2.98828125,0,0
-2.31373596761841E-05,9.51067977439379E-06,2.98828125,0,0
-2.30731802730588E-05,9.48984052229207E-06,2.98828125,0,0
-2.32814654737012E-05,1.10512364699389E-05,2.98828125,0,0
-2.20025449380046E-05,1.24668222269975E-05,2.98828125,0,0
-2.16958669625456E-05,1.38649593282025E-05,2.98828125,0,0
-2.08924047910841E-05,1.45260237331968E-05,2.98828125,0,0
-2.28574263019254E-05,1.51081958392751E-05,2.98828125,0,0
-2.20129459194141E-05,1.37441811602912E-05,2.98828125,0,0
-2.29034358198987E-05,1.27893445096561E-05,2.98828125,0,0
-2.22452108573634E-05,1.20882978080772E-05,2.98828125,0,0
-2.43701997533208E-05,1.30750513562816E-05,2.98828125,0,0
-2.53121288551483E-05,1.3015968761465E-05,2.98828125,0,0
-2.65272483375156E-05,1.25059141282691E-05,2.98828125,0,0
-2.51010624197079E-05,1.14841895992868E-05,2.98828125,0,0
-2.54321403190261E-05,1.10098044387996E-05,2.98828125,0,0
-2.55371869570808E-05,1.04023620224325E-05,2.98828125,0,0
-2.61035784205887E-05,1.10119817691157E-05,2.98828125,0,0
-2.59983535215724E-05,1.22253286463092E-05,2.98828125,0,0
-2.42051937675569E-05,1.22674227895914E-05,2.98828125,0,0
-1.77186993823852E-05,8.9727636805037E-06,2.98828125,0,0
-2.52694371738471E-05,1.19964724945021E-05,2.98828125,0,0
-2.06480872293469E-05,9.7143893071916E-06,2.98828125,0,0
-2.55200557148783E-05,1.41431055453722E-05,2.98828125,0,0
-1.99361002160003E-05,1.23157115012873E-05,2.98828125,0,0
-2.10966518352507E-05,1.26585000543855E-05,2.98828125,0,0
-2.00515751203056E-05,1.04458604255342E-05,2.98828125,0,0
-2.25539442908484E-05,1.18132493298617E-05,2.98828125,0,0
-2.24020022869809E-05,1.31404704006854E-05,2.98828125,0,0
-2.27421842282638E-05,1.30875432660105E-05,2.98828125,0,0
-2.24878222070402E-05,1.30140224428033E-05,2.98828125,0,0
-2.16595381061779E-05,1.47405726238503E-05,2.98828125,0,0
-2.3094893549569E-05,1.77665369847091E-05,2.98828125,0,0
-2.33697046496673E-05,1.75174773175968E-05,2.98828125,0,0
-2.43834547291044E-05,1.56691748998128E-05,2.98828125,0,0
-2.20097026613075E-05,1.23553054436343E-05,2.98828125,0,0
-2.19746088987449E-05,1.05532199086156E-05,2.98828125,0,0
-2.14292504097102E-05,8.49930620461237E-06,2.98828125,0,0
-2.26634128921432E-05,9.66871539276326E-06,2.98828125,0,0
-2.07734228752088E-05,1.07832174762734E-05,2.98828125,0,0
-2.12651139008813E-05,1.0602928341541E-05,2.98828125,0,0
-2.21213795157382E-05,9.47532043937827E-06,2.98828125,0,0
-2.37495532928733E-05,1.15936209112988E-05,2.98828125,0,0
-2.47024509008043E-05,1.42998696901486E-05,2.98828125,0,0
-2.63009715126827E-05,1.56598143803421E-05,2.98828125,0,0
-2.56655275734374E-05,1.54876688611694E-05,2.98828125,0,0
-2.54981296166079E-05,1.41968439493212E-05,2.98828125,0,0
-2.23334282054566E-05,8.98865528142778E-06,2.98828125,0,0
-3.2255491532851E-05,1.02707845144323E-05,2.98828125,0,0
-2.31883968808688E-05,3.95887036575004E-06,2.98828125,0,0
-2.63563542830525E-05,3.87495083487011E-06,2.98828125,0,0
-2.07883203984238E-05,9.19184515169036E-07,2.98828125,0,0
-2.3666514607612E-05,4.03091235057218E-06,2.98828125,0,0
-2.28810458793305E-05,4.1232883631892E-06,2.98828125,0,0
-2.50985558523098E-05,5.2402733672352E-06,2.98828125,0,0
-2.30175901378971E-05,5.22498839927721E-06,2.98828125,0,0
-2.13535404327558E-05,6.26472001385991E-06,2.98828125,0,0
-2.21299014810938E-05,7.38328617444495E-06,2.98828125,0,0
-2.26860393013339E-05,7.50890694689588E-06,2.98828125,0,0
-2.37610274780309E-05,7.38889775675489E-06,2.98828125,0,0
-2.19496250792872E-05,5.63940966458176E-06,2.98828125,0,0
-2.21489899558946E-05,5.97660118728527E-06,2.98828125,0,0
-2.07560660783201E-05,6.29261649010004E-06,2.98828125,0,0
-2.27469608944375E-05,8.83398115547607E-06,2.98828125,0,0
-2.31983794947155E-05,1.02070735010784E-05,2.98828125,0,0
-2.51388300966937E-05,1.22264409583295E-05,2.98828125,0,0
-2.36691575992154E-05,1.36972330437857E-05,2.98828125,0,0
-2.31225076277042E-05,1.71828378370265E-05,2.98828125,0,0
-2.16046264540637E-05,2.03222607524367E-05,2.98828125,0,0
-2.28252229135251E-05,2.09396894206293E-05,2.98828125,0,0
-2.41888355958508E-05,1.78683185367845E-05,2.98828125,0,0
-2.51890087383799E-05,1.56629357661586E-05,2.98828125,0,0
-2.47009047598112E-05,1.47197524711373E-05,2.98828125,0,0
-2.40125918935519E-05,1.53768014570232E-05,2.98828125,0,0
-1.83895808731904E-05,1.32034856505925E-05,2.98828125,0,0
-2.59847092820564E-05,1.64052580657881E-05,2.98828125,0,0
-2.07395223696949E-05,8.84606924955733E-06,2.98828125,0,0
-2.69873271463439E-05,1.18491043394897E-05,2.98828125,0,0
-2.27190594159765E-05,8.72733926371438E-06,2.98828125,0,0
-2.50283210334601E-05,1.12837224151008E-05,2.98828125,0,0
-2.46230265474878E-05,1.20092981887865E-05,2.98828125,0,0
-2.71211447397945E-05,1.40209949677228E-05,2.98828125,0,0
-2.68728672381258E-05,1.32474060592358E-05,2.98828125,0,0
-2.70528908004053E-05,1.15499042294687E-05,2.98828125,0,0
-2.73379318969091E-05,1.05228300526505E-05,2.98828125,0,0
-2.69104075414361E-05,1.04954970083782E-05,2.98828125,0,0
-2.82747569144703E-05,1.16324672490009E-05,2.98828125,0,0
-2.79201703961007E-05,1.09214252006495E-05,2.98828125,0,0
-2.96033358608838E-05,1.19130818347912E-05,2.98828125,0,0
-2.89962245005881E-05,1.19688047561795E-05,2.98828125,0,0
-2.90091174974805E-05,1.27428320411127E-05,2.98828125,0,0
-2.5986424589064E-05,1.09913016785868E-05,2.98828125,0,0
-2.50978991971351E-05,9.95477148535429E-06,2.98828125,0,0
-2.38480388361495E-05,8.05802392278565E-06,2.98828125,0,0
-2.53883517871145E-05,7.78923731559189E-06,2.98828125,0,0
-2.58980307989987E-05,7.21522292224108E-06,2.98828125,0,0
-2.57851970673073E-05,8.90642695594579E-06,2.98828125,0,0
-2.42538826569216E-05,1.14196118374821E-05,2.98828125,0,0
-2.53822945524007E-05,1.37465995067032E-05,2.98828125,0,0
-2.72338547802065E-05,1.4867491699988E-05,2.98828125,0,0
-2.77189865300898E-05,1.67489251907682E-05,2.98828125,0,0
-2.21933314605849E-05,1.5124203855521E-05,2.98828125,0,0
-3.10153191094287E-05,2.19936137000332E-05,2.98828125,0,0
-2.17605775105767E-05,1.71476895047817E-05,2.98828125,0,0
-2.62091125478037E-05,1.99921432795236E-05,2.98828125,0,0
-2.26438387471717E-05,1.51781441672938E-05,2.98828125,0,0
-2.73995538009331E-05,1.58430466399295E-05,2.98828125,0,0
-2.6426583644934E-05,1.30323824123479E-05,2.98828125,0,0
-2.91753131023142E-05,1.22136561913067E-05,2.98828125,0,0
-2.77933686447795E-05,1.10887094706413E-05,2.98828125,0,0
-2.60258548223646E-05,1.11339422801393E-05,2.98828125,0,0
-2.60486922343262E-05,1.02842350315768E-05,2.98828125,0,0
-2.61905515799299E-05,7.95726646174444E-06,2.98828125,0,0
-2.71600765699986E-05,7.85990050644614E-06,2.98828125,0,0
-2.5392491806997E-05,8.14384839031845E-06,2.98828125,0,0
-2.62954945355887E-05,9.52286882238695E-06,2.98828125,0,0
-2.52477675530827E-05,8.53552501212107E-06,2.98828125,0,0
-2.70379350695293E-05,9.80244567472255E-06,2.98828125,0,0
-2.64431491814321E-05,9.8429964054958E-06,2.98828125,0,0
-2.70914861175697E-05,1.18159614430624E-05,2.98828125,0,0
-2.43650683842134E-05,1.31293236336205E-05,2.98828125,0,0
-2.30349287448917E-05,1.46802212839248E-05,2.98828125,0,0
-2.20915626414353E-05,1.40851743708481E-05,2.98828125,0,0
-2.49505319516175E-05,1.36373892019037E-05,2.98828125,0,0
-2.73706336884061E-05,1.2361420886009E-05,2.98828125,0,0
-2.89039944618708E-05,1.31086471810704E-05,2.98828125,0,0
-2.73918376478832E-05,1.33595585793955E-05,2.98828125,0,0
-2.56422499660403E-05,1.24061652968521E-05,2.98828125,0,0
-2.02952978725079E-05,1.02271087598638E-05,2.98828125,0,0
-2.85620080830995E-05,1.39706999107148E-05,2.98828125,0,0
-2.1349087546696E-05,1.03155398392119E-05,2.98828125,0,0
-2.6426763724885E-05,1.30306352730258E-05,2.98828125,0,0
-2.19948451558594E-05,9.99771145870909E-06,2.98828125,0,0
-2.53377438639291E-05,1.0786469829327E-05,2.98828125,0,0
-2.40237714024261E-05,1.0005473086494E-05,2.98828125,0,0
-2.60641754721291E-05,1.04118644230766E-05,2.98828125,0,0
-2.61135701293824E-05,9.38894390856149E-06,2.98828125,0,0
-2.58840045717079E-05,9.01321982382797E-06,2.98828125,0,0
-2.54988517554011E-05,9.70337350736372E-06,2.98828125,0,0
-2.37138319789665E-05,1.04035570984706E-05,2.98828125,0,0
-2.31880785577232E-05,1.09858983705635E-05,2.98828125,0,0
-2.1751180611318E-05,1.05937015177915E-05,2.98828125,0,0
-2.37225267483154E-05,1.17182744361344E-05,2.98828125,0,0
-2.36142095673131E-05,1.12741727207322E-05,2.98828125,0,0
-2.50892553594895E-05,1.13270498331985E-05,2.98828125,0,0
-2.42753212660318E-05,1.00710622064071E-05,2.98828125,0,0
-2.54391306953039E-05,1.02445164884557E-05,2.98828125,0,0
-2.45120409090305E-05,1.05499375422369E-05,2.98828125,0,0
-2.46540475927759E-05,1.18345196824521E-05,2.98828125,0,0
-2.2791920855525E-05,1.14124650281155E-05,2.98828125,0,0
-2.09015888685826E-05,1.21820485219359E-05,2.98828125,0,0
-1.93657433555927E-05,1.35522086566198E-05,2.98828125,0,0
-2.13343282666756E-05,1.50572313941666E-05,2.98828125,0,0
-2.31553294725018E-05,1.63747317856178E-05,2.98828125,0,0
-2.26832307816949E-05,1.61925199790858E-05,2.98828125,0,0
-1.71742576640099E-05,9.93888261291431E-06,2.98828125,0,0
-2.47588177444413E-05,1.26824870676501E-05,2.98828125,0,0
-1.91734452528181E-05,8.40949360281229E-06,2.98828125,0,0
-2.28363678616006E-05,9.80335153144551E-06,2.98828125,0,0
-1.95753073057858E-05,3.51993571712228E-06,2.98828125,0,0
-2.31446392717771E-05,1.7942287513506E-06,2.98828125,0,0
-2.16400985664222E-05,1.41077669013612E-06,2.98828125,0,0
-2.22990183829097E-05,6.38618621451315E-06,2.98828125,0,0
-2.10939524549758E-05,1.09013271867298E-05,2.98828125,0,0
-2.02774044737453E-05,1.51290578287444E-05,2.98828125,0,0
-2.01529837795533E-05,1.67627968039596E-05,2.98828125,0,0
-2.01763214136008E-05,1.55871130118612E-05,2.98828125,0,0
-2.1275849576341E-05,1.37467723106965E-05,2.98828125,0,0
-2.01152051886311E-05,9.26380289456574E-06,2.98828125,0,0
-2.07182310987264E-05,4.94126879857504E-06,2.98828125,0,0
-2.06903623620747E-05,4.81063125334913E-07,2.98828125,0,0
-2.24735231313389E-05,-6.90106176648442E-08,2.98828125,0,0
-2.11262158700265E-05,-7.50633617485619E-08,2.98828125,0,0
-2.14634455915075E-05,3.81038262275979E-07,2.98828125,0,0
-2.1421361452667E-05,-7.81682786055171E-07,2.98828125,0,0
-2.2678597815684E-05,1.20250740565098E-06,2.98828125,0,0
-2.17999167944072E-05,3.89819388146861E-06,2.98828125,0,0
-2.22066501009976E-05,6.11334689892828E-06,2.98828125,0,0
-2.23936203838093E-05,7.1140957516036E-06,2.98828125,0,0
-2.29833494813647E-05,7.86967302701669E-06,2.98828125,0,0
-2.25314888666617E-05,7.39583583708736E-06,2.98828125,0,0
-2.18277673411649E-05,8.3913382695755E-06,2.98828125,0,0
-1.68869210028788E-05,8.58670955494745E-06,2.98828125,0,0
-2.28076860366855E-05,1.32339619085542E-05,2.98828125,0,0
-1.67019989021355E-05,1.08281419670675E-05,2.98828125,0,0
-2.26933570957044E-05,1.09329139377223E-05,2.98828125,0,0
-2.01409038709244E-05,7.45053284845199E-06,2.98828125,0,0
-2.25684198085219E-05,9.06126660993323E-06,2.98828125,0,0
-2.05664509849157E-05,8.8678043539403E-06,2.98828125,0,0
-2.23529023060109E-05,1.00795705293422E-05,2.98828125,0,0
-2.16433272726135E-05,1.13133773993468E-05,2.98828125,0,0
-1.9717723262147E-05,1.21560433399281E-05,2.98828125,0,0
-1.82086569111561E-05,1.28004530779435E-05,2.98828125,0,0
-1.80140104930615E-05,1.22840165204252E-05,2.98828125,0,0
-2.1104717234266E-05,1.07263131212676E-05,2.98828125,0,0
-2.22014605242293E-05,7.13737244950607E-06,2.98828125,0,0
-2.36503747146344E-05,4.7984826778702E-06,2.98828125,0,0
-2.26152642426314E-05,3.5618709262053E-06,2.98828125,0,0
-2.38052434724523E-05,4.87148599859211E-06,2.98828125,0,0
-2.42178812186467E-05,5.31476780452067E-06,2.98828125,0,0
-2.6921310563921E-05,5.40187602382503E-06,2.98828125,0,0
-2.66962579189567E-05,4.79877598991152E-06,2.98828125,0,0
-2.62429493886884E-05,4.97399923915509E-06,2.98828125,0,0
-2.48431169893593E-05,4.84927568322746E-06,2.98828125,0,0
-2.47877560468623E-05,7.00308601153665E-06,2.98828125,0,0
-2.37256263062591E-05,8.68315783009166E-06,2.98828125,0,0
-2.34486196859507E-05,8.08823187981034E-06,2.98828125,0,0
-2.22727412619861E-05,7.83472387411166E-06,2.98828125,0,0
-2.11295864573913E-05,9.25377116800519E-06,2.98828125,0,0
-1.79840044438606E-05,8.99437509360723E-06,2.98828125,0,0
-2.72407924057916E-05,1.40779720823048E-05,2.98828125,0,0
-2.12031645787647E-05,1.25379865494324E-05,2.98828125,0,0
-2.38219799939543E-05,1.51686863318901E-05,2.98828125,0,0
-2.11343613045756E-05,1.34464407892665E-05,2.98828125,0,0
-2.52717145485803E-05,1.41341679409379E-05,2.98828125,0,0
-2.31899848586181E-05,1.25291880976874E-05,2.98828125,0,0
-2.31728536164155E-05,1.38522873385227E-05,2.98828125,0,0
-2.36400937865255E-05,1.49922580021666E-05,2.98828125,0,0
-2.55012746492866E-05,1.40840638778172E-05,2.98828125,0,0
-2.62397206824971E-05,1.29929721879307E-05,2.98828125,0,0
-2.50093289650977E-05,1.211398284795E-05,2.98828125,0,0
-2.54877395491349E-05,1.12602592707844E-05,2.98828125,0,0
-2.48072774411412E-05,9.72685302258469E-06,2.98828125,0,0
-2.52075660682749E-05,1.06091301859124E-05,2.98828125,0,0
-2.28743938350817E-05,1.18250254672603E-05,2.98828125,0,0
-2.30585555982543E-05,1.38233308462077E-05,2.98828125,0,0
-2.31566355068935E-05,1.46675110954675E-05,2.98828125,0,0
-2.4944958568085E-05,1.56862824951531E-05,2.98828125,0,0
-2.42008736677235E-05,1.42835388032836E-05,2.98828125,0,0
-2.47171738010366E-05,1.30586331579252E-05,2.98828125,0,0
-2.46316121774726E-05,1.17423187475652E-05,2.98828125,0,0
-2.46086019615177E-05,1.15817474579671E-05,2.98828125,0,0
-2.4160799512174E-05,1.24560056065093E-05,2.98828125,0,0
-2.46589825110277E-05,1.25659098557662E-05,2.98828125,0,0
-2.49240911216475E-05,1.13781270556501E-05,2.98828125,0,0
-2.56339444604237E-05,1.11250956251752E-05,2.98828125,0,0
-2.12422946788138E-05,9.66264542512363E-06,2.98828125,0,0
-3.09743591060396E-05,1.30847301988979E-05,2.98828125,0,0
-2.42827409238089E-05,8.12378584669204E-06,2.98828125,0,0
-2.99670718959533E-05,1.08187614387134E-05,2.98828125,0,0
-2.69009924522834E-05,1.09536276795552E-05,2.98828125,0,0
-3.06130168610252E-05,1.37935085149365E-05,2.98828125,0,0
-2.84006073343335E-05,1.32762825160171E-05,2.98828125,0,0
-2.94839428534033E-05,1.39657358886325E-05,2.98828125,0,0
-2.86709946522024E-05,1.44852274388541E-05,2.98828125,0,0
-2.90965617750771E-05,1.51009853652795E-05,2.98828125,0,0
-2.95435656880727E-05,1.55612815433415E-05,2.98828125,0,0
-2.83228964690352E-05,1.49591614899691E-05,2.98828125,0,0
-2.8145223041065E-05,1.35829322971404E-05,2.98828125,0,0
-2.62010162259685E-05,1.16213868750492E-05,2.98828125,0,0
-2.64015634456882E-05,1.19227906907327E-05,2.98828125,0,0
-2.40406570810592E-05,1.18317984743044E-05,2.98828125,0,0
-2.44629336521029E-05,1.38820014399244E-05,2.98828125,0,0
-2.34606759477174E-05,1.51884432852967E-05,2.98828125,0,0
-2.46734434767859E-05,1.55666675709654E-05,2.98828125,0,0
-2.43180875258986E-05,1.29714617287391E-05,2.98828125,0,0
-2.52512854785891E-05,1.08035983430455E-05,2.98828125,0,0
-2.35883981076768E-05,1.02719723145128E-05,2.98828125,0,0
-2.37013919104356E-05,1.17209710879251E-05,2.98828125,0,0
-2.45570226979908E-05,1.25416308947024E-05,2.98828125,0,0
-2.60871020145714E-05,1.42037761179381E-05,2.98828125,0,0
-2.66005445155315E-05,1.54863100760849E-05,2.98828125,0,0
-2.6415382308187E-05,1.43506658787373E-05,2.98828125,0,0
-2.19349785766099E-05,9.11975985218305E-06,2.98828125,0,0
-3.07441659970209E-05,1.20488639367977E-05,2.98828125,0,0
-2.12935701711103E-05,7.5280008786649E-06,2.98828125,0,0
-2.55301383731421E-05,8.89860984898405E-06,2.98828125,0,0
-2.22619037231198E-05,7.36054107619566E-06,2.98828125,0,0
-2.73583355010487E-05,1.08584417830571E-05,2.98828125,0,0
-2.63742131210165E-05,1.13539035737631E-05,2.98828125,0,0
-2.71870030701393E-05,1.1815813195426E-05,2.98828125,0,0
-2.5480401745881E-05,1.02337535281549E-05,2.98828125,0,0
-2.51576930168085E-05,9.95479513221653E-06,2.98828125,0,0
-2.54706319537945E-05,1.08220547190285E-05,2.98828125,0,0
-2.44922812271398E-05,1.09724269350409E-05,2.98828125,0,0
-2.574176141934E-05,1.17041436169529E-05,2.98828125,0,0
-2.51801284321118E-05,1.18486068458878E-05,2.98828125,0,0
-2.57165320363129E-05,1.2910742952954E-05,2.98828125,0,0
-2.32171514653601E-05,1.1948690371355E-05,2.98828125,0,0
-2.39924556808546E-05,1.1052861736971E-05,2.98828125,0,0
-2.27839591389056E-05,9.57900647335919E-06,2.98828125,0,0
-2.23562510655029E-05,1.06287043308839E-05,2.98828125,0,0
-1.95267839444568E-05,1.17706968012499E-05,2.98828125,0,0
-1.99216683540726E-05,1.24684456750401E-05,2.98828125,0,0
-2.04837360797683E-05,1.09164302557474E-05,2.98828125,0,0
-2.13869334402261E-05,1.04849123090389E-05,2.98828125,0,0
-2.08569690585136E-05,1.12179204734275E-05,2.98828125,0,0
-2.13521161640529E-05,1.24827802210348E-05,2.98828125,0,0
-2.11163005587878E-05,1.20224203783437E-05,2.98828125,0,0
-2.02331284526736E-05,1.10674427560298E-05,2.98828125,0,0
-1.59561041073175E-05,8.58036037243437E-06,2.98828125,0,0
-2.31411122513236E-05,1.13993810373358E-05,2.98828125,0,0
-1.8803950297297E-05,7.51685593058937E-06,2.98828125,0,0
-2.36726209550397E-05,1.04498767541372E-05,2.98828125,0,0
-2.10185135074425E-05,9.69109350990038E-06,2.98828125,0,0
-2.41388424910838E-05,1.1091558917542E-05,2.98828125,0,0
-2.34782473853556E-05,1.07691266748589E-05,2.98828125,0,0
-2.42853966483381E-05,1.26755512610544E-05,2.98828125,0,0
-2.4461856810376E-05,1.33712883325643E-05,2.98828125,0,0
-2.64977461483795E-05,1.37273509608349E-05,2.98828125,0,0
-2.66818697127746E-05,1.40648980959668E-05,2.98828125,0,0
-2.44576931436313E-05,1.36689468490658E-05,2.98828125,0,0
-2.42080786847509E-05,1.31398965095286E-05,2.98828125,0,0
-2.35582083405461E-05,1.11203617052524E-05,2.98828125,0,0
-2.493396459613E-05,1.02989506558515E-05,2.98828125,0,0
-2.47957941610366E-05,8.83847678778693E-06,2.98828125,0,0
-2.55377526627854E-05,9.06036257219967E-06,2.98828125,0,0
-2.35972929658601E-05,8.59139618114568E-06,2.98828125,0,0
-2.42433943640208E-05,8.19738306745421E-06,2.98828125,0,0
-2.44915136136115E-05,7.44816452424857E-06,2.98828125,0,0
-2.54713249887573E-05,9.02634019439574E-06,2.98828125,0,0
-2.46426661760779E-05,1.02608646557201E-05,2.98828125,0,0
-2.43170015892247E-05,1.10577038867632E-05,2.98828125,0,0
-2.24169161811005E-05,1.0957733138639E-05,2.98828125,0,0
-2.17483811866259E-05,1.11570552689955E-05,2.98828125,0,0
-2.34379240282578E-05,1.25058622870711E-05,2.98828125,0,0
-2.54566330113448E-05,1.38312079798197E-05,2.98828125,0,0
-2.10898306249874E-05,1.115710256272E-05,2.98828125,0,0
-2.88236115011387E-05,1.62708183779614E-05,2.98828125,0,0
-1.89803504326846E-05,1.58215789269889E-05,2.98828125,0,0
-2.2574744434678E-05,2.22925718844635E-05,2.98828125,0,0
-1.82727562787477E-05,1.91363960766466E-05,2.98828125,0,0
-2.29249162657652E-05,1.86314809980104E-05,2.98828125,0,0
-2.23517381527927E-05,1.64281882462092E-05,2.98828125,0,0
-2.43876111198915E-05,1.68635779118631E-05,2.98828125,0,0
-2.32420170505065E-05,1.44941077451222E-05,2.98828125,0,0
-2.2062704374548E-05,1.03531974673388E-05,2.98828125,0,0
-2.24083651119145E-05,6.3063398556551E-06,2.98828125,0,0
-2.33711780310841E-05,3.94841435991111E-06,2.98828125,0,0
-2.4698505512788E-05,3.86731790058548E-06,2.98828125,0,0
-2.26977990678279E-05,2.48733317675942E-06,2.98828125,0,0
-2.36407722695731E-05,3.38067843586032E-06,2.98828125,0,0
-2.36604009842267E-05,4.71052408101968E-06,2.98828125,0,0
-2.63190013356507E-05,7.49220862417133E-06,2.98828125,0,0
-2.60716897173552E-05,6.86214889356052E-06,2.98828125,0,0
-2.64947211690014E-05,7.00735790815088E-06,2.98828125,0,0
-2.38356606132584E-05,7.51265633880394E-06,2.98828125,0,0
-2.33898099395446E-05,8.34841830510413E-06,2.98828125,0,0
-2.28259759751381E-05,7.49640184949385E-06,2.98828125,0,0
-2.40902518271469E-05,7.47275680623716E-06,2.98828125,0,0
-2.4199713152484E-05,7.39359620638425E-06,2.98828125,0,0
-2.35407078434946E-05,5.49792503079516E-06,2.98828125,0,0
-2.12222003028728E-05,1.66839515713946E-06,2.98828125,0,0
-1.94047443073941E-05,4.55414124189701E-07,2.98828125,0,0
-1.5958084986778E-05,3.17944318339869E-06,2.98828125,0,0
-2.31374142458662E-05,8.6102336354088E-06,2.98828125,0,0
-1.71639567270176E-05,1.18259877126548E-05,2.98828125,0,0
-1.97568333533127E-05,1.34582514874637E-05,2.98828125,0,0
-1.61163243319606E-05,1.49015395436436E-05,2.98828125,0,0
-1.87333262147149E-05,1.56770784087712E-05,2.98828125,0,0
-1.82663097803015E-05,1.52453139889985E-05,2.98828125,0,0
-1.98681173060322E-05,1.45640242408263E-05,2.98828125,0,0
-2.03122708626324E-05,1.51406102304463E-05,2.98828125,0,0
-2.11367278097896E-05,1.75494569703005E-05,2.98828125,0,0
-2.1944264517515E-05,2.03701911232201E-05,2.98828125,0,0
-2.16243770410074E-05,2.05483775062021E-05,2.98828125,0,0
-2.24722207349259E-05,1.83023021236295E-05,2.98828125,0,0
-2.24562736548251E-05,1.59390856424579E-05,2.98828125,0,0
-2.40596909861779E-05,1.57574777404079E-05,2.98828125,0,0
-2.32615948334569E-05,1.68295046023559E-05,2.98828125,0,0
-2.26159481826471E-05,1.66124755196506E-05,2.98828125,0,0
-2.00881131604547E-05,1.39546336868079E-05,2.98828125,0,0
-2.03029267140664E-05,1.18557909445371E-05,2.98828125,0,0
-2.13851599255577E-05,1.10186238089227E-05,2.98828125,0,0
-2.43080739892321E-05,8.64930734678637E-06,2.98828125,0,0
-2.46876479650382E-05,5.11149846715853E-06,2.98828125,0,0
-2.51799028774258E-05,2.00400336325401E-06,2.98828125,0,0
-2.51441742875613E-05,4.78383981317165E-07,2.98828125,0,0
-2.49440327024786E-05,2.55967904649879E-07,2.98828125,0,0
-2.56532348430483E-05,9.05439947018749E-07,2.98828125,0,0
-2.71618719125399E-05,3.4611068713275E-06,2.98828125,0,0
-2.13687035284238E-05,5.16734644406824E-06,2.98828125,0,0
-2.88103037746623E-05,8.01712667453103E-06,2.98828125,0,0
-2.0352863430162E-05,5.41427061762079E-06,2.98828125,0,0
-2.67622617684538E-05,5.30433771928074E-06,2.98828125,0,0
-2.16497173823882E-05,5.86393116464023E-06,2.98828125,0,0
-2.47058560489677E-05,9.12789346330101E-06,2.98828125,0,0
-2.50642988248728E-05,9.46924592426512E-06,2.98828125,0,0
-2.86614886135794E-05,8.39074073155643E-06,2.98828125,0,0
-2.77539875241928E-05,6.76559011481004E-06,2.98828125,0,0
-2.61277109530056E-05,6.4589576140861E-06,2.98828125,0,0
-2.47262960328953E-05,8.15099883766379E-06,2.98828125,0,0
-2.27495984290726E-05,9.72008911048761E-06,2.98828125,0,0
-2.31706999329617E-05,9.50050707615446E-06,2.98828125,0,0
-2.2797907149652E-05,8.88634895090945E-06,2.98828125,0,0
-2.54412552749272E-05,9.48854085436324E-06,2.98828125,0,0
-2.54329879680881E-05,1.02623644124833E-05,2.98828125,0,0
-2.74613321380457E-05,1.18803254736122E-05,2.98828125,0,0
-2.68102612608345E-05,1.27588828036096E-05,2.98828125,0,0
-2.76269129244611E-05,1.25283104353002E-05,2.98828125,0,0
-2.59475436905632E-05,1.04404516605427E-05,2.98828125,0,0
-2.58194959315006E-05,8.92281877895584E-06,2.98828125,0,0
-2.42797759710811E-05,8.27155963634141E-06,2.98828125,0,0
-2.45013125095284E-05,8.83136272022966E-06,2.98828125,0,0
-2.41696034208871E-05,8.55448888614774E-06,2.98828125,0,0
-2.40790850511985E-05,8.21445610199589E-06,2.98828125,0,0
-2.50499469984788E-05,9.42131555348169E-06,2.98828125,0,0
-2.71701264864532E-05,1.10190430859802E-05,2.98828125,0,0
-2.30182904488174E-05,8.01859459897969E-06,2.98828125,0,0
-3.19044083880726E-05,1.05117969724233E-05,2.98828125,0,0
-2.32857728406088E-05,7.223951342894E-06,2.98828125,0,0
-2.9238673960208E-05,9.60927172855008E-06,2.98828125,0,0
-2.4396173103014E-05,9.17042143555591E-06,2.98828125,0,0
-2.64192058239132E-05,1.28952178783948E-05,2.98828125,0,0
-2.32527618209133E-05,1.27071380120469E-05,2.98828125,0,0
-2.57851042988477E-05,1.33786752485321E-05,2.98828125,0,0
-2.57824849541066E-05,1.26338245536317E-05,2.98828125,0,0
-2.56662533502094E-05,1.18816315080039E-05,2.98828125,0,0
-2.57667579717236E-05,1.23220133900759E-05,2.98828125,0,0
-2.51894289249321E-05,1.257965232071E-05,2.98828125,0,0
-2.52075660682749E-05,1.26824379549362E-05,2.98828125,0,0
-2.25632575165946E-05,1.16818146125297E-05,2.98828125,0,0
-2.30856403504731E-05,1.21606180982781E-05,2.98828125,0,0
-2.2148946300149E-05,1.07043651951244E-05,2.98828125,0,0
-2.50380417128326E-05,8.22603396954946E-06,2.98828125,0,0
-2.53390480793314E-05,5.00499072586535E-06,2.98828125,0,0
-2.6170899218414E-05,5.8044843171956E-06,2.98828125,0,0
-2.3687447537668E-05,8.32730074762367E-06,2.98828125,0,0
-2.38020984397735E-05,1.16780574899167E-05,2.98828125,0,0
-2.32192123803543E-05,1.40166366691119E-05,2.98828125,0,0
-2.44346138060791E-05,1.56881415023236E-05,2.98828125,0,0
-2.50610955845332E-05,1.42067556225811E-05,2.98828125,0,0
-2.5873989216052E-05,1.21203511298518E-05,2.98828125,0,0
-2.57594692811836E-05,1.26745271700202E-05,2.98828125,0,0
-2.63115380221279E-05,1.4741695849807E-05,2.98828125,0,0
-2.12618670047959E-05,1.4431010640692E-05,2.98828125,0,0
-3.00341307593044E-05,2.03784402401652E-05,2.98828125,0,0
-2.27129730774323E-05,1.46891707117902E-05,2.98828125,0,0
-2.74290650850162E-05,1.71986848727101E-05,2.98828125,0,0
-2.28507924475707E-05,1.38571740535554E-05,2.98828125,0,0
-2.63487527263351E-05,1.63478689501062E-05,2.98828125,0,0
-2.2616939531872E-05,1.52731645357562E-05,2.98828125,0,0
-2.25917574425694E-05,1.65722758538323E-05,2.98828125,0,0
-2.28520202654181E-05,1.58869097504066E-05,2.98828125,0,0
-2.37991444009822E-05,1.44876248668879E-05,2.98828125,0,0
-2.3056260033627E-05,1.36700855364325E-05,2.98828125,0,0
-2.07078901439672E-05,1.23366298794281E-05,2.98828125,0,0
-2.17058313864982E-05,1.19379019452026E-05,2.98828125,0,0
-2.18780241993954E-05,1.08762242234661E-05,2.98828125,0,0
-2.39145774685312E-05,1.12426978375879E-05,2.98828125,0,0
-2.22636099351803E-05,9.9903272712254E-06,2.98828125,0,0
-2.25411331484793E-05,1.15920356620336E-05,2.98828125,0,0
-2.11666829272872E-05,1.2562622941914E-05,2.98828125,0,0
-2.18636105273617E-05,1.43701327033341E-05,2.98828125,0,0
-2.04105781449471E-05,1.40906231536064E-05,2.98828125,0,0
-2.08870205824496E-05,1.43258530442836E-05,2.98828125,0,0
-2.10800299100811E-05,1.26544828162878E-05,2.98828125,0,0
-2.28951248573139E-05,1.07590312836692E-05,2.98828125,0,0
-2.1441956050694E-05,9.14291285880608E-06,2.98828125,0,0
-1.93264659174019E-05,9.43312443268951E-06,2.98828125,0,0
-2.01421607926022E-05,7.87856333772652E-06,2.98828125,0,0
-2.30764708248898E-05,5.77346145291813E-06,2.98828125,0,0
-2.01696802832885E-05,3.1590711842E-06,2.98828125,0,0
-2.78302231890848E-05,4.55707231594715E-06,2.98828125,0,0
-1.91861345228972E-05,5.3773924264533E-06,2.98828125,0,0
-2.39867313212017E-05,8.45058275444899E-06,2.98828125,0,0
-2.19619450945174E-05,8.50072046887362E-06,2.98828125,0,0
-2.72719917120412E-05,8.55220332596218E-06,2.98828125,0,0
-2.64010359387612E-05,8.16621286503505E-06,2.98828125,0,0
-2.73801451839972E-05,9.43625673244242E-06,2.98828125,0,0
-2.56397906923667E-05,8.84882865648251E-06,2.98828125,0,0
-2.48675223701866E-05,7.2169514169218E-06,2.98828125,0,0
-2.52931513387011E-05,7.2835614446376E-06,2.98828125,0,0
-2.48647756961873E-05,8.98290727491258E-06,2.98828125,0,0
-2.50668908847729E-05,1.01048972283024E-05,2.98828125,0,0
-2.22853650484467E-05,8.8544129539514E-06,2.98828125,0,0
-2.22274466068484E-05,8.1464377217344E-06,2.98828125,0,0
-2.13274524867302E-05,8.64155299495906E-06,2.98828125,0,0
-2.25071034947177E-05,1.01894247563905E-05,2.98828125,0,0
-2.04304833459901E-05,1.10932260213303E-05,2.98828125,0,0
-2.04283442144515E-05,1.15504371933639E-05,2.98828125,0,0
-2.03380805032793E-05,1.01968025774113E-05,2.98828125,0,0
-2.26013835344929E-05,9.41695179790258E-06,2.98828125,0,0
-2.24327468458796E-05,1.00438965091598E-05,2.98828125,0,0
-2.27561813517241E-05,1.13288197098882E-05,2.98828125,0,0
-2.3113874703995E-05,1.21676239359658E-05,2.98828125,0,0
-2.43304075411288E-05,1.21862767628045E-05,2.98828125,0,0
-2.46732288360363E-05,1.23711042760988E-05,2.98828125,0,0
-2.43340218730737E-05,1.31972637973377E-05,2.98828125,0,0
-2.04353109438671E-05,9.92003424471477E-06,2.98828125,0,0
-3.04604000120889E-05,1.38838286147802E-05,2.98828125,0,0
-2.53751059062779E-05,1.06169827631675E-05,2.98828125,0,0
-3.12343763653189E-05,1.41078453452792E-05,2.98828125,0,0
-2.71184344455833E-05,1.21317407320021E-05,2.98828125,0,0
-2.87478924292373E-05,1.2950388736499E-05,2.98828125,0,0
-2.50655102718156E-05,1.19516080303583E-05,2.98828125,0,0
-2.56421335507184E-05,1.39054855026188E-05,2.98828125,0,0
-2.58145428233547E-05,1.44194264066755E-05,2.98828125,0,0
-2.64059417531826E-05,1.4190068213793E-05,2.98828125,0,0
-2.59533881035168E-05,1.42115823109634E-05,2.98828125,0,0
-2.45614919549553E-05,1.41799819175503E-05,2.98828125,0,0
-2.54351507464889E-05,1.45796984725166E-05,2.98828125,0,0
-2.49713029916165E-05,1.4156692486722E-05,2.98828125,0,0
-2.58265463344287E-05,1.50644655150245E-05,2.98828125,0,0
-2.39114851865452E-05,1.50689356814837E-05,2.98828125,0,0
-2.45338524109684E-05,1.61918251251336E-05,2.98828125,0,0
-2.3251786842593E-05,1.59206465468742E-05,2.98828125,0,0
-2.37577496591257E-05,1.55646248458652E-05,2.98828125,0,0
-2.29135421250248E-05,1.2654738384299E-05,2.98828125,0,0
-2.32873626373475E-05,9.56375151872635E-06,2.98828125,0,0
-2.23135884880321E-05,6.2734311541135E-06,2.98828125,0,0
-2.39571509155212E-05,5.22701566296746E-06,2.98828125,0,0
-2.42017922573723E-05,6.16922898188932E-06,2.98828125,0,0
-2.39633045566734E-05,8.22546098788735E-06,2.98828125,0,0
-2.40584558923729E-05,8.8441556727048E-06,2.98828125,0,0
-2.39192213484785E-05,8.61822081787977E-06,2.98828125,0,0
-2.04427960852627E-05,6.9585548772011E-06,2.98828125,0,0
-2.96618563879747E-05,1.01169280242175E-05,2.98828125,0,0
-2.29755278269295E-05,8.93133892532205E-06,2.98828125,0,0
-2.89232575596543E-05,1.2371091543173E-05,2.98828125,0,0
-2.59693169937236E-05,1.26987106341403E-05,2.98828125,0,0
-2.88217033812543E-05,1.52916054503294E-05,2.98828125,0,0
-2.66513325186679E-05,1.54764766193694E-05,2.98828125,0,0
-2.72425186267355E-05,1.48898725456093E-05,2.98828125,0,0
-2.68528092419729E-05,1.22126584756188E-05,2.98828125,0,0
-2.63056444964604E-05,8.995129064715E-06,2.98828125,0,0
-2.50011544267181E-05,5.03770934301429E-06,2.98828125,0,0
-2.32354377658339E-05,3.92122001358075E-06,2.98828125,0,0
-2.33746577578131E-05,7.767236638756E-06,2.98828125,0,0
-2.20217061723815E-05,1.05413264464005E-05,2.98828125,0,0
-2.31144531426253E-05,1.11995750557981E-05,2.98828125,0,0
-2.25098847295158E-05,1.00713205029024E-05,2.98828125,0,0
-2.34046929108445E-05,1.01272089523263E-05,2.98828125,0,0
-2.12727209145669E-05,1.05123081084457E-05,2.98828125,0,0
-2.06118893402163E-05,1.20200775199919E-05,2.98828125,0,0
-1.96004311874276E-05,1.07706218841486E-05,2.98828125,0,0
-2.20805977733107E-05,7.23370385458111E-06,2.98828125,0,0
-2.26247593673179E-05,3.91460980608827E-06,2.98828125,0,0
-2.2487965907203E-05,4.48549008069676E-06,2.98828125,0,0
-2.15023610508069E-05,6.41356928099412E-06,2.98828125,0,0
-2.14814317587297E-05,8.61607441038359E-06,2.98828125,0,0
-2.18619661609409E-05,1.03734855656512E-05,2.98828125,0,0
-2.2345149773173E-05,1.04206583273481E-05,2.98828125,0,0
-1.93544783542166E-05,7.76966408011504E-06,2.98828125,0,0
-2.78498628176749E-05,1.04945565908565E-05,2.98828125,0,0
-2.07819921342889E-05,8.41273413243471E-06,2.98828125,0,0
-2.46318522840738E-05,1.09864604382892E-05,2.98828125,0,0
-2.11747319553979E-05,8.74318902788218E-06,2.98828125,0,0
-2.48703872784972E-05,1.07066898635821E-05,2.98828125,0,0
-2.3297565348912E-05,1.13972564577125E-05,2.98828125,0,0
-2.41798588831443E-05,1.19804835776449E-05,2.98828125,0,0
-2.33379305427661E-05,1.02045705716591E-05,2.98828125,0,0
-2.32365910051158E-05,8.96119581739185E-06,2.98828125,0,0
-2.32421734835953E-05,8.91265335667413E-06,2.98828125,0,0
-2.25939766096417E-05,8.3534778241301E-06,2.98828125,0,0
-2.47156513069058E-05,6.84968927089358E-06,2.98828125,0,0
-2.52555382758146E-05,4.28448674938409E-06,2.98828125,0,0
-2.71358039753977E-05,4.75892193207983E-06,2.98828125,0,0
-2.6125779186259E-05,7.00597774994094E-06,2.98828125,0,0
-2.5839723093668E-05,1.05116068880307E-05,2.98828125,0,0
-2.30353798542637E-05,1.17382096505025E-05,2.98828125,0,0
-2.29344477702398E-05,1.26656950669712E-05,2.98828125,0,0
-2.23105853365269E-05,1.26319637274719E-05,2.98828125,0,0
-2.37915301113389E-05,1.27702114696149E-05,2.98828125,0,0
-2.40106292039854E-05,1.13015421447926E-05,2.98828125,0,0
-2.42379301198525E-05,1.00463666967698E-05,2.98828125,0,0
-2.30486893997295E-05,9.64260016189655E-06,2.98828125,0,0
-2.36256837524707E-05,9.85801489150617E-06,2.98828125,0,0
-2.43676040554419E-05,8.86397992871935E-06,2.98828125,0,0
-2.44236653088592E-05,8.59632564242929E-06,2.98828125,0,0
-2.13850707950769E-05,7.50857270759298E-06,2.98828125,0,0
-3.22121122735552E-05,1.07535051938612E-05,2.98828125,0,0
-2.55861577898031E-05,8.45090471557342E-06,2.98828125,0,0
-2.95594090857776E-05,1.1507537237776E-05,2.98828125,0,0
-2.42193273152225E-05,1.09679303932353E-05,2.98828125,0,0
-2.54973820119631E-05,1.11619438030175E-05,2.98828125,0,0
-2.29876768571557E-05,1.1037802323699E-05,2.98828125,0,0
-2.48263586399844E-05,1.32318773466977E-05,2.98828125,0,0
-2.46315012191189E-05,1.39183866849635E-05,2.98828125,0,0
-2.43093963945284E-05,1.45495214383118E-05,2.98828125,0,0
-2.36198084166972E-05,1.43385432238574E-05,2.98828125,0,0
-2.29286652029259E-05,1.23886966321152E-05,2.98828125,0,0
-2.50780194619438E-05,9.73351961874869E-06,2.98828125,0,0
-2.47675725404406E-05,6.58938824926736E-06,2.98828125,0,0
-2.48476171691436E-05,6.05465220360202E-06,2.98828125,0,0
-2.25277472054586E-05,6.48832974547986E-06,2.98828125,0,0
-2.36173982557375E-05,8.36597973830067E-06,2.98828125,0,0
-2.35516563407145E-05,9.01147723197937E-06,2.98828125,0,0
-2.55304566962877E-05,1.04655046015978E-05,2.98828125,0,0
-2.4933784516179E-05,1.1684326636896E-05,2.98828125,0,0
-2.51359506364679E-05,1.30628259285004E-05,2.98828125,0,0
-2.45994724537013E-05,1.33252478917711E-05,2.98828125,0,0
-2.49294389504939E-05,1.427313509339E-05,2.98828125,0,0
-2.41981069848407E-05,1.53480432345532E-05,2.98828125,0,0
-2.47236348513979E-05,1.58143848238979E-05,2.98828125,0,0
-2.45103910856415E-05,1.55672951223096E-05,2.98828125,0,0
-2.43069298448972E-05,1.50318010128103E-05,2.98828125,0,0
-2.03012496058363E-05,1.12937996163964E-05,2.98828125,0,0
-2.90808529825881E-05,1.44896157507901E-05,2.98828125,0,0
-2.21206064452417E-05,8.68043844093336E-06,2.98828125,0,0
-2.70174368779408E-05,1.25300794024952E-05,2.98828125,0,0
-2.33120154007338E-05,1.13318483272451E-05,2.98828125,0,0
-2.61030454566935E-05,1.16326382340048E-05,2.98828125,0,0
-2.27413802349474E-05,8.98613325261977E-06,2.98828125,0,0
-2.21550108108204E-05,1.15599796117749E-05,2.98828125,0,0
-1.97945482796058E-05,1.35355685415561E-05,2.98828125,0,0
-1.95629181689583E-05,1.24503931147046E-05,2.98828125,0,0
-2.08766268769978E-05,1.01220721262507E-05,2.98828125,0,0
-2.18925288208993E-05,9.4784172688378E-06,2.98828125,0,0
-2.45373630605172E-05,1.07184932858218E-05,2.98828125,0,0
-2.4194272555178E-05,8.78765877132537E-06,2.98828125,0,0
-2.53414345934289E-05,8.04143564892001E-06,2.98828125,0,0
-2.41185753111495E-05,8.930543117458E-06,2.98828125,0,0
-2.48148589889752E-05,1.24413918456412E-05,2.98828125,0,0
-2.24077357415808E-05,1.25936885524425E-05,2.98828125,0,0
-2.14807623706292E-05,1.18718226076453E-05,2.98828125,0,0
-1.95789179997519E-05,1.06440238596406E-05,2.98828125,0,0
-2.01884049602086E-05,1.19940914373728E-05,2.98828125,0,0
-2.01338862098055E-05,1.31701171994791E-05,2.98828125,0,0
-2.17717515624827E-05,1.40707134050899E-05,2.98828125,0,0
-2.19831617869204E-05,1.42690705615678E-05,2.98828125,0,0
-2.13657713175053E-05,1.50994483192335E-05,2.98828125,0,0
-2.03849558602087E-05,1.5518340660492E-05,2.98828125,0,0
-2.02057963178959E-05,1.44683626785991E-05,2.98828125,0,0
-1.67625967151253E-05,1.04907758213812E-05,2.98828125,0,0
-2.45756509684725E-05,1.51571175592835E-05,2.98828125,0,0
-2.06931217689998E-05,1.32626100821653E-05,2.98828125,0,0
-2.65124708676012E-05,1.74228134710575E-05,2.98828125,0,0
-2.35809711739421E-05,1.36975768327829E-05,2.98828125,0,0
-2.52167210419429E-05,1.34844740387052E-05,2.98828125,0,0
-2.23488568735775E-05,1.23167501442367E-05,2.98828125,0,0
-2.19909197767265E-05,1.35789150590426E-05,2.98828125,0,0
-1.99986498046201E-05,1.30832468130393E-05,2.98828125,0,0
-2.0303754354245E-05,9.97686765913386E-06,2.98828125,0,0
-2.19306057260837E-05,6.4680612013035E-06,2.98828125,0,0
-2.19185512833064E-05,4.49610752184526E-06,2.98828125,0,0
-2.20203000935726E-05,5.68853465665597E-06,2.98828125,0,0
-2.02570972760441E-05,7.19709942131885E-06,2.98828125,0,0
-2.06456643354613E-05,1.00371935332078E-05,2.98828125,0,0
-1.96994478756096E-05,1.1513227946125E-05,2.98828125,0,0
-2.12879931495991E-05,1.24078214867041E-05,2.98828125,0,0
-2.12514823942911E-05,1.02048097687657E-05,2.98828125,0,0
-2.19862031372031E-05,8.60167438077042E-06,2.98828125,0,0
-2.06207805604208E-05,7.79238234827062E-06,2.98828125,0,0
-2.10165526368655E-05,8.68202369019855E-06,2.98828125,0,0
-2.11901806324022E-05,8.04079627414467E-06,2.98828125,0,0
-2.30938621825771E-05,7.35534513296443E-06,2.98828125,0,0
-2.46114195761038E-05,7.58178566684364E-06,2.98828125,0,0
-2.6814410375664E-05,9.72918769548414E-06,2.98828125,0,0
-2.71733024419518E-05,1.09140119093354E-05,2.98828125,0,0
-2.61265122389887E-05,9.84444250207162E-06,2.98828125,0,0
-2.20502042793669E-05,7.78443063609302E-06,2.98828125,0,0
-3.22747873724438E-05,1.32421728267218E-05,2.98828125,0,0
-2.47191783273593E-05,1.2560369214043E-05,2.98828125,0,0
-2.90659572783625E-05,1.30948283185717E-05,2.98828125,0,0
-2.42269816226326E-05,9.80456934485119E-06,2.98828125,0,0
-2.77757171716075E-05,1.11110912257573E-05,2.98828125,0,0
-2.62047997239279E-05,1.24442349260789E-05,2.98828125,0,0
-2.79709420283325E-05,1.38163513838663E-05,2.98828125,0,0
-2.80363456113264E-05,1.39151425173623E-05,2.98828125,0,0
-2.82975906884531E-05,1.29720947370515E-05,2.98828125,0,0
-2.73134937742725E-05,1.07391242636368E-05,2.98828125,0,0
-2.49364275077824E-05,9.23349762160797E-06,2.98828125,0,0
-2.57078445429215E-05,1.11145063783624E-05,2.98828125,0,0
-2.59272037510527E-05,1.32528457470471E-05,2.98828125,0,0
-2.80590193142416E-05,1.4964001820772E-05,2.98828125,0,0
-2.65085400315002E-05,1.45680987770902E-05,2.98828125,0,0
-2.63044876191998E-05,1.34656829686719E-05,2.98828125,0,0
-2.4332743123523E-05,1.05635890577105E-05,2.98828125,0,0
-2.47846146521624E-05,8.28151132736821E-06,2.98828125,0,0
-2.35707284446107E-05,7.30134024706786E-06,2.98828125,0,0
-2.56638013524935E-05,9.01742441783426E-06,2.98828125,0,0
-2.74773483397439E-05,1.037791116687E-05,2.98828125,0,0
-2.9046297640889E-05,8.84227665665094E-06,2.98828125,0,0
-2.75540423899656E-05,5.19881632499164E-06,2.98828125,0,0
-2.6394043743494E-05,3.79096104552445E-06,2.98828125,0,0
-2.54066308116307E-05,5.72011276744888E-06,2.98828125,0,0
-2.49534514296101E-05,9.25833228393458E-06,2.98828125,0,0
-2.02960563910892E-05,1.02170151876635E-05,2.98828125,0,0
-2.73758869298035E-05,1.42423095894628E-05,2.98828125,0,0
-1.91292474482907E-05,9.17156557989074E-06,2.98828125,0,0
-2.49260028795106E-05,1.04654654933256E-05,2.98828125,0,0
-2.02273076865822E-05,9.11651750357123E-06,2.98828125,0,0
-2.12145077966852E-05,1.15790617201128E-05,2.98828125,0,0
-1.78568661794998E-05,1.07802952697966E-05,2.98828125,0,0
-2.0144711015746E-05,1.08518861452467E-05,2.98828125,0,0
-2.12058475881349E-05,1.04162472780445E-05,2.98828125,0,0
-2.18087352550356E-05,1.01894547697157E-05,2.98828125,0,0
-2.14122446777765E-05,9.4737497420283E-06,2.98828125,0,0
-1.9209013771615E-05,9.0342673502164E-06,2.98828125,0,0
-2.02375595108606E-05,1.08699950942537E-05,2.98828125,0,0
-2.05828091566218E-05,1.20063914437196E-05,2.98828125,0,0
-2.21219379454851E-05,1.3157409739506E-05,2.98828125,0,0
-2.05429059860762E-05,1.28728206618689E-05,2.98828125,0,0
-2.20136953430483E-05,1.3079405107419E-05,2.98828125,0,0
-2.21755872189533E-05,1.10774417407811E-05,2.98828125,0,0
-2.3421589503414E-05,1.0041602763522E-05,2.98828125,0,0
-2.1287673007464E-05,9.83493828243809E-06,2.98828125,0,0
-2.07763405342121E-05,1.14784406832769E-05,2.98828125,0,0
-2.07194771064678E-05,1.16562496259576E-05,2.98828125,0,0
-2.33559676416917E-05,1.14783269964391E-05,2.98828125,0,0
-2.49538643402047E-05,1.14047124952776E-05,2.98828125,0,0
-2.4416691303486E-05,1.17375111585716E-05,2.98828125,0,0
-2.17339056689525E-05,1.18996495075407E-05,2.98828125,0,0
-2.00482354557607E-05,1.35442487589899E-05,2.98828125,0,0
-1.66381760209333E-05,1.13010628410848E-05,2.98828125,0,0
-2.39743967540562E-05,1.50091564137256E-05,2.98828125,0,0
-1.78359514393378E-05,1.07150117401034E-05,2.98828125,0,0
-2.10792823054362E-05,1.39171479531797E-05,2.98828125,0,0
-1.9055127268075E-05,9.80501499725506E-06,2.98828125,0,0
-2.35709158005193E-05,9.91712840914261E-06,2.98828125,0,0
-2.31202520808438E-05,9.91821252682712E-06,2.98828125,0,0
-2.45688916038489E-05,1.30959188027191E-05,2.98828125,0,0
-2.44227958319243E-05,1.45754711411428E-05,2.98828125,0,0
-2.47978969127871E-05,1.57497215695912E-05,2.98828125,0,0
-2.47079024120467E-05,1.41629079735139E-05,2.98828125,0,0
-2.3174041416496E-05,1.11512572402717E-05,2.98828125,0,0
-2.29334145842586E-05,1.08851390905329E-05,2.98828125,0,0
-2.15541822399246E-05,1.04491655292804E-05,2.98828125,0,0
-2.24377236008877E-05,1.17488616524497E-05,2.98828125,0,0
-2.12996274058241E-05,1.21655803013709E-05,2.98828125,0,0
-2.18795357795898E-05,1.39856838359265E-05,2.98828125,0,0
-2.18276691157371E-05,1.37538372655399E-05,2.98828125,0,0
-2.46102499659173E-05,1.40428892336786E-05,2.98828125,0,0
-2.59692878898932E-05,1.21458742796676E-05,2.98828125,0,0
-2.7085136025562E-05,1.14564481918933E-05,2.98828125,0,0
-2.57468564086594E-05,1.17317204058054E-05,2.98828125,0,0
-2.55298491538269E-05,1.2306169992371E-05,2.98828125,0,0
-2.62278808804695E-05,1.13318856165279E-05,2.98828125,0,0
-2.75989987130743E-05,9.60917259362759E-06,2.98828125,0,0
-2.79296073131263E-05,5.88124794376199E-06,2.98828125,0,0
-2.74775084108114E-05,3.74658907276171E-06,2.98828125,0,0
-2.20577712752856E-05,6.15955104876775E-06,2.98828125,0,0
-3.22683772537857E-05,1.31452734422055E-05,2.98828125,0,0
-2.47243951889686E-05,1.35402970045106E-05,2.98828125,0,0
-2.85759870166657E-05,1.15792154247174E-05,2.98828125,0,0
-2.30180958169512E-05,9.44249040912837E-06,2.98828125,0,0
-2.60885990428505E-05,9.89594991551712E-06,2.98828125,0,0
-2.41110428760294E-05,9.50273715716321E-06,2.98828125,0,0
-2.53854141192278E-05,1.00262313935673E-05,2.98828125,0,0
-2.40834888245445E-05,1.084894847736E-05,2.98828125,0,0
-2.29906763706822E-05,1.04166447272291E-05,2.98828125,0,0
-2.33379269047873E-05,8.42830741021317E-06,2.98828125,0,0
-2.3794649678166E-05,7.13526742401882E-06,2.98828125,0,0
-2.48480628215475E-05,7.76564775151201E-06,2.98828125,0,0
-2.29639481403865E-05,8.1269963629893E-06,2.98828125,0,0
-2.30209425353678E-05,8.12680355011253E-06,2.98828125,0,0
-2.1071884475532E-05,7.33230899641057E-06,2.98828125,0,0
-2.21094378503039E-05,6.77200205245754E-06,2.98828125,0,0
-2.17247925320407E-05,5.58530200578389E-06,2.98828125,0,0
-2.39916334976442E-05,4.31235139330965E-06,2.98828125,0,0
-2.46649487962713E-05,4.00748967877007E-06,2.98828125,0,0
-2.59167409240035E-05,6.37680977888522E-06,2.98828125,0,0
-2.37193853536155E-05,8.95181165105896E-06,2.98828125,0,0
-2.19412868318614E-05,1.04907203422044E-05,2.98828125,0,0
-1.99245168914786E-05,1.19591686598142E-05,2.98828125,0,0
-2.02772262127837E-05,1.38723953568842E-05,2.98828125,0,0
-2.14903211599449E-05,1.45184849316138E-05,2.98828125,0,0
-2.20348756556632E-05,1.33207549879444E-05,2.98828125,0,0
-1.75856403075159E-05,9.38350876822369E-06,2.98828125,0,0
-2.50724024226656E-05,1.31008127937093E-05,2.98828125,0,0
-2.06309687200701E-05,9.78345269686542E-06,2.98828125,0,0
-2.71003791567637E-05,1.23791141959373E-05,2.98828125,0,0
-2.3641150619369E-05,1.05138678918593E-05,2.98828125,0,0
-2.56759285548469E-05,1.27032635646174E-05,2.98828125,0,0
-2.37165932048811E-05,1.17774015961913E-05,2.98828125,0,0
-2.41937814280391E-05,1.0632366866048E-05,2.98828125,0,0
-2.31413141591474E-05,8.63767127157189E-06,2.98828125,0,0
-2.28292374231387E-05,7.91894308349583E-06,2.98828125,0,0
-2.27733780775452E-05,7.81815197115066E-06,2.98828125,0,0
-2.21667814912507E-05,8.04351202532416E-06,2.98828125,0,0
-2.34314320550766E-05,1.00896550065954E-05,2.98828125,0,0
-2.46951512963278E-05,1.15643415483646E-05,2.98828125,0,0
-2.82917189906584E-05,1.28360652524862E-05,2.98828125,0,0
-2.77107810688904E-05,1.20329277706333E-05,2.98828125,0,0
-2.70651053142501E-05,1.11920908238972E-05,2.98828125,0,0
-2.50380708166631E-05,8.59144165588077E-06,2.98828125,0,0
-2.5604047550587E-05,7.88023498898838E-06,2.98828125,0,0
-2.42898695432814E-05,7.49398668631329E-06,2.98828125,0,0
-2.39003202295862E-05,7.4025520007126E-06,2.98828125,0,0
-2.23427905439166E-05,7.25313566363184E-06,2.98828125,0,0
-2.2676334992866E-05,1.01579844340449E-05,2.98828125,0,0
-2.29665383812971E-05,1.26818276839913E-05,2.98828125,0,0
-2.38588199863443E-05,1.26033955893945E-05,2.98828125,0,0
-2.44785587710794E-05,1.07323803604231E-05,2.98828125,0,0
-2.46406889345963E-05,1.04268137874897E-05,2.98828125,0,0
-1.98792713490548E-05,9.12518953555264E-06,2.98828125,0,0
-2.81198936136207E-05,1.30934413391515E-05,2.98828125,0,0
-2.08381934498902E-05,1.1468400771264E-05,2.98828125,0,0
-2.58970503637102E-05,1.62213655130472E-05,2.98828125,0,0
-2.24715186050162E-05,1.51580698002363E-05,2.98828125,0,0
-2.58017153100809E-05,1.489400256105E-05,2.98828125,0,0
-2.38873053604038E-05,1.27506946228095E-05,2.98828125,0,0
-2.53157268161885E-05,1.42931185109774E-05,2.98828125,0,0
-2.54510068771197E-05,1.51389394886792E-05,2.98828125,0,0
-2.63457950495649E-05,1.55976540554548E-05,2.98828125,0,0
-2.65857888734899E-05,1.48526050907094E-05,2.98828125,0,0
-2.54671667789808E-05,1.26664408526267E-05,2.98828125,0,0
-2.61489039985463E-05,1.20470031106379E-05,2.98828125,0,0
-2.57276242336957E-05,1.18788002509973E-05,2.98828125,0,0
-2.85376772808377E-05,1.26147078844951E-05,2.98828125,0,0
-2.92547956632916E-05,1.18730795293231E-05,2.98828125,0,0
-3.04665863950504E-05,1.20702388812788E-05,2.98828125,0,0
-2.84585257759318E-05,1.12495872599538E-05,2.98828125,0,0
-2.88198061753064E-05,1.17964746095822E-05,2.98828125,0,0
-2.73334317171248E-05,1.26565755635966E-05,2.98828125,0,0
-2.66859387920704E-05,1.50111236507655E-05,2.98828125,0,0
-2.50662160397042E-05,1.62538672157098E-05,2.98828125,0,0
-2.52357349381782E-05,1.7137954273494E-05,2.98828125,0,0
-2.51386190939229E-05,1.57977410708554E-05,2.98828125,0,0
-2.61452187260147E-05,1.37165725391242E-05,2.98828125,0,0
-2.6193094527116E-05,1.26579088828294E-05,2.98828125,0,0
-2.52426361839753E-05,1.16238170448923E-05,2.98828125,0,0
-2.00215417862637E-05,8.17797899799189E-06,2.98828125,0,0
-2.92285021714633E-05,1.1470611752884E-05,2.98828125,0,0
-2.30857185670175E-05,9.42606493481435E-06,2.98828125,0,0
-2.65562157437671E-05,1.22319852380315E-05,2.98828125,0,0
-2.03380095626926E-05,9.54426104726736E-06,2.98828125,0,0
-2.27279633691069E-05,8.53521669341717E-06,2.98828125,0,0
-2.21883474296192E-05,6.19858337813639E-06,2.98828125,0,0
-2.58612744801212E-05,7.22701088307076E-06,2.98828125,0,0
-2.59490570897469E-05,8.40132452140097E-06,2.98828125,0,0
-2.44625953200739E-05,9.72514226305066E-06,2.98828125,0,0
-2.22961189138005E-05,1.015908219415E-05,2.98828125,0,0
-2.0358425899758E-05,9.75658531388035E-06,2.98828125,0,0
-2.08677902264753E-05,9.70106520981062E-06,2.98828125,0,0
-1.96428445633501E-05,8.93701053428231E-06,2.98828125,0,0
-2.1189787730691E-05,9.50251160247717E-06,2.98828125,0,0
-2.19009634747636E-05,9.43172744882759E-06,2.98828125,0,0
-2.50493467319757E-05,1.03624261100776E-05,2.98828125,0,0
-2.50318462349242E-05,1.08242320493446E-05,2.98828125,0,0
-2.5586698029656E-05,1.25167134683579E-05,2.98828125,0,0
-2.37211752391886E-05,1.1872903087351E-05,2.98828125,0,0
-2.34525614359882E-05,9.45760621107183E-06,2.98828125,0,0
-2.1793055566377E-05,6.87450665282086E-06,2.98828125,0,0
-2.22853414015844E-05,8.7162652562256E-06,2.98828125,0,0
-2.27755754167447E-05,1.18193938760669E-05,2.98828125,0,0
-2.31721787713468E-05,1.32456316350726E-05,2.98828125,0,0
-2.32425354624866E-05,1.28356286950293E-05,2.98828125,0,0
-2.39529290411156E-05,1.08923559309915E-05,2.98828125,0,0
-2.00298127310816E-05,7.9091814768617E-06,2.98828125,0,0
-2.86928279820131E-05,1.22630926853162E-05,2.98828125,0,0
-2.15736290556379E-05,1.12329007606604E-05,2.98828125,0,0
-2.63934125541709E-05,1.32884779304732E-05,2.98828125,0,0
-2.35825718846172E-05,1.0812541404448E-05,2.98828125,0,0
-2.77632370853098E-05,1.12308152893092E-05,2.98828125,0,0
-2.54569567914587E-05,8.86079396877903E-06,2.98828125,0,0
-2.56859948422061E-05,7.10362610334414E-06,2.98828125,0,0
-2.56457897194196E-05,6.89706075718277E-06,2.98828125,0,0
-2.59680255112471E-05,9.24986579775577E-06,2.98828125,0,0
-2.50001030508429E-05,1.1577893019421E-05,2.98828125,0,0
-2.36375017266255E-05,1.19506094051758E-05,2.98828125,0,0
-2.4533841497032E-05,1.22415667647147E-05,2.98828125,0,0
-2.3800703274901E-05,1.13480782601982E-05,2.98828125,0,0
-2.53687303484185E-05,9.75131297309417E-06,2.98828125,0,0
-2.50312859861879E-05,7.23949870007345E-06,2.98828125,0,0
-2.6694771804614E-05,6.09359949521604E-06,2.98828125,0,0
-2.62693865806796E-05,4.02492469220306E-06,2.98828125,0,0
-2.78990992228501E-05,4.01151373807807E-06,2.98828125,0,0
-2.71460212388774E-05,6.01112697040662E-06,2.98828125,0,0
-2.66499882854987E-05,8.88564954948379E-06,2.98828125,0,0
-2.46748859353829E-05,8.60114232636988E-06,2.98828125,0,0
-2.43945705733495E-05,7.44464568924741E-06,2.98828125,0,0
-2.29816487262724E-05,7.65936601965223E-06,2.98828125,0,0
-2.20023794099689E-05,9.92680452327477E-06,2.98828125,0,0
-2.196800596721E-05,1.21720304377959E-05,2.98828125,0,0
-2.34500985243358E-05,1.37925080707646E-05,2.98828125,0,0
-2.07075936486945E-05,1.15653247121372E-05,2.98828125,0,0
-2.90047082671663E-05,1.54031931742793E-05,2.98828125,0,0
-2.03435847652145E-05,8.97928021004191E-06,2.98828125,0,0
-2.43243994191289E-05,1.0542807103775E-05,2.98828125,0,0
-1.97263452719199E-05,7.49792707210872E-06,2.98828125,0,0
-2.2723077563569E-05,9.95289246930042E-06,2.98828125,0,0
-2.13433213502867E-05,1.15697675937554E-05,2.98828125,0,0
-2.27664095291402E-05,1.29398840726935E-05,2.98828125,0,0
-2.14012434298638E-05,1.01278119473136E-05,2.98828125,0,0
-2.02915216505062E-05,8.12111829873174E-06,2.98828125,0,0
-2.09292902582092E-05,8.94058757694438E-06,2.98828125,0,0
-2.12808918149676E-05,9.60370380198583E-06,2.98828125,0,0
-2.26793854380958E-05,1.04079326774809E-05,2.98828125,0,0
-2.23261158680543E-05,1.06590750874602E-05,2.98828125,0,0
-2.39995424635708E-05,1.29862974063144E-05,2.98828125,0,0
-2.33006630878663E-05,1.4026544704393E-05,2.98828125,0,0
-2.45141363848234E-05,1.50971754919738E-05,2.98828125,0,0
-2.27062701014802E-05,1.39560224852175E-05,2.98828125,0,0
-2.23247279791394E-05,1.46923493957729E-05,2.98828125,0,0
-2.10783728107344E-05,1.59314113261644E-05,2.98828125,0,0
-2.27635846385965E-05,1.71694609889528E-05,2.98828125,0,0
-2.42750302277273E-05,1.56744026753586E-05,2.98828125,0,0
-2.66085462499177E-05,1.45178373713861E-05,2.98828125,0,0
-2.60637989413226E-05,1.38373952722759E-05,2.98828125,0,0
-2.44494713115273E-05,1.35157079057535E-05,2.98828125,0,0
-2.25308049266459E-05,1.20081358545576E-05,2.98828125,0,0
-2.16694043047028E-05,1.00338038464542E-05,2.98828125,0,0
-1.75825316546252E-05,7.36390575184487E-06,2.98828125,0,0
-2.42856640397804E-05,1.0833025953616E-05,2.98828125,0,0
-1.77126003109152E-05,9.30678197619272E-06,2.98828125,0,0
-2.28330263780663E-05,1.1484954484331E-05,2.98828125,0,0
-1.97740646399325E-05,1.07085998024559E-05,2.98828125,0,0
-2.22491416934645E-05,1.24615071399603E-05,2.98828125,0,0
-1.95031680050306E-05,1.06727247839444E-05,2.98828125,0,0
-1.90963019122137E-05,9.80079403234413E-06,2.98828125,0,0
-1.89401634997921E-05,9.0353987616254E-06,2.98828125,0,0
-2.09077588806394E-05,9.62329977483023E-06,2.98828125,0,0
-2.31096400966635E-05,9.46939780988032E-06,2.98828125,0,0
-2.35868592426414E-05,8.48762010718929E-06,2.98828125,0,0
-2.45039809669834E-05,9.57282281888183E-06,2.98828125,0,0
-2.36161486100173E-05,1.15633465611609E-05,2.98828125,0,0
-2.42518872255459E-05,1.39507465064526E-05,2.98828125,0,0
-2.22258804569719E-05,1.39860449053231E-05,2.98828125,0,0
-2.20296005863929E-05,1.39857465910609E-05,2.98828125,0,0
-2.08751735044643E-05,1.27838829939719E-05,2.98828125,0,0
-2.29346478590742E-05,1.32218019643915E-05,2.98828125,0,0
-2.43349259108072E-05,1.4309310245153E-05,2.98828125,0,0
-2.63281781371916E-05,1.57994709297782E-05,2.98828125,0,0
-2.56802086369134E-05,1.58775947056711E-05,2.98828125,0,0
-2.59514526987914E-05,1.61149218911305E-05,2.98828125,0,0
-2.67503546638181E-05,1.46549664350459E-05,2.98828125,0,0
-2.87382663373137E-05,1.26787244880688E-05,2.98828125,0,0
-2.92078857455635E-05,1.17238096208894E-05,2.98828125,0,0
-2.75311758741736E-05,1.13059968498419E-05,2.98828125,0,0
-1.97322788153542E-05,8.57913619256578E-06,2.98828125,0,0
-2.80716994893737E-05,1.19267861009575E-05,2.98828125,0,0
-2.22574890358374E-05,9.67083451541839E-06,2.98828125,0,0
-2.80770182143897E-05,1.31252591017983E-05,2.98828125,0,0
-2.4100989321596E-05,1.0571236089163E-05,2.98828125,0,0
-2.84573889075546E-05,1.04155287772301E-05,2.98828125,0,0
-2.78095903922804E-05,9.42427777772537E-06,2.98828125,0,0
-2.90286134259077E-05,1.07356900116429E-05,2.98828125,0,0
-2.7563861294766E-05,1.1937720955757E-05,2.98828125,0,0
-2.69466072495561E-05,1.28778292491916E-05,2.98828125,0,0
-2.57580813922687E-05,1.26479644677602E-05,2.98828125,0,0
-2.3889631847851E-05,1.12908473965945E-05,2.98828125,0,0
-2.42212736338843E-05,9.99102576315636E-06,2.98828125,0,0
-2.30009191000136E-05,7.97675784269813E-06,2.98828125,0,0
-2.34290801017778E-05,7.66408356867032E-06,2.98828125,0,0
-2.15009258681675E-05,8.00215366325574E-06,2.98828125,0,0
-2.24654286284931E-05,9.76734827418113E-06,2.98828125,0,0
-2.18905843212269E-05,9.94266156340018E-06,2.98828125,0,0
-2.33687806030503E-05,1.00773277154076E-05,2.98828125,0,0
-2.24274481297471E-05,8.35893843031954E-06,2.98828125,0,0
-2.28405478992499E-05,6.17260093349614E-06,2.98828125,0,0
-2.15477757592453E-05,4.59630336990813E-06,2.98828125,0,0
-2.09961817745352E-05,7.35103185434127E-06,2.98828125,0,0
-2.09597837965703E-05,1.04143655335065E-05,2.98828125,0,0
-2.30864006880438E-05,1.13681708171498E-05,2.98828125,0,0
-2.48212309088558E-05,1.15145603558631E-05,2.98828125,0,0
-2.5119259589701E-05,1.22116171041853E-05,2.98828125,0,0
-1.98910311155487E-05,1.08983113022987E-05,2.98828125,0,0
-2.66599308815785E-05,1.4420071238419E-05,2.98828125,0,0
-1.79939670488238E-05,8.89136390469503E-06,2.98828125,0,0
-2.34666385949822E-05,1.14007698357455E-05,2.98828125,0,0
-2.11870228667976E-05,1.03128395494423E-05,2.98828125,0,0
-2.60922806774033E-05,1.37597817229107E-05,2.98828125,0,0
-2.38542179431533E-05,1.37890683618025E-05,2.98828125,0,0
-2.25586118176579E-05,1.2207214240334E-05,2.98828125,0,0
-1.8811550035025E-05,9.16537555895047E-06,2.98828125,0,0
-1.63580916705541E-05,9.46296222537057E-06,2.98828125,0,0
-1.62092092068633E-05,1.11898261820897E-05,2.98828125,0,0
-1.72071704582777E-05,1.13036985567305E-05,2.98828125,0,0
-2.04519292310579E-05,1.11152021418093E-05,2.98828125,0,0
-2.08156779990532E-05,9.83975132839987E-06,2.98828125,0,0
-2.19512494368246E-05,9.58256714511663E-06,2.98828125,0,0
-2.00126105482923E-05,8.52325774758356E-06,2.98828125,0,0
-2.05409633053932E-05,9.59216595219914E-06,2.98828125,0,0
-2.00128069991479E-05,9.26222037378466E-06,2.98828125,0,0
-2.19075500353938E-05,9.36933975026477E-06,2.98828125,0,0
-2.19339217437664E-05,7.88891156844329E-06,2.98828125,0,0
-2.2740247004549E-05,6.99190786690451E-06,2.98828125,0,0
-2.13106413866626E-05,6.07206175118336E-06,2.98828125,0,0
-2.24022332986351E-05,6.49293224341818E-06,2.98828125,0,0
-2.34083581744926E-05,7.30874489818234E-06,2.98828125,0,0
-2.31073536269832E-05,8.68023926159367E-06,2.98828125,0,0
-2.21146692638285E-05,9.76797764451476E-06,2.98828125,0,0
-2.33309656323399E-05,1.05819899545168E-05,2.98828125,0,0
-2.08403616852593E-05,8.1830121416715E-06,2.98828125,0,0
-2.97285732813179E-05,9.88647752819816E-06,2.98828125,0,0
-2.15025593206519E-05,4.86469934912748E-06,2.98828125,0,0
-2.59760035987711E-05,6.78905871609459E-06,2.98828125,0,0
-2.24671875912463E-05,6.48126797386794E-06,2.98828125,0,0
-2.62467783613829E-05,1.00435345302685E-05,2.98828125,0,0
-2.61089862760855E-05,1.06554525700631E-05,2.98828125,0,0
-2.81558823189698E-05,1.15148195618531E-05,2.98828125,0,0
-2.54414535447722E-05,1.10879154817667E-05,2.98828125,0,0
-2.31828544201562E-05,9.73676833382342E-06,2.98828125,0,0
-2.35110237554181E-05,8.88006798049901E-06,2.98828125,0,0
-2.5038638341357E-05,9.47993066802155E-06,2.98828125,0,0
-2.77892177109607E-05,1.16923092718935E-05,2.98828125,0,0
-2.6977320885635E-05,1.29274867504137E-05,2.98828125,0,0
-2.71961689577438E-05,1.35624659378664E-05,2.98828125,0,0
-2.50495886575663E-05,1.13218357000733E-05,2.98828125,0,0
-2.49091845034854E-05,1.03506245068274E-05,2.98828125,0,0
-2.24731011257973E-05,1.06824418253382E-05,2.98828125,0,0
-2.25766889343504E-05,1.26597578855581E-05,2.98828125,0,0
-2.21085174416658E-05,1.28635174405645E-05,2.98828125,0,0
-2.37351268879138E-05,1.25496935652336E-05,2.98828125,0,0
-2.3696633434156E-05,1.19604965220788E-05,2.98828125,0,0
-2.48773430939764E-05,1.29420532175573E-05,2.98828125,0,0
-2.51368928729789E-05,1.27253406390082E-05,2.98828125,0,0
-2.61216628132388E-05,1.01510167951346E-05,2.98828125,0,0
-2.74270605586935E-05,6.7670321186597E-06,2.98828125,0,0
-2.8459135137382E-05,6.34494108453509E-06,2.98828125,0,0
-2.26006141019752E-05,8.18803164293058E-06,2.98828125,0,0
-3.05451212625485E-05,1.35620657601976E-05,2.98828125,0,0
-2.16871503653238E-05,1.27475532281096E-05,2.98828125,0,0
-2.81647371593863E-05,1.5233434169204E-05,2.98828125,0,0
-2.36196756304707E-05,1.40734555316158E-05,2.98828125,0,0
-2.73425139312167E-05,1.44115974762826E-05,2.98828125,0,0
-2.46810377575457E-05,1.15496322905528E-05,2.98828125,0,0
-2.51900528382976E-05,9.57547854341101E-06,2.98828125,0,0
-2.39525961660547E-05,9.37030290515395E-06,2.98828125,0,0
-2.37274816754507E-05,1.09012544271536E-05,2.98828125,0,0
-2.34347389778122E-05,1.25928690977162E-05,2.98828125,0,0
-2.2764046661905E-05,1.19561937026447E-05,2.98828125,0,0
-2.58533982560039E-05,1.0644138455973E-05,2.98828125,0,0
-2.73138466582168E-05,9.5353079814231E-06,2.98828125,0,0
-2.98361374007072E-05,1.02085859907675E-05,2.98828125,0,0
-2.79676514765015E-05,9.99867006612476E-06,2.98828125,0,0
-2.73625282716239E-05,1.00795614343951E-05,2.98828125,0,0
-2.43129998125369E-05,9.53351536736591E-06,2.98828125,0,0
-2.51964538620086E-05,1.04131995612988E-05,2.98828125,0,0
-2.518833753129E-05,1.11737517727306E-05,2.98828125,0,0
-2.58205891441321E-05,1.08568701762124E-05,2.98828125,0,0
-2.30795703828335E-05,8.20029708847869E-06,2.98828125,0,0
-2.13679541047895E-05,6.36829463473987E-06,2.98828125,0,0
-2.01359216589481E-05,8.06222578830784E-06,2.98828125,0,0
-2.14047140616458E-05,1.24487860375666E-05,2.98828125,0,0
-2.30079440370901E-05,1.46253951243125E-05,2.98828125,0,0
-2.33872542594327E-05,1.32326531456783E-05,2.98828125,0,0
-1.77207530214218E-05,1.1173512575624E-05,2.98828125,0,0
-2.42158439505147E-05,1.88829053513473E-05,2.98828125,0,0
-1.76036992343143E-05,1.68737478816183E-05,2.98828125,0,0
-2.27865875785938E-05,1.78406771738082E-05,2.98828125,0,0
-1.91794460988604E-05,1.52270631588181E-05,2.98828125,0,0
-2.27008713409305E-05,1.71891497302568E-05,2.98828125,0,0
-2.26699667109642E-05,1.68753940670285E-05,2.98828125,0,0
-2.45320843532681E-05,1.66485770023428E-05,2.98828125,0,0
-2.37493277381873E-05,1.4565433957614E-05,2.98828125,0,0
-2.2276779418462E-05,1.33045859911363E-05,2.98828125,0,0
-2.14205247175414E-05,1.2883021554444E-05,2.98828125,0,0
-2.11408896575449E-05,1.14878785097972E-05,2.98828125,0,0
-2.31660687859403E-05,1.12023462861544E-05,2.98828125,0,0
-2.39117398450617E-05,1.10516994027421E-05,2.98828125,0,0
-2.59414682659553E-05,1.07713376564789E-05,2.98828125,0,0
-2.50238335866015E-05,8.11319932836341E-06,2.98828125,0,0
-2.58767249761149E-05,7.17760849511251E-06,2.98828125,0,0
-2.56259354500799E-05,5.23733160662232E-06,2.98828125,0,0
-2.70163272944046E-05,2.95866266242228E-06,2.98828125,0,0
-2.55982358794427E-05,8.63502066295041E-07,2.98828125,0,0
-2.41317266045371E-05,1.16221031021269E-06,2.98828125,0,0
-2.24043651542161E-05,9.72702878243581E-07,2.98828125,0,0
-2.42343521676958E-05,8.85921679127932E-07,2.98828125,0,0
-2.54319893429056E-05,1.2151306236774E-06,2.98828125,0,0
-2.50105840677861E-05,2.95163340524596E-06,2.98828125,0,0
-2.3017166313366E-05,5.10789823238156E-06,2.98828125,0,0
-2.24857358261943E-05,7.34432478566305E-06,2.98828125,0,0
-1.85186872840859E-05,6.408350145648E-06,2.98828125,0,0
-2.59212811215548E-05,9.0868015831802E-06,2.98828125,0,0
-1.93612740986282E-05,6.68622033117572E-06,2.98828125,0,0
-2.49350650847191E-05,8.48796662467066E-06,2.98828125,0,0
-2.26330630539451E-05,9.74043996393448E-06,2.98828125,0,0
-2.58043382928008E-05,1.21342854981776E-05,2.98828125,0,0
-2.34543240367202E-05,9.22701110539492E-06,2.98828125,0,0
-2.36211199080572E-05,7.70851147535723E-06,2.98828125,0,0
-2.13409366551787E-05,7.64921151130693E-06,2.98828125,0,0
-2.14892261283239E-05,9.36631749937078E-06,2.98828125,0,0
-2.31018875638256E-05,1.10321352622123E-05,2.98828125,0,0
-2.38184275076492E-05,1.21162020150223E-05,2.98828125,0,0
-2.55713785008993E-05,1.32429568111547E-05,2.98828125,0,0
-2.48280975938542E-05,1.35710552058299E-05,2.98828125,0,0
-2.5050650947378E-05,1.46798865898745E-05,2.98828125,0,0
-2.33603113883873E-05,1.41754399010097E-05,2.98828125,0,0
-2.41863926930819E-05,1.41346290547517E-05,2.98828125,0,0
-2.36344712902792E-05,1.38455870910548E-05,2.98828125,0,0
-2.65298094745958E-05,1.40037845994812E-05,2.98828125,0,0
-2.85641654045321E-05,1.25382148326025E-05,2.98828125,0,0
-3.01894469885156E-05,1.17233794298954E-05,2.98828125,0,0
-2.84860798274167E-05,1.06953411886934E-05,2.98828125,0,0
-2.80504082184052E-05,1.1226076821913E-05,2.98828125,0,0
-2.7190544642508E-05,1.36028147608158E-05,2.98828125,0,0
-2.70508680841886E-05,1.57866979861865E-05,2.98828125,0,0
-2.60886445175856E-05,1.68472142831888E-05,2.98828125,0,0
-2.5617926439736E-05,1.672809048614E-05,2.98828125,0,0
-2.01524508156581E-05,1.26484283100581E-05,2.98828125,0,0
-2.74543144769268E-05,1.78789487108588E-05,2.98828125,0,0
-1.98596462723799E-05,1.45245476232958E-05,2.98828125,0,0
-2.61716595559847E-05,2.02674509637291E-05,2.98828125,0,0
-2.26374286285136E-05,1.72883737832308E-05,2.98828125,0,0
-2.54301794484491E-05,1.5979036106728E-05,2.98828125,0,0
-2.29256074817386E-05,1.34357942442875E-05,2.98828125,0,0
-2.46387826337013E-05,1.50915584526956E-05,2.98828125,0,0
-2.50644243351417E-05,1.49130937643349E-05,2.98828125,0,0
-2.59920470853103E-05,1.43173892865889E-05,2.98828125,0,0
-2.6531937692198E-05,1.38321593112778E-05,2.98828125,0,0
-2.52150457527023E-05,1.27551911646151E-05,2.98828125,0,0
-2.5032170015038E-05,1.28324954857817E-05,2.98828125,0,0
-2.33233095059404E-05,1.15652455860982E-05,2.98828125,0,0
-2.41692741838051E-05,1.18349089461844E-05,2.98828125,0,0
-2.31768535741139E-05,1.1225878552068E-05,2.98828125,0,0
-2.49693548539653E-05,1.12530615297146E-05,2.98828125,0,0
-2.42763489950448E-05,8.64424782776041E-06,2.98828125,0,0
-2.46307918132516E-05,7.47248168408987E-06,2.98828125,0,0
-2.30684090638533E-05,6.52737298878492E-06,2.98828125,0,0
-2.34623767028097E-05,6.80414132148144E-06,3.33984375,0,0
-2.20247984543676E-05,6.52109883958474E-06,3.33984375,0,0
-2.2009618987795E-05,7.75063199398573E-06,3.33984375,0,0
-2.2473199351225E-05,8.33395279187243E-06,3.33984375,0,0
-2.34229028137634E-05,7.90983358456288E-06,3.33984375,0,0
-2.32775128097273E-05,6.21180879534222E-06,3.33984375,0,0
-2.3030093871057E-05,6.17457499174634E-06,3.33984375,0,0
-1.94912809092784E-05,6.42181885268656E-06,3.33984375,0,0
-2.85698479274288E-05,1.03876045614015E-05,3.33984375,0,0
-2.25773583224509E-05,9.62183821684448E-06,3.33984375,0,0
-2.71015633188654E-05,1.23307981994003E-05,3.33984375,0,0
-2.22787202801555E-05,1.3740220310865E-05,3.33984375,0,0
-2.3406219042954E-05,1.56595669977833E-05,3.33984375,0,0
-2.028312337643E-05,1.33642461150885E-05,3.33984375,0,0
-2.13135936064646E-05,1.205474291055E-05,3.33984375,0,0
-2.1170571926632E-05,1.24249017972033E-05,3.33984375,0,0
-2.14754727494437E-05,1.23996769616497E-05,3.33984375,0,0
-2.20203946810216E-05,9.74832983047236E-06,3.33984375,0,0
-2.02841274585808E-05,7.1065524025471E-06,3.33984375,0,0
-1.99280548258685E-05,7.29157818568638E-06,3.33984375,0,0
-1.91678209375823E-05,7.87621866038535E-06,3.33984375,0,0
-2.09697500395123E-05,8.45013801153982E-06,3.33984375,0,0
-2.09486861422192E-05,8.65172569319839E-06,3.33984375,0,0
-2.3382401195704E-05,1.01857394838589E-05,3.33984375,0,0
-2.37618714891141E-05,1.08884878500248E-05,3.33984375,0,0
-2.4802642656141E-05,1.12470734165981E-05,3.33984375,0,0
-2.37454732996412E-05,1.06885627246811E-05,3.33984375,0,0
-2.48048090725206E-05,9.74978411250049E-06,3.33984375,0,0
-2.51643159572268E-05,7.08635889168363E-06,3.33984375,0,0
-2.61218228843063E-05,4.87518673253362E-06,3.33984375,0,0
-2.54180213232758E-05,5.27059864907642E-06,3.33984375,0,0
-2.41881134570576E-05,9.04804619494826E-06,3.33984375,0,0
-2.3279602828552E-05,1.13176411105087E-05,3.33984375,0,0
-2.34777744481107E-05,1.20690447147354E-05,3.33984375,0,0
-1.94824406207772E-05,9.92644709185697E-06,3.33984375,0,0
-2.64742520812433E-05,1.49295865412569E-05,3.33984375,0,0
-1.90093869605334E-05,1.29092013594345E-05,3.33984375,0,0
-2.40787721850211E-05,1.55819470819552E-05,3.33984375,0,0
-1.92964198504342E-05,1.26119393826229E-05,3.33984375,0,0
-2.15408017538721E-05,1.2847209291067E-05,3.33984375,0,0
-1.90102891792776E-05,1.11275148810819E-05,3.33984375,0,0
-2.07623852475081E-05,1.24923744806438E-05,3.33984375,0,0
-2.17170327232452E-05,1.24130374388187E-05,3.33984375,0,0
-2.2150397853693E-05,1.08275298771332E-05,3.33984375,0,0
-2.20445581362583E-05,8.47498267830815E-06,3.33984375,0,0
-2.14410756598227E-05,7.45717807149049E-06,3.33984375,0,0
-2.35216648434289E-05,8.42251847643638E-06,3.33984375,0,0
-2.46619511017343E-05,8.22761649033055E-06,3.33984375,0,0
-2.70147957053268E-05,9.00272789294831E-06,3.33984375,0,0
-2.59608623309759E-05,9.41166763368528E-06,3.33984375,0,0
-2.66759579972131E-05,1.11544177343603E-05,3.33984375,0,0
-2.53115940722637E-05,1.20552576845512E-05,3.33984375,0,0
-2.5751258363016E-05,1.47946711877012E-05,3.33984375,0,0
-2.46009731199592E-05,1.60180479724659E-05,3.33984375,0,0
-2.54252699960489E-05,1.62932719831588E-05,3.33984375,0,0
-2.50941448030062E-05,1.4976792044763E-05,3.33984375,0,0
-2.59835796896368E-05,1.40420079333126E-05,3.33984375,0,0
-2.60498654824914E-05,1.22571073006839E-05,3.33984375,0,0
-2.57657957263291E-05,1.04909704532474E-05,3.33984375,0,0
-2.40726203628583E-05,7.86645887274062E-06,3.33984375,0,0
-2.34510062000481E-05,7.28101986169349E-06,3.33984375,0,0
-1.89394831977552E-05,8.99871520232409E-06,3.33984375,0,0
-2.56995299423579E-05,1.65717465279158E-05,3.33984375,0,0
-1.79130402102601E-05,1.68022634170484E-05,3.33984375,0,0
-2.29554789257236E-05,1.56729311129311E-05,3.33984375,0,0
-1.90886876225704E-05,7.73393003328238E-06,3.33984375,0,0
-2.18731074710377E-05,4.35920446761884E-06,3.33984375,0,0
-1.98956367967185E-05,3.03311799143557E-06,3.33984375,0,0
-2.16421067307238E-05,4.22080847783946E-06,3.33984375,0,0
-2.34425369853852E-05,4.45322757514077E-06,3.33984375,0,0
-2.50066932494519E-05,4.64028971691732E-06,3.33984375,0,0
-2.57477677223505E-05,5.88152124691987E-06,3.33984375,0,0
-2.56597504630918E-05,6.39107611277723E-06,3.33984375,0,0
-2.7324214897817E-05,7.64928881835658E-06,3.33984375,0,0
-2.74609756161226E-05,9.12668747332646E-06,3.33984375,0,0
-2.88408173219068E-05,1.11337749331142E-05,3.33984375,0,0
-2.80229905911256E-05,1.18180187200778E-05,3.33984375,0,0
-3.03592732961988E-05,1.29466634462005E-05,3.33984375,0,0
-3.0764229450142E-05,1.29918180391542E-05,3.33984375,0,0
-3.18497768603265E-05,1.34026176965563E-05,3.33984375,0,0
-3.02786411339184E-05,1.19033247756306E-05,3.33984375,0,0
-3.04096847685287E-05,9.73493388300994E-06,3.33984375,0,0
-3.00488063658122E-05,8.78040555107873E-06,3.33984375,0,0
-3.02144435408991E-05,1.0467745596543E-05,3.33984375,0,0
-2.94879828288686E-05,1.24073048937134E-05,3.33984375,0,0
-3.01295040117111E-05,1.26341665236396E-05,3.33984375,0,0
-3.08932067127898E-05,1.15741713671014E-05,3.33984375,0,0
-3.0394779969356E-05,1.06776224129135E-05,3.33984375,0,0
-2.27336258831201E-05,9.26402208278887E-06,3.33984375,0,0
-3.1005656637717E-05,1.45989151860704E-05,3.33984375,0,0
-2.14523824979551E-05,1.28951314763981E-05,3.33984375,0,0
-2.64282516582171E-05,1.37981569423573E-05,3.33984375,0,0
-2.17771266761702E-05,1.00114302767906E-05,3.33984375,0,0
-2.5414858100703E-05,1.10309019873966E-05,3.33984375,0,0
-2.22803500946611E-05,1.15355478556012E-05,3.33984375,0,0
-2.35232673730934E-05,1.39157891680952E-05,3.33984375,0,0
-2.29992620006669E-05,1.44040377563215E-05,3.33984375,0,0
-2.24455397983547E-05,1.40270331030479E-05,3.33984375,0,0
-2.16986918530893E-05,1.31531851366162E-05,3.33984375,0,0
-2.06570239242865E-05,1.25012775242794E-05,3.33984375,0,0
-2.15073123399634E-05,1.29701147670858E-05,3.33984375,0,0
-2.04507523449138E-05,1.25877350001247E-05,3.33984375,0,0
-2.15234576899093E-05,1.3569130715041E-05,3.33984375,0,0
-1.9544904716895E-05,1.45058775160578E-05,3.33984375,0,0
-2.03396812139545E-05,1.66805511980783E-05,3.33984375,0,0
-1.95465945580509E-05,1.66461868502665E-05,3.33984375,0,0
-2.18758195842383E-05,1.66438330779783E-05,3.33984375,0,0
-2.19888206629548E-05,1.54881745402236E-05,3.33984375,0,0
-2.32826532737818E-05,1.47634018503595E-05,3.33984375,0,0
-2.31437061302131E-05,1.39909952849848E-05,3.33984375,0,0
-2.4091239538393E-05,1.35873342514969E-05,3.33984375,0,0
-2.24158266064478E-05,1.22740793813136E-05,3.33984375,0,0
-2.12203922274057E-05,1.21895000120276E-05,3.33984375,0,0
-2.10295656870585E-05,1.19714904940338E-05,3.33984375,0,0
-2.17874276131624E-05,1.1258494851063E-05,3.33984375,0,0
-1.73194057424553E-05,8.57967552292394E-06,3.33984375,0,0
-2.32323254749645E-05,1.19265678222291E-05,3.33984375,0,0
-1.55857214849675E-05,9.03802902030293E-06,3.33984375,0,0
-1.89311558642657E-05,1.18181569632725E-05,3.33984375,0,0
-1.57263802975649E-05,9.9510325526353E-06,3.33984375,0,0
-1.97411427507177E-05,1.10538694571005E-05,3.33984375,0,0
-1.9120179786114E-05,1.06930310721509E-05,3.33984375,0,0
-2.21054415305844E-05,1.07505638879957E-05,3.33984375,0,0
-2.29087290790631E-05,9.62437388807302E-06,3.33984375,0,0
-2.30613823077874E-05,9.76360479398863E-06,3.33984375,0,0
-2.36574942391599E-05,1.05057579276036E-05,3.33984375,0,0
-2.39102082559839E-05,1.08665208244929E-05,3.33984375,0,0
-2.49483236984815E-05,1.10283599497052E-05,3.33984375,0,0
-2.37196254602168E-05,9.58335022005485E-06,3.33984375,0,0
-2.4045479221968E-05,8.4547427832149E-06,3.33984375,0,0
-2.22318358282791E-05,7.2221837399411E-06,3.33984375,0,0
-2.32425481954124E-05,7.7144477472757E-06,3.33984375,0,0
-2.29495253734058E-05,7.64046581025468E-06,3.33984375,0,0
-2.40789941017283E-05,9.76397495833226E-06,3.33984375,0,0
-2.33478276641108E-05,1.19713213280193E-05,3.33984375,0,0
-2.42282676481409E-05,1.33975172502687E-05,3.33984375,0,0
-2.38147094933083E-05,1.06647767097456E-05,3.33984375,0,0
-2.32321108342148E-05,7.7637459980906E-06,3.33984375,0,0
-2.20510737563018E-05,7.5478819780983E-06,3.33984375,0,0
-2.27216587518342E-05,8.74841316544916E-06,3.33984375,0,0
-2.29800352826715E-05,8.01564783614594E-06,3.33984375,0,0
-2.32616421271814E-05,6.58186490909429E-06,3.33984375,0,0
-1.93450741790002E-05,5.04470608575502E-06,3.33984375,0,0
-2.70719083346194E-05,8.73173939908156E-06,3.33984375,0,0
-1.81059458554955E-05,8.25912775326287E-06,3.33984375,0,0
-2.17258420889266E-05,8.61135504237609E-06,3.33984375,0,0
-2.0254185074009E-05,7.79544279794209E-06,3.33984375,0,0
-2.53342041105498E-05,9.20835736906156E-06,3.33984375,0,0
-2.37354233831866E-05,8.65360743773635E-06,3.33984375,0,0
-2.46119416260626E-05,8.71675001690164E-06,3.33984375,0,0
-2.50062948907726E-05,9.67636515269987E-06,3.33984375,0,0
-2.68511739704991E-05,1.12068482849281E-05,3.33984375,0,0
-2.74273170361994E-05,1.1253124284849E-05,3.33984375,0,0
-2.56491057371022E-05,1.01890691439621E-05,3.33984375,0,0
-2.59453190665226E-05,8.81453615875216E-06,3.33984375,0,0
-2.51844794547651E-05,7.40402992960298E-06,3.33984375,0,0
-2.55408631346654E-05,6.87864485371392E-06,3.33984375,0,0
-2.29807628784329E-05,5.46013870916795E-06,3.33984375,0,0
-2.27311247726902E-05,5.0161984290753E-06,3.33984375,0,0
-2.15688287426019E-05,5.95033452555072E-06,3.33984375,0,0
-2.38349803112214E-05,8.73051430971827E-06,3.33984375,0,0
-2.49505264946492E-05,1.00333281807252E-05,3.33984375,0,0
-2.57662650255952E-05,1.00745619420195E-05,3.33984375,0,0
-2.40531389863463E-05,9.97241386357928E-06,3.33984375,0,0
-2.36070518440101E-05,1.02720614449936E-05,4.04296875,0,0
-2.20219299080782E-05,9.84147845883854E-06,4.04296875,0,0
-2.16391854337417E-05,9.65308117883978E-06,4.04296875,0,0
-2.20879610424163E-05,9.84824237093562E-06,4.04296875,0,0
-2.30631139856996E-05,1.03829679574119E-05,4.04296875,0,0
-2.05618689506082E-05,8.84576547832694E-06,4.04296875,0,0
-3.05315807054285E-05,1.28447427414358E-05,4.04296875,0,0
-2.40576737269294E-05,1.097822405427E-05,4.04296875,0,0
-2.79322412097827E-05,1.55656689457828E-05,4.04296875,0,0
-2.30975929298438E-05,1.60339714057045E-05,4.04296875,0,0
-2.6545212676865E-05,1.93534651771188E-05,4.04296875,0,0
-2.50889588642167E-05,1.87137975444784E-05,4.04296875,0,0
-2.5827228455455E-05,1.70478870131774E-05,4.04296875,0,0
-2.4155791834346E-05,1.47729970194632E-05,4.04296875,0,0
-2.38896391238086E-05,1.33788198581897E-05,4.04296875,0,0
-2.51748606387991E-05,1.28525225591147E-05,4.04296875,0,0
-2.54302922257921E-05,1.24257721836329E-05,4.04296875,0,0
-2.71452172455611E-05,1.17998688438092E-05,4.04296875,0,0
-2.63529254880268E-05,9.54977986111771E-06,4.04296875,0,0
-2.70383898168802E-05,8.74487250257516E-06,4.04296875,0,0
-2.56570947385626E-05,7.67536948842462E-06,4.04296875,0,0
-2.69664924417157E-05,8.20495915831998E-06,4.04296875,0,0
-2.61112654698081E-05,7.71448958403198E-06,4.04296875,0,0
-2.57605788647197E-05,7.37283016860601E-06,4.04296875,0,0
-2.37503500102321E-05,7.18307819624897E-06,4.04296875,0,0
-2.45865667238832E-05,9.22790786717087E-06,4.04296875,0,0
-2.38381799135823E-05,1.05507861007936E-05,4.04296875,0,0
-2.29142024181783E-05,1.11809440568322E-05,4.04296875,0,0
-2.21586997213308E-05,1.04365053630318E-05,4.04296875,0,0
-2.37688127526781E-05,9.05963770492235E-06,4.04296875,0,0
-2.56113162322436E-05,8.83994471223559E-06,4.04296875,0,0
-2.55490431300132E-05,9.81618359219283E-06,4.04296875,0,0
-1.975598752324E-05,8.58313160279067E-06,4.04296875,0,0
-2.80454551102594E-05,1.31064880406484E-05,4.04296875,0,0
-2.24118866753997E-05,1.24045955089969E-05,4.04296875,0,0
-2.96948601317126E-05,1.56146652443567E-05,4.04296875,0,0
-2.64029949903488E-05,1.33280700538307E-05,4.04296875,0,0
-2.78157094726339E-05,1.39965995913371E-05,4.04296875,0,0
-2.3846445401432E-05,1.21285493150936E-05,4.04296875,0,0
-2.41733287111856E-05,1.16145401989343E-05,4.04296875,0,0
-2.41195593844168E-05,1.08964868559269E-05,4.04296875,0,0
-2.49936747422908E-05,1.0518680937821E-05,4.04296875,0,0
-2.55945597018581E-05,9.11498955247225E-06,4.04296875,0,0
-2.4482847948093E-05,6.55185021969373E-06,4.04296875,0,0
-2.46377949224552E-05,4.90801267005736E-06,4.04296875,0,0
-2.37062467931537E-05,3.53400628227973E-06,4.04296875,0,0
-2.51013370871078E-05,5.15024612468551E-06,4.04296875,0,0
-2.45017035922501E-05,7.21521428204142E-06,4.04296875,0,0
-2.63848596659955E-05,1.05289091152372E-05,4.04296875,0,0
-2.58146137639415E-05,1.26516206364613E-05,4.04296875,0,0
-2.63170713878935E-05,1.41920518217376E-05,4.04296875,0,0
-2.47018833761103E-05,1.38203140522819E-05,4.04296875,0,0
-2.54137667070609E-05,1.3851051335223E-05,4.04296875,0,0
-2.54622245847713E-05,1.30340476971469E-05,4.04296875,0,0
-2.61688091995893E-05,1.27905786939664E-05,4.04296875,0,0
-2.57274514297023E-05,1.28745969050215E-05,4.04296875,0,0
-2.575569851615E-05,1.3617059266835E-05,4.04296875,0,0
-2.56364874076098E-05,1.24761218103231E-05,4.04296875,0,0
-2.53776906902203E-05,1.16049795906292E-05,4.04296875,0,0
-1.98840207303874E-05,1.02117628557608E-05,4.04296875,0,0
-2.73260611720616E-05,1.50390369526576E-05,4.04296875,0,0
-1.94446583918761E-05,1.18256648420356E-05,4.04296875,0,0
-2.46163217525464E-05,1.37601400638232E-05,4.04296875,0,0
-2.02682022063527E-05,1.25502265291288E-05,4.04296875,0,0
-2.11948681680951E-05,1.55165253090672E-05,4.04296875,0,0
-1.63499971677084E-05,1.34887059175526E-05,4.04296875,0,0
-1.60464751388645E-05,1.28748733914108E-05,4.04296875,0,0
-1.49213210534072E-05,1.16990604510647E-05,4.04296875,0,0
-1.52154361785506E-05,1.11270064735436E-05,4.04296875,0,0
-1.63273707585176E-05,1.17787258204771E-05,4.04296875,0,0
-1.67894613696262E-05,1.20201157187694E-05,4.04296875,0,0
-1.9594352124841E-05,1.25499700516229E-05,4.04296875,0,0
-2.02178489416838E-05,1.135211368819E-05,4.04296875,0,0
-2.11143287742743E-05,1.21309903988731E-05,4.04296875,0,0
-1.82083404069999E-05,1.28597412185627E-05,4.04296875,0,0
-1.77178244484821E-05,1.39646654133685E-05,4.04296875,0,0
-1.67225971381413E-05,1.25522656162502E-05,4.04296875,0,0
-1.82215499080485E-05,1.18673633551225E-05,4.04296875,0,0
-1.78104401129531E-05,1.14199574454688E-05,4.04296875,0,0
-1.90613300219411E-05,1.18747320811963E-05,4.04296875,0,0
-1.92202369362349E-05,1.06037387013203E-05,4.04296875,0,0
-2.15619929804234E-05,9.76167939370498E-06,4.04296875,0,0
-2.28187655011425E-05,1.02129852166399E-05,4.04296875,0,0
-2.30151854339056E-05,1.00185952760512E-05,4.04296875,0,0
-2.21480368054472E-05,7.95446521806298E-06,4.04296875,0,0
-2.27099080802873E-05,7.50749632061343E-06,4.04296875,0,0
-2.00230770133203E-05,7.10306221662904E-06,4.04296875,0,0
-2.79099403996952E-05,1.17494546429953E-05,4.04296875,0,0
-1.97902481886558E-05,1.14380436571082E-05,4.04296875,0,0
-2.49206732405582E-05,1.33594558064942E-05,4.04296875,0,0
-2.29888046305859E-05,1.2479693396017E-05,4.04296875,0,0
-2.80429139820626E-05,1.30655944303726E-05,4.04296875,0,0
-2.69453867076663E-05,9.08451511349995E-06,4.04296875,0,0
-2.81932316283928E-05,6.90915931045311E-06,4.04296875,0,0
-2.83067493000999E-05,7.55644350647344E-06,4.04296875,0,0
-2.99447237921413E-05,8.41065593704116E-06,4.04296875,0,0
-3.11471521854401E-05,8.69880568643566E-06,4.04296875,0,0
-2.98637260129908E-05,9.45814645092469E-06,4.04296875,0,0
-2.88347127934685E-05,1.03800366559881E-05,4.04296875,0,0
-2.6327152227168E-05,9.93535377347143E-06,4.04296875,0,0
-2.77563704003114E-05,9.81612902251072E-06,4.04296875,0,0
-2.87190414383076E-05,8.70621988724452E-06,4.04296875,0,0
-3.07683876599185E-05,7.86338932812214E-06,4.04296875,0,0
-2.82622895610984E-05,6.44879128230968E-06,4.04296875,0,0
-2.71784247161122E-05,6.73073873258545E-06,4.04296875,0,0
-2.54904589382932E-05,7.01432963978732E-06,4.04296875,0,0
-2.67004761553835E-05,8.14424129202962E-06,4.04296875,0,0
-2.66699571511708E-05,9.18362457014155E-06,4.04296875,0,0
-2.71660719590727E-05,1.03796019175206E-05,4.04296875,0,0
-2.5817262212513E-05,1.06017287180293E-05,4.04296875,0,0
-2.42440110014286E-05,1.04846312751761E-05,4.04296875,0,0
-2.41923080466222E-05,9.99441635940457E-06,4.04296875,0,0
-2.50103876169305E-05,9.22452363738557E-06,4.04296875,0,0
-2.00230915652355E-05,8.57756003824761E-06,4.04296875,0,0
-2.79108444374288E-05,1.40313495649025E-05,4.04296875,0,0
-2.06743843591539E-05,1.17127410703688E-05,4.04296875,0,0
-2.63646543317009E-05,1.2554626664496E-05,4.04296875,0,0
-2.30703626584727E-05,1.02585627246299E-05,4.04296875,0,0
-2.58330001088325E-05,1.047347268468E-05,4.04296875,0,0
-2.30228706641356E-05,1.0480959645065E-05,4.04296875,0,0
-2.29157012654468E-05,1.14973427116638E-05,4.04296875,0,0
-2.08799028769135E-05,1.05388007796137E-05,4.04296875,0,0
-2.17093693208881E-05,9.49200693867169E-06,4.04296875,0,0
-2.35409188462654E-05,9.10173184820451E-06,4.04296875,0,0
-2.41190391534474E-05,1.03600377769908E-05,4.04296875,0,0
-2.54917777056107E-05,1.27488901853212E-05,4.04296875,0,0
-2.46099552896339E-05,1.28426599985687E-05,4.04296875,0,0
-2.61735549429432E-05,1.14167705760337E-05,4.04296875,0,0
-2.5371671654284E-05,8.9292079792358E-06,4.04296875,0,0
-2.64737755060196E-05,8.98783946468029E-06,4.04296875,0,0
-2.54270617006114E-05,1.0282962648489E-05,4.04296875,0,0
-2.59811549767619E-05,1.21056191346725E-05,4.04296875,0,0
-2.38885859289439E-05,1.11446752271149E-05,4.04296875,0,0
-2.35758943745168E-05,9.68605218076846E-06,4.04296875,0,0
-2.23218539758818E-05,8.50588548928499E-06,4.04296875,0,0
-2.26013198698638E-05,7.64140258979751E-06,4.04296875,0,0
-2.33827795454999E-05,6.41925544186961E-06,4.04296875,0,0
-2.52270492637763E-05,7.32022817828693E-06,4.04296875,0,0
-2.42449877987383E-05,9.09343179955613E-06,4.04296875,0,0
-2.18299592233961E-05,1.05170474853367E-05,4.04296875,0,0
-1.6493744624313E-05,1.02202111520455E-05,4.04296875,0,0
-2.33960163313895E-05,1.41069467645139E-05,4.04296875,0,0
-1.84972832357744E-05,9.11160896066576E-06,4.04296875,0,0
-2.38682696362957E-05,1.00135812317603E-05,4.04296875,0,0
-2.15980544453487E-05,6.48278000880964E-06,4.04296875,0,0
-2.50816956395283E-05,7.80891514295945E-06,4.04296875,0,0
-2.39241435338045E-05,7.84779240348144E-06,4.04296875,0,0
-2.46335021074628E-05,8.24732887849677E-06,4.04296875,0,0
-2.3258358851308E-05,7.82626557338517E-06,4.04296875,0,0
-2.30950754485093E-05,8.39086351334117E-06,4.04296875,0,0
-2.34826275118394E-05,9.57667816692265E-06,4.04296875,0,0
-2.330595816602E-05,9.95561003946932E-06,4.04296875,0,0
-2.50487810262712E-05,1.1326456842653E-05,4.04296875,0,0
-2.45065730268834E-05,1.13757532744785E-05,4.04296875,0,0
-2.50204138865229E-05,1.12594871097826E-05,4.04296875,0,0
-2.44820039370097E-05,1.05594035630929E-05,4.04296875,0,0
-2.66196475422475E-05,1.16369446914177E-05,4.04296875,0,0
-2.57908086496172E-05,1.12598418127163E-05,4.04296875,0,0
-2.5465878934483E-05,1.10845176095609E-05,4.04296875,0,0
-2.46988583967322E-05,1.02087615232449E-05,4.04296875,0,0
-2.54993792623281E-05,9.98999439616455E-06,4.04296875,0,0
-2.42018049902981E-05,9.23639436223311E-06,4.04296875,0,0
-2.31520589295542E-05,1.01674795587314E-05,4.04296875,0,0
-2.19071116589475E-05,1.1458400877018E-05,4.04296875,0,0
-2.21988375415094E-05,1.23399986478034E-05,4.04296875,0,0
-2.2444874048233E-05,1.25144433695823E-05,4.04296875,0,0
-2.41233137785457E-05,1.26243776321644E-05,4.04296875,0,0
-2.0415964172571E-05,1.07663818198489E-05,4.04296875,0,0
-2.79820051218849E-05,1.55390680447454E-05,4.04296875,0,0
-1.95769243873656E-05,1.15393295345712E-05,4.04296875,0,0
-2.4594395654276E-05,1.36715489134076E-05,4.04296875,0,0
-2.09526151593309E-05,1.07266978375264E-05,4.04296875,0,0
-2.52359877777053E-05,1.28640476759756E-05,4.04296875,0,0
-2.45178980549099E-05,1.45636731758714E-05,4.04296875,0,0
-2.71937769866781E-05,1.57285030581988E-05,4.04296875,0,0
-2.69571501121391E-05,1.39827061502729E-05,4.04296875,0,0
-2.6193094527116E-05,1.18969464892871E-05,4.04296875,0,0
-2.61674776993459E-05,1.01242776509025E-05,4.04296875,0,0
-2.66363640548661E-05,9.36486048885854E-06,4.04296875,0,0
-2.84201269096229E-05,1.12831612568698E-05,4.04296875,0,0
-2.68535568466177E-05,1.22986348287668E-05,4.04296875,0,0
-2.66456208919408E-05,1.21733901323751E-05,4.04296875,0,0
-2.50917219091207E-05,9.99147050606553E-06,4.04296875,0,0
-2.69725005637156E-05,9.7663050837582E-06,4.04296875,0,0
-2.67029990936862E-05,9.0178527898388E-06,4.04296875,0,0
-2.81277480098652E-05,8.77171260071918E-06,4.04296875,0,0
-2.72317429335089E-05,7.36305537429871E-06,4.04296875,0,0
-2.75369275186677E-05,7.87281896919012E-06,4.04296875,0,0
-2.63452329818392E-05,9.65839535638224E-06,4.04296875,0,0
-2.68999792751856E-05,1.11523850137019E-05,4.04296875,0,0
-2.71012613666244E-05,9.91365322988713E-06,4.04296875,0,0
-2.77188864856726E-05,9.47543412621599E-06,4.04296875,0,0
-2.76517257589148E-05,1.1566337889235E-05,4.04296875,0,0
-2.6795109079103E-05,1.2624625924218E-05,4.04296875,0,0
-2.09738354897127E-05,9.95413938653655E-06,4.04296875,0,0
-3.07154259644449E-05,1.46366928674979E-05,4.04296875,0,0
-2.4814344214974E-05,1.24320331451599E-05,4.04296875,0,0
-2.88678384094965E-05,1.51837484736461E-05,4.04296875,0,0
-2.13571311178384E-05,1.16160708785173E-05,4.04296875,0,0
-2.24421746679582E-05,1.21479724839446E-05,4.04296875,0,0
-2.08227356779389E-05,1.31918732222402E-05,4.04296875,0,0
-2.36383675655816E-05,1.67980306287063E-05,4.04296875,0,0
-2.33208538702456E-05,1.78064783540322E-05,4.04296875,0,0
-2.20456076931441E-05,1.73411481227959E-05,4.04296875,0,0
-2.09183490369469E-05,1.69800568983192E-05,4.04296875,0,0
-2.05853248189669E-05,1.60343333845958E-05,4.04296875,0,0
-2.2902459022589E-05,1.43813713293639E-05,4.04296875,0,0
-2.33486007346073E-05,1.0899389963015E-05,4.04296875,0,0
-2.48414926318219E-05,9.23435891309055E-06,4.04296875,0,0
-2.27601885853801E-05,8.32611658552196E-06,4.04296875,0,0
-2.38384054682683E-05,9.44847761275014E-06,4.04296875,0,0
-2.45432584051741E-05,9.02526517165825E-06,4.04296875,0,0
-2.69250758719863E-05,9.78561547526624E-06,4.04296875,0,0
-2.50883640546817E-05,1.07524974737316E-05,4.04296875,0,0
-2.38858738157433E-05,1.25195074360818E-05,4.04296875,0,0
-2.27056734729558E-05,1.22788969747489E-05,4.04296875,0,0
-2.3487340513384E-05,1.15451184683479E-05,4.04296875,0,0
-2.26468291657511E-05,1.20087897812482E-05,4.04296875,0,0
-2.21567042899551E-05,1.45142930705333E-05,4.04296875,0,0
-2.07199318538187E-05,1.56592977873515E-05,4.04296875,0,0
-1.93470332305878E-05,1.40649699460482E-05,4.04296875,0,0
-1.59562750923214E-05,9.53613562160172E-06,4.04296875,0,0
-2.27448799705599E-05,1.28831452457234E-05,4.04296875,0,0
-1.69689246831695E-05,9.12172072276007E-06,4.04296875,0,0
-2.14545707422076E-05,1.14771473818109E-05,4.04296875,0,0
-1.97301724256249E-05,8.88181784830522E-06,4.04296875,0,0
-2.15992786252173E-05,1.14711219794117E-05,4.04296875,0,0
-1.8114187696483E-05,1.22411884149187E-05,4.04296875,0,0
-1.73890985024627E-05,1.30867310872418E-05,4.04296875,0,0
-1.66876598086674E-05,1.27909115690272E-05,4.04296875,0,0
-1.73695934790885E-05,1.18668485811213E-05,4.04296875,0,0
-1.84324690053472E-05,9.18162459129235E-06,4.04296875,0,0
-1.85076642083004E-05,6.14449663771666E-06,4.04296875,0,0
-1.96313194464892E-05,6.11836549069267E-06,4.04296875,0,0
-1.98731904674787E-05,6.19652018940542E-06,4.04296875,0,0
-2.28694789257133E-05,7.96690073912032E-06,4.04296875,0,0
-2.45621831709286E-05,8.67812741489615E-06,4.04296875,0,0
-2.55345858022338E-05,8.97775953490054E-06,4.04296875,0,0
-2.26272204599809E-05,7.2110228757083E-06,4.04296875,0,0
-2.21038608287927E-05,7.84383519203402E-06,4.04296875,0,0
-2.15374311665073E-05,9.42419774219161E-06,4.04296875,0,0
-2.27844993787585E-05,1.18139623737079E-05,4.04296875,0,0
-2.33595837926259E-05,1.28087731354753E-05,4.04296875,0,0
-2.3606356990058E-05,1.35245772980852E-05,4.04296875,0,0
-2.24707637244137E-05,1.33297362481244E-05,4.04296875,0,0
-2.18799159483751E-05,1.33119629026623E-05,4.04296875,0,0
-2.21809477807255E-05,1.44739178722375E-05,4.04296875,0,0
-2.32967940974049E-05,1.46906313602813E-05,4.04296875,0,0
-1.9064556909143E-05,1.06139250419801E-05,4.04296875,0,0
-2.72196284640813E-05,1.40484507937799E-05,4.04296875,0,0
-2.04636598937213E-05,9.59079898166237E-06,4.04296875,0,0
-2.54032711382024E-05,1.25621236293227E-05,4.04296875,0,0
-2.17723172681872E-05,1.00293636933202E-05,4.921875,0,0
-2.40975969063584E-05,1.04626824395382E-05,4.921875,0,0
-2.13254315895028E-05,8.22796755528543E-06,4.921875,0,0
-2.23978440772044E-05,9.57126394496299E-06,4.921875,0,0
-2.2755504687666E-05,1.05458493635524E-05,4.921875,0,0
-2.26105767069384E-05,1.19814339996083E-05,4.921875,0,0
-2.2370702936314E-05,1.22276769616292E-05,4.921875,0,0
-2.22084017877933E-05,1.08437980088638E-05,4.921875,0,0
-2.38325865211664E-05,1.04766877484508E-05,4.921875,0,0
-2.36062314797891E-05,9.21300033951411E-06,4.921875,0,0
-2.54290334851248E-05,1.0610839126457E-05,4.921875,0,0
-2.45953688136069E-05,1.22566070785979E-05,4.921875,0,0
-2.49612294282997E-05,1.39992935146438E-05,4.921875,0,0
-2.35652150877286E-05,1.26169679788291E-05,4.921875,0,0
-2.43963277171133E-05,1.23099771371926E-05,4.921875,0,0
-2.34162216656841E-05,1.22101137094432E-05,4.921875,0,0
-2.31581925618229E-05,1.34112442538026E-05,4.921875,0,0
-2.19992998609087E-05,1.32001714518992E-05,4.921875,0,0
-2.34846793318866E-05,1.35972095449688E-05,4.921875,0,0
-2.50372486334527E-05,1.30300913951942E-05,4.921875,0,0
-2.59769749391126E-05,1.14318772830302E-05,4.921875,0,0
-2.51132751145633E-05,1.05268445622642E-05,4.921875,0,0
-2.42906062339898E-05,1.10336250145338E-05,4.921875,0,0
-1.94715084944619E-05,8.58811563375639E-06,4.921875,0,0
-2.76708360615885E-05,1.11287381514558E-05,4.921875,0,0
-2.07125649467343E-05,8.02831164037343E-06,4.921875,0,0
-2.59287717199186E-05,1.08560043372563E-05,4.921875,0,0
-2.37558015214745E-05,8.06691969046369E-06,4.921875,0,0
-2.76909286185401E-05,7.93585604697E-06,4.921875,0,0
-2.4816323275445E-05,5.8990540310333E-06,4.921875,0,0
-2.50654065894196E-05,6.3485363170912E-06,4.921875,0,0
-2.37786862271605E-05,6.63356468066922E-06,4.921875,0,0
-2.39451710513094E-05,7.40717041480821E-06,4.921875,0,0
-2.51334095082711E-05,7.93033905210905E-06,4.921875,0,0
-2.43257509282557E-05,8.11284280644031E-06,4.921875,0,0
-2.36845808103681E-05,8.8112210505642E-06,4.921875,0,0
-2.15410746022826E-05,8.55958387546707E-06,4.921875,0,0
-2.23838796955533E-05,1.00487395684468E-05,4.921875,0,0
-2.17297874769429E-05,1.06145789686707E-05,4.921875,0,0
-2.29513170779683E-05,1.23529862321448E-05,4.921875,0,0
-2.25590847549029E-05,1.29686768559623E-05,4.921875,0,0
-2.55957838817267E-05,1.44639716381789E-05,4.921875,0,0
-2.65901489910902E-05,1.50268942888943E-05,4.921875,0,0
-2.71068856818601E-05,1.51603953781887E-05,4.921875,0,0
-2.55162849498447E-05,1.36591315822443E-05,4.921875,0,0
-2.58788040810032E-05,1.33182993522496E-05,4.921875,0,0
-2.62259782175533E-05,1.31039078041795E-05,4.921875,0,0
-2.77572198683629E-05,1.22049905257882E-05,4.921875,0,0
-2.95506470138207E-05,1.02230860647978E-05,4.921875,0,0
-2.99485982395709E-05,8.88415615918348E-06,4.921875,0,0
-2.12267605093075E-05,7.49843138692086E-06,4.921875,0,0
-2.70463096967433E-05,1.11590306914877E-05,4.921875,0,0
-1.82857183972374E-05,9.39163237489993E-06,4.921875,0,0
-2.57208757830085E-05,1.14410722744651E-05,4.921875,0,0
-2.10180278372718E-05,1.01612040452892E-05,4.921875,0,0
-2.3304542992264E-05,1.18466550702578E-05,4.921875,0,0
-1.99238074856112E-05,1.13149926619371E-05,4.921875,0,0
-2.19126650335966E-05,1.08118983916938E-05,4.921875,0,0
-2.26202264457243E-05,8.68760707817273E-06,4.921875,0,0
-2.37720505538164E-05,8.17628460936248E-06,4.921875,0,0
-2.43186623265501E-05,1.06098250398645E-05,4.921875,0,0
-2.45983064814936E-05,1.25600354294875E-05,4.921875,0,0
-2.59082717093406E-05,1.24857260743738E-05,4.921875,0,0
-2.3905746274977E-05,1.04552254924783E-05,4.921875,0,0
-2.48246560659027E-05,9.1233241619193E-06,4.921875,0,0
-2.47142870648531E-05,7.35177673050202E-06,4.921875,0,0
-2.73909899988212E-05,7.09086452843621E-06,4.921875,0,0
-2.62420926446794E-05,6.58563521938049E-06,4.921875,0,0
-2.68790827249177E-05,6.69771770844818E-06,4.921875,0,0
-2.54090919042937E-05,6.8266663220129E-06,4.921875,0,0
-2.53182588494383E-05,9.44954808801413E-06,4.921875,0,0
-2.37984349951148E-05,1.13821624836419E-05,4.921875,0,0
-2.50516241067089E-05,1.02055701063364E-05,4.921875,0,0
-2.56533294304973E-05,7.55410837882664E-06,4.921875,0,0
-2.55373488471378E-05,7.27579754311591E-06,4.921875,0,0
-2.42654859903269E-05,7.95926735008834E-06,4.921875,0,0
-2.37460935750278E-05,1.00487231975421E-05,4.921875,0,0
-1.97740373550914E-05,1.04834462035797E-05,4.921875,0,0
-2.92096610792214E-05,1.51622471094015E-05,4.921875,0,0
-2.40231383941136E-05,1.0981670129695E-05,4.921875,0,0
-2.87692655547289E-05,1.23285735753598E-05,4.921875,0,0
-2.41520592680899E-05,9.40337395149982E-06,4.921875,0,0
-2.70671444013715E-05,1.00902761914767E-05,4.921875,0,0
-2.57180963671999E-05,8.78868831932778E-06,4.921875,0,0
-2.62163521256298E-05,9.28508143260842E-06,4.921875,0,0
-2.35811530728824E-05,1.02151961982599E-05,4.921875,0,0
-2.27142209041631E-05,1.31741935547325E-05,4.921875,0,0
-2.35353218158707E-05,1.43835659400793E-05,4.921875,0,0
-2.361397491768E-05,1.30077014546259E-05,4.921875,0,0
-2.43542181124212E-05,1.1567884030228E-05,4.921875,0,0
-2.24555042223074E-05,9.97593360807514E-06,4.921875,0,0
-2.33063074119855E-05,1.08477343019331E-05,4.921875,0,0
-2.36324613069883E-05,1.05915114545496E-05,4.921875,0,0
-2.72271972789895E-05,1.06085681181867E-05,4.921875,0,0
-2.77910166914808E-05,8.82867698237533E-06,4.921875,0,0
-2.83588396996493E-05,7.50603385313298E-06,4.921875,0,0
-2.64541558863129E-05,6.41012184132705E-06,4.921875,0,0
-2.65199978457531E-05,8.92444768396672E-06,4.921875,0,0
-2.6483923647902E-05,1.06272791526862E-05,4.921875,0,0
-2.77309791272273E-05,9.96933431451907E-06,4.921875,0,0
-2.74761005130131E-05,8.18626722320914E-06,4.921875,0,0
-2.70246036961908E-05,8.43467751110438E-06,4.921875,0,0
-2.53481575782644E-05,1.02151116152527E-05,4.921875,0,0
-2.48443720920477E-05,1.23233257909305E-05,4.921875,0,0
-2.19316898437683E-05,1.03568181657465E-05,4.921875,0,0
-3.272139292676E-05,1.45659896588768E-05,4.921875,0,0
-2.51631481660297E-05,1.07746818684973E-05,4.921875,0,0
-2.81994998658774E-05,1.34161909954855E-05,4.921875,0,0
-2.29994966503E-05,1.18538137030555E-05,4.921875,0,0
-2.62821013166104E-05,1.40464007927221E-05,4.921875,0,0
-2.50252978730714E-05,1.36321223180857E-05,4.921875,0,0
-2.65914204646833E-05,1.42242688525585E-05,4.921875,0,0
-2.59978769463487E-05,1.43011511681834E-05,4.921875,0,0
-2.68787298409734E-05,1.61846874107141E-05,4.921875,0,0
-2.76132686849451E-05,1.75148925336543E-05,4.921875,0,0
-2.5753661248018E-05,1.7269605450565E-05,4.921875,0,0
-2.40058143390343E-05,1.73758780874778E-05,4.921875,0,0
-2.14649589906912E-05,1.62552150868578E-05,4.921875,0,0
-2.33327900787117E-05,1.57862014020793E-05,4.921875,0,0
-2.38781885855133E-05,1.4740271581104E-05,4.921875,0,0
-2.58816726272926E-05,1.54067747644149E-05,4.921875,0,0
-2.48912401730195E-05,1.36526005007909E-05,4.921875,0,0
-2.66455372184282E-05,1.20117711048806E-05,4.921875,0,0
-2.74472022283589E-05,1.03148977359524E-05,4.921875,0,0
-2.7775773560279E-05,1.06333836811245E-05,4.921875,0,0
-2.39440614677733E-05,1.13015366878244E-05,4.921875,0,0
-2.20941783481976E-05,1.29571017168928E-05,4.921875,0,0
-2.21514947043033E-05,1.30576636365731E-05,4.921875,0,0
-2.3749182219035E-05,1.288221028517E-05,4.921875,0,0
-2.38732955040177E-05,1.23162208183203E-05,4.921875,0,0
-2.28658227570122E-05,1.15852535600425E-05,4.921875,0,0
-1.73148710018722E-05,1.04941918834811E-05,4.921875,0,0
-2.44212678808253E-05,1.51507274495088E-05,4.921875,0,0
-1.74239867192227E-05,1.06139668787364E-05,4.921875,0,0
-1.9867264200002E-05,1.12648194772191E-05,4.921875,0,0
-1.58740585902706E-05,9.02891224541236E-06,4.921875,0,0
-1.92527058970882E-05,1.24438456623466E-05,4.921875,0,0
-1.81246250576805E-05,1.38276236612001E-05,4.921875,0,0
-1.83505198947387E-05,1.49118386616465E-05,4.921875,0,0
-1.62714513862738E-05,1.26497834571637E-05,4.921875,0,0
-1.58108869072748E-05,1.09106895251898E-05,4.921875,0,0
-1.70937346410938E-05,1.0903967449849E-05,4.921875,0,0
-1.87492278200807E-05,1.10263063106686E-05,4.921875,0,0
-1.99989444809034E-05,1.13835058073164E-05,4.921875,0,0
-1.76726116478676E-05,9.44533894653432E-06,4.921875,0,0
-1.69877712323796E-05,9.26489883568138E-06,4.921875,0,0
-1.54916906467406E-05,1.02120357041713E-05,4.921875,0,0
-1.77211586560588E-05,1.22371293400647E-05,4.921875,0,0
-1.97513363673352E-05,1.05072058431688E-05,4.921875,0,0
-2.3135249648476E-05,8.3533241195255E-06,4.921875,0,0
-2.21666559809819E-05,6.56912106933305E-06,4.921875,0,0
-1.98484958673362E-05,7.63007574278163E-06,4.921875,0,0
-1.72850923263468E-05,8.92770731297787E-06,4.921875,0,0
-1.88484809768852E-05,1.0455061783432E-05,4.921875,0,0
-2.09035915759159E-05,1.15183283924125E-05,4.921875,0,0
-2.38377779169241E-05,1.25288252093014E-05,4.921875,0,0
-2.46489416895201E-05,1.35418367790408E-05,4.921875,0,0
-2.25723051698878E-05,1.51055082824314E-05,4.921875,0,0
-1.59355440700892E-05,1.08830108729308E-05,4.921875,0,0
-2.31634221563581E-05,1.40460506372619E-05,4.921875,0,0
-1.95399115909822E-05,9.43312443268951E-06,4.921875,0,0
-2.39774253714131E-05,1.24332182167564E-05,4.921875,0,0
-2.02506835194072E-05,9.91633169178385E-06,4.921875,0,0
-2.29459401452914E-05,1.23360778161441E-05,4.921875,0,0
-2.09643276321003E-05,1.08394124254119E-05,4.921875,0,0
-2.2582844394492E-05,1.00865745480405E-05,4.921875,0,0
-2.24692157644313E-05,9.45458305068314E-06,4.921875,0,0
-2.2413965780288E-05,1.09696893559885E-05,4.921875,0,0
-2.22655853576725E-05,1.10058708742145E-05,4.921875,0,0
-2.14952742680907E-05,8.86956786416704E-06,4.921875,0,0
-2.27520577027462E-05,7.84645362728043E-06,4.921875,0,0
-2.31870799325407E-05,7.05480761098443E-06,4.921875,0,0
-2.48242322413716E-05,8.13934093457647E-06,4.921875,0,0
-2.33004793699365E-05,7.99968620412983E-06,4.921875,0,0
-2.31367794185644E-05,9.27500605030218E-06,4.921875,0,0
-2.15460349863861E-05,9.31871636566939E-06,4.921875,0,0
-2.26432421186473E-05,9.8166838142788E-06,4.921875,0,0
-2.3577616957482E-05,9.12099403649336E-06,4.921875,0,0
-2.6185382012045E-05,1.05020008049905E-05,4.921875,0,0
-2.71052595053334E-05,1.1878843906743E-05,4.921875,0,0
-2.86691592918942E-05,1.35275240609189E-05,4.921875,0,0
-2.94414348900318E-05,1.21741904877126E-05,4.921875,0,0
-2.945446249214E-05,8.85072495293571E-06,4.921875,0,0
-2.80003860098077E-05,6.54849600323359E-06,4.921875,0,0
-2.65260696323821E-05,7.40717541702907E-06,4.921875,0,0
-1.97415192815242E-05,7.78766752773663E-06,4.921875,0,0
-2.77979816019069E-05,1.1659050869639E-05,4.921875,0,0
-2.1381307306001E-05,9.51729725784389E-06,4.921875,0,0
-2.82255077763693E-05,1.04005594039336E-05,4.921875,0,0
-2.51251112786122E-05,7.0973978836264E-06,4.921875,0,0
-2.67889772658236E-05,7.76607976149535E-06,4.921875,0,0
-2.2396652639145E-05,7.60309285396943E-06,4.921875,0,0
-2.2360020011547E-05,7.568323326268E-06,4.921875,0,0
-2.25749790843111E-05,7.46830392017728E-06,4.921875,0,0
-2.38505217566853E-05,8.5253304860089E-06,4.921875,0,0
-2.38954999076668E-05,9.7993424788001E-06,4.921875,0,0
-2.17809738387587E-05,9.35292882786598E-06,4.921875,0,0
-2.19300964090507E-05,8.45235535962274E-06,4.921875,0,0
-2.07847187994048E-05,7.51134302845458E-06,4.921875,0,0
-2.11639617191395E-05,8.66764548845822E-06,4.921875,0,0
-2.00178710656473E-05,9.41953112487681E-06,4.921875,0,0
-2.21408754441654E-05,1.01441210063058E-05,4.921875,0,0
-2.29901997954585E-05,9.53091785049764E-06,4.921875,0,0
-2.54118513112189E-05,9.94418314803625E-06,4.921875,0,0
-2.50798948400188E-05,1.03368211057386E-05,4.921875,0,0
-2.56207586062374E-05,1.04927385109477E-05,4.921875,0,0
-2.50055181822972E-05,8.24890321382554E-06,4.921875,0,0
-2.66431543423096E-05,6.9170027927612E-06,4.921875,0,0
-2.78343832178507E-05,7.78512003307696E-06,4.921875,0,0
-2.83369881799445E-05,9.49391778704012E-06,4.921875,0,0
-2.82281944237184E-05,1.02403946584673E-05,4.921875,0,0
-2.76908467640169E-05,9.92614150163718E-06,4.921875,0,0
-2.13817638723413E-05,7.62355375627521E-06,4.921875,0,0
-3.05072389892302E-05,9.91676097328309E-06,4.921875,0,0
-2.44911680056248E-05,6.41695396552677E-06,4.921875,0,0
-3.15150682581589E-05,9.57082193053793E-06,4.921875,0,0
-2.67847281065769E-05,1.05227172753075E-05,4.921875,0,0
-2.92496297333855E-05,1.30012922454625E-05,4.921875,0,0
-2.68252442765515E-05,1.1784179150709E-05,4.921875,0,0
-2.75515285466099E-05,1.15854536488769E-05,4.921875,0,0
-2.54313654295402E-05,9.62116973823868E-06,4.921875,0,0
-2.29464239964727E-05,7.79828678787453E-06,4.921875,0,0
-2.1195841327426E-05,7.32487205823418E-06,4.921875,0,0
-2.01256316358922E-05,6.97794030202203E-06,4.921875,0,0
-2.22608850890538E-05,7.31722138880286E-06,4.921875,0,0
-2.16642947634682E-05,7.78352659835946E-06,4.921875,0,0
-2.1796864530188E-05,9.79091510089347E-06,4.921875,0,0
-2.04528441827279E-05,1.02312324088416E-05,4.921875,0,0
-2.33180289797019E-05,1.10162782220868E-05,4.921875,0,0
-2.38635329878889E-05,1.08068361441838E-05,4.921875,0,0
-2.44214315898716E-05,1.05530971268308E-05,4.921875,0,0
-2.25611875066534E-05,9.66983861871995E-06,4.921875,0,0
-2.45056708081393E-05,1.11009185275179E-05,4.921875,0,0
-2.62882258539321E-05,1.27897692436818E-05,4.921875,0,0
-2.71934004558716E-05,1.37983888635063E-05,4.921875,0,0
-2.59082808042876E-05,1.40877828016528E-05,4.921875,0,0
-2.60675406025257E-05,1.52525763041922E-05,4.921875,0,0
-2.60388915194198E-05,1.55602392624132E-05,4.921875,0,0
-2.62488720181864E-05,1.47362452480593E-05,4.921875,0,0
-2.08378041861579E-05,9.38663742999779E-06,4.921875,0,0
-2.88124228973174E-05,1.23108138723182E-05,4.921875,0,0
-2.16792050196091E-05,1.01559126051143E-05,4.921875,0,0
-2.73188525170553E-05,1.41102700581541E-05,4.921875,0,0
-2.16823846130865E-05,1.13354426503065E-05,4.921875,0,0
-2.36173291341402E-05,1.40880783874309E-05,4.921875,0,0
-2.13052808248904E-05,1.43425668284181E-05,4.921875,0,0
-2.32615038839867E-05,1.42433300425182E-05,4.921875,0,0
-2.37883632507874E-05,1.26682953123236E-05,4.921875,0,0
-2.46776689891703E-05,1.27012863231357E-05,6.15234375,0,0
-2.43648919422412E-05,1.27675266412552E-05,6.15234375,0,0
-2.39242144743912E-05,1.23232566693332E-05,6.15234375,0,0
-2.6356730813859E-05,1.22059045679634E-05,6.15234375,0,0
-2.60706419794587E-05,1.04970931715798E-05,6.15234375,0,0
-2.67647519649472E-05,1.06148081613355E-05,6.15234375,0,0
-2.57954379776493E-05,1.12941197585315E-05,6.15234375,0,0
-2.86646773020038E-05,1.32931572807138E-05,6.15234375,0,0
-2.91441938315984E-05,1.238775166712E-05,6.15234375,0,0
-2.98281775030773E-05,1.11597591967438E-05,6.15234375,0,0
-2.66538991127163E-05,9.45309420785634E-06,6.15234375,0,0
-2.47443222178845E-05,1.04319387901342E-05,6.15234375,0,0
-2.22157450480154E-05,1.16034152597422E-05,6.15234375,0,0
-2.25059902732028E-05,1.27819785120664E-05,6.15234375,0,0
-2.30039058806142E-05,1.26988770716707E-05,6.15234375,0,0
-2.40643439610722E-05,1.22458113764878E-05,6.15234375,0,0
-2.40051704167854E-05,1.01030846053618E-05,6.15234375,0,0
-2.4101413146127E-05,7.63484786148183E-06,6.15234375,0,0
-1.9347953639226E-05,7.52174128137995E-06,6.15234375,0,0
-2.65434100583661E-05,1.37639499371289E-05,6.15234375,0,0
-1.88631602213718E-05,1.47536920849234E-05,6.15234375,0,0
-2.30234418268083E-05,1.72816435224377E-05,6.15234375,0,0
-1.8695107428357E-05,1.69206941791344E-05,6.15234375,0,0
-2.25240873987786E-05,1.82362164196093E-05,6.15234375,0,0
-2.14539231819799E-05,1.7522914276924E-05,6.15234375,0,0
-2.38566135521978E-05,1.64015200425638E-05,6.15234375,0,0
-2.33545742958086E-05,1.4428524991672E-05,6.15234375,0,0
-2.14411338674836E-05,1.39103894980508E-05,6.15234375,0,0
-2.04607986233896E-05,1.33208832266973E-05,6.15234375,0,0
-2.02397568500601E-05,1.13832948045456E-05,6.15234375,0,0
-2.22562230192125E-05,1.05519666249165E-05,6.15234375,0,0
-2.12274189834716E-05,1.04552882476128E-05,6.15234375,0,0
-2.15469754039077E-05,1.04186710814247E-05,6.15234375,0,0
-2.09673944482347E-05,9.53095786826452E-06,6.15234375,0,0
-2.34170529438416E-05,1.09906213765498E-05,6.15234375,0,0
-2.35203733609524E-05,1.19597052616882E-05,6.15234375,0,0
-2.48362448473927E-05,1.24174530355958E-05,6.15234375,0,0
-2.37867279793136E-05,1.15656093839789E-05,6.15234375,0,0
-2.43770919041708E-05,1.16335140774027E-05,6.15234375,0,0
-2.43038120970596E-05,1.18708576337667E-05,6.15234375,0,0
-2.59948901657481E-05,1.25679971461068E-05,6.15234375,0,0
-2.71055650955532E-05,1.27021157823037E-05,6.15234375,0,0
-2.71442950179335E-05,1.09798593257437E-05,6.15234375,0,0
-2.48705637204694E-05,8.94006007001735E-06,6.15234375,0,0
-2.34291474043857E-05,7.95476535131456E-06,6.15234375,0,0
-1.96158671315061E-05,6.12901249041897E-06,6.15234375,0,0
-2.81179854937363E-05,7.91596448834753E-06,6.15234375,0,0
-2.09988720598631E-05,5.24257120559923E-06,6.15234375,0,0
-2.43233589571901E-05,7.46669093132368E-06,6.15234375,0,0
-1.915907523653E-05,7.54737220631796E-06,6.15234375,0,0
-2.13811381399864E-05,9.07337744138204E-06,6.15234375,0,0
-1.93594969459809E-05,6.72400210532942E-06,6.15234375,0,0
-2.1413734430098E-05,6.75270166539121E-06,6.15234375,0,0
-2.09862537303707E-05,8.29244072519941E-06,6.15234375,0,0
-2.08808141906047E-05,8.75724072102457E-06,6.15234375,0,0
-2.1334442863008E-05,8.37182415125426E-06,6.15234375,0,0
-2.01966595341219E-05,8.49668867886066E-06,6.15234375,0,0
-1.99740516109159E-05,9.4769775387249E-06,6.15234375,0,0
-1.88101657840889E-05,8.93487322173314E-06,6.15234375,0,0
-2.08580258913571E-05,9.7766669568955E-06,6.15234375,0,0
-2.05279902729671E-05,1.12140023702523E-05,6.15234375,0,0
-2.17473698285175E-05,1.25335582197295E-05,6.15234375,0,0
-2.09123954846291E-05,1.18017815111671E-05,6.15234375,0,0
-2.13675484701525E-05,1.15323000500211E-05,6.15234375,0,0
-2.0103561837459E-05,1.11471845229971E-05,6.15234375,0,0
-2.11553015105892E-05,1.06777251858148E-05,6.15234375,0,0
-2.12260347325355E-05,1.013877135847E-05,6.15234375,0,0
-2.23265014938079E-05,1.21427383419359E-05,6.15234375,0,0
-2.26798838411924E-05,1.40916463351459E-05,6.15234375,0,0
-2.38092306972248E-05,1.43657625812921E-05,6.15234375,0,0
-2.45051251113182E-05,1.40356796691776E-05,6.15234375,0,0
-2.4463997760904E-05,1.59141436597565E-05,6.15234375,0,0
-1.92153565876652E-05,1.45525427797111E-05,6.15234375,0,0
-2.70041600742843E-05,2.1116089556017E-05,6.15234375,0,0
-2.05587257369189E-05,1.63386193889892E-05,6.15234375,0,0
-2.56355542660458E-05,1.95002212421969E-05,6.15234375,0,0
-2.24449486267986E-05,1.53706914716167E-05,6.15234375,0,0
-2.638399200805E-05,1.55353191075847E-05,6.15234375,0,0
-2.47538700932637E-05,1.15028233267367E-05,6.15234375,0,0
-2.62573284999235E-05,1.15902148536406E-05,6.15234375,0,0
-2.60628530668328E-05,1.15623570309253E-05,6.15234375,0,0
-2.71295884886058E-05,1.06604911707109E-05,6.15234375,0,0
-2.81263983197277E-05,9.52136724663433E-06,6.15234375,0,0
-2.6922527467832E-05,8.634548066766E-06,6.15234375,0,0
