biceps_emg, triceps_emg, subject_position, position_estimate, brace_position
-1.62095675477758E-05,2.04684620257467E-05,1.93359375,0,0
-1.90420196304331E-05,2.11115948332008E-05,1.93359375,0,0
-1.76220873981947E-05,1.66920217452571E-05,1.93359375,0,0
-1.84383261512266E-05,1.4082676898397E-05,1.93359375,0,0
-1.84942146006506E-05,1.08046360765002E-05,1.93359375,0,0
-1.96955752471695E-05,8.95288849278586E-06,1.93359375,0,0
-2.12645372812403E-05,5.79929474042729E-06,1.93359375,0,0
-2.15114996535704E-05,4.05016498916666E-06,1.93359375,0,0
-2.08833153010346E-05,6.69657993057626E-06,1.93359375,0,0
-1.89654838322895E-05,8.7610005721217E-06,1.93359375,0,0
-2.0579920601449E-05,1.29378731799079E-05,1.93359375,0,0
-2.22080834646476E-05,1.49210636664066E-05,1.93359375,0,0
-2.5190771339112E-05,1.54848985403078E-05,1.93359375,0,0
-2.57525789493229E-05,1.25403521451517E-05,1.93359375,0,0
-2.66588922386291E-05,1.23181671369821E-05,1.93359375,0,0
-2.59230000665411E-05,1.19846627057996E-05,1.93359375,0,0
-2.55386294156779E-05,1.16887031254009E-05,1.93359375,0,0
-2.34567996812984E-05,9.78305342869135E-06,1.93359375,0,0
-2.27841610467294E-05,9.00763552635908E-06,1.93359375,0,0
-2.25747371587204E-05,8.31359375297325E-06,1.93359375,0,0
-2.28434710152214E-05,8.27265739644645E-06,1.93359375,0,0
-2.4014616428758E-05,6.73239901516354E-06,1.93359375,0,0
-2.54572278208798E-05,5.32017247678596E-06,1.93359375,0,0
-2.08226065296913E-05,2.62210573964694E-06,1.93359375,0,0
-2.93524135486223E-05,2.45954765887291E-06,1.93359375,0,0
-2.19238809222588E-05,4.8329820856452E-07,1.93359375,0,0
-2.81467819149839E-05,4.38878885233862E-07,1.93359375,0,0
-2.45648061536485E-05,-1.7027647913892E-07,1.93359375,0,0
-2.71270146185998E-05,1.52772668116086E-06,1.93359375,0,0
-2.50424072874011E-05,5.26232270203764E-07,1.93359375,0,0
-2.72333127213642E-05,4.17818256437386E-07,1.93359375,0,0
-2.69662359642098E-05,3.97445910493843E-06,1.93359375,0,0
-2.65524613496382E-05,7.51667857912253E-06,1.93359375,0,0
-2.62631601799512E-05,9.28914141695714E-06,1.93359375,0,0
-2.54382230195915E-05,1.14956728793913E-05,1.93359375,0,0
-2.6664616598282E-05,1.4185948202794E-05,1.93359375,0,0
-2.56633993558353E-05,1.49432789839921E-05,1.93359375,0,0
-2.68534167844336E-05,1.5428384358529E-05,1.93359375,0,0
-2.62219509750139E-05,1.55858160724165E-05,1.93359375,0,0
-2.70725813606987E-05,1.47383971125237E-05,1.93359375,0,0
-2.49752774834633E-05,1.33446483232547E-05,1.93359375,0,0
-2.58256877714302E-05,1.34108058773563E-05,1.93359375,0,0
-2.54626538662706E-05,1.22451838251436E-05,1.93359375,0,0
-2.53894286288414E-05,9.41715734370518E-06,1.93359375,0,0
-2.28550052270293E-05,6.30400018053479E-06,1.93359375,0,0
-2.32540005526971E-05,4.22729908677866E-06,1.93359375,0,0
-2.57335868809605E-05,2.5600274966564E-06,1.93359375,0,0
-2.75598868029192E-05,7.70115320847253E-07,1.93359375,0,0
-2.6334553695051E-05,-9.74527907260381E-08,1.93359375,0,0
-2.45327846641885E-05,9.59419253376836E-07,1.93359375,0,0
-1.9761635485338E-05,3.6874132547382E-06,1.93359375,0,0
-2.84328634734266E-05,6.26285100224777E-06,1.93359375,0,0
-2.16006719711004E-05,5.52522215002682E-06,1.93359375,0,0
-2.4902177756303E-05,5.4089400691737E-06,1.93359375,0,0
-2.00893573492067E-05,2.47089747063001E-06,1.93359375,0,0
-2.34295421250863E-05,1.31556964788615E-06,1.93359375,0,0
-2.23794213525252E-05,1.42125645652413E-06,1.93359375,0,0
-2.46129875449697E-05,2.09301833820064E-06,1.93359375,0,0
-2.35720563068753E-05,5.218903424975E-06,1.93359375,0,0
-2.24112827709178E-05,9.54028564592591E-06,1.93359375,0,0
-2.16930166061502E-05,1.14169442895218E-05,1.93359375,0,0
-2.03697527467739E-05,8.88556951395003E-06,1.93359375,0,0
-2.04641783057014E-05,3.76743764718412E-06,1.93359375,0,0
-1.92603547475301E-05,-1.33726746298635E-06,1.93359375,0,0
-2.16378448385512E-05,-3.36875041284657E-06,1.93359375,0,0
-2.29968336498132E-05,-2.47275238507427E-06,1.93359375,0,0
-2.60225042438833E-05,-4.14220181710334E-07,1.93359375,0,0
-2.62663616013015E-05,5.95958056237578E-07,1.93359375,0,0
-2.81032116618007E-05,2.29299757847912E-06,1.93359375,0,0
-2.75254715234041E-05,4.75258593723993E-06,1.93359375,0,0
-2.79412251984468E-05,7.65392724133562E-06,1.93359375,0,0
-2.66243787336862E-05,1.05221288322355E-05,1.93359375,0,0
-2.64905083895428E-05,1.17840609163977E-05,1.93359375,0,0
-2.62095345533453E-05,1.26046361401677E-05,1.93359375,0,0
-2.70183536486002E-05,1.53117998706875E-05,1.93359375,0,0
-2.63476849795552E-05,1.83748288691277E-05,1.93359375,0,0
-2.48204705712851E-05,1.91290946531808E-05,1.93359375,0,0
-1.97585304704262E-05,1.39968760777265E-05,1.93359375,0,0
-2.88315077341395E-05,1.78540722117759E-05,1.93359375,0,0
-2.33072605624329E-05,1.29980971905752E-05,1.93359375,0,0
-2.92412496492034E-05,1.79774324351456E-05,1.93359375,0,0
-2.6398776753922E-05,1.39357362058945E-05,1.93359375,0,0
-2.95041118079098E-05,1.75396780832671E-05,1.93359375,0,0
-2.70427717623534E-05,1.80833758349763E-05,1.93359375,0,0
-2.79343003057875E-05,1.99106380023295E-05,1.93359375,0,0
-2.75656129815616E-05,1.91849667317001E-05,1.93359375,0,0
-2.92871918645687E-05,1.9191465980839E-05,1.93359375,0,0
-3.12757765641436E-05,1.94755502889166E-05,1.93359375,0,0
-3.06077745335642E-05,1.92739025806077E-05,1.93359375,0,0
-3.05303437926341E-05,1.88640551641583E-05,1.93359375,0,0
-2.87025068246294E-05,1.60645613505039E-05,1.93359375,0,0
-2.9218088457128E-05,1.62030810315628E-05,1.93359375,0,0
-2.83695226244163E-05,1.56560054165311E-05,1.93359375,0,0
-2.96838443318848E-05,1.68305596162099E-05,1.93359375,0,0
-2.94143701466965E-05,1.56765345309395E-05,1.93359375,0,0
-3.1525814847555E-05,1.56997957674321E-05,1.93359375,0,0
-3.00215069728438E-05,1.3880904589314E-05,1.93359375,0,0
-2.82333148788894E-05,1.39840922201984E-05,1.93359375,0,0
-2.62765533989295E-05,1.50761470649741E-05,1.93359375,0,0
-2.6852891096496E-05,1.75276763911825E-05,1.93359375,0,0
-2.62890262092697E-05,1.70897492353106E-05,1.93359375,0,0
-2.5707260647323E-05,1.60708059411263E-05,1.93359375,0,0
-2.54457536357222E-05,1.51957110574585E-05,1.93359375,0,0
-2.62669927906245E-05,1.44060295497184E-05,1.93359375,0,0
-2.04259631573223E-05,1.07801724880119E-05,1.93359375,0,0
-2.83673634839943E-05,1.65797337103868E-05,1.93359375,0,0
-2.06639051612001E-05,1.50999967445387E-05,1.93359375,0,0
-2.66414735961007E-05,1.77594301931094E-05,1.93359375,0,0
-2.23680526687531E-05,1.33770117827225E-05,1.93359375,0,0
-2.36108953686198E-05,1.45222338687745E-05,1.93359375,0,0
-2.06153672479559E-05,1.5096628885658E-05,1.93359375,0,0
-2.28062817768659E-05,1.69710347108776E-05,1.93359375,0,0
-2.34944418480154E-05,1.80680162884528E-05,1.93359375,0,0
-2.30987934628502E-05,1.8593715140014E-05,1.93359375,0,0
-2.12300110433716E-05,1.92713341675699E-05,1.93359375,0,0
-1.92253482964588E-05,1.96380588022294E-05,1.93359375,0,0
-2.05113956326386E-05,1.83683096111054E-05,1.93359375,0,0
-1.99371552298544E-05,1.34314641400124E-05,1.93359375,0,0
-2.09722147701541E-05,9.31786689761793E-06,1.93359375,0,0
-2.03040126507403E-05,3.35521849592624E-06,1.93359375,0,0
-2.26838583330391E-05,-5.22466461916338E-06,1.93359375,0,0
-2.22384096559836E-05,-1.52982593135675E-05,1.93359375,0,0
-2.22966464207275E-05,-1.69847971847048E-05,1.93359375,0,0
-2.07598459383007E-05,-1.13072264866787E-05,1.93359375,0,0
-2.25246039917693E-05,-3.99330428990652E-06,1.93359375,0,0
-2.32638922170736E-05,6.11065445355052E-07,1.93359375,0,0
-2.32817128562601E-05,4.65257153337006E-06,1.93359375,0,0
-2.18780769500881E-05,7.04469675838482E-06,1.93359375,0,0
-2.17825418076245E-05,9.75056536844932E-06,1.93359375,0,0
-2.2257590899244E-05,9.70419114310062E-06,1.93359375,0,0
-2.30784153245622E-05,6.75532237437437E-06,1.93359375,0,0
-1.92107345355907E-05,3.82659436581889E-06,1.93359375,0,0
-2.74029807769693E-05,5.27381462234189E-06,1.93359375,0,0
-2.03681083803531E-05,3.6973528949602E-06,1.93359375,0,0
-2.47139942075592E-05,3.38839186042605E-06,1.93359375,0,0
-2.06552776944591E-05,5.15957594870997E-07,1.93359375,0,0
-2.41479010583134E-05,1.47886532886332E-06,1.93359375,0,0
-2.33277332881698E-05,3.17459853249602E-06,1.93359375,0,0
-2.31033573072637E-05,5.55551423531142E-06,1.93359375,0,0
-2.09987665584777E-05,8.22505535325035E-06,1.93359375,0,0
-2.12308495974867E-05,9.95295158645604E-06,1.93359375,0,0
-2.17191300180275E-05,1.05742146843113E-05,1.93359375,0,0
-2.08708697755355E-05,1.00655115602422E-05,1.93359375,0,0
-2.11350488825701E-05,9.54189999902155E-06,1.93359375,0,0
-1.88731592061231E-05,9.15549298952101E-06,1.93359375,0,0
-1.88271533261286E-05,1.02758467619424E-05,1.93359375,0,0
-1.83153333637165E-05,1.05639173852978E-05,1.93359375,0,0
-2.0866787963314E-05,1.04109103631345E-05,1.93359375,0,0
-2.12411650863942E-05,1.06531597339199E-05,1.93359375,0,0
-2.22429716814077E-05,1.23271174743422E-05,1.93359375,0,0
-2.07847951969597E-05,1.46220691021881E-05,1.93359375,0,0
-2.06507484108442E-05,1.68306414707331E-05,1.93359375,0,0
-1.95615248230752E-05,1.76183348230552E-05,1.93359375,0,0
-2.06600325327599E-05,1.71009378391318E-05,1.93359375,0,0
-2.19523317355197E-05,1.53577038872754E-05,1.93359375,0,0
-2.28053067985456E-05,1.47493083204608E-05,1.93359375,0,0
-2.28999015234876E-05,1.65809487953084E-05,1.93359375,0,0
-2.31785725191003E-05,1.79826056410093E-05,1.93359375,0,0
-1.93481628230074E-05,1.42735616464051E-05,1.93359375,0,0
-2.81208485830575E-05,1.98151647055056E-05,1.93359375,0,0
-2.33057799050584E-05,1.49542402141378E-05,1.93359375,0,0
-2.92410913971253E-05,1.71312494785525E-05,1.93359375,0,0
-2.50867142312927E-05,1.18009502330096E-05,1.93359375,0,0
-2.73049809038639E-05,1.55049856402911E-05,1.93359375,0,0
-2.36324995057657E-05,1.59698374773143E-05,1.93359375,0,0
-2.27660584641853E-05,1.73891330632614E-05,1.93359375,0,0
-2.1277066480252E-05,1.6991694792523E-05,1.93359375,0,0
-2.17083706957055E-05,1.67281650647055E-05,1.93359375,0,0
-2.33721693803091E-05,1.64904213306727E-05,1.93359375,0,0
-2.44673210545443E-05,1.62922224262729E-05,1.93359375,0,0
-2.60652741417289E-05,1.60325053002452E-05,1.93359375,0,0
-2.45751307375031E-05,1.42202579809236E-05,1.93359375,0,0
-2.53838043136057E-05,1.65928795468062E-05,1.93359375,0,0
-2.50200555456104E-05,1.78697027877206E-05,1.93359375,0,0
-2.6090287065017E-05,1.68649639817886E-05,1.93359375,0,0
-2.41550442297012E-05,1.19429741971544E-05,1.93359375,0,0
-2.52884710789658E-05,1.04906757769641E-05,1.93359375,0,0
-2.6130475816899E-05,9.82369328994537E-06,1.93359375,0,0
-2.74584508588305E-05,1.04548071249155E-05,1.93359375,0,0
-2.51807359745726E-05,8.44660917209694E-06,1.93359375,0,0
-2.36657851928612E-05,7.68630616221344E-06,1.93359375,0,0
-2.3229844373418E-05,8.19554134068312E-06,1.93359375,0,0
-2.34012259170413E-05,1.000728479994E-05,1.93359375,0,0
-2.19318335439311E-05,1.17251029223553E-05,1.93359375,0,0
-1.99022179003805E-05,1.42705393955112E-05,1.93359375,0,0
-1.50035320984898E-05,1.28077608678723E-05,1.93359375,0,0
-2.29703364311717E-05,1.64693665283266E-05,1.93359375,0,0
-2.06272852665279E-05,1.06361248981557E-05,1.93359375,0,0
-2.45844094024505E-05,1.37995966724702E-05,1.93359375,0,0
-2.09190620807931E-05,1.06256557046436E-05,1.93359375,0,0
-2.3768248865963E-05,1.33643079607282E-05,1.93359375,0,0
-2.31623853323981E-05,1.26978757180041E-05,1.93359375,0,0
-2.46508134296164E-05,1.30978687593597E-05,1.93359375,0,0
-2.38325483223889E-05,1.22968758660136E-05,1.93359375,0,0
-2.24688246817095E-05,1.09045840872568E-05,1.93359375,0,0
-2.16481548704905E-05,9.31642443902092E-06,1.93359375,0,0
-2.09429526876193E-05,9.0477615231066E-06,1.93359375,0,0
-2.19733665289823E-05,1.06259421954746E-05,1.93359375,0,0
-2.14560768654337E-05,1.15576731332112E-05,1.93359375,0,0
-2.16695061681094E-05,1.64725825015921E-05,1.93359375,0,0
-2.02600022021215E-05,2.0406259864103E-05,1.93359375,0,0
-2.1185695004533E-05,2.22289145312971E-05,1.93359375,0,0
-2.10280013561714E-05,1.82719850272406E-05,1.93359375,0,0
-2.26372594624991E-05,1.44716896102182E-05,1.93359375,0,0
-2.28994067583699E-05,1.12988509499701E-05,1.93359375,0,0
-2.34240760619286E-05,1.17353029054357E-05,1.93359375,0,0
-2.35847492149333E-05,1.11219369500759E-05,1.93359375,0,0
-2.60297074419213E-05,8.73908356879838E-06,1.93359375,0,0
-2.75620768661611E-05,5.17110220243922E-06,1.93359375,0,0
-2.65119997493457E-05,3.8910570765438E-06,1.93359375,0,0
-2.3599803171237E-05,5.07590175402584E-06,1.93359375,0,0
-2.3079324819264E-05,7.06371292835684E-06,1.93359375,0,0
-1.9746927137021E-05,5.60479202249553E-06,1.93359375,0,0
-2.92375643766718E-05,5.54389089302276E-06,1.93359375,0,0
-2.32358761422802E-05,1.24246685118123E-06,1.93359375,0,0
-2.75436414085561E-05,2.61168679571711E-06,1.93359375,0,0
-2.38438096857863E-05,8.32925422855624E-07,1.93359375,0,0
-2.69271076831501E-05,2.27007421926828E-06,1.93359375,0,0
-2.49630520556821E-05,3.64199240721064E-06,1.93359375,0,0
-2.66377828666009E-05,6.12190706306137E-06,1.93359375,0,0
-2.56111252383562E-05,8.30011686048238E-06,1.93359375,0,0
-2.4597366063972E-05,9.32183775148587E-06,1.93359375,0,0
-2.44844231929164E-05,1.02412695923704E-05,1.93359375,0,0
-2.49570348387351E-05,1.11609970190329E-05,1.93359375,0,0
-2.75039947155165E-05,8.66591381054604E-06,1.93359375,0,0
-2.67794839601265E-05,8.96004735295719E-07,1.93359375,0,0
-2.60891138168518E-05,-3.8031057556509E-06,1.93359375,0,0
-2.36329451581696E-05,-1.38431778395898E-06,1.93359375,0,0
-2.49155491474085E-05,5.59801173949381E-06,1.93359375,0,0
-2.37111798924161E-05,9.39660731091863E-06,1.93359375,0,0
-2.31498761422699E-05,9.57211886998266E-06,1.93359375,0,0
-2.1302836103132E-05,7.4097565629927E-06,1.93359375,0,0
-2.20900365093257E-05,6.30339809504221E-06,1.93359375,0,0
-2.21401969611179E-05,6.13150041317567E-06,1.93359375,0,0
-2.31295980483992E-05,6.02183263254119E-06,1.93359375,0,0
-2.26409938477445E-05,4.4467506086221E-06,1.93359375,0,0
-2.21408317884197E-05,2.66142751570442E-06,1.93359375,0,0
-2.19224821194075E-05,2.63858373727999E-06,1.93359375,0,0
-2.2296288079815E-05,5.82985876462772E-06,1.93359375,0,0
-1.79852995643159E-05,6.27073177383863E-06,1.93359375,0,0
-2.56619969150051E-05,7.97305074229371E-06,1.93359375,0,0
-1.9419239833951E-05,4.31758826380246E-06,1.93359375,0,0
-2.32645543292165E-05,3.86857027478982E-06,1.93359375,0,0
-1.98426969291177E-05,1.75454601958336E-06,1.93359375,0,0
-2.37506901612505E-05,7.30318561181775E-06,1.93359375,0,0
-2.23103506868938E-05,1.09848579086247E-05,1.93359375,0,0
-2.41785583057208E-05,1.11334175016964E-05,1.93359375,0,0
-2.56478051596787E-05,1.11074778033071E-05,1.93359375,0,0
-2.74789763352601E-05,1.16972832984175E-05,1.93359375,0,0
-2.78473253274569E-05,1.10217715700855E-05,1.93359375,0,0
-2.58245545410318E-05,1.01071482276893E-05,1.93359375,0,0
-2.59320022450993E-05,1.05460721897543E-05,1.93359375,0,0
-2.49184558924753E-05,1.12560237539583E-05,1.93359375,0,0
-2.51868059422122E-05,1.40536767503363E-05,1.93359375,0,0
-2.42348523897817E-05,1.58954517246457E-05,1.93359375,0,0
-2.71470580628375E-05,1.60323888849234E-05,1.93359375,0,0
-2.88319042738294E-05,1.35049112941488E-05,1.93359375,0,0
-3.06992733385414E-05,1.07148189272266E-05,1.93359375,0,0
-2.89550898742164E-05,8.77403454069281E-06,1.93359375,0,0
-2.78493207588326E-05,1.09172233351273E-05,1.93359375,0,0
-2.62821231444832E-05,1.26631312014069E-05,1.93359375,0,0
-2.68293333647307E-05,1.15769271360477E-05,1.93359375,0,0
-2.82827295450261E-05,1.16438559416565E-05,1.93359375,0,0
-3.070738966926E-05,1.42977723953663E-05,1.93359375,0,0
-3.11770236294251E-05,1.62849264597753E-05,1.93359375,0,0
-3.0468139812001E-05,1.6714766388759E-05,1.93359375,0,0
-2.35482311836677E-05,1.29246245705872E-05,1.93359375,0,0
-3.24317988997791E-05,1.86569304787554E-05,1.93359375,0,0
-2.37296353589045E-05,1.5648378393962E-05,1.93359375,0,0
-3.0190070901881E-05,1.96362580027198E-05,1.93359375,0,0
-2.50129760388518E-05,1.55368179548532E-05,1.93359375,0,0
-2.7711541406461E-05,1.65711735462537E-05,1.93359375,0,0
-2.42584228544729E-05,1.4869114238536E-05,1.93359375,0,0
-2.46479576162528E-05,1.65570727403974E-05,1.93359375,0,0
-2.24380601139273E-05,1.6874111679499E-05,1.93359375,0,0
-2.22614635276841E-05,1.56348414748209E-05,1.93359375,0,0
-2.30584173550596E-05,1.44193509186152E-05,1.93359375,0,0
-2.25401527131908E-05,1.30701027956093E-05,1.93359375,0,0
-2.3335933292401E-05,1.25795595522504E-05,1.93359375,0,0
-2.19242847379064E-05,1.06126453829347E-05,1.93359375,0,0
-2.40524168475531E-05,1.15318916869001E-05,1.93359375,0,0
-2.45783703576308E-05,1.18115922305151E-05,1.93359375,0,0
-2.77403451036662E-05,1.25005490190233E-05,1.93359375,0,0
-2.72905745077878E-05,1.08907252069912E-05,1.93359375,0,0
-2.74728499789489E-05,9.84983671514783E-06,1.93359375,0,0
-2.39313612837577E-05,7.05756019669934E-06,1.93359375,0,0
-2.3209844584926E-05,6.80668290442554E-06,1.93359375,0,0
-2.24576524487929E-05,9.41924099606695E-06,1.93359375,0,0
-2.37322728935396E-05,1.29879772430286E-05,1.93359375,0,0
-2.47630123340059E-05,1.21274342745892E-05,1.93359375,0,0
-2.67041123152012E-05,8.02597151050577E-06,1.93359375,0,0
-2.73612859018613E-05,3.77216861124907E-06,1.93359375,0,0
-2.76056453003548E-05,3.29173940372129E-06,1.93359375,0,0
-2.24777249968611E-05,2.61151308222907E-06,1.93359375,0,0
-3.17849844577722E-05,1.54870349433622E-06,1.93359375,0,0
-2.39050605159719E-05,-1.74724186763342E-06,1.93359375,0,0
-2.85364149021916E-05,-1.55804320911557E-06,1.93359375,0,0
-2.19071735045873E-05,-1.36791061322583E-06,1.93359375,0,0
-2.34936651395401E-05,3.33446314471075E-06,1.93359375,0,0
-2.16463995457161E-05,5.96888185100397E-06,1.93359375,0,0
-2.55458562605781E-05,4.46279409516137E-06,1.93359375,0,0
-2.58945692621637E-05,4.35151196143124E-06,1.93359375,0,0
-2.470404979249E-05,6.57180044072447E-06,1.93359375,0,0
-2.3213220629259E-05,8.38927553559188E-06,1.93359375,0,0
-2.09861354960594E-05,9.98262112261727E-06,1.93359375,0,0
-2.11693422897952E-05,1.14112399387523E-05,1.93359375,0,0
-2.03371746465564E-05,1.09716020233463E-05,1.93359375,0,0
-2.16700700548245E-05,1.06686438812176E-05,1.93359375,0,0
-1.97980116354302E-05,1.0730615031207E-05,1.93359375,0,0
-2.02529699890874E-05,1.15214998004376E-05,1.93359375,0,0
-1.82917556230677E-05,1.23432037071325E-05,1.93359375,0,0
-1.89276379387593E-05,1.4014593034517E-05,1.93359375,0,0
-1.7414364265278E-05,1.53419605339877E-05,1.93359375,0,0
-1.66958525369409E-05,1.61396783369128E-05,1.93359375,0,0
-1.47490336530609E-05,1.66005338542163E-05,1.93359375,0,0
-1.52860447997227E-05,1.61043499247171E-05,1.93359375,0,0
-1.63603635883192E-05,1.44619243656052E-05,1.93359375,0,0
-1.90845403267303E-05,1.47129076140118E-05,1.93359375,0,0
-2.07918601518031E-05,1.75594759639353E-05,1.93359375,0,0
-2.12296945392154E-05,1.93135638255626E-05,1.93359375,0,0
-1.6778660210548E-05,1.46742559081758E-05,1.93359375,0,0
-2.33752198255388E-05,2.02729625016218E-05,1.93359375,0,0
-1.72208983713062E-05,1.57026006490923E-05,1.93359375,0,0
-2.25066505663563E-05,2.01186267076992E-05,1.93359375,0,0
-2.11200785997789E-05,1.51332596942666E-05,1.93359375,0,0
-2.46258823608514E-05,1.70161220012233E-05,1.93359375,0,0
-2.30942769121611E-05,1.75745881278999E-05,1.93359375,0,0
-2.37972890317906E-05,2.05250125873135E-05,1.93359375,0,0
-2.26319425564725E-05,1.99316345970146E-05,1.93359375,0,0
-2.14789233723423E-05,1.7542102796142E-05,1.93359375,0,0
-2.1266532712616E-05,1.37900788104162E-05,1.93359375,0,0
-2.13310504477704E-05,9.80742424872005E-06,1.93359375,0,0
-2.30039313464658E-05,7.99164718046086E-06,1.93359375,0,0
-2.27282125706552E-05,5.58703686692752E-06,1.93359375,0,0
-2.34865638049087E-05,5.89845012655132E-06,1.93359375,0,0
-2.19560897676274E-05,5.66682956559816E-06,1.93359375,0,0
-2.17926990444539E-05,6.90027445671149E-06,1.93359375,0,0
-2.01561906578718E-05,6.05155764787924E-06,1.93359375,0,0
-2.0682133254013E-05,6.83500047671259E-06,1.93359375,0,0
-2.00254526134813E-05,6.45859154246864E-06,1.93359375,0,0
-2.08069086511387E-05,8.67472954269033E-06,1.93359375,0,0
-2.07244502234971E-05,1.06982070064987E-05,1.93359375,0,0
-2.18683871935355E-05,1.11989784272737E-05,1.93359375,0,0
-2.24777759285644E-05,8.89446891960688E-06,1.93359375,0,0
-2.36358864640351E-05,8.52595530886902E-06,1.93359375,0,0
-2.40341560129309E-05,9.7895936050918E-06,1.93359375,0,0
-2.39420041907579E-05,1.11546651169192E-05,1.93359375,0,0
-2.0015133486595E-05,8.86934867594391E-06,1.93359375,0,0
-2.97604747174773E-05,1.07169407783658E-05,1.93359375,0,0
-2.46030394919217E-05,6.17606929154135E-06,1.93359375,0,0
-2.99927069136174E-05,9.16934277483961E-06,1.93359375,0,0
-2.52801128226565E-05,7.46111709304387E-06,1.93359375,0,0
-2.76966948149493E-05,9.86941449809819E-06,1.93359375,0,0
-2.69519678113284E-05,9.92480181594146E-06,1.93359375,0,0
-2.97179976769257E-05,8.50418837217148E-06,1.93359375,0,0
-2.9168622859288E-05,7.14729185347096E-06,1.93359375,0,0
-2.79352680081502E-05,8.07020023785299E-06,1.93359375,0,0
-2.69577776634833E-05,9.94973470369587E-06,1.93359375,0,0
-2.6321418772568E-05,1.26755412566126E-05,1.93359375,0,0
-2.7478101401357E-05,1.59518276632298E-05,1.93359375,0,0
-2.58775071415585E-05,1.68103106261697E-05,1.93359375,0,0
-2.61972418229561E-05,1.70810708368663E-05,1.93359375,0,0
-2.51060337177478E-05,1.7150097846752E-05,1.93359375,0,0
-2.57919582509203E-05,1.98051839106483E-05,1.93359375,0,0
-2.52164827543311E-05,2.05143878702074E-05,1.93359375,0,0
-2.82596593024209E-05,1.87787827599095E-05,1.93359375,0,0
-2.89790314127458E-05,1.49234674609033E-05,1.93359375,0,0
-2.9206292310846E-05,1.45437670653337E-05,1.93359375,0,0
-2.75807342404732E-05,1.49681518450961E-05,1.93359375,0,0
-2.7858328394359E-05,1.47014725371264E-05,1.93359375,0,0
-2.80382828350412E-05,1.45430331031093E-05,1.93359375,0,0
-2.80007589026354E-05,1.46418697113404E-05,1.93359375,0,0
-2.79941978078568E-05,1.32256345750648E-05,1.93359375,0,0
-2.89119398075854E-05,1.34082310978556E-05,1.93359375,0,0
-2.20599613385275E-05,1.15722004920826E-05,1.93359375,0,0
-2.98997074423824E-05,1.43432762342854E-05,1.93359375,0,0
-2.11633396247635E-05,7.71405757404864E-06,1.93359375,0,0
-2.76337432296714E-05,8.86194993654499E-06,1.93359375,0,0
-2.43294398387661E-05,5.05271918882499E-06,1.93359375,0,0
-2.70624732365832E-05,8.3009481386398E-06,1.93359375,0,0
-2.21789741772227E-05,9.3709977591061E-06,1.93359375,0,0
-2.29036377277225E-05,1.09006059574313E-05,1.93359375,0,0
-2.34068575082347E-05,1.03453694464406E-05,1.93359375,0,0
-2.50450848398032E-05,1.06502311609802E-05,1.93359375,0,0
-2.63155361608369E-05,1.17648223749711E-05,1.93359375,0,0
-2.62516732618678E-05,1.21180701171397E-05,1.93359375,0,0
-2.77169201581273E-05,1.1869536137965E-05,1.93359375,0,0
-2.64699028775794E-05,1.05327953860979E-05,1.93359375,0,0
-2.72016350209014E-05,1.28972924358095E-05,1.93359375,0,0
-2.57142492046114E-05,1.50313799167634E-05,1.93359375,0,0
-2.72477500402601E-05,1.69306804309599E-05,1.93359375,0,0
-2.70788314082893E-05,1.4688387636852E-05,1.93359375,0,0
-2.93691555270925E-05,1.26151335280156E-05,1.93359375,0,0
-2.82993496512063E-05,1.09780703496654E-05,1.93359375,0,0
-2.83417393802665E-05,1.24785537991556E-05,1.93359375,0,0
-2.84041543636704E-05,1.46155516631552E-05,1.93359375,0,0
-3.04851346299984E-05,1.75549666892039E-05,1.93359375,0,0
-2.98274026135914E-05,1.72262734849937E-05,1.93359375,0,0
-2.87717502942542E-05,1.52016191350413E-05,1.93359375,0,0
-2.73378318524919E-05,1.4852103049634E-05,1.93359375,0,0
-2.56875464401674E-05,1.64675166161032E-05,1.93359375,0,0
-1.89422189578181E-05,1.23897971207043E-05,1.93359375,0,0
-2.67510567937279E-05,1.61646003107307E-05,1.93359375,0,0
-2.01977763936156E-05,1.01803880170337E-05,1.93359375,0,0
-2.54102778853849E-05,1.21496050269343E-05,1.93359375,0,0
-2.25647509068949E-05,8.74100169312442E-06,1.93359375,0,0
-2.69640804617666E-05,9.66420702752657E-06,1.93359375,0,0
-2.65468879661057E-05,5.37337746209232E-06,1.93359375,0,0
-2.77344570349669E-05,5.6729763855401E-06,1.93359375,0,0
-2.49861204792978E-05,7.64190008339938E-06,1.93359375,0,0
-2.26558204303728E-05,8.61522039485862E-06,1.93359375,0,0
-2.31831036217045E-05,7.47485000829329E-06,1.93359375,0,0
-2.513417530281E-05,6.76259014653624E-06,1.93359375,0,0
-2.80251388176112E-05,9.27274231798947E-06,1.93359375,0,0
-2.63981837633764E-05,1.00409752121777E-05,1.93359375,0,0
-2.41861671383958E-05,1.04576274679857E-05,1.93359375,0,0
-1.95717093447456E-05,9.08862693904666E-06,1.93359375,0,0
-1.8713881217991E-05,9.53396556724329E-06,1.93359375,0,0
-1.77908495970769E-05,8.13134192867437E-06,1.93359375,0,0
-1.97852914425312E-05,6.92216053721495E-06,1.93359375,0,0
-2.03226863959571E-05,4.9875970944413E-06,1.93359375,0,0
-2.12642462429358E-05,6.0388952078938E-06,1.93359375,0,0
-1.9675037037814E-05,6.54873701932956E-06,1.93359375,0,0
-1.86422639671946E-05,7.31703858036781E-06,1.93359375,0,0
-1.7585307432455E-05,8.67679045768455E-06,1.93359375,0,0
-1.84510990948183E-05,9.836844583333E-06,1.93359375,0,0
-2.0130264601903E-05,7.98201836005319E-06,1.93359375,0,0
-2.13059702218743E-05,5.69653866477893E-06,1.93359375,0,0
-1.53941728058271E-05,4.80064272778691E-06,1.93359375,0,0
-2.00186968868366E-05,7.52584583096905E-06,1.93359375,0,0
-1.41262016768451E-05,7.10260746927815E-06,1.93359375,0,0
-1.9682627680595E-05,7.93494564277353E-06,1.93359375,0,0
-1.66750014614081E-05,5.35375420440687E-06,1.93359375,0,0
-1.91341769095743E-05,6.22605648459285E-06,1.93359375,0,0
-1.82159565156326E-05,7.76893921283772E-06,1.93359375,0,0
-1.93494488485157E-05,9.15521468414227E-06,1.93359375,0,0
-1.76261582964798E-05,1.15617594929063E-05,1.93359375,0,0
-1.81530303962063E-05,1.37245679070475E-05,1.93359375,0,0
-2.05191608984023E-05,1.51618542076903E-05,1.93359375,0,0
-2.11067708733026E-05,1.68940241564997E-05,1.93359375,0,0
-2.1086470951559E-05,1.78890259121545E-05,1.93359375,0,0
-1.89069087355165E-05,1.59693081513979E-05,1.93359375,0,0
-1.84754808287835E-05,1.33570774778491E-05,1.93359375,0,0
-1.66004192578839E-05,1.11332738015335E-05,1.93359375,0,0
-1.74098004208645E-05,8.53233450470725E-06,1.93359375,0,0
-1.75502318597864E-05,4.31154012403567E-06,1.93359375,0,0
-1.94047224795213E-05,1.53598330143723E-06,1.93359375,0,0
-1.87685727723874E-05,1.63313620760164E-06,1.93359375,0,0
-1.90656264749123E-05,4.4576540858543E-06,1.93359375,0,0
-1.96597229660256E-05,7.1910935730557E-06,1.93359375,0,0
-2.22948146983981E-05,8.88677914190339E-06,1.93359375,0,0
-2.34369981626514E-05,7.34526429368998E-06,1.93359375,0,0
-2.37785789067857E-05,5.81719086767407E-06,1.93359375,0,0
-2.3156579118222E-05,5.88537977819215E-06,1.93359375,0,0
-2.32770598813659E-05,5.26524581800913E-06,1.93359375,0,0
-1.89308175322367E-05,5.72509043195168E-06,1.93359375,0,0
-2.59711887338199E-05,1.14076183308498E-05,1.93359375,0,0
-1.90456103155157E-05,1.17335157483467E-05,1.93359375,0,0
-2.45162391365739E-05,1.01496661955025E-05,1.93359375,0,0
-2.08904148166766E-05,6.65361903884332E-06,1.93359375,0,0
-2.36480973399011E-05,7.43646705814172E-06,1.93359375,0,0
-2.12905451917322E-05,8.98859252629336E-06,1.93359375,0,0
-2.25302337639732E-05,1.21066586871166E-05,1.93359375,0,0
-2.27793752856087E-05,1.4040015230421E-05,1.93359375,0,0
-2.39429682551418E-05,1.40070751513122E-05,1.93359375,0,0
-2.41390007431619E-05,1.47713890328305E-05,1.93359375,0,0
-2.31950452871388E-05,1.65447218023473E-05,1.93359375,0,0
-2.47478183155181E-05,1.67254729603883E-05,1.93359375,0,0
-2.47673360718181E-05,1.42101325764088E-05,1.93359375,0,0
-2.64864047494484E-05,1.19022615763242E-05,1.93359375,0,0
-2.57314804912312E-05,8.71648808242753E-06,1.93359375,0,0
-2.65068538283231E-05,4.86634007756948E-06,1.93359375,0,0
-2.49885561061092E-05,3.92601435805773E-07,1.93359375,0,0
-2.58771215158049E-05,-2.64402387983864E-06,1.93359375,0,0
-2.51884812314529E-05,-3.25973974213412E-06,1.93359375,0,0
-2.56150287896162E-05,1.03517140814802E-06,1.93359375,0,0
-2.47396783379372E-05,7.53666654418339E-06,1.93359375,0,0
-2.58805484918412E-05,1.24447306006914E-05,1.93359375,0,0
-2.62129124166677E-05,1.51280910358764E-05,1.93359375,0,0
-2.63277670455864E-05,1.75530913111288E-05,1.93359375,0,0
-2.52325771725737E-05,1.81698706001043E-05,1.93359375,0,0
-2.37503027165076E-05,1.61532061611069E-05,1.93359375,0,0
-1.81168015842559E-05,1.18226644190145E-05,1.93359375,0,0
-2.67822833848186E-05,1.65950532391435E-05,1.93359375,0,0
-2.10218258871464E-05,1.34404072014149E-05,1.93359375,0,0
-2.51798810495529E-05,1.67157213581959E-05,1.93359375,0,0
-2.21583231905242E-05,1.28520468933857E-05,1.93359375,0,0
-2.55008162639569E-05,1.54547778947745E-05,1.93359375,0,0
-2.40127137658419E-05,1.43781953738653E-05,1.93359375,0,0
-2.49375807470642E-05,1.22417031889199E-05,1.93359375,0,0
-2.35062925639795E-05,8.59449755807873E-06,1.93359375,0,0
-2.24050763790729E-05,6.12952635492547E-06,1.93359375,0,0
-2.1789170205011E-05,4.65987159259385E-06,1.93359375,0,0
-2.0370929632918E-05,4.91947912450996E-06,1.93359375,0,0
-2.11283640965121E-05,5.84078907195362E-06,1.93359375,0,0
-2.04505395231536E-05,4.60392493550899E-06,1.93359375,0,0
-2.13551065826323E-05,6.4601363192196E-06,1.93359375,0,0
-2.04457574000116E-05,9.19778085517464E-06,1.93359375,0,0
-2.15507443499519E-05,1.29051586554851E-05,1.93359375,0,0
-2.15413401747355E-05,1.49547149703722E-05,1.93359375,0,0
-2.33508599194465E-05,1.73484459082829E-05,1.93359375,0,0
-2.32322690862929E-05,1.64880329975858E-05,1.93359375,0,0
-2.41311918216525E-05,1.72752988873981E-05,1.93359375,0,0
-2.39293422055198E-05,1.796930700948E-05,1.93359375,0,0
-2.50942139246035E-05,1.68345395650249E-05,1.93359375,0,0
-2.59731168625876E-05,1.17601448437199E-05,1.93359375,0,0
-2.73812274826923E-05,7.65546519687632E-06,1.93359375,0,0
-2.95813151751645E-05,7.23390257917345E-06,1.93359375,0,0
-3.24564243783243E-05,1.01582145362045E-05,1.93359375,0,0
-2.76219998340821E-05,1.04941791505553E-05,1.93359375,0,0
-3.75881209038198E-05,1.39671437864308E-05,1.93359375,0,0
-2.42831793002551E-05,1.04148803075077E-05,1.93359375,0,0
-2.85497062577633E-05,1.52164366227225E-05,1.93359375,0,0
-2.21257269004127E-05,1.35297996166628E-05,1.93359375,0,0
-2.7688760383171E-05,1.57947979460005E-05,1.93359375,0,0
-2.78641109616729E-05,1.62241485668346E-05,1.93359375,0,0
-3.16005171043798E-05,1.65084638865665E-05,1.93359375,0,0
-3.07658738165628E-05,1.74166561919265E-05,1.93359375,0,0
-3.0234587029554E-05,1.95162119780434E-05,1.93359375,0,0
-3.03781125694513E-05,1.97500776266679E-05,1.93359375,0,0
-2.94474230031483E-05,1.71994015545351E-05,1.93359375,0,0
-2.96837315545417E-05,1.35747495733085E-05,1.93359375,0,0
-2.66013121290598E-05,8.3756913227262E-06,1.93359375,0,0
-2.66027473116992E-05,7.71550458011916E-06,1.93359375,0,0
-2.41453017224558E-05,1.06654442788567E-05,1.93359375,0,0
-2.57954034168506E-05,1.47187629409018E-05,1.93359375,0,0
-2.54607821261743E-05,1.42362960104947E-05,1.93359375,0,0
-2.78005991276586E-05,1.28438996398472E-05,1.93359375,0,0
-2.70821456069825E-05,1.09609618448303E-05,1.93359375,0,0
-2.79893447441282E-05,9.91597880783957E-06,1.93359375,0,0
-2.70955151790986E-05,7.25929839973105E-06,1.93359375,0,0
-2.82748151221313E-05,5.95121855440084E-06,1.93359375,0,0
-2.80539625236997E-05,7.29786142983357E-06,1.93359375,0,0
-2.86153190245386E-05,1.06497300293995E-05,1.93359375,0,0
-2.99993116641417E-05,1.36158396344399E-05,1.93359375,0,0
-2.94356159429299E-05,1.57954873429844E-05,1.93359375,0,0
-2.2228558009374E-05,1.42988428706303E-05,1.93359375,0,0
-3.17694575642236E-05,2.01825932890642E-05,1.93359375,0,0
-2.55970553553198E-05,1.41628643177683E-05,1.93359375,0,0
-3.31017217831686E-05,1.59638984769117E-05,1.93359375,0,0
-2.89557738142321E-05,1.21488355944166E-05,1.93359375,0,0
-2.95209501928184E-05,1.41336149681592E-05,1.93359375,0,0
-2.38817428908078E-05,1.15209159048391E-05,1.93359375,0,0
-2.42737150983885E-05,9.46852378547192E-06,1.93359375,0,0
-2.51500296144513E-05,6.70284316584002E-06,1.93359375,0,0
-2.67211707978277E-05,5.2529953791236E-06,1.93359375,0,0
-2.66612078121398E-05,4.98752251587575E-06,1.93359375,0,0
-2.51791607297491E-05,6.45655018161051E-06,1.93359375,0,0
-2.54885617323453E-05,9.15661348699359E-06,1.93359375,0,0
-2.35640491155209E-05,8.13699716673E-06,1.93359375,0,0
-2.4162553017959E-05,5.43166333955014E-06,1.93359375,0,0
-2.2833182811155E-05,5.80257164983777E-07,1.93359375,0,0
-2.39737637457438E-05,-3.83902460043828E-07,1.93359375,0,0
-2.24730756599456E-05,-6.99942631854356E-07,1.93359375,0,0
-2.36709474847885E-05,1.09678194348817E-06,1.93359375,0,0
-2.22333910642192E-05,1.87178977739677E-06,1.93359375,0,0
-2.11649621633114E-05,4.80409153169603E-06,1.93359375,0,0
-1.83810407179408E-05,7.89828300185036E-06,1.93359375,0,0
-1.87441819434753E-05,1.08565427581198E-05,1.93359375,0,0
-1.99287660507252E-05,1.18249372462742E-05,1.93359375,0,0
-2.12853519769851E-05,1.27849107229849E-05,1.93359375,0,0
-2.14753599721007E-05,1.12511133920634E-05,1.93359375,0,0
-2.05554770218441E-05,7.33732395019615E-06,1.93359375,0,0
-1.6224537830567E-05,4.80470862385118E-06,1.93359375,0,0
-2.30050045502139E-05,7.78484172769822E-06,1.93359375,0,0
-1.73211647052085E-05,7.48821094020968E-06,1.93359375,0,0
-2.1082369130454E-05,8.47390583658125E-06,1.93359375,0,0
-1.80849110620329E-05,7.37391656002728E-06,1.93359375,0,0
-2.20140045712469E-05,9.87658313533757E-06,1.93359375,0,0
-2.17818396777147E-05,1.18247826321749E-05,1.93359375,0,0
-2.21762329601916E-05,1.27571811390226E-05,1.93359375,0,0
-2.1324589397409E-05,1.37394345074426E-05,1.93359375,0,0
-2.29315155593213E-05,1.33478242787533E-05,1.93359375,0,0
-2.57925912592327E-05,1.11942654257291E-05,1.93359375,0,0
-2.80566619039746E-05,9.32646071305498E-06,1.93359375,0,0
-3.03936922136927E-05,8.45621161715826E-06,1.93359375,0,0
-2.95312311209273E-05,7.83124323788797E-06,1.93359375,0,0
-2.97653587040259E-05,9.11322877072962E-06,1.93359375,0,0
-2.84491943602916E-05,1.0394766832178E-05,1.93359375,0,0
-2.86116483039223E-05,1.14605309136095E-05,1.93359375,0,0
-2.67382620222634E-05,1.21353023132542E-05,1.93359375,0,0
-2.60977703874232E-05,1.30001917568734E-05,1.93359375,0,0
-2.4985098207253E-05,1.25064507301431E-05,1.93359375,0,0
-2.64571026491467E-05,1.24247799249133E-05,1.93359375,0,0
-2.58488435065374E-05,1.27442954180879E-05,1.93359375,0,0
-2.57690717262449E-05,1.24689913718612E-05,1.93359375,0,0
-2.5338518753415E-05,1.1906434338016E-05,1.93359375,0,0
-2.46467861870769E-05,1.21236917038914E-05,1.93359375,0,0
-2.42263286054367E-05,1.24590769701172E-05,1.93359375,0,0
-2.37974800256779E-05,1.16388664537226E-05,1.93359375,0,0
-1.93404030142119E-05,8.3016157077509E-06,1.93359375,0,0
-2.76019072771305E-05,1.1939880096179E-05,1.93359375,0,0
-2.11439873964991E-05,1.08284439193085E-05,1.93359375,0,0
-2.59653443208663E-05,1.38047153086518E-05,1.93359375,0,0
-2.22199414565694E-05,1.07408341136761E-05,1.93359375,0,0
-2.58936397585785E-05,1.06591696749092E-05,1.93359375,0,0
-2.50384600803955E-05,6.53170855002827E-06,1.93359375,0,0
-2.64542704826454E-05,4.11893734053592E-06,1.93359375,0,0
-2.53557791438652E-05,3.90243121728417E-06,1.93359375,0,0
-2.52896625170251E-05,4.91913169753389E-06,1.93359375,0,0
-2.50609937211266E-05,6.15857334196335E-06,1.93359375,0,0
-2.37076164921746E-05,8.87041096575558E-06,1.93359375,0,0
-2.42238857026678E-05,1.31429533212213E-05,1.93359375,0,0
-2.2865713617648E-05,1.56837595568504E-05,1.93359375,0,0
-2.28207572945394E-05,1.80454517249018E-05,1.93359375,0,0
-2.04647967620986E-05,1.84850632649614E-05,1.93359375,0,0
-2.16532480408205E-05,1.88216981769074E-05,1.93359375,0,0
-2.17594188143266E-05,1.69129143614555E-05,1.93359375,0,0
-2.30731729971012E-05,1.48817462104489E-05,1.93359375,0,0
-2.20640686166007E-05,1.1661054486467E-05,1.93359375,0,0
-2.26641313929576E-05,1.00623337857542E-05,1.93359375,0,0
-2.19289540837053E-05,9.80795448413119E-06,1.93359375,0,0
-2.1782710973639E-05,1.20558543130755E-05,1.93359375,0,0
-2.0627763660741E-05,1.4561609532393E-05,1.93359375,0,0
-2.11404749279609E-05,1.61763618962141E-05,1.93359375,0,0
-2.15558575291652E-05,1.56712012540083E-05,1.93359375,0,0
-2.21297195821535E-05,1.42021926876623E-05,1.93359375,0,0
-1.87988316611154E-05,1.1026472748199E-05,1.93359375,0,0
-2.66943825408816E-05,1.39649982884293E-05,1.93359375,0,0
-2.07438079087297E-05,6.93604533807957E-06,1.93359375,0,0
-2.50393841270125E-05,7.93290837464156E-06,1.93359375,0,0
-1.83746706170496E-05,7.13555755282869E-06,1.93359375,0,0
-1.88544509001076E-05,1.32984705487615E-05,1.93359375,0,0
-1.69671657204162E-05,1.43233237395179E-05,1.93359375,0,0
-1.98416219063802E-05,1.37603947223397E-05,1.93359375,0,0
-2.11378883250291E-05,1.24513662740355E-05,1.93359375,0,0
-2.15593354369048E-05,1.18165407911874E-05,1.93359375,0,0
-2.15418804145884E-05,1.08582826214842E-05,1.93359375,0,0
-2.07885550480569E-05,9.32891998672858E-06,1.93359375,0,0
-2.13642179005547E-05,8.52465927891899E-06,1.93359375,0,0
-1.98690249817446E-05,5.75459216634044E-06,1.93359375,0,0
-1.97074441530276E-05,6.15540056969621E-06,1.93359375,0,0
-1.74280230567092E-05,8.6734808064648E-06,1.93359375,0,0
-1.89245602086885E-05,1.20175318443216E-05,1.93359375,0,0
-2.01315870071994E-05,1.1706339137163E-05,1.93359375,0,0
-2.36883279285394E-05,1.24743073683931E-05,1.93359375,0,0
-2.52016689046286E-05,1.25861661217641E-05,1.93359375,0,0
-2.67496197920991E-05,1.17379076982616E-05,1.93359375,0,0
-2.51359670073725E-05,1.04698410723358E-05,1.93359375,0,0
-2.32466500165174E-05,1.10672554001212E-05,1.93359375,0,0
-2.05128817469813E-05,1.02117001006263E-05,1.93359375,0,0
-2.00561316887615E-05,8.64648609422147E-06,1.93359375,0,0
-2.11628976103384E-05,7.33512342776521E-06,1.93359375,0,0
-2.11047135962872E-05,7.98819473857293E-06,1.93359375,0,0
-1.64896155183669E-05,6.95626977176289E-06,1.93359375,0,0
-2.30047280638246E-05,8.80494462762726E-06,1.93359375,0,0
-1.71630454133265E-05,6.51284017294529E-06,1.93359375,0,0
-2.10739272006322E-05,8.42176268633921E-06,1.93359375,0,0
-1.81606537807966E-05,3.70239354197111E-06,1.93359375,0,0
-2.14761712413747E-05,2.12930126508581E-06,1.93359375,0,0
-1.85746357601602E-05,2.79278333437105E-06,1.93359375,0,0
-1.89124821190489E-05,7.31436603018665E-06,1.93359375,0,0
-2.03073013835819E-05,1.06118823168799E-05,1.93359375,0,0
-2.33185473916819E-05,1.14060048872489E-05,1.93359375,0,0
-2.55338673014194E-05,1.02352996691479E-05,1.93359375,0,0
-2.53570287895855E-05,9.68901531450683E-06,1.93359375,0,0
-2.58385171036934E-05,9.78900789050385E-06,1.93359375,0,0
-2.46839936153265E-05,7.94085190136684E-06,1.93359375,0,0
-2.53839807555778E-05,7.45347415431752E-06,1.93359375,0,0
-2.48934848059434E-05,8.18576882011257E-06,1.93359375,0,0
-2.63859274127753E-05,9.35649404709693E-06,1.93359375,0,0
-2.51536821451737E-05,6.44868032395607E-06,1.93359375,0,0
-2.47142179432558E-05,2.69745078185224E-06,1.93359375,0,0
-2.25717267312575E-05,7.57969985443196E-07,1.93359375,0,0
-2.3214013708639E-05,3.34920491695812E-06,1.93359375,0,0
-2.41307425312698E-05,6.28990619588876E-06,1.93359375,0,0
-2.53431426244788E-05,8.3544027802418E-06,1.93359375,0,0
-2.57239644270157E-05,8.98612870514626E-06,1.93359375,0,0
-2.59330681728898E-05,9.30658006836893E-06,1.93359375,0,0
-2.58435447904048E-05,9.61823752732016E-06,1.93359375,0,0
-2.64119989878964E-05,1.12964689833461E-05,1.93359375,0,0
-2.19291505345609E-05,1.23939526019967E-05,1.93359375,0,0
-3.15398901875596E-05,1.87858822755516E-05,1.93359375,0,0
-2.40765511989594E-05,1.42634435178479E-05,1.93359375,0,0
-2.94959336315515E-05,1.53860601130873E-05,1.93359375,0,0
-2.48512951657176E-05,1.37874285428552E-05,1.93359375,0,0
-2.72019678959623E-05,1.86012839549221E-05,1.93359375,0,0
-2.40653462242335E-05,1.82679905265104E-05,1.93359375,0,0
-2.44029815803515E-05,1.69379727594787E-05,1.93359375,0,0
-2.31178983085556E-05,1.57649192260578E-05,1.93359375,0,0
-2.27015480049886E-05,1.65473265951732E-05,1.93359375,0,0
-2.35401203099173E-05,1.73184071172727E-05,1.93359375,0,0
-2.40992121689487E-05,1.5228624761221E-05,1.93359375,0,0
-2.560089706094E-05,1.20684126159176E-05,1.93359375,0,0
-2.38158627325902E-05,8.01900296210079E-06,1.93359375,0,0
-2.39671626331983E-05,7.7030108514009E-06,1.93359375,0,0
-2.29991546802921E-05,8.34192633192288E-06,1.93359375,0,0
-2.49728891503764E-05,1.12517054731143E-05,1.93359375,0,0
-2.40639146795729E-05,1.26644317788305E-05,1.93359375,0,0
-2.49567019636743E-05,1.29619284052751E-05,1.93359375,0,0
-2.44235052377917E-05,1.03021602626541E-05,1.93359375,0,0
-2.48843643930741E-05,7.62390982345096E-06,1.93359375,0,0
-2.25028161366936E-05,3.00496139971074E-06,1.93359375,0,0
-2.25296189455548E-05,-1.94635163097701E-06,1.93359375,0,0
-2.39219170907745E-05,-5.54281177755911E-06,1.93359375,0,0
-2.57710198638961E-05,-4.92169192511938E-06,1.93359375,0,0
-2.69999345618999E-05,-4.29421163516963E-07,1.93359375,0,0
-2.86377980955876E-05,4.78441734230728E-06,1.93359375,0,0
-2.38254451687681E-05,8.47171850182349E-06,1.93359375,0,0
-3.20232174999546E-05,1.67007056006696E-05,1.93359375,0,0
-2.13687726500211E-05,1.84511973202461E-05,1.93359375,0,0
-2.65358557953732E-05,1.99640799110057E-05,1.93359375,0,0
-2.03041745407972E-05,1.7868365830509E-05,1.93359375,0,0
-2.3584743757965E-05,1.72065974766156E-05,1.93359375,0,0
-2.27475593419513E-05,1.39143139676889E-05,1.93359375,0,0
-2.56461953540565E-05,1.22613037092378E-05,1.93359375,0,0
-2.58280269918032E-05,1.2029985555273E-05,1.93359375,0,0
-2.7017365937354E-05,1.20439026431995E-05,1.93359375,0,0
-2.83716326521244E-05,1.18966872832971E-05,1.93359375,0,0
-2.7577212676988E-05,1.39072608362767E-05,1.93359375,0,0
-2.79549294646131E-05,1.83897063834593E-05,1.93359375,0,0
-2.63929105130956E-05,2.04728130484E-05,1.93359375,0,0
-2.83430144918384E-05,2.12608920264756E-05,1.93359375,0,0
-2.83021945506334E-05,2.1180141629884E-05,1.93359375,0,0
-2.9683254979318E-05,2.21598947973689E-05,1.93359375,0,0
-2.71007957053371E-05,2.14841365959728E-05,1.93359375,0,0
-2.69790762104094E-05,2.02523970074253E-05,1.93359375,0,0
-2.54649494308978E-05,1.89148213394219E-05,1.93359375,0,0
-2.68382518697763E-05,1.77812944457401E-05,1.93359375,0,0
-2.67460363829741E-05,1.52290767800878E-05,1.93359375,0,0
-2.82131295534782E-05,1.28514284369885E-05,1.93359375,0,0
-2.7408239475335E-05,1.10500641312683E-05,1.93359375,0,0
-2.64978643826908E-05,1.04777582237148E-05,1.93359375,0,0
-2.66072238446213E-05,1.21280063467566E-05,1.93359375,0,0
-2.49252843786962E-05,1.33843077492202E-05,1.93359375,0,0
-1.79849939740961E-05,9.66448897088412E-06,1.93359375,0,0
-2.51368473982438E-05,1.4006389392307E-05,1.93359375,0,0
-1.90341143024853E-05,1.00888182714698E-05,1.93359375,0,0
-2.52979280048748E-05,8.32151818030979E-06,1.93359375,0,0
-2.29734905587975E-05,1.18437344553968E-06,1.93359375,0,0
-2.42986589000793E-05,2.72049373961636E-06,1.93359375,0,0
-2.08613637369126E-05,5.04791023558937E-06,1.93359375,0,0
-2.15592754102545E-05,7.35402909413097E-06,1.93359375,0,0
-2.09785775950877E-05,8.06014395493548E-06,1.93359375,0,0
-2.08517485589255E-05,1.01428804555326E-05,1.93359375,0,0
-1.96851706277812E-05,1.35459158627782E-05,1.93359375,0,0
-1.84545042429818E-05,1.59082173922798E-05,1.93359375,0,0
-2.00039539777208E-05,1.55828893184662E-05,1.93359375,0,0
-1.99691912712296E-05,1.28602569020586E-05,1.93359375,0,0
-2.11505575862248E-05,1.29729060063255E-05,1.93359375,0,0
-1.97720783035038E-05,1.41571817948716E-05,1.93359375,0,0
-2.00580616365187E-05,1.62505402840907E-05,1.93359375,0,0
-1.93313480849611E-05,1.67972866620403E-05,1.93359375,0,0
-2.16285952774342E-05,1.7091711924877E-05,1.93359375,0,0
-2.16523912968114E-05,1.49700235851924E-05,1.93359375,0,0
-2.16666157939471E-05,1.24210046124063E-05,1.93359375,0,0
-1.96584114746656E-05,9.14784959604731E-06,1.93359375,0,0
-1.91768831427908E-05,6.7443816078594E-06,1.93359375,0,0
-1.89986094483174E-05,3.25039081872092E-06,1.93359375,0,0
-2.05177093448583E-05,4.70826762466459E-07,1.93359375,0,0
-2.20401143451454E-05,-1.42424553928322E-07,1.93359375,0,0
-2.23617189476499E-05,3.06136394101486E-06,1.93359375,0,0
-1.78453792614164E-05,7.10979884388507E-06,1.93359375,0,0
-2.48137275775662E-05,1.31867182062706E-05,1.93359375,0,0
-1.8821809135261E-05,1.35488635351066E-05,1.93359375,0,0
-2.4423470676993E-05,1.36583603307372E-05,1.93359375,0,0
-2.19031007873127E-05,9.52819664234994E-06,1.93359375,0,0
-2.51496130658779E-05,8.37849347590236E-06,1.93359375,0,0
-2.26903484872309E-05,8.0794898167369E-06,1.93359375,0,0
-2.31399189942749E-05,9.79737251327606E-06,1.93359375,0,0
-2.28101544053061E-05,1.1748247743526E-05,1.93359375,0,0
-2.39560522459215E-05,1.1006299246219E-05,1.93359375,0,0
-2.46537347265985E-05,9.29177804209758E-06,1.93359375,0,0
-2.36546311498387E-05,9.22600247577066E-06,1.93359375,0,0
-2.43285667238524E-05,9.86321538221091E-06,1.93359375,0,0
-2.41083071159665E-05,9.37086224439554E-06,1.93359375,0,0
-2.59410589933395E-05,9.86200393526815E-06,1.93359375,0,0
-2.47815260081552E-05,1.06318693724461E-05,1.93359375,0,0
-2.41729667322943E-05,1.27846315081115E-05,1.93359375,0,0
-2.16976677620551E-05,1.45780159073183E-05,1.93359375,0,0
-2.26461907004705E-05,1.47449281939771E-05,1.93359375,0,0
-2.29045781452442E-05,1.18418420242961E-05,1.93359375,0,0
-2.43233916989993E-05,7.64991000323789E-06,1.93359375,0,0
-2.29389006562997E-05,1.52359984895156E-06,1.93359375,0,0
-2.26177944568917E-05,-3.90194054489257E-06,1.93359375,0,0
-2.32716047321446E-05,-7.25950303603895E-06,1.93359375,0,0
-2.47800981014734E-05,-9.0727962742676E-06,1.93359375,0,0
-2.60782690020278E-05,-1.0002777344198E-05,1.93359375,0,0
-2.71263252216158E-05,-8.50194464874221E-06,1.93359375,0,0
-2.41052202909486E-05,-2.42099918068561E-06,1.93359375,0,0
-3.739983367268E-05,-2.33295099860698E-06,1.93359375,0,0
-3.05691719404422E-05,-3.95235133510141E-07,1.93359375,0,0
-3.30971706716809E-05,5.83735470627289E-07,1.93359375,0,0
-2.53455764323007E-05,5.17616945217014E-06,1.93359375,0,0
-2.80830572592095E-05,8.29490181786241E-06,1.93359375,0,0
-2.76632126769982E-05,9.67517007666174E-06,1.93359375,0,0
-3.04615277855191E-05,6.14773307461292E-06,1.93359375,0,0
-2.927142122644E-05,4.40455914940685E-06,1.93359375,0,0
-2.79760133707896E-05,7.21407195669599E-06,1.93359375,0,0
-2.76609844149789E-05,1.09957663880778E-05,1.93359375,0,0
-2.59999487752793E-05,1.28309247884317E-05,1.93359375,0,0
-2.56154726230307E-05,1.25355099953595E-05,1.93359375,0,0
-2.29540055443067E-05,1.37615088533494E-05,1.93359375,0,0
-2.29472261707997E-05,1.65924993780209E-05,1.93359375,0,0
-2.16573262150632E-05,1.79777707671747E-05,1.93359375,0,0
-2.39606015384197E-05,1.62765791174024E-05,1.93359375,0,0
-2.33801856666105E-05,1.41955169965513E-05,1.93359375,0,0
-2.35735024034511E-05,1.11998579086503E-05,1.93359375,0,0
-2.26604206545744E-05,8.32536079542479E-06,1.93359375,0,0
-2.41276193264639E-05,6.87484089212376E-06,1.93359375,0,0
-2.38692246057326E-05,7.60663988330634E-06,1.93359375,0,0
-2.44423899857793E-05,8.2547312558745E-06,1.93359375,0,0
-2.33856299018953E-05,8.69741688802605E-06,1.93359375,0,0
-2.3158814656199E-05,9.65008621278685E-06,1.93359375,0,0
-2.39402907027397E-05,9.02197189134313E-06,1.93359375,0,0
-2.54920305451378E-05,6.56595329928678E-06,1.93359375,0,0
-2.19352896237979E-05,3.92669016946456E-06,1.93359375,0,0
-3.04816967400257E-05,6.95070275469334E-06,1.93359375,0,0
-2.14167539525079E-05,8.43862744659418E-06,1.93359375,0,0
-2.64726986642927E-05,1.06069210232818E-05,1.93359375,0,0
-2.27837408601772E-05,9.72430461843032E-06,1.93359375,0,0
-2.69727133854758E-05,1.19326450658264E-05,1.93359375,0,0
-2.5446559448028E-05,1.22839182949974E-05,1.93359375,0,0
-2.61874392890604E-05,1.30649450511555E-05,1.93359375,0,0
-2.45657556661172E-05,1.57093600137159E-05,1.93359375,0,0
-2.42362839344423E-05,1.79365524672903E-05,1.93359375,0,0
-2.47109364863718E-05,1.82909516297514E-05,1.93359375,0,0
-2.43307349592214E-05,1.89910315384623E-05,1.93359375,0,0
-2.58313666563481E-05,1.93552950804587E-05,1.93359375,0,0
-2.53917587542674E-05,1.78280788531993E-05,1.93359375,0,0
-2.7204057914787E-05,1.69428385561332E-05,1.93359375,0,0
-2.56907806033269E-05,1.71115370903863E-05,1.93359375,0,0
-2.47729076363612E-05,1.92337993212277E-05,1.93359375,0,0
-2.17049764614785E-05,2.08975943678524E-05,1.93359375,0,0
-2.27787168114446E-05,2.11843580473214E-05,1.93359375,0,0
-2.35340885410551E-05,2.04658099391963E-05,1.93359375,0,0
-2.55775466939667E-05,2.10462312679738E-05,1.93359375,0,0
-2.45879436988616E-05,2.04765510716243E-05,1.93359375,0,0
-2.37901203945512E-05,1.85491844604257E-05,1.93359375,0,0
-2.15165782719851E-05,1.68363440025132E-05,1.93359375,0,0
-2.02052033273503E-05,1.6668789612595E-05,1.93359375,0,0
-2.08399378607282E-05,1.76222292793682E-05,1.93359375,0,0
-2.22395392484032E-05,1.92588249774417E-05,1.93359375,0,0
-1.81273353518918E-05,1.60312993102707E-05,1.93359375,0,0
-2.51917881541885E-05,2.02369556063786E-05,1.93359375,0,0
-1.77329093276057E-05,1.16583314593299E-05,1.93359375,0,0
-2.07651246455498E-05,1.62289125000825E-05,1.93359375,0,0
-1.71025385498069E-05,1.31665365188383E-05,1.93359375,0,0
-2.09936806641053E-05,1.35916661747615E-05,1.93359375,0,0
-1.99463538592681E-05,8.01774240244413E-06,1.93359375,0,0
-2.16475054912735E-05,7.42920656193746E-06,1.93359375,0,0
-2.13454641198041E-05,9.97973893390736E-06,1.93359375,0,0
-2.12501563510159E-05,1.46641777973855E-05,1.93359375,0,0
-2.15111467696261E-05,1.72691252373625E-05,1.93359375,0,0
-2.1834686776856E-05,1.82963121915236E-05,1.93359375,0,0
-2.27713662752649E-05,2.00474860321265E-05,1.93359375,0,0
-2.12294326047413E-05,1.7766378732631E-05,1.93359375,0,0
-2.20277197513497E-05,1.52193370013265E-05,1.93359375,0,0
-2.18363438762026E-05,1.1353711670381E-05,1.93359375,0,0
-2.42340229306137E-05,1.12005136543303E-05,1.93359375,0,0
-2.43245885940269E-05,9.34528634388698E-06,1.93359375,0,0
-2.56450675806263E-05,7.63484058552422E-06,1.93359375,0,0
-2.49607019213727E-05,3.69577196579485E-06,1.93359375,0,0
-2.55298436968587E-05,4.03724743591738E-06,1.93359375,0,0
-2.44446946453536E-05,8.38052801555023E-06,1.93359375,0,0
-2.45229675783776E-05,1.44300238389405E-05,1.93359375,0,0
-2.32845868595177E-05,1.41772525239503E-05,1.93359375,0,0
-2.17482756852405E-05,9.95490063360194E-06,1.93359375,0,0
-2.03373147087405E-05,6.63013406665414E-06,1.93359375,0,0
-1.98011875909287E-05,6.29147325525992E-06,1.93359375,0,0
-1.75846689671744E-05,5.34548053110484E-06,1.93359375,0,0
-2.71760309260571E-05,8.82763379195239E-06,1.93359375,0,0
-2.26740794460056E-05,1.0477409887244E-05,1.93359375,0,0
-2.62853682215791E-05,1.27767307276372E-05,1.93359375,0,0
-2.30734203796601E-05,9.75597413344076E-06,1.93359375,0,0
-2.6055371563416E-05,8.31575744086877E-06,1.93359375,0,0
-2.49831227847608E-05,4.30212685387232E-06,1.93359375,0,0
-2.57066549238516E-05,1.39859093906125E-06,1.93359375,0,0
-2.39839973801281E-05,1.75097071064556E-07,1.93359375,0,0
-2.27339041884989E-05,-7.58822807256365E-07,1.93359375,0,0
-2.31539488595445E-05,-1.58983618803177E-06,1.93359375,0,0
-2.31869835261023E-05,-2.86679153305158E-07,1.93359375,0,0
-2.3590751879965E-05,2.16844000533456E-06,1.93359375,0,0
-2.24523155338829E-05,2.98015311273048E-06,1.93359375,0,0
-2.43822887568967E-05,4.33918785347487E-06,1.93359375,0,0
-2.44573438976659E-05,5.61168599233497E-06,1.93359375,0,0
-2.43148660956649E-05,7.2854077188822E-06,1.93359375,0,0
-2.22058588406071E-05,7.61008413974196E-06,1.93359375,0,0
-2.30463228945155E-05,7.29426346879336E-06,1.93359375,0,0
-2.27106556849321E-05,4.47627280664165E-06,1.93359375,0,0
-2.33054215641459E-05,1.79000949174224E-06,1.93359375,0,0
-2.32277307077311E-05,6.94766242759215E-07,1.93359375,0,0
-2.39713153860066E-05,2.18994364331593E-06,1.93359375,0,0
-2.3027416318655E-05,4.7926605475368E-06,1.93359375,0,0
-2.17959186556982E-05,6.62412412566482E-06,1.93359375,0,0
-2.1647052562912E-05,7.59876365918899E-06,1.93359375,0,0
-2.28147055167938E-05,1.00348643172765E-05,1.93359375,0,0
-1.86486777238315E-05,1.00685265351785E-05,1.93359375,0,0
-2.55947506957455E-05,1.34044776132214E-05,1.93359375,0,0
-1.79803482751595E-05,8.30921453598421E-06,1.93359375,0,0
-2.22996968659572E-05,1.3082253644825E-05,1.93359375,0,0
-1.9236320440541E-05,1.57535232574446E-05,1.93359375,0,0
-2.39719811361283E-05,1.88088451977819E-05,1.93359375,0,0
-2.24117557081627E-05,1.51914546222542E-05,1.93359375,0,0
-2.23393562919227E-05,1.29383870444144E-05,1.93359375,0,0
-2.15005784411915E-05,1.3226106602815E-05,1.93359375,0,0
-2.32682778005255E-05,1.40091287903488E-05,1.93359375,0,0
-2.50372431764845E-05,1.29120389829041E-05,1.93359375,0,0
-2.50543780566659E-05,1.05455010270816E-05,1.93359375,0,0
-2.5607338102418E-05,9.37464938033372E-06,1.93359375,0,0
-2.35727111430606E-05,7.83360337663908E-06,1.93359375,0,0
-2.38427001022501E-05,9.46214004216017E-06,1.93359375,0,0
-2.25915155169787E-05,1.18834359454922E-05,1.93359375,0,0
-2.40464632952353E-05,1.43065362863126E-05,1.93359375,0,0
-2.37116510106716E-05,1.37102560984204E-05,1.93359375,0,0
-2.4984363335534E-05,1.28275341921835E-05,1.93359375,0,0
-2.38896645896602E-05,1.1403116332076E-05,1.93359375,0,0
-2.42612532019848E-05,1.07764535641763E-05,1.93359375,0,0
-2.4455068341922E-05,9.78207754087634E-06,1.93359375,0,0
-2.68902949756011E-05,9.10986454982776E-06,1.93359375,0,0
-2.79735886579147E-05,9.24283995118458E-06,1.93359375,0,0
-2.77065864793258E-05,1.19075612019515E-05,1.93359375,0,0
-2.74384401564021E-05,1.46986321851728E-05,1.93359375,0,0
-2.78551051451359E-05,1.65921792358859E-05,1.93359375,0,0
-2.27401378651848E-05,1.29362288134871E-05,1.93359375,0,0
-3.23130152537487E-05,1.52248476297245E-05,1.93359375,0,0
-2.33695573115256E-05,5.89095589020872E-06,1.93359375,0,0
-2.7674466764438E-05,6.73769454806461E-06,1.93359375,0,0
-2.22973885684041E-05,3.19890705213766E-06,1.93359375,0,0
-2.50908378802706E-05,6.90471506459289E-06,1.93359375,0,0
-2.17244360101176E-05,7.91166257840814E-06,1.93359375,0,0
-2.14428655453958E-05,1.08962422018521E-05,1.93359375,0,0
-2.04994539672043E-05,1.28715482787811E-05,1.93359375,0,0
-2.15706731978571E-05,1.30727694340749E-05,1.93359375,0,0
-2.3499587769038E-05,1.09075135696912E-05,1.93359375,0,0
-2.34352537518134E-05,7.86380860517966E-06,1.93359375,0,0
-2.4167975425371E-05,7.54831171434489E-06,1.93359375,0,0
-2.3385804524878E-05,6.9266989157768E-06,1.93359375,0,0
-2.53193156822817E-05,7.95433152234182E-06,1.93359375,0,0
-2.52161062235245E-05,7.6905926107429E-06,1.93359375,0,0
-2.72307388513582E-05,9.23735478863819E-06,1.93359375,0,0
-2.5974137315643E-05,1.03188658613362E-05,1.93359375,0,0
-2.67066516244086E-05,1.29530326375971E-05,1.93359375,0,0
-2.61933200818021E-05,1.30466187329148E-05,1.93359375,0,0
-2.68210624199128E-05,1.36527833092259E-05,1.93359375,0,0
-2.46558047365397E-05,1.41748723763158E-05,1.93359375,0,0
-2.31093254114967E-05,1.53023174789269E-05,1.93359375,0,0
-2.25650419451995E-05,1.54525660036597E-05,1.93359375,0,0
-2.4739956643316E-05,1.4414569704968E-05,1.93359375,0,0
-2.57432311627781E-05,1.26452005133615E-05,1.93359375,0,0
-2.57334759226069E-05,1.28077272165683E-05,1.93359375,0,0
-2.08513502002461E-05,1.1453814295237E-05,1.93359375,0,0
-2.94550318358233E-05,1.8211148926639E-05,1.93359375,0,0
-2.16368953260826E-05,1.7672104149824E-05,1.93359375,0,0
-2.64216596406186E-05,2.16016687772935E-05,1.93359375,0,0
-2.14385199797107E-05,1.85934513865504E-05,1.93359375,0,0
-2.316716745554E-05,2.12640643439954E-05,1.93359375,0,0
-2.14762076211628E-05,2.2685435396852E-05,1.93359375,0,0
-2.44034672505222E-05,2.29869237955427E-05,1.93359375,0,0
-2.54452661465621E-05,2.05181895580608E-05,1.93359375,0,0
-2.52231766353361E-05,1.80324477696558E-05,1.93359375,0,0
-2.32165566558251E-05,1.56051009980729E-05,1.93359375,0,0
-2.09318914130563E-05,1.46751071952167E-05,1.93359375,0,0
-2.19906141865067E-05,1.51160511450144E-05,1.93359375,0,0
-2.23298011405859E-05,1.40446636578417E-05,1.93359375,0,0
-2.52321788138943E-05,1.48259432535269E-05,1.93359375,0,0
-2.51731307798764E-05,1.62526121130213E-05,1.93359375,0,0
-2.58345862675924E-05,1.88424455700442E-05,1.93359375,0,0
-2.47235275310231E-05,1.7309217582806E-05,1.93359375,0,0
-2.63279016508022E-05,1.50910627780831E-05,1.93359375,0,0
-2.57037609117106E-05,1.41270684252959E-05,1.93359375,0,0
-2.65500257228268E-05,1.6298321497743E-05,1.93359375,0,0
-2.54099686571863E-05,1.6795689589344E-05,1.93359375,0,0
-2.48270243901061E-05,1.56404512381414E-05,1.93359375,0,0
-2.44975726673147E-05,1.36086418933701E-05,1.93359375,0,0
-2.51912424573675E-05,1.38027708089794E-05,1.93359375,0,0
-2.43908634729451E-05,1.45305357364123E-05,1.93359375,0,0
-2.36541600315832E-05,1.46360525832279E-05,1.93359375,0,0
-1.88015019375598E-05,1.23989711937611E-05,1.93359375,0,0
-2.65608687186614E-05,1.72041236510267E-05,1.93359375,0,0
-2.08074234251399E-05,1.05835151771316E-05,1.93359375,0,0
-2.74526919383788E-05,1.05404287751298E-05,1.93359375,0,0
-2.54632850555936E-05,6.9345478550531E-06,1.93359375,0,0
-2.93168232019525E-05,8.65312267706031E-06,1.93359375,0,0
-2.76247992587741E-05,6.53788720228476E-06,1.93359375,0,0
-2.82704131677747E-05,7.53809081288637E-06,1.93359375,0,0
-2.6758494641399E-05,9.48417255131062E-06,1.93359375,0,0
-2.65262624452589E-05,9.63658112596022E-06,1.93359375,0,0
-2.79758442047751E-05,6.98970507073682E-06,1.93359375,0,0
-2.82966902886983E-05,5.0956850827788E-06,1.93359375,0,0
-2.82682995020878E-05,7.16074873707839E-06,1.93359375,0,0
-2.61205132119358E-05,7.46321984479437E-06,1.93359375,0,0
-2.64046739175683E-05,5.99602844886249E-06,1.93359375,0,0
-2.52873378485674E-05,1.66189386163751E-06,1.93359375,0,0
-2.68941930698929E-05,-2.33595613963189E-07,1.93359375,0,0
-2.66233055299381E-05,-7.70678923345258E-07,1.93359375,0,0
-2.72729248536052E-05,1.66562779213564E-06,1.93359375,0,0
-2.53446742135566E-05,2.13951284422365E-06,1.93359375,0,0
-2.4255723474198E-05,2.51175492849143E-06,1.93359375,0,0
-2.20916263060644E-05,4.19663956563454E-06,1.93359375,0,0
-2.25022031372646E-05,8.05149556981632E-06,1.93359375,0,0
-2.32335059990874E-05,9.25830954656703E-06,1.93359375,0,0
-2.46692106884439E-05,5.9361414059822E-06,1.93359375,0,0
-2.47059688263107E-05,2.49353684012021E-06,1.93359375,0,0
-2.44567072513746E-05,3.09719825963839E-06,1.93359375,0,0
-1.98853285837686E-05,4.80847847939003E-06,1.93359375,0,0
-2.81137999991188E-05,8.70106487127487E-06,1.93359375,0,0
-2.236275577161E-05,9.20856109587476E-06,1.93359375,0,0
-2.86403337668162E-05,1.03266029327642E-05,1.93359375,0,0
-2.38796019402798E-05,9.12848463485716E-06,1.93359375,0,0
-2.65024864347652E-05,1.07135665530222E-05,1.93359375,0,0
-2.4601986297057E-05,1.11279387056129E-05,1.93359375,0,0
-2.50366047112038E-05,9.56219628278632E-06,1.93359375,0,0
-2.33035607379861E-05,9.09921709535411E-06,1.93359375,0,0
-2.34390827245079E-05,9.93916364677716E-06,1.93359375,0,0
-2.49155764322495E-05,1.05832377812476E-05,1.93359375,0,0
-2.46180334215751E-05,1.1032620932383E-05,1.93359375,0,0
-2.47884436248569E-05,1.27966177387862E-05,1.93359375,0,0
-2.26404463319341E-05,1.43368888529949E-05,1.93359375,0,0
-2.27287728193915E-05,1.6342206436093E-05,1.93359375,0,0
-2.11115075217094E-05,1.6938929547905E-05,1.93359375,0,0
-2.25072726607323E-05,1.52288266690448E-05,1.93359375,0,0
-2.2479225663119E-05,1.11525814645574E-05,1.93359375,0,0
-2.42400819843169E-05,8.39538461150369E-06,1.93359375,0,0
-2.36007672356209E-05,7.62399940867908E-06,1.93359375,0,0
-2.46647032327019E-05,8.1815778685268E-06,1.93359375,0,0
-2.42228488787077E-05,8.97370318853064E-06,1.93359375,0,0
-2.36830219364492E-05,7.62020272304653E-06,1.93359375,0,0
-2.26779284275835E-05,5.17853231940535E-06,1.93359375,0,0
-2.37865988310659E-05,4.13633961215965E-06,1.93359375,0,0
-2.43775557464687E-05,3.12016436510021E-06,1.93359375,0,0
-2.42646110564237E-05,2.18463674173108E-06,1.93359375,0,0
-2.00223475985695E-05,4.23782512370963E-06,1.93359375,0,0
-2.92274089588318E-05,8.61017088027438E-06,1.93359375,0,0
-2.30870427913032E-05,7.90310605225386E-06,1.93359375,0,0
-2.776957990136E-05,6.81964320392581E-06,1.93359375,0,0
-2.36018531722948E-05,5.62252898816951E-06,1.93359375,0,0
-2.61392360698665E-05,7.13642975824769E-06,1.93359375,0,0
-2.36955274885986E-05,1.14804397526314E-05,1.93359375,0,0
-2.48971937253373E-05,1.60256313392892E-05,1.93359375,0,0
-2.33633782045217E-05,1.70671901287278E-05,1.93359375,0,0
-2.28032477025408E-05,1.43017841764959E-05,1.93359375,0,0
-2.3522738047177E-05,1.11754152385402E-05,1.93359375,0,0
-2.30530331464252E-05,1.03373649835703E-05,1.93359375,0,0
-2.3240378141054E-05,1.15806278699893E-05,1.93359375,0,0
-2.16663647734094E-05,1.22674100566655E-05,1.93359375,0,0
-2.22068483708426E-05,1.27990651890286E-05,1.93359375,0,0
-2.01948405447183E-05,1.31957031044294E-05,1.93359375,0,0
-2.04760344786337E-05,1.25357419165084E-05,1.93359375,0,0
-1.92450552276568E-05,1.0069677955471E-05,1.93359375,0,0
-2.00647300516721E-05,7.4252498052374E-06,1.93359375,0,0
-1.89489201147808E-05,5.40073870070046E-06,1.93359375,0,0
-1.93487067008391E-05,3.99387272409513E-06,1.93359375,0,0
-1.87190235010348E-05,2.68047620011203E-06,1.93359375,0,0
-1.95521715795621E-05,1.60011188654607E-06,1.93359375,0,0
-1.93388113984838E-05,2.0493555439316E-06,1.93359375,0,0
-1.88944104593247E-05,6.45717773295473E-06,1.93359375,0,0
-1.85746866918635E-05,1.22363317132113E-05,1.93359375,0,0
-1.83355987246614E-05,1.33207977341954E-05,1.93359375,0,0
-1.3647412743012E-05,7.32510898160399E-06,1.93359375,0,0
-1.85299577424303E-05,6.40119924355531E-06,1.93359375,0,0
-1.49008646985749E-05,-3.85171063044254E-07,1.93359375,0,0
-2.01654656848405E-05,-3.51612584381655E-07,1.93359375,0,0
-1.74896395037649E-05,-3.27830821333919E-06,1.93359375,0,0
-1.91445615200792E-05,5.10776999362861E-07,1.93359375,0,0
-1.63456770678749E-05,1.96513633454742E-06,1.93359375,0,0
-1.70187322510174E-05,4.33131071986281E-06,1.93359375,0,0
-1.82670373760629E-05,5.79779316467466E-06,1.93359375,0,0
-2.03916879399912E-05,7.14377756594331E-06,1.93359375,0,0
-2.11951191886328E-05,8.3014119809377E-06,1.93359375,0,0
-1.9994200556539E-05,9.6277981356252E-06,1.93359375,0,0
-2.1106970962137E-05,8.7486387201352E-06,1.93359375,0,0
-2.22378694161307E-05,6.17347313891514E-06,1.93359375,0,0
-2.42627847910626E-05,8.18288572190795E-06,1.93359375,0,0
-2.29804190894356E-05,1.1590171197895E-05,1.93359375,0,0
-2.35055340453982E-05,1.49340639836737E-05,1.93359375,0,0
-2.35094794334145E-05,1.48109857036616E-05,1.93359375,0,0
-2.48179021582473E-05,1.52519469338586E-05,1.93359375,0,0
-2.41545949393185E-05,1.6038251487771E-05,1.93359375,0,0
-2.44955717789708E-05,1.79662620212184E-05,1.93359375,0,0
-2.41187590290792E-05,1.77968868229073E-05,1.93359375,0,0
-2.38111006183317E-05,1.81935774890007E-05,1.93359375,0,0
-2.27947930397931E-05,1.944028554135E-05,1.93359375,0,0
-2.34001545322826E-05,2.0751363990712E-05,1.93359375,0,0
-2.43203576246742E-05,2.07839548238553E-05,1.93359375,0,0
-2.5508028556942E-05,2.34882500080857E-05,1.93359375,0,0
-2.13696384889772E-05,2.14891188079491E-05,1.93359375,0,0
-2.88082392216893E-05,2.78326187981293E-05,1.93359375,0,0
-1.95965913007967E-05,1.45974408951588E-05,1.93359375,0,0
-2.55054510489572E-05,1.40344563988037E-05,1.93359375,0,0
-2.2419915694627E-05,4.39363157056505E-06,1.93359375,0,0
-2.67531358986162E-05,6.16018905930105E-06,1.93359375,0,0
-2.60061024164315E-05,5.58110741621931E-06,1.93359375,0,0
-2.86348167719552E-05,9.52152186073363E-06,1.93359375,0,0
-2.84464586002287E-05,1.16367782538873E-05,1.93359375,0,0
-2.83868266706122E-05,1.29965537780663E-05,1.93359375,0,0
-2.70310520136263E-05,1.272376448469E-05,1.93359375,0,0
-2.47689476964297E-05,1.20670183605398E-05,1.93359375,0,0
-2.51874407695141E-05,1.44594805533416E-05,1.93359375,0,0
-2.42366586462595E-05,1.4632816601079E-05,1.93359375,0,0
-2.58133459283272E-05,1.55605594045483E-05,1.93359375,0,0
-2.51331803156063E-05,1.17233985292842E-05,1.93359375,0,0
-2.65944872808177E-05,9.39768597163493E-06,1.93359375,0,0
-2.48597953032004E-05,7.22192180546699E-06,1.93359375,0,0
-2.5437224394409E-05,1.03600386864855E-05,1.93359375,0,0
-2.55484173976583E-05,1.1867651664943E-05,1.93359375,0,0
-2.82484488707269E-05,1.26461491163354E-05,1.93359375,0,0
-2.83007120742695E-05,1.06278212115285E-05,1.93359375,0,0
-2.91126616502879E-05,1.24365087685874E-05,1.93359375,0,0
-3.02052903862204E-05,1.53446289914427E-05,1.93359375,0,0
-3.27420566463843E-05,1.77550082298694E-05,1.93359375,0,0
-3.40479564329144E-05,1.65457586263074E-05,1.93359375,0,0
-3.27125744661316E-05,1.49800562212477E-05,1.93359375,0,0
-2.34185972658452E-05,1.26902650663396E-05,1.93359375,0,0
-3.23646927427035E-05,1.74416290974477E-05,1.93359375,0,0
-2.40298486460233E-05,1.12105972220888E-05,1.93359375,0,0
-3.05310131807346E-05,1.3319103345566E-05,1.93359375,0,0
-2.52267800533446E-05,1.18807001854293E-05,1.93359375,0,0
-2.74229605565779E-05,1.47374585139914E-05,1.93359375,0,0
-2.33851005759789E-05,1.31823517222074E-05,1.93359375,0,0
-2.47579901042627E-05,1.41323789648595E-05,1.93359375,0,0
-2.51190758717712E-05,1.5746349163237E-05,1.93359375,0,0
-2.63694309978746E-05,1.58327929966617E-05,1.93359375,0,0
-2.69568863586755E-05,1.46927941386821E-05,1.93359375,0,0
-2.64135996985715E-05,1.41908785735723E-05,1.93359375,0,0
-2.75813908956479E-05,1.56849910126766E-05,1.93359375,0,0
-2.63938873104053E-05,1.56276091729524E-05,1.93359375,0,0
-2.71624321612762E-05,1.5814948710613E-05,1.93359375,0,0
-2.43158065131865E-05,1.39258227136452E-05,1.93359375,0,0
-2.39167893596459E-05,1.32708291857853E-05,1.93359375,0,0
-2.15413147088839E-05,1.18347925308626E-05,1.93359375,0,0
-2.22688086068956E-05,1.20668764793663E-05,1.93359375,0,0
-2.15502841456328E-05,1.1912436093553E-05,1.93359375,0,0
-2.32804686675081E-05,1.28662240967969E-05,1.93359375,0,0
-2.29693541768938E-05,1.18925545393722E-05,1.93359375,0,0
-2.34867839026265E-05,1.11140780063579E-05,1.93359375,0,0
-2.34254566748859E-05,1.0478730473551E-05,1.93359375,0,0
-2.48412343353266E-05,9.76077262748731E-06,1.93359375,0,0
-2.51480432780227E-05,7.51975903767743E-06,1.93359375,0,0
-2.44050315814093E-05,4.42339523942792E-06,1.93359375,0,0
-1.89469956239918E-05,1.52023551436287E-06,1.93359375,0,0
-2.58238469541539E-05,3.02931243822968E-06,1.93359375,0,0
-1.88699414138682E-05,4.11440305470023E-06,1.93359375,0,0
-2.43521189986495E-05,4.75134629596141E-06,1.93359375,0,0
-1.94413933058968E-05,4.36496793554397E-06,1.93359375,0,0
-2.0558591131703E-05,5.87899148740689E-06,1.93359375,0,0
-1.87064288184047E-05,6.13486918155104E-06,1.93359375,0,0
-2.10219350265106E-05,5.36186189492582E-06,1.93359375,0,0
-2.08440724236425E-05,4.87076522404095E-06,1.93359375,0,0
-2.13531457120553E-05,3.53943300979154E-06,1.93359375,0,0
-2.33955033763777E-05,2.68806638814567E-06,1.93359375,0,0
-2.4970795493573E-05,2.17489241549629E-06,1.93359375,0,0
-2.68119238171494E-05,1.70533587606769E-06,1.93359375,0,0
-2.57698939094553E-05,1.49772483837296E-06,1.93359375,0,0
-2.70504406216787E-05,1.06339291505719E-06,1.93359375,0,0
-2.67096675088396E-05,-1.25625598812462E-08,1.93359375,0,0
-2.77584440482315E-05,-7.58102430609142E-07,1.93359375,0,0
-2.553932426963E-05,-2.52026183034104E-07,1.93359375,0,0
-2.55581126111792E-05,2.6790523861564E-06,1.93359375,0,0
-2.52050485869404E-05,6.70815825287718E-06,1.93359375,0,0
-2.68091316684149E-05,9.10707603907213E-06,1.93359375,0,0
-2.62250814557774E-05,1.07668683995144E-05,1.93359375,0,0
-2.55080394708784E-05,1.23487116070464E-05,1.93359375,0,0
-2.42723326664418E-05,1.17818417493254E-05,1.93359375,0,0
-2.47268872044515E-05,1.15995599117014E-05,1.93359375,0,0
-2.51755336648785E-05,1.3550356925407E-05,1.93359375,0,0
-2.57319861702854E-05,1.54208773892606E-05,1.93359375,0,0
-2.15178060898324E-05,1.42664603117737E-05,1.93359375,0,0
-2.99103412544355E-05,2.10041707759956E-05,1.93359375,0,0
-2.13448347494705E-05,1.6288477127091E-05,1.93359375,0,0
-2.72254346782574E-05,1.88882222573739E-05,1.93359375,0,0
-2.32992606470361E-05,1.56348487507785E-05,1.93359375,0,0
-2.6210285795969E-05,1.96801502170274E-05,1.93359375,0,0
-2.49819586315425E-05,1.94529075088212E-05,1.93359375,0,0
-2.72949619102292E-05,1.84658874786692E-05,1.93359375,0,0
-2.61944587691687E-05,1.68110309459735E-05,1.93359375,0,0
-2.49591066676658E-05,1.71599203895312E-05,1.93359375,0,0
-2.4627737730043E-05,1.74155084096128E-05,1.93359375,0,0
-2.33202081290074E-05,1.73830758285476E-05,1.93359375,0,0
-2.38597331190249E-05,1.8270242435392E-05,1.93359375,0,0
-2.30990790441865E-05,1.64003522513667E-05,1.93359375,0,0
-2.5098845071625E-05,1.44670439112815E-05,1.93359375,0,0
-2.43316444539232E-05,1.15254488264327E-05,1.93359375,0,0
-2.53807411354501E-05,1.1200877452211E-05,1.93359375,0,0
-2.36786472669337E-05,1.04165928860311E-05,1.93359375,0,0
-2.3556522137369E-05,1.22627052405733E-05,1.93359375,0,0
-2.18068144022254E-05,1.39596186272684E-05,1.93359375,0,0
-2.17951037484454E-05,1.61558964464348E-05,1.93359375,0,0
-2.0522968043224E-05,1.55610687215813E-05,1.93359375,0,0
-2.12017748708604E-05,1.47304799611447E-05,1.93359375,0,0
-2.17269589484204E-05,1.23824747788603E-05,1.93359375,0,0
-2.23009374167304E-05,9.43685245147208E-06,1.93359375,0,0
-2.19270386878634E-05,6.900460448378E-06,1.93359375,0,0
-2.18398599827196E-05,6.53543384032673E-06,1.93359375,0,0
-1.92131883522961E-05,5.06719561599311E-06,1.93359375,0,0
-2.83204917650437E-05,9.76295086729806E-06,1.93359375,0,0
-2.15810596273514E-05,1.24624102681992E-05,1.93359375,0,0
-2.48415235546418E-05,1.64263856277103E-05,1.93359375,0,0
-1.97277313418454E-05,1.74833057826618E-05,1.93359375,0,0
-2.15598247450544E-05,1.99790683836909E-05,1.93359375,0,0
-1.97275767277461E-05,1.74823726410978E-05,1.93359375,0,0
-2.10460584639804E-05,1.09774246084271E-05,1.93359375,0,0
-2.17975702980766E-05,5.52442315893131E-06,1.93359375,0,0
-2.30725836445345E-05,3.03726869788079E-06,1.93359375,0,0
-2.36644627875648E-05,2.05786773221917E-06,1.93359375,0,0
-2.25482926907716E-05,1.81582936420455E-06,1.93359375,0,0
-2.29398174269591E-05,2.9964803616167E-06,1.93359375,0,0
-2.1994059352437E-05,5.11345388076734E-06,1.93359375,0,0
-2.32732254517032E-05,9.71624740486732E-06,1.93359375,0,0
-2.15992022276623E-05,1.33440353238257E-05,1.93359375,0,0
-1.96972523553995E-05,1.47033206303604E-05,1.93359375,0,0
-1.58912444021553E-05,1.39091735036345E-05,1.93359375,0,0
-1.65814290085109E-05,1.15096900117351E-05,1.93359375,0,0
-1.80195420398377E-05,7.26961343389121E-06,1.93359375,0,0
-2.05877568077995E-05,4.98285498906625E-06,1.93359375,0,0
-2.11054375540698E-05,6.42756140223355E-06,1.93359375,0,0
-2.1947771529085E-05,9.77679246716434E-06,1.93359375,0,0
-2.26999836741015E-05,1.20677468657959E-05,1.93359375,0,0
-2.58021973422728E-05,1.2262431482668E-05,1.93359375,0,0
-2.73447094514268E-05,1.21935354400193E-05,1.93359375,0,0
-2.55484410445206E-05,1.15466755232774E-05,1.93359375,0,0
-1.91973176697502E-05,6.39371046418091E-06,1.93359375,0,0
-2.75493675871985E-05,8.57762006489793E-06,1.93359375,0,0
-2.26944630412618E-05,8.43532325234264E-06,1.93359375,0,0
-2.93010107270675E-05,1.21657876661629E-05,1.93359375,0,0
-2.51487908826675E-05,9.98117502604146E-06,1.93359375,0,0
-2.77278468274744E-05,1.21991870400961E-05,1.93359375,0,0
-2.61841450992506E-05,1.14220783871133E-05,1.93359375,0,0
-2.76634291367373E-05,9.22888011700707E-06,1.93359375,0,0
-2.73923924396513E-05,7.45719853512128E-06,1.93359375,0,0
-2.81233806163073E-05,6.85345185047481E-06,1.93359375,0,0
-2.78958123089978E-05,5.4553920563194E-06,1.93359375,0,0
-2.60716151387896E-05,4.55822919320781E-06,1.93359375,0,0
-2.65322141785873E-05,4.74009266326902E-06,1.93359375,0,0
-2.58405307249632E-05,4.28215571446344E-06,1.93359375,0,0
-2.71548706223257E-05,6.38197388980188E-06,1.93359375,0,0
-2.6525591238169E-05,9.39999881666154E-06,1.93359375,0,0
-2.74460726359393E-05,1.33128733068588E-05,1.93359375,0,0
-2.57942610915052E-05,1.53057990246452E-05,1.93359375,0,0
-2.64097034232691E-05,1.66585159604438E-05,1.93359375,0,0
-2.50294342549751E-05,1.57833856064826E-05,1.93359375,0,0
-2.39493201661389E-05,1.47226764966035E-05,1.93359375,0,0
-2.11938477150397E-05,1.4482186998066E-05,1.93359375,0,0
-2.08899145945907E-05,1.69142385857413E-05,1.93359375,0,0
-2.09256759262644E-05,1.79221078724368E-05,1.93359375,0,0
-2.20702404476469E-05,1.59543615154689E-05,1.93359375,0,0
-2.30751466006041E-05,1.19865107990336E-05,1.93359375,0,0
-2.36399300774792E-05,8.11901645647595E-06,1.93359375,0,0
-2.03012295969529E-05,6.95368225933635E-06,1.93359375,0,0
-2.80266067420598E-05,1.06459910966805E-05,1.93359375,0,0
-1.92057977983495E-05,7.66865741752554E-06,1.93359375,0,0
-2.33741357078543E-05,5.94376479057246E-06,1.93359375,0,0
-2.01037673832616E-05,1.3507982430383E-06,1.93359375,0,0
-2.52460631600115E-05,2.3355137273029E-06,1.93359375,0,0
-2.5382863896084E-05,4.60261480839108E-06,1.93359375,0,0
-2.71336048172088E-05,7.11129996489035E-06,1.93359375,0,0
-2.691698318813E-05,7.7335853347904E-06,1.93359375,0,0
-2.74999965768075E-05,7.76308661443181E-06,1.93359375,0,0
-2.66440783889266E-05,8.05965282779653E-06,1.93359375,0,0
-2.35262050409801E-05,9.25101812754292E-06,1.93359375,0,0
-2.39006476476789E-05,1.11206600195146E-05,1.93359375,0,0
-2.47948210017057E-05,1.03165921245818E-05,1.93359375,0,0
-2.70888485829346E-05,9.0426819951972E-06,1.93359375,0,0
-2.50958510150667E-05,7.92886839917628E-06,1.93359375,0,0
-2.45351402554661E-05,8.29009604785824E-06,1.93359375,0,0
-2.25276671699248E-05,8.92026309884386E-06,1.93359375,0,0
-2.35845927818445E-05,1.10572618723381E-05,1.93359375,0,0
-2.42899204749847E-05,1.22103556350339E-05,1.93359375,0,0
-2.68003113887971E-05,1.18705302156741E-05,1.93359375,0,0
-2.65580765699269E-05,1.05184599306085E-05,1.93359375,0,0
-2.55253962677671E-05,1.06122433862765E-05,1.93359375,0,0
-2.35713305301033E-05,1.06556071841624E-05,1.93359375,0,0
-2.38222746702377E-05,1.15308603199082E-05,1.93359375,0,0
-2.3361882995232E-05,1.37412107505952E-05,1.93359375,0,0
-2.2364838514477E-05,1.52614920807537E-05,1.93359375,0,0
-1.78545851667877E-05,9.64774790190859E-06,1.93359375,0,0
-2.50682514888467E-05,1.06047127701459E-05,1.93359375,0,0
-1.84518939931877E-05,6.1211244428705E-06,1.93359375,0,0
-2.27344571612775E-05,1.00826091511408E-05,1.93359375,0,0
-1.91244871530216E-05,5.28387090525939E-06,1.93359375,0,0
-2.17204888031119E-05,6.53462711852626E-06,1.93359375,0,0
-2.00526537810219E-05,6.78232754580677E-06,1.93359375,0,0
-2.17189863178646E-05,8.6794334492879E-06,1.93359375,0,0
-2.25236453843536E-05,1.0346225280955E-05,1.93359375,0,0
-2.47700645559235E-05,1.12214502223651E-05,1.93359375,0,0
-2.69903994194465E-05,9.65009985520737E-06,1.93359375,0,0
-2.71696571871871E-05,6.5533486122149E-06,1.93359375,0,0
-2.76702212431701E-05,6.22010929873795E-06,1.93359375,0,0
-2.55057057074737E-05,6.89468788550585E-06,1.93359375,0,0
-2.47306907112943E-05,1.04919809018611E-05,1.93359375,0,0
-2.23587703658268E-05,1.30357693706173E-05,1.93359375,0,0
-2.28377521125367E-05,1.42274384415941E-05,1.93359375,0,0
-2.13937746593729E-05,1.1203588655917E-05,1.93359375,0,0
-2.12400609598262E-05,8.42317240312696E-06,1.93359375,0,0
-1.973607322725E-05,6.510898401757E-06,1.93359375,0,0
-1.94539989024634E-05,7.99649933469482E-06,1.93359375,0,0
-1.79524377017515E-05,1.01597024695366E-05,1.93359375,0,0
-1.75126042449847E-05,1.13642954602255E-05,1.93359375,0,0
-1.60796880663838E-05,1.02550611700281E-05,1.93359375,0,0
-1.50371097333846E-05,8.70607982506044E-06,1.93359375,0,0
-1.53883684106404E-05,6.71360203341465E-06,1.93359375,0,0
-1.60435538418824E-05,5.93655977354501E-06,1.93359375,0,0
-1.22809769891319E-05,4.11185783377732E-06,1.93359375,0,0
-1.77844285644824E-05,5.91107072978048E-06,1.93359375,0,0
-1.42509770739707E-05,7.17042030373705E-06,1.93359375,0,0
-1.73935841303319E-05,1.06223524198867E-05,1.93359375,0,0
-1.53494329424575E-05,9.43467784964014E-06,1.93359375,0,0
-1.84376494871685E-05,1.01172417998896E-05,1.93359375,0,0
-1.83541196747683E-05,9.00473878573393E-06,1.93359375,0,0
-2.03319832507987E-05,6.89250509822159E-06,1.93359375,0,0
-2.08242090593558E-05,5.48225261809421E-06,1.93359375,0,0
-2.08906858460978E-05,6.12853636994259E-06,1.93359375,0,0
-2.16830303543247E-05,6.16956094745547E-06,1.93359375,0,0
-2.18399036384653E-05,6.0016013776476E-06,1.93359375,0,0
-2.25157145905541E-05,6.23029063717695E-06,1.93359375,0,0
-2.21511818381259E-05,5.25052200828213E-06,1.93359375,0,0
-2.2983495000517E-05,6.14290593148326E-06,1.93359375,0,0
-2.31868962146109E-05,7.75282842369052E-06,1.93359375,0,0
-2.63462170551065E-05,9.55522682488663E-06,1.93359375,0,0
-2.85913920379244E-05,1.03333322840626E-05,1.93359375,0,0
-3.03197539324174E-05,1.21097500596079E-05,1.93359375,0,0
-2.87349848804297E-05,1.27499315567547E-05,1.93359375,0,0
-2.71945300482912E-05,1.23953896036255E-05,1.93359375,0,0
-2.59330117842183E-05,1.30120015455759E-05,1.93359375,0,0
-2.6965863071382E-05,1.53760684042936E-05,1.93359375,0,0
-2.78263178188354E-05,1.67300822795369E-05,1.93359375,0,0
-2.81220345641486E-05,1.68583737831796E-05,1.93359375,0,0
-2.74854646704625E-05,1.586103826412E-05,1.93359375,0,0
-2.6937226721202E-05,1.6288882761728E-05,1.93359375,0,0
-2.14857245737221E-05,1.3996596862853E-05,1.93359375,0,0
-3.02069056488108E-05,2.04861080419505E-05,1.93359375,0,0
-2.1692483642255E-05,1.46606998896459E-05,1.93359375,0,0
-2.56150469795102E-05,1.48567642099806E-05,1.93359375,0,0
-1.99469250219408E-05,1.0155870768358E-05,1.93359375,0,0
-2.31076282943832E-05,1.37441929837223E-05,1.93359375,0,0
-2.05266278499039E-05,1.42317248901236E-05,1.93359375,0,0
-2.04741299967282E-05,1.52091015479527E-05,1.93359375,0,0
-1.86641518666875E-05,1.32680679598707E-05,1.93359375,0,0
-1.87695695785806E-05,1.2408468137437E-05,1.93359375,0,0
-1.99099358724197E-05,1.33875009851181E-05,1.93359375,0,0
-2.07536813832121E-05,1.4181044207362E-05,1.93359375,0,0
-2.29399865929736E-05,1.48732451634714E-05,1.93359375,0,0
-2.25065396080026E-05,1.3676817616215E-05,1.93359375,0,0
-2.34900799114257E-05,1.47622922668234E-05,1.93359375,0,0
-2.16701700992417E-05,1.50106652654358E-05,1.93359375,0,0
-2.26877382374369E-05,1.60737636178965E-05,1.93359375,0,0
-2.22684975597076E-05,1.48777771755704E-05,1.93359375,0,0
-2.38708325923653E-05,1.59592218551552E-05,1.93359375,0,0
-2.30105288210325E-05,1.75722416315693E-05,1.93359375,0,0
-2.39740093093133E-05,1.87581917998614E-05,1.93359375,0,0
-2.42805162997684E-05,1.50580281115253E-05,1.93359375,0,0
-2.56641251326073E-05,1.18791767818038E-05,1.93359375,0,0
-2.40299541474087E-05,1.1799015737779E-05,1.93359375,0,0
-2.27371965593193E-05,1.5223391528707E-05,1.93359375,0,0
-2.20161036850186E-05,1.83582960744388E-05,1.93359375,0,0
-2.19204175664345E-05,1.95662687474396E-05,1.93359375,0,0
-1.8672844817047E-05,1.42856333695818E-05,1.93359375,0,0
-2.80687236227095E-05,1.87525893124985E-05,1.93359375,0,0
-2.36559644690715E-05,1.34363181132358E-05,1.93359375,0,0
-2.9597986213048E-05,1.73830103449291E-05,1.93359375,0,0
-2.6908279323834E-05,1.18942698463798E-05,1.93359375,0,0
-2.9485212508007E-05,1.29666841530707E-05,1.93359375,0,0
-2.76621394732501E-05,1.11256904347101E-05,1.93359375,0,0
-2.87585680780467E-05,1.21757711895043E-05,1.93359375,0,0
-2.79404393950244E-05,1.28041056086659E-05,1.93359375,0,0
-2.69532083621016E-05,1.22929641293013E-05,1.93359375,0,0
-2.63640940829646E-05,1.09153315861477E-05,1.93359375,0,0
-2.65104499703739E-05,1.11195140561904E-05,1.93359375,0,0
-2.91793276119279E-05,1.34807442009333E-05,1.93359375,0,0
-2.96484431601129E-05,1.32912391563877E-05,1.93359375,0,0
-3.02413245663047E-05,1.41513428388862E-05,1.93359375,0,0
-2.80297372228233E-05,1.30121143229189E-05,1.93359375,0,0
-2.78657880699029E-05,1.34463471113122E-05,1.93359375,0,0
-2.60227043327177E-05,1.49439456436085E-05,1.93359375,0,0
-2.5511733838357E-05,1.98045127035584E-05,1.93359375,0,0
-2.46366598730674E-05,1.97547233256046E-05,1.93359375,0,0
-2.71140652330359E-05,1.6819007214508E-05,1.93359375,0,0
-2.78447259915993E-05,1.24137632155907E-05,1.93359375,0,0
-2.84671041299589E-05,1.08684153019567E-05,1.93359375,0,0
-2.78895731753437E-05,1.13046617116197E-05,1.93359375,0,0
-2.74569010798587E-05,1.35871068778215E-05,1.93359375,0,0
-2.71689223154681E-05,1.52016491483664E-05,1.93359375,0,0
-2.73207060672576E-05,1.56013993546367E-05,1.93359375,0,0
-2.16434746107552E-05,1.18539364848402E-05,1.93359375,0,0
-2.89311665255809E-05,1.63013737619622E-05,1.93359375,0,0
-2.01432721951278E-05,1.43536135510658E-05,1.93359375,0,0
-2.88238225039095E-05,2.11899296118645E-05,1.93359375,0,0
-2.76029495580588E-05,1.8391823687125E-05,1.93359375,0,0
-3.08543567371089E-05,1.64029916049913E-05,1.93359375,0,0
-2.65362868958618E-05,8.21354478830472E-06,1.93359375,0,0
-2.55663435382303E-05,3.28651185554918E-06,1.93359375,0,0
-2.46093241003109E-05,2.99330326924974E-06,1.93359375,0,0
-2.58077507169219E-05,6.03608077653917E-06,1.93359375,0,0
-2.60111773968674E-05,9.45269403018756E-06,1.93359375,0,0
-2.39310047618346E-05,1.02303301900974E-05,1.93359375,0,0
-2.37806325458223E-05,1.04217833722942E-05,1.93359375,0,0
-2.30606419791002E-05,8.24911967356456E-06,1.93359375,0,0
-2.55495069723111E-05,6.39429890725296E-06,1.93359375,0,0
-2.54297392530134E-05,2.09759332392423E-06,1.93359375,0,0
-2.75215643341653E-05,-1.94345875570434E-06,1.93359375,0,0
-2.72175184363732E-05,-5.55923770662048E-06,1.93359375,0,0
-2.88223363895668E-05,-4.08608548241318E-06,1.93359375,0,0
-2.76816062978469E-05,-2.55878535426746E-06,1.93359375,0,0
-2.73504392680479E-05,-2.78140964837803E-06,1.93359375,0,0
-2.5714945877553E-05,-3.6786152577406E-06,1.93359375,0,0
-2.63374149653828E-05,1.55375815324987E-07,1.93359375,0,0
-2.53691432590131E-05,5.58932879357599E-06,1.93359375,0,0
-2.41756733885268E-05,7.85419888416072E-06,1.93359375,0,0
-2.42312762566144E-05,6.10684401181061E-06,1.93359375,0,0
-2.46775744017214E-05,4.02341538574547E-06,1.93359375,0,0
-2.11226742976578E-05,3.71354781236732E-06,1.93359375,0,0
-3.11570838675834E-05,7.42318479751702E-06,1.93359375,0,0
-2.43476079049287E-05,7.64272590458859E-06,1.93359375,0,0
-2.74604753940366E-05,7.063311386446E-06,1.93359375,0,0
-2.18670866161119E-05,6.64545677864226E-06,1.93359375,0,0
-2.44513612415176E-05,9.83914105745498E-06,1.93359375,0,0
-2.12607556022704E-05,1.23628551591537E-05,1.93359375,0,0
-2.1854326405446E-05,1.38245450216345E-05,1.93359375,0,0
-2.0890993255307E-05,1.58068523887778E-05,1.93359375,0,0
-2.04196130653145E-05,1.68861042766366E-05,1.93359375,0,0
-2.05844080483075E-05,1.69008308148477E-05,1.93359375,0,0
-2.00661979761207E-05,1.55881407408742E-05,1.93359375,0,0
-2.22834769374458E-05,1.32683635456488E-05,1.93359375,0,0
-2.36743817367824E-05,9.91381511994405E-06,1.93359375,0,0
-2.60958840954117E-05,6.02888258072198E-06,1.93359375,0,0
-2.41965790337417E-05,2.98146346722206E-06,1.93359375,0,0
-2.44765178649686E-05,3.57371141035401E-06,1.93359375,0,0
-2.3862852685852E-05,5.75101603317307E-06,1.93359375,0,0
-2.51682031375822E-05,6.37636867395486E-06,1.93359375,0,0
-2.4244305677712E-05,6.60344949210412E-06,1.93359375,0,0
-2.49984586844221E-05,8.94371896720259E-06,1.93359375,0,0
-2.38391075981781E-05,1.13446567411302E-05,1.93359375,0,0
-2.24173272727057E-05,1.22273504530312E-05,1.93359375,0,0
-2.00724025489762E-05,1.13536043500062E-05,1.93359375,0,0
-2.11681872315239E-05,9.65393337537535E-06,1.93359375,0,0
-2.30380683206022E-05,9.15970122150611E-06,1.93359375,0,0
-2.3218011847348E-05,8.83847496879753E-06,1.93359375,0,0
-1.89452021004399E-05,5.2956752369937E-06,1.93359375,0,0
-2.7272108127363E-05,7.56376448407536E-06,1.93359375,0,0
-2.18536551983561E-05,7.75826447352301E-06,1.93359375,0,0
-2.76863338513067E-05,1.20192898975802E-05,1.93359375,0,0
-2.45720802922733E-05,1.21084722195519E-05,1.93359375,0,0
-2.79732266790234E-05,1.34732808874105E-05,1.93359375,0,0
-2.59945809375495E-05,1.14271151687717E-05,1.93359375,0,0
-2.59570188063663E-05,9.80440836428897E-06,1.93359375,0,0
-2.46315812546527E-05,9.09426671569236E-06,1.93359375,0,0
-2.45275405177381E-05,9.50935645960271E-06,1.93359375,0,0
-2.42082442127867E-05,1.08385929706856E-05,1.93359375,0,0
-2.32095826504519E-05,1.32293253045646E-05,1.93359375,0,0
-2.42722217080882E-05,1.47726759678335E-05,1.93359375,0,0
-2.35007173614576E-05,1.34062574943528E-05,1.93359375,0,0
-2.45252995227929E-05,1.2767271073244E-05,1.93359375,0,0
-2.31776521104621E-05,1.24738717204309E-05,1.93359375,0,0
-2.33610862778733E-05,1.31958786369069E-05,1.93359375,0,0
-2.1613079297822E-05,1.43158567880164E-05,1.93359375,0,0
-2.25601634156192E-05,1.71908759512007E-05,1.93359375,0,0
-2.2864789571031E-05,1.82798412424745E-05,1.93359375,0,0
-2.44948278123047E-05,1.70894745679107E-05,1.93359375,0,0
-2.36441810557153E-05,1.52623688336462E-05,1.93359375,0,0
-2.40796343859984E-05,1.58947532327147E-05,1.93359375,0,0
-2.53802336374065E-05,1.60445761139272E-05,1.93359375,0,0
-2.70567870757077E-05,1.40250558615662E-05,1.93359375,0,0
-2.72210454568267E-05,1.20235499707633E-05,1.93359375,0,0
-2.75723214144818E-05,1.21171806313214E-05,1.93359375,0,0
-2.31468493439024E-05,1.04731452665874E-05,1.93359375,0,0
-3.2500276574865E-05,1.54369135998422E-05,1.93359375,0,0
-2.37448657571804E-05,1.27428420455544E-05,1.93359375,0,0
-2.96237976726843E-05,1.58092043420766E-05,1.93359375,0,0
-2.60202868958004E-05,1.27516768770874E-05,1.93359375,0,0
-2.98658524116036E-05,1.2780146789737E-05,1.93359375,0,0
-2.63133897533407E-05,8.73903900355799E-06,1.93359375,0,0
-2.71299395535607E-05,5.9706158026529E-06,1.93359375,0,0
-2.69483844022034E-05,5.76931415707804E-06,1.93359375,0,0
-2.75385646091308E-05,7.67570418247487E-06,1.93359375,0,0
-2.80907261185348E-05,9.73328769759974E-06,1.93359375,0,0
-2.70719265245134E-05,1.19639325930621E-05,1.93359375,0,0
-2.77612161880825E-05,1.34737956614117E-05,1.93359375,0,0
-2.6694780899561E-05,1.07665173345595E-05,1.93359375,0,0
-2.89820945909014E-05,8.68518327479251E-06,1.93359375,0,0
-2.89479048660723E-05,7.09711230229004E-06,1.93359375,0,0
-3.02127100439975E-05,7.05173670212389E-06,1.93359375,0,0
-2.73892383120256E-05,6.50027277515619E-06,1.93359375,0,0
-2.60948654613458E-05,8.66443406266626E-06,1.93359375,0,0
-2.35727729887003E-05,1.00918314274168E-05,1.93359375,0,0
-2.41063735302305E-05,1.02697122201789E-05,1.93359375,0,0
-2.28623848670395E-05,9.01408566278405E-06,1.93359375,0,0
-2.14867377508199E-05,8.67979815666331E-06,1.93359375,0,0
-1.95727516256738E-05,8.45061640575295E-06,1.93359375,0,0
-2.00355898414273E-05,9.42718816077104E-06,1.93359375,0,0
-2.05301166715799E-05,9.36978631216334E-06,1.93359375,0,0
-1.97937570192153E-05,8.80258994584437E-06,1.93359375,0,0
-1.45987369251088E-05,5.85497491556453E-06,1.93359375,0,0
-2.09398949664319E-05,4.90161846755655E-06,1.93359375,0,0
-1.72024920175318E-05,-1.1511450566104E-06,1.93359375,0,0
-2.13057355722412E-05,-1.63433213629105E-08,1.93359375,0,0
-1.79998569365125E-05,2.15116443769148E-07,1.93359375,0,0
-2.04715452127857E-05,3.70564885088243E-06,1.93359375,0,0
-1.93667019630084E-05,3.1998547456169E-06,1.93359375,0,0
-2.03026684175711E-05,1.93981668417109E-06,1.93359375,0,0
-1.935776163009E-05,6.97999723797693E-07,1.93359375,0,0
-1.90720475075068E-05,2.04062030206842E-06,1.93359375,0,0
-1.96554301510332E-05,4.04068305215333E-06,1.93359375,0,0
-2.04519183171215E-05,4.20905780629255E-06,1.93359375,0,0
-2.17571960092755E-05,3.77294259124028E-06,1.93359375,0,0
-2.09241516131442E-05,2.22756011680758E-06,1.93359375,0,0
-2.19279208977241E-05,3.11676308228925E-06,1.93359375,0,0
-2.12102204386611E-05,4.98133476867224E-06,1.93359375,0,0
-2.16365260712337E-05,7.34189325157786E-06,1.93359375,0,0
-2.08002566068899E-05,8.48467334435554E-06,1.93359375,0,0
-2.18662862607744E-05,9.58669807005208E-06,1.93359375,0,0
-2.07487410079921E-05,8.68288316269172E-06,1.93359375,0,0
-2.03695708478335E-05,7.9310302680824E-06,1.93359375,0,0
-2.01046696020057E-05,7.34950162950554E-06,1.93359375,0,0
-2.08597939490573E-05,8.69959058036329E-06,1.93359375,0,0
-1.98968991753645E-05,1.09500624603243E-05,1.93359375,0,0
-1.9511364371283E-05,1.30940052258666E-05,1.93359375,0,0
-1.92923198483186E-05,1.29576192193781E-05,1.93359375,0,0
-1.89792172022862E-05,1.0797006325447E-05,1.93359375,0,0
-1.47108448800282E-05,8.58361818245612E-06,1.93359375,0,0
-2.11569149541901E-05,1.3894582480134E-05,1.93359375,0,0
-1.73274875123752E-05,1.26652385006309E-05,1.93359375,0,0
-2.2482290660264E-05,1.38555624289438E-05,1.93359375,0,0
-1.97451536223525E-05,1.03738511825213E-05,1.93359375,0,0
-2.18538370972965E-05,1.096520190913E-05,1.93359375,0,0
-2.08399633265799E-05,1.0225543519482E-05,1.93359375,0,0
-2.18119548662798E-05,9.70477231021505E-06,1.93359375,0,0
-2.05758133233758E-05,9.35360912990291E-06,1.93359375,0,0
-1.93334108189447E-05,1.02239810075844E-05,1.93359375,0,0
-1.86758024938172E-05,1.08264530354063E-05,1.93359375,0,0
-1.87051900866209E-05,9.81234370556194E-06,1.93359375,0,0
-2.07906632567756E-05,6.30437580184662E-06,1.93359375,0,0
-2.14157844311558E-05,1.11898134491639E-06,1.93359375,0,0
-2.22568633034825E-05,1.63111042184028E-06,1.93359375,0,0
-2.12540708162123E-05,7.65302411309676E-06,1.93359375,0,0
-2.19313878915273E-05,1.49498273458448E-05,1.93359375,0,0
-2.1369520254666E-05,1.70323346537771E-05,1.93359375,0,0
-2.34470917348517E-05,1.65076125995256E-05,1.93359375,0,0
-2.44252405536827E-05,1.55887591972714E-05,1.93359375,0,0
-2.53417983913096E-05,1.63065178639954E-05,1.93359375,0,0
-2.46839445026126E-05,1.55368506966624E-05,1.93359375,0,0
-2.57517967838794E-05,1.41622385854134E-05,1.93359375,0,0
-2.58106319961371E-05,1.36874132294906E-05,1.93359375,0,0
-2.48732903855853E-05,1.47389127960196E-05,1.93359375,0,0
-2.45172122959048E-05,1.59043884195853E-05,1.93359375,0,0
-2.44716429733671E-05,1.81927698577056E-05,1.93359375,0,0
-1.91958079085452E-05,1.60526251420379E-05,1.93359375,0,0
-2.83390418189811E-05,2.06097774935188E-05,1.93359375,0,0
-2.3586668248754E-05,1.06073021015618E-05,1.93359375,0,0
-2.89716044790111E-05,1.12902198452502E-05,1.93359375,0,0
-2.41645684582181E-05,7.86405416874914E-06,1.93359375,0,0
-2.68361982307397E-05,1.49624383993796E-05,1.93359375,0,0
-2.59108455793466E-05,1.69684917636914E-05,1.93359375,0,0
-2.62614885286894E-05,1.76776175067062E-05,1.93359375,0,0
-2.25942403631052E-05,1.702400004433E-05,1.93359375,0,0
-2.05453488888452E-05,1.7243439287995E-05,1.93359375,0,0
-2.13314087886829E-05,1.81668092409382E-05,1.93359375,0,0
-2.19928188016638E-05,2.01488437596709E-05,1.93359375,0,0
-2.26280571951065E-05,2.33242935792077E-05,1.93359375,0,0
-2.11698006751249E-05,2.22430771827931E-05,1.93359375,0,0
-2.26899646804668E-05,2.00845588551601E-05,1.93359375,0,0
-2.26896918320563E-05,1.5068391803652E-05,1.93359375,0,0
-2.41144134633942E-05,1.27734492707532E-05,1.93359375,0,0
-2.28832104767207E-05,1.14543572635739E-05,1.93359375,0,0
-2.34943854593439E-05,1.41332930070348E-05,1.93359375,0,0
-2.27937161980662E-05,1.48576464198413E-05,1.93359375,0,0
-2.38757020269986E-05,1.42372309710481E-05,1.93359375,0,0
-2.4060056603048E-05,1.29466325233807E-05,1.93359375,0,0
-2.48193282459397E-05,1.63458626047941E-05,1.93359375,0,0
-2.29850193136372E-05,2.03842191695003E-05,1.93359375,0,0
-2.15015625144588E-05,2.10228099604137E-05,1.93359375,0,0
-2.12851336982567E-05,1.81086088559823E-05,1.93359375,0,0
-2.24916784645757E-05,1.66083464137046E-05,1.93359375,0,0
-2.0301982658566E-05,1.37692859425442E-05,1.93359375,0,0
-3.10524301312398E-05,1.89997645065887E-05,1.93359375,0,0
-2.5870585886878E-05,1.18746365842526E-05,1.93359375,0,0
-2.96117577818222E-05,1.25847573144711E-05,1.93359375,0,0
-2.43258509726729E-05,9.5773730208748E-06,1.93359375,0,0
-2.61396453424823E-05,1.24876951304032E-05,1.93359375,0,0
-2.37517579080304E-05,9.48790147958789E-06,1.93359375,0,0
-2.48578253376763E-05,5.30855913893902E-06,1.93359375,0,0
-2.38693901337683E-05,1.60089052769763E-06,1.93359375,0,0
-2.367060733377E-05,6.41250494481937E-07,1.93359375,0,0
-2.40761164604919E-05,2.5174597340083E-07,1.93359375,0,0
-2.42939931922592E-05,4.59761935189817E-07,1.93359375,0,0
-2.65675535047194E-05,5.49609978861554E-07,1.93359375,0,0
-2.62975208897842E-05,-8.19049944311701E-07,1.93359375,0,0
-2.68015755864326E-05,2.65014227807114E-06,1.93359375,0,0
-2.52600366366096E-05,7.50114259062684E-06,1.93359375,0,0
-2.64765167230507E-05,1.23903046187479E-05,1.93359375,0,0
-2.61976219917415E-05,1.21621305879671E-05,1.93359375,0,0
-2.75308557320386E-05,1.18812349683139E-05,1.93359375,0,0
-2.64223581325496E-05,1.17204826892703E-05,1.93359375,0,0
-2.69545016635675E-05,1.30954558699159E-05,1.93359375,0,0
-2.67690884356853E-05,1.19470505524077E-05,1.93359375,0,0
-2.75394813797902E-05,1.08754629764007E-05,1.93359375,0,0
-2.72517445409903E-05,9.26242591958726E-06,1.93359375,0,0
-2.86848935502348E-05,8.17507407191442E-06,1.93359375,0,0
-2.99741095659556E-05,9.12898485694313E-06,1.93359375,0,0
-2.97642036457546E-05,1.03325091913575E-05,1.93359375,0,0
-2.35517090914072E-05,6.14531791143236E-06,1.93359375,0,0
-3.32168674503919E-05,6.85019131196896E-06,1.93359375,0,0
-2.33605333050946E-05,4.99231055073324E-06,1.93359375,0,0
-2.63917245320044E-05,8.14531995274592E-06,1.93359375,0,0
-2.0089917597943E-05,7.15305759513285E-06,1.93359375,0,0
-2.45828578044893E-05,1.02042367871036E-05,1.93359375,0,0
-2.39011405938072E-05,9.5521318144165E-06,1.93359375,0,0
-2.59093703789404E-05,8.9368531916989E-06,1.93359375,0,0
-2.45488226937596E-05,1.05502667793189E-05,1.93359375,0,0
-2.40502558881417E-05,1.28612828120822E-05,1.93359375,0,0
-2.40387144003762E-05,1.19687201731722E-05,1.93359375,0,0
-2.32029651670018E-05,1.1749638360925E-05,1.93359375,0,0
-2.47769639827311E-05,1.41160180646693E-05,1.93359375,0,0
-2.43351405515568E-05,1.42411072374671E-05,1.93359375,0,0
-2.61175191553775E-05,1.2407931535563E-05,1.93359375,0,0
-2.50933662755415E-05,9.12720042833826E-06,1.93359375,0,0
-2.62988487520488E-05,8.348967639904E-06,1.93359375,0,0
-2.45925621129572E-05,7.43103373679332E-06,1.93359375,0,0
-2.54878741543507E-05,7.51736615711707E-06,1.93359375,0,0
-2.54582391789882E-05,7.98190558271017E-06,1.93359375,0,0
-2.75777438218938E-05,1.0275000022375E-05,1.93359375,0,0
-2.78087372862501E-05,1.34993078972911E-05,1.93359375,0,0
-2.91893065877957E-05,1.76203120645368E-05,1.93359375,0,0
-2.93973789666779E-05,1.75592649611644E-05,1.93359375,0,0
-2.90495154331438E-05,1.47797290992457E-05,1.93359375,0,0
-2.661741382326E-05,1.3356367162487E-05,1.93359375,0,0
-2.44515431404579E-05,1.49496463563992E-05,1.93359375,0,0
-1.9767436242546E-05,1.11463168650516E-05,1.93359375,0,0
-2.92173317575362E-05,1.27313896882697E-05,1.93359375,0,0
-2.40147037402494E-05,7.11364054950536E-06,1.93359375,0,0
-2.9264123440953E-05,9.57614429353271E-06,1.93359375,0,0
-2.53546913882019E-05,4.17117735196371E-06,1.93359375,0,0
-2.79820469586411E-05,7.68664813222131E-06,1.93359375,0,0
-2.65272337856004E-05,1.03863176263985E-05,1.93359375,0,0
-2.80175736406818E-05,1.32715667859884E-05,1.93359375,0,0
-2.69228166871471E-05,1.26477916637668E-05,1.93359375,0,0
-2.66408314928412E-05,1.09836419142084E-05,1.93359375,0,0
-2.59312473644968E-05,8.44603528094012E-06,1.93359375,0,0
-2.45779447141103E-05,6.44603551336331E-06,1.93359375,0,0
-2.54235401371261E-05,7.25260724721011E-06,1.93359375,0,0
-2.4766244678176E-05,7.51893139749882E-06,1.93359375,0,0
-2.479868089722E-05,9.97808183456073E-06,1.93359375,0,0
-2.14260853681481E-05,1.22096680570394E-05,1.93359375,0,0
-2.07759894692572E-05,1.63763306773035E-05,1.93359375,0,0
-2.04653151740786E-05,1.81733557838015E-05,1.93359375,0,0
-2.42329642787809E-05,1.91814779100241E-05,1.93359375,0,0
-2.50992543442408E-05,1.65879664564272E-05,1.93359375,0,0
-2.49292315857019E-05,1.5804604117875E-05,1.93359375,0,0
-2.22495618800167E-05,1.55990601342637E-05,1.93359375,0,0
-2.12441063922597E-05,1.55921825353289E-05,1.93359375,0,0
-2.0909699742333E-05,1.4468835615844E-05,1.93359375,0,0
-2.20383026316995E-05,1.33428911794908E-05,1.93359375,0,0
-2.26250558625907E-05,1.26644554256927E-05,1.93359375,0,0
-2.29445886361646E-05,1.35453301481903E-05,1.93359375,0,0
-1.83904194273055E-05,1.29431264213054E-05,1.93359375,0,0
-2.5061392079806E-05,1.88988797162892E-05,1.93359375,0,0
-1.76362391357543E-05,1.32688974190387E-05,1.93359375,0,0
-2.2442083718488E-05,1.47911123349331E-05,1.93359375,0,0
-1.91894414456328E-05,1.41208547574934E-05,1.93359375,0,0
-2.35033494391246E-05,1.95905904547544E-05,1.93359375,0,0
-2.20730380533496E-05,1.83834472409217E-05,1.93359375,0,0
-2.20496422116412E-05,1.55171128426446E-05,1.93359375,0,0
-2.19810899579898E-05,1.34203246489051E-05,1.93359375,0,0
-2.3359101760434E-05,1.38501191031537E-05,1.93359375,0,0
-2.39074088312918E-05,1.5488176359213E-05,1.93359375,0,0
-2.34374456340447E-05,1.6951555153355E-05,1.93359375,0,0
-2.50307020905893E-05,1.82863768714014E-05,1.93359375,0,0
-2.39844102907227E-05,1.64559005497722E-05,1.93359375,0,0
-2.38057164096972E-05,1.59595838340465E-05,1.93359375,0,0
-2.15008967643371E-05,1.55725028889719E-05,1.93359375,0,0
-2.25713120016735E-05,1.67960624821717E-05,1.93359375,0,0
-2.24906889343401E-05,1.62884753081016E-05,1.93359375,0,0
-2.30783971346682E-05,1.65715755429119E-05,1.93359375,0,0
-2.11246970138745E-05,1.52737138705561E-05,1.93359375,0,0
-2.07582725124666E-05,1.4048868251848E-05,1.93359375,0,0
-1.93881078303093E-05,1.26994482343434E-05,1.93359375,0,0
-1.94814310816582E-05,1.25196002045413E-05,1.93359375,0,0
-2.00510330614634E-05,1.08913736767136E-05,1.93359375,0,0
-2.04412899620365E-05,8.8664701252128E-06,1.93359375,0,0
-1.98282959900098E-05,6.2398066802416E-06,1.93359375,0,0
-2.04885727725923E-05,2.88113642454846E-06,1.93359375,0,0
-1.71689807757502E-05,7.17531918326131E-07,1.93359375,0,0
-2.37109306908678E-05,1.19459025427204E-06,1.93359375,0,0
-1.6251447959803E-05,1.78637390035874E-06,1.93359375,0,0
-2.01727125386242E-05,3.34307310367876E-06,1.93359375,0,0
-1.75018176378217E-05,5.54349162484868E-06,1.93359375,0,0
-2.06309505301761E-05,9.59957651502918E-06,1.93359375,0,0
-2.03453510039253E-05,1.44639579957584E-05,1.93359375,0,0
-2.24352879740763E-05,1.81899595190771E-05,1.93359375,0,0
-2.245491668873E-05,1.94072054000571E-05,1.93359375,0,0
-2.37418571487069E-05,1.63732056535082E-05,1.93359375,0,0
-2.50563334702747E-05,1.32324239530135E-05,1.93359375,0,0
-2.54580372711644E-05,1.38190434881835E-05,1.93359375,0,0
-2.66494753304869E-05,1.42302942549577E-05,1.93359375,0,0
-2.54863025475061E-05,9.58260261541E-06,1.93359375,0,0
-2.53638390859123E-05,3.35821823682636E-06,1.93359375,0,0
-2.41426860156935E-05,1.26252928112081E-06,1.93359375,0,0
-2.58547479461413E-05,3.75019340026483E-06,1.93359375,0,0
-2.56892089964822E-05,6.38554911347455E-06,1.93359375,0,0
-2.74863268714398E-05,5.97460621065693E-06,1.93359375,0,0
-2.71075077762362E-05,4.59380771644646E-06,1.93359375,0,0
-2.64225891442038E-05,4.29966485171462E-06,1.93359375,0,0
-2.41363231907599E-05,3.46008232554595E-06,1.93359375,0,0
-2.3823466108297E-05,1.74285219145531E-06,1.93359375,0,0
-2.37235217355192E-05,1.39464702897385E-06,1.93359375,0,0
-2.40682402363746E-05,2.19553976421594E-06,1.93359375,0,0
-2.55134254985023E-05,3.19621722155716E-06,1.93359375,0,0
-2.77177132375073E-05,4.52171934739454E-06,1.93359375,0,0
-2.28662702284055E-05,5.02993179907207E-06,1.93359375,0,0
-3.06742986140307E-05,6.50867923468468E-06,1.93359375,0,0
-2.05842843570281E-05,3.35905474457832E-06,1.93359375,0,0
-2.61184868577402E-05,3.37771803060605E-06,1.93359375,0,0
-2.11883343581576E-05,1.42633848554397E-06,1.93359375,0,0
-2.43583672272507E-05,4.07714060202125E-06,1.93359375,0,0
-2.17698834603652E-05,6.66417781758355E-06,1.93359375,0,0
-2.30789391935105E-05,9.86159011517884E-06,1.93359375,0,0
-2.2299362171907E-05,1.46272532219882E-05,1.93359375,0,0
-2.21389618673129E-05,1.69475988514023E-05,1.93359375,0,0
-2.20870369957993E-05,1.49648340084241E-05,1.93359375,0,0
-2.17803644773085E-05,1.15865477710031E-05,1.93359375,0,0
-2.39975342992693E-05,9.7310648925486E-06,1.93359375,0,0
-2.38992197409971E-05,9.35131356527563E-06,1.93359375,0,0
-2.58519594353857E-05,1.13900723590632E-05,1.93359375,0,0
-2.44286329689203E-05,1.35487443913007E-05,1.93359375,0,0
-2.5072922653635E-05,1.45643070936785E-05,1.93359375,0,0
-2.36659798247274E-05,1.18662937893532E-05,1.93359375,0,0
-2.39023684116546E-05,7.56379404265317E-06,1.93359375,0,0
-2.13967396121006E-05,4.30151021646452E-06,1.93359375,0,0
-2.18507375393528E-05,5.98435326537583E-06,1.93359375,0,0
-2.06517088372493E-05,9.72948691924103E-06,1.93359375,0,0
-2.08168894459959E-05,1.05611297840369E-05,1.93359375,0,0
-2.19908706640126E-05,9.31659360503545E-06,1.93359375,0,0
-2.39969631365966E-05,8.59136525832582E-06,1.93359375,0,0
-2.37431431742152E-05,8.11610152595676E-06,1.93359375,0,0
-2.35538209381048E-05,1.05259450720041E-05,1.93359375,0,0
-2.01731672859751E-05,1.12821553557296E-05,1.93359375,0,0
-2.9273598556756E-05,1.38415834953776E-05,1.93359375,0,0
-2.2427402655012E-05,6.07363017479656E-06,1.93359375,0,0
-2.76941227639327E-05,8.11972313385922E-06,1.93359375,0,0
-2.46054678427754E-05,8.91152012627572E-06,1.93359375,0,0
-2.73874393315054E-05,1.57831473188708E-05,1.93359375,0,0
-2.57453957601683E-05,1.74462529685115E-05,1.93359375,0,0
-2.69431639026152E-05,1.94079293578397E-05,1.93359375,0,0
-2.58691597991856E-05,2.09103491215501E-05,1.93359375,0,0
-2.66075749095762E-05,2.08685851248447E-05,1.93359375,0,0
-2.79076193692163E-05,1.8776558135869E-05,1.93359375,0,0
-2.72287597908871E-05,1.59661431098357E-05,1.93359375,0,0
-2.76721912086941E-05,1.43379775181529E-05,1.93359375,0,0
-2.63684833043953E-05,1.11491617644788E-05,1.93359375,0,0
-2.69629181275377E-05,9.45983902056469E-06,1.93359375,0,0
-2.50731463893317E-05,5.83928476771689E-06,1.93359375,0,0
-2.51059191214154E-05,1.30827186239912E-06,1.93359375,0,0
-2.34419076150516E-05,-5.32976218892145E-06,1.93359375,0,0
-2.42843452724628E-05,-9.06236709852237E-06,1.93359375,0,0
-2.37474177993136E-05,-9.64748141996097E-06,1.93359375,0,0
-2.37642398133175E-05,-6.40690313957748E-06,1.93359375,0,0
-2.20328947762027E-05,-5.57535713596735E-06,1.93359375,0,0
-2.28149765462149E-05,-5.1376732699282E-06,1.93359375,0,0
-2.4086939447443E-05,-2.75164666163619E-06,1.93359375,0,0
-2.65437502093846E-05,1.6960053699222E-06,1.93359375,0,0
-2.7362186301616E-05,4.74028320240905E-06,1.93359375,0,0
-2.58275667874841E-05,4.35514311902807E-06,1.93359375,0,0
-1.94733966054628E-05,2.8836193450843E-06,1.93359375,0,0
-2.6485186026548E-05,2.19668027057196E-06,1.93359375,0,0
-1.84908622031799E-05,-1.80702826924062E-07,1.93359375,0,0
-2.33376722462708E-05,3.33897719428933E-06,1.93359375,0,0
-1.82100138772512E-05,7.18125238563516E-06,1.93359375,0,0
-1.97630288312212E-05,1.08424101199489E-05,1.93359375,0,0
-1.66612644534325E-05,9.68568201642483E-06,1.93359375,0,0
-1.72912714333506E-05,6.69402561470633E-06,1.93359375,0,0
-1.80273691512411E-05,7.64067772252019E-06,1.93359375,0,0
-1.97612625925103E-05,1.12876996354316E-05,1.93359375,0,0
-2.06534914468648E-05,1.29128984553972E-05,1.93359375,0,0
-2.04094922082732E-05,1.24230218716548E-05,1.93359375,0,0
-2.23276001634076E-05,1.2190779671073E-05,1.93359375,0,0
-2.16143034776906E-05,1.23917188830092E-05,1.93359375,0,0
-2.18757104448741E-05,1.37948363772011E-05,1.93359375,0,0
-2.01657239813358E-05,1.48816443470423E-05,1.93359375,0,0
-2.12182949326234E-05,1.74829310708446E-05,1.93359375,0,0
-2.11919941648375E-05,2.10305424843682E-05,1.93359375,0,0
-2.34770832321374E-05,2.25265757762827E-05,1.93359375,0,0
-2.28324643103406E-05,1.94190106412862E-05,1.93359375,0,0
-2.20300080400193E-05,1.4068462405703E-05,1.93359375,0,0
-1.94399035535753E-05,8.92454409040511E-06,1.93359375,0,0
-1.93687210412463E-05,7.01579892847803E-06,1.93359375,0,0
-2.07292305276496E-05,8.56106908031506E-06,1.93359375,0,0
-2.27777472900925E-05,1.06399638752919E-05,1.93359375,0,0
-2.42646601691376E-05,1.2255255569471E-05,1.93359375,0,0
-2.59942371485522E-05,1.47734799611499E-05,1.93359375,0,0
-2.32901275012409E-05,1.29094632939086E-05,1.93359375,0,0
-3.34742799168453E-05,1.81462619366357E-05,1.93359375,0,0
-2.49205659201834E-05,1.38573832373368E-05,1.93359375,0,0
-3.02645221381681E-05,1.75428504007868E-05,1.93359375,0,0
-2.67514460574603E-05,1.46307738759788E-05,1.93359375,0,0
-3.09374700009357E-05,1.76204612216679E-05,1.93359375,0,0
-2.96603411698015E-05,1.67575926752761E-05,1.93359375,0,0
-3.29671383951791E-05,1.63126460392959E-05,1.93359375,0,0
-3.41768500220496E-05,1.52036473082262E-05,1.93359375,0,0
-3.52215647581033E-05,1.54352037498029E-05,1.93359375,0,0
-3.56814016413409E-05,1.52462971527711E-05,1.93359375,0,0
-3.49157380696852E-05,1.34490301206824E-05,1.93359375,0,0
-3.5697034036275E-05,1.10754845081829E-05,1.93359375,0,0
-3.36381999659352E-05,7.84850908530643E-06,1.93359375,0,0
-3.29261310980655E-05,9.29201905819355E-06,1.93359375,0,0
-2.98439044854604E-05,1.03423681139247E-05,1.93359375,0,0
-2.9743696359219E-05,1.10594419311383E-05,1.93359375,0,0
-2.8073363864678E-05,8.70896019478096E-06,1.93359375,0,0
-2.92239856207743E-05,7.1895324254001E-06,1.93359375,0,0
-2.75253951258492E-05,6.72582655170118E-06,1.93359375,0,0
-2.6699504815042E-05,1.02584845080855E-05,1.93359375,0,0
-2.4389808459091E-05,1.34715355670778E-05,1.93359375,0,0
-2.32608326768968E-05,1.45428957694094E-05,1.93359375,0,0
-2.17208435060456E-05,1.44870327858371E-05,1.93359375,0,0
-2.14904412132455E-05,1.64717821462546E-05,1.93359375,0,0
-2.10145117307547E-05,1.67162870639004E-05,1.93359375,0,0
-2.23902552534128E-05,1.59083774633473E-05,1.93359375,0,0
-1.86723027582048E-05,1.21344437502557E-05,1.93359375,0,0
-2.57028132182313E-05,1.78645259438781E-05,1.93359375,0,0
-1.83205029316014E-05,1.62463220476639E-05,1.93359375,0,0
-2.27379969146568E-05,2.08891415240942E-05,1.93359375,0,0
-1.93105115613434E-05,1.7276470316574E-05,1.93359375,0,0
-2.24821524170693E-05,1.86260094778845E-05,1.93359375,0,0
-2.01019356609322E-05,1.71139436133672E-05,1.93359375,0,0
-2.04340703930939E-05,1.60392410180066E-05,1.93359375,0,0
-1.85836415766971E-05,1.48744884427288E-05,1.93359375,0,0
-1.77406764123589E-05,1.44830537465168E-05,1.93359375,0,0
-1.82221901923185E-05,1.39957483042963E-05,1.93359375,0,0
-1.82617859536549E-05,1.47363834912539E-05,1.93359375,0,0
-1.95716002053814E-05,1.70469920703908E-05,1.93359375,0,0
-1.87993609870318E-05,1.77675628947327E-05,1.93359375,0,0
-2.02895662368974E-05,1.83271022251574E-05,1.93359375,0,0
-2.03477484319592E-05,1.58916373038664E-05,1.93359375,0,0
-2.24741506826831E-05,1.4292088962975E-05,1.93359375,0,0
-2.25075255002594E-05,1.28183264678228E-05,1.93359375,0,0
-2.45810060732765E-05,1.34545844048262E-05,1.93359375,0,0
-2.47816024057101E-05,1.21294096970814E-05,1.93359375,0,0
-2.57674491876969E-05,1.05491917565814E-05,1.93359375,0,0
-2.55472241406096E-05,8.31261331768474E-06,1.93359375,0,0
-2.68678431893932E-05,8.23524624138372E-06,1.93359375,0,0
-2.70235959760612E-05,8.85666395333828E-06,1.93359375,0,0
-2.80510230368236E-05,9.61802925303346E-06,1.93359375,0,0
-2.8912041670992E-05,8.73800399858737E-06,1.93359375,0,0
-2.80554686469259E-05,8.09295579529135E-06,1.93359375,0,0
-2.19261946767801E-05,7.7915010479046E-06,1.93359375,0,0
-3.03595970763126E-05,1.27077519209706E-05,1.93359375,0,0
-2.21022692130646E-05,1.19328578875866E-05,1.93359375,0,0
-2.72878278337885E-05,1.49822890307405E-05,1.93359375,0,0
-2.20481142605422E-05,1.38321656777407E-05,1.93359375,0,0
-2.52945337706478E-05,1.46663096529664E-05,1.93359375,0,0
-2.38847660511965E-05,1.55809448187938E-05,1.93359375,0,0
-2.5332397854072E-05,1.66181507665897E-05,1.93359375,0,0
-2.31834928854369E-05,1.62064789037686E-05,1.93359375,0,0
-2.28275457629934E-05,1.45983058246202E-05,1.93359375,0,0
-2.37403182836715E-05,1.32774075609632E-05,1.93359375,0,0
-2.29787365242373E-05,1.42894596137921E-05,1.93359375,0,0
-2.31679350690683E-05,1.67146772582782E-05,1.93359375,0,0
-2.10372145375004E-05,1.55598027049564E-05,1.93359375,0,0
-2.17159285966773E-05,1.3221678273112E-05,1.93359375,0,0
-2.01122729777126E-05,1.28239535115426E-05,1.93359375,0,0
-2.09364916372579E-05,1.52857774082804E-05,1.93359375,0,0
-1.96276396309258E-05,1.61323059728602E-05,1.93359375,0,0
-2.02438513952075E-05,1.52125176100526E-05,1.93359375,0,0
-1.87319637916517E-05,1.17146591946948E-05,1.93359375,0,0
-2.01276288862573E-05,8.26553241495276E-06,1.93359375,0,0
-2.05360793188447E-05,6.22423249296844E-06,1.93359375,0,0
-2.2112340957392E-05,7.88070155977039E-06,1.93359375,0,0
-2.29451816267101E-05,1.13440801214892E-05,1.93359375,0,0
-2.42914757109247E-05,1.40942102007102E-05,1.93359375,0,0
-2.44182247115532E-05,1.46558631968219E-05,1.93359375,0,0
-2.42273526964709E-05,1.35088648676174E-05,1.93359375,0,0
-1.96174987650011E-05,9.65153503784677E-06,1.93359375,0,0
-2.79860796581488E-05,1.25713677334716E-05,1.93359375,0,0
-2.16931675822707E-05,9.37137701839674E-06,1.93359375,0,0
-2.64671525656013E-05,1.21578650578158E-05,1.93359375,0,0
-2.17623164644465E-05,7.93512572272448E-06,1.93359375,0,0
-2.44157999986783E-05,9.65688195719849E-06,1.93359375,0,0
-2.21572499867762E-05,1.04896034827107E-05,1.93359375,0,0
-2.33473310800036E-05,1.24823591249879E-05,1.93359375,0,0
-2.26742868107976E-05,1.19470732897753E-05,1.93359375,0,0
-2.25520652747946E-05,9.83743939286796E-06,1.93359375,0,0
-2.37065742112463E-05,7.34134710000944E-06,1.93359375,0,0
-2.43003905779915E-05,5.7426955208939E-06,1.93359375,0,0
-2.5333934900118E-05,5.37661117050448E-06,1.93359375,0,0
-2.33549399126787E-05,3.48314893017232E-06,1.93359375,0,0
-2.36164341913536E-05,4.2881615627266E-06,1.93359375,0,0
-2.3031207092572E-05,5.82011580263497E-06,1.93359375,0,0
-2.48849537456408E-05,8.45637077873107E-06,1.93359375,0,0
-2.34292310778983E-05,8.77651746122865E-06,1.93359375,0,0
-2.29055822273949E-05,9.47522767091868E-06,1.93359375,0,0
-2.16720982280094E-05,8.82817585079465E-06,1.93359375,0,0
-2.32043548749061E-05,9.54191364144208E-06,1.93359375,0,0
-2.40177541854791E-05,1.0242591088172E-05,1.93359375,0,0
-2.52771096711513E-05,1.13477399281692E-05,1.93359375,0,0
-2.48205469688401E-05,1.14550803118618E-05,1.93359375,0,0
-2.51104447670514E-05,1.00452516562655E-05,1.93359375,0,0
-2.4745811970206E-05,8.19640990812331E-06,1.93359375,0,0
-2.38272641581716E-05,7.32845319362241E-06,1.93359375,0,0
-1.86731303983834E-05,6.15013323113089E-06,1.93359375,0,0
-2.66224069491727E-05,9.99963049252983E-06,1.93359375,0,0
-2.01637303689495E-05,9.58116379479179E-06,1.93359375,0,0
-2.52690788329346E-05,9.42374208534602E-06,1.93359375,0,0
-2.25410767598078E-05,4.83255234939861E-06,1.93359375,0,0
-2.55954801104963E-05,6.08942173130345E-06,1.93359375,0,0
-2.3875572878751E-05,7.98030123405624E-06,1.93359375,0,0
-2.56044750130968E-05,8.08781624073163E-06,1.93359375,0,0
-2.62735538854031E-05,7.86447526479606E-06,1.93359375,0,0
-2.66380557150114E-05,8.35265473142499E-06,1.93359375,0,0
-2.60044798778836E-05,7.47731337469304E-06,1.93359375,0,0
-2.55034883593908E-05,5.4516744967259E-06,1.93359375,0,0
-2.79195628536399E-05,4.19468415202573E-06,1.93359375,0,0
-2.85320402326761E-05,4.37923699792009E-06,1.93359375,0,0
-2.89851213892689E-05,6.78151309330133E-06,1.93359375,0,0
-2.65941744146403E-05,7.71769828133984E-06,1.93359375,0,0
-2.72830420726677E-05,7.77245713834418E-06,1.93359375,0,0
-2.73690020549111E-05,6.53774668535334E-06,1.93359375,0,0
-2.9290713428054E-05,6.20714718024828E-06,1.93359375,0,0
-2.78938587143784E-05,7.44997214496834E-06,1.93359375,0,0
-2.67396153503796E-05,1.04999871837208E-05,1.93359375,0,0
-2.52915251621744E-05,1.17686558951391E-05,1.93359375,0,0
-2.60069737123558E-05,1.16856081149308E-05,1.93359375,0,0
-2.66456590907183E-05,1.16267729026731E-05,1.93359375,0,0
-2.84733814623905E-05,1.23808522403124E-05,1.93359375,0,0
-2.99116054520709E-05,1.13250562208123E-05,1.93359375,0,0
-2.87764833046822E-05,8.19120759842917E-06,1.93359375,0,0
-2.05643118533771E-05,6.40765392745379E-06,1.93359375,0,0
-2.7900185159524E-05,8.8213246272062E-06,1.93359375,0,0
-2.08734018087853E-05,6.18313652012148E-06,1.93359375,0,0
-2.79445848718751E-05,7.74929321778473E-06,1.93359375,0,0
-2.43262511503417E-05,5.95125584368361E-06,1.93359375,0,0
-2.72585511993384E-05,7.15571241016733E-06,1.93359375,0,0
-2.28239641728578E-05,7.99045210442273E-06,1.93359375,0,0
-2.15612399188103E-05,9.27219025470549E-06,1.93359375,0,0
-2.08909841603599E-05,9.22045819606865E-06,1.93359375,0,0
-2.32958554988727E-05,8.13890346762491E-06,1.93359375,0,0
-2.53367088589584E-05,7.91031197877601E-06,1.93359375,0,0
-2.44279726757668E-05,8.4097036960884E-06,1.93359375,0,0
-2.36338564718608E-05,9.39409892453114E-06,1.93359375,0,0
-2.05166033993009E-05,8.21468165668193E-06,1.93359375,0,0
-2.10498219530564E-05,7.47277863411E-06,1.93359375,0,0
-2.02153332793387E-05,6.77633352097473E-06,1.93359375,0,0
-2.19944686250528E-05,5.64390074941912E-06,1.93359375,0,0
-2.17734832403949E-05,2.97924202641298E-06,1.93359375,0,0
-2.38277352764271E-05,1.17955789846746E-06,1.93359375,0,0
-2.35167372011347E-05,1.17660727028124E-06,1.93359375,0,0
-2.40452336583985E-05,4.97034125146456E-06,1.93359375,0,0
-2.28585140575888E-05,8.58994098962285E-06,1.93359375,0,0
-2.38134962273762E-05,1.05371582321823E-05,1.93359375,0,0
-2.47121970460285E-05,1.06639417936094E-05,1.93359375,0,0
-2.55966533586616E-05,8.52335233503254E-06,1.93359375,0,0
-2.44691582338419E-05,5.26147323398618E-06,1.93359375,0,0
-2.29946417675819E-05,3.64890752280189E-06,1.93359375,0,0
-1.86689376278082E-05,4.77770390716614E-06,1.93359375,0,0
-2.62314079009229E-05,9.65304479905171E-06,1.93359375,0,0
-1.92086845345329E-05,1.06398520074436E-05,1.93359375,0,0
-2.42559326579794E-05,1.09869843072374E-05,1.93359375,0,0
-2.15398376894882E-05,1.08701242425013E-05,1.93359375,0,0
-2.52509089477826E-05,1.42898570629768E-05,1.93359375,0,0
-2.43932681769365E-05,1.493814670539E-05,1.93359375,0,0
-2.63545225607231E-05,1.28570482047508E-05,1.93359375,0,0
-2.65627204498742E-05,1.21453676911187E-05,1.93359375,0,0
-2.68566200247733E-05,1.29390182337374E-05,1.93359375,0,0
-2.60692177107558E-05,1.22226674648118E-05,1.93359375,0,0
-2.40929275605595E-05,1.08613912743749E-05,1.93359375,0,0
-2.5495619411231E-05,1.00194256447139E-05,1.93359375,0,0
-2.54837850661715E-05,9.81477751338389E-06,1.93359375,0,0
-2.6368725229986E-05,1.12383577288711E-05,1.93359375,0,0
-2.43153863266343E-05,1.25202695926419E-05,1.93359375,0,0
-2.41845482378267E-05,1.42011967909639E-05,1.93359375,0,0
-2.26813299377682E-05,1.57493705046363E-05,1.93359375,0,0
-2.28718326980015E-05,1.75977365870494E-05,1.93359375,0,0
-2.11411061172839E-05,1.85420703928685E-05,1.93359375,0,0
-2.04186344490154E-05,1.92881270777434E-05,1.93359375,0,0
-1.86059605766786E-05,1.96393684745999E-05,1.93359375,0,0
-1.82754265551921E-05,1.89119928108994E-05,1.93359375,0,0
-1.84155069291592E-05,1.60092404257739E-05,1.93359375,0,0
-2.00412468984723E-05,1.38681389216799E-05,1.93359375,0,0
-2.12925151572563E-05,1.4468048902927E-05,1.93359375,0,0
-2.26336032937979E-05,1.48559392982861E-05,1.93359375,0,0
-1.89327511179727E-05,1.01872019513394E-05,1.93359375,0,0
-2.45221544901142E-05,1.45398516906425E-05,1.93359375,0,0
-1.42915141623234E-05,1.21729271995719E-05,1.93359375,0,0
-1.84185682883253E-05,1.48869194163126E-05,1.93359375,0,0
-1.57793438120279E-05,1.18804973681108E-05,1.93359375,0,0
-2.00314934772905E-05,1.49488041643053E-05,1.93359375,0,0
-1.94691838260042E-05,1.43901925184764E-05,1.93359375,0,0
-2.18157674680697E-05,1.36548260343261E-05,1.93359375,0,0
-2.1811734768562E-05,1.20158483696287E-05,1.93359375,0,0
-2.15272793866461E-05,1.1650716260192E-05,1.93359375,0,0
-2.1723297322751E-05,1.08948042907286E-05,1.93359375,0,0
-2.1786992874695E-05,1.00397792266449E-05,1.93359375,0,0
-2.2884487407282E-05,1.0036750609288E-05,1.93359375,0,0
-2.10150101338513E-05,9.15634518605657E-06,1.93359375,0,0
-2.0926296201651E-05,1.06251809484093E-05,1.93359375,0,0
-1.92066345334752E-05,1.13331552711315E-05,1.93359375,0,0
-2.01669281523209E-05,1.34246784000425E-05,1.93359375,0,0
-2.04261141334428E-05,1.45843087011599E-05,1.93359375,0,0
-2.27943619393045E-05,1.53526780195534E-05,1.93359375,0,0
-2.19067296711728E-05,1.20463137136539E-05,1.93359375,0,0
-2.21865702769719E-05,8.252628504124E-06,1.93359375,0,0
-2.20360361709027E-05,5.38440599484602E-06,1.93359375,0,0
-2.3160351702245E-05,5.43579290024354E-06,1.93359375,0,0
-2.30973564612214E-05,5.96695599597297E-06,1.93359375,0,0
-2.24921950575663E-05,6.81641131450306E-06,1.93359375,0,0
-2.20051442738622E-05,6.10032066106214E-06,1.93359375,0,0
-2.32731817959575E-05,4.77996763947885E-06,1.93359375,0,0
-1.93385876627872E-05,5.20427511219168E-06,1.93359375,0,0
-2.6552888812148E-05,9.0307830760139E-06,1.93359375,0,0
-1.96130858967081E-05,9.00473060028162E-06,1.93359375,0,0
-2.55003778875107E-05,9.84662347036647E-06,1.93359375,0,0
-2.11829428735655E-05,8.12838334240951E-06,1.93359375,0,0
-2.31133853958454E-05,9.30026908463333E-06,1.93359375,0,0
-2.0207397028571E-05,9.79008837020956E-06,2.109375,0,0
-2.08228793781018E-05,9.47524040384451E-06,2.109375,0,0
-1.99873793462757E-05,9.7280881163897E-06,2.109375,0,0
-2.04148545890348E-05,1.106440777221E-05,2.109375,0,0
-2.21494192373939E-05,1.15135126179666E-05,2.109375,0,0
-2.24442192120478E-05,1.01163277577143E-05,2.109375,0,0
-2.29304532695096E-05,8.47811679705046E-06,2.109375,0,0
-2.13748044188833E-05,5.62492368771927E-06,2.109375,0,0
-2.29172947001643E-05,4.73750378660043E-06,2.109375,0,0
-2.30465975619154E-05,5.65426898901933E-06,2.109375,0,0
-2.52533263846999E-05,6.62155389363761E-06,2.109375,0,0
-2.39973396674031E-05,5.65855634704349E-06,2.109375,0,0
-2.36889445659472E-05,5.57529119760147E-06,2.109375,0,0
-2.33181835938012E-05,6.24921449343674E-06,2.109375,0,0
-2.63349993474549E-05,6.58565340927453E-06,2.109375,0,0
-2.78260977211175E-05,6.87804731569486E-06,2.109375,0,0
-2.88479113805806E-05,7.41874691811972E-06,2.109375,0,0
-2.74315862043295E-05,6.62763477521366E-06,2.109375,0,0
-2.64274531218689E-05,6.17641262579127E-06,2.109375,0,0
-2.61537061305717E-05,6.55881240163581E-06,2.109375,0,0
-2.58691816270584E-05,6.52555854685488E-06,2.109375,0,0
-2.02911760425195E-05,6.12885287409881E-06,2.109375,0,0
-2.83030749415047E-05,1.05475992313586E-05,2.109375,0,0
-2.19757930608466E-05,1.18411517178174E-05,2.109375,0,0
-2.90974330710014E-05,1.46159982250538E-05,2.109375,0,0
-2.57788778981194E-05,1.05532944871811E-05,2.109375,0,0
-2.94119163299911E-05,8.25393271952635E-06,2.109375,0,0
-2.81257962342352E-05,7.3019009505515E-06,2.109375,0,0
-3.10030482069124E-05,8.88232443685411E-06,2.109375,0,0
-3.2112486223923E-05,1.11906010715757E-05,2.109375,0,0
-3.28150345012546E-05,1.28180945466738E-05,2.109375,0,0
-3.24905777233653E-05,1.36754724735511E-05,2.109375,0,0
-3.09367933368776E-05,1.43326051329495E-05,2.109375,0,0
-3.26714980474208E-05,1.46050251714769E-05,2.109375,0,0
-3.20759099849965E-05,1.2168138709967E-05,2.109375,0,0
-3.25866822095122E-05,1.00581892183982E-05,2.109375,0,0
-3.16149671562016E-05,1.04952359833987E-05,2.109375,0,0
-3.31407463818323E-05,1.35233194669127E-05,2.109375,0,0
-3.12182783090975E-05,1.54455447045621E-05,2.109375,0,0
-3.02488042507321E-05,1.64005014084978E-05,2.109375,0,0
-2.82740493275924E-05,1.57430167746497E-05,2.109375,0,0
-2.88016653939849E-05,1.56521273311228E-05,2.109375,0,0
-2.79018422588706E-05,1.67716716532595E-05,2.109375,0,0
-2.79482810583431E-05,1.86490742635215E-05,2.109375,0,0
-2.68615749519086E-05,1.88023477676325E-05,2.109375,0,0
-2.61216573562706E-05,1.66319059644593E-05,2.109375,0,0
-2.56318562605884E-05,1.4410596122616E-05,2.109375,0,0
-2.52275840466609E-05,1.38434115797281E-05,2.109375,0,0
-1.90696882782504E-05,1.129522206611E-05,2.109375,0,0
-2.48478754656389E-05,1.58028069563443E-05,2.109375,0,0
-1.61464577104198E-05,1.14770846266765E-05,2.109375,0,0
-2.1261101210257E-05,1.2308942132222E-05,2.109375,0,0
-1.63277527462924E-05,7.68623704061611E-06,2.109375,0,0
-1.78076188603882E-05,1.0021767593571E-05,2.109375,0,0
-1.50579116962035E-05,9.79456217464758E-06,2.109375,0,0
-1.51974873006111E-05,1.07369160105009E-05,2.109375,0,0
-1.2907537893625E-05,1.12877296487568E-05,2.109375,0,0
-1.19393625936937E-05,1.23688732855953E-05,2.109375,0,0
-1.24545522339758E-05,1.20439117381466E-05,2.109375,0,0
-1.21156681416323E-05,1.01643590824096E-05,2.109375,0,0
-1.27574394355179E-05,9.19082140171668E-06,2.109375,0,0
-1.1678593182296E-05,7.71193845139351E-06,2.109375,0,0
-1.40439988172147E-05,9.86372742772801E-06,2.109375,0,0
-1.52596439875197E-05,1.2940983651788E-05,2.109375,0,0
-1.84237615030725E-05,1.73665084730601E-05,2.109375,0,0
-1.85552835318958E-05,1.80300794454524E-05,2.109375,0,0
-1.96498731384054E-05,1.74055676325224E-05,2.109375,0,0
-1.86917059181724E-05,1.52362072185497E-05,2.109375,0,0
-1.97853278223192E-05,1.50488358485745E-05,2.109375,0,0
-2.01458060473669E-05,1.57767317432445E-05,2.109375,0,0
-2.14739175135037E-05,1.7155191017082E-05,2.109375,0,0
-2.22860398935154E-05,1.59363862621831E-05,2.109375,0,0
-2.41172128880862E-05,1.38473587867338E-05,2.109375,0,0
-2.59327480307547E-05,1.37963961606147E-05,2.109375,0,0
-2.78281131613767E-05,1.50554678839399E-05,2.109375,0,0
-2.35559364227811E-05,1.07567229861161E-05,2.109375,0,0
-3.29489157593343E-05,1.38420355142443E-05,2.109375,0,0
