biceps_emg, triceps_emg, subject_position, position_estimate, brace_position
-2.72309462161502E-05,7.92123955761781E-06,2.109375,0,0
-2.78118222922785E-05,8.83255870576249E-06,2.109375,0,0
-2.69071315415204E-05,1.01365976661327E-05,2.109375,0,0
-2.44929069594946E-05,1.18891384772724E-05,2.109375,0,0
-2.4635102818138E-05,1.27924213302322E-05,2.109375,0,0
-2.26175998250255E-05,1.17251875053626E-05,2.109375,0,0
-2.22204926103586E-05,1.02773847174831E-05,2.109375,0,0
-1.95439170056488E-05,1.10073960968293E-05,2.109375,0,0
-2.07816046895459E-05,1.41307937155943E-05,2.109375,0,0
-2.20628317038063E-05,1.61428361025173E-05,2.109375,0,0
-2.58105337707093E-05,1.58120474225143E-05,2.109375,0,0
-2.57901592704002E-05,1.48827048178646E-05,2.109375,0,0
-2.66936349362368E-05,1.35145091917366E-05,2.109375,0,0
-2.69169540842995E-05,1.23122399600106E-05,2.109375,0,0
-2.85856167465681E-05,1.0965927685902E-05,2.109375,0,0
-2.90279804175952E-05,9.16927365324227E-06,2.109375,0,0
-3.01857962767826E-05,7.74237742007244E-06,2.109375,0,0
-3.06808506138623E-05,5.30743272975087E-06,2.109375,0,0
-2.98061331704957E-05,1.8373766579316E-06,2.109375,0,0
-2.35592015087605E-05,-6.78709966450697E-07,2.109375,0,0
-3.28144378727302E-05,-1.78124679450775E-07,2.109375,0,0
-2.35553434322355E-05,5.21398260389105E-06,2.109375,0,0
-2.88879818981513E-05,1.06750176200876E-05,2.109375,0,0
-2.39598939515417E-05,1.08955609903205E-05,2.109375,0,0
-2.74750036624027E-05,9.32369312067749E-06,2.109375,0,0
-2.50632128881989E-05,8.43526413518703E-06,2.109375,0,0
-2.5942954380298E-05,8.50518154038582E-06,2.109375,0,0
-2.37941640079953E-05,1.04134596767835E-05,2.109375,0,0
-2.17566885112319E-05,1.20474514915259E-05,2.109375,0,0
-1.966095987882E-05,1.06521083580446E-05,2.109375,0,0
-1.76004286913667E-05,9.84243888524361E-06,2.109375,0,0
-1.82695021067047E-05,1.21386965474812E-05,2.109375,0,0
-1.71446354215732E-05,1.3614555427921E-05,2.109375,0,0
-1.84772452485049E-05,1.27699559016037E-05,2.109375,0,0
-1.65557958098361E-05,1.15557049866766E-05,2.109375,0,0
-1.66146128321998E-05,1.00535899036913E-05,2.109375,0,0
-1.42928256536834E-05,7.77342756919097E-06,2.109375,0,0
-1.55762772919843E-05,7.04278227203758E-06,2.109375,0,0
-1.61466778081376E-05,9.13927578949369E-06,2.109375,0,0
-1.83483189175604E-05,1.10444752863259E-05,2.109375,0,0
-1.72282434505178E-05,1.03275542642223E-05,2.109375,0,0
-1.68622336786939E-05,8.53637720865663E-06,2.109375,0,0
-1.63181885000085E-05,7.73748524807161E-06,2.109375,0,0
-1.68711740116123E-05,9.02713236428099E-06,2.109375,0,0
-1.7090778783313E-05,1.24067855722387E-05,2.109375,0,0
-1.73919725057203E-05,1.57141785166459E-05,2.109375,0,0
-1.40567963171634E-05,1.2352094927337E-05,2.109375,0,0
-2.0951745682396E-05,1.71230676642153E-05,2.109375,0,0
-1.70018956850981E-05,1.52755910676206E-05,2.109375,0,0
-1.87558034667745E-05,2.09572353924159E-05,2.109375,0,0
-1.33869580167811E-05,1.5605241060257E-05,2.109375,0,0
-1.45361454997328E-05,1.54864901560359E-05,2.109375,0,0
-1.42559993037139E-05,1.4567410289601E-05,2.109375,0,0
-1.69435006682761E-05,1.67289435921703E-05,2.109375,0,0
-1.81177929334808E-05,1.75315217347816E-05,2.109375,0,0
-1.94788462977158E-05,1.81476843863493E-05,2.109375,0,0
-2.10663056350313E-05,1.77964866452385E-05,2.109375,0,0
-2.08712808671407E-05,1.66717527463334E-05,2.109375,0,0
-2.04758307518205E-05,1.48907229231554E-05,2.109375,0,0
-1.89879865502007E-05,1.10494111140724E-05,2.109375,0,0
-2.06576623895671E-05,9.53964627115056E-06,2.109375,0,0
-2.12844934139866E-05,7.79970105213579E-06,2.109375,0,0
-2.26033243961865E-05,8.81248433870496E-06,2.109375,0,0
-2.10967245948268E-05,9.53415201365715E-06,2.109375,0,0
-1.93336109077791E-05,1.27151724882424E-05,2.109375,0,0
-1.66321005963255E-05,1.52125094246003E-05,2.109375,0,0
-1.66124245879473E-05,1.84005402843468E-05,2.109375,0,0
-1.68596943694865E-05,1.93101332115475E-05,2.109375,0,0
-1.78112259163754E-05,1.9787652490777E-05,2.109375,0,0
-1.82842031790642E-05,1.75752575160004E-05,2.109375,0,0
-1.91871913557407E-05,1.47623668453889E-05,2.109375,0,0
-1.87432287930278E-05,1.33558978632209E-05,2.109375,0,0
-1.76173634827137E-05,1.46452084663906E-05,2.109375,0,0
-1.36160970214405E-05,1.34840074679232E-05,2.109375,0,0
-1.98780144273769E-05,1.9414506823523E-05,2.109375,0,0
-1.61430234584259E-05,1.5876314137131E-05,2.109375,0,0
-2.05113992706174E-05,1.80857641680632E-05,2.109375,0,0
-1.98869656742318E-05,1.04354885479552E-05,2.109375,0,0
-2.53214166150428E-05,8.76948433869984E-06,2.109375,0,0
-2.60722172242822E-05,7.07632943885983E-06,2.109375,0,0
-2.80352323898114E-05,9.37056120164925E-06,2.109375,0,0
-2.93153316306416E-05,1.05607132354635E-05,2.109375,0,0
-3.0850940675009E-05,1.15807088150177E-05,2.109375,0,0
-3.1128765840549E-05,1.12391526272404E-05,2.109375,0,0
-3.01907930406742E-05,8.79259187058778E-06,2.109375,0,0
-3.13155178446323E-05,8.6015634224168E-06,2.109375,0,0
-3.13646378344856E-05,9.35032949200831E-06,2.109375,0,0
-3.17021767841652E-05,1.16337059807847E-05,2.109375,0,0
-3.03086562780663E-05,1.02968760984368E-05,2.109375,0,0
-3.10023970087059E-05,8.73865610628854E-06,2.109375,0,0
-3.03450469800737E-05,7.07405024513719E-06,2.109375,0,0
-3.01023919746513E-05,9.76195406110492E-06,2.109375,0,0
-2.78744228126016E-05,1.1009123227268E-05,2.109375,0,0
-2.67021277977619E-05,1.06202160168323E-05,2.109375,0,0
-2.58662657870445E-05,8.91878335096408E-06,2.109375,0,0
-2.70409127551829E-05,9.04442913451931E-06,2.109375,0,0
-2.68235689873109E-05,7.89449131843867E-06,2.109375,0,0
-2.53999296546681E-05,5.56529403183958E-06,2.109375,0,0
-2.38754382735351E-05,5.26227995578665E-06,2.109375,0,0
-2.49597269430524E-05,9.8887057902175E-06,2.109375,0,0
-2.31307785725221E-05,1.10405107989209E-05,2.109375,0,0
-3.33040043187793E-05,1.47407927215681E-05,2.109375,0,0
-2.4117603970808E-05,9.61202840699116E-06,2.109375,0,0
-2.86737940768944E-05,1.19343058031518E-05,2.109375,0,0
-2.46045128733385E-05,8.91609306563623E-06,2.109375,0,0
-2.91971718979767E-05,1.02563371910946E-05,2.109375,0,0
-2.92949443974067E-05,8.21863613964524E-06,2.109375,0,0
-3.24687753163744E-05,6.20353739577695E-06,2.109375,0,0
-3.15401448460761E-05,5.31801788383746E-06,2.109375,0,0
-3.0359562515514E-05,7.63012758397963E-06,2.109375,0,0
-3.05722787743434E-05,1.07479527287069E-05,2.109375,0,0
-3.11357980535831E-05,1.17832314572297E-05,2.109375,0,0
-3.29131034959573E-05,1.28924057207769E-05,2.109375,0,0
-3.16035111609381E-05,1.37293827719986E-05,2.109375,0,0
-3.29651084030047E-05,1.5475861800951E-05,2.109375,0,0
-3.28487731167115E-05,1.44786235978245E-05,2.109375,0,0
-3.49255278706551E-05,1.3833942830388E-05,2.109375,0,0
-3.40737642545719E-05,1.18316038424382E-05,2.109375,0,0
-3.54180556314532E-05,1.14678814497893E-05,2.109375,0,0
-3.48135727108456E-05,1.09615493784077E-05,2.109375,0,0
-3.48304856743198E-05,9.84671987680485E-06,2.109375,0,0
-3.18558995786589E-05,7.22581035006442E-06,2.109375,0,0
-3.01569580187788E-05,6.73589966027066E-06,2.109375,0,0
-2.83095141639933E-05,7.13870349500212E-06,2.109375,0,0
-2.73449732048903E-05,7.91253751231125E-06,2.109375,0,0
-2.66646275122184E-05,9.35756270337151E-06,2.109375,0,0
-2.69561605819035E-05,1.06032784970012E-05,2.109375,0,0
-2.09745285246754E-05,6.95447488396894E-06,2.109375,0,0
-2.84792131424183E-05,6.96603274263907E-06,2.109375,0,0
-2.01782131625805E-05,2.19320554606384E-06,2.109375,0,0
-2.49746772169601E-05,5.45442480870406E-06,2.109375,0,0
-1.95842530956725E-05,4.52089125246857E-06,2.109375,0,0
-2.16494827327551E-05,6.971177754167E-06,2.109375,0,0
-1.71042447618674E-05,9.13926032808376E-06,2.109375,0,0
-1.61910775204888E-05,1.31800097733503E-05,2.109375,0,0
-1.41345126394299E-05,1.45540188896121E-05,2.109375,0,0
-1.37532952066977E-05,1.09684715425828E-05,2.109375,0,0
-1.34352003442473E-05,7.71249506215099E-06,2.109375,0,0
-1.17370682346518E-05,9.35455773287686E-06,2.109375,0,0
-1.32642098833458E-05,1.49036141010583E-05,2.109375,0,0
-1.43381093948847E-05,1.782713115972E-05,2.109375,0,0
-1.63397944561439E-05,1.87764107977273E-05,2.109375,0,0
-1.36545759232831E-05,1.86874549399363E-05,2.109375,0,0
-1.36520666274009E-05,1.96173623407958E-05,2.109375,0,0
-1.30765729409177E-05,1.89720576599939E-05,2.109375,0,0
-1.50480773299932E-05,1.93085088540101E-05,2.109375,0,0
-1.43322440635529E-05,1.99277747015003E-05,2.109375,0,0
-1.57847516675247E-05,2.13671592064202E-05,2.109375,0,0
-1.69920404005097E-05,2.26828215090791E-05,2.109375,0,0
-1.96396795217879E-05,2.34709787036991E-05,2.109375,0,0
-1.99942824110622E-05,2.09783665923169E-05,2.109375,0,0
-1.88878675544402E-05,1.58394122991012E-05,2.109375,0,0
-1.81955383595778E-05,9.87461316981353E-06,2.109375,0,0
-1.89230413525365E-05,5.28221426066011E-06,2.109375,0,0
-1.59604078362463E-05,4.09923768529552E-06,2.109375,0,0
-2.32673246500781E-05,6.57875943943509E-06,2.109375,0,0
-1.98866964638E-05,4.70017903353437E-06,2.109375,0,0
-2.6107902158401E-05,3.61230490852904E-06,2.109375,0,0
-2.27133878070163E-05,2.0223615138093E-06,2.109375,0,0
-2.25551248149714E-05,2.82487258118636E-06,2.109375,0,0
-1.87007917702431E-05,4.27329268859467E-06,2.109375,0,0
-1.86959296115674E-05,7.42509246265399E-06,2.109375,0,0
-1.98521702259313E-05,9.9934559329995E-06,2.109375,0,0
-2.22004146053223E-05,1.12901680040522E-05,2.109375,0,0
-2.27482869377127E-05,1.12829147838056E-05,2.109375,0,0
-2.20075926335994E-05,9.8551545306691E-06,2.109375,0,0
-2.40135304920841E-05,7.90129979577614E-06,2.109375,0,0
-2.5437337171752E-05,7.4573354140739E-06,2.109375,0,0
-2.75731272267876E-05,1.01355653896462E-05,2.109375,0,0
-2.62018202192849E-05,1.2210193744977E-05,2.28515625,0,0
-2.51659657806158E-05,1.31686556414934E-05,2.28515625,0,0
-2.31846734095598E-05,1.2465326108213E-05,2.28515625,0,0
-2.49169006565353E-05,1.07846863102168E-05,2.28515625,0,0
-2.64981954387622E-05,8.6005347839091E-06,2.28515625,0,0
-2.93816847261041E-05,7.71654595155269E-06,2.28515625,0,0
-3.13685995934065E-05,8.08660024631536E-06,2.28515625,0,0
-3.40166261594277E-05,9.10703874978935E-06,2.28515625,0,0
-3.35868826368824E-05,7.43867212804616E-06,2.28515625,0,0
-3.08458329527639E-05,5.95650089962874E-06,2.28515625,0,0
-2.81620905298041E-05,8.12354846857488E-06,2.28515625,0,0
-2.59581247519236E-05,1.03901993497857E-05,2.28515625,0,0
-2.0973706341465E-05,8.83074153534835E-06,2.28515625,0,0
-2.96604612231022E-05,1.20712702482706E-05,2.28515625,0,0
-2.05089145310922E-05,9.18465502763866E-06,2.28515625,0,0
-2.36340365518117E-05,1.27672128655831E-05,2.28515625,0,0
-1.89745223906357E-05,1.23299741972005E-05,2.28515625,0,0
-2.1758289221907E-05,1.62966480274918E-05,2.28515625,0,0
-1.87104342330713E-05,1.75754121300997E-05,2.28515625,0,0
-1.84966993401758E-05,1.90882965398487E-05,2.28515625,0,0
-1.77568235812942E-05,1.99562400666764E-05,2.28515625,0,0
-1.81695104402024E-05,2.10309881367721E-05,2.28515625,0,0
-1.81902487383923E-05,2.08972705877386E-05,2.28515625,0,0
-1.67484558915021E-05,1.93142750504194E-05,2.28515625,0,0
-1.66275221999967E-05,1.78475238499232E-05,2.28515625,0,0
-1.55823436216451E-05,1.59328974405071E-05,2.28515625,0,0
-1.76488629222149E-05,1.58996790560195E-05,2.28515625,0,0
-1.6762451195973E-05,1.43463039421476E-05,2.28515625,0,0
-1.74087708728621E-05,1.25267652038019E-05,2.28515625,0,0
-1.70257771969773E-05,9.28232111618854E-06,2.28515625,0,0
-1.97771914827172E-05,6.97574660080136E-06,2.28515625,0,0
-2.00434660655446E-05,5.22277287018369E-06,2.28515625,0,0
-2.02248666028026E-05,7.61821411288111E-06,2.28515625,0,0
-1.87516325240722E-05,1.20353879538015E-05,2.28515625,0,0
-1.90387345355703E-05,1.35462487378391E-05,2.28515625,0,0
-2.04999068955658E-05,7.54818029236048E-06,2.28515625,0,0
-2.43160793615971E-05,2.14792152064547E-07,2.28515625,0,0
-2.62520679825684E-05,-3.67420943803154E-06,2.28515625,0,0
-2.62371086137136E-05,-3.28910937241744E-06,2.28515625,0,0
-2.05697706405772E-05,9.91840693131962E-07,2.28515625,0,0
-2.97366077575134E-05,6.04947354077012E-06,2.28515625,0,0
-2.31696612900123E-05,1.11060244307737E-05,2.28515625,0,0
-2.83800236502429E-05,9.89832369668875E-06,2.28515625,0,0
-2.45032424572855E-05,7.00667033015634E-06,2.28515625,0,0
-2.81807442661375E-05,7.48604770706152E-06,2.28515625,0,0
-2.64285044977441E-05,1.00964371085865E-05,2.28515625,0,0
-2.76087121164892E-05,1.06934649011237E-05,2.28515625,0,0
-2.81139400613029E-05,1.10816345113562E-05,2.28515625,0,0
-3.01343134196941E-05,1.05847830127459E-05,2.28515625,0,0
-3.13176751660649E-05,9.70677774603246E-06,2.28515625,0,0
-3.0012082788744E-05,8.58503881318029E-06,2.28515625,0,0
-2.93363482342102E-05,7.24935216567246E-06,2.28515625,0,0
-2.69180745817721E-05,7.2925890890474E-06,2.28515625,0,0
-2.76103055512067E-05,9.34479885472683E-06,2.28515625,0,0
-2.67906852968736E-05,1.16616538434755E-05,2.28515625,0,0
-2.78499337582616E-05,1.14851700345753E-05,2.28515625,0,0
-2.6944884666591E-05,9.3570433818968E-06,2.28515625,0,0
-2.87492130155442E-05,7.7128588600317E-06,2.28515625,0,0
-2.8968372134841E-05,7.4195045272063E-06,2.28515625,0,0
-3.03422093566041E-05,6.95502149028471E-06,2.28515625,0,0
-2.97446367767407E-05,6.04922070124303E-06,2.28515625,0,0
-2.98518571071327E-05,4.27414443038288E-06,2.28515625,0,0
-2.87906605080934E-05,2.4197631773859E-06,2.28515625,0,0
-2.65636681433534E-05,1.31801562019973E-06,2.28515625,0,0
-2.26491338253254E-05,2.77866411124705E-06,2.28515625,0,0
-2.0084382413188E-05,5.4501106205862E-06,2.28515625,0,0
-1.56787373271072E-05,4.60638648291933E-06,2.28515625,0,0
-2.19693829421885E-05,4.10319125876413E-06,2.28515625,0,0
-1.71071278600721E-05,2.25263738684589E-06,2.28515625,0,0
-2.13032017200021E-05,7.77255536377197E-06,2.28515625,0,0
-1.69117811310571E-05,8.38008963910397E-06,2.28515625,0,0
-1.7749745893525E-05,8.38941559777595E-06,2.28515625,0,0
-1.50283940456575E-05,7.63977277529193E-06,2.28515625,0,0
-1.64048360602465E-05,8.58502517075976E-06,2.28515625,0,0
-1.75443437910872E-05,9.12739051273093E-06,2.28515625,0,0
-1.94526328414213E-05,1.18368989205919E-05,2.28515625,0,0
-2.20947313209763E-05,1.32789273266098E-05,2.28515625,0,0
-2.39621513173915E-05,1.18894458864816E-05,2.28515625,0,0
-2.56222538155271E-05,1.13637570393621E-05,2.28515625,0,0
-2.53531416092301E-05,1.22575456771301E-05,2.28515625,0,0
-2.76362625299953E-05,1.48124800034566E-05,2.28515625,0,0
-2.84727102553006E-05,1.65294877660926E-05,2.28515625,0,0
-3.0744125979254E-05,1.70220173458802E-05,2.28515625,0,0
-3.13209093292244E-05,1.5018606063677E-05,2.28515625,0,0
-3.26413282891735E-05,1.47059254231863E-05,2.28515625,0,0
-3.17158592224587E-05,1.36144499265356E-05,2.28515625,0,0
-3.28150381392334E-05,1.02557314676233E-05,2.28515625,0,0
-3.30436523654498E-05,5.88710599913611E-06,2.28515625,0,0
-3.30339971696958E-05,5.42378484169603E-06,2.28515625,0,0
-3.21735569741577E-05,8.01823352958309E-06,2.28515625,0,0
-3.36436205543578E-05,1.15546854431159E-05,2.28515625,0,0
-3.47256100212689E-05,1.38499481181498E-05,2.28515625,0,0
-3.39820544468239E-05,1.29488580569159E-05,2.28515625,0,0
-2.62549656326883E-05,8.44014266476734E-06,2.28515625,0,0
-3.6581426684279E-05,1.35786985993036E-05,2.28515625,0,0
-2.70451237156522E-05,1.40880492836004E-05,2.28515625,0,0
-3.5391618439462E-05,1.78746959136333E-05,2.28515625,0,0
-3.0814695492154E-05,1.52254106069449E-05,2.28515625,0,0
-3.37241581291892E-05,1.53794571815524E-05,2.28515625,0,0
-2.98559916700469E-05,1.40263909997884E-05,2.28515625,0,0
-3.12097618007101E-05,1.54655535880011E-05,2.28515625,0,0
-3.18828206218313E-05,1.75215791387018E-05,2.28515625,0,0
-3.36172670358792E-05,1.85648350452539E-05,2.28515625,0,0
-3.35847798851319E-05,1.75705663423287E-05,2.28515625,0,0
-3.10065297526307E-05,1.52374295794289E-05,2.28515625,0,0
-3.08975249936339E-05,1.23699901450891E-05,2.28515625,0,0
-2.9327553420444E-05,6.51449863653397E-06,2.28515625,0,0
-3.02965690934798E-05,9.44324142437836E-07,2.28515625,0,0
-2.85355999949388E-05,-6.85767702179874E-07,2.28515625,0,0
-2.91901469609002E-05,3.77587343791674E-06,2.28515625,0,0
-2.60688848356949E-05,6.89816079102457E-06,2.28515625,0,0
-2.56006096606143E-05,7.94612424215302E-06,2.28515625,0,0
-2.42642745433841E-05,7.69648795539979E-06,2.28515625,0,0
-2.55588656727923E-05,9.89684212981956E-06,2.28515625,0,0
-2.36351934290724E-05,1.25316610137816E-05,2.28515625,0,0
-2.18319291889202E-05,1.38712321131607E-05,2.28515625,0,0
-1.85195731319254E-05,1.28613919514464E-05,2.28515625,0,0
-1.6565058103879E-05,1.20266595331486E-05,2.28515625,0,0
-1.6181427781703E-05,1.22132332762703E-05,2.28515625,0,0
-1.7496662621852E-05,1.31626829897868E-05,2.28515625,0,0
-1.46096708704135E-05,1.1843922038679E-05,2.28515625,0,0
-1.85584449354792E-05,1.64401262736646E-05,2.28515625,0,0
-1.25185470096767E-05,9.85753285931423E-06,2.28515625,0,0
-1.75542645592941E-05,9.01881503523327E-06,2.28515625,0,0
-1.50065388879739E-05,3.70439101970987E-06,2.28515625,0,0
-1.68408314493718E-05,4.38813685832429E-06,2.28515625,0,0
-1.53530309034977E-05,4.25680991611443E-06,2.28515625,0,0
-1.71209867403377E-05,6.93763013259741E-06,2.28515625,0,0
-1.66210047609638E-05,8.80970401340164E-06,2.28515625,0,0
-1.60002546181204E-05,1.00014813142479E-05,2.28515625,0,0
-1.62178730533924E-05,1.03723978099879E-05,2.28515625,0,0
-1.68245042004855E-05,9.94835681922268E-06,2.28515625,0,0
-1.83952397492249E-05,1.02550702649751E-05,2.28515625,0,0
-1.80120605364209E-05,9.89326144917868E-06,2.28515625,0,0
-1.92088991752826E-05,1.1664930752886E-05,2.28515625,0,0
-1.84479813469807E-05,1.15065686259186E-05,2.28515625,0,0
-1.9638517187559E-05,9.98389623418916E-06,2.28515625,0,0
-1.97488443518523E-05,7.48112870496698E-06,2.28515625,0,0
-2.10981233976781E-05,8.73448243510211E-06,2.28515625,0,0
-2.00925642275251E-05,9.40319205255946E-06,2.28515625,0,0
-2.07471184694441E-05,8.74897978064837E-06,2.28515625,0,0
-2.15755389945116E-05,5.8073296713701E-06,2.28515625,0,0
-2.35412753681885E-05,4.56032785223215E-06,2.28515625,0,0
-2.38329739659093E-05,3.810577936747E-06,2.28515625,0,0
-2.39642304222798E-05,3.63722574547865E-06,2.28515625,0,0
-2.40722092712531E-05,4.27056966145756E-06,2.28515625,0,0
-2.61407949437853E-05,5.01175372846774E-06,2.28515625,0,0
-2.25941475946456E-05,3.42448015544505E-06,2.28515625,0,0
-3.17351987177972E-05,3.50227833223471E-06,2.28515625,0,0
-2.47905027208617E-05,1.5453833839274E-06,2.28515625,0,0
-3.22013438562863E-05,4.1530915950716E-06,2.28515625,0,0
-2.73835848929593E-05,5.20393859915202E-06,2.28515625,0,0
-3.0220744520193E-05,7.80480968387565E-06,2.28515625,0,0
-2.77857361652423E-05,8.22695255919825E-06,2.28515625,0,0
-2.88085648207925E-05,8.36569688544841E-06,2.28515625,0,0
-2.76162245427258E-05,1.07042214949615E-05,2.28515625,0,0
-2.78100269497372E-05,1.29320642372477E-05,2.28515625,0,0
-2.86623417196097E-05,1.41086993608042E-05,2.28515625,0,0
-2.84427806036547E-05,1.55635225382866E-05,2.28515625,0,0
-2.9040496883681E-05,1.7772526916815E-05,2.28515625,0,0
-2.67667637672275E-05,1.81151244760258E-05,2.28515625,0,0
-2.77275212283712E-05,1.8557853763923E-05,2.28515625,0,0
-2.75111833616393E-05,1.89177299034782E-05,2.28515625,0,0
-2.91299365926534E-05,1.91670060303295E-05,2.28515625,0,0
-2.64886239165207E-05,1.88516696653096E-05,2.28515625,0,0
-2.61487803072669E-05,1.88154735951684E-05,2.28515625,0,0
-2.5286497475463E-05,1.81915929715615E-05,2.28515625,0,0
-2.75539696303895E-05,1.69799168361351E-05,2.28515625,0,0
-2.81242519122316E-05,1.61568805197021E-05,2.28515625,0,0
-2.90965454041725E-05,1.60255185619462E-05,2.28515625,0,0
-2.89601666736417E-05,1.57096055772854E-05,2.28515625,0,0
-2.97572350973496E-05,1.45052044899785E-05,2.28515625,0,0
-3.01272866636282E-05,1.25238029795582E-05,2.28515625,0,0
-2.94900091830641E-05,1.02414469438372E-05,2.28515625,0,0
-2.24719078687485E-05,7.35696448828094E-06,2.28515625,0,0
-3.10023096972145E-05,1.20240274554817E-05,2.28515625,0,0
-2.27531945711235E-05,1.19025971798692E-05,2.28515625,0,0
-2.91021060547791E-05,1.41614782478428E-05,2.28515625,0,0
-2.58435356954578E-05,1.28145293274429E-05,2.28515625,0,0
-2.97108308586758E-05,1.54527169797802E-05,2.28515625,0,0
-2.63213732978329E-05,1.60704639711184E-05,2.28515625,0,0
-2.62610064964974E-05,1.71725532709388E-05,2.28515625,0,0
-2.32494494412094E-05,1.80475399247371E-05,2.28515625,0,0
-2.24949453695444E-05,1.89124693861231E-05,2.28515625,0,0
-2.32042293646373E-05,1.98160632862709E-05,2.28515625,0,0
-2.38807951973286E-05,2.02133032871643E-05,2.28515625,0,0
-2.62129924522014E-05,2.08261189982295E-05,2.28515625,0,0
-2.53867983701639E-05,2.11979131563567E-05,2.28515625,0,0
-2.64145728579024E-05,2.05763208214194E-05,2.28515625,0,0
-2.42740279645659E-05,1.51421536429552E-05,2.28515625,0,0
-2.411598143226E-05,7.61712090024957E-06,2.28515625,0,0
-2.08665369427763E-05,2.06356003218389E-06,2.28515625,0,0
-2.04805037355982E-05,2.51791630034859E-06,2.28515625,0,0
-1.91423605429009E-05,5.7822717280942E-06,2.28515625,0,0
-1.97735516849207E-05,1.03646498246235E-05,2.28515625,0,0
-1.78168411366642E-05,1.21402517834213E-05,2.28515625,0,0
-1.71803167177131E-05,1.20184522529598E-05,2.28515625,0,0
-1.71972278621979E-05,1.10772507468937E-05,2.28515625,0,0
-1.90583705261815E-05,1.05878152680816E-05,2.28515625,0,0
-2.02626979444176E-05,1.05316958070034E-05,2.28515625,0,0
-2.14868996408768E-05,1.00027727967245E-05,2.28515625,0,0
-1.77245819941163E-05,8.03377588454168E-06,2.28515625,0,0
-2.46056770265568E-05,1.27312478070962E-05,2.28515625,0,0
-1.83081629074877E-05,1.16241462819744E-05,2.28515625,0,0
-2.23255137825618E-05,1.23792287922697E-05,2.28515625,0,0
-1.72717936948175E-05,7.90745616541244E-06,2.28515625,0,0
-1.91561284736963E-05,8.69614541443298E-06,2.28515625,0,0
-1.74720753420843E-05,9.35521438805154E-06,2.28515625,0,0
-1.92107017937815E-05,1.07471933006309E-05,2.28515625,0,0
-1.80790575541323E-05,1.07084106275579E-05,2.28515625,0,0
-1.59947630891111E-05,9.21733771974687E-06,2.28515625,0,0
-1.50780788317206E-05,7.75532043917337E-06,2.28515625,0,0
-1.48938843267388E-05,7.57265615902725E-06,2.28515625,0,0
-1.63182485266589E-05,1.00738652690779E-05,2.28515625,0,0
-1.45108915603487E-05,1.2995301403862E-05,2.28515625,0,0
-1.39292314997874E-05,1.48485360114137E-05,2.28515625,0,0
-1.2228275409143E-05,1.24642592709279E-05,2.28515625,0,0
-1.42640719786868E-05,8.39718995848671E-06,2.28515625,0,0
-1.60214931383962E-05,3.99378768634051E-06,2.28515625,0,0
-1.92680909094634E-05,2.89083732241124E-06,2.28515625,0,0
-1.88841204362689E-05,3.2957282201096E-06,2.28515625,0,0
-1.85094031621702E-05,4.66889196104603E-06,2.28515625,0,0
-1.74672732100589E-05,5.20567436979036E-06,2.28515625,0,0
-1.82606218004366E-05,7.30075362298521E-06,2.28515625,0,0
-1.90345854207408E-05,8.93855303729652E-06,2.28515625,0,0
-2.01374386961106E-05,8.5827350631007E-06,2.28515625,0,0
-2.00784943444887E-05,7.52048026697594E-06,2.28515625,0,0
-2.05940250452841E-05,6.07694937571068E-06,2.28515625,0,0
-1.92118550330633E-05,3.95943152398104E-06,2.28515625,0,0
-2.76626306003891E-05,6.39035260974197E-06,2.28515625,0,0
-2.10081834666198E-05,6.19155252934434E-06,2.28515625,0,0
-2.53840462391963E-05,7.70981660025427E-06,2.28515625,0,0
-2.21447553485632E-05,8.72449618327664E-06,2.28515625,0,0
-2.67740124400007E-05,1.31778797367588E-05,2.28515625,0,0
-2.70344135060441E-05,1.48805738717783E-05,2.28515625,0,0
-2.89112085738452E-05,1.44627410918474E-05,2.28515625,0,0
-2.79931973636849E-05,1.47717610161635E-05,2.28515625,0,0
-2.74038156931056E-05,1.60292656801175E-05,2.28515625,0,0
-2.68192998191807E-05,1.56466267071664E-05,2.28515625,0,0
-2.51480760198319E-05,1.3178430890548E-05,2.28515625,0,0
-2.46219588007079E-05,1.20100858111982E-05,2.28515625,0,0
-2.18866280192742E-05,1.25990745800664E-05,2.28515625,0,0
-2.16587031900417E-05,1.46943148138234E-05,2.28515625,0,0
-2.07169214263558E-05,1.54527861013776E-05,2.28515625,0,0
-2.28343651542673E-05,1.24200269056018E-05,2.28515625,0,0
-2.25251369556645E-05,5.02122111356584E-06,2.28515625,0,0
-2.28989374591038E-05,2.37436438510485E-07,2.28515625,0,0
-2.14384381251875E-05,1.60385650360695E-06,2.28515625,0,0
-2.188273720094E-05,6.63990522298263E-06,2.28515625,0,0
-2.06537770282011E-05,1.01809037005296E-05,2.28515625,0,0
-1.91323179024039E-05,1.09788434201619E-05,2.28515625,0,0
-1.80259121407289E-05,1.06772131402977E-05,2.28515625,0,0
-1.94102958630538E-05,9.3209810074768E-06,2.28515625,0,0
-2.04148727789288E-05,6.04153729000245E-06,2.28515625,0,0
-2.1524547264562E-05,3.19764876621775E-06,2.28515625,0,0
-1.83981246664189E-05,3.41683244187152E-06,2.28515625,0,0
-2.67638879449805E-05,8.50713877298404E-06,2.28515625,0,0
-2.17688975681085E-05,1.32198001665529E-05,2.28515625,0,0
-2.7200501790503E-05,1.63330623763613E-05,2.28515625,0,0
-2.30382993322564E-05,1.58224975166377E-05,2.28515625,0,0
-2.50213252002141E-05,1.65177207236411E-05,2.28515625,0,0
-2.31400572374696E-05,1.75535533344373E-05,2.28515625,0,0
-2.43170361500233E-05,1.91444669326302E-05,2.28515625,0,0
-2.36942523770267E-05,1.98649304365972E-05,2.28515625,0,0
-2.33836817642441E-05,1.9211691324017E-05,2.28515625,0,0
-2.4429637051071E-05,1.81997966137715E-05,2.28515625,0,0
-2.53483103733743E-05,1.79117469087942E-05,2.28515625,0,0
-2.76770788332215E-05,1.84130840352736E-05,2.28515625,0,0
-2.86821450572461E-05,1.78594200406224E-05,2.28515625,0,0
-3.10091600113083E-05,1.55921661644243E-05,2.28515625,0,0
-3.12266674882267E-05,1.21733710329863E-05,2.28515625,0,0
-3.36967350449413E-05,1.06322668216308E-05,2.28515625,0,0
-3.37271303578746E-05,1.1895873285539E-05,2.28515625,0,0
-3.4793840313796E-05,1.46481461342773E-05,2.28515625,0,0
-3.36653320118785E-05,1.56766691361554E-05,2.28515625,0,0
-3.26675872202031E-05,1.54832760017598E-05,2.28515625,0,0
-3.01413747365586E-05,1.65465407917509E-05,2.28515625,0,0
-2.99687289952999E-05,1.89949478226481E-05,2.28515625,0,0
-3.03113356494578E-05,2.00764789042296E-05,2.28515625,0,0
-3.15437282552011E-05,2.09908121178159E-05,2.28515625,0,0
-3.30638067680411E-05,2.23244333028561E-05,2.28515625,0,0
-3.42260973411612E-05,2.18765362660633E-05,2.28515625,0,0
-2.76256760116667E-05,1.3436418157653E-05,2.28515625,0,0
-3.89008964702953E-05,1.65737146744505E-05,2.28515625,0,0
-2.8470656616264E-05,1.02300136859412E-05,2.28515625,0,0
-3.51435992342886E-05,1.36220714921365E-05,2.28515625,0,0
-2.82345536106732E-05,7.65170534577919E-06,2.28515625,0,0
-2.90984135062899E-05,7.69535563449608E-06,2.28515625,0,0
-2.33703140111174E-05,5.52080382476561E-06,2.28515625,0,0
-2.41259640461067E-05,7.42816882848274E-06,2.28515625,0,0
-2.4175471480703E-05,8.99841688806191E-06,2.28515625,0,0
-2.49672139034374E-05,9.75199782260461E-06,2.28515625,0,0
-2.47031730395975E-05,8.69256928126561E-06,2.28515625,0,0
-2.27537275350187E-05,7.99502231529914E-06,2.28515625,0,0
-2.32836573559325E-05,8.25335337140132E-06,2.28515625,0,0
-2.1741467207903E-05,6.86942894390086E-06,2.28515625,0,0
-2.23158986045746E-05,8.18327407614561E-06,2.28515625,0,0
-1.99259957298636E-05,9.15890905162087E-06,2.28515625,0,0
-2.15141790249618E-05,1.11762947199168E-05,2.28515625,0,0
-2.01592938537942E-05,1.02278136182576E-05,2.28515625,0,0
-2.05088035727385E-05,1.1080885087722E-05,2.28515625,0,0
-1.86573979590321E-05,1.06602392406785E-05,2.28515625,0,0
-2.07713746931404E-05,1.04091404864448E-05,2.28515625,0,0
-2.2263482605922E-05,9.22799426916754E-06,2.28515625,0,0
-2.375444273639E-05,1.0369603842264E-05,2.28515625,0,0
-2.18308941839496E-05,9.7447100415593E-06,2.28515625,0,0
-2.13316998269875E-05,8.30831413622946E-06,2.28515625,0,0
-2.31277299462818E-05,7.18850105840829E-06,2.28515625,0,0
-2.44823204411659E-05,6.31884813628858E-06,2.28515625,0,0
-1.84178061317652E-05,2.47350726567674E-06,2.28515625,0,0
-2.49035092565464E-05,2.14768010664557E-06,2.28515625,0,0
-1.72171530721243E-05,1.39698965995194E-06,2.28515625,0,0
-2.20135989366099E-05,3.82701227863436E-06,2.28515625,0,0
-1.86788311111741E-05,5.88989178140764E-06,2.28515625,0,0
-2.20836172957206E-05,9.62812555371784E-06,2.28515625,0,0
-2.06890708795981E-05,1.11140780063579E-05,2.28515625,0,0
-2.11343940463848E-05,1.22156998259015E-05,2.28515625,0,0
-1.95788543351227E-05,1.11174922494683E-05,2.28515625,0,0
-1.97203407878987E-05,9.35102070798166E-06,2.28515625,0,0
-2.16736534639494E-05,7.78301364334766E-06,2.28515625,0,0
-2.16909720620606E-05,7.71736085880548E-06,2.28515625,0,0
-2.22108592424775E-05,7.96827953308821E-06,2.28515625,0,0
-2.09243316930952E-05,6.38956498733023E-06,2.28515625,0,0
-2.14267693081638E-05,5.22224809174077E-06,2.28515625,0,0
-1.93518608284649E-05,3.9491237657785E-06,2.28515625,0,0
-1.92455463547958E-05,3.66404378837615E-06,2.28515625,0,0
-1.78698646777775E-05,3.80273786504404E-06,2.28515625,0,0
-1.87670775630977E-05,5.35261142431409E-06,2.28515625,0,0
-1.85207936738152E-05,6.55428902973654E-06,2.28515625,0,0
-1.99147216335405E-05,6.93221227265894E-06,2.28515625,0,0
-1.95371885638451E-05,5.25600853507058E-06,2.28515625,0,0
-1.88718640856678E-05,3.48103662872745E-06,2.28515625,0,0
-1.8166709196521E-05,3.13424243358895E-06,2.28515625,0,0
-1.88410394912353E-05,3.62428545486182E-06,2.28515625,0,0
-2.00932445295621E-05,4.31125772593077E-06,2.28515625,0,0
-2.10357429750729E-05,5.58679857931565E-06,2.28515625,0,0
-1.63557870109798E-05,6.40666303297621E-06,2.28515625,0,0
-2.33366426982684E-05,1.05327872006455E-05,2.28515625,0,0
-1.81576888280688E-05,8.15549810795346E-06,2.28515625,0,0
-2.26651827688329E-05,7.12368682798115E-06,2.28515625,0,0
-1.99985606741393E-05,4.66992014480638E-06,2.28515625,0,0
-2.31696467380971E-05,7.60488319428987E-06,2.28515625,0,0
-2.40118970395997E-05,9.33451337914448E-06,2.28515625,0,0
-2.96892685582861E-05,9.28978170122718E-06,2.28515625,0,0
-3.18916681862902E-05,1.00797669801977E-05,2.28515625,0,0
-3.17658777930774E-05,1.12697689473862E-05,2.28515625,0,0
-3.07816990243737E-05,1.15141410788056E-05,2.28515625,0,0
-3.02180469589075E-05,1.04396904134774E-05,2.28515625,0,0
-3.2061285310192E-05,1.00695342553081E-05,2.28515625,0,0
-3.16666082653683E-05,9.29612178879324E-06,2.28515625,0,0
-3.19341925205663E-05,9.75110651779687E-06,2.28515625,0,0
-3.01096806651913E-05,1.10728915387881E-05,2.28515625,0,0
-2.98666582239093E-05,1.32233817566885E-05,2.28515625,0,0
-2.90063908323646E-05,1.29938116515405E-05,2.28515625,0,0
-3.1911284168018E-05,1.11546823973185E-05,2.28515625,0,0
-3.31857736455277E-05,1.03897727967706E-05,2.28515625,0,0
-3.46534288837574E-05,1.2930767297803E-05,2.28515625,0,0
-3.53741925209761E-05,1.49228872032836E-05,2.28515625,0,0
-3.65869491361082E-05,1.36612161441008E-05,2.28515625,0,0
-3.59615805791691E-05,1.14941067295149E-05,2.28515625,0,0
-3.49371148331556E-05,1.01143459687592E-05,2.28515625,0,0
-3.38887693942524E-05,9.18946443562163E-06,2.28515625,0,0
-3.44743457389995E-05,8.06233674666146E-06,2.28515625,0,0
-2.84394100162899E-05,6.67596532366588E-06,2.28515625,0,0
-4.00648095819633E-05,1.11872886918718E-05,2.28515625,0,0
-2.96062153211096E-05,1.12309517135145E-05,2.28515625,0,0
-3.54095282091293E-05,1.28381616377737E-05,2.28515625,0,0
-2.7258549380349E-05,1.1041272955481E-05,2.28515625,0,0
-2.9209140848252E-05,1.30146527226316E-05,2.28515625,0,0
-2.36867599596735E-05,1.37867473313236E-05,2.28515625,0,0
-2.31461381190456E-05,1.49037732626311E-05,2.28515625,0,0
-2.07660286832834E-05,1.42270064316108E-05,2.28515625,0,0
-1.96451164811151E-05,1.31281558424234E-05,2.28515625,0,0
-1.82206204044633E-05,1.35355548991356E-05,2.28515625,0,0
-1.66522422659909E-05,1.457244525227E-05,2.28515625,0,0
-1.85185799637111E-05,1.48084845932317E-05,2.28515625,0,0
-1.72493400896201E-05,1.36313783514197E-05,2.28515625,0,0
-1.77099336724496E-05,1.46853535625269E-05,2.28515625,0,0
-1.52554548549233E-05,1.62065571203129E-05,2.28515625,0,0
-1.73355656443164E-05,1.72804429894313E-05,2.28515625,0,0
-1.59454484673915E-05,1.63585755217355E-05,2.28515625,0,0
-1.64657594723394E-05,1.58158163685584E-05,2.28515625,0,0
-1.47101882248535E-05,1.52429356603534E-05,2.28515625,0,0
-1.55043344420847E-05,1.5178668036242E-05,2.28515625,0,0
-1.36154812935274E-05,1.2895189684059E-05,2.28515625,0,0
-1.32326686070883E-05,1.01717341749463E-05,2.28515625,0,0
-1.26198046928039E-05,8.64297726366203E-06,2.28515625,0,0
-1.34529600472888E-05,8.78340324561577E-06,2.28515625,0,0
-1.33469211505144E-05,1.01696778074256E-05,2.28515625,0,0
-1.37259603434359E-05,1.14763406600105E-05,2.28515625,0,0
-1.25794531413703E-05,9.65793151408434E-06,2.28515625,0,0
-1.89327274711104E-05,1.45376534419484E-05,2.28515625,0,0
-1.71117098943796E-05,1.41385798997362E-05,2.28515625,0,0
-2.34997896768618E-05,1.91722610907163E-05,2.28515625,0,0
-2.35527913901024E-05,1.60400486493018E-05,2.28515625,0,0
-2.51723122346448E-05,1.24583648357657E-05,2.28515625,0,0
-2.31278099818155E-05,6.66448613628745E-06,2.28515625,0,0
-2.29275392484851E-05,6.99589918440324E-06,2.28515625,0,0
-2.29122488235589E-05,9.50651428865967E-06,2.28515625,0,0
-2.35787811107002E-05,1.19055603136076E-05,2.28515625,0,0
-2.49325894401409E-05,1.13588002932374E-05,2.28515625,0,0
-2.69583561021136E-05,8.68028837430757E-06,2.28515625,0,0
-2.96660109597724E-05,5.90051377002965E-06,2.28515625,0,0
-3.02583903248888E-05,3.47065883943287E-06,2.28515625,0,0
-3.14297758450266E-05,4.98484996569459E-06,2.28515625,0,0
-3.07218106172513E-05,6.85529630573001E-06,2.28515625,0,0
-3.04817858705064E-05,7.99971439846559E-06,2.28515625,0,0
-2.84189081867225E-05,5.75926696910756E-06,2.28515625,0,0
-2.80214899248676E-05,4.94048799737357E-06,2.28515625,0,0
-2.81341144727776E-05,3.57270391759812E-06,2.28515625,0,0
-3.03162214549957E-05,2.34772301155317E-06,2.28515625,0,0
-3.09052084048744E-05,6.36803804354713E-07,2.28515625,0,0
-3.02471962640993E-05,1.23918439953741E-07,2.28515625,0,0
-2.91077740257606E-05,-2.07189668799401E-06,2.28515625,0,0
-2.98044087685412E-05,-3.68915721082885E-06,2.28515625,0,0
-3.18237980536651E-05,-1.52414145304647E-06,2.28515625,0,0
-3.41556187777314E-05,4.88532214149018E-06,2.28515625,0,0
-2.86909762508003E-05,1.21408456834615E-05,2.28515625,0,0
-3.82353100576438E-05,2.1928195565124E-05,2.28515625,0,0
-2.398188735242E-05,2.01567945623538E-05,2.28515625,0,0
-2.90412663161987E-05,1.87273853953229E-05,2.28515625,0,0
-2.19601570279337E-05,1.4138367077976E-05,2.28515625,0,0
-2.62440189544577E-05,1.52702359628165E-05,2.28515625,0,0
-2.36664945987286E-05,1.51998347064364E-05,2.28515625,0,0
-2.55903541983571E-05,1.74840643012431E-05,2.28515625,0,0
-2.49617351073539E-05,2.00292852241546E-05,2.28515625,0,0
-2.510255035304E-05,2.23084971366916E-05,2.28515625,0,0
-2.31581288971938E-05,2.49816275754711E-05,2.28515625,0,0
-1.87598052434623E-05,2.78087081824197E-05,2.28515625,0,0
-1.83833508344833E-05,3.04271161439829E-05,2.28515625,0,0
-1.80847946467111E-05,2.95109475700883E-05,2.28515625,0,0
-2.14201536437031E-05,2.92480508505832E-05,2.28515625,0,0
-2.03995114134159E-05,2.96917241939809E-05,2.28515625,0,0
-2.18726036109729E-05,3.09247589029837E-05,2.28515625,0,0
-1.96449545910582E-05,2.9093500415911E-05,2.28515625,0,0
-2.05646756512579E-05,2.67451832769439E-05,2.28515625,0,0
-1.98836260096869E-05,2.33132523135282E-05,2.28515625,0,0
-2.10346988751553E-05,2.06543754757149E-05,2.28515625,0,0
-1.8801903934218E-05,1.71063202287769E-05,2.28515625,0,0
-1.85497847269289E-05,1.34538304337184E-05,2.28515625,0,0
-1.85242242878303E-05,8.49338357511442E-06,2.28515625,0,0
-2.02086994249839E-05,2.40427470998839E-06,2.28515625,0,0
-1.96418550331146E-05,-1.3476204685503E-06,2.28515625,0,0
-1.88238373084459E-05,1.01252351214498E-06,2.28515625,0,0
-1.54267800098751E-05,5.05335810885299E-06,2.28515625,0,0
-2.18255645449972E-05,8.85273948370013E-06,2.28515625,0,0
-1.7212765669683E-05,8.33532976685092E-06,2.28515625,0,0
-2.17039578274125E-05,8.92423850018531E-06,2.28515625,0,0
-1.88891408470226E-05,7.69954203860834E-06,2.28515625,0,0
-2.21610298467567E-05,7.63551361160353E-06,2.28515625,0,0
-2.24201703531435E-05,6.8292570176709E-06,2.28515625,0,0
-2.48814721999224E-05,7.46427485864842E-06,2.28515625,0,0
-2.48300239036325E-05,7.84781605034368E-06,2.28515625,0,0
-2.45635801547905E-05,7.7442509791581E-06,2.28515625,0,0
-2.47181251324946E-05,7.01860335539095E-06,2.28515625,0,0
-2.41162470047129E-05,5.51586208530352E-06,2.28515625,0,0
-2.53177877311828E-05,4.77038247481687E-06,2.28515625,0,0
-2.61902969214134E-05,3.37132610184199E-06,2.28515625,0,0
-2.88586670649238E-05,2.78277411780437E-06,2.28515625,0,0
-2.87485454464331E-05,3.08484209199378E-06,2.28515625,0,0
-2.92009735858301E-05,3.72092404177238E-06,2.28515625,0,0
-2.81937063846271E-05,2.18536456486618E-06,2.28515625,0,0
-2.91343458229676E-05,1.45149300578851E-07,2.28515625,0,0
-2.84730485873297E-05,1.02137825308546E-07,2.28515625,0,0
-2.81038701359648E-05,2.38266488850059E-06,2.28515625,0,0
-2.61709810729371E-05,3.67661664313346E-06,2.28515625,0,0
-2.49578806688078E-05,4.96652501169592E-06,2.28515625,0,0
-2.42118276219117E-05,7.07943718225579E-06,2.28515625,0,0
-2.50095490628155E-05,8.84710152604384E-06,2.28515625,0,0
-2.46107520069927E-05,8.03136208560318E-06,2.28515625,0,0
-2.48291325988248E-05,5.82892425882164E-06,2.28515625,0,0
-2.09650115721161E-05,2.0342640709714E-06,2.28515625,0,0
-2.83552799373865E-05,1.86185343409306E-06,2.28515625,0,0
-1.88427165994653E-05,1.93718551599886E-06,2.28515625,0,0
-2.30099885811796E-05,4.18558465753449E-06,2.28515625,0,0
-1.91288963833358E-05,3.97465782953077E-06,2.28515625,0,0
-2.43097310885787E-05,5.18858405484934E-06,2.28515625,0,0
-2.35566476476379E-05,5.49031756236218E-06,2.28515625,0,0
-2.49381992034614E-05,6.22915922576794E-06,2.28515625,0,0
-2.44451730395667E-05,5.83563769396278E-06,2.28515625,0,0
-2.49818149313796E-05,6.27945701126009E-06,2.28515625,0,0
-2.53438447543886E-05,6.75065757604898E-06,2.28515625,0,0
-2.44468592427438E-05,6.42182658339152E-06,2.28515625,0,0
-2.5321196517325E-05,4.51738787887734E-06,2.28515625,0,0
-2.50893153861398E-05,2.0035479337821E-06,2.28515625,0,0
-2.76821319857845E-05,2.86986505670939E-06,2.28515625,0,0
-2.78437109955121E-05,6.15023236605339E-06,2.28515625,0,0
-2.95846275548683E-05,9.68342828855384E-06,2.28515625,0,0
-2.79099731415045E-05,1.05913268271252E-05,2.28515625,0,0
-2.83867648249725E-05,1.10600294647156E-05,2.28515625,0,0
-2.78705811069813E-05,1.12466250357102E-05,2.28515625,0,0
-2.87486109300517E-05,1.14098484118585E-05,2.28515625,0,0
-2.78170155070256E-05,1.0456952622917E-05,2.28515625,0,0
-2.80189306067768E-05,9.72879206528887E-06,2.28515625,0,0
-2.68043040705379E-05,1.04318896774203E-05,2.28515625,0,0
-2.60449833149323E-05,1.26910990729812E-05,2.28515625,0,0
-2.45160063059302E-05,1.32349969135248E-05,2.28515625,0,0
-2.45929822995095E-05,1.04474975159974E-05,2.28515625,0,0
-2.2617628928856E-05,6.6636403062148E-06,2.28515625,0,0
-3.21031911880709E-05,9.22640992939705E-06,2.28515625,0,0
-2.13421317312168E-05,7.34478317099274E-06,2.28515625,0,0
-2.34275612456258E-05,1.09141155917314E-05,2.28515625,0,0
-1.94174372154521E-05,1.31533070089063E-05,2.28515625,0,0
-2.33200025832048E-05,1.81267168954946E-05,2.28515625,0,0
-2.12724971788703E-05,1.73655989783583E-05,2.28515625,0,0
-2.26755528274225E-05,1.46945221786154E-05,2.28515625,0,0
-2.15528598346282E-05,1.26417335195583E-05,2.28515625,0,0
-2.13357125176117E-05,1.17808604045422E-05,2.28515625,0,0
-2.16377229662612E-05,1.07559071693686E-05,2.28515625,0,0
-2.1114796254551E-05,1.14219083116041E-05,2.28515625,0,0
-2.19544963329099E-05,1.44750556501094E-05,2.28515625,0,0
-2.12340037251124E-05,1.58891616592882E-05,2.28515625,0,0
-2.28472636081278E-05,1.64844695973443E-05,2.28515625,0,0
-2.19152570934966E-05,1.60778417921392E-05,2.28515625,0,0
-2.21634654735681E-05,1.6478054021718E-05,2.28515625,0,0
-1.92055940715363E-05,1.64010471053189E-05,2.28515625,0,0
-1.95539087144425E-05,1.7575264791958E-05,2.28515625,0,0
-1.87564673979068E-05,1.76520261447877E-05,2.28515625,0,0
-1.9428782252362E-05,1.72585805557901E-05,2.28515625,0,0
-1.90121336345328E-05,1.60500076162862E-05,2.28515625,0,0
-2.07896773645189E-05,1.55236120917834E-05,2.28515625,0,0
-2.15430081880186E-05,1.58111397468019E-05,2.28515625,0,0
-2.27366854232969E-05,1.65413657668978E-05,2.28515625,0,0
-2.32391903409734E-05,1.65462370205205E-05,2.28515625,0,0
-2.30602527153678E-05,1.66553891176591E-05,2.28515625,0,0
-1.86758534255205E-05,1.21053244583891E-05,2.28515625,0,0
-2.62237026618095E-05,1.48677554534515E-05,2.28515625,0,0
-2.04823900276097E-05,1.00587485576398E-05,2.28515625,0,0
-2.61333480011672E-05,1.48266763062566E-05,2.28515625,0,0
-2.2832908143755E-05,1.06062498161918E-05,2.28515625,0,0
-2.70071941486094E-05,1.10496266643167E-05,2.28515625,0,0
-2.65492235484999E-05,9.99182975647273E-06,2.28515625,0,0
-2.79288979072589E-05,1.23034978969372E-05,2.28515625,0,0
-2.67013183474774E-05,1.2911423254991E-05,2.28515625,0,0
-2.66106962953927E-05,1.21135744848289E-05,2.28515625,0,0
-2.6953728593071E-05,1.03134507298819E-05,2.28515625,0,0
-2.57185874943389E-05,8.48748641146813E-06,2.28515625,0,0
-2.54619353654562E-05,8.00344332674285E-06,2.28515625,0,0
-2.28067819989519E-05,6.05762897976092E-06,2.28515625,0,0
-2.22523322008783E-05,5.73548959437176E-06,2.28515625,0,0
-1.97309382201638E-05,5.62445302421111E-06,2.28515625,0,0
-1.88746580533916E-05,9.16217049962142E-06,2.28515625,0,0
-1.66259633260779E-05,1.11086992546916E-05,2.28515625,0,0
-1.82481035153614E-05,1.28116871564998E-05,2.28515625,0,0
-1.91068083950086E-05,1.2779991266143E-05,2.28515625,0,0
-1.98384077521041E-05,1.34004094434204E-05,2.28515625,0,0
-1.67794914887054E-05,1.22447791000013E-05,2.28515625,0,0
-1.36239614221267E-05,1.17648223749711E-05,2.28515625,0,0
-1.22487454063958E-05,1.10342343759839E-05,2.28515625,0,0
-1.46361653605709E-05,1.07324667624198E-05,2.28515625,0,0
-1.76043868123088E-05,1.03214479167946E-05,2.28515625,0,0
-1.86455708899302E-05,1.04408190964023E-05,2.28515625,0,0
-1.43282577482751E-05,8.60443833516911E-06,2.28515625,0,0
-2.10764592338819E-05,1.17690842671436E-05,2.28515625,0,0
-1.74207525560632E-05,7.73467218095902E-06,2.28515625,0,0
-2.16434546018718E-05,9.45884949032916E-06,2.28515625,0,0
-1.82775875146035E-05,8.14888608147157E-06,2.28515625,0,0
-2.01901748368982E-05,1.00448305602185E-05,2.28515625,0,0
-2.09292866202304E-05,9.68219501373824E-06,2.28515625,0,0
-2.35315073950915E-05,8.68498955242103E-06,2.28515625,0,0
-2.35684019571636E-05,6.62530237605097E-06,2.28515625,0,0
-2.35200222959975E-05,5.16499176228535E-06,2.28515625,0,0
-2.40968383877771E-05,4.08231153414818E-06,2.28515625,0,0
-2.47506250161678E-05,3.12936481350334E-06,2.28515625,0,0
-2.60751312453067E-05,3.73555440091877E-06,2.28515625,0,0
-2.54943515756167E-05,4.55604367743945E-06,2.28515625,0,0
-2.65485814452404E-05,5.61125261810957E-06,2.28515625,0,0
-2.62967423623195E-05,5.00375563206035E-06,2.28515625,0,0
-2.734073495958E-05,6.12324583926238E-06,2.28515625,0,0
-2.74424055533018E-05,7.2434445428371E-06,2.28515625,0,0
-2.877240331145E-05,7.84280655352632E-06,2.28515625,0,0
-2.75640759355156E-05,6.84187125443714E-06,2.28515625,0,0
-2.61354889516952E-05,7.64513151807478E-06,2.28515625,0,0
-2.46044946834445E-05,9.03558884601807E-06,2.28515625,0,0
-2.57416941167321E-05,1.09125348899397E-05,2.28515625,0,0
-2.74238755082479E-05,1.10109313027351E-05,2.28515625,0,0
-2.91838387056487E-05,9.32008060772205E-06,2.28515625,0,0
-2.90083844447508E-05,7.54049824536196E-06,2.28515625,0,0
-2.76873724942561E-05,8.28369229566306E-06,2.28515625,0,0
-2.30067616939778E-05,9.67628693615552E-06,2.28515625,0,0
-3.37568126269616E-05,1.47793625728809E-05,2.28515625,0,0
-2.48079868470086E-05,1.22658348118421E-05,2.28515625,0,0
-2.77055278274929E-05,1.3865851542505E-05,2.28515625,0,0
-2.15303152799606E-05,1.11547542474E-05,2.28515625,0,0
-2.47981861321023E-05,1.28289029817097E-05,2.28515625,0,0
-2.42723144765478E-05,1.14773310997407E-05,2.28515625,0,0
-2.71104327111971E-05,1.04574446595507E-05,2.28515625,0,0
-2.67936611635378E-05,1.0080888387165E-05,2.28515625,0,0
-2.52668833127245E-05,1.03640923043713E-05,2.28515625,0,0
-2.38786360569065E-05,1.17471117846435E-05,2.28515625,0,0
-2.26687570830109E-05,1.27741705000517E-05,2.28515625,0,0
-2.35896259255242E-05,1.31482893266366E-05,2.28515625,0,0
-2.22957478399621E-05,1.14493395813042E-05,2.28515625,0,0
-2.32461279665586E-05,9.7427082437207E-06,2.28515625,0,0
-2.23176866711583E-05,7.73764895711793E-06,2.28515625,0,0
-2.39799646806205E-05,8.09670473245205E-06,2.28515625,0,0
-2.3096439690562E-05,8.45794511405984E-06,2.28515625,0,0
-2.40698427660391E-05,1.08445219666464E-05,2.28515625,0,0
-2.35526931646746E-05,1.39046087497263E-05,2.28515625,0,0
-2.49978493229719E-05,1.73109601746546E-05,2.28515625,0,0
-2.51305118581513E-05,1.84633663593559E-05,2.28515625,0,0
-2.65283288172213E-05,1.86348988790996E-05,2.28515625,0,0
-2.79887481156038E-05,1.76599533006083E-05,2.28515625,0,0
-2.98148734145798E-05,1.66786649060668E-05,2.28515625,0,0
-2.99591429211432E-05,1.57586000568699E-05,2.28515625,0,0
-2.97660426440416E-05,1.50278838191298E-05,2.28515625,0,0
-2.4245549866464E-05,1.26648956211284E-05,2.28515625,0,0
-3.39072867063805E-05,1.79920662048971E-05,2.28515625,0,0
-2.49964668910252E-05,1.3343024875212E-05,2.28515625,0,0
-3.13107229885645E-05,1.66216959769372E-05,2.28515625,0,0
-2.64682876149891E-05,1.4490598005068E-05,2.28515625,0,0
-2.9882477974752E-05,1.70259227161296E-05,2.28515625,0,0
-2.69787997240201E-05,1.49426323332591E-05,2.28515625,0,0
-2.75725415121997E-05,1.24277521535987E-05,2.28515625,0,0
-2.73438254225766E-05,1.01784426078666E-05,2.28515625,0,0
-3.02964435832109E-05,1.09514085124829E-05,2.28515625,0,0
-3.29521935782395E-05,1.33464645841741E-05,2.28515625,0,0
-3.15209072141442E-05,1.45281219374738E-05,2.28515625,0,0
-3.01599848171463E-05,1.54885256051784E-05,2.28515625,0,0
-2.69000884145498E-05,1.51426556840306E-05,2.28515625,0,0
-2.72039524134016E-05,1.74485976458527E-05,2.28515625,0,0
-2.50595330726355E-05,1.91829640243668E-05,2.28515625,0,0
-2.52816389547661E-05,2.07271987164859E-05,2.28515625,0,0
-2.24627619900275E-05,1.89147958735703E-05,2.28515625,0,0
-2.21798927668715E-05,1.68617825693218E-05,2.28515625,0,0
-2.04929838218959E-05,1.35092732307385E-05,2.28515625,0,0
-2.13820712815505E-05,1.16957771751913E-05,2.28515625,0,0
-2.11634869629052E-05,1.04727369034663E-05,2.28515625,0,0
-2.12314589589369E-05,1.09428056020988E-05,2.28515625,0,0
-1.925047399709E-05,1.04238379208255E-05,2.28515625,0,0
-1.92480092664482E-05,9.22696835914394E-06,2.28515625,0,0
-2.02384235308273E-05,6.16350735072047E-06,2.28515625,0,0
-2.12073791772127E-05,3.53015548171243E-06,2.28515625,0,0
-1.71827159647364E-05,5.20783169122296E-06,2.28515625,0,0
-2.26447700697463E-05,1.10003093141131E-05,2.28515625,0,0
-1.58776310854591E-05,1.46542606671574E-05,2.28515625,0,0
-2.2358342903317E-05,1.83062929863809E-05,2.28515625,0,0
-2.09710979106603E-05,1.61976386152674E-05,2.28515625,0,0
-2.48203068622388E-05,1.24918087749393E-05,2.28515625,0,0
-2.25856274482794E-05,8.78511673363391E-06,2.28515625,0,0
-2.09771296795225E-05,8.13718543213326E-06,2.28515625,0,0
-1.82718085852684E-05,1.08089470813866E-05,2.28515625,0,0
-1.80125534825493E-05,1.42350299938698E-05,2.28515625,0,0
-1.80806400749134E-05,1.55235557031119E-05,2.28515625,0,0
-1.67929283634294E-05,1.35505324578844E-05,2.28515625,0,0
-1.75625882548047E-05,1.06158686321578E-05,2.28515625,0,0
-1.76078210643027E-05,9.31496197154047E-06,2.28515625,0,0
-1.8884580640588E-05,1.11223380372394E-05,2.28515625,0,0
-1.87189725693315E-05,1.2401472304191E-05,2.28515625,0,0
-2.22515700443182E-05,1.16501832962967E-05,2.28515625,0,0
-2.4236214812845E-05,8.64964840729954E-06,2.28515625,0,0
-2.71539392997511E-05,5.84162125960574E-06,2.28515625,0,0
-2.70014024863485E-05,4.31021135227638E-06,2.28515625,0,0
-2.67823670583311E-05,4.03622516387259E-06,2.28515625,0,0
-2.64894424617523E-05,4.68954340249184E-06,2.28515625,0,0
-2.88564042421058E-05,7.72010480432073E-06,2.28515625,0,0
-2.79183095699409E-05,1.00564802778536E-05,2.28515625,0,0
-2.58363434113562E-05,7.17713646736229E-06,2.28515625,0,0
-2.56672228715615E-05,-3.01422119264316E-07,2.28515625,0,0
-2.6847319531953E-05,-5.15844158144319E-06,2.28515625,0,0
-2.10936741495971E-05,-1.87768978321401E-06,2.28515625,0,0
-2.82951150438748E-05,1.07499704427028E-06,2.28515625,0,0
-1.94835974980379E-05,7.0431997301057E-06,2.28515625,0,0
-2.49546301347436E-05,9.69890879787272E-06,2.28515625,0,0
-2.08581586775836E-05,1.12260759124183E-05,2.28515625,0,0
-2.39889341173694E-05,9.23919287743047E-06,2.28515625,0,0
-2.14201190829044E-05,9.00943177839508E-06,2.28515625,0,0
-2.43103640968911E-05,7.67873279983178E-06,2.28515625,0,0
-2.60076376434881E-05,6.73513750371058E-06,2.28515625,0,0
-2.84789239231031E-05,5.082166808279E-06,2.28515625,0,0
-2.98188515444053E-05,3.59059595211875E-06,2.28515625,0,0
-2.99419698421843E-05,3.59727437171387E-06,2.28515625,0,0
-3.12107877107337E-05,3.76535126633826E-06,2.28515625,0,0
-2.82672735920642E-05,4.53742813988356E-06,2.28515625,0,0
-2.71627250185702E-05,5.39743268745951E-06,2.28515625,0,0
-2.49924760282738E-05,6.40072403257363E-06,2.28515625,0,0
-2.59582593571395E-05,6.40718690192443E-06,2.28515625,0,0
-2.4260618374683E-05,6.56898373563308E-06,2.28515625,0,0
-2.49674849328585E-05,7.65661297918996E-06,2.28515625,0,0
-2.45426872425014E-05,1.0787335668283E-05,2.28515625,0,0
-2.6435625841259E-05,1.22205083243898E-05,2.28515625,0,0
-2.54978931479855E-05,1.16826295197825E-05,2.28515625,0,0
-2.45849369093776E-05,9.81971425062511E-06,2.28515625,0,0
-2.37563835980836E-05,8.58797102409881E-06,2.28515625,0,0
-2.57320189120946E-05,8.12677990325028E-06,2.28515625,0,0
-2.6629106287146E-05,7.3579722084105E-06,2.28515625,0,0
-2.47541483986424E-05,6.96181132298079E-06,2.28515625,0,0
-1.86708621185971E-05,7.87673070590245E-06,2.28515625,0,0
-2.7677559046424E-05,1.29513773572398E-05,2.28515625,0,0
-2.26992560783401E-05,9.75421789917164E-06,2.28515625,0,0
-2.68872772721807E-05,9.26556458580308E-06,2.28515625,0,0
-2.15449108509347E-05,7.06525133864488E-06,2.28515625,0,0
-2.30074292630889E-05,7.38355583962402E-06,2.28515625,0,0
-2.11279493669281E-05,6.30564591119764E-06,2.28515625,0,0
-2.31360463658348E-05,6.59106171951862E-06,2.28515625,0,0
-2.37389522226295E-05,7.67923847888596E-06,2.28515625,0,0
-2.40226381720277E-05,9.34833678911673E-06,2.28515625,0,0
-2.35933312069392E-05,9.62044487096136E-06,2.28515625,0,0
-2.26582742470782E-05,8.86832367541501E-06,2.28515625,0,0
-2.36438772844849E-05,8.94373897608602E-06,2.28515625,0,0
-2.33807932090713E-05,9.37671939027496E-06,2.28515625,0,0
-2.5022654881468E-05,1.14748645501095E-05,2.28515625,0,0
-2.43996364588384E-05,1.24268008221406E-05,2.28515625,0,0
-2.54887709161267E-05,1.23513700600597E-05,2.28515625,0,0
-2.43080430664122E-05,1.11286781248054E-05,2.28515625,0,0
-2.38998400163837E-05,1.12282650661655E-05,2.28515625,0,0
-2.10020571103087E-05,1.2524496014521E-05,2.28515625,0,0
-2.06559179787291E-05,1.49263423736556E-05,2.28515625,0,0
-2.03274721570779E-05,1.56301030074246E-05,2.28515625,0,0
-2.02922619791934E-05,1.48465396705433E-05,2.28515625,0,0
-1.85471508302726E-05,1.19003962026909E-05,2.28515625,0,0
-1.77644742507255E-05,1.0164809282287E-05,2.28515625,0,0
-1.81739487743471E-05,1.19101987365866E-05,2.28515625,0,0
-1.85050339496229E-05,1.69725390151143E-05,2.28515625,0,0
-1.3901810234529E-05,1.65852397913113E-05,2.28515625,0,0
-1.90671271411702E-05,2.19224057218526E-05,2.28515625,0,0
-1.56209662236506E-05,1.44789137266343E-05,2.28515625,0,0
-2.22930611926131E-05,1.77446636371315E-05,2.28515625,0,0
-2.0716277504107E-05,1.11453828139929E-05,2.28515625,0,0
-2.42692622123286E-05,1.18279313028324E-05,2.28515625,0,0
-2.47537900577299E-05,9.94025231193518E-06,2.28515625,0,0
-2.65871694864472E-05,1.13216356112389E-05,2.28515625,0,0
-2.62459579971619E-05,1.15676057248493E-05,2.28515625,0,0
-2.65478010987863E-05,1.1105444173154E-05,2.28515625,0,0
-2.79521282209316E-05,1.05805074781529E-05,2.28515625,0,0
-2.81636530417018E-05,1.03384227259085E-05,2.28515625,0,0
-2.82721703115385E-05,1.20064441944123E-05,2.28515625,0,0
-2.5749144697329E-05,1.23753443403984E-05,2.28515625,0,0
-2.41754460148513E-05,1.46399488585303E-05,2.28515625,0,0
-2.11162714549573E-05,1.41876225825399E-05,2.28515625,0,0
-1.96831988432677E-05,1.44500054375385E-05,2.28515625,0,0
-1.68974802363664E-05,1.42118378789746E-05,2.28515625,0,0
-1.59369265020359E-05,1.76342418853892E-05,2.28515625,0,0
-1.45474032251514E-05,1.98356246983167E-05,2.28515625,0,0
-1.45973699545721E-05,2.18962832150282E-05,2.28515625,0,0
-1.36457647386123E-05,2.00492140720598E-05,2.28515625,0,0
-1.3405003301159E-05,1.85056360351155E-05,2.28515625,0,0
-1.30298121803207E-05,1.76864396053134E-05,2.28515625,0,0
-1.47152786666993E-05,1.69744962477125E-05,2.28515625,0,0
-1.75804507307475E-05,1.46539905472309E-05,2.28515625,0,0
-1.92714596778387E-05,1.24385169328889E-05,2.28515625,0,0
-1.62102787726326E-05,8.60393265611492E-06,2.28515625,0,0
-2.40717417909764E-05,1.11130311779561E-05,2.28515625,0,0
-2.02253158931853E-05,8.29666532808915E-06,2.28515625,0,0
-2.49774620897369E-05,1.13401556518511E-05,2.28515625,0,0
-2.2008429368725E-05,8.68686856847489E-06,2.28515625,0,0
-2.52954378083814E-05,1.06257266452303E-05,2.28515625,0,0
-2.52759400609648E-05,1.25021824715077E-05,2.28515625,0,0
-2.7463966034702E-05,1.48568060467369E-05,2.28515625,0,0
-2.76064201898407E-05,1.33045814436628E-05,2.28515625,0,0
-2.83795579889556E-05,1.02788044387125E-05,2.28515625,0,0
-2.87228576780763E-05,8.03363855084172E-06,2.28515625,0,0
-2.75723032245878E-05,6.93162519382895E-06,2.28515625,0,0
-2.75756010523764E-05,6.54393352306215E-06,2.28515625,0,0
-2.57571537076728E-05,3.38701306645817E-06,2.28515625,0,0
-2.46844047069317E-05,1.75194952589663E-06,2.28515625,0,0
-2.30662208196009E-05,1.96135169971967E-06,2.28515625,0,0
-2.52512963925255E-05,3.98568863602122E-06,2.28515625,0,0
-2.56923285633093E-05,3.37685560225509E-06,2.28515625,0,0
-2.65344042418292E-05,3.5533414575184E-06,2.28515625,0,0
-2.49241002165945E-05,3.5307714369992E-06,2.28515625,0,0
-2.37900731008267E-05,3.18359002449142E-06,2.28515625,0,0
-2.21262489503715E-05,1.64292339377425E-06,2.28515625,0,0
-2.25244548346382E-05,2.54516066888755E-06,2.28515625,0,0
-2.24140403588535E-05,5.340484676708E-06,2.28515625,0,0
-2.19651465158677E-05,8.66320988279767E-06,2.28515625,0,0
-2.12061604543123E-05,1.07753467091243E-05,2.28515625,0,0
-2.24062605411746E-05,1.04047503555194E-05,2.28515625,0,0
-2.08377205126453E-05,6.95072776579764E-06,2.28515625,0,0
-3.06503825413529E-05,9.33705177885713E-06,2.28515625,0,0
-2.35978313867236E-05,7.26986172594479E-06,2.28515625,0,0
-2.77908839052543E-05,1.04854925666586E-05,2.28515625,0,0
-2.23443403228885E-05,9.80358709057327E-06,2.28515625,0,0
-2.3643318854738E-05,9.58761575020617E-06,2.28515625,0,0
-2.15998170460807E-05,5.24407232660451E-06,2.28515625,0,0
-2.30438818107359E-05,3.89755223295651E-06,2.28515625,0,0
-2.2792853997089E-05,5.74902469452354E-06,2.28515625,0,0
-2.38475058722543E-05,9.11444749363E-06,2.28515625,0,0
-2.5640161766205E-05,1.16589881145046E-05,2.28515625,0,0
-2.63175261352444E-05,1.30205689856666E-05,2.28515625,0,0
-2.78778006759239E-05,1.4874261978548E-05,2.28515625,0,0
-2.72534525720403E-05,1.57643353304593E-05,2.28515625,0,0
-2.86623653664719E-05,1.68447077157907E-05,2.28515625,0,0
-2.80407239188207E-05,1.67417965712957E-05,2.28515625,0,0
-2.92295535473386E-05,1.67094767675735E-05,2.28515625,0,0
-2.83619719994022E-05,1.47296732393443E-05,2.28515625,0,0
-2.98474224109668E-05,1.26791910588508E-05,2.28515625,0,0
-3.01042509818217E-05,1.02074109236128E-05,2.28515625,0,0
-3.27753441524692E-05,9.24527739698533E-06,2.28515625,0,0
-3.46339475072455E-05,8.44051010062685E-06,2.28515625,0,0
-3.70236193703022E-05,7.89998193795327E-06,2.28515625,0,0
-3.62008649972267E-05,5.55193491891259E-06,2.28515625,0,0
-3.39571633958258E-05,3.37572532771446E-06,2.28515625,0,0
-3.17695012199692E-05,2.9063346573821E-06,2.28515625,0,0
-3.00080118904589E-05,3.0970888929005E-06,2.28515625,0,0
-2.34150302276248E-05,5.05555408381042E-06,2.28515625,0,0
-3.24973261740524E-05,8.4539751696866E-06,2.28515625,0,0
-2.25766289077001E-05,7.64214564696886E-06,2.28515625,0,0
-2.54320566455135E-05,8.88628983375384E-06,2.28515625,0,0
-1.84518485184526E-05,8.75905425345991E-06,2.28515625,0,0
-2.23832630581455E-05,1.11467388705933E-05,2.28515625,0,0
-2.10756134038093E-05,1.13863079604926E-05,2.28515625,0,0
-2.30987843679031E-05,9.42392489378108E-06,2.28515625,0,0
-2.10929174500052E-05,8.83398570294958E-06,2.28515625,0,0
-1.95133234228706E-05,9.88664032774977E-06,2.28515625,0,0
-1.97723020392004E-05,1.13499863800826E-05,2.28515625,0,0
-2.04400057555176E-05,1.17712106657564E-05,2.28515625,0,0
-2.31454887398286E-05,1.14474059955683E-05,2.28515625,0,0
-2.27949331019772E-05,1.09652464743704E-05,2.28515625,0,0
-2.36710639001103E-05,1.13968662844854E-05,2.28515625,0,0
-2.18404366023606E-05,1.15076290967409E-05,2.28515625,0,0
-2.32915917877108E-05,1.23161571536912E-05,2.28515625,0,0
-2.26292559091235E-05,1.27630901261E-05,2.28515625,0,0
-2.42068363149883E-05,1.28170177049469E-05,2.28515625,0,0
-2.26351930905366E-05,1.27555840663263E-05,2.28515625,0,0
-2.25043586397078E-05,1.38530522235669E-05,2.28515625,0,0
-2.15146392292809E-05,1.48295066537685E-05,2.28515625,0,0
-2.30458717851434E-05,1.5022674233478E-05,2.28515625,0,0
-2.43724371102871E-05,1.48368026202661E-05,2.28515625,0,0
-2.70987475232687E-05,1.46134880196769E-05,2.28515625,0,0
-2.95099835057044E-05,1.38087589220959E-05,2.28515625,0,0
-3.01190539175877E-05,1.3417851732811E-05,2.28515625,0,0
-2.27449108933797E-05,1.12884326881613E-05,2.28515625,0,0
-3.03364777209936E-05,1.69942650245503E-05,2.28515625,0,0
-2.11425358429551E-05,1.38188679557061E-05,2.28515625,0,0
-2.91617379843956E-05,1.55814705067314E-05,2.28515625,0,0
-2.56724815699272E-05,1.16778019219055E-05,2.28515625,0,0
-2.85859350697137E-05,1.4988432667451E-05,2.28515625,0,0
-2.50416596827563E-05,1.84010586963268E-05,2.28515625,0,0
-2.45177343458636E-05,2.11807800951647E-05,2.28515625,0,0
-2.23531515075592E-05,1.95711309061153E-05,2.28515625,0,0
-2.14973551919684E-05,1.7417334674974E-05,2.4609375,0,0
-2.08356650546193E-05,1.6993903045659E-05,2.4609375,0,0
-1.76286139321746E-05,1.76731355168158E-05,2.4609375,0,0
-1.57422909978777E-05,1.84987766260747E-05,2.4609375,0,0
-1.34119036374614E-05,1.64548746397486E-05,2.4609375,0,0
-1.51111462400877E-05,1.52616612467682E-05,2.4609375,0,0
-1.50102750922088E-05,1.43258439493366E-05,2.4609375,0,0
-1.75120694621E-05,1.46434076668811E-05,2.4609375,0,0
-1.73508342413697E-05,1.24903017422184E-05,2.4609375,0,0
-1.94533567992039E-05,1.20723098007147E-05,2.4609375,0,0
-2.01596340048127E-05,1.3636748008139E-05,2.4609375,0,0
-2.3746315491735E-05,1.61085554282181E-05,2.4609375,0,0
-2.637929537741E-05,1.38975983645651E-05,2.4609375,0,0
-2.91683700197609E-05,9.79758351604687E-06,2.4609375,0,0
-2.83701319858665E-05,6.68838083583978E-06,2.4609375,0,0
-2.6782379791257E-05,6.88956015437725E-06,2.4609375,0,0
-2.59674216067651E-05,8.51511686050799E-06,2.4609375,0,0
-2.70476903097006E-05,9.62102330959169E-06,2.4609375,0,0
-2.30129408009816E-05,8.99535280041164E-06,2.4609375,0,0
-3.16471305268351E-05,1.27608491311548E-05,2.4609375,0,0
-2.15060954360524E-05,8.86069392436184E-06,2.4609375,0,0
-2.5291135898442E-05,1.05404142232146E-05,2.4609375,0,0
-1.90021110029193E-05,9.58005421125563E-06,2.4609375,0,0
-2.11055757972645E-05,1.19337337309844E-05,2.4609375,0,0
-1.82072599272942E-05,1.19984852062771E-05,2.4609375,0,0
-2.019446947088E-05,1.34011270347401E-05,2.4609375,0,0
-2.02000519493595E-05,1.42536082421429E-05,2.4609375,0,0
-1.99380829144502E-05,1.43016513902694E-05,2.4609375,0,0
-1.87592941074399E-05,1.46823022078024E-05,2.4609375,0,0
-1.66915579029592E-05,1.67164580489043E-05,2.4609375,0,0
-1.73834941961104E-05,1.77451947820373E-05,2.4609375,0,0
-1.71518604474841E-05,1.47423297676141E-05,2.4609375,0,0
-1.99762253032532E-05,1.31969054564252E-05,2.4609375,0,0
-2.09591889870353E-05,1.20487147796666E-05,2.4609375,0,0
-2.50303110078676E-05,1.09515267467941E-05,2.4609375,0,0
-2.60106971836649E-05,9.35466050577816E-06,2.4609375,0,0
-2.80318799923407E-05,1.02336489362642E-05,2.4609375,0,0
-2.69314423348987E-05,1.02703652373748E-05,2.4609375,0,0
-2.82615001196973E-05,9.8082182375947E-06,2.4609375,0,0
-2.88560495391721E-05,7.64147989684716E-06,2.4609375,0,0
-3.06459442072082E-05,6.47292381472653E-06,2.4609375,0,0
-3.26539338857401E-05,6.74333523420501E-06,2.4609375,0,0
-3.4668297303142E-05,6.29445594313438E-06,2.4609375,0,0
-3.29839022015221E-05,4.23928031523246E-06,2.4609375,0,0
-3.03952692775056E-05,3.2446521345264E-06,2.4609375,0,0
-2.46580002567498E-05,1.92777270058286E-06,2.4609375,0,0
-3.61934980901424E-05,2.5569072477083E-06,2.4609375,0,0
-2.74176763923606E-05,2.52625000030093E-06,2.4609375,0,0
-2.96497801173246E-05,3.46681372320745E-06,2.4609375,0,0
-2.11419283004943E-05,3.89681372325867E-06,2.4609375,0,0
-2.45371284108842E-05,6.49329103907803E-06,2.4609375,0,0
-2.33380469580879E-05,7.27414499124279E-06,2.4609375,0,0
-2.50929588219151E-05,7.3765681918303E-06,2.4609375,0,0
-2.49145832640352E-05,7.31994487068732E-06,2.4609375,0,0
-2.5170555090881E-05,6.43331259198021E-06,2.4609375,0,0
-2.50325974775478E-05,6.06173034611857E-06,2.4609375,0,0
-2.33909959206358E-05,6.91487457515905E-06,2.4609375,0,0
-2.37295371334767E-05,8.38630148791708E-06,2.4609375,0,0
-2.19546764128609E-05,9.85250972007634E-06,2.4609375,0,0
-2.23827410081867E-05,1.19727992569096E-05,2.4609375,0,0
-2.01296261366224E-05,1.28001811390277E-05,2.4609375,0,0
-1.99802616407396E-05,1.14866388685186E-05,2.4609375,0,0
-1.77452784555499E-05,9.49084278545342E-06,2.4609375,0,0
-1.89782367669977E-05,9.60001761995954E-06,2.4609375,0,0
-1.88010708370712E-05,1.11981871668831E-05,2.4609375,0,0
-2.10313864954514E-05,1.35617819978506E-05,2.4609375,0,0
-2.20672900468344E-05,1.44046234709094E-05,2.4609375,0,0
-2.35591451200889E-05,1.46048787428299E-05,2.4609375,0,0
-2.32153688557446E-05,1.52707580127753E-05,2.4609375,0,0
-2.37848362303339E-05,1.50956420839066E-05,2.4609375,0,0
-2.4494333047187E-05,1.34957863338059E-05,2.4609375,0,0
-2.5953497242881E-05,1.2177205462649E-05,2.4609375,0,0
-2.24816194531741E-05,1.11419776658295E-05,2.4609375,0,0
-3.21748884744011E-05,1.62828546308447E-05,2.4609375,0,0
-2.44827751885168E-05,1.22691953947651E-05,2.4609375,0,0
-2.99523435387528E-05,1.32521490741055E-05,2.4609375,0,0
-2.47644420596771E-05,8.05441322881961E-06,2.4609375,0,0
-2.69253214355558E-05,7.06814989825943E-06,2.4609375,0,0
-2.45693627221044E-05,2.83514168586407E-06,2.4609375,0,0
-2.62206867773784E-05,8.45159775053617E-07,2.4609375,0,0
-2.53000434895512E-05,1.09620918919973E-06,2.4609375,0,0
-2.4055747417151E-05,4.15127260566805E-06,2.4609375,0,0
-2.27063701458974E-05,8.49856405693572E-06,2.4609375,0,0
-2.13850453292253E-05,1.10738592411508E-05,2.4609375,0,0
-2.35799907386536E-05,9.7155198091059E-06,2.4609375,0,0
-2.43909962591715E-05,3.37682172357745E-06,2.4609375,0,0
-2.66398783423938E-05,-1.48796630128345E-06,2.4609375,0,0
-2.58657164522447E-05,-3.11695748678176E-06,2.4609375,0,0
-2.75955535471439E-05,1.05945855466416E-06,2.4609375,0,0
-2.72609686362557E-05,4.73367754239007E-06,2.4609375,0,0
-2.87849452433875E-05,9.03604541235836E-06,2.4609375,0,0
-2.80360909528099E-05,1.13970918391715E-05,2.4609375,0,0
-2.86243084701709E-05,1.07180085251457E-05,2.4609375,0,0
-2.73185269179521E-05,6.96333654559567E-06,2.4609375,0,0
-2.71122280537384E-05,6.14889404459973E-06,2.4609375,0,0
-2.56242219620617E-05,7.58153100832715E-06,2.4609375,0,0
-2.4405318981735E-05,9.52748996496666E-06,2.4609375,0,0
-2.29205852519954E-05,1.0404379281681E-05,2.4609375,0,0
-2.25544808927225E-05,1.05373437691014E-05,2.4609375,0,0
-1.83978263521567E-05,8.5844812929281E-06,2.4609375,0,0
-2.66335428023012E-05,1.42899643833516E-05,2.4609375,0,0
-2.06903259822866E-05,1.34885685838526E-05,2.4609375,0,0
-2.52470326813636E-05,1.31065025925636E-05,2.4609375,0,0
-2.31413196161157E-05,7.1627273428021E-06,2.4609375,0,0
-2.87632865365595E-05,5.00079704579548E-06,2.4609375,0,0
-2.83604767901124E-05,1.32714842493442E-06,2.4609375,0,0
-2.78400511888321E-05,1.36096707592515E-06,2.4609375,0,0
-2.40504650719231E-05,3.84715667678392E-06,2.4609375,0,0
-2.1329804440029E-05,7.82455481385114E-06,2.4609375,0,0
-1.96323580894386E-05,1.09238926597754E-05,2.4609375,0,0
-1.81970572157297E-05,1.29162144730799E-05,2.4609375,0,0
-1.87419100257102E-05,1.46248585224384E-05,2.4609375,0,0
-1.75071781995939E-05,1.43797042255756E-05,2.4609375,0,0
-1.82962830876932E-05,1.58855655172374E-05,2.4609375,0,0
-1.72282270796131E-05,1.82094354386209E-05,2.4609375,0,0
-1.81699724635109E-05,2.12395934795495E-05,2.4609375,0,0
-1.76822613866534E-05,2.13722141779726E-05,2.4609375,0,0
-1.98585057660239E-05,2.01890234166058E-05,2.4609375,0,0
-2.07291086553596E-05,1.76034227479249E-05,2.4609375,0,0
-2.20214096771088E-05,1.70469593285816E-05,2.4609375,0,0
-2.11504193430301E-05,1.77998281287728E-05,2.4609375,0,0
-2.18145414692117E-05,1.84019954758696E-05,2.4609375,0,0
-2.25800922635244E-05,1.70025341503788E-05,2.4609375,0,0
-2.29064953600755E-05,1.56577079906128E-05,2.4609375,0,0
-2.18601016968023E-05,1.46578213389148E-05,2.4609375,0,0
-2.15970430872403E-05,1.45387657539686E-05,2.4609375,0,0
-1.64815646712668E-05,1.27963021441246E-05,2.4609375,0,0
-2.13040912058204E-05,1.85854405572172E-05,2.4609375,0,0
-1.26475742945331E-05,1.40573492899421E-05,2.4609375,0,0
-1.55110246851109E-05,1.50739888340468E-05,2.4609375,0,0
-1.09170732685016E-05,9.9652415883611E-06,2.4609375,0,0
-1.23871077448712E-05,1.17471636258415E-05,2.4609375,0,0
-1.04738064692356E-05,1.21131179184886E-05,2.4609375,0,0
-1.21678021969274E-05,1.34122619783739E-05,2.4609375,0,0
-1.2167300155852E-05,1.18824127639527E-05,2.4609375,0,0
-1.20839849842014E-05,1.14422336991993E-05,2.4609375,0,0
-1.10798109744792E-05,1.1933006135223E-05,2.4609375,0,0
-9.38093762670178E-06,1.0370838936069E-05,2.4609375,0,0
-1.10531846075901E-05,7.68363861425314E-06,2.4609375,0,0
-1.29425898194313E-05,4.88429213874042E-06,2.4609375,0,0
-1.68014794326155E-05,6.72522401146125E-06,2.4609375,0,0
-1.73541011463385E-05,8.17404907138553E-06,2.4609375,0,0
-1.85403187060729E-05,9.03079035197152E-06,2.4609375,0,0
-1.84520795301069E-05,7.00161763234064E-06,2.4609375,0,0
-2.13174334930955E-05,6.74791408528108E-06,2.4609375,0,0
-2.30331952479901E-05,5.65442678635009E-06,2.4609375,0,0
-2.53856342169456E-05,4.82708082927275E-06,2.4609375,0,0
-2.56374241871526E-05,2.97968063023291E-06,2.4609375,0,0
-2.62826742982725E-05,2.80714539258042E-06,2.4609375,0,0
-2.68772928393446E-05,3.42481712323206E-06,2.4609375,0,0
-2.9875725886086E-05,4.65917810288374E-06,2.4609375,0,0
-3.30446709995158E-05,5.54150392417796E-06,2.4609375,0,0
-3.37991332344245E-05,5.81024141865782E-06,2.4609375,0,0
-2.61221211985685E-05,4.2526094148343E-06,2.4609375,0,0
-3.65164851245936E-05,5.96712425249279E-06,2.4609375,0,0
-2.7597221560427E-05,5.99513532506535E-06,2.4609375,0,0
-3.47737659467384E-05,8.70801522978581E-06,2.4609375,0,0
-2.78836014331318E-05,7.44604585634079E-06,2.4609375,0,0
-2.96713424177142E-05,6.82955715092248E-06,2.4609375,0,0
-2.63876718236133E-05,5.79117204324575E-06,2.4609375,0,0
-2.89159888779977E-05,6.27139888820238E-06,2.4609375,0,0
-2.85707901639398E-05,7.24847632227466E-06,2.4609375,0,0
-2.95445752271917E-05,8.82489621290006E-06,2.4609375,0,0
-3.14066382998135E-05,9.13997519091936E-06,2.4609375,0,0
-3.21683473885059E-05,8.26135055831401E-06,2.4609375,0,0
-3.42232378898188E-05,8.97263180377195E-06,2.4609375,0,0
-3.43728497682605E-05,1.02743561001262E-05,2.4609375,0,0
-3.77877477149013E-05,1.22255087262602E-05,2.4609375,0,0
-3.74643132090569E-05,1.26555987662869E-05,2.4609375,0,0
-3.91044159187004E-05,1.22350893434486E-05,2.4609375,0,0
-3.80041637981776E-05,1.05161789178965E-05,2.4609375,0,0
-4.09145613957662E-05,9.14436532184482E-06,2.4609375,0,0
-4.23494348069653E-05,7.87278804637026E-06,2.4609375,0,0
-4.53304201073479E-05,8.36126037029317E-06,2.4609375,0,0
-4.48127539129928E-05,9.84862072073156E-06,2.4609375,0,0
-4.38768620369956E-05,9.8652635642793E-06,2.4609375,0,0
-4.06569888582453E-05,7.49180571801844E-06,2.4609375,0,0
-3.75892050215043E-05,5.71535929339007E-06,2.4609375,0,0
-3.39237085427158E-05,6.22180505160941E-06,2.4609375,0,0
-3.12971715175081E-05,9.01714793144492E-06,2.4609375,0,0
-2.35759234783472E-05,8.56874339660862E-06,2.4609375,0,0
-3.22721352858935E-05,1.14113163363072E-05,2.4609375,0,0
-2.24277737288503E-05,8.39073891256703E-06,2.4609375,0,0
-2.67365066974889E-05,1.22676583487191E-05,2.4609375,0,0
-1.95533375517698E-05,1.02074372989591E-05,2.4609375,0,0
-2.02936116693309E-05,1.06123206933262E-05,2.4609375,0,0
-1.55845827976009E-05,9.06066543393536E-06,2.4609375,0,0
-1.66427689691773E-05,7.4238628258172E-06,2.4609375,0,0
-1.63383629114833E-05,7.03312844052562E-06,2.4609375,0,0
-1.59585233632242E-05,9.34680156206014E-06,2.4609375,0,0
-1.56326677824836E-05,1.15611173896468E-05,2.4609375,0,0
-1.53813816723414E-05,1.24438929560711E-05,2.4609375,0,0
-1.7880887753563E-05,1.31853166749352E-05,2.4609375,0,0
-1.69912746059708E-05,1.35903346745181E-05,2.4609375,0,0
-1.74378819792764E-05,1.62895303219557E-05,2.4609375,0,0
-1.62682390509872E-05,1.74120195879368E-05,2.4609375,0,0
-1.85509270522743E-05,1.66022618941497E-05,2.4609375,0,0
-1.76636003743624E-05,1.46494639921002E-05,2.4609375,0,0
-1.8482212908566E-05,1.47960590766161E-05,2.4609375,0,0
-1.6631882317597E-05,1.45951526064891E-05,2.4609375,0,0
-1.61369498528074E-05,1.51827798617887E-05,2.4609375,0,0
-1.4798898519075E-05,1.39928088174202E-05,2.4609375,0,0
-1.5714431356173E-05,1.2335358405835E-05,2.4609375,0,0
-1.64907414728077E-05,1.27945922940853E-05,2.4609375,0,0
-1.83373031177325E-05,1.44915047712857E-05,2.4609375,0,0
-1.87365621968638E-05,1.32046952785458E-05,2.4609375,0,0
-1.81989144039107E-05,1.13422929644003E-05,2.4609375,0,0
-1.59748142323224E-05,8.99166479939595E-06,2.4609375,0,0
-2.23298975470243E-05,1.44765317600104E-05,2.4609375,0,0
-1.55321868078317E-05,1.41178352350835E-05,2.4609375,0,0
-1.8447843103786E-05,1.72543332155328E-05,2.4609375,0,0
-1.65133169502951E-05,1.58506354637211E-05,2.4609375,0,0
-2.03498784685507E-05,1.71681240317412E-05,2.4609375,0,0
-2.13692910620011E-05,1.35697664518375E-05,2.4609375,0,0
-2.54277565545635E-05,1.03361990113626E-05,2.4609375,0,0
-2.65012095042039E-05,9.53915878199041E-06,2.4609375,0,0
-2.7441667043604E-05,1.09579386844416E-05,2.4609375,0,0
-2.8081292839488E-05,1.15650027510128E-05,2.4609375,0,0
-2.71368135145167E-05,1.2262041309441E-05,2.4609375,0,0
-2.68731891992502E-05,1.42195567605086E-05,2.4609375,0,0
-2.50684279308189E-05,1.55623001774075E-05,2.4609375,0,0
-2.5991374059231E-05,1.70381499629002E-05,2.4609375,0,0
-2.64729114860529E-05,1.56736896315124E-05,2.4609375,0,0
-2.84320558421314E-05,1.41103337227833E-05,2.4609375,0,0
-2.74520170933101E-05,1.23080280900467E-05,2.4609375,0,0
-2.77422732324339E-05,1.3797804058413E-05,2.4609375,0,0
-2.68242019956233E-05,1.56332953338278E-05,2.4609375,0,0
-2.62694356933935E-05,1.66124573297566E-05,2.4609375,0,0
-2.33334412769182E-05,1.64099419635022E-05,2.4609375,0,0
-2.21139835048234E-05,1.78110240085516E-05,2.4609375,0,0
-2.24547584366519E-05,1.82486764970236E-05,2.4609375,0,0
-2.40680074057309E-05,1.7877078789752E-05,2.4609375,0,0
-2.53655380220152E-05,1.671924655966E-05,2.4609375,0,0
-2.73781461146427E-05,1.53267192217754E-05,2.4609375,0,0
-2.38169177464442E-05,1.07437344922801E-05,2.4609375,0,0
-3.45313310390338E-05,1.50385676533915E-05,2.4609375,0,0
-2.7895583116333E-05,1.23935687952326E-05,2.4609375,0,0
-3.47026289091446E-05,1.70101993717253E-05,2.4609375,0,0
-2.98890045087319E-05,1.4415545592783E-05,2.4609375,0,0
-3.25803412124515E-05,1.6252448403975E-05,2.4609375,0,0
-2.78207426163135E-05,1.69187460414832E-05,2.4609375,0,0
-2.60846572928131E-05,1.97693989321124E-05,2.4609375,0,0
-2.19719458982581E-05,2.09872978302883E-05,2.4609375,0,0
-2.07131706702057E-05,1.859198891907E-05,2.4609375,0,0
-2.11763926927233E-05,1.47979817484156E-05,2.4609375,0,0
-2.07360808417434E-05,1.33365874717128E-05,2.4609375,0,0
-2.10657563002314E-05,1.23982781587983E-05,2.4609375,0,0
-1.89270231203409E-05,9.12504765437916E-06,2.4609375,0,0
-1.91165054275189E-05,1.02368467196357E-05,2.4609375,0,0
-1.66087756952038E-05,1.3516981198336E-05,2.4609375,0,0
-1.71810988831567E-05,1.59113569679903E-05,2.4609375,0,0
-1.59165028890129E-05,1.33340936372406E-05,2.4609375,0,0
-1.75418172148056E-05,1.18993111755117E-05,2.8125,0,0
-1.6150866940734E-05,1.26522663776996E-05,2.8125,0,0
-1.64610264619114E-05,1.50681316881673E-05,2.8125,0,0
-1.62477990670595E-05,1.44076302603935E-05,2.8125,0,0
-1.88373178389156E-05,1.16086566777085E-05,2.8125,0,0
-2.12213926715776E-05,7.69976395531558E-06,2.8125,0,0
-2.394010698481E-05,5.44038994121365E-06,2.8125,0,0
-2.39968067035079E-05,5.27763268109993E-06,2.8125,0,0
-2.24674186029006E-05,8.69127143232618E-06,2.8125,0,0
-1.71820029208902E-05,1.11786066554487E-05,2.8125,0,0
-2.47504140133969E-05,1.57189333549468E-05,2.8125,0,0
-1.94353524420876E-05,1.01518535302603E-05,2.8125,0,0
-2.29615870921407E-05,1.02979174698703E-05,2.8125,0,0
-1.83504707820248E-05,5.90419404034037E-06,2.8125,0,0
-2.06764907488832E-05,5.37294408786693E-06,2.8125,0,0
-1.87525183719117E-05,2.55053578257503E-06,2.8125,0,0
-2.07619086722843E-05,2.48787614509638E-06,2.8125,0,0
-2.26006250159116E-05,3.69139979738975E-06,2.8125,0,0
-2.47115112870233E-05,4.89877720610821E-06,2.8125,0,0
-2.64735845121322E-05,4.01904890168225E-06,2.8125,0,0
-2.68280382442754E-05,3.43046326634067E-06,2.8125,0,0
-2.86538088403177E-05,6.57106375001604E-06,2.8125,0,0
-2.83357712760335E-05,9.00549639482051E-06,2.8125,0,0
-2.94453493552282E-05,1.06653524198919E-05,2.8125,0,0
-2.90041316475254E-05,9.98033101495821E-06,2.8125,0,0
-3.02193457173416E-05,1.08175254354137E-05,2.8125,0,0
-2.94487872452009E-05,9.43622399063315E-06,2.8125,0,0
-3.03971319226548E-05,7.581095360365E-06,2.8125,0,0
-3.04162404063391E-05,6.70802637614543E-06,2.8125,0,0
-3.22917767334729E-05,9.51404490479035E-06,2.8125,0,0
-3.21740117215086E-05,1.00777360785287E-05,2.8125,0,0
-3.22133746522013E-05,6.54614314044011E-06,2.8125,0,0
-3.1671912438469E-05,1.33076810016064E-06,2.8125,0,0
-2.98123213724466E-05,1.5655251672797E-07,2.8125,0,0
-2.68479107035091E-05,2.73440355158527E-06,2.8125,0,0
-2.62206340266857E-05,5.90566105529433E-06,2.8125,0,0
-2.23279876081506E-05,5.86922578804661E-06,2.8125,0,0
-3.13408600050025E-05,6.99080328558921E-06,2.8125,0,0
-2.15930831473088E-05,3.81598420062801E-06,2.8125,0,0
-2.57870651694248E-05,5.68079622098594E-06,2.8125,0,0
-2.16777007153723E-05,5.57405201107031E-06,2.8125,0,0
-2.54595561273163E-05,7.38389326215838E-06,2.8125,0,0
-2.41509660554584E-05,6.11560699326219E-06,2.8125,0,0
-2.4960883820313E-05,6.33988020126708E-06,2.8125,0,0
-2.2862215701025E-05,7.64067317504669E-06,2.8125,0,0
-2.28047865675762E-05,9.68652602750808E-06,2.8125,0,0
-2.32482416322455E-05,1.20659424283076E-05,2.8125,0,0
-2.29991110245464E-05,1.52807842823677E-05,2.8125,0,0
-2.42733513005078E-05,1.69693212228594E-05,2.8125,0,0
-2.24534596782178E-05,1.2398623766785E-05,2.8125,0,0
-2.26469055633061E-05,4.69121141577489E-06,2.8125,0,0
-2.16928929148708E-05,-3.11511712425272E-06,2.8125,0,0
-2.43176345975371E-05,-4.44760325990501E-06,2.8125,0,0
-2.49633485509548E-05,-5.73592217278929E-07,2.8125,0,0
-2.78300321951974E-05,5.77211221752805E-06,2.8125,0,0
-2.84626148641109E-05,1.0455665687914E-05,2.8125,0,0
-2.93495650112163E-05,1.39769781526411E-05,2.8125,0,0
-2.68095791398082E-05,1.52683387568686E-05,2.8125,0,0
-2.51813271461288E-05,1.443209930585E-05,2.8125,0,0
-2.35198767768452E-05,1.1910511602764E-05,2.8125,0,0
-2.24254818022018E-05,1.04652071968303E-05,2.8125,0,0
-2.18973764276598E-05,9.10621474758955E-06,2.8125,0,0
-2.30534151341999E-05,8.41296969156247E-06,2.8125,0,0
-1.97654244402656E-05,7.35072899260558E-06,2.8125,0,0
-2.75080092251301E-05,1.21622688311618E-05,2.8125,0,0
-2.03958752535982E-05,1.2213026820973E-05,2.8125,0,0
-2.71956923825201E-05,1.32920331452624E-05,2.8125,0,0
-2.53382459050044E-05,9.64591345109511E-06,2.8125,0,0
-2.86620779661462E-05,1.10129203676479E-05,2.8125,0,0
-2.66605893557426E-05,1.17722784125363E-05,2.8125,0,0
-2.80688018392539E-05,1.26036820802256E-05,2.8125,0,0
-2.72831930487882E-05,1.15535804070532E-05,2.8125,0,0
-2.57764186244458E-05,1.01270798040787E-05,2.8125,0,0
-2.47243333433289E-05,8.04307546786731E-06,2.8125,0,0
-2.44283874053508E-05,6.49786079520709E-06,2.8125,0,0
-2.66225979430601E-05,7.2301104410144E-06,2.8125,0,0
-2.57351221080171E-05,8.19343040348031E-06,2.8125,0,0
-2.58425534411799E-05,9.71522968029603E-06,2.8125,0,0
-2.42714413616341E-05,1.03781758298283E-05,2.8125,0,0
-2.53317812166642E-05,1.14260710688541E-05,2.8125,0,0
-2.36206487898016E-05,1.08705789898522E-05,2.8125,0,0
-2.28398512263084E-05,1.04118025774369E-05,2.8125,0,0
-1.98376728803851E-05,8.91128274815856E-06,2.8125,0,0
-1.85615772352321E-05,8.31108627608046E-06,2.8125,0,0
-1.73940989043331E-05,7.7314307418419E-06,2.8125,0,0
-1.79935359483352E-05,7.53991253077402E-06,2.8125,0,0
-1.78020200110041E-05,6.81401297697448E-06,2.8125,0,0
-1.79228409251664E-05,7.52665482650627E-06,2.8125,0,0
-1.7986174498219E-05,1.00822471722495E-05,2.8125,0,0
-1.74516808328917E-05,1.27351304399781E-05,2.8125,0,0
-1.37823926706915E-05,1.12943125714082E-05,2.8125,0,0
-2.03029176191194E-05,1.71198607858969E-05,2.8125,0,0
-1.69575159816304E-05,1.42686440085527E-05,2.8125,0,0
-2.15828767977655E-05,1.71962401509518E-05,2.8125,0,0
-1.97164772544056E-05,1.45453059303691E-05,2.8125,0,0
-2.12306949833874E-05,1.5872410585871E-05,2.8125,0,0
-1.98650577658555E-05,1.42515327752335E-05,2.8125,0,0
-2.24444283958292E-05,1.32870445668232E-05,2.8125,0,0
-2.46077597694239E-05,1.2588572644745E-05,2.8125,0,0
-2.66039241978433E-05,1.33082185129751E-05,2.8125,0,0
-2.79553041764302E-05,1.38777031679638E-05,2.8125,0,0
-2.9114735298208E-05,1.37574788823258E-05,2.8125,0,0
-3.07759692077525E-05,1.40067832035129E-05,2.8125,0,0
-2.98376999126049E-05,1.29093496070709E-05,2.8125,0,0
-2.98960603686282E-05,1.30115395222674E-05,2.8125,0,0
-2.81666707451222E-05,1.25004362416803E-05,2.8125,0,0
-2.66728839051211E-05,1.2226100807311E-05,2.8125,0,0
-2.30685036513023E-05,1.01866198747302E-05,2.8125,0,0
-2.16919961530948E-05,9.39241272135405E-06,2.8125,0,0
-2.05376927624457E-05,6.65516154185752E-06,2.8125,0,0
-2.19173853110988E-05,5.21942956765997E-06,2.8125,0,0
-2.19127778109396E-05,5.93528511672048E-06,2.8125,0,0
-2.0040253730258E-05,9.14221891434863E-06,2.8125,0,0
-1.7177962945425E-05,1.07497735370998E-05,2.8125,0,0
-1.78227564902045E-05,1.01475889096037E-05,2.8125,0,0
-1.92613078979775E-05,9.27756354940357E-06,2.8125,0,0
-2.02005630853819E-05,9.62409194471547E-06,2.8125,0,0
-1.79632552317344E-05,7.90057856647763E-06,2.8125,0,0
-2.46296531258849E-05,9.77223044174025E-06,2.8125,0,0
-1.64831490110373E-05,4.81569122712244E-06,2.8125,0,0
-2.0856348783127E-05,6.66292407913716E-06,2.8125,0,0
-1.94121475942666E-05,5.278593107505E-06,2.8125,0,0
-2.41383550019236E-05,6.62194088363322E-06,2.8125,0,0
-2.34512972383527E-05,6.05607192483149E-06,2.8125,0,0
-2.52592108154204E-05,5.18322258358239E-06,2.8125,0,0
-2.48613341682358E-05,3.7741849610029E-06,2.8125,0,0
-2.56779567280319E-05,3.22086884807504E-06,2.8125,0,0
-2.69679294433445E-05,3.18602747029217E-06,2.8125,0,0
-2.65001817751909E-05,3.54675580638286E-06,2.8125,0,0
-2.68181011051638E-05,4.52754375146469E-06,2.8125,0,0
-2.51107358053559E-05,5.11140433445689E-06,2.8125,0,0
-2.40090030274587E-05,7.1572367232875E-06,2.8125,0,0
-1.93988034880022E-05,8.81653613760136E-06,2.8125,0,0
-1.76114335772581E-05,1.17314721137518E-05,2.8125,0,0
-1.54344943439355E-05,1.18141006169026E-05,2.8125,0,0
-1.48281260408112E-05,9.92247805697843E-06,2.8125,0,0
-1.2138672900619E-05,8.07545802672394E-06,2.8125,0,0
-1.16629989861394E-05,9.64573973760707E-06,2.8125,0,0
-1.12087955130846E-05,1.19562782856519E-05,2.8125,0,0
-1.1674412235152E-05,1.35417831188533E-05,2.8125,0,0
-1.22117016871925E-05,1.31068190967198E-05,2.8125,0,0
-1.46637503348757E-05,1.27452194647049E-05,2.8125,0,0
-1.61655771080405E-05,1.27087041619234E-05,2.8125,0,0
-1.66292320500361E-05,1.17370045700227E-05,2.8125,0,0
-1.43246334118885E-05,8.03147031547269E-06,2.8125,0,0
-2.16046810237458E-05,1.01038995126146E-05,2.8125,0,0
-1.78036680154037E-05,6.66487994749332E-06,2.8125,0,0
-2.07048233278329E-05,9.0249841377954E-06,2.8125,0,0
-1.70576986420201E-05,7.28788609194453E-06,2.8125,0,0
-1.84958989848383E-05,9.40945028560236E-06,2.8125,0,0
-1.76425455720164E-05,8.61162607179722E-06,2.8125,0,0
-1.87035693670623E-05,8.46397506393259E-06,2.8125,0,0
-1.79560083779506E-05,7.96953645476606E-06,2.8125,0,0
-1.81981849891599E-05,8.42070676299045E-06,2.8125,0,0
-1.92438492376823E-05,8.99624410521938E-06,2.8125,0,0
-2.00497852347326E-05,9.73735677689547E-06,2.8125,0,0
-2.17573269765126E-05,1.01776604424231E-05,2.8125,0,0
-2.17012457142118E-05,8.35498576634564E-06,2.8125,0,0
-2.27276668738341E-05,7.79363108449616E-06,2.8125,0,0
-2.33042901527369E-05,6.77872685628245E-06,2.8125,0,0
-2.68380954366876E-05,7.48200682210154E-06,2.8125,0,0
-2.84870329778641E-05,8.61047101352597E-06,2.8125,0,0
-2.95214631478302E-05,1.11693361759535E-05,2.8125,0,0
-2.89912350126542E-05,1.21641060104594E-05,2.8125,0,0
-3.17816738970578E-05,1.29344643937657E-05,2.8125,0,0
-3.52023380401079E-05,1.22276542242616E-05,2.8125,0,0
-3.81517857022118E-05,1.2542251170089E-05,2.8125,0,0
-3.84128725272603E-05,1.29016407299787E-05,2.8125,0,0
-3.87402797059622E-05,1.23348081615404E-05,2.8125,0,0
-4.16346301790327E-05,1.1233295481361E-05,2.8125,0,0
-4.65118610009085E-05,1.06389634311199E-05,2.8125,0,0
-3.92879301216453E-05,8.58717703522416E-06,2.8125,0,0
-5.41421104571782E-05,1.32339091578615E-05,2.8125,0,0
-3.66072345059365E-05,1.2346386029094E-05,2.8125,0,0
-4.39189861936029E-05,1.41685713970219E-05,2.8125,0,0
-3.45272019330878E-05,1.15774992082152E-05,2.8125,0,0
-3.93075206375215E-05,1.45194562719553E-05,2.8125,0,0
-3.38606878358405E-05,1.46741895150626E-05,2.8125,0,0
-3.57682220055722E-05,1.47492064570542E-05,2.8125,0,0
-3.38252866640687E-05,1.36074668262154E-05,2.8125,0,0
-3.28431597154122E-05,1.17298204713734E-05,2.8125,0,0
-3.14769240503665E-05,9.84265261649853E-06,2.8125,0,0
-2.77849558187881E-05,9.63778165896656E-06,2.8125,0,0
-2.74529247690225E-05,1.20072691061068E-05,2.8125,0,0
-2.39786495512817E-05,1.47207583722775E-05,2.8125,0,0
-2.55715403909562E-05,1.85442131623859E-05,2.8125,0,0
-2.39286800933769E-05,2.01845887204399E-05,2.8125,0,0
-2.67121267825132E-05,2.10833004530286E-05,2.8125,0,0
-2.44114326051204E-05,1.89294551091734E-05,2.8125,0,0
-2.55671966442605E-05,1.69945305970032E-05,2.8125,0,0
-2.42239239014452E-05,1.59132523549488E-05,2.8125,0,0
-2.76071496045915E-05,1.64380471687764E-05,2.8125,0,0
-2.78897168755066E-05,1.46863494592253E-05,2.8125,0,0
-2.75897837127559E-05,1.17925828817533E-05,2.8125,0,0
-2.35984334722161E-05,9.77504896582104E-06,2.8125,0,0
-2.08883448067354E-05,1.03533557194169E-05,2.8125,0,0
-1.89718793990323E-05,1.22692954391823E-05,2.8125,0,0
-1.88772664841963E-05,1.57949798449408E-05,2.8125,0,0
-1.7101330740843E-05,1.55107736645732E-05,2.8125,0,0
-2.4893568479456E-05,2.29907018365338E-05,2.8125,0,0
-1.94128606381128E-05,1.91534836631035E-05,2.8125,0,0
-2.27796863327967E-05,2.25219064304838E-05,2.8125,0,0
-1.86310280696489E-05,1.76182784343837E-05,2.8125,0,0
-1.98089310288196E-05,1.77807651198236E-05,2.8125,0,0
-1.82381281774724E-05,1.308908485953E-05,2.8125,0,0
-2.03265954041854E-05,1.22227802421548E-05,2.8125,0,0
-2.17912001971854E-05,1.23250529213692E-05,2.8125,0,0
-2.25145558943041E-05,1.40391239256132E-05,2.8125,0,0
-2.26851152547169E-05,1.46838492582901E-05,2.8125,0,0
-2.25950498133898E-05,1.35825457618921E-05,2.8125,0,0
-2.37933345488273E-05,1.30033140521846E-05,2.8125,0,0
-2.21495629375568E-05,1.12989919216488E-05,2.8125,0,0
-2.10003618121846E-05,1.11952167571872E-05,2.8125,0,0
-1.85197113751201E-05,8.29896271170583E-06,2.8125,0,0
-1.90722166735213E-05,6.27294912192156E-06,2.8125,0,0
-1.96530545508722E-05,1.1992887039014E-06,2.8125,0,0
-2.23665610974422E-05,-4.35673382526147E-06,2.8125,0,0
-2.17529031942831E-05,-1.10873661469668E-05,2.8125,0,0
-2.04049501917325E-05,-1.34810088638915E-05,2.8125,0,0
-1.80789393198211E-05,-1.33593175632996E-05,2.8125,0,0
-1.78129339474253E-05,-8.74562920216704E-06,2.8125,0,0
-1.77870479092235E-05,-2.33829132412211E-06,2.8125,0,0
-1.78097343450645E-05,6.80698622090858E-06,2.8125,0,0
-1.82503263204126E-05,1.4768069377169E-05,2.8125,0,0
-2.00807189685293E-05,1.81800714926794E-05,2.8125,0,0
-1.6480014892295E-05,1.53950768435607E-05,2.8125,0,0
-2.14365136343986E-05,2.26457304961514E-05,2.8125,0,0
-1.42301241794485E-05,1.88341891771415E-05,2.8125,0,0
-1.90715290955268E-05,2.27780856221216E-05,2.8125,0,0
-1.48199987961561E-05,1.84624077519402E-05,2.8125,0,0
-1.5765122952871E-05,1.81223440449685E-05,2.8125,0,0
-1.31054948724341E-05,1.2813711691706E-05,2.8125,0,0
-1.35616473926348E-05,1.12799880298553E-05,2.8125,0,0
-1.31433798742364E-05,1.06527322714101E-05,2.8125,0,0
-1.50467049024883E-05,1.25450351333711E-05,2.8125,0,0
-1.79317539732438E-05,1.50227924677893E-05,2.8125,0,0
-1.97124263650039E-05,1.59265218826476E-05,2.8125,0,0
-2.19474713958334E-05,1.59645878738957E-05,2.8125,0,0
-2.13833336601965E-05,1.37765155159286E-05,2.8125,0,0
-2.20086421904853E-05,1.37696215460892E-05,2.8125,0,0
-2.14462434087181E-05,1.10440068965545E-05,2.8125,0,0
-2.36718624364585E-05,7.56384133637766E-06,2.8125,0,0
-2.35166862694314E-05,2.30334808293264E-06,2.8125,0,0
-2.4665821911185E-05,2.18318223232927E-06,2.8125,0,0
-2.41586858464871E-05,5.0691651267698E-06,2.8125,0,0
-2.41457983065629E-05,1.14477861643536E-05,2.8125,0,0
-2.26256561290938E-05,1.49053985296632E-05,2.8125,0,0
-2.21894097194308E-05,1.50595042214263E-05,2.8125,0,0
-2.1633210053551E-05,1.14064896479249E-05,3.515625,0,0
-2.26371685130289E-05,6.43118346488336E-06,3.515625,0,0
-2.30228451982839E-05,3.43151054948976E-06,3.515625,0,0
-2.29355064220726E-05,3.56069335794018E-06,3.515625,0,0
-1.86567285709316E-05,5.50241338714841E-06,3.515625,0,0
-2.65071794274263E-05,1.12327988972538E-05,3.515625,0,0
-2.0716381186503E-05,1.49080769915599E-05,3.515625,0,0
-2.65087182924617E-05,1.82035710167838E-05,3.515625,0,0
-2.36291489272844E-05,1.69200266100233E-05,3.515625,0,0
-2.71706448984332E-05,1.70834118762286E-05,3.515625,0,0
-2.54431888606632E-05,1.74236392922467E-05,3.515625,0,0
-2.68992589553818E-05,1.69475169968791E-05,3.515625,0,0
-2.67695486400044E-05,1.55064753926126E-05,3.515625,0,0
-2.63064903265331E-05,1.42628041430726E-05,3.515625,0,0
-2.630573726492E-05,1.30859671116923E-05,3.515625,0,0
-2.68450039584422E-05,1.27583361972938E-05,3.515625,0,0
-2.89192339550937E-05,1.26640288726776E-05,3.515625,0,0
-2.84094639937393E-05,1.20139729915536E-05,3.515625,0,0
-2.92203221761156E-05,1.24684274851461E-05,3.515625,0,0
-2.84240832115756E-05,1.12338848339277E-05,3.515625,0,0
-3.00203009828692E-05,9.93201774690533E-06,3.515625,0,0
-2.97545302601065E-05,9.91698470897973E-06,3.515625,0,0
-3.15030665660743E-05,1.14860158646479E-05,3.515625,0,0
-3.10421200993005E-05,1.2880267604487E-05,3.515625,0,0
-3.18953898386098E-05,1.42505987241748E-05,3.515625,0,0
-3.22366358886939E-05,1.42788912853575E-05,3.515625,0,0
-3.36564335157163E-05,1.3113238310325E-05,3.515625,0,0
-3.38060890499037E-05,1.11255467345472E-05,3.515625,0,0
-3.35240038111806E-05,1.16110577437212E-05,3.515625,0,0
-3.2439569622511E-05,1.4184075553203E-05,3.515625,0,0
-3.27633933920879E-05,1.62588639796013E-05,3.515625,0,0
-2.74935409834143E-05,1.27746525322436E-05,3.515625,0,0
-3.94919698010199E-05,1.70314397109905E-05,3.515625,0,0
-2.94730689347489E-05,1.27537623484386E-05,3.515625,0,0
-3.53681789420079E-05,1.68764217960415E-05,3.515625,0,0
-2.92414242721861E-05,1.13301030069124E-05,3.515625,0,0
-3.31037263094913E-05,1.15205566544319E-05,3.515625,0,0
-3.11635703837965E-05,1.18205180115183E-05,3.515625,0,0
-3.50275004166178E-05,1.59238661581185E-05,3.515625,0,0
-3.74453738913871E-05,1.8697879568208E-05,3.515625,0,0
-3.91717803722713E-05,2.01656403078232E-05,3.515625,0,0
-3.90631430491339E-05,1.99273745238315E-05,3.515625,0,0
-3.70975030818954E-05,1.77528108906699E-05,3.515625,0,0
-3.779156395467E-05,1.5683861420257E-05,3.515625,0,0
-3.63553335773759E-05,1.28931351355277E-05,3.515625,0,0
-3.74944575014524E-05,1.3876619959774E-05,3.515625,0,0
-3.65082269127015E-05,1.59575993166072E-05,3.515625,0,0
-3.85401726816781E-05,1.84063428605441E-05,3.515625,0,0
-3.5929748264607E-05,1.78519221663009E-05,3.515625,0,0
-3.43622305081226E-05,1.84210257430095E-05,3.515625,0,0
-3.10559371428099E-05,1.62882533913944E-05,3.515625,0,0
-3.17837075272109E-05,1.46866250361199E-05,3.515625,0,0
-3.14799654006492E-05,1.32677978399443E-05,3.515625,0,0
-3.1166804546956E-05,1.27141511256923E-05,3.515625,0,0
-2.86552931356709E-05,1.18888028737274E-05,3.515625,0,0
-2.65714807028417E-05,1.24217667689663E-05,3.515625,0,0
-2.46552444878034E-05,1.24455473269336E-05,3.515625,0,0
-2.43304020841606E-05,1.04442397059756E-05,3.515625,0,0
-1.75880595634226E-05,6.42173927190015E-06,3.515625,0,0
-2.13887487916509E-05,9.07278990780469E-06,3.515625,0,0
-1.1111430467281E-05,7.83940049586818E-06,3.515625,0,0
-1.3158592992113E-05,9.07777393877041E-06,3.515625,0,0
-6.74425427860115E-06,5.71559894524398E-06,3.515625,0,0
-8.09977427707054E-06,7.57197813072708E-06,3.515625,0,0
-4.87375109514687E-06,8.15904968476389E-06,3.515625,0,0
-4.55896315543214E-06,7.08856669007218E-06,3.515625,0,0
-1.9729993709916E-06,5.36009838469909E-06,3.515625,0,0
-1.02918193078949E-06,4.80039398098597E-06,3.515625,0,0
-2.67964264821785E-06,4.89625244881609E-06,3.515625,0,0
-3.4952322494064E-06,5.27642760062008E-06,3.515625,0,0
-4.87585748487618E-06,7.0847268034413E-06,3.515625,0,0
-4.97448399983114E-06,7.73874126025476E-06,3.515625,0,0
-8.10568599263206E-06,9.2015534391976E-06,3.515625,0,0
-9.01982366485754E-06,1.04946639112313E-05,3.515625,0,0
-1.05283925222466E-05,1.21316334116273E-05,3.515625,0,0
-9.52818572841352E-06,1.27044286273303E-05,3.515625,0,0
-1.21874090837082E-05,1.35871032398427E-05,3.515625,0,0
-1.47365490192897E-05,1.34357733259094E-05,3.515625,0,0
-1.88917056220816E-05,1.25250653582043E-05,3.515625,0,0
-2.18941659113625E-05,1.08443364297273E-05,3.515625,0,0
-2.58662221312989E-05,9.63213460636325E-06,3.515625,0,0
-2.71899734798353E-05,6.0196057347639E-06,3.515625,0,0
-2.72044126177207E-05,1.77162939962727E-06,3.515625,0,0
-2.77174494840438E-05,7.34349839603965E-07,3.515625,0,0
-3.03162469208473E-05,1.50058269809961E-06,3.515625,0,0
-2.53108610195341E-05,1.92979860003106E-06,3.515625,0,0
-3.53497234755196E-05,3.21133484249003E-06,3.515625,0,0
-2.67178802459966E-05,2.34558342526725E-06,3.515625,0,0
-3.36668636009563E-05,1.66364316100953E-06,3.515625,0,0
-2.76505925285164E-05,1.55613815877587E-06,3.515625,0,0
-3.06070869555697E-05,2.88262253889116E-06,3.515625,0,0
-2.67435316345654E-05,3.84266513719922E-06,3.515625,0,0
-2.66807146545034E-05,4.24413019572967E-06,3.515625,0,0
-2.46635136136319E-05,5.51990751773701E-06,3.515625,0,0
-2.48927826760337E-05,6.66486266709398E-06,3.515625,0,0
-2.53179860010277E-05,5.78255958316731E-06,3.515625,0,0
-2.3699225494056E-05,5.20977619089535E-06,3.515625,0,0
-2.34118651860626E-05,5.21631727679051E-06,3.515625,0,0
-2.03217205125839E-05,5.31760770172696E-06,3.515625,0,0
-1.91281997103943E-05,6.55947678751545E-06,3.515625,0,0
-1.42686121762381E-05,8.31839861348271E-06,3.515625,0,0
-1.19997284855344E-05,8.28842985356459E-06,3.515625,0,0
-8.02387876319699E-06,5.70121710552485E-06,3.515625,0,0
-8.00105044618249E-06,3.52847268914047E-06,3.515625,0,0
-6.25836901235743E-06,3.09976030621328E-06,3.515625,0,0
-6.77760272083106E-06,4.09593712902279E-06,3.515625,0,0
-5.72412318433635E-06,5.76835145693622E-06,3.515625,0,0
-6.61058766127098E-06,7.83613450039411E-06,3.515625,0,0
-7.12340442987625E-06,8.10690289654303E-06,3.515625,0,0
-9.03323871170869E-06,7.08788002157235E-06,3.515625,0,0
-1.0693811418605E-05,7.49097853258718E-06,3.515625,0,0
-1.29599548017723E-05,9.83214158623014E-06,3.515625,0,0
-1.35318714455934E-05,8.28719112178078E-06,3.515625,0,0
-2.12072300200816E-05,1.11651825136505E-05,3.515625,0,0
-1.85960434464505E-05,8.02423801360419E-06,3.515625,0,0
-2.29316210607067E-05,1.08317144622561E-05,3.515625,0,0
-2.30148725677282E-05,9.15772761800326E-06,3.515625,0,0
-2.61778604908613E-05,1.0432893759571E-05,3.515625,0,0
-2.55333634413546E-05,1.01933010228095E-05,3.515625,0,0
-2.6979696485796E-05,1.20919066830538E-05,3.515625,0,0
-2.79311643680558E-05,1.33465118778986E-05,3.515625,0,0
-2.91618125629611E-05,1.29418867800268E-05,3.515625,0,0
-3.00341253023362E-05,9.74877730186563E-06,3.515625,0,0
-2.99171442748047E-05,7.30292731532245E-06,3.515625,0,0
-2.9711796742049E-05,8.33628473628778E-06,3.515625,0,0
-2.82471391983563E-05,9.70687142398674E-06,3.515625,0,0
-2.94255751214223E-05,1.06775869426201E-05,3.515625,0,0
-3.06199071928859E-05,8.37686820887029E-06,3.515625,0,0
-3.32905365212355E-05,7.42618885851698E-06,3.515625,0,0
-3.41336854035035E-05,9.36441756493878E-06,3.515625,0,0
-3.52134629792999E-05,1.42363960549119E-05,3.515625,0,0
-3.43785577570088E-05,1.60886211233446E-05,3.515625,0,0
-3.5063912946498E-05,1.47529144669534E-05,3.515625,0,0
-3.62279351975303E-05,1.10976607174962E-05,3.515625,0,0
-3.87262007279787E-05,8.88668819243321E-06,3.515625,0,0
-4.04583588533569E-05,7.9353394539794E-06,3.515625,0,0
-4.11829350923654E-05,9.20110232982552E-06,3.515625,0,0
-4.06892941100523E-05,9.98100404103752E-06,3.515625,0,0
-3.93470436392818E-05,9.0798748715315E-06,3.515625,0,0
-2.97803726425627E-05,5.7290744734928E-06,3.515625,0,0
-4.00482822442427E-05,6.93378433425096E-06,3.515625,0,0
-2.83239642158151E-05,5.49872993360623E-06,3.515625,0,0
-3.76363786926959E-05,9.19838839763543E-06,3.515625,0,0
-3.1123825465329E-05,8.07983997219708E-06,3.515625,0,0
-3.46029810316395E-05,9.24768028198741E-06,3.515625,0,0
-3.06927504425403E-05,9.41798225539969E-06,3.515625,0,0
-3.20943909173366E-05,9.03096224647015E-06,3.515625,0,0
-3.12428346660454E-05,8.17115960671799E-06,3.515625,0,0
-3.21117113344371E-05,9.36230844672536E-06,3.515625,0,0
-3.25998807966243E-05,1.11013869172893E-05,3.515625,0,0
-3.08859671349637E-05,1.16708079076489E-05,3.515625,0,0
-3.23094609484542E-05,1.06433508335613E-05,3.515625,0,0
-3.21236839226913E-05,8.36702747619711E-06,3.515625,0,0
-3.41464365192223E-05,8.93027754500508E-06,3.515625,0,0
-3.03792548947968E-05,1.15173888843856E-05,3.515625,0,0
-2.92749427899253E-05,1.48431336128851E-05,3.515625,0,0
-2.57287101703696E-05,1.6031877748901E-05,3.515625,0,0
-2.55991890298901E-05,1.62769028975163E-05,3.515625,0,0
-2.28042281378293E-05,1.48644539876841E-05,3.515625,0,0
-2.18645382119576E-05,1.34447791424464E-05,3.515625,0,0
-1.78876216523349E-05,1.10718046926195E-05,3.515625,0,0
-1.72668260347564E-05,9.00775376067031E-06,3.515625,0,0
-1.71481951838359E-05,7.33256138119032E-06,3.515625,0,0
-1.8092037862516E-05,6.70920144330012E-06,3.515625,0,0
-1.89214697456919E-05,7.46174191590399E-06,3.515625,0,0
-2.01316361199133E-05,9.24748019315302E-06,3.515625,0,0
-1.82947533176048E-05,6.40825919617782E-06,3.515625,0,0
-2.64039863395737E-05,7.24543087926577E-06,3.515625,0,0
-1.86824509000871E-05,4.77406001664349E-06,3.515625,0,0
-2.06167351279873E-05,8.97885001904797E-06,4.39453125,0,0
-1.62270498549333E-05,9.41728831094224E-06,4.39453125,0,0
-1.80871120392112E-05,1.20353979582433E-05,4.39453125,0,0
-1.54444605868775E-05,1.18628686323063E-05,4.39453125,0,0
-1.48562212416437E-05,1.26180284496513E-05,4.39453125,0,0
-1.2828011676902E-05,1.4673291843792E-05,4.39453125,0,0
-1.12942780106096E-05,1.8780998289003E-05,4.39453125,0,0
-1.0440880942042E-05,2.17301021621097E-05,4.39453125,0,0
-9.54877305048285E-06,2.13843268284108E-05,4.39453125,0,0
-1.16300307126949E-05,1.91864055523183E-05,4.39453125,0,0
-1.34062047436601E-05,1.72450418176595E-05,4.39453125,0,0
-1.6574280380155E-05,1.86758752533933E-05,4.39453125,0,0
-1.67243833857356E-05,1.97936060430948E-05,4.39453125,0,0
-1.82717903953744E-05,1.98613379325252E-05,4.39453125,0,0
-1.77659949258668E-05,1.67659745784476E-05,4.39453125,0,0
-1.81356044777203E-05,1.4397659469978E-05,4.39453125,0,0
-1.69162012753077E-05,1.35399050122942E-05,4.39453125,0,0
-1.78426544152899E-05,1.41788768814877E-05,4.39453125,0,0
-1.82293515536003E-05,1.29256732179783E-05,4.39453125,0,0
-1.95295287994668E-05,1.16654236990144E-05,4.39453125,0,0
-2.03288182092365E-05,1.15136572276242E-05,4.39453125,0,0
-2.17025080928579E-05,1.15878701762995E-05,4.39453125,0,0
-2.17131255340064E-05,1.12181332951877E-05,4.39453125,0,0
-2.03764502657577E-05,1.2437119949027E-05,4.39453125,0,0
-1.53913115354953E-05,9.39098299568286E-06,4.39453125,0,0
-2.17304223042447E-05,1.12524367068545E-05,4.39453125,0,0
-1.7997952454607E-05,6.10599636274856E-06,4.39453125,0,0
-2.44346883846447E-05,7.30836154616554E-06,4.39453125,0,0
-2.22885228140512E-05,3.12933434543083E-06,4.39453125,0,0
-2.56035636994056E-05,3.54615713149542E-06,4.39453125,0,0
-2.52067402470857E-05,1.36977860165644E-06,4.39453125,0,0
-2.77730887319194E-05,2.34413096222852E-06,4.39453125,0,0
-2.85652822640259E-05,3.56619193553342E-06,4.39453125,0,0
-2.81283246295061E-05,4.08330151913106E-06,4.39453125,0,0
-2.63321308011655E-05,3.43689657711366E-06,4.39453125,0,0
-2.41494963120203E-05,2.49165850618738E-06,4.39453125,0,0
-2.51261499215616E-05,3.52457732333278E-06,4.39453125,0,0
-2.53793132287683E-05,5.04853323946008E-06,4.39453125,0,0
-2.73764035227941E-05,7.54416441850481E-06,4.39453125,0,0
-2.65605103777489E-05,7.95310461398913E-06,4.39453125,0,0
-2.61882360064192E-05,9.31782233237755E-06,4.39453125,0,0
-2.35315019381233E-05,9.28262124944013E-06,4.39453125,0,0
-2.25624935410451E-05,9.75304556050105E-06,4.39453125,0,0
-2.15869240491884E-05,8.14450504549313E-06,4.39453125,0,0
-2.29686302191112E-05,7.80765276431339E-06,4.39453125,0,0
-2.30741588893579E-05,9.11034931050381E-06,4.39453125,0,0
-2.31269077630714E-05,1.13303894977435E-05,4.39453125,0,0
-2.26970732910559E-05,1.15653338070842E-05,4.39453125,0,0
-2.37060867220862E-05,1.19467122203787E-05,4.39453125,0,0
-2.50935499934712E-05,1.23685058497358E-05,4.39453125,0,0
-2.56575749517651E-05,1.22919409477618E-05,4.39453125,0,0
-2.16465305129532E-05,1.117791634897E-05,4.39453125,0,0
-3.23478634527419E-05,1.54567987920018E-05,4.39453125,0,0
-2.75119164143689E-05,1.04018554338836E-05,4.39453125,0,0
-3.36287121172063E-05,1.30075859487988E-05,4.39453125,0,0
-2.84253619611263E-05,1.24964317365084E-05,4.39453125,0,0
-3.15416582452599E-05,1.69244503922528E-05,4.39453125,0,0
-3.07512673316523E-05,1.74942852027016E-05,4.39453125,0,0
-3.30011534970254E-05,1.68672086147126E-05,4.39453125,0,0
-3.08009875880089E-05,1.48660164995817E-05,4.39453125,0,0
-2.69763222604524E-05,1.28058345580939E-05,4.39453125,0,0
-2.3097805751604E-05,9.93833964457735E-06,4.39453125,0,0
-2.06592467293376E-05,7.39779079594882E-06,4.39453125,0,0
-2.13323219213635E-05,8.25336974230595E-06,4.39453125,0,0
-1.88781014003325E-05,9.59147655521519E-06,4.39453125,0,0
-1.7430564184906E-05,1.23767313198186E-05,4.39453125,0,0
-1.42275102916756E-05,1.29178843053523E-05,4.39453125,0,0
-1.43050820042845E-05,1.263875492441E-05,4.39453125,0,0
-1.23328609333839E-05,1.08728063423769E-05,4.39453125,0,0
-1.26575587273692E-05,1.19482037916896E-05,4.39453125,0,0
-1.24176667668507E-05,1.38929317472503E-05,4.39453125,0,0
-1.4523638128594E-05,1.63727454491891E-05,4.39453125,0,0
-1.46005186252296E-05,1.6027022866183E-05,4.39453125,0,0
-1.68591141118668E-05,1.43936294989544E-05,4.39453125,0,0
-1.97823683265597E-05,1.24117786981515E-05,4.39453125,0,0
-2.3376735043712E-05,1.19702754091122E-05,4.39453125,0,0
-2.54654896707507E-05,1.23311756397015E-05,4.39453125,0,0
-2.71434000751469E-05,1.20222102850676E-05,4.39453125,0,0
-2.20599704334745E-05,9.67943014984485E-06,4.39453125,0,0
-3.1741445127409E-05,1.34628517116653E-05,4.39453125,0,0
-2.547930671426E-05,9.34476702241227E-06,4.39453125,0,0
-3.21847110171802E-05,1.14676613520714E-05,4.39453125,0,0
-2.69786742137512E-05,8.24058861326193E-06,4.39453125,0,0
-2.92203731078189E-05,7.28518352843821E-06,4.39453125,0,0
-2.73548266704893E-05,5.51047605767963E-06,4.39453125,0,0
-2.93876619252842E-05,5.27907423020224E-06,4.39453125,0,0
-2.94243891403312E-05,3.9099872992665E-06,4.39453125,0,0
-3.04860895994352E-05,2.46727836383798E-06,4.39453125,0,0
-3.148304313072E-05,1.82619248789706E-06,4.39453125,0,0
-3.10072355205193E-05,1.8792241007759E-06,4.39453125,0,0
-3.10267314489465E-05,1.91218578038388E-06,4.39453125,0,0
-2.85829501081025E-05,1.23942015761713E-06,4.39453125,0,0
-2.85810656350804E-05,3.78478989659925E-06,4.39453125,0,0
-2.62246358033735E-05,7.99478402768727E-06,4.39453125,0,0
-2.58653017226607E-05,1.3134103937773E-05,4.39453125,0,0
-2.27996442845324E-05,1.40774172905367E-05,4.39453125,0,0
-2.19790344999637E-05,1.22767251014011E-05,4.39453125,0,0
-2.03604504349642E-05,8.31194756756304E-06,4.39453125,0,0
-2.15665149880806E-05,5.81832000534632E-06,4.39453125,0,0
-2.0419989596121E-05,5.61989190828172E-06,4.39453125,0,0
-1.92085117305396E-05,9.51608126342762E-06,4.39453125,0,0
-1.69876457221108E-05,1.42383441925631E-05,4.39453125,0,0
-1.63718486874131E-05,1.67861635418376E-05,4.39453125,0,0
-1.60840081662172E-05,1.46640304592438E-05,4.39453125,0,0
-1.59416340466123E-05,1.05080998764606E-05,4.39453125,0,0
-1.26943141367519E-05,6.82488325765007E-06,4.39453125,0,0
-1.59903684107121E-05,9.92118839349132E-06,4.39453125,0,0
-8.86317957338179E-06,9.16543740459019E-06,4.39453125,0,0
-1.17743020382477E-05,1.14152890091646E-05,4.39453125,0,0
-9.74986414803425E-06,8.85186273080762E-06,4.39453125,0,0
-1.21038046927424E-05,9.64493847277481E-06,4.39453125,0,0
-1.11610379462945E-05,8.43856651044916E-06,4.39453125,0,0
-1.13874266389757E-05,8.16287410998484E-06,4.39453125,0,0
-1.17892368507455E-05,8.92880507308291E-06,4.39453125,0,0
-1.37044617076754E-05,1.07715495687444E-05,4.39453125,0,0
-1.51289495988749E-05,1.14366921479814E-05,4.39453125,0,0
-1.45444082590984E-05,1.19626811283524E-05,4.39453125,0,0
-1.44804125739029E-05,1.42391836561728E-05,4.39453125,0,0
-1.50467385537922E-05,1.54231729538878E-05,4.39453125,0,0
-1.9404040358495E-05,1.70816147146979E-05,4.39453125,0,0
-2.28700992010999E-05,1.58629391080467E-05,4.39453125,0,0
-2.59743883361807E-05,1.35278733068844E-05,4.39453125,0,0
-2.63769707089523E-05,1.16287255877978E-05,4.39453125,0,0
-2.82523596979445E-05,1.23751178762177E-05,4.39453125,0,0
-2.94825003948063E-05,1.32117911562091E-05,4.39453125,0,0
-3.12345910060685E-05,1.45543690450722E-05,4.39453125,0,0
-3.03967062791344E-05,1.44310060932185E-05,4.39453125,0,0
-2.93781631626189E-05,1.33209578052629E-05,4.39453125,0,0
-2.90749576379312E-05,1.2218976735312E-05,4.39453125,0,0
-3.02933585771825E-05,1.23543795780279E-05,4.39453125,0,0
-3.04890290863113E-05,1.31414217321435E-05,4.39453125,0,0
-2.8484999347711E-05,1.36326798383379E-05,4.39453125,0,0
-1.94468520930968E-05,1.11661065602675E-05,4.39453125,0,0
-2.53298421739601E-05,1.69190479937242E-05,4.39453125,0,0
-1.68706392287277E-05,1.26091154015739E-05,4.39453125,0,0
-2.22068447328638E-05,1.14637459773803E-05,4.39453125,0,0
-1.72817053680774E-05,6.60586147205322E-06,4.39453125,0,0
-1.89144029718591E-05,8.13901897345204E-06,4.39453125,0,0
-1.63623044500127E-05,7.75740136305103E-06,4.39453125,0,0
-1.89904731087154E-05,9.18223668122664E-06,4.39453125,0,0
-1.769486698322E-05,9.23762672755402E-06,4.39453125,0,0
-1.52772081492003E-05,9.94026504486101E-06,4.39453125,0,0
-1.33147077576723E-05,1.07073929029866E-05,4.39453125,0,0
-1.32082031996106E-05,1.24282541946741E-05,4.39453125,0,0
-1.67648831848055E-05,1.53251221490791E-05,4.39453125,0,0
-1.8304310287931E-05,1.49770194184384E-05,4.39453125,0,0
-2.14690026041353E-05,1.45366429933347E-05,4.39453125,0,0
-2.34318322327454E-05,1.40867578011239E-05,4.39453125,0,0
-2.78150819212897E-05,1.65961773745948E-05,4.39453125,0,0
-2.88207502308069E-05,1.71304873219924E-05,4.39453125,0,0
-3.09347196889576E-05,1.67997204698622E-05,4.39453125,0,0
-3.12684533128049E-05,1.49766083268332E-05,4.39453125,0,0
-3.33047901222017E-05,1.47415148603613E-05,4.39453125,0,0
-3.13366617774591E-05,1.40988977364032E-05,4.39453125,0,0
-2.90813604806317E-05,1.32053946799715E-05,4.39453125,0,0
-2.71456156042404E-05,1.15355078378343E-05,4.39453125,0,0
-2.80334243143443E-05,1.19027372420533E-05,4.39453125,0,0
-2.82265937130433E-05,1.31696178868879E-05,4.39453125,0,0
-2.62005214608507E-05,1.30141052068211E-05,4.39453125,0,0
-1.97604204004165E-05,7.4848830990959E-06,4.39453125,0,0
-2.8303116778261E-05,8.28225802251836E-06,4.39453125,0,0
-2.25465610128595E-05,5.42735097042168E-06,4.39453125,0,0
-2.90033676719759E-05,1.19433980216854E-05,4.39453125,0,0
-2.63518177234801E-05,1.42342178151011E-05,4.39453125,0,0
-3.01819854939822E-05,1.78852042154176E-05,4.39453125,0,0
-2.89831677946495E-05,1.69298491528025E-05,4.39453125,0,0
-3.02150074276142E-05,1.58550737978658E-05,4.39453125,0,0
-2.93298489850713E-05,1.37479173645261E-05,5.625,0,0
-3.0058636184549E-05,1.24724574561697E-05,5.625,0,0
-3.10605646518525E-05,1.25329988804879E-05,5.625,0,0
-3.00328993034782E-05,1.28540959849488E-05,5.625,0,0
-3.01569143630331E-05,1.37603838084033E-05,5.625,0,0
-2.96240232273703E-05,1.35662421598681E-05,5.625,0,0
-3.09829301841091E-05,1.39038311317563E-05,5.625,0,0
-2.94035671686288E-05,1.4182623999659E-05,5.625,0,0
-3.03413089568494E-05,1.63399727171054E-05,5.625,0,0
-2.9488088330254E-05,1.71362844412215E-05,5.625,0,0
-3.05748581013177E-05,1.68753431353252E-05,5.625,0,0
-3.06466863548849E-05,1.36516855491209E-05,5.625,0,0
-3.30033217323944E-05,1.22627934615593E-05,5.625,0,0
-3.41569138981868E-05,1.31986962514929E-05,5.625,0,0
-3.69536901416723E-05,1.54802492033923E-05,5.625,0,0
-3.86459360015579E-05,1.53566688823048E-05,5.625,0,0
-3.88963962905109E-05,1.26299082694459E-05,5.625,0,0
-3.77518299501389E-05,9.73256373981712E-06,5.625,0,0
-3.72850772691891E-05,8.82408767211018E-06,5.625,0,0
-2.99409712170018E-05,8.17330237623537E-06,5.625,0,0
-4.06104554713238E-05,1.12097568489844E-05,5.625,0,0
-2.71723238256527E-05,8.53827441460453E-06,5.625,0,0
-3.3470343623776E-05,1.04469027064624E-05,5.625,0,0
-2.7637861421681E-05,8.39042422740022E-06,5.625,0,0
-3.22917294397485E-05,1.09449865703937E-05,5.625,0,0
-2.77180133707589E-05,1.14039821710321E-05,5.625,0,0
-2.81815300695598E-05,1.23869449453196E-05,5.625,0,0
-2.64568025158951E-05,1.16161281766836E-05,5.625,0,0
-2.61397090071114E-05,1.02435387816513E-05,5.625,0,0
-2.61201512330445E-05,9.57635984377703E-06,5.625,0,0
-2.57423089351505E-05,9.15686450753128E-06,5.625,0,0
-2.93756147584645E-05,9.73772785073379E-06,5.625,0,0
-2.99847688438604E-05,1.02403391792905E-05,5.625,0,0
-3.19069222314283E-05,1.22630162877613E-05,5.625,0,0
-2.91722844849573E-05,1.32212480821181E-05,5.625,0,0
-2.9341206754907E-05,1.3897190001444E-05,5.625,0,0
-2.62378052866552E-05,1.23484805953922E-05,5.625,0,0
-2.67988889390836E-05,1.12146990431938E-05,5.625,0,0
-2.55686281889211E-05,9.34344006964238E-06,5.625,0,0
-2.72456181846792E-05,7.3526630330889E-06,5.625,0,0
-2.77628114417894E-05,4.08751793656847E-06,5.625,0,0
-3.02644148177933E-05,2.97339079224912E-06,5.625,0,0
-3.03793185594259E-05,4.4942294152861E-06,5.625,0,0
-3.0377308576135E-05,7.40038831281709E-06,5.625,0,0
-2.92256936518243E-05,1.00060551631032E-05,5.625,0,0
-2.73354435194051E-05,1.21894763651653E-05,5.625,0,0
-2.1153155103093E-05,9.40012887440389E-06,5.625,0,0
-2.99440653179772E-05,1.38745444928645E-05,5.625,0,0
-2.36701343965251E-05,1.28406354633626E-05,5.625,0,0
-2.9903108952567E-05,1.58518341777381E-05,5.625,0,0
-2.59458392974921E-05,1.10716246126685E-05,5.625,0,0
-2.97296428470872E-05,9.26577013160568E-06,5.625,0,0
-2.79250434687128E-05,4.20846617998905E-06,5.625,0,0
-2.850696000678E-05,8.78081891642069E-07,5.625,0,0
-2.71321987383999E-05,-3.85931286928098E-08,5.625,0,0
-2.69199335889425E-05,3.55424549525196E-06,5.625,0,0
-2.69670181296533E-05,8.37238258100115E-06,5.625,0,0
-2.55899813055294E-05,1.02835847428651E-05,5.625,0,0
-2.66534989350475E-05,1.11524823296349E-05,5.625,0,0
-2.62593111983733E-05,1.07896703411825E-05,5.625,0,0
-2.73505138466135E-05,1.26294653455261E-05,5.625,0,0
-2.57811170740752E-05,1.38278501253808E-05,5.625,0,0
-2.73481509793783E-05,1.28442634377279E-05,5.625,0,0
-2.69639167527203E-05,7.22432378097437E-06,5.625,0,0
-2.74210469797254E-05,2.74392573373916E-06,5.625,0,0
-2.53477628575638E-05,9.95609298115596E-07,5.625,0,0
-2.49473414442036E-05,3.79491552848776E-06,5.625,0,0
-2.2928814360057E-05,6.45051204628544E-06,5.625,0,0
-2.23972929234151E-05,7.2335956247116E-06,5.625,0,0
-2.17813940253109E-05,5.7835522966343E-06,5.625,0,0
-2.15213931369362E-05,5.02501461596694E-06,5.625,0,0
-1.87883251783205E-05,4.06044091505464E-06,5.625,0,0
-1.51780059240991E-05,2.79025380223175E-06,5.625,0,0
-1.10658111225348E-05,3.96839050154085E-06,5.625,0,0
-1.69536124303704E-05,7.16837803338422E-06,5.625,0,0
-1.42687258630758E-05,4.31213265983388E-06,5.625,0,0
-1.72677009686595E-05,-5.47494437341811E-07,5.625,0,0
-1.55030611495022E-05,-4.85974214825546E-06,5.625,0,0
-1.72696873050882E-05,-4.53437087344355E-06,5.625,0,0
-1.77286401594756E-05,-1.67257348948624E-06,5.625,0,0
-1.99051028175745E-05,3.81554491468705E-06,5.625,0,0
-2.10709004022647E-05,1.03261236290564E-05,5.625,0,0
-2.26343254325911E-05,1.49398165376624E-05,5.625,0,0
-2.53102261922322E-05,1.68654260050971E-05,5.625,0,0
-2.71906410489464E-05,1.66580066434108E-05,5.625,0,0
-2.83959652733756E-05,1.5117845578061E-05,5.625,0,0
-2.81253487628419E-05,1.26900104078231E-05,5.625,0,0
-2.88847622869071E-05,1.12645775516285E-05,5.625,0,0
-2.96756697935052E-05,1.04066712083295E-05,5.625,0,0
-3.17245139740407E-05,9.9039916676702E-06,5.625,0,0
-3.06301590171643E-05,9.52988921198994E-06,5.625,0,0
-2.88035935227526E-05,1.22042974908254E-05,5.625,0,0
-2.60551078099525E-05,1.77353831531946E-05,5.625,0,0
-2.32329912250862E-05,2.21766331378603E-05,5.625,0,0
-2.01144139282405E-05,2.42096393776592E-05,5.625,0,0
-1.91383714991389E-05,2.5386429115315E-05,5.625,0,0
-1.72815653058933E-05,2.33772752835648E-05,5.625,0,0
-1.48331628224696E-05,1.93627074622782E-05,5.625,0,0
-1.29204736367683E-05,1.71884421433788E-05,5.625,0,0
-1.12670468297438E-05,1.63171680469532E-05,5.625,0,0
-8.17913951323135E-06,1.46837128340849E-05,5.625,0,0
-1.13376800072729E-05,2.34173512581037E-05,5.625,0,0
-8.73063618200831E-06,2.00436643353896E-05,5.625,0,0
-1.21764360301313E-05,2.10144517041044E-05,5.625,0,0
-1.28573874462745E-05,1.50760106407688E-05,5.625,0,0
-1.53830842464231E-05,1.52574202729738E-05,5.625,0,0
-1.4113737961452E-05,1.28720857901499E-05,5.625,0,0
-1.49585584949818E-05,1.34843512569205E-05,5.625,0,0
-1.71161118487362E-05,1.44000368891284E-05,5.625,0,0
-2.00961076188833E-05,1.65259662026074E-05,5.625,0,0
-2.1767407815787E-05,1.76676348928595E-05,5.625,0,0
-2.14526189665776E-05,1.85674707608996E-05,5.625,0,0
-1.97846075025154E-05,1.95632474060403E-05,5.625,0,0
-1.71160936588421E-05,1.79510025191121E-05,5.625,0,0
-1.67564121511532E-05,1.81467748916475E-05,5.625,0,0
-1.69756167451851E-05,1.75557452166686E-05,5.625,0,0
-1.9310275092721E-05,1.76843623194145E-05,5.625,0,0
-2.06646236620145E-05,1.53726177813951E-05,5.625,0,0
-2.11886836041231E-05,1.51646236190572E-05,5.625,0,0
-2.01916245714528E-05,1.46693600981962E-05,5.625,0,0
-2.17895994865103E-05,1.63352742674761E-05,5.625,0,0
-2.36028845392866E-05,1.68221704370808E-05,5.625,0,0
-2.49135337071493E-05,1.59437204274582E-05,5.625,0,0
-2.67268387688091E-05,1.36196722451132E-05,5.625,0,0
-2.97144179057796E-05,1.24633525047102E-05,5.625,0,0
-3.14398494083434E-05,1.13447767944308E-05,5.625,0,0
-3.17789963446558E-05,1.14359536382835E-05,5.625,0,0
-2.55625564022921E-05,9.13268831936875E-06,5.625,0,0
-3.6150093364995E-05,1.11130148070515E-05,5.625,0,0
-2.66827555606142E-05,5.44975910088397E-06,5.625,0,0
-3.22062405757606E-05,5.97108555666637E-06,5.625,0,0
-2.52420013566734E-05,2.09996687772218E-06,5.625,0,0
-2.84070647467161E-05,1.92612014870974E-06,5.625,0,0
-2.57659175986191E-05,3.66713550192799E-07,5.625,0,0
-2.66118950094096E-05,2.13018051908875E-06,5.625,0,0
-2.50586799666053E-05,2.50166522164363E-06,5.625,0,0
-2.44604943873128E-05,1.06431537005847E-06,5.625,0,0
-2.35090737987775E-05,-8.75089199325885E-07,5.625,0,0
-2.09296358661959E-05,-1.55682312197314E-06,5.625,0,0
-2.08388064493192E-05,4.01102482783244E-07,5.625,0,0
-2.02336650545476E-05,1.56254441208148E-06,5.625,0,0
-2.32851889450103E-05,2.7912301447941E-06,5.625,0,0
-2.27498985623242E-05,1.57554563884332E-06,5.625,0,0
-2.42205605900381E-05,1.69354265722177E-07,5.625,0,0
-2.20166257349774E-05,-2.12657778320136E-06,5.625,0,0
-2.06297390832333E-05,-1.72071622728254E-06,5.625,0,0
-1.61161424330203E-05,-1.17357137696672E-06,5.625,0,0
-1.50001878864714E-05,3.01750077369434E-07,5.625,0,0
-1.54201916302554E-05,1.73757700849819E-06,5.625,0,0
-1.9417202565819E-05,4.37795733887469E-06,5.625,0,0
-2.18103159568273E-05,6.22844117970089E-06,5.625,0,0
-2.33530172408791E-05,8.53440451464849E-06,5.625,0,0
-2.31026533583645E-05,9.44515613809926E-06,5.625,0,0
-2.35993393289391E-05,6.2224671637523E-06,5.625,0,0
-2.26326174015412E-05,9.70254632193246E-07,5.625,0,0
-3.51136077370029E-05,1.56155266495261E-07,5.625,0,0
-3.01743348245509E-05,8.45778401981079E-07,5.625,0,0
-3.51631315425038E-05,4.74072658107616E-06,5.625,0,0
-2.97790029435419E-05,6.13596330367727E-06,5.625,0,0
-3.22870946547482E-05,6.1053542594891E-06,5.625,0,0
-3.02854059555102E-05,4.81590450363001E-06,5.625,0,0
-3.19687496812548E-05,6.16055194768705E-06,5.625,0,0
-3.21105908369645E-05,8.83906250237487E-06,5.625,0,0
-3.19075916195288E-05,8.97408972377889E-06,5.625,0,0
-3.12181873596273E-05,8.89991406438639E-06,7.03125,0,0
-2.96946982416557E-05,1.19260075734928E-05,7.03125,0,0
-3.10148643620778E-05,1.54301906150067E-05,7.03125,0,0
-2.99250586976996E-05,1.57944414240774E-05,7.03125,0,0
-2.87252605630783E-05,1.55413599713938E-05,7.03125,0,0
-2.37354797718581E-05,1.59453702508472E-05,7.03125,0,0
-2.19995290535735E-05,1.62118867592653E-05,7.03125,0,0
-2.04354837478604E-05,1.55147772602504E-05,7.03125,0,0
-2.20320107473526E-05,1.52905813592952E-05,7.03125,0,0
-2.19059784285491E-05,1.44514106068527E-05,7.03125,0,0
-2.28583503485424E-05,1.14028989628423E-05,7.03125,0,0
-2.21700047404738E-05,8.35034552437719E-06,7.03125,0,0
-2.24843606702052E-05,9.13760595722124E-06,7.03125,0,0
-2.17814431380248E-05,1.1719852409442E-05,7.03125,0,0
-2.2419726519729E-05,1.19217502287938E-05,7.03125,0,0
-2.35110128414817E-05,1.03074626167654E-05,7.03125,0,0
-2.34464605455287E-05,9.28258941712556E-06,7.03125,0,0
-1.86743418453261E-05,7.75190710555762E-06,7.03125,0,0
-2.56997609540122E-05,1.20910690384335E-05,7.03125,0,0
-1.75650693563512E-05,1.00516981547116E-05,7.03125,0,0
-2.1723486497649E-05,1.02805242931936E-05,7.03125,0,0
-1.85914432222489E-05,6.7890659920522E-06,7.03125,0,0
-2.12167196877999E-05,8.02631984697655E-06,7.03125,0,0
-1.76141456904588E-05,8.32841942610685E-06,7.03125,0,0
-1.70946022990393E-05,8.35315586300567E-06,7.03125,0,0
-1.6754558600951E-05,6.43232488073409E-06,7.03125,0,0
-1.71304600371514E-05,5.00441365147708E-06,7.03125,0,0
-1.66713416547282E-05,6.50102765575866E-06,7.03125,0,0
-1.31067818074371E-05,9.97090046439553E-06,7.03125,0,0
-9.52934533415828E-06,1.14509630293469E-05,7.03125,0,0
-5.09098390466534E-06,9.55485484155361E-06,7.03125,0,0
-4.18141826230567E-06,8.63743753143353E-06,7.03125,0,0
-2.25841631618096E-06,7.90017111285124E-06,7.03125,0,0
-3.04228501590842E-06,8.54567679198226E-06,7.03125,0,0
-2.49477466240933E-06,9.06765944819199E-06,7.03125,0,0
-4.55495001006057E-06,9.60035049502039E-06,7.03125,0,0
-6.44199553789804E-06,8.92033858690411E-06,7.03125,0,0
-1.04962700788747E-05,9.80436561803799E-06,7.03125,0,0
-1.30271255329717E-05,1.04255250334973E-05,7.03125,0,0
-1.60376930580242E-05,1.11559520519222E-05,7.03125,0,0
-1.85197532118764E-05,1.0392116564617E-05,7.03125,0,0
-2.15292548091384E-05,8.70673920871923E-06,7.03125,0,0
-2.25944731937489E-05,9.27348446566612E-06,7.03125,0,0
-2.2818330762675E-05,1.23151376101305E-05,7.03125,0,0
-2.00197882804787E-05,1.22523679237929E-05,7.03125,0,0
-3.10712603095453E-05,1.88626963790739E-05,7.03125,0,0
-2.75278798653744E-05,1.61339921760373E-05,7.03125,0,0
-3.32393392454833E-05,1.90571117855143E-05,7.03125,0,0
-2.72881406999659E-05,1.62378582899692E-05,7.03125,0,0
-2.69131978711812E-05,1.90334103535861E-05,7.03125,0,0
-2.36699725064682E-05,1.96371711354004E-05,7.03125,0,0
-2.41709949477809E-05,2.1015572201577E-05,7.03125,0,0
-2.33156715694349E-05,2.01664352061925E-05,7.03125,0,0
-2.36445430346066E-05,1.74948036146816E-05,7.03125,0,0
-2.5258708774345E-05,1.43012448461377E-05,7.03125,0,0
-2.76811733783688E-05,1.12092930066865E-05,7.03125,0,0
-3.16757359541953E-05,9.12815357878571E-06,7.03125,0,0
-3.22732339554932E-05,6.78882770444034E-06,7.03125,0,0
-3.22892810800113E-05,8.49912703415612E-06,7.03125,0,0
-2.97745646093972E-05,1.03429829323431E-05,7.03125,0,0
-3.06483125314116E-05,1.12196648842655E-05,7.03125,0,0
-3.09768656734377E-05,8.01852365839295E-06,7.03125,0,0
-3.30833972839173E-05,4.80321341456147E-06,7.03125,0,0
-3.28500136674847E-05,2.24278960558877E-06,7.03125,0,0
-3.40011210937519E-05,2.23062488657888E-06,7.03125,0,0
-3.32188719767146E-05,1.45679700835899E-06,7.03125,0,0
-3.23858839692548E-05,2.02177943720017E-06,7.03125,0,0
-3.19710343319457E-05,3.7294246340025E-06,7.03125,0,0
-3.45608059433289E-05,6.21548088020063E-06,7.03125,0,0
-3.64167754014488E-05,7.80182472226443E-06,7.03125,0,0
-3.56502023350913E-05,8.23203754407587E-06,7.03125,0,0
-2.57140272879042E-05,7.09978894519736E-06,7.03125,0,0
-3.47529821738135E-05,1.1621363228187E-05,7.03125,0,0
-2.61948898696573E-05,1.12437346615479E-05,7.03125,0,0
-3.51015296473634E-05,1.18766574814799E-05,7.03125,0,0
-2.91829292109469E-05,9.31188878894318E-06,7.03125,0,0
-3.20326798828319E-05,1.0638929779816E-05,7.03125,0,0
-2.83542976831086E-05,9.71157533058431E-06,7.03125,0,0
-3.02360203932039E-05,9.24832784221508E-06,7.03125,0,0
-2.84182769973995E-05,8.61883290781407E-06,7.03125,0,0
-2.59543394349748E-05,9.58191958488896E-06,7.03125,0,0
-2.39257187786279E-05,1.04089103842853E-05,7.03125,0,0
-2.26986521738581E-05,1.15064731289749E-05,7.03125,0,0
-2.49551940214587E-05,1.37043143695337E-05,7.03125,0,0
-2.38937864196487E-05,1.45123094625887E-05,7.03125,0,0
-2.49801014433615E-05,1.57741869770689E-05,7.03125,0,0
-2.37251369981095E-05,1.70163675647927E-05,7.03125,0,0
-2.5919145627995E-05,1.97604822460562E-05,7.03125,0,0
-2.37745862250449E-05,2.04525622393703E-05,7.03125,0,0
-2.37836520682322E-05,1.9781598894042E-05,7.03125,0,0
-2.3185724785435E-05,1.77501933649182E-05,7.03125,0,0
-2.605474946904E-05,1.60212093760492E-05,7.03125,0,0
-2.65715370915132E-05,1.29837517306441E-05,7.03125,0,0
-2.74477115453919E-05,1.0991499038937E-05,7.03125,0,0
-2.71965127467411E-05,9.52717891777866E-06,7.03125,0,0
-2.76324426522478E-05,8.60517866385635E-06,7.03125,0,0
-2.777308691293E-05,8.47313549456885E-06,7.03125,0,0
-2.95084009849234E-05,9.65301933320006E-06,7.03125,0,0
-2.52148693107301E-05,8.02661270427052E-06,7.03125,0,0
-3.59035911969841E-05,1.14248186946497E-05,7.03125,0,0
-2.6112427804037E-05,1.05916615211754E-05,7.03125,0,0
-3.03099604934687E-05,1.43982333611348E-05,7.03125,0,0
-2.48081996687688E-05,1.24799926197738E-05,7.03125,0,0
-2.89322160824668E-05,1.38384366437094E-05,7.03125,0,0
-2.61123168456834E-05,1.16025403258391E-05,7.03125,0,0
-2.58374857367016E-05,9.59398039412918E-06,7.03125,0,0
-2.38370448641945E-05,8.63112836668734E-06,7.03125,0,0
-2.48939886660082E-05,8.85104145709192E-06,7.03125,0,0
-2.61734166997485E-05,7.89405112300301E-06,7.03125,0,0
-2.55421000474598E-05,7.32296348360251E-06,7.03125,0,0
-2.622540887387E-05,8.22014044388197E-06,7.03125,0,0
-2.38106658798642E-05,7.66881385061424E-06,7.03125,0,0
-2.30902496696217E-05,7.60998409532476E-06,7.03125,0,0
-1.90362516150344E-05,8.129562047543E-06,7.03125,0,0
-1.86250999831827E-05,1.05283115772181E-05,7.03125,0,0
-1.75889308593469E-05,1.13034666355816E-05,7.03125,0,0
-2.00744943867903E-05,1.25078504424891E-05,7.03125,0,0
-1.96739638340659E-05,1.24131447591935E-05,7.03125,0,0
-2.01058282982558E-05,1.28127176139969E-05,7.03125,0,0
-1.86354227480479E-05,1.27628718473716E-05,7.03125,0,0
-1.89678648894187E-05,1.26988961710595E-05,7.03125,0,0
-1.80083807208575E-05,1.06474481071928E-05,7.03125,0,0
-1.68372898770031E-05,9.77975287241861E-06,7.03125,0,0
-1.45523790706648E-05,1.20520544442115E-05,7.03125,0,0
-1.13099222289748E-05,1.4783284314035E-05,7.03125,0,0
-4.81644383398816E-06,1.18360130727524E-05,7.03125,0,0
-4.35778429164202E-06,1.44764744618442E-05,7.03125,0,0
-1.26472082229157E-06,7.99738427303964E-06,7.03125,0,0
