biceps_emg, triceps_emg, subject_position, position_estimate, brace_position
4.21472441303195E-06,-2.29793477046769E-05,0.17578125,0,0
3.69517806575459E-06,-2.00951089937007E-05,0.17578125,0,0
2.01241573449806E-06,-1.65575420396635E-05,0.17578125,0,0
1.45116348448937E-06,-1.38403756864136E-05,0.17578125,0,0
2.23044548874896E-06,-1.29914778881357E-05,0.17578125,0,0
3.30542161464109E-06,-1.40563788590953E-05,0.17578125,0,0
3.70750126421626E-06,-1.6138448700076E-05,0.17578125,0,0
3.67193729289284E-06,-1.62404503498692E-05,0.17578125,0,0
1.50843663959677E-06,-1.12913903649314E-05,0.17578125,0,0
8.03459442977328E-07,-1.44924497362808E-05,0.17578125,0,0
-2.38096653504272E-08,-1.07020523500978E-05,0.17578125,0,0
1.37584538606461E-06,-1.68872538779397E-05,0.17578125,0,0
3.7671452446375E-07,-1.58078237291193E-05,0.17578125,0,0
2.92450039296455E-07,-1.52001821334125E-05,0.17578125,0,0
9.71487224887824E-07,-1.12163152152789E-05,0.17578125,0,0
2.02961587092432E-06,-1.25980732263997E-05,0.17578125,0,0
6.192433374963E-07,-1.50965297507355E-05,0.17578125,0,0
-1.9174040062353E-06,-1.97070439753588E-05,0.17578125,0,0
-2.81132042800891E-06,-2.36074174608802E-05,0.17578125,0,0
-2.2588853880734E-06,-2.23273364099441E-05,0.17578125,0,0
-9.02342151221092E-07,-1.82028124982025E-05,0.17578125,0,0
1.56455996602745E-07,-1.31753831738024E-05,0.17578125,0,0
1.85227793281229E-06,-1.04355176517856E-05,0.17578125,0,0
2.97944075100531E-06,-7.55755763748311E-06,0.17578125,0,0
2.60539104601776E-06,-8.00374800746795E-06,0.17578125,0,0
1.15121781618654E-06,-9.03113686945289E-06,0.17578125,0,0
1.45240107940481E-06,-1.181584684673E-05,0.17578125,0,0
2.85205555883294E-06,-1.23511999845505E-05,0.17578125,0,0
3.56968985215644E-06,-1.41006157718948E-05,0.17578125,0,0
2.53786038229009E-06,-1.53718265210046E-05,0.17578125,0,0
1.90511048003827E-06,-1.56446567416424E-05,0.17578125,0,0
2.63271658695885E-06,-1.33137800730765E-05,0.17578125,0,0
3.80441542802146E-06,-1.0671634299797E-05,0.17578125,0,0
4.81886218040017E-06,-1.09828752101748E-05,0.17578125,0,0
4.6073942030489E-06,-1.35147620312637E-05,0.17578125,0,0
3.6736876154464E-06,-1.15879120130558E-05,0.17578125,0,0
5.35825620318064E-06,-1.74854485521792E-05,0.17578125,0,0
5.31059913555509E-06,-1.48377866935334E-05,0.17578125,0,0
7.41228950573714E-06,-1.74343949765898E-05,0.17578125,0,0
6.22852212472935E-06,-1.55982434080215E-05,0.17578125,0,0
6.34059415460797E-06,-1.84661239472916E-05,0.17578125,0,0
6.00759767621639E-06,-1.79031758307246E-05,0.17578125,0,0
6.70245890432852E-06,-1.85472999874037E-05,0.17578125,0,0
7.75877924752422E-06,-1.76846606336767E-05,0.17578125,0,0
8.69336145115085E-06,-1.78972077264916E-05,0.17578125,0,0
8.93173455551732E-06,-1.77284546225565E-05,0.17578125,0,0
9.07378125702962E-06,-1.6422034605057E-05,0.17578125,0,0
8.73254975886084E-06,-1.57508511620108E-05,0.17578125,0,0
6.69636256134254E-06,-1.40686506711063E-05,0.17578125,0,0
5.80417372475495E-06,-1.2686613445112E-05,0.17578125,0,0
6.04040860707755E-06,-9.16915996640455E-06,0.17578125,0,0
6.86773864799761E-06,-8.08904223958962E-06,0.17578125,0,0
6.47777551421314E-06,-8.4420207713265E-06,0.17578125,0,0
6.16415400145343E-06,-1.23384170365171E-05,0.17578125,0,0
6.65662628307473E-06,-1.5300551240216E-05,0.17578125,0,0
7.98906512500253E-06,-1.84322962013539E-05,0.17578125,0,0
7.09486266714521E-06,-1.98861016542651E-05,0.17578125,0,0
6.126741936896E-06,-2.07322063943138E-05,0.17578125,0,0
7.15608894097386E-06,-1.96166402020026E-05,0.17578125,0,0
8.34501224744599E-06,-1.9060991689912E-05,0.17578125,0,0
7.87279168434907E-06,-2.11263086384861E-05,0.17578125,0,0
6.40296730125556E-06,-2.42771911871387E-05,0.17578125,0,0
4.22339917349746E-06,-2.16360658669146E-05,0.17578125,0,0
5.46992760064313E-06,-3.27520356222522E-05,0.17578125,0,0
2.79944674730359E-06,-2.80757922155317E-05,0.17578125,0,0
3.45840567206324E-06,-3.37214114551898E-05,0.17578125,0,0
4.57880696558277E-06,-2.70067539531738E-05,0.17578125,0,0
6.96431607138948E-06,-2.73428831860656E-05,0.17578125,0,0
5.580563993135E-06,-2.42101850744803E-05,0.17578125,0,0
3.90786544812727E-06,-2.47100742853945E-05,0.17578125,0,0
1.37503468522482E-06,-2.18457698792918E-05,0.17578125,0,0
5.97457940898494E-08,-2.01336806640029E-05,0.17578125,0,0
7.9205915426428E-07,-2.02289211301832E-05,0.17578125,0,0
1.49778429658909E-06,-2.09092740988126E-05,0.17578125,0,0
1.95953998627374E-06,-2.3356235033134E-05,0.17578125,0,0
1.865560875558E-06,-2.21610989683541E-05,0.17578125,0,0
2.30352861763095E-06,-2.09458885365166E-05,0.17578125,0,0
2.00135991690331E-06,-1.70409675774863E-05,0.17578125,0,0
2.35747711485601E-06,-1.67612652148819E-05,0.17578125,0,0
2.64278423856013E-06,-1.54111821757397E-05,0.17578125,0,0
3.30871898768237E-06,-1.58837719936855E-05,0.17578125,0,0
3.43108445122198E-06,-1.33720131998416E-05,0.17578125,0,0
2.99346720566973E-06,-1.4125448615232E-05,0.17578125,0,0
1.33831213133817E-06,-1.80776096385671E-05,0.17578125,0,0
7.06952505424852E-07,-2.44719431066187E-05,0.17578125,0,0
1.96624910131504E-06,-2.59168227785267E-05,0.17578125,0,0
2.80889526038663E-06,-2.47800908255158E-05,0.17578125,0,0
9.7159568213101E-07,-2.31096564675681E-05,0.17578125,0,0
-3.26171971209988E-07,-2.13727398659103E-05,0.17578125,0,0
1.11214433218265E-06,-1.34930314743542E-05,0.17578125,0,0
2.04947241400077E-06,-1.70427301782183E-05,0.17578125,0,0
1.33621176701126E-06,-1.23150030049146E-05,0.17578125,0,0
1.09923507807252E-06,-1.70252387761138E-05,0.17578125,0,0
2.17307433558744E-06,-1.20202912512468E-05,0.17578125,0,0
1.14467104594951E-06,-1.2451404472813E-05,0.17578125,0,0
-1.28774502172746E-06,-1.01040850495338E-05,0.17578125,0,0
-1.11909673705668E-06,-1.16209075713414E-05,0.17578125,0,0
8.39892663861974E-07,-1.23775307656615E-05,0.17578125,0,0
2.27204282055027E-06,-1.34162701215246E-05,0.17578125,0,0
3.3658297979855E-06,-1.54485169332474E-05,0.17578125,0,0
4.23679784944397E-06,-1.81391842488665E-05,0.17578125,0,0
4.02517571274075E-06,-2.222448347311E-05,0.17578125,0,0
3.5794039376924E-06,-2.31567119044485E-05,0.17578125,0,0
2.35217430599732E-06,-2.31068152061198E-05,0.17578125,0,0
8.52292487252271E-07,-1.99361729755765E-05,0.17578125,0,0
1.39919063713023E-06,-1.840608092607E-05,0.17578125,0,0
3.39828625328664E-06,-1.57966751430649E-05,0.17578125,0,0
4.09851645599701E-06,-1.57763770403108E-05,0.17578125,0,0
2.66120082415E-06,-1.42292901728069E-05,0.17578125,0,0
9.08658705611742E-07,-1.2565645192808E-05,0.17578125,0,0
5.74612272430386E-07,-1.10774763015797E-05,0.17578125,0,0
2.40734334511217E-06,-1.2485255865613E-05,0.17578125,0,0
4.46787362307077E-06,-1.33637277031085E-05,0.17578125,0,0
5.48934940525214E-06,-1.32289687826415E-05,0.17578125,0,0
4.9218574531551E-06,-1.25777978610131E-05,0.17578125,0,0
4.22406628786121E-06,-1.30085281853098E-05,0.17578125,0,0
4.22104449171457E-06,-9.95558639260707E-06,0.17578125,0,0
6.12826170254266E-06,-1.37167990033049E-05,0.17578125,0,0
3.88087664759951E-06,-1.08404556158348E-05,0.17578125,0,0
4.27289069193648E-06,-1.47336022564559E-05,0.17578125,0,0
2.89312492895988E-06,-1.28094916362897E-05,0.17578125,0,0
2.27145869757805E-06,-1.30538246594369E-05,0.17578125,0,0
1.82663336545374E-06,-1.19382311822847E-05,0.17578125,0,0
2.90448929263221E-06,-1.42389981192537E-05,0.17578125,0,0
2.92862841888564E-06,-1.52991015056614E-05,0.17578125,0,0
1.40125303005334E-06,-1.68764854606707E-05,0.17578125,0,0
-5.32525135099604E-08,-1.84631826414261E-05,0.17578125,0,0
-1.10524661067757E-06,-1.89455913641723E-05,0.17578125,0,0
-3.14833584980079E-07,-1.82530584424967E-05,0.17578125,0,0
6.16271222497744E-07,-1.4758380530111E-05,0.17578125,0,0
1.29647082758311E-06,-1.34196097860695E-05,0.17578125,0,0
1.65320034284377E-06,-1.32551804199466E-05,0.17578125,0,0
1.91510730473965E-06,-1.52500606418471E-05,0.17578125,0,0
1.112809627557E-06,-1.61408115673112E-05,0.17578125,0,0
9.39657411436201E-07,-1.73697590071242E-05,0.17578125,0,0
5.93862296227599E-07,-1.66710851772223E-05,0.17578125,0,0
2.91763882387386E-07,-1.69992617884418E-05,0.17578125,0,0
7.28329325738741E-08,-1.63730437634513E-05,0.17578125,0,0
5.14306520926766E-07,-1.54122808453394E-05,0.17578125,0,0
2.18749551095243E-06,-1.31518108901219E-05,0.17578125,0,0
5.68208815820981E-06,-1.11805893538985E-05,0.17578125,0,0
8.41480596136535E-06,-1.19061223813333E-05,0.17578125,0,0
7.18748287908966E-06,-1.38462673930917E-05,0.17578125,0,0
3.6694968912343E-06,-1.10299051812035E-05,0.17578125,0,0
4.31143689638702E-06,-1.67264279298251E-05,0.17578125,0,0
2.89186073132441E-06,-1.6129934010678E-05,0.17578125,0,0
5.14303746967926E-06,-2.35546522162622E-05,0.17578125,0,0
5.47735862710397E-06,-2.47851421590894E-05,0.17578125,0,0
5.78797062189551E-06,-2.49677686952055E-05,0.17578125,0,0
3.30685043081758E-06,-2.01660241145873E-05,0.17578125,0,0
2.31396757044422E-06,-2.03832205443177E-05,0.17578125,0,0
2.5456490675424E-06,-2.17004799196729E-05,0.17578125,0,0
4.6302234295581E-06,-2.39556975429878E-05,0.17578125,0,0
6.13451038589119E-06,-2.57056362897856E-05,0.17578125,0,0
6.04139131610282E-06,-2.49881995841861E-05,0.17578125,0,0
5.8330301726528E-06,-2.40537156059872E-05,0.17578125,0,0
4.91686569148442E-06,-2.26669126277557E-05,0.17578125,0,0
4.31530907007982E-06,-2.12561135413125E-05,0.17578125,0,0
3.29886711369909E-06,-1.60289673658554E-05,0.17578125,0,0
2.36173150369723E-06,-1.28980918816524E-05,0.17578125,0,0
6.82272911944892E-07,-1.29007376017398E-05,0.17578125,0,0
-1.82841745299811E-07,-1.61352418217575E-05,0.17578125,0,0
-5.29320971054403E-07,-1.6899042748264E-05,0.17578125,0,0
1.09413372229028E-06,-1.75570567080285E-05,0.17578125,0,0
2.25067856263195E-06,-1.8147115042666E-05,0.17578125,0,0
2.2273109152593E-06,-1.87497462320607E-05,0.17578125,0,0
9.70634573604912E-07,-1.67704511113698E-05,0.17578125,0,0
5.37153184154704E-08,-1.62746546266135E-05,0.17578125,0,0
1.25157043839863E-06,-1.76673365785973E-05,0.17578125,0,0
2.30583668781037E-06,-1.93577343452489E-05,0.17578125,0,0
1.10254256924236E-06,-1.686791802058E-05,0.17578125,0,0
8.73835190873251E-08,-2.24303985305596E-05,0.17578125,0,0
-2.67666928266408E-06,-1.51017575262813E-05,0.17578125,0,0
-2.46985700869118E-06,-1.96549626707565E-05,0.17578125,0,0
-1.01782700312469E-06,-1.6227008018177E-05,0.17578125,0,0
-1.48670565636166E-07,-1.85459612112027E-05,0.17578125,0,0
-3.3803510746111E-07,-1.56834521476412E-05,0.17578125,0,0
1.95701161942452E-07,-1.62774049385916E-05,0.17578125,0,0
5.48606521988404E-07,-1.72017753357068E-05,0.17578125,0,0
2.74011824785703E-07,-1.97683948499616E-05,0.17578125,0,0
4.61304068721802E-07,-2.10681664611911E-05,0.17578125,0,0
1.2134051985413E-06,-1.86519791895989E-05,0.17578125,0,0
2.72457623395894E-06,-1.72351119545056E-05,0.17578125,0,0
3.79418884222105E-06,-1.66754325618967E-05,0.17578125,0,0
3.66864401257772E-06,-1.94103413377889E-05,0.17578125,0,0
2.70932696366799E-06,-2.0199107893859E-05,0.17578125,0,0
1.99980695470003E-06,-2.18969871639274E-05,0.17578125,0,0
1.5087251767909E-06,-1.84926084330073E-05,0.17578125,0,0
1.1030125506295E-06,-1.48489652929129E-05,0.17578125,0,0
-1.12585336609072E-08,-1.20271652122028E-05,0.17578125,0,0
-2.30749847673906E-07,-1.33245584947872E-05,0.17578125,0,0
1.13718624561443E-06,-1.409895321558E-05,0.17578125,0,0
2.21574123315804E-06,-1.54337703861529E-05,0.17578125,0,0
1.83536633358017E-06,-1.52079037434305E-05,0.17578125,0,0
7.65424033488671E-07,-1.58793227456044E-05,0.17578125,0,0
-3.12238427113698E-07,-1.82575458893552E-05,0.17578125,0,0
-2.10428254376893E-07,-2.14192841667682E-05,0.17578125,0,0
6.75982505526918E-07,-1.78437712747836E-05,0.17578125,0,0
2.28835483540024E-06,-2.41583966271719E-05,0.17578125,0,0
4.15820568377967E-06,-1.69789964274969E-05,0.17578125,0,0
4.44322449766332E-06,-2.12638406082988E-05,0.17578125,0,0
2.87234456664009E-06,-1.51079120769282E-05,0.17578125,0,0
2.80924336948374E-06,-1.50733067130204E-05,0.17578125,0,0
4.16432976635406E-06,-1.53592191054486E-05,0.17578125,0,0
5.77196624362841E-06,-2.17837550735567E-05,0.17578125,0,0
5.95638266531751E-06,-2.32984402828151E-05,0.17578125,0,0
4.8122574298759E-06,-2.10814796446357E-05,0.17578125,0,0
4.47553838966996E-06,-1.87626828846987E-05,0.17578125,0,0
4.84103293274529E-06,-1.81079576577758E-05,0.17578125,0,0
5.44981639905018E-06,-2.01775565074058E-05,0.17578125,0,0
5.76544380237465E-06,-1.93557007150957E-05,0.17578125,0,0
6.27514191364753E-06,-1.79144662979525E-05,0.17578125,0,0
6.97625955581316E-06,-1.34800438900129E-05,0.17578125,0,0
7.50393110138248E-06,-1.23343452287372E-05,0.17578125,0,0
7.95992309576832E-06,-1.11526787804905E-05,0.17578125,0,0
7.47979720472358E-06,-1.32551967908512E-05,0.17578125,0,0
5.40859491593437E-06,-1.37517790790298E-05,0.17578125,0,0
2.4800001483527E-06,-1.42199005495058E-05,0.17578125,0,0
1.292901515626E-06,-1.29156960610999E-05,0.17578125,0,0
2.21871982830635E-06,-1.23640111269196E-05,0.17578125,0,0
2.94838173431344E-06,-1.16032560981694E-05,0.17578125,0,0
3.83209817300667E-06,-1.33359199026017E-05,0.17578125,0,0
4.83782469018479E-06,-1.38819104904542E-05,0.17578125,0,0
5.18748902322841E-06,-1.40740512506454E-05,0.17578125,0,0
3.93846767110517E-06,-1.17299841804197E-05,0.17578125,0,0
4.70127361040795E-06,-1.59638566401554E-05,0.17578125,0,0
4.07037623517681E-06,-1.14967724584858E-05,0.17578125,0,0
7.1966082941799E-06,-1.57361973833758E-05,0.17578125,0,0
4.73218460683711E-06,-1.60063718794845E-05,0.17578125,0,0
3.1734866752231E-06,-1.90196606126847E-05,0.17578125,0,0
2.15597560782044E-06,-1.69914583239006E-05,0.17578125,0,0
2.23459301196272E-06,-1.65515193657484E-05,0.17578125,0,0
2.27810733122169E-06,-1.64895427587908E-05,0.17578125,0,0
2.40832537201641E-06,-2.1189571270952E-05,0.17578125,0,0
2.24538348447823E-06,-2.72441193374107E-05,0.17578125,0,0
1.41178463763936E-06,-2.84859161183704E-05,0.17578125,0,0
2.04654179469799E-06,-2.6334044378018E-05,0.17578125,0,0
2.80497283711156E-06,-2.09423560590949E-05,0.17578125,0,0
2.5502656626486E-06,-1.71740375662921E-05,0.17578125,0,0
9.41956898259377E-07,-1.43801598824211E-05,0.17578125,0,0
2.45482965510746E-07,-1.44875266414601E-05,0.17578125,0,0
3.92721858588629E-07,-1.35382388180005E-05,0.17578125,0,0
2.26808674597123E-06,-1.46102320286445E-05,0.17578125,0,0
4.30260524808546E-06,-1.69664872373687E-05,0.17578125,0,0
6.72241549182218E-06,-2.14055235119304E-05,0.17578125,0,0
7.98538894741796E-06,-2.26451411435846E-05,0.17578125,0,0
6.67611266180757E-06,-2.12079921766417E-05,0.17578125,0,0
3.72894760403142E-06,-1.80811639438616E-05,0.17578125,0,0
2.46500053435739E-06,-1.58047096192604E-05,0.17578125,0,0
1.93730465980479E-06,-1.48576118590427E-05,0.17578125,0,0
1.61590924108168E-06,-1.49732059071539E-05,0.17578125,0,0
9.56842086452525E-07,-1.22664305308717E-05,0.17578125,0,0
5.62225181965914E-07,-1.59550945681985E-05,0.17578125,0,0
6.49418836928817E-07,-8.91239960765233E-06,0.17578125,0,0
2.00117847271031E-06,-1.01270843515522E-05,0.17578125,0,0
1.54562656007329E-06,-8.80022616911447E-06,0.17578125,0,0
1.79301855496306E-06,-1.4469274901785E-05,0.17578125,0,0
2.56182420343976E-06,-1.6018932001316E-05,0.17578125,0,0
4.25146026827861E-06,-1.73009921127232E-05,0.17578125,0,0
3.63754952559248E-06,-1.74208198586712E-05,0.17578125,0,0
1.28644728647487E-06,-1.76061603269773E-05,0.17578125,0,0
1.72585330915354E-07,-1.72070649568923E-05,0.17578125,0,0
1.1975924962826E-06,-1.69147479027743E-05,0.17578125,0,0
3.17250032821903E-06,-1.763875297911E-05,0.17578125,0,0
3.96464747609571E-06,-1.63579807122005E-05,0.17578125,0,0
3.96114046452567E-06,-1.50547075463692E-05,0.17578125,0,0
3.39538064508815E-06,-1.22796027426375E-05,0.17578125,0,0
3.15400711770053E-06,-1.12928155431291E-05,0.17578125,0,0
3.71922055819596E-06,-9.82491837930866E-06,0.17578125,0,0
5.09998062625527E-06,-1.09763032014598E-05,0.17578125,0,0
4.48574974143412E-06,-1.12789903141675E-05,0.17578125,0,0
2.54908900387818E-06,-1.30661719595082E-05,0.17578125,0,0
2.43997146753827E-06,-1.54132103489246E-05,0.17578125,0,0
5.59057161808596E-06,-1.97214139916468E-05,0.17578125,0,0
8.01756505097728E-06,-2.25023832172155E-05,0.17578125,0,0
6.82837480781018E-06,-2.30645273404662E-05,0.17578125,0,0
4.10336451750482E-06,-2.25989988393849E-05,0.17578125,0,0
3.21524203172885E-06,-2.19391968130367E-05,0.17578125,0,0
2.71399517259852E-06,-1.55098969116807E-05,0.17578125,0,0
3.48505932379339E-06,-2.07580087590031E-05,0.17578125,0,0
2.24132259063481E-06,-1.70431685546646E-05,0.17578125,0,0
2.92122808787099E-06,-2.47152274823748E-05,0.17578125,0,0
2.69636484517832E-06,-2.32315160246799E-05,0.17578125,0,0
3.90774221159518E-06,-2.5134337192867E-05,0.17578125,0,0
3.72851923202688E-06,-1.89553120435448E-05,0.17578125,0,0
4.34087041867315E-06,-1.60623894771561E-05,0.17578125,0,0
4.35200945503311E-06,-1.37065835588146E-05,0.17578125,0,0
3.95766210203874E-06,-1.49584338942077E-05,0.17578125,0,0
4.35111314800452E-06,-1.58515886141686E-05,0.17578125,0,0
5.37501546205021E-06,-1.31921160573256E-05,0.17578125,0,0
6.29702526566689E-06,-1.14783451863332E-05,0.17578125,0,0
5.62492050448782E-06,-1.05481640275684E-05,0.17578125,0,0
4.80992184748175E-06,-1.42047883855412E-05,0.17578125,0,0
4.48285936727189E-06,-1.81259256351041E-05,0.17578125,0,0
5.62940567760961E-06,-2.46386498474749E-05,0.17578125,0,0
5.87837030252558E-06,-2.66179395111976E-05,0.17578125,0,0
4.88263049192028E-06,-2.72488960035844E-05,0.17578125,0,0
3.64786387763161E-06,-2.34925573749933E-05,0.17578125,0,0
3.43001693181577E-06,-1.79283706529532E-05,0.17578125,0,0
3.74616934095684E-06,-1.14603271867963E-05,0.17578125,0,0
3.94494963984471E-06,-1.10035671241349E-05,0.17578125,0,0
2.80908761851606E-06,-1.29219670270686E-05,0.17578125,0,0
1.85192982371518E-06,-1.45235244417563E-05,0.17578125,0,0
1.26038708003762E-06,-1.47396713146009E-05,0.17578125,0,0
1.54348992964515E-06,-1.52026277646655E-05,0.17578125,0,0
2.04773414225201E-06,-1.26856357383076E-05,0.17578125,0,0
1.84418058779556E-06,-1.83675274456618E-05,0.17578125,0,0
-1.93178294694007E-07,-1.34265692395275E-05,0.17578125,0,0
1.19918286145548E-06,-1.55728121171705E-05,0.17578125,0,0
2.0258244148863E-06,-1.47191958603798E-05,0.17578125,0,0
1.2205305210955E-06,-1.99551868718117E-05,0.17578125,0,0
3.92354252198857E-07,-2.03211347979959E-05,0.17578125,0,0
1.64370567290462E-06,-1.956370579137E-05,0.17578125,0,0
1.80168126462377E-06,-1.73396274476545E-05,0.17578125,0,0
8.32681394058454E-07,-1.64383163792081E-05,0.17578125,0,0
-1.87794555017717E-07,-1.74674205482006E-05,0.17578125,0,0
5.97828318404936E-07,-1.89250531548169E-05,0.17578125,0,0
3.13856571665383E-06,-2.02410465135472E-05,0.17578125,0,0
4.59475722891511E-06,-1.93873893294949E-05,0.17578125,0,0
3.76034176952089E-06,-1.90398968697991E-05,0.17578125,0,0
6.29903752269456E-07,-1.75590266735526E-05,0.17578125,0,0
-1.20898562272487E-06,-1.84092405106639E-05,0.17578125,0,0
-3.40801193488005E-07,-1.79680773726432E-05,0.17578125,0,0
1.77147705926473E-06,-1.75984205270652E-05,0.17578125,0,0
1.69182021636516E-06,-1.50056275742827E-05,0.17578125,0,0
2.05937254804667E-07,-1.26744516819599E-05,0.17578125,0,0
-3.09410552290501E-07,-1.12338166218251E-05,0.17578125,0,0
1.20340916964778E-06,-1.29547197502689E-05,0.17578125,0,0
3.08557127937092E-06,-1.35849404614419E-05,0.17578125,0,0
4.75443312097923E-06,-1.38446694109007E-05,0.17578125,0,0
5.06968081026571E-06,-1.62663909577532E-05,0.17578125,0,0
4.25792086389265E-06,-1.96995297301328E-05,0.17578125,0,0
3.26750523527153E-06,-1.75586646946613E-05,0.17578125,0,0
5.69708845432615E-06,-2.36507166846422E-05,0.17578125,0,0
5.19194236403564E-06,-1.67373636941193E-05,0.17578125,0,0
4.82302539239754E-06,-2.10094949579798E-05,0.17578125,0,0
2.22658468373993E-06,-1.55409907165449E-05,0.17578125,0,0
-1.40167927042967E-07,-1.65094406838762E-05,0.17578125,0,0
-2.28097451326903E-06,-1.41547980092582E-05,0.17578125,0,0
-1.6299417211485E-06,-1.51825252032722E-05,0.17578125,0,0
-6.94544013413179E-08,-1.46037491504103E-05,0.17578125,0,0
1.33809339786239E-06,-1.65617730090162E-05,0.17578125,0,0
1.72077238858037E-06,-1.89554011740256E-05,0.17578125,0,0
1.52309189616062E-06,-1.85995831998298E-05,0.17578125,0,0
1.52796644670161E-06,-1.93085525097558E-05,0.17578125,0,0
1.0343972434157E-07,-1.94152562471572E-05,0.17578125,0,0
-1.52842824263644E-06,-2.20063866436249E-05,0.17578125,0,0
-2.48217861553712E-06,-2.2033040295355E-05,0.17578125,0,0
-2.38817096942512E-06,-2.37606654991396E-05,0.17578125,0,0
-2.22296898755303E-06,-2.31356571021024E-05,0.17578125,0,0
-1.28939541355066E-06,-2.31949816225097E-05,0.17578125,0,0
2.78905343265023E-08,-2.05398246180266E-05,0.17578125,0,0
1.92288416656083E-06,-1.86813012987841E-05,0.17578125,0,0
3.10104314849013E-06,-1.52911070472328E-05,0.17578125,0,0
3.3852238630061E-06,-1.33846897369949E-05,0.17578125,0,0
3.97314897782053E-06,-1.31540300571942E-05,0.17578125,0,0
4.81309234601213E-06,-1.53076362039428E-05,0.17578125,0,0
4.23811070504598E-06,-1.58902730618138E-05,0.17578125,0,0
3.26078816215158E-06,-1.56461628648685E-05,0.17578125,0,0
3.13826217279711E-06,-1.48797844303772E-05,0.17578125,0,0
5.23232620253111E-06,-2.27604195970343E-05,0.17578125,0,0
2.26752649723494E-06,-1.88542035175487E-05,0.17578125,0,0
-1.07557480077958E-06,-2.3385164240608E-05,0.17578125,0,0
-2.33324408327462E-06,-2.30310106417164E-05,0.17578125,0,0
8.97413997336116E-07,-2.43116319325054E-05,0.17578125,0,0
4.21175309384125E-06,-1.68936039699474E-05,0.17578125,0,0
5.99231134401634E-06,-1.0284661584592E-05,0.17578125,0,0
6.50052197670448E-06,-6.49722687739995E-06,0.17578125,0,0
6.24456606601598E-06,-5.87541308050277E-06,0.17578125,0,0
5.97522603129619E-06,-6.5035883380915E-06,0.17578125,0,0
5.84119879931677E-06,-7.00943201081827E-06,0.17578125,0,0
6.06629373578471E-06,-9.68471977103036E-06,0.17578125,0,0
6.52152220936841E-06,-1.1185912626388E-05,0.17578125,0,0
7.41313215257833E-06,-1.28410110846744E-05,0.17578125,0,0
7.34705008653691E-06,-1.18685720735812E-05,0.17578125,0,0
6.20259243078181E-06,-1.2070107004547E-05,0.17578125,0,0
5.43454916623887E-06,-1.26185459521366E-05,0.17578125,0,0
6.23883533990011E-06,-1.72292984643718E-05,0.17578125,0,0
6.92456660544849E-06,-2.22282433242071E-05,0.17578125,0,0
6.97242057867697E-06,-2.66515908151632E-05,0.17578125,0,0
6.06566209171433E-06,-2.71625613095239E-05,0.17578125,0,0
5.22394611834898E-06,-2.62907960859593E-05,0.17578125,0,0
3.97101121052401E-06,-2.41677389567485E-05,0.17578125,0,0
3.79764355784573E-06,-2.22571070480626E-05,0.17578125,0,0
5.64387755730422E-06,-1.96973523998167E-05,0.17578125,0,0
6.21022581981379E-06,-1.82141429831972E-05,0.17578125,0,0
4.06648541684262E-06,-1.53868804773083E-05,0.17578125,0,0
4.24528798248502E-06,-2.18645473069046E-05,0.17578125,0,0
1.73725470631325E-06,-1.66692643688293E-05,0.17578125,0,0
3.16034606839821E-06,-2.32928341574734E-05,0.17578125,0,0
1.91793219528336E-06,-2.3656557459617E-05,0.17578125,0,0
2.4573625978519E-06,-2.47740936174523E-05,0.17578125,0,0
1.23547113162203E-06,-1.91868912224891E-05,0.17578125,0,0
9.56206690716499E-07,-1.56311361934058E-05,0.17578125,0,0
9.11727340735524E-07,-1.03318670880981E-05,0.17578125,0,0
1.46026081893069E-06,-7.39057713872171E-06,0.17578125,0,0
1.65256483342091E-06,-1.07234091046848E-05,0.17578125,0,0
1.16758303647657E-06,-1.70318471646169E-05,0.17578125,0,0
1.50466826198681E-06,-2.18826862692367E-05,0.17578125,0,0
1.99475607587374E-06,-2.15793079405557E-05,0.17578125,0,0
3.04943205264863E-06,-1.90965911315288E-05,0.17578125,0,0
3.48056914845074E-06,-1.3067892723484E-05,0.17578125,0,0
3.84104714612477E-06,-1.03173379102373E-05,0.17578125,0,0
3.59673390448734E-06,-9.24573851079913E-06,0.17578125,0,0
4.93101197207579E-06,-1.18664502224419E-05,0.17578125,0,0
5.57500061404426E-06,-1.34306037580245E-05,0.17578125,0,0
5.06105288877734E-06,-1.46474421853782E-05,0.17578125,0,0
3.45404509971559E-06,-1.34856745717116E-05,0.17578125,0,0
2.62097387349058E-06,-1.37786628329195E-05,0.17578125,0,0
3.0535247788066E-06,-1.44157465911121E-05,0.17578125,0,0
4.02677233068971E-06,-1.661327041802E-05,0.17578125,0,0
4.75048500447883E-06,-1.89617276191711E-05,0.17578125,0,0
6.13883321420872E-06,-1.90988757822197E-05,0.17578125,0,0
5.58992996957386E-06,-1.37529268613434E-05,0.17578125,0,0
7.66245830163825E-06,-1.73071548488224E-05,0.17578125,0,0
5.16825821250677E-06,-1.10214768938022E-05,0.17578125,0,0
5.97760845266748E-06,-1.50491960084764E-05,0.17578125,0,0
3.76243110622454E-06,-1.30896178234252E-05,0.17578125,0,0
3.19845253216045E-06,-1.79439157363959E-05,0.17578125,0,0
1.31091326238675E-06,-1.93116466107313E-05,0.17578125,0,0
9.39798781018908E-07,-2.18738859985024E-05,0.17578125,0,0
4.69546904469098E-07,-2.10775942832697E-05,0.17578125,0,0
-1.10678122666741E-07,-2.06685635930626E-05,0.17578125,0,0
6.32226146990433E-07,-1.95244938367978E-05,0.17578125,0,0
1.23707968668896E-06,-1.67491562024225E-05,0.17578125,0,0
1.78799598415935E-06,-1.58390539581887E-05,0.17578125,0,0
1.70944542787765E-06,-1.518965291325E-05,0.17578125,0,0
1.72469344761339E-06,-1.65705514518777E-05,0.17578125,0,0
1.41593898206338E-06,-1.54687350004679E-05,0.17578125,0,0
2.54252199738403E-06,-1.56877686094958E-05,0.17578125,0,0
2.24110681301681E-06,-1.40578677019221E-05,0.17578125,0,0
7.65094455346116E-07,-1.51894519149209E-05,0.17578125,0,0
-4.12970052821038E-07,-1.58140119310701E-05,0.17578125,0,0
-8.60520259493569E-08,-1.75068398675649E-05,0.17578125,0,0
-1.40174094553913E-07,-1.75612858583918E-05,0.17578125,0,0
5.27553595475183E-07,-1.87205259862822E-05,0.17578125,0,0
1.56928751948726E-06,-2.12821214518044E-05,0.17578125,0,0
2.18554600905918E-06,-2.27512609853875E-05,0.17578125,0,0
3.03575347970764E-06,-2.24797968257917E-05,0.17578125,0,0
4.1910261643352E-06,-2.29148881771835E-05,0.17578125,0,0
3.00596411761944E-06,-1.86634406418307E-05,0.17578125,0,0
3.32645618073002E-06,-2.38671418628655E-05,0.17578125,0,0
1.6653901866448E-06,-1.31152210087748E-05,0.17578125,0,0
2.84678435491514E-06,-1.57746490003774E-05,0.17578125,0,0
2.70716759587231E-06,-1.15929387902725E-05,0.17578125,0,0
4.56148836747161E-06,-1.51063868543133E-05,0.17578125,0,0
5.05207299283938E-06,-1.4332573300635E-05,0.17578125,0,0
4.20598826167407E-06,-1.59867195179686E-05,0.17578125,0,0
2.86442968899792E-06,-1.52664379129419E-05,0.17578125,0,0
2.59104399447097E-06,-1.64625453180633E-05,0.17578125,0,0
3.16858154292277E-06,-1.899805283756E-05,0.17578125,0,0
3.63539061254414E-06,-1.85171375051141E-05,0.17578125,0,0
3.858583568217E-06,-1.78209102159599E-05,0.17578125,0,0
3.32468539454567E-06,-1.61571751959855E-05,0.17578125,0,0
3.05344451589917E-06,-1.78671798494179E-05,0.17578125,0,0
3.1241245324054E-06,-1.75988789123949E-05,0.17578125,0,0
4.47062393504893E-06,-1.91310482478002E-05,0.17578125,0,0
5.50318873138167E-06,-1.82740550371818E-05,0.17578125,0,0
6.11049517829088E-06,-1.89591810340062E-05,0.17578125,0,0
6.05306377110537E-06,-1.90682058018865E-05,0.17578125,0,0
5.39432221557945E-06,-2.15709860640345E-05,0.17578125,0,0
4.09916628996143E-06,-2.12020349863451E-05,0.17578125,0,0
4.3645945879689E-06,-2.05657634069212E-05,0.17578125,0,0
4.52189215138787E-06,-2.06608874577796E-05,0.17578125,0,0
3.20328376801626E-06,-2.10843045351794E-05,0.17578125,0,0
1.23252971206966E-06,-1.96792825590819E-05,0.17578125,0,0
-2.21798657662475E-07,-1.92590614460642E-05,0.17578125,0,0
-1.89697345831519E-06,-1.58166458277265E-05,0.17578125,0,0
-1.66303300375148E-06,-2.16348162211943E-05,0.17578125,0,0
1.61625825967349E-06,-1.47217642734176E-05,0.17578125,0,0
3.29213457916921E-06,-1.73944044945529E-05,0.17578125,0,0
3.84942359232809E-06,-1.3379950360104E-05,0.17578125,0,0
1.32712386857747E-06,-1.6441344996565E-05,0.17578125,0,0
-1.3252023336463E-06,-1.62994510901626E-05,0.17578125,0,0
-1.14883982860192E-06,-1.74310080183204E-05,0.17578125,0,0
1.0728844017649E-06,-1.54665231093531E-05,0.17578125,0,0
1.39641008445324E-06,-1.31666802190011E-05,0.17578125,0,0
6.9191082729958E-07,-1.21828088595066E-05,0.17578125,0,0
1.04143964563264E-06,-1.19319729492418E-05,0.17578125,0,0
1.91928324966284E-06,-1.28362198665855E-05,0.17578125,0,0
2.78520019492134E-06,-1.07441774161998E-05,0.17578125,0,0
2.62817093243939E-06,-1.04948649095604E-05,0.17578125,0,0
2.20602851186413E-06,-1.13568949018372E-05,0.17578125,0,0
1.82982967089629E-06,-1.55464476847555E-05,0.17578125,0,0
2.11660267268599E-06,-1.61984062287956E-05,0.17578125,0,0
3.48127309734991E-06,-1.64724915521219E-05,0.17578125,0,0
6.14380360275391E-06,-1.51451131387148E-05,0.17578125,0,0
7.77155764808413E-06,-1.58299662871286E-05,0.17578125,0,0
7.61997580411844E-06,-1.56110236275708E-05,0.17578125,0,0
5.84683402848896E-06,-1.51897802425083E-05,0.17578125,0,0
4.82281575386878E-06,-1.51027788888314E-05,0.17578125,0,0
5.39435040991521E-06,-1.67792004504008E-05,0.17578125,0,0
5.41567396794562E-06,-1.90800110431155E-05,0.17578125,0,0
4.1497064557916E-06,-2.06396980502177E-05,0.17578125,0,0
1.47830201058241E-06,-1.56613223225577E-05,0.17578125,0,0
8.34218212730775E-07,-2.13305611396208E-05,0.17578125,0,0
5.78340689116885E-07,-1.49944680742919E-05,0.17578125,0,0
2.59149101111689E-06,-1.93622745428002E-05,0.17578125,0,0
5.48796720067912E-07,-1.66459085448878E-05,0.17578125,0,0
-9.52560469613672E-07,-1.88925587281119E-05,0.17578125,0,0
-1.94974768419343E-06,-1.80719853233313E-05,0.17578125,0,0
-1.47220441704121E-06,-2.09157460631104E-05,0.17578125,0,0
-4.55500611451498E-07,-2.11219266930129E-05,0.17578125,0,0
6.73513605997655E-11,-2.12642153201159E-05,0.17578125,0,0
-2.36377985629588E-07,-2.1427500541904E-05,0.17578125,0,0
-8.78153343819577E-07,-2.19755056605209E-05,0.17578125,0,0
-7.4451730824876E-07,-2.5653927878011E-05,0.17578125,0,0
4.56232697843006E-07,-2.67738087131875E-05,0.17578125,0,0
2.24355699174339E-06,-2.5647685106378E-05,0.17578125,0,0
3.24873985846352E-06,-1.99716960196383E-05,0.17578125,0,0
4.01355237045209E-06,-1.61132957146037E-05,0.17578125,0,0
4.23899791712756E-06,-1.24173348012846E-05,0.17578125,0,0
4.38267443314544E-06,-1.27875837279134E-05,0.17578125,0,0
3.31252749674604E-06,-1.39106041388004E-05,0.17578125,0,0
1.41839075240568E-06,-1.66952704603318E-05,0.17578125,0,0
4.48231475047578E-07,-1.73895077750785E-05,0.17578125,0,0
1.87909870419389E-06,-1.85672906809486E-05,0.17578125,0,0
3.08077096633497E-06,-1.85659810085781E-05,0.17578125,0,0
2.69104180006252E-06,-1.85831595445052E-05,0.17578125,0,0
3.06177207676228E-06,-1.78329191840021E-05,0.17578125,0,0
4.18062973039923E-06,-1.63855602295371E-05,0.17578125,0,0
3.12987572215206E-06,-1.13095084088854E-05,0.17578125,0,0
3.39997927767399E-06,-1.47389064295567E-05,0.17578125,0,0
1.23176744182274E-06,-1.00862198451068E-05,0.17578125,0,0
2.20283459384518E-06,-1.45718140629469E-05,0.17578125,0,0
1.91519188774691E-06,-1.36387379825464E-05,0.17578125,0,0
2.48431319960218E-06,-1.58014281623764E-05,0.17578125,0,0
1.79144490175531E-06,-1.42009594128467E-05,0.17578125,0,0
2.3325035272137E-06,-1.42504532050225E-05,0.17578125,0,0
2.43503222918662E-06,-1.39502280944725E-05,0.17578125,0,0
2.20443075704679E-06,-1.47131950143375E-05,0.17578125,0,0
2.68267217506946E-06,-1.5172321582213E-05,0.17578125,0,0
2.95479912892915E-06,-1.4707292393723E-05,0.17578125,0,0
3.40762403538974E-06,-1.53721884998959E-05,0.17578125,0,0
3.88352373192902E-06,-1.56708738359157E-05,0.17578125,0,0
4.25655025537708E-06,-1.80471797648352E-05,0.17578125,0,0
3.41701820616436E-06,-1.91576764336787E-05,0.17578125,0,0
2.63568654190749E-06,-2.01469447347336E-05,0.17578125,0,0
1.68846395354194E-06,-1.73444295796799E-05,0.17578125,0,0
2.13216367228597E-06,-1.42850503834779E-05,0.17578125,0,0
3.55178531208367E-06,-1.07446458059712E-05,0.17578125,0,0
4.62252410216024E-06,-9.87453040579567E-06,0.17578125,0,0
4.18663012169418E-06,-8.93537799129263E-06,0.17578125,0,0
3.26926374327741E-06,-8.69124960445333E-06,0.17578125,0,0
3.27866246152553E-06,-8.71932388690766E-06,0.17578125,0,0
5.50123513676226E-06,-8.33226295071654E-06,0.17578125,0,0
6.92788808009936E-06,-7.84437452239217E-06,0.17578125,0,0
6.39089876131038E-06,-9.83221525530098E-06,0.17578125,0,0
4.08956930186832E-06,-1.1311931302771E-05,0.17578125,0,0
4.74827538710088E-06,-1.89423681149492E-05,0.17578125,0,0
2.2700351109961E-06,-1.82251696969615E-05,0.17578125,0,0
3.36113862431375E-06,-2.21327536564786E-05,0.17578125,0,0
1.54546989961091E-06,-2.2908805476618E-05,0.17578125,0,0
1.19721983082854E-06,-2.95274821837666E-05,0.17578125,0,0
1.2447699191398E-06,-3.51220114680473E-05,0.17578125,0,0
1.90260038834822E-06,-4.02710793423466E-05,0.17578125,0,0
1.31999308905506E-06,-4.03763078793418E-05,0.17578125,0,0
4.13174205959876E-07,-3.91207395296078E-05,0.17578125,0,0
-8.20834770820511E-07,-3.85557941626757E-05,0.17578125,0,0
-1.78978632447979E-06,-3.70207453670446E-05,0.17578125,0,0
-7.22020615739893E-07,-3.52366150764283E-05,0.17578125,0,0
2.55011997296606E-07,-3.19322280120105E-05,0.17578125,0,0
1.31874469389004E-06,-2.83785720966989E-05,0.17578125,0,0
1.98376756088692E-06,-2.25202747969888E-05,0.17578125,0,0
2.53389566751139E-06,-1.8277098206454E-05,0.17578125,0,0
2.64565187535482E-06,-1.66229146998376E-05,0.17578125,0,0
3.41521513291809E-06,-1.90942591871135E-05,0.17578125,0,0
3.10268524117419E-06,-2.05175329028862E-05,0.17578125,0,0
2.35091033573553E-06,-2.09907520911656E-05,0.17578125,0,0
1.06252355180914E-06,-2.00362974283053E-05,0.17578125,0,0
5.45724901712674E-07,-1.89099173439899E-05,0.17578125,0,0
1.33775483845966E-06,-1.66206373251043E-05,0.17578125,0,0
2.67574773715751E-06,-1.60655708896229E-05,0.17578125,0,0
3.1483223210671E-06,-1.56672977027483E-05,0.17578125,0,0
2.91407673103095E-06,-1.49452525874949E-05,0.17578125,0,0
1.77764593445318E-06,-1.18447815111722E-05,0.17578125,0,0
1.98223210645665E-06,-1.52568145495025E-05,0.17578125,0,0
1.92022116607404E-06,-9.27751716517378E-06,0.17578125,0,0
3.64122661267174E-06,-1.19208716569119E-05,0.17578125,0,0
2.87303964796592E-06,-8.98033886187477E-06,0.17578125,0,0
1.46788988786284E-06,-1.17291519927676E-05,0.17578125,0,0
5.60150567707751E-07,-1.27568391690147E-05,0.17578125,0,0
1.40418421779032E-06,-1.4747032764717E-05,0.17578125,0,0
2.31895774049917E-06,-1.40231149998726E-05,0.17578125,0,0
3.56810869561741E-06,-1.2111298929085E-05,0.17578125,0,0
4.19465550294262E-06,-1.17940653581172E-05,0.17578125,0,0
5.01231761518284E-06,-1.40249976539053E-05,0.17578125,0,0
5.96534619035083E-06,-1.76347930391785E-05,0.17578125,0,0
6.31446391707868E-06,-1.95159682334634E-05,0.17578125,0,0
6.52026847092202E-06,-2.25085914280498E-05,0.17578125,0,0
6.33723675491638E-06,-2.19488520087907E-05,0.17578125,0,0
6.36792128716479E-06,-1.90806586033432E-05,0.17578125,0,0
6.52505832476891E-06,-1.36004327941919E-05,0.17578125,0,0
6.99039856044692E-06,-1.07838550320594E-05,0.17578125,0,0
6.11796576777124E-06,-8.91968102223473E-06,0.17578125,0,0
5.87465046919533E-06,-9.69279881246621E-06,0.17578125,0,0
6.3164998209686E-06,-1.06907145891455E-05,0.17578125,0,0
6.5790222834039E-06,-1.21441717055859E-05,0.17578125,0,0
6.39269501334638E-06,-1.28348528960487E-05,0.17578125,0,0
6.53529696137412E-06,-1.35005357151385E-05,0.17578125,0,0
5.12769975102856E-06,-1.23346662803669E-05,0.17578125,0,0
2.27681061915064E-06,-1.03729780676076E-05,0.17578125,0,0
6.86214264078444E-07,-6.00062821831671E-06,0.17578125,0,0
2.27779469241796E-06,-7.3233209150203E-06,0.17578125,0,0
2.90332786789804E-06,-6.67555787003948E-06,0.17578125,0,0
2.18246850636206E-06,-1.11338440547115E-05,0.17578125,0,0
2.20246238313848E-06,-1.07525675048237E-05,0.17578125,0,0
2.7535752451513E-06,-1.39849580591545E-05,0.17578125,0,0
3.37358756041795E-06,-1.5380041077151E-05,0.17578125,0,0
4.26954647991806E-06,-1.54766385094263E-05,0.17578125,0,0
4.72226065539871E-06,-1.36401686177123E-05,0.17578125,0,0
5.24839242643793E-06,-1.34504662128165E-05,0.17578125,0,0
5.12309225086938E-06,-1.50553360072081E-05,0.17578125,0,0
2.96547545985959E-06,-1.75047389348038E-05,0.17578125,0,0
3.22997692592253E-07,-1.89778147614561E-05,0.17578125,0,0
1.16701137642394E-07,-1.75891236722237E-05,0.17578125,0,0
1.93687901628437E-06,-1.67838552442845E-05,0.17578125,0,0
3.16163709612738E-06,-1.7129155821749E-05,0.17578125,0,0
3.0467008400592E-06,-1.96000146388542E-05,0.17578125,0,0
2.73945420303789E-06,-2.04194639081834E-05,0.17578125,0,0
2.34030130741303E-06,-2.07781031349441E-05,0.17578125,0,0
8.69815266923979E-07,-1.95925185835222E-05,0.17578125,0,0
-4.18635295318381E-08,-2.02509054361144E-05,0.17578125,0,0
6.29538874363789E-07,-2.22900562221184E-05,0.17578125,0,0
1.62330240982556E-06,-2.37367803492816E-05,0.17578125,0,0
2.63081506091112E-06,-2.25862586376024E-05,0.17578125,0,0
2.97842848340224E-06,-2.13573584915139E-05,0.17578125,0,0
2.28953240366536E-06,-2.069595757348E-05,0.17578125,0,0
2.24515861191321E-06,-2.08878827834269E-05,0.17578125,0,0
3.12683118863788E-06,-1.69961167557631E-05,0.17578125,0,0
3.92718084185617E-06,-2.27639084187103E-05,0.17578125,0,0
1.99570558834239E-06,-1.64437169587472E-05,0.17578125,0,0
3.2861505587789E-06,-2.24778195843101E-05,0.17578125,0,0
3.50697496287466E-06,-1.8447031834512E-05,0.17578125,0,0
4.91193577545346E-06,-1.88161739060888E-05,0.17578125,0,0
5.96263453189749E-06,-1.52599059219938E-05,0.17578125,0,0
7.84468920755899E-06,-1.62128562806174E-05,0.17578125,0,0
9.34217587200692E-06,-1.65934725373518E-05,0.17578125,0,0
8.02272916189395E-06,-1.80044171429472E-05,0.17578125,0,0
5.58153124075034E-06,-1.92089228221448E-05,0.17578125,0,0
4.04373759010923E-06,-1.84035579877673E-05,0.17578125,0,0
3.62968148692744E-06,-1.76941903191619E-05,0.17578125,0,0
2.97378892355482E-06,-1.52559250636841E-05,0.17578125,0,0
2.79674281955522E-06,-1.47823020597571E-05,0.17578125,0,0
1.72743352777616E-06,-1.27976745716296E-05,0.17578125,0,0
5.23237247307407E-07,-1.40466027005459E-05,0.17578125,0,0
8.31827890124259E-07,-1.43973811645992E-05,0.17578125,0,0
3.29255635733716E-06,-1.69524028024171E-05,0.17578125,0,0
5.11920734425075E-06,-1.74909218912944E-05,0.17578125,0,0
5.52793562746956E-06,-1.92180214071414E-05,0.17578125,0,0
5.57671046408359E-06,-1.98924099095166E-05,0.17578125,0,0
5.38035692443373E-06,-1.99875048565445E-05,0.17578125,0,0
3.81694553652778E-06,-1.78110421984456E-05,0.17578125,0,0
2.51191409006424E-06,-1.67609468917362E-05,0.17578125,0,0
2.98200302495388E-06,-1.6524634702364E-05,0.17578125,0,0
3.04874583889614E-06,-1.65032270160737E-05,0.17578125,0,0
9.60710963227029E-07,-1.28198671518476E-05,0.17578125,0,0
1.34860397338343E-06,-1.71159244928276E-05,0.17578125,0,0
1.79608650796581E-06,-1.24859716379433E-05,0.17578125,0,0
2.17081947084807E-06,-1.96266046259552E-05,0.17578125,0,0
1.51517451740801E-06,-2.15278178075096E-05,0.17578125,0,0
2.37835320149316E-06,-2.42515106947394E-05,0.17578125,0,0
2.59676289715571E-06,-2.04042535187909E-05,0.17578125,0,0
1.59201510996354E-06,-1.74807937582955E-05,0.17578125,0,0
-1.41866976832716E-07,-1.50155710798572E-05,0.17578125,0,0
1.4826795791123E-07,-1.52670945681166E-05,0.17578125,0,0
2.97669680549006E-06,-1.78027639776701E-05,0.17578125,0,0
5.62564810024924E-06,-1.98969082703115E-05,0.17578125,0,0
5.70785550735309E-06,-2.08402561838739E-05,0.17578125,0,0
3.85075827580295E-06,-1.88373796845553E-05,0.17578125,0,0
2.31471631195745E-06,-1.85258650162723E-05,0.17578125,0,0
1.98403836293437E-06,-1.75500299519626E-05,0.17578125,0,0
2.76671744359192E-06,-1.74082542798715E-05,0.17578125,0,0
3.74070918951475E-06,-1.45434751175344E-05,0.17578125,0,0
4.54748260381166E-06,-1.26248696687981E-05,0.17578125,0,0
4.35309993918054E-06,-1.04071405075956E-05,0.17578125,0,0
4.04180218538386E-06,-9.79931883193785E-06,0.17578125,0,0
4.31233138442622E-06,-9.41464440984419E-06,0.17578125,0,0
4.60141336589004E-06,-1.07444511741051E-05,0.17578125,0,0
3.63461435881618E-06,-1.13984788185917E-05,0.17578125,0,0
2.53145799433696E-06,-1.11784993350739E-05,0.17578125,0,0
1.76437674781482E-06,-1.05781809907057E-05,0.17578125,0,0
2.05213814297167E-06,-1.08392132460722E-05,0.17578125,0,0
2.72313332061458E-06,-9.54932602326153E-06,0.17578125,0,0
4.39551286035567E-06,-1.4447704415943E-05,0.17578125,0,0
3.9676724554738E-06,-1.21848206617869E-05,0.17578125,0,0
5.01082604387193E-06,-1.57298763951985E-05,0.17578125,0,0
4.014992100565E-06,-1.57811391545692E-05,0.17578125,0,0
4.08870710089104E-06,-1.79967246367596E-05,0.17578125,0,0
3.49429092239006E-06,-1.82408457476413E-05,0.17578125,0,0
2.37817926063144E-06,-2.02430928766262E-05,0.17578125,0,0
2.73270552497706E-06,-2.07976572710322E-05,0.17578125,0,0
2.9046125291643E-06,-2.09625904972199E-05,0.17578125,0,0
2.10433358915907E-06,-2.03752242668998E-05,0.17578125,0,0
5.46118599231704E-07,-1.92305651580682E-05,0.17578125,0,0
-2.01699108970388E-07,-1.88649082701886E-05,0.17578125,0,0
-5.89112460147589E-07,-1.72148611454759E-05,0.17578125,0,0
-1.12380462269357E-06,-1.52343636727892E-05,0.17578125,0,0
-1.21212633530376E-06,-1.29819563881028E-05,0.17578125,0,0
9.68633457887336E-07,-1.47610116982833E-05,0.17578125,0,0
3.97410985897295E-06,-1.78244918060955E-05,0.17578125,0,0
4.7975345296436E-06,-2.28914359468035E-05,0.17578125,0,0
3.36750031237898E-06,-2.65059079538332E-05,0.17578125,0,0
2.53331245403388E-06,-2.81864940916421E-05,0.17578125,0,0
2.62840944742493E-06,-2.64650752797024E-05,0.17578125,0,0
3.27253860632482E-06,-2.34913459280506E-05,0.17578125,0,0
4.14949954574695E-06,-2.03449526452459E-05,0.17578125,0,0
4.40814119428978E-06,-1.94062231457792E-05,0.17578125,0,0
4.50721972811152E-06,-2.02689443540294E-05,0.17578125,0,0
4.8459087338415E-06,-1.98836605704855E-05,0.17578125,0,0
2.84955422102939E-06,-1.3738829693466E-05,0.17578125,0,0
2.75948673333914E-06,-1.8506219930714E-05,0.17578125,0,0
6.70946633363201E-07,-1.38617369884741E-05,0.17578125,0,0
2.34343042393448E-06,-1.81118430191418E-05,0.17578125,0,0
3.01098725685733E-06,-1.53736400534399E-05,0.17578125,0,0
4.66099299956113E-06,-1.91147901205113E-05,0.17578125,0,0
4.25874986831332E-06,-1.72236541402526E-05,0.17578125,0,0
3.21212041853869E-06,-1.58707189257257E-05,0.17578125,0,0
2.03857871383661E-06,-1.41316513690981E-05,0.17578125,0,0
2.58297859545564E-06,-1.50748292071512E-05,0.17578125,0,0
4.29853662353707E-06,-1.74694287125021E-05,0.17578125,0,0
5.32425792698632E-06,-1.91788367374102E-05,0.17578125,0,0
4.84673910250422E-06,-2.06050426641013E-05,0.17578125,0,0
3.21323000207485E-06,-1.87297155207489E-05,0.17578125,0,0
2.88346905108483E-06,-1.74741780938348E-05,0.17578125,0,0
2.82717223853979E-06,-1.48719082062598E-05,0.17578125,0,0
1.98746715796005E-06,-1.45591529872036E-05,0.17578125,0,0
3.26587183963056E-07,-1.31553324536071E-05,0.17578125,0,0
6.52114749755128E-07,-1.46280726767145E-05,0.17578125,0,0
1.96489963855129E-06,-1.5592349882354E-05,0.17578125,0,0
2.14936380871222E-06,-1.71241226780694E-05,0.17578125,0,0
1.06879417671735E-06,-1.68746100825956E-05,0.17578125,0,0
7.57675536533498E-07,-1.74820252141217E-05,0.17578125,0,0
-7.38419672074997E-08,-1.79033522726968E-05,0.17578125,0,0
-1.3655903075005E-08,-1.74911820067791E-05,0.17578125,0,0
7.93643437191349E-07,-1.57615559146507E-05,0.17578125,0,0
8.69028269789851E-07,-1.36743437906262E-05,0.17578125,0,0
-4.03135913984443E-07,-9.95904156297911E-06,0.17578125,0,0
-1.37370511765766E-06,-1.51591430039844E-05,0.17578125,0,0
-2.2173767320055E-06,-1.30712696773116E-05,0.17578125,0,0
-1.30125636133016E-06,-1.54717763507506E-05,0.17578125,0,0
1.22618541809061E-06,-1.43326478792005E-05,0.17578125,0,0
2.28975159188849E-06,-1.79174148797756E-05,0.17578125,0,0
1.66610107044107E-06,-1.79748149093939E-05,0.17578125,0,0
1.40783402002853E-06,-1.80421993718483E-05,0.17578125,0,0
2.41228030972707E-06,-1.70533112395788E-05,0.17578125,0,0
2.79775804301607E-06,-1.66484205692541E-05,0.17578125,0,0
1.425277105227E-06,-1.63772310770582E-05,0.17578125,0,0
3.39396734716502E-07,-1.7636490156292E-05,0.17578125,0,0
6.18798480900296E-07,-2.17280266952002E-05,0.17578125,0,0
9.67475443758303E-07,-2.43767444771947E-05,0.17578125,0,0
6.73828481012606E-07,-2.65405069512781E-05,0.17578125,0,0
6.07553715781251E-07,-2.66549377556657E-05,0.17578125,0,0
8.47566013817413E-07,-2.74859685305273E-05,0.17578125,0,0
1.75499690158176E-06,-2.56037146755261E-05,0.17578125,0,0
2.36852497437212E-06,-2.17914221138926E-05,0.17578125,0,0
2.1826301690453E-06,-1.61444804689381E-05,0.17578125,0,0
2.50767607212765E-06,-1.34095189423533E-05,0.17578125,0,0
2.88420596916694E-06,-1.26614286273252E-05,0.17578125,0,0
2.95751692647173E-06,-1.324855202256E-05,0.17578125,0,0
3.88756143365754E-06,-1.35831160150701E-05,0.17578125,0,0
6.05460445513017E-06,-1.43951110658236E-05,0.17578125,0,0
8.62709657667438E-06,-1.44576288221288E-05,0.17578125,0,0
8.52065477374708E-06,-1.39478743221844E-05,0.17578125,0,0
4.20361493524979E-06,-1.07561509139487E-05,0.17578125,0,0
3.64923198503675E-06,-1.66041736520128E-05,0.17578125,0,0
9.92786453934968E-07,-1.52022967085941E-05,0.17578125,0,0
4.8876681830734E-06,-1.95508600882022E-05,0.17578125,0,0
5.97196549279033E-06,-1.67460766533623E-05,0.17578125,0,0
6.9407328737725E-06,-1.55579455167754E-05,0.17578125,0,0
4.90001457364997E-06,-1.41015561894164E-05,0.17578125,0,0
3.27133398059232E-06,-1.69470185937826E-05,0.17578125,0,0
1.55109034949419E-06,-1.85444823728176E-05,0.17578125,0,0
1.88913747933839E-06,-2.02301071112743E-05,0.17578125,0,0
2.28921089728829E-06,-2.14737719943514E-05,0.17578125,0,0
4.73683172685924E-07,-2.02441206056392E-05,0.17578125,0,0
-6.08940979418549E-07,-1.82809417310636E-05,0.17578125,0,0
2.83732731531927E-07,-1.72457839653362E-05,0.17578125,0,0
3.28984924635733E-06,-1.95641350728692E-05,0.17578125,0,0
4.69619226350915E-06,-2.03998115466675E-05,0.17578125,0,0
5.3026019486424E-06,-2.06002478080336E-05,0.17578125,0,0
5.15435976922163E-06,-1.83999982255045E-05,0.17578125,0,0
6.0342777032929E-06,-1.6141626474564E-05,0.17578125,0,0
6.28519001111272E-06,-1.21781513371388E-05,0.17578125,0,0
7.39358529244782E-06,-1.08664953586413E-05,0.17578125,0,0
9.16840872378089E-06,-1.27367047753069E-05,0.17578125,0,0
9.89174532151083E-06,-1.72525160451187E-05,0.17578125,0,0
7.47688454794115E-06,-2.03199906536611E-05,0.17578125,0,0
5.73498482481227E-06,-2.11310780287022E-05,0.17578125,0,0
6.15691124039586E-06,-2.00449831027072E-05,0.17578125,0,0
6.24504946244997E-06,-1.91513499885332E-05,0.17578125,0,0
3.53675090991601E-06,-1.3462135939335E-05,0.17578125,0,0
4.64196818938944E-06,-1.73350344994105E-05,0.17578125,0,0
3.25540190715401E-06,-1.14040340122301E-05,0.17578125,0,0
3.84571467293426E-06,-1.46133488669875E-05,0.17578125,0,0
2.29368697546306E-06,-1.02368785519502E-05,0.17578125,0,0
2.5421861664654E-06,-1.3024379768467E-05,0.17578125,0,0
2.20216861634981E-06,-1.44645582622616E-05,0.17578125,0,0
2.55746135735535E-06,-1.86098532140022E-05,0.17578125,0,0
2.07477887670393E-06,-2.01946095330641E-05,0.17578125,0,0
2.66023289441364E-06,-2.07935554499272E-05,0.17578125,0,0
2.83593999483855E-06,-2.00912272703135E-05,0.17578125,0,0
1.66457289196842E-06,-1.70826751855202E-05,0.17578125,0,0
1.13472310658835E-06,-1.40510928758886E-05,0.17578125,0,0
1.53672715441644E-07,-1.24135312944418E-05,0.17578125,0,0
-1.02495198461838E-06,-1.57373033289332E-05,0.17578125,0,0
-1.60424553996563E-06,-1.78915961441817E-05,0.17578125,0,0
5.74912576212228E-07,-1.95611355593428E-05,0.17578125,0,0
1.98791849470581E-06,-1.75053446582751E-05,0.17578125,0,0
1.53985115503019E-06,-1.63514432642842E-05,0.17578125,0,0
5.20485741617449E-07,-1.35469163069502E-05,0.17578125,0,0
1.18188143005682E-06,-1.20466374937678E-05,0.17578125,0,0
2.15205204767699E-06,-1.04854689197964E-05,0.17578125,0,0
2.02878754862468E-06,-9.95983282336965E-06,0.17578125,0,0
6.00776317583041E-08,-1.02582034742227E-05,0.17578125,0,0
-1.78135758233111E-06,-1.30093203551951E-05,0.17578125,0,0
-2.86059321297216E-06,-1.5313366020564E-05,0.17578125,0,0
-3.45515945809893E-06,-1.70036273630103E-05,0.17578125,0,0
-2.28932981372054E-06,-1.3212306839705E-05,0.17578125,0,0
-2.78959419119929E-06,-1.82401072379434E-05,0.17578125,0,0
-1.08526842268475E-06,-1.40529027703451E-05,0.17578125,0,0
-6.31993543720455E-07,-1.82028816197999E-05,0.17578125,0,0
6.96392419285985E-07,-1.55149355123285E-05,0.17578125,0,0
1.1851477665914E-06,-1.8557853763923E-05,0.17578125,0,0
2.8516217298602E-06,-1.86203214980196E-05,0.17578125,0,0
2.72538272838574E-06,-2.04960524570197E-05,0.17578125,0,0
2.3258730834641E-06,-1.97126573766582E-05,0.17578125,0,0
1.53437758854125E-06,-1.86356628546491E-05,0.17578125,0,0
1.64995299201109E-06,-1.89993643289199E-05,0.17578125,0,0
2.67200516645971E-06,-1.9379524019314E-05,0.17578125,0,0
3.016073605977E-06,-1.96102464542491E-05,0.17578125,0,0
2.78011953014357E-06,-1.70439070643624E-05,0.17578125,0,0
9.53003791437368E-07,-1.67432008311152E-05,0.17578125,0,0
-7.9215743653549E-07,-1.73188436747296E-05,0.17578125,0,0
-1.14689623842423E-06,-1.96787605091231E-05,0.17578125,0,0
1.21426057830831E-06,-1.92160478036385E-05,0.17578125,0,0
3.70952511730138E-06,-1.88226986210793E-05,0.17578125,0,0
4.40325584349921E-06,-1.68272235896438E-05,0.17578125,0,0
3.44722980116785E-06,-1.70918865478598E-05,0.17578125,0,0
3.34826631842589E-06,-1.82488965947414E-05,0.17578125,0,0
3.70693192053295E-06,-2.14989559026435E-05,0.17578125,0,0
3.58484749085619E-06,-2.43072954617674E-05,0.17578125,0,0
2.99880275633768E-06,-2.62794183072401E-05,0.17578125,0,0
2.98049099001219E-06,-2.63958936557174E-05,0.17578125,0,0
2.31832791541819E-06,-2.56943130807485E-05,0.17578125,0,0
1.21285268050997E-06,-2.0681907699327E-05,0.17578125,0,0
2.80693666354637E-06,-2.9031643862254E-05,0.17578125,0,0
4.23268238591845E-06,-2.04427178687183E-05,0.17578125,0,0
5.66796416023863E-06,-2.38112679653568E-05,0.17578125,0,0
5.51568746232078E-06,-1.88490648724837E-05,0.17578125,0,0
5.01988461110159E-06,-2.35285242524697E-05,0.17578125,0,0
4.39069708590978E-06,-2.25379735638853E-05,0.17578125,0,0
5.52121491637081E-06,-2.21784375753487E-05,0.17578125,0,0
7.06829223418026E-06,-1.75828627106966E-05,0.17578125,0,0
7.72528619563673E-06,-1.4347635442391E-05,0.17578125,0,0
8.00241832621396E-06,-1.53806086018449E-05,0.17578125,0,0
7.79012680141022E-06,-1.72018990269862E-05,0.17578125,0,0
7.64736614655703E-06,-2.06045151571743E-05,0.17578125,0,0
7.34647164790658E-06,-2.11539208976319E-05,0.17578125,0,0
7.17707825970137E-06,-2.14929987123469E-05,0.17578125,0,0
7.990899575816E-06,-1.80858260137029E-05,0.17578125,0,0
8.89052626007469E-06,-1.76162520801881E-05,0.17578125,0,0
8.34042475617025E-06,-1.56854184751865E-05,0.17578125,0,0
6.84716542309616E-06,-1.52200809679925E-05,0.17578125,0,0
6.02665613769204E-06,-1.34990550577641E-05,0.17578125,0,0
6.67422500555404E-06,-1.48724757309537E-05,0.17578125,0,0
7.25013842384215E-06,-1.49895658978494E-05,0.17578125,0,0
6.79720460539102E-06,-1.66792815434746E-05,0.17578125,0,0
5.71727196074789E-06,-1.86612887773663E-05,0.17578125,0,0
5.06143032907858E-06,-1.91244780580746E-05,0.17578125,0,0
3.65572282134963E-06,-1.8317530702916E-05,0.17578125,0,0
1.78068717104907E-06,-1.91279814316658E-05,0.17578125,0,0
1.77049059857382E-06,-1.63563454407267E-05,0.17578125,0,0
3.03999627249141E-06,-2.25448166020215E-05,0.17578125,0,0
1.67111443261092E-06,-1.57517551997444E-05,0.17578125,0,0
1.71665874404425E-06,-1.96310083993012E-05,0.17578125,0,0
3.08304402096837E-06,-1.66772733791731E-05,0.17578125,0,0
3.9629262573726E-06,-1.8886050384026E-05,0.17578125,0,0
2.82643804894178E-06,-1.80827810254414E-05,0.17578125,0,0
1.76051628386631E-06,-2.08006713364739E-05,0.17578125,0,0
2.61025252257241E-06,-2.1055684555904E-05,0.17578125,0,0
4.66647816210752E-06,-2.06258064281428E-05,0.17578125,0,0
6.30663225820172E-06,-1.93535397556843E-05,0.17578125,0,0
5.44086378795328E-06,-1.66754507517908E-05,0.17578125,0,0
3.84626855520764E-06,-1.53666605910985E-05,0.17578125,0,0
2.89361491923046E-06,-1.37064762384398E-05,0.17578125,0,0
2.99542875836778E-06,-1.45787653309526E-05,0.17578125,0,0
3.89307206205558E-06,-1.40285719680833E-05,0.17578125,0,0
4.31833814218408E-06,-1.44923924381146E-05,0.17578125,0,0
4.34918229075265E-06,-1.26900449686218E-05,0.17578125,0,0
5.34988976141904E-06,-1.3688311810256E-05,0.17578125,0,0
7.30148076399928E-06,-1.32608029161929E-05,0.17578125,0,0
7.69843882153509E-06,-1.30423040900496E-05,0.17578125,0,0
5.22827576787677E-06,-1.15950278996024E-05,0.17578125,0,0
2.5600886601751E-06,-1.12759353214642E-05,0.17578125,0,0
1.95582219930657E-06,-1.06864717963617E-05,0.17578125,0,0
2.80919175565941E-06,-1.03902821138036E-05,0.17578125,0,0
2.32718161896628E-06,-1.00099787232466E-05,0.17578125,0,0
7.25104257526255E-07,-1.23124582387391E-05,0.17578125,0,0
5.42701627637143E-07,-1.25453043438029E-05,0.17578125,0,0
5.12403289576469E-07,-1.81770337803755E-05,0.17578125,0,0
8.40125608192466E-07,-1.20116756079369E-05,0.17578125,0,0
2.83583858617931E-06,-1.22893679872504E-05,0.17578125,0,0
3.37471738021122E-06,-1.01327423180919E-05,0.17578125,0,0
1.86546515124064E-06,-1.31146098283352E-05,0.17578125,0,0
2.81550171621348E-07,-1.29697045849753E-05,0.17578125,0,0
6.30900842679694E-07,-1.46725315062213E-05,0.17578125,0,0
1.15481350349E-06,-1.49016977957217E-05,0.17578125,0,0
1.22713527161977E-06,-1.42368644446833E-05,0.17578125,0,0
2.33194214160903E-06,-1.20560716823093E-05,0.17578125,0,0
4.16840748584946E-06,-9.57719839789206E-06,0.17578125,0,0
5.7599563660915E-06,-9.90114222076954E-06,0.17578125,0,0
5.85926591156749E-06,-1.03912097983994E-05,0.17578125,0,0
4.97699056722922E-06,-1.21556658996269E-05,0.17578125,0,0
3.90686500395532E-06,-1.1925814760616E-05,0.17578125,0,0
2.59899661614327E-06,-1.23988666018704E-05,0.17578125,0,0
2.48626383836381E-06,-1.16364271889324E-05,0.17578125,0,0
4.36480650023441E-06,-1.28259562188759E-05,0.17578125,0,0
5.23297694599023E-06,-1.35547952595516E-05,0.17578125,0,0
3.65559299098095E-06,-1.49649158629472E-05,0.17578125,0,0
2.1987511900079E-06,-1.56341557158157E-05,0.17578125,0,0
2.80783137895924E-06,-1.70724415511359E-05,0.17578125,0,0
3.29251361108618E-06,-1.72172258317005E-05,0.17578125,0,0
2.61779177890276E-06,-1.50183486766764E-05,0.17578125,0,0
2.60237356997095E-06,-1.15768143587047E-05,0.17578125,0,0
2.90011939796386E-06,-1.22903475130443E-05,0.17578125,0,0
2.72331067208142E-06,-1.48531144077424E-05,0.17578125,0,0
4.26369842898566E-06,-2.39703094848664E-05,0.17578125,0,0
3.14447856908373E-06,-2.15589097933844E-05,0.17578125,0,0
3.06716174236499E-06,-2.57804549619323E-05,0.17578125,0,0
2.70108330369112E-06,-2.20833699131617E-05,0.17578125,0,0
3.54375879396684E-06,-2.04471598408418E-05,0.17578125,0,0
3.75892750525963E-06,-1.51261483551934E-05,0.17578125,0,0
3.90773175240611E-06,-1.2829524166591E-05,0.17578125,0,0
3.34297874360345E-06,-1.28278634292656E-05,0.17578125,0,0
3.46053434441274E-06,-1.52386228364776E-05,0.17578125,0,0
2.87711895907705E-06,-1.7104310245486E-05,0.17578125,0,0
1.75243997091457E-06,-1.65994169947226E-05,0.17578125,0,0
2.68273447545653E-06,-1.70835010067094E-05,0.17578125,0,0
3.81539484806126E-06,-1.68967198987957E-05,0.17578125,0,0
3.94837661588099E-06,-1.88192698260536E-05,0.17578125,0,0
2.63272681877424E-06,-2.07534430956002E-05,0.17578125,0,0
1.35421328195662E-06,-2.42831283685518E-05,0.17578125,0,0
9.61415707934066E-07,-2.40152730839327E-05,0.17578125,0,0
2.19369826481852E-06,-2.16769349208334E-05,0.17578125,0,0
2.69698534793861E-06,-1.77726342371898E-05,0.17578125,0,0
1.62105845902261E-06,-1.6781648810138E-05,0.17578125,0,0
1.36937183015107E-06,-1.68142141774297E-05,0.17578125,0,0
3.69030613001087E-06,-1.78532754944172E-05,0.17578125,0,0
4.8792785491969E-06,-1.94415006262716E-05,0.17578125,0,0
3.8506336750288E-06,-2.30195455515059E-05,0.17578125,0,0
3.40644032803539E-06,-2.61476252489956E-05,0.17578125,0,0
3.46227852787706E-06,-2.7084022804047E-05,0.17578125,0,0
9.54261736296758E-07,-2.21827867790125E-05,0.17578125,0,0
1.22459766771499E-06,-2.91824198939139E-05,0.17578125,0,0
1.21733739888441E-06,-1.87029490916757E-05,0.17578125,0,0
9.77969193627359E-07,-2.39139935729327E-05,0.17578125,0,0
-4.58630410093974E-07,-1.92734460142674E-05,0.17578125,0,0
-5.14430041675951E-07,-2.29658107855357E-05,0.17578125,0,0
-2.22809759975462E-07,-1.92622537724674E-05,0.17578125,0,0
1.81556927714155E-07,-1.86134093382861E-05,0.17578125,0,0
2.98749824878541E-07,-1.86411125469022E-05,0.17578125,0,0
4.82013490454847E-07,-2.08073797693942E-05,0.17578125,0,0
-1.01662590168417E-06,-2.22202215809375E-05,0.17578125,0,0
-2.36065625358606E-06,-2.07265875360463E-05,0.17578125,0,0
-1.67123027949856E-06,-2.02315204660408E-05,0.17578125,0,0
2.38943833608118E-08,-1.80887345777592E-05,0.17578125,0,0
9.39202550398477E-07,-1.90596274478594E-05,0.17578125,0,0
8.99232304618636E-07,-1.76863650267478E-05,0.17578125,0,0
1.2314339983277E-06,-1.85520384547999E-05,0.17578125,0,0
1.73742921560915E-06,-1.74588185473112E-05,0.17578125,0,0
1.5804665736141E-06,-1.85255139513174E-05,0.17578125,0,0
3.94512937873515E-07,-1.77109086507699E-05,0.17578125,0,0
1.44773295573941E-07,-1.95762349903816E-05,0.17578125,0,0
6.6160578171548E-07,-1.98237121367129E-05,0.17578125,0,0
1.96991072698438E-06,-2.0140807464486E-05,0.17578125,0,0
3.0454305033345E-06,-1.94581025425578E-05,0.17578125,0,0
2.75477373179456E-06,-2.00603371922625E-05,0.17578125,0,0
6.18217484316119E-07,-1.82563981070416E-05,0.17578125,0,0
2.54200557492368E-07,-1.39535195557983E-05,0.17578125,0,0
2.31521971727489E-06,-8.6290074250428E-06,0.17578125,0,0
4.471221473068E-06,-1.33253033709479E-05,0.17578125,0,0
4.98761482958798E-06,-1.28280235003331E-05,0.17578125,0,0
4.98926920045051E-06,-1.72121235664235E-05,0.17578125,0,0
1.35993104777299E-06,-1.69419054145692E-05,0.17578125,0,0
-4.44551858436171E-07,-1.81471896212315E-05,0.17578125,0,0
1.73908995293459E-06,-1.76301709871041E-05,0.17578125,0,0
4.21499635194778E-06,-1.88419380720006E-05,0.17578125,0,0
5.36986317456467E-06,-1.78767040779348E-05,0.17578125,0,0
5.35515846422641E-06,-1.61554489750415E-05,0.17578125,0,0
3.89421211366425E-06,-1.63450349646155E-05,0.17578125,0,0
2.23761207962525E-06,-1.72057370946277E-05,0.17578125,0,0
2.24358518607914E-06,-1.83074298547581E-05,0.17578125,0,0
2.81697771242762E-06,-1.78000645973952E-05,0.17578125,0,0
1.97136159840738E-06,-1.69949034898309E-05,0.17578125,0,0
4.0054581518234E-07,-1.47277150972513E-05,0.17578125,0,0
8.37823677102278E-07,-1.43746228786767E-05,0.17578125,0,0
2.17780416278401E-06,-1.487474401074E-05,0.17578125,0,0
2.58682621279149E-06,-1.6929103367147E-05,0.17578125,0,0
2.62159051089839E-06,-1.79755897988798E-05,0.17578125,0,0
3.74545538761595E-06,-1.82557832886232E-05,0.3515625,0,0
5.83042992730043E-06,-1.78717909875559E-05,0.3515625,0,0
7.04863577993819E-06,-1.70577859535115E-05,0.3515625,0,0
6.43170278635807E-06,-1.47816972457804E-05,0.3515625,0,0
5.6339140428463E-06,-1.42115504786489E-05,0.3515625,0,0
5.12888072989881E-06,-1.38683872137335E-05,0.3515625,0,0
4.80772769151372E-06,-1.36567650770303E-05,0.3515625,0,0
3.67914321941498E-06,-1.21175771710114E-05,0.3515625,0,0
5.74803925701417E-06,-1.72216896316968E-05,0.3515625,0,0
5.12786618855898E-06,-1.36344642669428E-05,0.3515625,0,0
6.24110134594957E-06,-1.69695322256302E-05,0.3515625,0,0
5.81758331463789E-06,-1.40842121254536E-05,0.3515625,0,0
5.66925928069395E-06,-1.62078449648106E-05,0.3515625,0,0
3.81782137992559E-06,-1.66410318342969E-05,0.3515625,0,0
3.28105647895427E-06,-1.93918713193852E-05,0.3515625,0,0
2.11275323636073E-06,-1.84768487088149E-05,0.3515625,0,0
8.8709839474177E-07,-1.66553145390935E-05,0.3515625,0,0
1.76504522642063E-06,-1.64474276971305E-05,0.3515625,0,0
3.96811901737237E-06,-1.71227929968154E-05,0.3515625,0,0
5.43243140782579E-06,-1.89620986930095E-05,0.3515625,0,0
4.74175112685771E-06,-1.84004402399296E-05,0.3515625,0,0
3.31842647938174E-06,-1.81961622729432E-05,0.3515625,0,0
1.50059258885449E-06,-1.75087825482478E-05,0.3515625,0,0
8.64894104779523E-07,-1.81707546289545E-05,0.3515625,0,0
1.52120799157274E-06,-1.65149831445888E-05,0.3515625,0,0
2.98066038340039E-06,-1.63156182679813E-05,0.3515625,0,0
2.44066677623778E-06,-1.51913154695649E-05,0.3515625,0,0
-2.50422488079494E-07,-1.52477268784423E-05,0.3515625,0,0
-3.87010504709906E-06,-1.46278816828271E-05,0.3515625,0,0
-4.62018260805053E-06,-1.40157990244916E-05,0.3515625,0,0
-3.05994399241172E-06,-1.31997740027145E-05,0.3515625,0,0
-1.74987599166343E-06,-1.44145069498336E-05,0.3515625,0,0
-2.15974114325945E-06,-1.58489674504381E-05,0.3515625,0,0
-3.39953066941234E-06,-1.57026915985625E-05,0.3515625,0,0
-2.01798707166745E-06,-1.26689001263003E-05,0.3515625,0,0
-1.7447008531235E-06,-1.75938475877047E-05,0.3515625,0,0
5.43881469639018E-07,-1.22676146929734E-05,0.3515625,0,0
8.06416494469886E-07,-1.55363177327672E-05,0.3515625,0,0
1.53388293711032E-06,-1.28296596813016E-05,0.3515625,0,0
1.48675110267504E-06,-1.43201323226094E-05,0.3515625,0,0
2.89810645881516E-06,-1.32899085656391E-05,0.3515625,0,0
2.21816981138545E-06,-1.38646109917318E-05,0.3515625,0,0
9.55252403400664E-07,-1.32740406115772E-05,0.3515625,0,0
8.54782058468118E-07,-1.25953265524004E-05,0.3515625,0,0
2.66453116637422E-06,-1.36597054734011E-05,0.3515625,0,0
5.46615956409369E-06,-1.40419961098814E-05,0.3515625,0,0
7.92222635936923E-06,-1.45391986734467E-05,0.3515625,0,0
8.2004016803694E-06,-1.44636387631181E-05,0.3515625,0,0
5.72234557694173E-06,-1.65938381542219E-05,0.3515625,0,0
3.96600762542221E-06,-1.7638978533796E-05,0.3515625,0,0
3.70824682249804E-06,-1.85895914910361E-05,0.3515625,0,0
4.71593148176908E-06,-1.75042514456436E-05,0.3515625,0,0
5.76149886910571E-06,-1.86881661647931E-05,0.3515625,0,0
7.62283616495552E-06,-2.01893562916666E-05,0.3515625,0,0
8.96736946742749E-06,-2.19772555283271E-05,0.3515625,0,0
8.89985767571488E-06,-2.08921319426736E-05,0.3515625,0,0
6.73909971737885E-06,-2.0202664018143E-05,0.3515625,0,0
4.9601262617216E-06,-2.02304781851126E-05,0.3515625,0,0
5.74125078856014E-06,-2.00821632461157E-05,0.3515625,0,0
7.22952927389997E-06,-2.04411935555981E-05,0.3515625,0,0
7.36417223379249E-06,-2.1528347133426E-05,0.3515625,0,0
5.28248074260773E-06,-1.79583385033766E-05,0.3515625,0,0
7.83894392952789E-06,-2.46355029958067E-05,0.3515625,0,0
6.61042395222466E-06,-1.76155299413949E-05,0.3515625,0,0
8.12177859188523E-06,-2.18317745748209E-05,0.3515625,0,0
6.14459122516564E-06,-1.72065174410818E-05,0.3515625,0,0
6.3395050347026E-06,-2.00808444787981E-05,0.3515625,0,0
5.95758137933444E-06,-1.91967610589927E-05,0.3515625,0,0
6.35353262623539E-06,-2.09674872166943E-05,0.3515625,0,0
4.87350007460918E-06,-2.01980838028248E-05,0.3515625,0,0
3.5938564906246E-06,-1.94226595340297E-05,0.3515625,0,0
2.81542725133477E-06,-1.85632161446847E-05,0.3515625,0,0
2.3168954612629E-06,-1.75162185769295E-05,0.3515625,0,0
3.26157260133186E-06,-1.97681401914451E-05,0.3515625,0,0
4.27966097049648E-06,-2.09853951673722E-05,0.3515625,0,0
5.27474639966385E-06,-2.16734770219773E-05,0.3515625,0,0
3.99002828999073E-06,-1.84628934221109E-05,0.3515625,0,0
1.79599567218247E-06,-1.79175785888219E-05,0.3515625,0,0
-5.47588399513188E-07,-1.66054414876271E-05,0.3515625,0,0
-4.28620381853762E-07,-1.75855802808655E-05,0.3515625,0,0
2.86918492520272E-07,-1.67958187375916E-05,0.3515625,0,0
9.73862370301504E-07,-1.79099897650303E-05,0.3515625,0,0
7.57829866415705E-07,-1.72339496202767E-05,0.3515625,0,0
1.60157469508704E-07,-1.52317061292706E-05,0.3515625,0,0
-1.09341976894939E-06,-1.28002675410244E-05,0.3515625,0,0
-1.79900825969526E-06,-1.38267932925373E-05,0.3515625,0,0
-2.38956954490277E-06,-1.55551115312846E-05,0.3515625,0,0
-3.07571508528781E-06,-1.71056799445068E-05,0.3515625,0,0
-2.15024988392543E-06,-1.48581329995068E-05,0.3515625,0,0
-2.2043686840334E-06,-2.16007974813692E-05,0.3515625,0,0
-9.95303480522125E-07,-1.66049012477743E-05,0.3515625,0,0
-5.79832999392238E-07,-1.92430543393129E-05,0.3515625,0,0
1.54939107233076E-06,-1.52651609823806E-05,0.3515625,0,0
-1.69054615639652E-07,-1.69020240718964E-05,0.3515625,0,0
-1.31467072606029E-06,-1.69676677614916E-05,0.3515625,0,0
-2.35244169743964E-06,-2.0485767890932E-05,0.3515625,0,0
-2.70335317509307E-06,-2.13648181670578E-05,0.3515625,0,0
-2.29692113862257E-06,-2.13374714803649E-05,0.3515625,0,0
-1.84838961558853E-06,-2.07709108508425E-05,0.3515625,0,0
-2.05576407097396E-06,-1.94011754501844E-05,0.3515625,0,0
-2.79287746707269E-06,-1.91329418157693E-05,0.3515625,0,0
-3.53623454429908E-06,-1.81904888449935E-05,0.3515625,0,0
-4.6668506001879E-06,-1.8534035916673E-05,0.3515625,0,0
-4.79251684737392E-06,-1.68735041370383E-05,0.3515625,0,0
-3.88827766073518E-06,-1.71462652360788E-05,0.3515625,0,0
-1.57166186909308E-06,-1.70500206877477E-05,0.3515625,0,0
7.32578882889356E-07,-1.97179615497589E-05,0.3515625,0,0
2.25027520173171E-06,-2.14297324419022E-05,0.3515625,0,0
2.19312642002478E-06,-2.26801730605075E-05,0.3515625,0,0
2.53481380241283E-06,-2.05954274861142E-05,0.3515625,0,0
2.60539150076511E-06,-1.79114013008075E-05,0.3515625,0,0
3.25688847624406E-06,-1.44635796459625E-05,0.3515625,0,0
4.25129701397964E-06,-1.31823244373663E-05,0.3515625,0,0
4.33680543210357E-06,-1.39844569275738E-05,0.3515625,0,0
4.68480629933765E-06,-1.63903932843823E-05,0.3515625,0,0
4.87957686345908E-06,-1.26687091324129E-05,0.3515625,0,0
8.43551060825121E-06,-1.56236910697771E-05,0.3515625,0,0
7.76623983256286E-06,-9.52690606936812E-06,0.3515625,0,0
8.48047238832805E-06,-1.29974114315701E-05,0.3515625,0,0
7.72428029449657E-06,-9.73810892901383E-06,0.3515625,0,0
9.21555601962609E-06,-1.2785889339284E-05,0.3515625,0,0
9.62681224336848E-06,-1.3150804079487E-05,0.3515625,0,0
1.11170629679691E-05,-1.46210768434685E-05,0.3515625,0,0
1.24717753351433E-05,-1.37400038511259E-05,0.3515625,0,0
1.42037715704646E-05,-1.37184606501251E-05,0.3515625,0,0
1.49462366607622E-05,-1.39542271426762E-05,0.3515625,0,0
1.35886284624576E-05,-1.33864323288435E-05,0.3515625,0,0
1.27851008073776E-05,-1.49482966662617E-05,0.3515625,0,0
1.23355948744575E-05,-1.5794543287484E-05,0.3515625,0,0
1.21070243039867E-05,-1.6939118722803E-05,0.3515625,0,0
1.17267509267549E-05,-1.48608323797816E-05,0.3515625,0,0
1.32131372083677E-05,-1.3461150956573E-05,0.3515625,0,0
1.47887549246661E-05,-1.038547452481E-05,0.3515625,0,0
1.5040350263007E-05,-1.05940798675874E-05,0.3515625,0,0
1.47200144056114E-05,-1.33097819343675E-05,0.3515625,0,0
1.68166279763682E-05,-1.70870480360463E-05,0.3515625,0,0
1.85197277460247E-05,-1.66363388416357E-05,0.3515625,0,0
1.80537772394018E-05,-1.58542006829521E-05,0.3515625,0,0
1.73807693499839E-05,-1.48162744153524E-05,0.3515625,0,0
1.8496479242458E-05,-1.44278128573205E-05,0.3515625,0,0
1.87084096978651E-05,-1.48684857776971E-05,0.3515625,0,0
1.79654471139656E-05,-1.61531770572765E-05,0.3515625,0,0
1.39958128784201E-05,-1.32157856569393E-05,0.3515625,0,0
1.81175746547524E-05,-1.7051459508366E-05,0.3515625,0,0
1.0848896636162E-05,-1.09495158540085E-05,0.3515625,0,0
1.43832812682376E-05,-1.46510492413654E-05,0.3515625,0,0
1.14277027023491E-05,-1.29649670270737E-05,0.3515625,0,0
1.09803013401688E-05,-1.64710709213978E-05,0.3515625,0,0
4.62887601315742E-06,-1.62611722771544E-05,0.3515625,0,0
1.64921186751599E-06,-1.85886619874509E-05,0.3515625,0,0
-1.1361352392214E-07,-1.93029663932975E-05,0.3515625,0,0
-5.60066926169611E-09,-2.07751218113117E-05,0.3515625,0,0
-8.00337772943749E-07,-2.15416239370825E-05,0.3515625,0,0
-3.35831373377005E-06,-1.95171323866816E-05,0.3515625,0,0
-4.71901876153424E-06,-1.89812380995136E-05,0.3515625,0,0
-6.25062375547714E-06,-1.88125886779744E-05,0.3515625,0,0
-5.47633453606977E-06,-2.02919745788677E-05,0.3515625,0,0
-6.51993741485057E-06,-1.96098062588135E-05,0.3515625,0,0
-6.29729629508802E-06,-2.06553959287703E-05,0.3515625,0,0
-7.76717206463218E-06,-2.00368212972535E-05,0.3515625,0,0
-7.72954263084102E-06,-2.08967503567692E-05,0.3515625,0,0
-8.34657748782774E-06,-2.05341239052359E-05,0.3515625,0,0
-7.94953939475818E-06,-2.01463317353046E-05,0.3515625,0,0
-8.80713196238503E-06,-1.7862501408672E-05,0.3515625,0,0
-8.42159624880878E-06,-1.70683069882216E-05,0.3515625,0,0
-9.15069540496916E-06,-1.74910310306586E-05,0.3515625,0,0
-1.00064225989627E-05,-1.84903801709879E-05,0.3515625,0,0
-1.03646607385599E-05,-1.96347391465679E-05,0.3515625,0,0
-9.72768339124741E-06,-2.09535446629161E-05,0.3515625,0,0
-7.96460881247185E-06,-1.53829842020059E-05,0.3515625,0,0
-1.08267422547215E-05,-2.09507506951923E-05,0.3515625,0,0
-5.53195286556729E-06,-1.68427195603726E-05,0.3515625,0,0
-5.60034732188797E-06,-2.18453551497078E-05,0.3515625,0,0
-4.54741848443518E-06,-1.63655313372146E-05,0.3515625,0,0
-6.71815496389172E-06,-1.70104358403478E-05,0.3515625,0,0
-5.14241037308238E-06,-1.57384038175223E-05,0.3515625,0,0
-4.58727527075098E-06,-1.9718196199392E-05,0.3515625,0,0
-3.50820209860103E-06,-1.95359025383368E-05,0.3515625,0,0
-2.82579685517703E-06,-1.68704409588827E-05,0.3515625,0,0
-1.6725534806028E-06,-1.54460904013831E-05,0.3515625,0,0
-1.30753903704317E-06,-1.58544207806699E-05,0.3515625,0,0
-1.46769286857307E-06,-1.808217530197E-05,0.3515625,0,0
-6.3656841575721E-07,-1.68203659995925E-05,0.3515625,0,0
-1.19246226404357E-06,-1.48384624480968E-05,0.3515625,0,0
-9.98152245301753E-07,-1.02241874628817E-05,0.3515625,0,0
-1.62666196956707E-06,-9.21081209526164E-06,0.3515625,0,0
-9.29395355342422E-07,-8.88195154402638E-06,0.3515625,0,0
-1.62793241997861E-07,-1.29288264361094E-05,0.3515625,0,0
1.30372302464821E-06,-1.59003684530035E-05,0.3515625,0,0
3.36093307851115E-07,-1.72059626493137E-05,0.3515625,0,0
-6.12713108694152E-07,-1.60296222020406E-05,0.3515625,0,0
-1.43947795550048E-06,-1.66743502632016E-05,0.3515625,0,0
-1.47740809097741E-06,-1.74071828951128E-05,0.3515625,0,0
-1.88194871952874E-06,-1.83077827387024E-05,0.3515625,0,0
-2.09911831916543E-06,-1.73188655026024E-05,0.3515625,0,0
-1.6389151369367E-06,-1.81106061063474E-05,0.3515625,0,0
-5.648884666698E-07,-1.75789700733731E-05,0.3515625,0,0
-2.20140827877913E-06,-2.8235292120371E-05,0.3515625,0,0
-5.23822336617741E-06,-2.69766333076404E-05,0.3515625,0,0
-6.86698376739514E-06,-3.3950484066736E-05,0.3515625,0,0
-5.15963165526045E-06,-3.0582941690227E-05,0.3515625,0,0
-2.69561701315979E-06,-3.12400370603427E-05,0.3515625,0,0
-1.61269815635023E-06,-2.95533427561168E-05,0.3515625,0,0
-9.261490845347E-07,-3.02733496937435E-05,0.3515625,0,0
-3.32442311901104E-07,-2.9040289518889E-05,0.3515625,0,0
-2.88428310568634E-07,-2.81122320302529E-05,0.3515625,0,0
8.97870449989568E-07,-2.62590474449098E-05,0.3515625,0,0
2.85002852251637E-06,-2.42323840211611E-05,0.3515625,0,0
3.70286420547927E-06,-2.47380958171561E-05,0.3515625,0,0
3.46618185176339E-06,-2.40787921939045E-05,0.3515625,0,0
3.5392972677073E-06,-2.30022833420662E-05,0.3515625,0,0
3.62354330718517E-06,-1.9462038835627E-05,0.3515625,0,0
2.87032730739156E-06,-1.93807263713097E-05,0.3515625,0,0
2.27392251872516E-06,-1.83723386726342E-05,0.3515625,0,0
2.25659982788784E-06,-1.81500417966163E-05,0.3515625,0,0
2.07404355023755E-06,-1.55519574036589E-05,0.3515625,0,0
1.6652277281537E-06,-1.43607076097396E-05,0.3515625,0,0
2.34858862313558E-06,-1.35874788611545E-05,0.3515625,0,0
3.53769519279012E-06,-1.5009563867352E-05,0.3515625,0,0
4.12422969020554E-06,-1.4882965842844E-05,0.3515625,0,0
3.78623440155934E-06,-1.37519482450443E-05,0.3515625,0,0
3.88325543099199E-06,-1.30088965306641E-05,0.3515625,0,0
5.4806046136946E-06,-1.47591172208195E-05,0.3515625,0,0
6.38681376585737E-06,-1.41733107739128E-05,0.3515625,0,0
9.50041157921078E-06,-2.03730614884989E-05,0.3515625,0,0
6.48299965178012E-06,-1.48512990563177E-05,0.3515625,0,0
6.4834489421628E-06,-1.85409971891204E-05,0.3515625,0,0
3.81895506507135E-06,-1.67655543918954E-05,0.3515625,0,0
3.53720542989322E-06,-1.68190308613703E-05,0.3515625,0,0
4.19211391999852E-06,-1.28884366858983E-05,0.3515625,0,0
6.69619703330682E-06,-1.30327152874088E-05,0.3515625,0,0
7.9479605119559E-06,-1.30547996377572E-05,0.3515625,0,0
9.69437405728968E-06,-1.29413665490574E-05,0.3515625,0,0
1.18788793770364E-05,-1.22821120385197E-05,0.3515625,0,0
1.30128391901962E-05,-1.16674791570404E-05,0.3515625,0,0
1.29949030451826E-05,-1.33851326609147E-05,0.3515625,0,0
1.22118808576488E-05,-1.41982663990348E-05,0.3515625,0,0
1.22742212624871E-05,-1.49098523252178E-05,0.3515625,0,0
1.12216575871571E-05,-1.27350731418119E-05,0.3515625,0,0
1.01098630693741E-05,-1.20092527140514E-05,0.3515625,0,0
8.98487724043662E-06,-1.18444686449948E-05,0.3515625,0,0
9.9981780294911E-06,-1.43022634802037E-05,0.3515625,0,0
1.09076690932852E-05,-1.47329046740197E-05,0.3515625,0,0
1.1734621693904E-05,-1.52762877405621E-05,0.3515625,0,0
1.17544841486961E-05,-1.41917998917052E-05,0.3515625,0,0
1.15483626359492E-05,-1.42708913699607E-05,0.3515625,0,0
1.03654865597491E-05,-1.38607456392492E-05,0.3515625,0,0
8.66270147525938E-06,-1.33563198687625E-05,0.3515625,0,0
7.09183541403036E-06,-1.35140317070181E-05,0.3515625,0,0
7.00182590662735E-06,-1.3636299627251E-05,0.3515625,0,0
5.857655651198E-06,-1.17240706458688E-05,0.3515625,0,0
8.05444869911298E-06,-1.70197636180092E-05,0.3515625,0,0
5.96424843024579E-06,-1.30216876641498E-05,0.3515625,0,0
7.34735158403055E-06,-1.60847212100634E-05,0.3515625,0,0
5.51517405256163E-06,-1.49899760799599E-05,0.3515625,0,0
6.21093204244971E-06,-1.79191683855606E-05,0.3515625,0,0
6.51131722406717E-06,-1.78847421921091E-05,0.3515625,0,0
7.32822809368372E-06,-1.829126085795E-05,0.3515625,0,0
5.87475415159133E-06,-1.66918362083379E-05,0.3515625,0,0
4.59502916783094E-06,-1.73239368450595E-05,0.3515625,0,0
3.83718133889488E-06,-1.93805153685389E-05,0.3515625,0,0
2.65530661636149E-06,-1.93320447579026E-05,0.3515625,0,0
2.32663251154008E-06,-1.9178840375389E-05,0.3515625,0,0
2.01870852833963E-06,-1.82591556949774E-05,0.3515625,0,0
2.22293078877556E-06,-1.93052801478188E-05,0.3515625,0,0
1.55954114688939E-06,-1.97628123714821E-05,0.3515625,0,0
1.35024151859398E-06,-2.04981697606854E-05,0.3515625,0,0
-1.14819385998999E-07,-1.85856679308927E-05,0.3515625,0,0
-1.32958086851431E-06,-1.81058167072479E-05,0.3515625,0,0
-2.51735400524922E-06,-1.79868420673301E-05,0.3515625,0,0
-1.89346997103712E-06,-1.81979576154845E-05,0.3515625,0,0
-8.83535221873899E-07,-1.64566354214912E-05,0.3515625,0,0
3.77405712015388E-07,-1.60422114277026E-05,0.3515625,0,0
8.20851564498071E-09,-1.59226638061227E-05,0.3515625,0,0
-8.8145992549471E-07,-1.6267837054329E-05,0.3515625,0,0
-1.38723430609389E-06,-1.62134747370146E-05,0.3515625,0,0
-1.17244121611293E-06,-1.48218541653478E-05,0.3515625,0,0
-6.69521398322104E-07,-1.18570715130772E-05,0.3515625,0,0
-1.88591101846214E-07,-1.86646702786675E-05,0.3515625,0,0
1.63439551670308E-07,-1.58951752382563E-05,0.3515625,0,0
-1.01108514627413E-06,-1.81377836270258E-05,0.3515625,0,0
-2.20182960219972E-06,-1.49116331158439E-05,0.3515625,0,0
-3.31679439113941E-06,-1.56443074956769E-05,0.3515625,0,0
-1.8728950408331E-06,-1.48779336086591E-05,0.3515625,0,0
-6.97085567935574E-07,-1.65947822097223E-05,0.3515625,0,0
-5.12950862230355E-07,-1.78211976162856E-05,0.3515625,0,0
-7.7363830541799E-07,-1.91656654351391E-05,0.3515625,0,0
-1.71483873145917E-06,-1.87698515219381E-05,0.3515625,0,0
-3.34006949742616E-06,-1.70126513694413E-05,0.3515625,0,0
-5.44047907169443E-06,-1.82538806257071E-05,0.3515625,0,0
-7.48060392652405E-06,-1.9369463188923E-05,0.3515625,0,0
-7.6330343290465E-06,-2.06663044082234E-05,0.3515625,0,0
-5.72210547034047E-06,-1.89266429515556E-05,0.3515625,0,0
-4.37802691521938E-06,-1.76704379555304E-05,0.3515625,0,0
-2.91670153274026E-06,-1.66321042343043E-05,0.3515625,0,0
3.25867510753142E-08,-1.84966229426209E-05,0.3515625,0,0
3.48102639691206E-06,-2.00374161067884E-05,0.3515625,0,0
4.45669547843863E-06,-2.12003178603482E-05,0.3515625,0,0
3.43458623319748E-06,-2.02769715542672E-05,0.3515625,0,0
3.69510621567315E-06,-2.01050370378653E-05,0.3515625,0,0
7.08429524820531E-06,-2.06582062673988E-05,0.3515625,0,0
1.06704965219251E-05,-2.03167801373638E-05,0.3515625,0,0
1.19260175779345E-05,-1.90119990293169E-05,0.3515625,0,0
1.23601257655537E-05,-1.78654772753362E-05,0.3515625,0,0
1.15352640932542E-05,-1.40180836751824E-05,0.3515625,0,0
1.72743584698765E-05,-2.16484622796997E-05,0.3515625,0,0
1.46590737131191E-05,-1.99422429432161E-05,0.3515625,0,0
1.8774087948259E-05,-2.26813408517046E-05,0.3515625,0,0
1.73600383277517E-05,-1.64077882800484E-05,0.3515625,0,0
2.03063427761663E-05,-1.84327927854611E-05,0.3515625,0,0
1.92447496374371E-05,-1.94383192138048E-05,0.3515625,0,0
1.81361810973613E-05,-2.15206509892596E-05,0.3515625,0,0
1.41617247209069E-05,-2.08552955882624E-05,0.3515625,0,0
1.06907882582163E-05,-2.06228833121713E-05,0.3515625,0,0
8.8479528130847E-06,-1.97315257537412E-05,0.3515625,0,0
6.98737176207942E-06,-1.79014441528125E-05,0.3515625,0,0
6.74533293931745E-06,-1.75951681740116E-05,0.3515625,0,0
5.72255294173374E-06,-1.70710754900938E-05,0.3515625,0,0
5.66401149626472E-06,-1.79422640940174E-05,0.3515625,0,0
5.03251840200392E-06,-1.6277361282846E-05,0.3515625,0,0
6.08263690082822E-06,-1.52377169797546E-05,0.3515625,0,0
5.41592180525186E-06,-1.35080281324917E-05,0.3515625,0,0
5.81503172725206E-06,-1.47261571328272E-05,0.3515625,0,0
5.20780895385542E-06,-1.51942913362291E-05,0.3515625,0,0
4.5330898501561E-06,-1.67630696523702E-05,0.3515625,0,0
2.72708643933584E-06,-1.68527749337954E-05,0.3515625,0,0
1.47114064930065E-06,-1.76470894075464E-05,0.3515625,0,0
1.17151353151712E-06,-1.68331225722795E-05,0.3515625,0,0
3.17496028401365E-06,-1.49990810314193E-05,0.3515625,0,0
5.4145621106727E-06,-1.39570311148418E-05,0.3515625,0,0
6.06383855483728E-06,-1.56672340381192E-05,0.3515625,0,0
3.15784632221039E-06,-1.28010769913089E-05,0.3515625,0,0
2.05746732717671E-06,-1.64777193276677E-05,0.3515625,0,0
-1.03012280305848E-06,-1.13857840915443E-05,0.3515625,0,0
2.35446563578989E-07,-1.54276131070219E-05,0.3515625,0,0
2.03294916900632E-07,-1.22710771393031E-05,0.3515625,0,0
8.28900738270022E-07,-1.39551357278833E-05,1.40625,0,0
-8.79473645909457E-07,-1.27456287373207E-05,1.40625,0,0
-2.14113811125571E-06,-1.51032463691081E-05,1.40625,0,0
-3.427708406889E-06,-1.49051884363871E-05,1.40625,0,0
-3.34438504978607E-06,-1.34627962324885E-05,1.40625,0,0
-2.93684456664778E-06,-1.25022288557375E-05,1.40625,0,0
-3.45529269907274E-06,-1.17893896458554E-05,1.40625,0,0
-3.80220512852247E-06,-1.3516834769689E-05,1.40625,0,0
-3.75887998416147E-06,-1.42353028422804E-05,1.40625,0,0
-2.21065783989616E-06,-1.45112844620598E-05,1.40625,0,0
-1.05230151348223E-06,-1.21990615298273E-05,1.40625,0,0
8.01140799921995E-07,-1.35858263092814E-05,1.40625,0,0
1.89167974440352E-06,-1.5261475709849E-05,1.40625,0,0
2.79472715192242E-06,-1.72769141499884E-05,1.40625,0,0
3.13924965666956E-06,-1.56499481818173E-05,1.40625,0,0
3.38976360581E-06,-1.55822745000478E-05,1.40625,0,0
2.31496528613206E-06,-1.640000664338E-05,1.40625,0,0
1.18525815651083E-06,-1.68292444868712E-05,1.40625,0,0
5.24078643593384E-07,-1.50377782119904E-05,1.40625,0,0
5.32333103819838E-07,-1.47824694067822E-05,1.40625,0,0
-3.72890156086214E-07,-1.59007086040219E-05,1.40625,0,0
-1.81076109129208E-06,-1.6403355402872E-05,1.40625,0,0
-1.89049546861497E-06,-1.40303927764762E-05,1.40625,0,0
-2.85570399682911E-06,-2.0318313545431E-05,1.40625,0,0
-3.50705045093491E-06,-1.48871367855463E-05,1.40625,0,0
-4.37599646829767E-06,-1.7178499547299E-05,1.40625,0,0
-2.21897039409669E-06,-1.35675882120267E-05,1.40625,0,0
-1.4304353044281E-06,-1.50582263813703E-05,1.40625,0,0
-1.29982447560906E-06,-1.41030086524552E-05,1.40625,0,0
-2.31499234359944E-06,-1.47638047565124E-05,1.40625,0,0
-2.3974228042789E-06,-1.50914856931195E-05,1.40625,0,0
-2.51562710218423E-06,-1.61892512551276E-05,1.40625,0,0
-3.25397559208795E-06,-1.58595266839257E-05,1.40625,0,0
-3.40847486768325E-06,-1.4725193977938E-05,1.40625,0,0
-2.9363702651608E-06,-1.53446726471884E-05,1.40625,0,0
-2.66675056082022E-06,-1.57015256263549E-05,1.40625,0,0
-3.0195994895621E-06,-1.72943819052307E-05,1.40625,0,0
-2.60781030192447E-06,-1.74418364622397E-05,1.40625,0,0
-1.70903683738288E-06,-1.8684961105464E-05,1.40625,0,0
-4.62946552204357E-08,-1.7876267520478E-05,1.40625,0,0
-8.77222632311714E-08,-1.88395206350833E-05,1.40625,0,0
-1.49132608839864E-06,-1.89029160537757E-05,1.40625,0,0
-2.79287633020431E-06,-1.90912069228943E-05,1.40625,0,0
-1.81921154762676E-06,-1.78723330463981E-05,1.40625,0,0
5.80774042191479E-07,-1.82121784746414E-05,1.40625,0,0
2.24393625103403E-06,-2.01664515770972E-05,1.40625,0,0
2.06913887268456E-06,-2.31369176617591E-05,1.40625,0,0
1.55339512275532E-06,-2.44117200054461E-05,1.40625,0,0
2.2225035536394E-06,-2.41064626607113E-05,1.40625,0,0
2.30288992497663E-06,-1.86583656613948E-05,1.40625,0,0
2.90687398774026E-06,-2.70311247732025E-05,1.40625,0,0
6.57858322483662E-07,-2.11025781027274E-05,1.40625,0,0
4.31973177228429E-07,-2.49603490374284E-05,1.40625,0,0
2.54983632430594E-07,-2.04302450583782E-05,1.40625,0,0
9.74017325461318E-07,-2.31604008149588E-05,1.40625,0,0
1.27657528992131E-06,-2.11129226954654E-05,1.40625,0,0
1.7734082575771E-06,-2.21405371121364E-05,1.40625,0,0
2.22151447815122E-06,-2.10106536542298E-05,1.40625,0,0
3.26988265442196E-06,-2.09882018680219E-05,1.40625,0,0
4.59838202004903E-06,-2.20226393139455E-05,1.40625,0,0
5.01958220411325E-06,-2.13849325518822E-05,1.40625,0,0
4.13777843277785E-06,-2.13738458114676E-05,1.40625,0,0
3.150400971208E-06,-2.02016180992359E-05,1.40625,0,0
3.49463448401366E-06,-2.10915623028995E-05,1.40625,0,0
3.80027654500736E-06,-1.90073715202743E-05,1.40625,0,0
3.91773573937826E-06,-1.90920054592425E-05,1.40625,0,0
3.80767619390099E-06,-1.79424150701379E-05,1.40625,0,0
4.54588416687329E-06,-1.82740532181924E-05,1.40625,0,0
6.23699770585517E-06,-1.63640015671263E-05,1.40625,0,0
7.20092839401332E-06,-1.72583695530193E-05,1.40625,0,0
6.48042532702675E-06,-1.85608696483541E-05,1.40625,0,0
5.63288313060184E-06,-2.01102266146336E-05,1.40625,0,0
5.21397669217549E-06,-1.79158669197932E-05,1.40625,0,0
5.92412834521383E-06,-1.36777125590015E-05,1.40625,0,0
6.93559695719159E-06,-9.59269345912617E-06,1.40625,0,0
9.21396258490859E-06,-7.86344935477246E-06,1.40625,0,0
8.55956477607833E-06,-7.52839787310222E-06,1.40625,0,0
1.26048298625392E-05,-1.297008657275E-05,1.40625,0,0
9.97151710180333E-06,-1.41178516059881E-05,1.40625,0,0
1.17373274406418E-05,-1.78643385879695E-05,1.40625,0,0
8.13639144325862E-06,-1.72085237863939E-05,1.40625,0,0
7.01581711837207E-06,-1.87105833902024E-05,1.40625,0,0
4.92845583721646E-06,-1.86893339559902E-05,1.40625,0,0
5.83474275117624E-06,-1.86470097105484E-05,1.40625,0,0
6.31940883977222E-06,-1.77692982106237E-05,1.40625,0,0
6.32077535556164E-06,-1.76606681634439E-05,1.40625,0,0
6.22163452135283E-06,-1.8609545804793E-05,1.40625,0,0
6.6990851337323E-06,-1.8426089809509E-05,1.40625,0,0
7.8539806054323E-06,-1.66059380717343E-05,1.40625,0,0
6.90486103849253E-06,-1.29953259602189E-05,1.40625,0,0
5.93008326177369E-06,-1.19455480671604E-05,1.40625,0,0
3.51671451426228E-06,-1.32529003167292E-05,1.40625,0,0
2.76088417194842E-06,-1.61283733177697E-05,1.40625,0,0
2.49941672336718E-06,-1.62053147505503E-05,1.40625,0,0
3.52482493326534E-06,-1.44585719681345E-05,1.40625,0,0
3.51529160980135E-06,-1.16781375254504E-05,1.40625,0,0
3.04484274238348E-06,-1.00064935395494E-05,1.40625,0,0
1.44869488849508E-06,-9.55666746449424E-06,1.40625,0,0
1.7119181165981E-06,-1.09790771603002E-05,1.40625,0,0
4.38492998000584E-06,-1.18305006253649E-05,1.40625,0,0
6.90967226546491E-06,-1.15914845082443E-05,1.40625,0,0
7.02498209648184E-06,-1.09069314930821E-05,1.40625,0,0
6.89839544065762E-06,-1.00028346423642E-05,1.40625,0,0
5.04984336657799E-06,-6.67035646984004E-06,1.40625,0,0
4.77990261060768E-06,-1.05380686363787E-05,1.40625,0,0
-1.16385386661477E-07,-1.10254595711012E-05,1.40625,0,0
1.48372407693387E-06,-1.38400992000243E-05,1.40625,0,0
2.50449465966085E-06,-1.21962275443366E-05,1.40625,0,0
3.50833875017997E-06,-1.47885839396622E-05,1.40625,0,0
2.61147101809911E-06,-1.57115009642439E-05,1.40625,0,0
3.65787241207727E-06,-1.67439084179932E-05,1.40625,0,0
3.51562198375177E-06,-1.64461052918341E-05,1.40625,0,0
3.9743372326484E-06,-1.56112528202357E-05,1.40625,0,0
4.37442167822155E-06,-1.41037953653722E-05,1.40625,0,0
3.49244783137692E-06,-1.32936211230117E-05,1.40625,0,0
2.63536867350922E-06,-1.45213170981151E-05,1.40625,0,0
1.39968472012697E-06,-1.50171963468893E-05,1.40625,0,0
1.02403339496959E-06,-1.48460158015951E-05,1.40625,0,0
3.62325664582386E-07,-1.41225737024797E-05,1.40625,0,0
1.75100467458833E-06,-1.56302412506193E-05,1.40625,0,0
2.89609829451365E-06,-1.67038069776027E-05,1.40625,0,0
2.37721974372107E-06,-1.79392245627241E-05,1.40625,0,0
-3.61176830665499E-07,-1.79637190740323E-05,1.40625,0,0
-1.19691094369045E-06,-1.72955315065337E-05,1.40625,0,0
-1.51651852320356E-06,-1.51599988384987E-05,1.40625,0,0
-1.33214689412853E-06,-1.50378045873367E-05,1.40625,0,0
-3.75448053091532E-07,-1.58279344759649E-05,1.40625,0,0
4.34117481518115E-07,-1.57110007421579E-05,1.40625,0,0
-1.61375908191985E-07,-1.55286397784948E-05,1.40625,0,0
-1.82353494437848E-06,-1.55133184307488E-05,1.40625,0,0
-1.06067182059633E-06,-1.38844634420821E-05,1.40625,0,0
-6.57530904391024E-07,-2.14486899494659E-05,1.40625,0,0
3.13195954504408E-07,-1.75262812263099E-05,1.40625,0,0
-7.47533761114028E-07,-1.99416062969249E-05,1.40625,0,0
5.04748754792672E-07,-1.69354625541018E-05,1.40625,0,0
2.34205026572454E-06,-2.00641261471901E-05,1.40625,0,0
3.79722541765659E-06,-2.15616382774897E-05,1.40625,0,0
3.80099868380057E-06,-2.31597423407948E-05,1.40625,0,0
4.35453785030404E-06,-1.99704281840241E-05,1.40625,0,0
6.03810212851386E-06,-1.73752123373561E-05,1.40625,0,0
7.05957381796907E-06,-1.76016146724578E-05,1.40625,0,0
6.82599784340709E-06,-1.80960050784051E-05,1.40625,0,0
6.27250938123325E-06,-1.98995385289891E-05,1.40625,0,0
6.59544912195997E-06,-2.02453757083276E-05,1.40625,0,0
7.46899922887678E-06,-2.10655271075666E-05,1.40625,0,0
8.47798673930811E-06,-1.98625984921819E-05,1.40625,0,0
8.35757691675099E-06,-2.07993161893683E-05,1.40625,0,0
6.98823168931995E-06,-2.25786789087579E-05,1.40625,0,0
5.49103424418718E-06,-2.76550726994174E-05,1.40625,0,0
4.80016660731053E-06,-3.06676702166442E-05,1.40625,0,0
4.54004521088791E-06,-3.05202775052749E-05,1.40625,0,0
5.48565230928943E-06,-2.62876255874289E-05,1.40625,0,0
7.28715349396225E-06,-2.19381836359389E-05,1.40625,0,0
8.52699577080784E-06,-1.78559075720841E-05,1.40625,0,0
7.61104956836789E-06,-1.56780970428372E-05,1.40625,0,0
6.04593287789612E-06,-1.61118568939855E-05,1.40625,0,0
7.0764936026535E-06,-1.72832642419962E-05,1.40625,0,0
7.74173258832889E-06,-1.53956116264453E-05,1.40625,0,0
1.17057516035857E-05,-2.30383957386948E-05,1.40625,0,0
9.09134905668907E-06,-1.90300706890412E-05,1.40625,0,0
1.00011557151447E-05,-2.22935395868262E-05,1.40625,0,0
6.7861133175029E-06,-1.65995988936629E-05,1.40625,0,0
6.75100545777241E-06,-1.66029276442714E-05,1.40625,0,0
6.49297453492181E-06,-1.59827195602702E-05,1.40625,0,0
6.94174150339677E-06,-1.90417904377682E-05,3.33984375,0,0
5.65818936593132E-06,-2.00029753614217E-05,3.33984375,0,0
4.97892233397579E-06,-2.02177307073725E-05,3.33984375,0,0
4.78359788758098E-06,-2.0003422832815E-05,3.33984375,0,0
4.06576054956531E-06,-1.91441649803892E-05,3.33984375,0,0
3.72034719475778E-06,-1.99378409888595E-05,3.33984375,0,0
2.50912989940844E-06,-1.83601441676728E-05,3.33984375,0,0
2.41921566157544E-06,-1.74977067217696E-05,3.33984375,0,0
3.02730063594936E-06,-1.58157508849399E-05,3.33984375,0,0
4.55524150311248E-06,-1.66142181114992E-05,3.33984375,0,0
3.37198866873223E-06,-1.50478408613708E-05,3.33984375,0,0
1.73838850514585E-06,-1.4765047126275E-05,3.33984375,0,0
5.44943929980946E-07,-1.3716231478611E-05,3.33984375,0,0
1.50341759308503E-06,-1.32102977659088E-05,3.33984375,0,0
2.40801500694943E-06,-1.1177837222931E-05,3.33984375,0,0
2.84979182652023E-06,-1.0920298336714E-05,3.33984375,0,0
2.13304474527831E-06,-1.16398396130535E-05,3.33984375,0,0
1.57528052113776E-06,-1.19631922643748E-05,3.33984375,0,0
1.31554472204698E-07,-1.17509580377373E-05,3.33984375,0,0
-1.46011382184952E-06,-1.17190547825885E-05,3.33984375,0,0
-7.93305559909641E-07,-9.0001531134476E-06,3.33984375,0,0
5.25086079505854E-07,-1.31535807668115E-05,3.33984375,0,0
2.50480661634356E-06,-1.2342976333457E-05,3.33984375,0,0
1.41593727676081E-06,-1.80034348886693E-05,3.33984375,0,0
8.04272531240713E-07,-1.84112741408171E-05,3.33984375,0,0
-4.96407665195875E-07,-2.19248067878652E-05,3.33984375,0,0
-1.73002854353399E-06,-2.29211782425409E-05,3.33984375,0,0
-2.64449681708356E-06,-2.55690356425475E-05,3.33984375,0,0
-2.37999392993515E-06,-2.76965383818606E-05,3.33984375,0,0
-1.68241706433037E-06,-2.75539114227286E-05,3.33984375,0,0
-2.2360106868291E-06,-2.52260524575831E-05,3.33984375,0,0
-3.33431512444804E-06,-2.1711775843869E-05,3.33984375,0,0
-3.58321153726138E-06,-2.01674429263221E-05,3.33984375,0,0
-2.73521050075942E-06,-1.83583088073647E-05,3.33984375,0,0
-2.28915928346396E-06,-1.77507990883896E-05,3.33984375,0,0
-2.73158593699918E-06,-1.69867707882077E-05,3.33984375,0,0
-3.13142004415568E-06,-1.71861229318893E-05,3.33984375,0,0
-1.9022440937988E-06,-1.63294025696814E-05,3.33984375,0,0
-5.01838087529904E-07,-1.63315107784001E-05,3.33984375,0,0
1.14573964538067E-07,-1.59796527441358E-05,3.33984375,0,0
-2.95119235715902E-07,-1.72820036823396E-05,3.33984375,0,0
-1.31849287754449E-06,-1.75889108504634E-05,3.33984375,0,0
-1.26845941395004E-06,-1.6390116797993E-05,3.33984375,0,0
-9.4840157771614E-07,-1.54879853653256E-05,3.33984375,0,0
-2.27515783990384E-06,-1.63120530487504E-05,3.33984375,0,0
-3.0481749035971E-06,-1.61018961080117E-05,3.33984375,0,0
-1.21422749543854E-06,-1.56534169946099E-05,3.33984375,0,0
1.35486709496035E-06,-1.36055014081649E-05,3.33984375,0,0
2.59835360338911E-06,-2.0149633201072E-05,3.33984375,0,0
1.28554847833584E-06,-1.72773707163287E-05,3.33984375,0,0
4.05481614507153E-07,-2.08540277526481E-05,3.33984375,0,0
9.36361573167233E-07,-1.57531994773308E-05,3.33984375,0,0
2.57865576713812E-06,-1.65405126608675E-05,3.33984375,0,0
4.16245211454225E-06,-1.61727984959725E-05,3.33984375,0,0
4.93937432111125E-06,-1.78851278178627E-05,3.33984375,0,0
4.66568553747493E-06,-1.75631921592867E-05,3.33984375,0,0
3.93424761568895E-06,-1.82441399374511E-05,3.33984375,0,0
3.47750574292149E-06,-1.85410735866753E-05,3.33984375,0,0
3.04846207654919E-06,-1.64783505169908E-05,3.33984375,0,0
4.13862017012434E-06,-1.39779840537813E-05,3.33984375,0,0
5.46348792340723E-06,-1.13323003461119E-05,3.33984375,0,0
5.61698516321485E-06,-1.28720866996446E-05,3.33984375,0,0
4.91778746436466E-06,-1.40472156999749E-05,3.33984375,0,0
4.2629249037418E-06,-1.56302030518418E-05,3.33984375,0,0
4.34546473115915E-06,-1.4679778360005E-05,3.33984375,0,0
5.27618522028206E-06,-1.54258759721415E-05,3.33984375,0,0
6.11002542427741E-06,-1.46130732900929E-05,3.33984375,0,0
5.49133847016492E-06,-1.3712257896259E-05,3.33984375,0,0
3.84703844247269E-06,-1.26052282212186E-05,3.33984375,0,0
2.54835185842239E-06,-1.49296129166032E-05,3.33984375,0,0
1.15645639198192E-06,-1.83080082933884E-05,3.33984375,0,0
2.02785003011741E-07,-2.14614774449728E-05,3.33984375,0,0
1.4877301737215E-06,-2.14319807128049E-05,3.33984375,0,0
3.17277590511367E-06,-1.98561137949582E-05,3.33984375,0,0
3.79965104002622E-06,-1.66122681548586E-05,3.33984375,0,0
5.29839826413081E-06,-2.29467113967985E-05,3.33984375,0,0
3.29575755131373E-06,-1.55273464770289E-05,3.33984375,0,0
4.66405072074849E-06,-1.80403694685083E-05,3.33984375,0,0
5.05427851749118E-06,-1.43913794090622E-05,3.33984375,0,0
5.75507465327973E-06,-1.83672345883679E-05,3.33984375,0,0
5.18274828209542E-06,-1.78444970515557E-05,3.33984375,0,0
5.46421142644249E-06,-1.83456886588829E-05,3.33984375,0,0
5.3527196541836E-06,-1.72767377080163E-05,3.33984375,0,0
4.96868733534939E-06,-1.81419818545692E-05,3.33984375,0,0
5.09811115989578E-06,-1.94065414689248E-05,3.33984375,0,0
5.13762552145636E-06,-1.86261040653335E-05,3.33984375,0,0
5.12943461217219E-06,-1.8963832189911E-05,3.33984375,0,0
4.07390643886174E-06,-1.7661119272816E-05,3.33984375,0,0
3.75811646335933E-06,-1.80324386747088E-05,3.33984375,0,0
5.44427030035877E-06,-1.69912291312357E-05,3.33984375,0,0
7.94331390352454E-06,-1.77343499672133E-05,3.33984375,0,0
7.89499608799815E-06,-1.66663885465823E-05,3.33984375,0,0
6.83484495311859E-06,-1.78002046595793E-05,3.33984375,0,0
5.73989109398099E-06,-1.79852995643159E-05,3.33984375,0,0
4.41428392150556E-06,-1.98009347514017E-05,3.33984375,0,0
2.9169243589422E-06,-2.0104400391574E-05,3.33984375,0,0
2.58122031482344E-06,-2.02121536858613E-05,3.33984375,0,0
2.43077170125616E-06,-1.86920187843498E-05,3.33984375,0,0
2.28910403166083E-06,-1.83561351150274E-05,3.33984375,0,0
2.35338347920333E-06,-1.96473283722298E-05,3.33984375,0,0
1.74628451077297E-06,-2.1536645363085E-05,3.33984375,0,0
-2.31032549891097E-06,-2.02897681447212E-05,3.33984375,0,0
-5.92098194829305E-06,-2.76421160378959E-05,3.33984375,0,0
-5.81995982429362E-06,-1.63468212122098E-05,3.33984375,0,0
-3.77987817046233E-06,-1.71072933881078E-05,3.33984375,0,0
-3.37522169502336E-06,-1.12293055281043E-05,3.33984375,0,0
-4.50699144494138E-06,-1.58529546752106E-05,3.33984375,0,0
-4.70392205897952E-06,-1.91412818821846E-05,3.33984375,0,0
-3.85672956326744E-06,-2.62008961726679E-05,3.33984375,0,0
-2.94199458039657E-06,-2.93550456262892E-05,3.33984375,0,0
-2.10493772101472E-06,-2.86171853076667E-05,3.33984375,0,0
-2.11946985473332E-06,-2.51378096436383E-05,3.33984375,0,0
-2.91563287646568E-06,-1.96907712961547E-05,3.33984375,0,0
-2.63118022303388E-06,-1.6104520909721E-05,3.33984375,0,0
1.32957367782183E-07,-1.26124405142036E-05,3.33984375,0,0
3.54454550688388E-06,-1.38460791276884E-05,3.33984375,0,0
6.05263858233229E-06,-1.34460797198699E-05,3.33984375,0,0
7.07897925167345E-06,-1.45562189572956E-05,3.33984375,0,0
7.58348096496775E-06,-1.40239872052916E-05,3.33984375,0,0
8.90429600985954E-06,-1.63979202625342E-05,3.33984375,0,0
1.09211550807231E-05,-1.64368429977912E-05,3.33984375,0,0
1.21309976748307E-05,-1.65648889378645E-05,3.33984375,0,0
1.17262407002272E-05,-1.56349451572169E-05,3.33984375,0,0
1.23867839647573E-05,-1.57328631757991E-05,3.33984375,0,0
1.47276159623289E-05,-1.47242262755753E-05,3.33984375,0,0
1.65208402904682E-05,-1.39946123454138E-05,3.33984375,0,0
1.73425924003823E-05,-1.42037688419805E-05,3.33984375,0,0
1.5767980585224E-05,-1.60601994139142E-05,3.33984375,0,0
1.01764198916499E-05,-1.30919925140915E-05,3.33984375,0,0
1.481289655203E-05,-1.73730477399658E-05,3.33984375,0,0
1.16596711450256E-05,-1.14483345896588E-05,3.33984375,0,0
1.3267161193653E-05,-1.46273569043842E-05,3.33984375,0,0
8.49536900204839E-06,-1.30165426526219E-05,3.33984375,0,0
8.361635991605E-06,-1.63235836225795E-05,3.33984375,0,0
7.57443831389537E-06,-1.47198807098903E-05,3.33984375,0,0
8.62896922626533E-06,-1.40515876410063E-05,3.33984375,0,0
6.21880690232501E-06,-1.30267844724585E-05,3.33984375,0,0
3.36792345478898E-06,-1.29886630020337E-05,3.33984375,0,0
1.75093236975954E-06,-1.12336292659165E-05,3.33984375,0,0
1.63490722115966E-06,-9.27293240238214E-06,3.33984375,0,0
2.9990665098012E-06,-1.17365852929652E-05,3.33984375,0,0
2.67134464593255E-06,-1.49193629113142E-05,3.33984375,0,0
2.61988520833256E-06,-1.7638847566559E-05,3.33984375,0,0
3.407999713545E-07,-1.66405407071579E-05,3.33984375,0,0
-7.71832503687619E-07,-1.85357730515534E-05,3.33984375,0,0
-1.1872583627337E-06,-1.9967921616626E-05,3.33984375,0,0
7.524860166086E-07,-2.05778305826243E-05,3.33984375,0,0
1.77385413735465E-06,-1.72414711414604E-05,3.33984375,0,0
3.1424260669155E-06,-1.43712168210186E-05,3.33984375,0,0
2.14270539800054E-06,-1.25038632177166E-05,3.33984375,0,0
5.29367980561801E-07,-1.23998461276642E-05,3.33984375,0,0
-7.46765635994961E-07,-1.08125514088897E-05,3.33984375,0,0
1.05791841065184E-07,-8.78764603839954E-06,3.33984375,0,0
2.35997708841751E-06,-7.9873570939526E-06,3.33984375,0,0
4.11553264711984E-06,-1.07547584775602E-05,3.33984375,0,0
4.10564507546951E-06,-1.43222723636427E-05,3.33984375,0,0
5.12528731633211E-06,-2.26551492232829E-05,3.33984375,0,0
3.24064467349672E-06,-1.94621115952032E-05,3.33984375,0,0
5.57252269572928E-06,-2.40279423451284E-05,3.33984375,0,0
6.05898731009802E-06,-2.34025010286132E-05,3.33984375,0,0
5.52901383343851E-06,-2.49248951149639E-05,3.33984375,0,0
3.4558718198241E-06,-2.35001207329333E-05,3.33984375,0,0
2.85693135992915E-06,-2.40803001361201E-05,3.33984375,0,0
2.26995575758338E-06,-2.33541195484577E-05,3.33984375,0,0
1.61826596922765E-06,-2.31950270972447E-05,3.33984375,0,0
-1.82640107482257E-07,-2.1763788026874E-05,3.33984375,0,0
-1.87723935596296E-06,-1.79721264430555E-05,3.33984375,0,0
-1.88713670468132E-06,-1.69577378983377E-05,3.33984375,0,0
-2.85517739939678E-06,-1.82781095645623E-05,3.33984375,0,0
-3.80295887225657E-06,-2.19356334127951E-05,3.33984375,0,0
-4.18987292505335E-06,-2.20034144149395E-05,3.33984375,0,0
-3.32318904838758E-06,-2.0301378754084E-05,3.33984375,0,0
-3.99906912207371E-06,-1.69925406225957E-05,3.33984375,0,0
-5.71336022403557E-06,-1.64838093041908E-05,3.33984375,0,0
-7.09273808752187E-06,-1.62015021487605E-05,3.33984375,0,0
-6.82919289829442E-06,-1.84746368177002E-05,3.33984375,0,0
-6.64759090795997E-06,-1.99719415832078E-05,3.33984375,0,0
-5.4125825954543E-06,-1.9725615857169E-05,3.33984375,0,0
-4.72130386697245E-06,-1.75873465195764E-05,3.33984375,0,0
-5.11241887579672E-06,-1.67257876455551E-05,3.33984375,0,0
-4.70920076622861E-06,-1.72848576767137E-05,3.33984375,0,0
-5.29229055246105E-06,-1.89030542969704E-05,3.33984375,0,0
-5.27987776877126E-06,-1.57872000272619E-05,3.33984375,0,0
-6.7870641942136E-06,-2.2322783479467E-05,3.33984375,0,0
-2.6811069346877E-06,-1.7164044038509E-05,3.33984375,0,0
-1.87824207387166E-06,-2.10441030503716E-05,3.33984375,0,0
5.39911638952617E-07,-1.70122366398573E-05,3.33984375,0,0
-2.93994560252031E-07,-1.94045442185597E-05,3.33984375,0,0
-1.29486181776883E-06,-1.94191979971947E-05,3.33984375,0,0
-3.011047738255E-06,-2.25357125600567E-05,3.33984375,0,0
-1.77971037373936E-06,-2.11487385968212E-05,3.33984375,0,0
1.89022586027932E-07,-1.89769725693623E-05,3.33984375,0,0
7.36566505565861E-08,-1.81478335434804E-05,3.33984375,0,0
-1.0779069725686E-06,-1.75625646079425E-05,3.33984375,0,0
-1.81349969352596E-06,-1.86503002623795E-05,3.33984375,0,0
-1.51952929172694E-06,-1.88373123819474E-05,3.33984375,0,0
-2.24426321437932E-06,-2.03791350941174E-05,3.33984375,0,0
-2.24441873797332E-06,-1.89703350770287E-05,3.33984375,0,0
-1.8383576616543E-06,-1.91824783541961E-05,3.33984375,0,0
-1.96633891391684E-07,-1.71100818988634E-05,3.33984375,0,0
7.93485753547429E-07,-1.61189964273945E-05,3.33984375,0,0
1.93695336747624E-06,-1.59012070071185E-05,3.33984375,0,0
2.67923746832821E-06,-1.89112088264665E-05,3.33984375,0,0
4.1914122448361E-06,-1.90938953892328E-05,3.33984375,0,0
5.80621463086572E-06,-1.8346365322941E-05,3.33984375,0,0
6.76311356073711E-06,-1.677118234511E-05,3.33984375,0,0
6.63685977997375E-06,-1.56763126142323E-05,3.33984375,0,0
6.32095589025994E-06,-1.44511304824846E-05,3.33984375,0,0
6.43111570752808E-06,-1.3641160876432E-05,3.33984375,0,0
5.55027054360835E-06,-1.02312915259972E-05,3.33984375,0,0
8.75558635016205E-06,-1.47577029565582E-05,3.33984375,0,0
8.17234013084089E-06,-1.14607892101048E-05,3.33984375,0,0
1.04519149317639E-05,-1.30808548419736E-05,3.33984375,0,0
8.37211791804293E-06,-8.73035969561897E-06,3.33984375,0,0
7.14353245712118E-06,-7.44553699405515E-06,3.33984375,0,0
6.22276047579362E-06,-5.21114634466358E-06,3.33984375,0,0
8.46653711050749E-06,-6.62240108795231E-06,3.33984375,0,0
1.0984140317305E-05,-8.57938994158758E-06,3.33984375,0,0
1.35202344608842E-05,-1.12553461804055E-05,3.33984375,0,0
1.45889634950436E-05,-1.36708977152011E-05,3.33984375,0,0
1.37757251650328E-05,-1.48000581248198E-05,3.33984375,0,0
1.32731765916105E-05,-1.46234115163679E-05,3.33984375,0,0
1.38413824970485E-05,-1.23619765872718E-05,3.33984375,0,0
1.49270390465972E-05,-1.10781111288816E-05,3.33984375,0,0
1.35114696604433E-05,-1.02881494967733E-05,3.33984375,0,0
1.19725891636335E-05,-1.16858400360798E-05,3.33984375,0,0
1.06788611446973E-05,-1.10568007585243E-05,3.33984375,0,0
9.20492311706766E-06,-1.0981136256305E-05,3.33984375,0,0
6.75245973980054E-06,-1.10854371087044E-05,3.33984375,0,0
5.59677437195205E-06,-1.27753510241746E-05,3.33984375,0,0
4.95318317916826E-06,-1.42621038321522E-05,3.33984375,0,0
5.88832108405768E-06,-1.68473325175E-05,3.33984375,0,0
6.14371674600989E-06,-1.82237617991632E-05,3.33984375,0,0
5.69728717891849E-06,-1.81279192474904E-05,3.33984375,0,0
4.88704517920269E-06,-1.76253270183224E-05,3.33984375,0,0
3.94770768252783E-06,-1.89391885214718E-05,3.33984375,0,0
2.73094519798178E-06,-1.67409525602125E-05,3.33984375,0,0
5.04675517731812E-06,-2.32797356147785E-05,3.33984375,0,0
5.17987518833252E-06,-1.73759708559373E-05,3.33984375,0,0
4.18999525209074E-06,-2.23460592678748E-05,3.33984375,0,0
7.30453450614732E-07,-1.86871293408331E-05,3.33984375,0,0
-1.71350606592569E-07,-2.14986102946568E-05,3.33984375,0,0
8.13067629223951E-07,-2.12208997254493E-05,3.33984375,0,0
1.846925101745E-06,-2.24108625843655E-05,3.33984375,0,0
8.21564867692359E-07,-2.07781449717004E-05,3.33984375,0,0
-1.61575954393811E-07,-1.96624678210355E-05,3.33984375,0,0
-3.12569419236297E-08,-1.98495345102856E-05,3.33984375,0,0
1.24150858482608E-07,-2.00817557924893E-05,3.33984375,0,0
6.9043657902057E-08,-2.12782233575126E-05,3.33984375,0,0
-9.35082596242864E-07,-2.06860913749551E-05,3.33984375,0,0
-2.42297255681478E-06,-2.09168956644135E-05,3.33984375,0,0
-3.56203167939384E-06,-1.84276959771523E-05,3.33984375,0,0
-3.70878342437209E-06,-1.93914165720344E-05,5.80078125,0,0
-4.20111928178812E-06,-2.02135124709457E-05,5.80078125,0,0
-3.86875626645633E-06,-2.18335990211926E-05,5.80078125,0,0
-2.87604484583426E-06,-2.02671617444139E-05,5.80078125,0,0
-2.1972632566758E-06,-1.93462838069536E-05,5.80078125,0,0
-2.82632163361995E-06,-1.80037241079845E-05,5.80078125,0,0
-3.07135633192956E-06,-1.82735893758945E-05,5.80078125,0,0
-2.05632704819436E-06,-1.84782547876239E-05,5.80078125,0,0
-3.73297382338933E-07,-1.95229222299531E-05,5.80078125,0,0
1.21415678222547E-06,-2.07933135243366E-05,5.80078125,0,0
2.93015455099521E-06,-2.22831258724909E-05,5.80078125,0,0
3.12247652800579E-06,-1.81187642738223E-05,5.80078125,0,0
4.32852129961248E-06,-2.65162998402957E-05,5.80078125,0,0
4.83732810607762E-06,-2.20359033846762E-05,5.80078125,0,0
7.01915587342228E-06,-2.69503489107592E-05,5.80078125,0,0
4.25640610046685E-06,-2.13735238503432E-05,5.80078125,0,0
2.56737757808878E-06,-2.21691043407191E-05,5.80078125,0,0
3.05123285215814E-06,-1.98939342226367E-05,5.80078125,0,0
5.61131037102314E-06,-2.10722919291584E-05,5.80078125,0,0
5.98239330429351E-06,-1.99066398636205E-05,5.80078125,0,0
6.11920359006035E-06,-1.87190053111408E-05,5.80078125,0,0
6.80316361467703E-06,-1.75481181940995E-05,5.80078125,0,0
7.37094023861573E-06,-1.62601972988341E-05,5.80078125,0,0
7.6960304795648E-06,-1.84177333721891E-05,5.80078125,0,0
5.8246182561561E-06,-1.9370405425434E-05,5.80078125,0,0
3.69360532204155E-06,-1.88641424756497E-05,5.80078125,0,0
2.71469616563991E-06,-1.46140218930668E-05,5.80078125,0,0
3.76246703126526E-06,-1.46054999277112E-05,5.80078125,0,0
3.38404197464115E-06,-1.36891012516571E-05,5.80078125,0,0
6.0904318388566E-07,-1.3008082532906E-05,5.80078125,0,0
-2.76436549029313E-06,-1.06331262941239E-05,5.80078125,0,0
-2.64196887655999E-06,-1.13943879114231E-05,5.80078125,0,0
-1.372504812025E-06,-1.18990001283237E-05,5.80078125,0,0
-3.57195744982164E-07,-1.29704731079983E-05,5.80078125,0,0
1.98634371173512E-08,-1.28786587083596E-05,5.80078125,0,0
1.01871250990371E-07,-1.26307522805291E-05,5.80078125,0,0
1.29497334455664E-06,-1.1379255738575E-05,5.80078125,0,0
3.3121732485597E-06,-1.15452949103201E-05,5.80078125,0,0
4.7692174121039E-06,-1.051083108905E-05,5.80078125,0,0
8.74081433721585E-06,-1.55306752276374E-05,5.80078125,0,0
8.41002747620223E-06,-1.24644529932993E-05,5.80078125,0,0
9.96184462564997E-06,-1.48048247865518E-05,5.80078125,0,0
9.76707997324411E-06,-1.33134262796375E-05,5.80078125,0,0
1.02113308457774E-05,-1.62411961355247E-05,5.80078125,0,0
1.00115012173774E-05,-1.72877462318866E-05,5.80078125,0,0
9.46075670071878E-06,-1.88917019841028E-05,5.80078125,0,0
7.99263580120169E-06,-1.72346008184832E-05,5.80078125,0,0
6.2726358009968E-06,-1.60800973389996E-05,5.80078125,0,0
6.30351996733225E-06,-1.5585354049108E-05,5.80078125,0,0
6.39830841464573E-06,-1.53447163029341E-05,5.80078125,0,0
5.60886610401212E-06,-1.78643313120119E-05,5.80078125,0,0
4.18365607401938E-06,-1.93971463886555E-05,5.80078125,0,0
3.66479457625246E-06,-2.04400530492421E-05,5.80078125,0,0
3.26727763422241E-06,-1.9556389815989E-05,5.80078125,0,0
3.3272924611083E-06,-2.07646517083049E-05,5.80078125,0,0
2.35950938076712E-06,-2.0738454622915E-05,5.80078125,0,0
1.26809607081668E-06,-1.99763908312889E-05,5.80078125,0,0
1.18152956929407E-06,-1.79987873707432E-05,5.80078125,0,0
1.32614502490469E-06,-1.86298584594624E-05,5.80078125,0,0
6.45972420443286E-07,-1.87787554750685E-05,5.80078125,0,0
7.55893381665373E-07,-1.76994908542838E-05,5.80078125,0,0
1.15940918021806E-06,-1.6611977116554E-05,5.80078125,0,0
1.60211777711083E-06,-1.70164603332523E-05,5.80078125,0,0
2.52802374234307E-06,-1.79952003236394E-05,5.80078125,0,0
2.65763401330332E-06,-1.99938149307854E-05,5.80078125,0,0
1.49138679716998E-06,-1.60454328579362E-05,5.80078125,0,0
2.92604090645909E-06,-2.10148918995401E-05,5.80078125,0,0
4.52922722615767E-06,-1.42037015393726E-05,5.80078125,0,0
6.05581408308353E-06,-1.9925893866457E-05,5.80078125,0,0
6.01410147282877E-06,-1.9142442397424E-05,5.80078125,0,0
6.80640232531005E-06,-2.28738736041123E-05,5.80078125,0,0
6.48890954835224E-06,-1.93119085452054E-05,5.80078125,0,0
6.61023341308464E-06,-1.88307258213172E-05,5.80078125,0,0
6.12949179412681E-06,-1.68166116054635E-05,5.80078125,0,0
5.39184475201182E-06,-1.72637992363889E-05,5.80078125,0,0
5.30249963048846E-06,-1.92261668416904E-05,5.80078125,0,0
5.84980898565846E-06,-1.85188819159521E-05,5.80078125,0,0
6.85495069774333E-06,-1.81967661774252E-05,5.80078125,0,0
7.43648706702515E-06,-1.55855104821967E-05,5.80078125,0,0
6.51940990792355E-06,-1.41988211908028E-05,5.80078125,0,0
4.54885002909577E-06,-1.20459390018368E-05,5.80078125,0,0
3.41893542099569E-06,-1.40571764859487E-05,5.80078125,0,0
2.3227037218021E-06,-1.45635967783164E-05,5.80078125,0,0
1.23300196719356E-06,-1.52954416989814E-05,5.80078125,0,0
-3.75703280042217E-07,-1.43227271109936E-05,5.80078125,0,0
-2.3831082671677E-06,-1.56715068442281E-05,5.80078125,0,0
-3.94017979488126E-06,-1.70212406374048E-05,5.80078125,0,0
-3.95489314541919E-06,-1.87939513125457E-05,5.80078125,0,0
-5.08367065776838E-06,-1.67568723554723E-05,5.80078125,0,0
-7.24526171325124E-06,-1.40858855957049E-05,5.80078125,0,0
-8.74779379955726E-06,-1.29503332573222E-05,5.80078125,0,0
-9.01531529962085E-06,-1.34599067678209E-05,5.80078125,0,0
-6.51806067253347E-06,-9.95591108221561E-06,5.80078125,0,0
-1.00961406133138E-05,-1.35859763759072E-05,5.80078125,0,0
-8.07891592558008E-06,-1.25462684081867E-05,5.80078125,0,0
-7.23358243703842E-06,-1.92371880984865E-05,5.80078125,0,0
-2.42293822338979E-06,-1.92124371096725E-05,5.80078125,0,0
-1.67526695804554E-06,-2.18557779589901E-05,5.80078125,0,0
-8.46125033149292E-07,-2.10777052416233E-05,5.80078125,0,0
-1.54555266362877E-06,-2.23349034058629E-05,5.80078125,0,0
-1.16906289804319E-06,-2.14867050090106E-05,5.80078125,0,0
-1.23770473692275E-06,-2.04938914976083E-05,5.80078125,0,0
-1.19071091830847E-06,-2.06591721507721E-05,5.80078125,0,0
1.5153357253439E-06,-2.0252120521036E-05,5.80078125,0,0
5.14610610480304E-06,-2.05804608413018E-05,5.80078125,0,0
7.74590353103122E-06,-1.98709203687031E-05,5.80078125,0,0
7.13503914084868E-06,-2.02201517822687E-05,5.80078125,0,0
5.66617654840229E-06,-1.88331850949908E-05,5.80078125,0,0
3.43265855917707E-06,-1.75411441887263E-05,5.80078125,0,0
3.25050291394291E-06,-1.49935594890849E-05,5.80078125,0,0
3.87442059945897E-06,-1.49549587149522E-05,5.80078125,0,0
4.97139899380272E-06,-1.57494869199581E-05,5.80078125,0,0
4.38359938925714E-06,-1.69056438608095E-05,5.80078125,0,0
3.99366581405047E-06,-1.48637218444492E-05,5.80078125,0,0
4.00110093323747E-06,-1.30166527014808E-05,5.80078125,0,0
3.65839878213592E-06,-1.28490737552056E-05,5.80078125,0,0
3.2794803246361E-06,-1.41456348501379E-05,5.80078125,0,0
3.58286138180119E-06,-1.60567760758568E-05,5.80078125,0,0
3.79036418962642E-06,-1.7923686755239E-05,5.80078125,0,0
4.05919854529202E-06,-1.49807019624859E-05,5.80078125,0,0
5.96083509663004E-06,-2.16766584344441E-05,5.80078125,0,0
4.0871973396861E-06,-1.80663064384134E-05,5.80078125,0,0
4.07266088586766E-06,-2.27682157856179E-05,5.80078125,0,0
2.35238121604198E-06,-1.84471828106325E-05,5.80078125,0,0
3.18827505907393E-06,-1.94422809727257E-05,5.80078125,0,0
3.95116558138398E-06,-1.75912555278046E-05,5.80078125,0,0
4.16129432778689E-06,-1.65242399816634E-05,5.80078125,0,0
1.9355861695658E-06,-1.29040927276947E-05,5.80078125,0,0
5.73084435018245E-07,-1.27664488900336E-05,5.80078125,0,0
1.45394687933731E-06,-1.52312222780893E-05,5.80078125,0,0
3.09045299218269E-06,-1.63293861987768E-05,5.80078125,0,0
5.06371270603267E-06,-1.66265017469414E-05,5.80078125,0,0
5.19460036230157E-06,-1.4333799299493E-05,5.80078125,0,0
4.33570994573529E-06,-1.43993675010279E-05,5.80078125,0,0
3.70518841918965E-06,-1.42440976560465E-05,5.80078125,0,0
4.51117557531688E-06,-1.58272123371717E-05,5.80078125,0,0
5.25884752278216E-06,-1.53338914969936E-05,5.80078125,0,0
6.69164455757709E-06,-1.67396683536936E-05,5.80078125,0,0
8.76884041645098E-06,-1.66571953741368E-05,5.80078125,0,0
1.07697733255918E-05,-1.70612620422617E-05,5.80078125,0,0
1.10160999611253E-05,-1.60238269018009E-05,5.80078125,0,0
1.05305462057004E-05,-1.58363964146702E-05,5.80078125,0,0
9.43889335758286E-06,-1.58190432557603E-05,5.80078125,0,0
1.05886310848291E-05,-1.62558480951702E-05,5.80078125,0,0
1.30542457554839E-05,-1.52384945977246E-05,5.80078125,0,0
1.34175943458104E-05,-1.2886812328361E-05,5.80078125,0,0
8.56127189763356E-06,-7.78046251070919E-06,5.80078125,0,0
1.01045834526303E-05,-1.15391758299666E-05,5.80078125,0,0
5.33431057192502E-06,-1.01970254036132E-05,5.80078125,0,0
8.71674183144933E-06,-1.23178342619212E-05,5.80078125,0,0
7.73842202761443E-06,-9.30989608605159E-06,5.80078125,0,0
7.98924611444818E-06,-1.04010123322951E-05,5.80078125,0,0
4.5504766603699E-06,-1.09055890789023E-05,5.80078125,0,0
3.66143058272428E-06,-1.18584157462465E-05,5.80078125,0,0
2.23090660256275E-06,-1.27513440020266E-05,5.80078125,0,0
1.96817882169853E-06,-1.54807657963829E-05,5.80078125,0,0
2.85038345282373E-06,-1.72733325598529E-05,5.80078125,0,0
3.57406133844052E-06,-1.64651046361541E-05,5.80078125,0,0
4.9834943638416E-06,-1.50658561324235E-05,5.80078125,0,0
4.30378031524015E-06,-1.28279998534708E-05,5.80078125,0,0
2.99608586828981E-06,-1.27374578369199E-05,5.80078125,0,0
5.85813040743233E-07,-1.3907183529227E-05,5.80078125,0,0
8.7225072320507E-07,-1.69303239090368E-05,5.80078125,0,0
1.10138012132666E-06,-1.76818521140376E-05,5.80078125,0,0
1.19544233712077E-06,-1.77115689439233E-05,5.80078125,0,0
-9.62495150247378E-09,-1.74439319380326E-05,5.80078125,0,0
-3.71281103639376E-08,-1.86447414307622E-05,5.80078125,0,0
-1.55531984091795E-06,-1.93398846022319E-05,5.80078125,0,0
-2.07771404348023E-06,-2.00126160052605E-05,5.80078125,0,0
-2.5980666578107E-06,-2.03269992198329E-05,5.80078125,0,0
-3.60910939889436E-06,-2.0820432837354E-05,5.80078125,0,0
-3.91125649912283E-06,-2.27799919230165E-05,5.80078125,0,0
-3.98592919736984E-06,-2.44946277234703E-05,5.80078125,0,0
-4.0526729208068E-06,-1.9306060494273E-05,5.80078125,0,0
-6.09925837125047E-06,-2.7112018869957E-05,5.80078125,0,0
-4.65058565168874E-06,-2.08498477149988E-05,5.80078125,0,0
-5.40283508598804E-06,-2.57926167250844E-05,5.80078125,0,0
-4.49681556347059E-06,-2.03413383133011E-05,5.80078125,0,0
-5.02500006405171E-06,-2.32657621381804E-05,5.80078125,0,0
-4.2907772694889E-06,-2.08538949664216E-05,5.80078125,0,0
-4.15571366829681E-06,-2.02628853003262E-05,5.80078125,0,0
-3.21425500260375E-06,-1.81486066139769E-05,5.80078125,0,0
-2.81961729342584E-06,-1.69032409758074E-05,5.80078125,0,0
-3.26168401443283E-06,-1.49886573126423E-05,5.80078125,0,0
-3.94123344449326E-06,-1.2893167877337E-05,5.80078125,0,0
-4.78502988698892E-06,-1.36892804221134E-05,5.80078125,0,0
-4.61630042991601E-06,-1.27923112813733E-05,5.80078125,0,0
-4.64933964394731E-06,-1.30877224364667E-05,5.80078125,0,0
-4.90165803057607E-06,-1.17449699246208E-05,5.80078125,0,0
-5.99173381488072E-06,-1.41897698995308E-05,5.80078125,0,0
-5.46607634532847E-06,-1.58093316713348E-05,5.80078125,0,0
-4.26125779995346E-06,-1.92583338503027E-05,5.80078125,0,0
-3.16514206133434E-06,-1.82132953341352E-05,5.80078125,0,0
-2.46091258304659E-06,-1.74330562003888E-05,5.80078125,0,0
-1.05783236392654E-07,-1.74350789166056E-05,5.80078125,0,0
2.58169234257366E-06,-2.00129052245757E-05,5.80078125,0,0
4.71097564513911E-06,-1.9291830540169E-05,5.80078125,0,0
7.69577854953241E-06,-1.70789389812853E-05,5.80078125,0,0
1.17741765279789E-05,-1.60210365720559E-05,5.80078125,0,0
1.44274281410617E-05,-1.68912793014897E-05,5.80078125,0,0
1.28926740217139E-05,-1.56761925609317E-05,5.80078125,0,0
1.89505408343393E-05,-2.34169201576151E-05,5.80078125,0,0
1.60013969434658E-05,-1.93335963558638E-05,5.80078125,0,0
2.11771512113046E-05,-2.36241758102551E-05,5.80078125,0,0
1.84398595592938E-05,-2.08569927053759E-05,5.80078125,0,0
1.89913698704913E-05,-2.22704566112952E-05,5.80078125,0,0
1.6261679775198E-05,-1.97698846022831E-05,5.80078125,0,0
1.54949539137306E-05,-2.16892258322332E-05,5.80078125,0,0
1.32868208311265E-05,-2.24552677536849E-05,5.80078125,0,0
1.14004060378647E-05,-2.1618114260491E-05,5.80078125,0,0
1.00916868177592E-05,-2.08199526241515E-05,5.80078125,0,0
9.07917819858994E-06,-1.98502875718987E-05,5.80078125,0,0
9.22197978070471E-06,-1.98748330149101E-05,5.80078125,0,0
7.87639419286279E-06,-1.77215861185687E-05,5.80078125,0,0
7.74822274252074E-06,-1.63354052347131E-05,5.80078125,0,0
6.06064168096054E-06,-1.35386726469733E-05,5.80078125,0,0
5.58072451894986E-06,-1.32069035316817E-05,5.80078125,0,0
4.43660837845528E-06,-1.11638828457217E-05,5.80078125,0,0
5.75240528633003E-06,-1.11836779979058E-05,5.80078125,0,0
6.2062313190836E-06,-1.24184198284638E-05,5.80078125,0,0
6.87383817421505E-06,-1.62604828801705E-05,5.80078125,0,0
5.50405911781127E-06,-1.76988214661833E-05,5.80078125,0,0
4.1275948206021E-06,-1.77087240444962E-05,5.80078125,0,0
2.07157040676975E-06,-1.59136525326176E-05,5.80078125,0,0
8.77254592523968E-07,-1.49337211041711E-05,5.80078125,0,0
1.36302173814329E-06,-1.44537934829714E-05,5.80078125,0,0
2.49734830504167E-06,-1.36445778480265E-05,5.80078125,0,0
1.60901080903386E-07,-1.07718760773423E-05,5.80078125,0,0
-2.85477244688082E-06,-1.7640506484895E-05,5.80078125,0,0
-5.10598647451843E-06,-1.76303692569491E-05,5.80078125,0,0
-4.96748953082715E-06,-2.09615882340586E-05,5.80078125,0,0
-4.92390063300263E-06,-1.77120346052106E-05,5.80078125,0,0
-3.63931144420349E-06,-1.80971328518353E-05,5.80078125,0,0
-4.2563538045215E-06,-1.74960605363594E-05,5.80078125,0,0
-4.53408574685454E-06,-2.01585771719692E-05,5.80078125,0,0
-4.81470942759188E-06,-2.15459076571278E-05,5.80078125,0,0
-5.43547821507673E-06,-2.23518291022629E-05,5.80078125,0,0
-6.12680696576717E-06,-2.0942496121279E-05,5.80078125,0,0
-6.01705232838867E-06,-1.81833784154151E-05,5.80078125,0,0
-4.63477908851928E-06,-1.70803432411049E-05,5.80078125,0,0
-3.20117442242918E-06,-1.68529677466722E-05,5.80078125,0,0
-2.02306864593993E-06,-1.88260801223805E-05,5.80078125,0,0
-1.5789855751791E-06,-1.88018693734193E-05,5.80078125,0,0
-1.67656722283027E-07,-1.99002424778882E-05,5.80078125,0,0
1.57982515247568E-06,-2.01648708753055E-05,5.80078125,0,0
2.25466601477819E-06,-2.11834212677786E-05,5.80078125,0,0
2.48365677180118E-06,-2.09948866540799E-05,5.80078125,0,0
4.04045840696199E-06,-2.12115846807137E-05,5.80078125,0,0
5.93260710957111E-06,-2.09786430787062E-05,8.61328125,0,0
7.38270864530932E-06,-2.20923266169848E-05,8.61328125,0,0
6.30423755865195E-06,-2.23200167965842E-05,8.61328125,0,0
4.65473976873909E-06,-2.17751985474024E-05,8.61328125,0,0
4.48193350166548E-06,-2.11644037335645E-05,8.61328125,0,0
5.15746478413348E-06,-1.99237438209821E-05,8.61328125,0,0
3.9487181311415E-06,-1.38850446091965E-05,8.61328125,0,0
3.24354323311127E-06,-1.80315219040494E-05,8.61328125,0,0
-9.27983364817919E-07,-1.30658936541295E-05,8.61328125,0,0
4.70033967303607E-07,-1.85072003660025E-05,8.61328125,0,0
8.15878024695849E-07,-1.53099281305913E-05,8.61328125,0,0
1.3877355513614E-06,-1.74250089912675E-05,8.61328125,0,0
1.41592693125858E-07,-1.65010733326199E-05,8.61328125,0,0
6.92169749072491E-07,-1.66143654496409E-05,8.61328125,0,0
2.27756572712678E-06,-1.47117516462458E-05,8.61328125,0,0
5.16777299708338E-06,-1.50426521940972E-05,8.61328125,0,0
8.02839440439129E-06,-1.52215798152611E-05,8.61328125,0,0
9.6557560027577E-06,-1.32079403556418E-05,8.61328125,0,0
1.00412498795777E-05,-1.3489259799826E-05,8.61328125,0,0
9.86898157862015E-06,-1.39936310006306E-05,8.61328125,0,0
1.15494176498032E-05,-1.58789989654906E-05,8.61328125,0,0
1.34909732878441E-05,-1.48100434671505E-05,8.61328125,0,0
1.60707022587303E-05,-1.41720156534575E-05,8.61328125,0,0
1.74254837475019E-05,-1.20448976304033E-05,8.61328125,0,0
1.80441020347644E-05,-1.21334551295149E-05,8.61328125,0,0
1.70438433997333E-05,-1.1345663551765E-05,8.61328125,0,0
1.45735330079333E-05,-1.31887727548019E-05,8.61328125,0,0
1.05831668406609E-05,-1.60912568389904E-05,8.61328125,0,0
7.72374278312782E-06,-1.93902524188161E-05,8.61328125,0,0
6.8941494646424E-06,-1.88095254998188E-05,8.61328125,0,0
7.85270822234452E-06,-1.71495903487084E-05,8.61328125,0,0
6.67690301270341E-06,-1.68857350217877E-05,8.61328125,0,0
4.04428010369884E-06,-1.59357805387117E-05,8.61328125,0,0
1.23097004234296E-06,-1.07753585325554E-05,8.61328125,0,0
1.59049761805363E-07,-1.44796722452156E-05,8.61328125,0,0
-9.59500766839483E-07,-1.1916418770852E-05,8.61328125,0,0
1.06672973743116E-06,-1.76057619682979E-05,8.61328125,0,0
1.55895793341188E-06,-1.5329971574829E-05,8.61328125,0,0
1.40486054078792E-06,-1.4908881894371E-05,8.61328125,0,0
5.42202769793221E-07,-1.22258425108157E-05,8.61328125,0,0
-4.64171385772261E-08,-1.27609691844555E-05,8.61328125,0,0
-1.74353021975548E-06,-1.40832516990486E-05,8.61328125,0,0
-2.66399683823693E-06,-1.61305761139374E-05,8.61328125,0,0
-2.36908658735047E-06,-1.67691905517131E-05,8.61328125,0,0
-2.88303817796987E-06,-1.49827192217344E-05,8.61328125,0,0
-4.39230734627927E-06,-1.33731300593354E-05,8.61328125,0,0
-5.16633463121252E-06,-1.17661338663311E-05,8.61328125,0,0
