biceps_emg, triceps_emg, subject_position, position_estimate, brace_position
-2.50667690124828E-05,7.10951235305402E-06,4.21875,0,0.00862881311360449
-2.67533214355353E-05,9.02786723600002E-06,4.21875,0,0.00862881311360449
-2.36840296565788E-05,5.79695961278048E-06,4.21875,0,0.00862881311360449
-2.39945475186687E-05,3.46210526913637E-06,4.21875,0,0.00862881311360449
-2.22676753764972E-05,2.03425793188217E-06,4.21875,0,0.00862881311360449
-2.24657487706281E-05,4.01526904170169E-06,4.21875,0,0.00862881311360449
-2.40460121858632E-05,8.59880947245983E-06,4.21875,0,0.00862881311360449
-2.48780452238861E-05,1.24841972137801E-05,4.21875,0,0.00862881311360449
-2.56485600402812E-05,1.40508745971601E-05,4.21875,0,0.00862881311360449
-2.32966758630937E-05,1.20670465548756E-05,4.21875,0,0.00862881311360449
-2.4211914933403E-05,1.08653930510627E-05,4.21875,0,0.00862881311360449
-2.4024036974879E-05,9.39507208386203E-06,4.21875,0,0.00862881311360449
-2.54603182838764E-05,1.01245586847654E-05,4.21875,0,0.00862881311360449
-2.39055843849201E-05,1.00526376627386E-05,4.21875,0,0.00862881311360449
-2.50733792199753E-05,1.03391739685321E-05,4.21875,0,0.00862881311360449
-2.44295461016009E-05,9.37192635319661E-06,4.21875,0,0.00862881311360449
-2.46794188569766E-05,9.91012166196015E-06,4.21875,0,0.00862881311360449
-2.37626773014199E-05,1.03719103208277E-05,4.21875,0,0.00862881311360449
-2.44035272771725E-05,1.17989848149591E-05,4.21875,0,0.00862881311360449
-2.33309692703187E-05,1.35159743877011E-05,4.21875,0,0.00862881311360449
-2.24869982048403E-05,1.54467888933141E-05,4.21875,0,0.00862881311360449
-2.24380037252558E-05,1.57219383254414E-05,4.21875,0,0.00862881311360449
-2.32338679779787E-05,1.50520572788082E-05,4.21875,0,0.00862881311360449
-1.9896549929399E-05,1.07594214568962E-05,4.21875,0,0.00862881311360449
-2.71798999165185E-05,1.42327426146949E-05,4.21875,0,0.00862881311360449
-1.8637249013409E-05,1.02533776953351E-05,4.21875,0,0.00862881311360449
-2.37493550230283E-05,1.19123478725669E-05,4.21875,0,0.00862881311360449
-2.09992631425848E-05,6.16345550952246E-06,4.21875,0,0.00862881311360449
-2.3902983230073E-05,6.07609626968042E-06,4.21875,0,0.00862881311360449
-2.15305135498056E-05,4.66133178633754E-06,4.21875,0,0.00862881311360449
-2.35077532124706E-05,5.28199689142639E-06,4.21875,0,0.00862881311360449
-2.41628094954649E-05,5.70309430258931E-06,4.21875,0,0.00862881311360449
-2.45204028033186E-05,7.61258525017183E-06,4.21875,0,0.00862881311360449
-2.31749054364627E-05,8.87330588739133E-06,4.21875,0,0.00862881311360449
-2.05836495297262E-05,9.5889135991456E-06,4.21875,0,0.00862881311360449
-2.09469144465402E-05,1.13154183054576E-05,4.21875,0,0.00862881311360449
-2.01785405806731E-05,1.14036465674872E-05,4.21875,0,0.00862881311360449
-2.13723615161143E-05,1.23819672808168E-05,4.21875,0,0.00862881311360449
-2.04376447072718E-05,1.17876852527843E-05,4.21875,0,0.00862881311360449
-2.17790638998849E-05,1.23178315334371E-05,4.21875,0,0.00862881311360449
-2.04708467208548E-05,1.20085560411098E-05,4.21875,0,0.00862881311360449
-2.13147868635133E-05,1.37164142870461E-05,4.21875,0,0.00862881311360449
-2.18353306991048E-05,1.47736036524293E-05,4.21875,0,0.00862881311360449
-2.44524981098948E-05,1.59414394147461E-05,4.21875,0,0.00862881311360449
-2.46598392550368E-05,1.48914568853797E-05,4.21875,0,0.00862881311360449
-2.48798878601519E-05,1.321589024883E-05,4.21875,0,0.00862881311360449
-2.41167181229685E-05,1.06315819721203E-05,4.21875,0,0.00862881311360449
-2.37459462368861E-05,1.06270335891168E-05,4.21875,0,0.00862881311360449
-2.27238360821502E-05,1.17984436656116E-05,4.21875,0,0.00862881311360449
-2.27097334573045E-05,1.19854539661901E-05,4.21875,0,0.00862881311360449
-1.89400016097352E-05,8.86383804754587E-06,4.21875,0,0.00862881311360449
-2.63566053035902E-05,1.12491461550235E-05,4.21875,0,0.00862881311360449
-1.86146353371441E-05,7.69215876061935E-06,4.21875,0,0.00862881311360449
-2.21122754737735E-05,1.04211712823599E-05,4.21875,0,0.00862881311360449
-1.79443886736408E-05,7.29681323718978E-06,4.21875,0,0.00862881311360449
-2.0396370018716E-05,7.86640157457441E-06,4.21875,0,0.00862881311360449
-1.89698876056354E-05,7.94167681306135E-06,4.21875,0,0.00862881311360449
-2.15066756936722E-05,9.19749527383829E-06,4.21875,0,0.00862881311360449
-2.09125591936754E-05,7.88887609814992E-06,4.21875,0,0.00862881311360449
-2.14843676076271E-05,7.05051661498146E-06,4.21875,0,0.00862881311360449
-2.31109461310552E-05,7.52332607589778E-06,4.21875,0,0.00862881311360449
-2.38064676523209E-05,8.69575433171121E-06,4.21875,0,0.00862881311360449
-2.55851300607901E-05,1.04477312561357E-05,4.21875,0,0.00862881311360449
-2.57347674050834E-05,9.67128562479047E-06,4.21875,0,0.00862881311360449
-2.75490510830423E-05,8.89868260856019E-06,4.21875,0,0.00862881311360449
-2.60679935308872E-05,8.23269419925055E-06,4.21875,0,0.00862881311360449
-2.5906632799888E-05,1.00944225778221E-05,4.21875,0,0.00862881311360449
-2.34881645155838E-05,9.67934556683758E-06,4.21875,0,0.00862881311360449
-2.35319075727602E-05,8.33293415780645E-06,4.21875,0,0.00862881311360449
-2.30054774874588E-05,7.18095498086768E-06,4.21875,0,0.00862881311360449
-2.47497173404554E-05,9.090544153878E-06,4.21875,0,0.00862881311360449
-2.4755156118772E-05,9.66738934948808E-06,4.21875,0,0.00862881311360449
-2.52504978561774E-05,8.99213137017796E-06,4.21875,0,0.00862881311360449
-2.40603949350771E-05,7.66504217608599E-06,4.21875,0,0.00862881311360449
-2.25653420784511E-05,7.95329378888709E-06,4.21875,0,0.00862881311360449
-2.19172306969995E-05,9.89685304375598E-06,4.21875,0,0.00862881311360449
-2.28943972615525E-05,1.25720207506674E-05,4.21875,0,0.00862881311360449
-1.97590106836287E-05,1.12941643237718E-05,4.21875,0,0.00862881311360449
-2.77772433037171E-05,1.36992211992037E-05,4.21875,0,0.00862881311360449
-2.02654937311308E-05,5.6392732403765E-06,4.21875,0,0.00862881311360449
-2.5531629944453E-05,7.09848018232151E-06,4.21875,0,0.00862881311360449
-2.32242000492988E-05,5.35892058906029E-06,4.21875,0,0.00862881311360449
-2.72855813818751E-05,8.28478641778929E-06,4.21875,0,0.00862881311360449
-2.56004441325786E-05,8.87208079802804E-06,4.21875,0,0.00862881311360449
-2.61563091044081E-05,1.22389974421822E-05,4.21875,0,0.00862881311360449
-2.48602409556042E-05,1.48719745993731E-05,4.21875,0,0.00862881311360449
-2.43229824263835E-05,1.50010555444169E-05,4.21875,0,0.00862881311360449
-2.36940722970758E-05,1.30482139866217E-05,4.21875,0,0.00862881311360449
-2.27868476940785E-05,1.24975867947796E-05,4.21875,0,0.00862881311360449
-2.43267786572687E-05,1.58062066475395E-05,4.21875,0,0.00862881311360449
-2.37753902183613E-05,1.82993244379759E-05,4.21875,0,0.00862881311360449
-2.46187846641988E-05,2.04045500140637E-05,4.21875,0,0.00862881311360449
-2.39182918448932E-05,1.92735114978859E-05,4.21875,0,0.00862881311360449
-2.52914942393545E-05,1.72181007656036E-05,4.21875,0,0.00862881311360449
-2.36440737353405E-05,1.2495066584961E-05,4.21875,0,0.00862881311360449
-2.41827146965079E-05,9.04733860807028E-06,4.21875,0,0.00862881311360449
-2.40378922171658E-05,6.49083722237265E-06,4.21875,0,0.00862881311360449
-2.52338031714316E-05,8.54970585351111E-06,4.21875,0,0.00862881311360449
-2.41673969867406E-05,1.22766050481005E-05,4.21875,0,0.00862881311360449
-2.40217159444001E-05,1.59424016601406E-05,4.21875,0,0.00862881311360449
-2.33914270211244E-05,1.67628240888007E-05,4.21875,0,0.00862881311360449
-2.38063676079037E-05,1.53576584125403E-05,4.21875,0,0.00862881311360449
-2.46346517087659E-05,1.40136853588047E-05,4.21875,0,0.00862881311360449
-2.63005749729928E-05,1.42906701512402E-05,4.21875,0,0.00862881311360449
-2.23329134314554E-05,1.12960260594264E-05,4.21875,0,0.00862881311360449
-3.04152108583367E-05,1.51459653352504E-05,4.21875,0,0.00862881311360449
-2.02622159122257E-05,9.88808551483089E-06,4.21875,0,0.00862881311360449
-2.53405814873986E-05,1.12272537080571E-05,4.21875,0,0.00862881311360449
-2.22758935706224E-05,7.41436360840453E-06,4.21875,0,0.00862881311360449
-2.70374221145175E-05,1.00643128462252E-05,4.21875,0,0.00862881311360449
-2.4201421183534E-05,9.57365227804985E-06,4.21875,0,0.00862881311360449
-2.39532946579857E-05,9.44923613133142E-06,4.21875,0,0.00862881311360449
-2.22566904994892E-05,8.53366236697184E-06,4.21875,0,0.00862881311360449
-2.21227510337485E-05,7.31309501134092E-06,4.21875,0,0.00862881311360449
-2.32605561905075E-05,5.95746405451791E-06,4.21875,0,0.00862881311360449
-2.33720656979131E-05,5.95908841205528E-06,4.21875,0,0.00862881311360449
-2.48099386226386E-05,8.41946257423842E-06,4.21875,0,0.00862881311360449
-2.32191086979583E-05,9.20200454856968E-06,4.21875,0,0.00862881311360449
-2.43513586610788E-05,9.69142001849832E-06,4.21875,0,0.00862881311360449
-2.39994369621854E-05,7.67416804592358E-06,4.21875,0,0.00862881311360449
-2.52550871664425E-05,7.15893338565365E-06,4.21875,0,0.00862881311360449
-2.30031873797998E-05,6.87282772560138E-06,4.21875,0,0.00862881311360449
-2.38665288634365E-05,8.30465796752833E-06,4.21875,0,0.00862881311360449
-2.43560043600155E-05,7.76123579271371E-06,4.21875,0,0.00862881311360449
-2.63849597104127E-05,8.35290575196268E-06,4.21875,0,0.00862881311360449
-2.62648500211071E-05,9.49480272538494E-06,4.21875,0,0.00862881311360449
-2.7448464607005E-05,1.07123487396166E-05,4.21875,0,0.00862881311360449
-2.71325243375031E-05,1.09734373836545E-05,4.21875,0,0.00862881311360449
-2.59496846410912E-05,1.21622160804691E-05,4.21875,0,0.00862881311360449
-2.47936968662543E-05,1.25360402307706E-05,4.21875,0,0.00862881311360449
-2.55726026807679E-05,1.08215463114902E-05,4.21875,0,0.00862881311360449
-2.13812327274354E-05,7.50214212530409E-06,4.21875,0,0.00862881311360449
-2.98501690849662E-05,9.97155984805431E-06,4.21875,0,0.00862881311360449
-2.18913664866704E-05,6.41241422272287E-06,4.21875,0,0.00862881311360449
-2.81930169876432E-05,6.62336287859944E-06,4.21875,0,0.00862881311360449
-2.49984623224009E-05,3.77430342268781E-06,4.21875,0,0.00862881311360449
-2.7884994779015E-05,4.66923938802211E-06,4.21875,0,0.00862881311360449
-2.44826078414917E-05,4.18411127611762E-06,4.21875,0,0.00862881311360449
-2.50515877269208E-05,6.97064206178766E-06,4.21875,0,0.00862881311360449
-2.51340843533399E-05,9.28413282963447E-06,4.21875,0,0.00862881311360449
-2.5728995751706E-05,1.01436726254178E-05,4.21875,0,0.00862881311360449
-2.56430248555262E-05,1.02353724287241E-05,4.21875,0,0.00862881311360449
-2.4552849936299E-05,1.04268037830479E-05,4.21875,0,0.00862881311360449
-2.44670263782609E-05,1.1554706361494E-05,4.21875,0,0.00862881311360449
-2.29758388741175E-05,1.24816178868059E-05,4.21875,0,0.00862881311360449
-2.51562887569889E-05,1.47600449054153E-05,4.21875,0,0.00862881311360449
-2.49700278800447E-05,1.53941546159331E-05,4.21875,0,0.00862881311360449
-2.56990078923991E-05,1.55942670971854E-05,4.21875,0,0.00862881311360449
-2.31442991207587E-05,1.50314454003819E-05,4.21875,0,0.00862881311360449
-2.28864591917954E-05,1.58748771355022E-05,4.21875,0,0.00862881311360449
-2.11276583286235E-05,1.55641573655885E-05,4.21875,0,0.00862881311360449
-2.13840412470745E-05,1.50828918776824E-05,4.21875,0,0.00862881311360449
-2.11681508517358E-05,1.3805211892759E-05,4.21875,0,0.00862881311360449
-2.33353730436647E-05,1.38322357088327E-05,4.21875,0,0.00862881311360449
-2.4652772481204E-05,1.45816493386519E-05,4.21875,0,0.00862881311360449
-2.42166534007993E-05,1.57142021635082E-05,4.21875,0,0.00862881311360449
-2.15392610698473E-05,1.40860247483943E-05,4.21875,0,0.00862881311360449
-1.91592152987141E-05,1.08098456621519E-05,4.21875,0,0.00862881311360449
-1.54163353727199E-05,7.76650176703697E-06,4.21875,0,0.00862881311360449
-2.23605220526224E-05,1.16820747280144E-05,4.21875,0,0.00862881311360449
-1.74625911313342E-05,1.13913938548649E-05,4.21875,0,0.00862881311360449
-2.09474437724566E-05,1.58051479957066E-05,4.21875,0,0.00862881311360449
-1.85368789971108E-05,1.47795090015279E-05,4.21875,0,0.00862881311360449
-2.2715117665939E-05,1.55505476868711E-05,4.21875,0,0.00862881311360449
-2.25565781875048E-05,1.40805950650247E-05,4.21875,0,0.00862881311360449
-2.34176113735884E-05,1.32091263367329E-05,4.21875,0,0.00862881311360449
-2.27974178415025E-05,1.23928321045241E-05,4.21875,0,0.00862881311360449
-2.28426379180746E-05,1.28900455820258E-05,4.21875,0,0.00862881311360449
-2.36358446272789E-05,1.25643728097202E-05,4.21875,0,0.00862881311360449
-2.42818932747468E-05,1.06211764432373E-05,4.21875,0,0.00862881311360449
-2.60169144894462E-05,9.58279269980267E-06,4.21875,0,0.00862881311360449
-2.54717360803625E-05,9.81420816970058E-06,4.21875,0,0.00862881311360449
-2.58398031292018E-05,1.192612307932E-05,4.21875,0,0.00862881311360449
-2.43647882598452E-05,1.26999366329983E-05,4.21875,0,0.00862881311360449
-2.45265200646827E-05,1.32493614728446E-05,4.21875,0,0.00862881311360449
-2.32697984756669E-05,1.201671329909E-05,4.21875,0,0.00862881311360449
-2.37762997130631E-05,1.07561572804116E-05,4.21875,0,0.00862881311360449
-2.28196022362681E-05,7.74208456277847E-06,4.21875,0,0.00862881311360449
-2.2778096536058E-05,5.1536794671847E-06,4.21875,0,0.00862881311360449
-2.31037902267417E-05,3.86726878787158E-06,4.21875,0,0.00862881311360449
-2.54530787060503E-05,6.0801880863437E-06,4.21875,0,0.00862881311360449
-2.58940435742261E-05,8.29501004773192E-06,4.21875,0,0.00862881311360449
-2.45124319917522E-05,7.85275460657431E-06,4.21875,0,0.00862881311360449
-2.31934700423153E-05,6.7247874540044E-06,4.21875,0,0.00862881311360449
-2.38466600421816E-05,9.06598506844603E-06,4.21875,0,0.00862881311360449
-1.94655603991123E-05,9.79927608568687E-06,4.21875,0,0.00862881311360449
-2.59662501775892E-05,1.32774803205393E-05,4.21875,0,0.00862881311360449
-1.79742401087424E-05,7.63953084970126E-06,4.21875,0,0.00862881311360449
-2.4335817215615E-05,9.57226802711375E-06,4.21875,0,0.00862881311360449
-2.15107411349891E-05,1.03048478194978E-05,4.21875,0,0.00862881311360449
-2.52047957474133E-05,1.4452565665124E-05,4.21875,0,0.00862881311360449
-2.27639848162653E-05,1.42121007229434E-05,4.21875,0,0.00862881311360449
-2.34083199757151E-05,1.41568616527366E-05,4.21875,0,0.00862881311360449
-2.34813833230874E-05,1.25558945001103E-05,4.21875,0,0.00862881311360449
-2.48418618866708E-05,1.07838495750912E-05,4.21875,0,0.00862881311360449
-2.59892367466819E-05,1.14136473712279E-05,4.21875,0,0.00862881311360449
-2.46116851485567E-05,1.22727369671338E-05,4.21875,0,0.00862881311360449
-2.50461180257844E-05,1.0959184692183E-05,4.21875,0,0.00862881311360449
-2.48798751272261E-05,5.43399664820754E-06,4.21875,0,0.00862881311360449
-2.69806132564554E-05,6.7782713131237E-07,4.21875,0,0.00862881311360449
-2.60038432315923E-05,-3.83052054075961E-07,4.21875,0,0.00862881311360449
-2.60165070358198E-05,4.75119259135681E-06,4.21875,0,0.00862881311360449
-2.36546748055844E-05,1.02323929240811E-05,4.21875,0,0.00862881311360449
-2.4079236027319E-05,1.49305296872626E-05,4.21875,0,0.00862881311360449
-2.3659527869313E-05,1.59645605890546E-05,4.21875,0,0.00862881311360449
-2.48410615313333E-05,1.41490827445523E-05,4.21875,0,0.00862881311360449
-2.50153989327373E-05,1.00521492640837E-05,4.21875,0,0.00862881311360449
-2.6361049094703E-05,8.40018492453964E-06,4.21875,0,0.00862881311360449
-2.61539389612153E-05,8.74054512678413E-06,4.21875,0,0.00862881311360449
-2.56364091910655E-05,8.80258812685497E-06,4.21875,0,0.00862881311360449
-2.36083324125502E-05,8.29987584438641E-06,4.21875,0,0.00862881311360449
-2.14297615457326E-05,9.33659066504333E-06,4.21875,0,0.00862881311360449
-1.73105436260812E-05,8.58031671668869E-06,4.21875,0,0.00862881311360449
-2.60035540122772E-05,1.2188214896014E-05,4.21875,0,0.00862881311360449
-2.17350680031814E-05,9.67481810221216E-06,4.21875,0,0.00862881311360449
-2.50508946919581E-05,1.27355151562369E-05,4.21875,0,0.00862881311360449
-2.03378058358794E-05,1.12262723632739E-05,4.21875,0,0.00862881311360449
-2.21581758523826E-05,1.22907431432395E-05,4.21875,0,0.00862881311360449
-2.05773030756973E-05,1.11048648250289E-05,4.21875,0,0.00862881311360449
-2.33751252380898E-05,1.08808317236253E-05,4.21875,0,0.00862881311360449
-2.40420013142284E-05,9.65172785072355E-06,4.21875,0,0.00862881311360449
-2.40038007177645E-05,9.06429977476364E-06,4.21875,0,0.00862881311360449
-2.34968465520069E-05,9.71363715507323E-06,4.21875,0,0.00862881311360449
-2.26790489250561E-05,1.00772840596619E-05,4.21875,0,0.00862881311360449
-2.4154755010386E-05,9.61724890657933E-06,4.21875,0,0.00862881311360449
-2.48588548856787E-05,7.5801963248523E-06,4.21875,0,0.00862881311360449
-2.65150592895225E-05,7.98202017904259E-06,4.21875,0,0.00862881311360449
-2.51450219366234E-05,8.9611703515402E-06,4.21875,0,0.00862881311360449
-2.5151515728794E-05,1.05328545032535E-05,4.21875,0,0.00862881311360449
-2.25875446631107E-05,1.00758243206656E-05,4.21875,0,0.00862881311360449
-2.15323016163893E-05,1.0569802725513E-05,4.21875,0,0.00862881311360449
-1.99596070160624E-05,1.10535083877039E-05,4.21875,0,0.00862881311360449
-2.08549099625088E-05,1.2216229151818E-05,4.21875,0,0.00862881311360449
-2.14305855479324E-05,1.17726858661626E-05,4.21875,0,0.00862881311360449
-2.35586066992255E-05,1.10594282887178E-05,4.21875,0,0.00862881311360449
-2.50365792453522E-05,1.04919517980306E-05,4.21875,0,0.00862881311360449
-2.64923983195331E-05,1.08712492874474E-05,4.21875,0,0.00862881311360449
-2.58771433436777E-05,1.15950542749488E-05,4.21875,0,0.00862881311360449
-2.45944283960853E-05,1.1855337106681E-05,4.21875,0,0.00862881311360449
-1.9475683075143E-05,1.10284772745217E-05,4.21875,0,0.00862881311360449
-2.8587184715434E-05,1.60666313604452E-05,4.21875,0,0.00862881311360449
-2.30650839512236E-05,1.13846544991247E-05,4.21875,0,0.00862881311360449
-2.8117925467086E-05,1.21586945169838E-05,4.21875,0,0.00862881311360449
-2.34724921028828E-05,9.36007836571662E-06,4.21875,0,0.00862881311360449
-2.58225172728999E-05,1.15747925519827E-05,4.21875,0,0.00862881311360449
-2.35296756727621E-05,1.08948433990008E-05,4.21875,0,0.00862881311360449
-2.33343453146517E-05,1.02109734143596E-05,4.21875,0,0.00862881311360449
-2.16482112591621E-05,8.68150164023973E-06,4.21875,0,0.00862881311360449
-2.22334474528907E-05,8.55369125929428E-06,4.21875,0,0.00862881311360449
-2.32867751037702E-05,9.01211660675472E-06,4.21875,0,0.00862881311360449
-2.14630981645314E-05,9.06514014786808E-06,4.21875,0,0.00862881311360449
-2.03270810743561E-05,9.45597003010334E-06,4.21875,0,0.00862881311360449
-1.8617627574713E-05,8.54456357046729E-06,4.21875,0,0.00862881311360449
-2.0073019186384E-05,8.58554813021328E-06,4.21875,0,0.00862881311360449
-1.9330414943397E-05,8.02723661763594E-06,4.21875,0,0.00862881311360449
-2.04292246053228E-05,8.52808534546057E-06,4.21875,0,0.00862881311360449
-2.03161089302739E-05,8.04009141575079E-06,4.21875,0,0.00862881311360449
-2.22218113776762E-05,8.98264988791198E-06,4.21875,0,0.00862881311360449
-2.17737597267842E-05,8.80582229001448E-06,4.21875,0,0.00862881311360449
-2.22483886318514E-05,8.34699312690645E-06,4.21875,0,0.00862881311360449
-2.25864787353203E-05,5.51381572222454E-06,4.21875,0,0.00862881311360449
-2.48166179517284E-05,2.59617831943615E-06,4.21875,0,0.00862881311360449
-2.56415041803848E-05,1.27281225559273E-06,4.21875,0,0.00862881311360449
-2.61133882304421E-05,3.63877234121901E-06,4.21875,0,0.00862881311360449
-2.56287730735494E-05,6.70083773002261E-06,4.21875,0,0.00862881311360449
-2.50811808655271E-05,9.08801575860707E-06,4.21875,0,0.00862881311360449
-1.92060197150568E-05,8.5951987784938E-06,4.21875,0,0.00862881311360449
-2.66200277110329E-05,1.37517063194537E-05,4.21875,0,0.00862881311360449
-1.98485340661136E-05,1.33711409944226E-05,4.21875,0,0.00862881311360449
-2.52518366323784E-05,1.52585498653934E-05,4.21875,0,0.00862881311360449
-2.10624202736653E-05,1.21027069326374E-05,4.21875,0,0.00862881311360449
-2.3942879124661E-05,1.32142113216105E-05,4.21875,0,0.00862881311360449
-2.18676759686787E-05,1.27578723549959E-05,4.21875,0,0.00862881311360449
-2.29781981033739E-05,1.40747270052088E-05,4.21875,0,0.00862881311360449
-2.31306494242745E-05,1.49239531310741E-05,4.21875,0,0.00862881311360449
-2.43407030211529E-05,1.53376531670801E-05,4.21875,0,0.00862881311360449
-2.56318762694718E-05,1.49317656905623E-05,4.21875,0,0.00862881311360449
-2.55464710789965E-05,1.35362679429818E-05,4.21875,0,0.00862881311360449
-2.62711455434328E-05,1.20502145364298E-05,4.21875,0,0.00862881311360449
-2.44062903220765E-05,9.15255077416077E-06,4.21875,0,0.00862881311360449
-2.46856470766943E-05,6.73503063808312E-06,4.21875,0,0.00862881311360449
-2.31251287914347E-05,4.22788889409276E-06,4.21875,0,0.00862881311360449
-2.39667169807944E-05,4.28045905209729E-06,4.21875,0,0.00862881311360449
-2.3570062694489E-05,3.79227367375279E-06,4.21875,0,0.00862881311360449
-2.57394967775326E-05,4.78812034998555E-06,4.21875,0,0.00862881311360449
-2.59718981396873E-05,5.950687409495E-06,4.21875,0,0.00862881311360449
-2.67156719928607E-05,7.66294670029311E-06,4.21875,0,0.00862881311360449
-2.54025108006317E-05,8.95994526217692E-06,4.21875,0,0.00862881311360449
-2.47294028667966E-05,1.07529394881567E-05,4.21875,0,0.00862881311360449
-2.38879747485043E-05,1.17353565656231E-05,4.21875,0,0.00862881311360449
-2.45507962972624E-05,1.27145131045836E-05,4.21875,0,0.00862881311360449
-2.59437620115932E-05,1.28079991554841E-05,4.21875,0,0.00862881311360449
-2.67796858679503E-05,1.26963750517461E-05,4.21875,0,0.00862881311360449
-2.16608987102518E-05,1.10290520751732E-05,4.21875,0,0.00862881311360449
-3.22026935464237E-05,1.69886843650602E-05,4.21875,0,0.00862881311360449
-2.54355600191047E-05,1.5121776414162E-05,4.21875,0,0.00862881311360449
-2.88161263597431E-05,1.78889404196525E-05,4.21875,0,0.00862881311360449
-2.3063954358804E-05,1.46042830238002E-05,4.21875,0,0.00862881311360449
-2.6413223167765E-05,1.58960283442866E-05,4.21875,0,0.00862881311360449
-2.54067617788678E-05,1.48733515743515E-05,4.21875,0,0.00862881311360449
-2.70156742772087E-05,1.60994277393911E-05,4.21875,0,0.00862881311360449
-2.58275813393993E-05,1.68519818544155E-05,4.21875,0,0.00862881311360449
-2.48015094257426E-05,1.65119508892531E-05,4.21875,0,0.00862881311360449
-2.34840535995318E-05,1.52596348925726E-05,4.21875,0,0.00862881311360449
-2.26196716539562E-05,1.31775086629204E-05,4.21875,0,0.00862881311360449
-2.41126963373972E-05,1.22492592709023E-05,4.21875,0,0.00862881311360449
-2.34599247050937E-05,1.25514843603014E-05,4.21875,0,0.00862881311360449
-2.47097323153866E-05,1.46475003930391E-05,4.21875,0,0.00862881311360449
-2.39304481510771E-05,1.39735493576154E-05,4.21875,0,0.00862881311360449
-2.55622308031889E-05,1.35592299557175E-05,4.21875,0,0.00862881311360449
-2.51025849138387E-05,1.18551979539916E-05,4.21875,0,0.00862881311360449
-2.64214595517842E-05,1.04950149761862E-05,4.21875,0,0.00862881311360449
-2.44406382989837E-05,7.99098233983386E-06,4.21875,0,0.00862881311360449
-2.41496909438865E-05,8.13757651485503E-06,4.21875,0,0.00862881311360449
-2.34261733567109E-05,9.93344656308182E-06,4.21875,0,0.00862881311360449
-2.37725034821779E-05,1.25988854051684E-05,4.21875,0,0.00862881311360449
-2.20480033021886E-05,1.2912365491502E-05,4.21875,0,0.00862881311360449
-2.08690253202803E-05,1.1589067071327E-05,4.21875,0,0.00862881311360449
-2.16056923818542E-05,9.6912035587593E-06,4.21875,0,0.00862881311360449
-2.22500875679543E-05,8.85053486854304E-06,4.21875,0,0.00862881311360449
-1.81293216883205E-05,8.31902707432164E-06,4.21875,0,0.00862881311360449
-2.58459313045023E-05,1.15251768875169E-05,4.21875,0,0.00862881311360449
-1.97041426872602E-05,8.00018096924759E-06,4.21875,0,0.00862881311360449
-2.38679494941607E-05,9.08674064703519E-06,4.21875,0,0.00862881311360449
-2.01865568669746E-05,6.53263577987673E-06,4.21875,0,0.00862881311360449
-2.24001305468846E-05,7.40445193514461E-06,4.21875,0,0.00862881311360449
-2.02721366804326E-05,6.57228292766376E-06,4.21875,0,0.00862881311360449
-2.29491015488748E-05,8.26137238618685E-06,4.21875,0,0.00862881311360449
-2.38427182921441E-05,1.02234962469083E-05,4.21875,0,0.00862881311360449
-2.37112690228969E-05,1.11359140646528E-05,4.21875,0,0.00862881311360449
-2.26743322855327E-05,1.20458453238825E-05,4.21875,0,0.00862881311360449
-2.09558329515858E-05,1.383570543112E-05,4.21875,0,0.00862881311360449
-2.14233914448414E-05,1.58026159624569E-05,4.21875,0,0.00862881311360449
-2.06317999982275E-05,1.50566265801899E-05,4.21875,0,0.00862881311360449
-2.24833838728955E-05,1.39929334181943E-05,4.21875,0,0.00862881311360449
-2.29924880841281E-05,1.18094430945348E-05,4.21875,0,0.00862881311360449
-2.52524314419134E-05,1.18052903417265E-05,4.21875,0,0.00862881311360449
-2.45615665335208E-05,1.2856794455729E-05,4.21875,0,0.00862881311360449
-2.44675757130608E-05,1.53822875290643E-05,4.21875,0,0.00862881311360449
-2.25876574404538E-05,1.52691918628989E-05,4.21875,0,0.00862881311360449
-2.32473503274377E-05,1.32542627397925E-05,4.21875,0,0.00862881311360449
-2.38681459450163E-05,1.0635788385116E-05,4.21875,0,0.00862881311360449
-2.55627292062854E-05,1.08207868834143E-05,4.21875,0,0.00862881311360449
-2.55954073509201E-05,1.28408100863453E-05,4.21875,0,0.00862881311360449
-2.50626326305792E-05,1.61344305524835E-05,4.21875,0,0.00862881311360449
-2.35051247727824E-05,1.85258122655796E-05,4.21875,0,0.00862881311360449
-2.38913471548585E-05,1.78093068825547E-05,4.21875,0,0.00862881311360449
-2.09729678317672E-05,1.10079872683855E-05,4.21875,0,0.00862881311360449
-2.91362066491274E-05,1.25404994832934E-05,4.21875,0,0.00862881311360449
-2.10083308047615E-05,5.82426173423301E-06,4.21875,0,0.00862881311360449
-2.62602588918526E-05,8.79180606716545E-06,4.21875,0,0.00862881311360449
-2.28614790103165E-05,6.30393878964242E-06,4.21875,0,0.00862881311360449
-2.73909790848847E-05,9.51928086578846E-06,4.21875,0,0.00862881311360449
-2.54217065958073E-05,9.34010586206568E-06,4.21875,0,0.00862881311360449
-2.51835845119786E-05,1.04535811260575E-05,4.21875,0,0.00862881311360449
-2.40692897932604E-05,1.03400989246438E-05,4.21875,0,0.00862881311360449
-2.52270474447869E-05,9.44765997701325E-06,4.21875,0,0.00862881311360449
-2.57654937740881E-05,6.91116747475462E-06,4.21875,0,0.00862881311360449
-2.41934867517557E-05,4.29819920100272E-06,4.21875,0,0.00862881311360449
-2.44968814513413E-05,5.21615947945975E-06,4.21875,0,0.00862881311360449
-2.36604082601843E-05,7.15668920747703E-06,4.21875,0,0.00862881311360449
-2.49511012953008E-05,9.54446568357525E-06,4.21875,0,0.00862881311360449
-2.32350812439108E-05,8.30369208415505E-06,4.21875,0,0.00862881311360449
-2.39205292018596E-05,6.92841103955288E-06,4.21875,0,0.00862881311360449
-2.30928872042568E-05,3.72398426407017E-06,4.21875,0,0.00862881311360449
-2.39089913520729E-05,2.28893941311981E-06,4.21875,0,0.00862881311360449
-2.22044382098829E-05,1.31107611878178E-07,4.21875,0,0.00862881311360449
-2.28117605729494E-05,5.40273603633068E-08,4.21875,0,0.00862881311360449
-2.25885596591979E-05,1.47832258790004E-06,4.21875,0,0.00862881311360449
-2.28618537221337E-05,5.00273927173112E-06,4.21875,0,0.00862881311360449
-2.19736866711173E-05,7.5172306424065E-06,4.21875,0,0.00862881311360449
-2.28712615353288E-05,9.33146566239884E-06,4.21875,0,0.00862881311360449
-2.24665272980928E-05,1.06734041764867E-05,4.21875,0,0.00862881311360449
-2.14190167753259E-05,1.03315778687829E-05,4.21875,0,0.00862881311360449
-1.79902945092181E-05,6.14447390034911E-06,4.21875,0,0.00862881311360449
-2.56559051194927E-05,8.428890396317E-06,4.21875,0,0.00862881311360449
-1.8666876712814E-05,8.42114695842611E-06,4.21875,0,0.00862881311360449
-2.27329346671468E-05,1.17623421829194E-05,4.21875,0,0.00862881311360449
-1.99891019292409E-05,8.32215482660104E-06,4.21875,0,0.00862881311360449
-2.20553320104955E-05,7.3642554525577E-06,4.21875,0,0.00862881311360449
-1.96458186110249E-05,6.79370032230509E-06,4.21875,0,0.00862881311360449
-2.05413471121574E-05,9.32602688408224E-06,4.21875,0,0.00862881311360449
-2.02628507395275E-05,1.12744100988493E-05,4.21875,0,0.00862881311360449
-2.12877512240084E-05,1.11447398012388E-05,4.21875,0,0.00862881311360449
-2.20134988921927E-05,9.59362751018489E-06,4.21875,0,0.00862881311360449
-2.28166009037523E-05,8.16154079075204E-06,4.21875,0,0.00862881311360449
-2.57492829405237E-05,8.68723418534501E-06,4.21875,0,0.00862881311360449
-2.58358086284716E-05,9.0855164671666E-06,4.21875,0,0.00862881311360449
-2.5729636035976E-05,9.7595329862088E-06,4.21875,0,0.00862881311360449
-2.33662121900124E-05,9.25439780985471E-06,4.21875,0,0.00862881311360449
-2.40177032537758E-05,9.87362727755681E-06,4.21875,0,0.00862881311360449
-2.29195447900565E-05,1.0832672160177E-05,4.21875,0,0.00862881311360449
-2.30336809181608E-05,1.17282861538115E-05,4.21875,0,0.00862881311360449
-2.19845514948247E-05,9.32989314605948E-06,4.21875,0,0.00862881311360449
-2.29040142585291E-05,6.96802817401476E-06,4.21875,0,0.00862881311360449
-2.29107226914493E-05,4.86511089548003E-06,4.21875,0,0.00862881311360449
-2.42426667682594E-05,3.18975662594312E-06,4.21875,0,0.00862881311360449
-2.38442262343597E-05,2.88599926534516E-06,4.21875,0,0.00862881311360449
-2.31342273764312E-05,4.076400273334E-06,4.21875,0,0.00862881311360449
-2.30182067753049E-05,3.99614555135486E-06,4.21875,0,0.00862881311360449
-2.44276143348543E-05,3.73776356354938E-06,4.21875,0,0.00862881311360449
-2.06947679544101E-05,4.77820231026271E-06,4.21875,0,0.00862881311360449
-2.92822696792427E-05,9.12665200303309E-06,4.21875,0,0.00862881311360449
-2.22281560127158E-05,1.1268693015154E-05,4.21875,0,0.00862881311360449
-2.8482858397183E-05,1.39198309625499E-05,4.21875,0,0.00862881311360449
-2.46676481765462E-05,1.23050213005627E-05,4.21875,0,0.00862881311360449
-2.66481547441799E-05,1.19275564429699E-05,4.21875,0,0.00862881311360449
-2.30633941100677E-05,1.16759001684841E-05,4.21875,0,0.00862881311360449
-2.35125517065171E-05,1.23024710774189E-05,4.21875,0,0.00862881311360449
-2.29644392675254E-05,1.23297768368502E-05,4.21875,0,0.00862881311360449
-2.33470509556355E-05,1.26585491670994E-05,4.21875,0,0.00862881311360449
-2.42077840084676E-05,1.35428490466438E-05,4.21875,0,0.00862881311360449
-2.40189765463583E-05,1.37450961119612E-05,4.21875,0,0.00862881311360449
-2.56173116213176E-05,1.37379092848278E-05,4.21875,0,0.00862881311360449
-2.57091724051861E-05,1.30058679133072E-05,4.21875,0,0.00862881311360449
-2.75687307293992E-05,1.29723111967905E-05,4.21875,0,0.00862881311360449
-2.65395028691273E-05,1.29573099911795E-05,4.21875,0,0.00862881311360449
-2.77103426924441E-05,1.34362062453874E-05,4.21875,0,0.00862881311360449
-2.63530509982957E-05,1.27479215734638E-05,4.21875,0,0.00862881311360449
-2.62082903645933E-05,1.29311629279982E-05,4.21875,0,0.00862881311360449
-2.45273931795964E-05,1.41714444907848E-05,4.21875,0,0.00862881311360449
-2.51523324550362E-05,1.51923713929136E-05,4.21875,0,0.00862881311360449
-2.39636065089144E-05,1.48564040500787E-05,4.21875,0,0.00862881311360449
-2.34625331358984E-05,1.3015673175687E-05,4.21875,0,0.00862881311360449
-2.32791135204025E-05,9.77183935901849E-06,4.21875,0,0.00862881311360449
-2.35985971812624E-05,7.45292891224381E-06,4.21875,0,0.00862881311360449
-2.2932275896892E-05,9.03550608200021E-06,4.21875,0,0.00862881311360449
-2.21068039536476E-05,1.35457903525094E-05,4.21875,0,0.00862881311360449
-1.70375860761851E-05,1.18274410851882E-05,4.21875,0,0.00862881311360449
-2.52237732638605E-05,1.55389425344765E-05,4.21875,0,0.00862881311360449
-2.12444520002464E-05,1.16637493192684E-05,4.21875,0,0.00862881311360449
-2.6018324206234E-05,1.87818932317896E-05,4.21875,0,0.00862881311360449
-2.20301608351292E-05,1.91385170182912E-05,4.21875,0,0.00862881311360449
-2.3890443117125E-05,2.08573856070871E-05,4.21875,0,0.00862881311360449
-2.23744318645913E-05,1.72076925082365E-05,4.21875,0,0.00862881311360449
-2.40891040448332E-05,1.53072014654754E-05,4.21875,0,0.00862881311360449
-2.39610726566752E-05,1.47298696901998E-05,4.21875,0,0.00862881311360449
-2.41410398302833E-05,1.54788103827741E-05,4.21875,0,0.00862881311360449
-2.38229149545077E-05,1.55499346874421E-05,4.21875,0,0.00862881311360449
-2.27016735152574E-05,1.40931742862449E-05,4.21875,0,0.00862881311360449
-2.27362979785539E-05,1.20628656077315E-05,4.21875,0,0.00862881311360449
-2.15529271372361E-05,9.63707861956209E-06,4.21875,0,0.00862881311360449
-2.23191982513526E-05,1.14355216283002E-05,4.21875,0,0.00862881311360449
-2.09503177757142E-05,1.39415469675441E-05,4.21875,0,0.00862881311360449
-2.12865543289809E-05,1.68947553902399E-05,4.21875,0,0.00862881311360449
-2.08199689950561E-05,1.67672060342738E-05,4.21875,0,0.00862881311360449
-2.41305478994036E-05,1.64025550475344E-05,4.21875,0,0.00862881311360449
-2.59350836131489E-05,1.39761805257876E-05,4.21875,0,0.00862881311360449
-2.66081387962913E-05,1.2533745575638E-05,4.21875,0,0.00862881311360449
-2.49781551246997E-05,1.05275712485309E-05,4.21875,0,0.00862881311360449
-2.52811623795424E-05,9.4518427431467E-06,4.21875,0,0.00862881311360449
-2.5646224457887E-05,9.16125190997263E-06,4.21875,0,0.00862881311360449
-2.59252719843062E-05,1.13522892206674E-05,4.21875,0,0.00862881311360449
-2.51492801908171E-05,1.409009382769E-05,4.21875,0,0.00862881311360449
-2.44168313656701E-05,1.40918673423585E-05,4.21875,0,0.00862881311360449
-1.94752865354531E-05,8.31606030260446E-06,4.21875,0,0.00862881311360449
-2.88505780190462E-05,9.69047687249258E-06,4.21875,0,0.00862881311360449
-2.39526398218004E-05,6.20472064838395E-06,4.21875,0,0.00862881311360449
-2.92937675112626E-05,1.11149638541974E-05,4.21875,0,0.00862881311360449
-2.48615688178688E-05,1.14255708467681E-05,4.21875,0,0.00862881311360449
-2.72692468570312E-05,1.32041868710076E-05,4.21875,0,0.00862881311360449
-2.5565972464392E-05,1.13065771074616E-05,4.21875,0,0.00862881311360449
-2.70902364718495E-05,1.0712048606365E-05,4.21875,0,0.00862881311360449
-2.59369262494147E-05,9.93325920717325E-06,4.21875,0,0.00862881311360449
-2.50338925980031E-05,1.04661767181824E-05,4.21875,0,0.00862881311360449
-2.50708835665137E-05,1.06506140582496E-05,4.21875,0,0.00862881311360449
-2.52318004640983E-05,1.02568310467177E-05,4.21875,0,0.00862881311360449
-2.67105679085944E-05,9.53630296862684E-06,4.21875,0,0.00862881311360449
-2.61335244431393E-05,7.26869075151626E-06,4.21875,0,0.00862881311360449
-2.7936534024775E-05,7.49124092180864E-06,4.21875,0,0.00862881311360449
-2.77902763627935E-05,8.68188999447739E-06,4.21875,0,0.00862881311360449
-2.93057473754743E-05,1.05883145806729E-05,4.21875,0,0.00862881311360449
-2.78454554063501E-05,9.51208039623452E-06,4.21875,0,0.00862881311360449
-2.76253085758071E-05,9.18913792702369E-06,4.21875,0,0.00862881311360449
-2.62756930169417E-05,1.00661536635016E-05,4.21875,0,0.00862881311360449
-2.71115932264365E-05,1.26049399113981E-05,4.21875,0,0.00862881311360449
-2.57200699707028E-05,1.19700762297725E-05,4.21875,0,0.00862881311360449
-2.44857255893294E-05,1.01719397207489E-05,4.21875,0,0.00862881311360449
-2.33562950597843E-05,8.84673136170022E-06,4.21875,0,0.00862881311360449
-2.44307666434906E-05,9.20258844416821E-06,4.21875,0,0.00862881311360449
-2.61808854702394E-05,1.01722425824846E-05,4.21875,0,0.00862881311360449
-2.67489213001681E-05,9.97656115941936E-06,4.21875,0,0.00862881311360449
-2.08340534300078E-05,7.64552714827005E-06,4.21875,0,0.00862881311360449
-2.8420559829101E-05,1.19989053928293E-05,4.21875,0,0.00862881311360449
-2.02191531570861E-05,1.05045219243038E-05,4.21875,0,0.00862881311360449
-2.65218131971778E-05,1.16341325337999E-05,4.21875,0,0.00862881311360449
-2.34306553466013E-05,9.65038725553313E-06,4.21875,0,0.00862881311360449
-2.62839239439927E-05,1.13675559987314E-05,4.21875,0,0.00862881311360449
-2.26673564611701E-05,1.26261857076315E-05,4.21875,0,0.00862881311360449
-2.27094315050635E-05,1.55706202349393E-05,4.21875,0,0.00862881311360449
-2.21014906855999E-05,1.60897689056583E-05,4.21875,0,0.00862881311360449
-2.29226261581061E-05,1.42166836667457E-05,4.21875,0,0.00862881311360449
-2.33970040426357E-05,1.17467343443423E-05,4.21875,0,0.00862881311360449
-2.25379608309595E-05,1.06694778878591E-05,4.21875,0,0.00862881311360449
-2.25321855396032E-05,1.14900940388907E-05,4.21875,0,0.00862881311360449
-2.00610083993524E-05,1.06730658444576E-05,4.21875,0,0.00862881311360449
-2.02386909222696E-05,9.53786729951389E-06,4.21875,0,0.00862881311360449
-1.95208431250649E-05,8.02503382146824E-06,4.21875,0,0.00862881311360449
-2.17937958950643E-05,7.69743382988963E-06,4.21875,0,0.00862881311360449
-2.10198995773681E-05,5.93065988141461E-06,4.21875,0,0.00862881311360449
-2.1439287593239E-05,4.28292469223379E-06,4.21875,0,0.00862881311360449
-2.04335592570715E-05,2.56771772910724E-06,4.21875,0,0.00862881311360449
-2.19502398977056E-05,3.09428173750348E-06,4.21875,0,0.00862881311360449
-2.18054847209714E-05,5.11725329488399E-06,4.21875,0,0.00862881311360449
-2.40536082856124E-05,8.0144473031396E-06,4.21875,0,0.00862881311360449
-2.54003516602097E-05,9.52853861235781E-06,4.21875,0,0.00862881311360449
-2.47591797233326E-05,1.1179142347828E-05,4.21875,0,0.00862881311360449
-2.30599744099891E-05,1.25145725178299E-05,4.21875,0,0.00862881311360449
-2.24530122068245E-05,1.20384956971975E-05,4.21875,0,0.00862881311360449
-1.81224677362479E-05,7.20774005458225E-06,4.21875,0,0.00862881311360449
-2.54592814599164E-05,7.89894784247736E-06,4.21875,0,0.00862881311360449
-1.962918213394E-05,2.47221373683715E-06,4.21875,0,0.00862881311360449
-2.5032197299879E-05,3.60844069291488E-06,4.21875,0,0.00862881311360449
-2.15454128920101E-05,2.71697513198887E-06,4.21875,0,0.00862881311360449
-2.43970407609595E-05,5.8528567024041E-06,4.21875,0,0.00862881311360449
-2.32528109336272E-05,5.59955333301332E-06,4.21875,0,0.00862881311360449
-2.50091161433375E-05,5.81411995881354E-06,4.21875,0,0.00862881311360449
-2.45056762651075E-05,5.48459911442478E-06,4.21875,0,0.00862881311360449
-2.49879249167861E-05,6.0496681726363E-06,4.21875,0,0.00862881311360449
-2.60196793533396E-05,8.2380056483089E-06,4.21875,0,0.00862881311360449
-2.58420604950516E-05,1.05098097265E-05,4.21875,0,0.00862881311360449
-2.60825472651049E-05,1.2617562788364E-05,4.21875,0,0.00862881311360449
-2.40300378209213E-05,1.36191938509E-05,4.21875,0,0.00862881311360449
-2.40277640841668E-05,1.52678148879204E-05,4.21875,0,0.00862881311360449
-2.2797983547207E-05,1.59045648615574E-05,4.21875,0,0.00862881311360449
-2.45668197749183E-05,1.66423615155509E-05,4.21875,0,0.00862881311360449
-2.42548012465704E-05,1.52908305608435E-05,4.21875,0,0.00862881311360449
-2.5301273126388E-05,1.52584607349127E-05,4.21875,0,0.00862881311360449
-2.45531864493387E-05,1.62235119205434E-05,4.21875,0,0.00862881311360449
-2.48424839810468E-05,1.7310443581664E-05,4.21875,0,0.00862881311360449
-2.34563449339475E-05,1.63690183399012E-05,4.21875,0,0.00862881311360449
-2.31617905228632E-05,1.56942496687407E-05,4.21875,0,0.00862881311360449
-2.31628600886324E-05,1.50083333210205E-05,4.21875,0,0.00862881311360449
-2.39897653955268E-05,1.4636634659837E-05,4.21875,0,0.00862881311360449
-2.29888792091515E-05,1.25311753436108E-05,4.21875,0,0.00862881311360449
-2.10211092053214E-05,9.48364595387829E-06,4.21875,0,0.00862881311360449
-1.66318004630739E-05,5.9969811445626E-06,4.21875,0,0.00862881311360449
-2.47706066147657E-05,7.06144828654942E-06,4.21875,0,0.00862881311360449
-2.03654326469405E-05,4.39669884144678E-06,4.21875,0,0.00862881311360449
-2.47896896325983E-05,6.4229980125674E-06,4.21875,0,0.00862881311360449
-2.18766235775547E-05,4.41267957285163E-06,4.21875,0,0.00862881311360449
-2.42068963416386E-05,6.3845736804069E-06,4.21875,0,0.00862881311360449
-2.22913859033724E-05,7.81602830102202E-06,4.21875,0,0.00862881311360449
-2.2465374058811E-05,9.62262129178271E-06,4.21875,0,0.00862881311360449
-2.15586205740692E-05,1.10509918158641E-05,4.21875,0,0.00862881311360449
-2.26397332880879E-05,1.29566660689306E-05,4.21875,0,0.00862881311360449
-2.45770406763768E-05,1.48171993714641E-05,4.21875,0,0.00862881311360449
-2.55641753028613E-05,1.64799039339414E-05,4.21875,0,0.00862881311360449
-2.65640519501176E-05,1.69549657584867E-05,4.21875,0,0.00862881311360449
-2.54614042205503E-05,1.41063092087279E-05,4.21875,0,0.00862881311360449
-2.59256739809643E-05,1.13663327283575E-05,4.21875,0,0.00862881311360449
-2.43192098423606E-05,9.18464229471283E-06,4.21875,0,0.00862881311360449
-2.43003978539491E-05,9.38939047046006E-06,4.21875,0,0.00862881311360449
-2.32434140343685E-05,8.98231246537762E-06,4.21875,0,0.00862881311360449
-2.42040587181691E-05,9.00562645256286E-06,4.21875,0,0.00862881311360449
-2.32778529607458E-05,8.72766395332292E-06,4.21875,0,0.00862881311360449
-2.36635696637677E-05,9.25466156331822E-06,4.21875,0,0.00862881311360449
-2.25582789425971E-05,8.97382142284187E-06,4.21875,0,0.00862881311360449
-2.278794090671E-05,8.65799756866181E-06,4.21875,0,0.00862881311360449
-2.40176286752103E-05,7.87394583312562E-06,4.21875,0,0.00862881311360449
-2.58287873293739E-05,7.21541391612845E-06,4.21875,0,0.00862881311360449
-2.53184534813045E-05,6.97068253430189E-06,4.21875,0,0.00862881311360449
-2.35452935157809E-05,7.54248139855918E-06,4.21875,0,0.00862881311360449
-1.83740830834722E-05,6.9432448981388E-06,4.21875,0,0.00862881311360449
-2.61305194726447E-05,1.00008510344196E-05,4.21875,0,0.00862881311360449
-2.01581733563216E-05,7.83947052696021E-06,4.21875,0,0.00862881311360449
-2.51666133408435E-05,8.85044300957816E-06,4.21875,0,0.00862881311360449
-2.20718466152903E-05,6.40776988802827E-06,4.21875,0,0.00862881311360449
-2.5699755497044E-05,7.99419467512053E-06,4.21875,0,0.00862881311360449
-2.29425222642021E-05,8.3236764112371E-06,4.21875,0,0.00862881311360449
-2.28822973440401E-05,9.67290907283314E-06,4.21875,0,0.00862881311360449
-2.28816425078548E-05,8.74625220603775E-06,4.21875,0,0.00862881311360449
-2.47633233811939E-05,6.90345677867299E-06,4.21875,0,0.00862881311360449
-2.64496447925922E-05,7.7204012995935E-06,4.21875,0,0.00862881311360449
-2.6910343876807E-05,1.01568448371836E-05,4.21875,0,0.00862881311360449
-2.80809890682576E-05,1.24807256725035E-05,4.21875,0,0.00862881311360449
-2.60142987826839E-05,1.22093697427772E-05,4.21875,0,0.00862881311360449
-2.54913647950161E-05,1.18592533908668E-05,4.21875,0,0.00862881311360449
-2.43117210629862E-05,1.06384413811611E-05,4.21875,0,0.00862881311360449
-2.64034970314242E-05,9.73068836174207E-06,4.21875,0,0.00862881311360449
-2.5805749828578E-05,8.83747361513088E-06,4.21875,0,0.00862881311360449
-2.58771033259109E-05,1.11380186353927E-05,4.21875,0,0.00862881311360449
-2.42595797317335E-05,1.38352752401261E-05,4.21875,0,0.00862881311360449
-2.47557272814447E-05,1.56386522576213E-05,4.21875,0,0.00862881311360449
-2.46313884417759E-05,1.54673980432563E-05,4.21875,0,0.00862881311360449
-2.53689286182635E-05,1.4974901205278E-05,4.21875,0,0.00862881311360449
-2.43433241848834E-05,1.45819512908929E-05,4.21875,0,0.00862881311360449
-2.44107177422848E-05,1.45181111292914E-05,4.21875,0,0.00862881311360449
-2.53693106060382E-05,1.37527222250355E-05,4.21875,0,0.00862881311360449
-2.51438323175535E-05,1.34564279505867E-05,4.21875,0,0.00862881311360449
-1.97492536244681E-05,1.29271484183846E-05,4.21875,0,0.00862881311360449
-2.85780515696388E-05,1.81247796717798E-05,4.21875,0,0.00862881311360449
-2.3042512111715E-05,1.1097664355475E-05,4.21875,0,0.00862881311360449
-2.8167656637379E-05,1.16667652036995E-05,4.21875,0,0.00862881311360449
-2.21250484173652E-05,8.35942046251148E-06,4.21875,0,0.00862881311360449
-2.34238286793698E-05,1.01538771559717E-05,4.21875,0,0.00862881311360449
-2.20802612602711E-05,8.9330060291104E-06,4.21875,0,0.00862881311360449
-2.42535315919667E-05,9.83394693321316E-06,4.21875,0,0.00862881311360449
-2.34419130720198E-05,1.0673049473553E-05,4.21875,0,0.00862881311360449
-2.21498303289991E-05,1.10157225208241E-05,4.21875,0,0.00862881311360449
-2.08120563911507E-05,1.05311974039068E-05,4.21875,0,0.00862881311360449
-1.97753488464514E-05,9.90593252936378E-06,4.21875,0,0.00862881311360449
-2.08433302759659E-05,1.0700270649977E-05,4.21875,0,0.00862881311360449
-2.01053135242546E-05,1.04417822512914E-05,4.21875,0,0.00862881311360449
-2.20739930227865E-05,1.2024544957967E-05,4.21875,0,0.00862881311360449
-2.22564740397502E-05,1.250206878467E-05,4.21875,0,0.00862881311360449
-2.28703465836588E-05,1.39332551043481E-05,4.21875,0,0.00862881311360449
-2.00621034309734E-05,1.34420806716662E-05,4.21875,0,0.00862881311360449
-2.0734880308737E-05,1.36219841806451E-05,4.21875,0,0.00862881311360449
-2.07033026526915E-05,1.20723980217008E-05,4.21875,0,0.00862881311360449
-2.12267477763817E-05,1.06133848021273E-05,4.21875,0,0.00862881311360449
-2.10761336347787E-05,8.98441612662282E-06,4.21875,0,0.00862881311360449
-2.26416323130252E-05,8.70128405949799E-06,4.21875,0,0.00862881311360449
-2.28841836360516E-05,8.27475923870225E-06,4.21875,0,0.00862881311360449
-2.39881028392119E-05,8.36541948956437E-06,4.21875,0,0.00862881311360449
-2.3735461581964E-05,8.79769322637003E-06,4.21875,0,0.00862881311360449
-2.34166800510138E-05,9.54194274527254E-06,4.21875,0,0.00862881311360449
-1.86626457434613E-05,7.64294873079052E-06,4.21875,0,0.00862881311360449
-2.5449331587879E-05,1.09504644569824E-05,4.21875,0,0.00862881311360449
-1.88154172064969E-05,9.22630624700105E-06,4.21875,0,0.00862881311360449
-2.47390580625506E-05,1.10606724774698E-05,4.21875,0,0.00862881311360449
-2.23086481128121E-05,8.17066393210553E-06,4.21875,0,0.00862881311360449
-2.70649852609495E-05,9.11325332708657E-06,4.21875,0,0.00862881311360449
-2.58366071648197E-05,1.02698450064054E-05,4.21875,0,0.00862881311360449
-2.62961330008693E-05,1.29404625113239E-05,4.21875,0,0.00862881311360449
-2.56997809628956E-05,1.27869625430321E-05,4.21875,0,0.00862881311360449
-2.74770445685135E-05,1.12673933472252E-05,4.21875,0,0.00862881311360449
-2.79205160040874E-05,9.7515830930206E-06,4.21875,0,0.00862881311360449
-2.59691496466985E-05,9.59042608883465E-06,4.21875,0,0.00862881311360449
-2.63046804320766E-05,1.05770477603073E-05,4.21875,0,0.00862881311360449
-2.52075333264656E-05,1.05741328297881E-05,4.21875,0,0.00862881311360449
-2.55751383519964E-05,1.18909283628454E-05,4.21875,0,0.00862881311360449
-2.39075652643805E-05,1.23270147014409E-05,4.21875,0,0.00862881311360449
-2.51988640229683E-05,1.23381623780006E-05,4.21875,0,0.00862881311360449
-2.49042077484773E-05,1.05152757896576E-05,4.21875,0,0.00862881311360449
-2.63748606812442E-05,9.92130753729725E-06,4.21875,0,0.00862881311360449
-2.55647119047353E-05,9.74257363850484E-06,4.21875,0,0.00862881311360449
-2.46847030211939E-05,1.1496750630613E-05,4.21875,0,0.00862881311360449
-2.24451414396754E-05,1.26871536849649E-05,4.21875,0,0.00862881311360449
-2.33662340178853E-05,1.26095883388189E-05,4.21875,0,0.00862881311360449
-2.42652968154289E-05,1.05455465018167E-05,4.21875,0,0.00862881311360449
-2.60502056335099E-05,9.20249567570863E-06,4.21875,0,0.00862881311360449
-2.67174764303491E-05,8.3089526015101E-06,4.21875,0,0.00862881311360449
-2.55794166150736E-05,7.69288726587547E-06,4.21875,0,0.00862881311360449
-1.83929078048095E-05,5.85995348956203E-06,4.21875,0,0.00862881311360449
-2.54559909080854E-05,7.52654796087882E-06,4.21875,0,0.00862881311360449
-1.84595573955448E-05,5.96156814935966E-06,4.21875,0,0.00862881311360449
-2.36375417443924E-05,8.48590298119234E-06,4.21875,0,0.00862881311360449
-2.11732040042989E-05,6.51638902127161E-06,4.21875,0,0.00862881311360449
-2.56151706707897E-05,7.46373825677438E-06,4.21875,0,0.00862881311360449
-2.44610637309961E-05,7.23347648090567E-06,4.21875,0,0.00862881311360449
-2.38164939219132E-05,8.07594460638938E-06,4.21875,0,0.00862881311360449
-2.08858091355069E-05,8.81476535141701E-06,4.21875,0,0.00862881311360449
-2.02528171939775E-05,8.66075515659759E-06,4.21875,0,0.00862881311360449
-2.12202794500627E-05,7.66682842368027E-06,4.21875,0,0.00862881311360449
-2.2313222871162E-05,7.6532996899914E-06,4.21875,0,0.00862881311360449
-2.50073571805842E-05,1.05555709524197E-05,4.21875,0,0.00862881311360449
-2.548321026552E-05,1.33249504870037E-05,4.21875,0,0.00862881311360449
-2.65890375885647E-05,1.43452380143572E-05,4.21875,0,0.00862881311360449
-2.50719785981346E-05,1.23993013403378E-05,4.21875,0,0.00862881311360449
-2.5498589820927E-05,1.07859223135165E-05,4.21875,0,0.00862881311360449
-2.37789281527512E-05,9.54574716161005E-06,4.21875,0,0.00862881311360449
-2.43770464294357E-05,1.15815064418712E-05,4.21875,0,0.00862881311360449
-2.37807689700276E-05,1.45059584610863E-05,4.21875,0,0.00862881311360449
-2.35637398873223E-05,1.63928270922042E-05,4.21875,0,0.00862881311360449
-2.09877634915756E-05,1.56518563017016E-05,4.21875,0,0.00862881311360449
-2.02835963136749E-05,1.40884931170149E-05,4.21875,0,0.00862881311360449
-2.05550004466204E-05,1.1870414709847E-05,4.21875,0,0.00862881311360449
-2.18652676267084E-05,1.03324473457178E-05,4.21875,0,0.00862881311360449
-2.23454553633928E-05,1.02341573438025E-05,4.21875,0,0.00862881311360449
-2.31613375945017E-05,1.11236595330411E-05,4.21875,0,0.00862881311360449
-1.92011939361691E-05,9.38800803851336E-06,4.21875,0,0.00862881311360449
-2.75445981969824E-05,1.03316906461259E-05,4.21875,0,0.00862881311360449
-2.05485994229093E-05,1.86237127763889E-06,4.21875,0,0.00862881311360449
-2.60890356003074E-05,4.83222447655862E-06,4.21875,0,0.00862881311360449
-2.44382335949922E-05,8.09143330116058E-06,4.21875,0,0.00862881311360449
-2.81702887150459E-05,1.19444403026137E-05,4.21875,0,0.00862881311360449
-2.5919429390342E-05,9.75144030235242E-06,4.21875,0,0.00862881311360449
-2.68072417384246E-05,8.59143619891256E-06,4.21875,0,0.00862881311360449
-2.59465305134654E-05,8.09419361758046E-06,4.21875,0,0.00862881311360449
-2.42604983213823E-05,9.39253095566528E-06,4.21875,0,0.00862881311360449
-2.31850117415888E-05,1.10889786810731E-05,4.21875,0,0.00862881311360449
-2.26457832468441E-05,1.14018357635359E-05,4.21875,0,0.00862881311360449
-2.42140322370688E-05,1.18038460641401E-05,4.21875,0,0.00862881311360449
-2.43595095525961E-05,1.16168148451834E-05,4.21875,0,0.00862881311360449
-2.63245547102997E-05,1.25706364997313E-05,4.21875,0,0.00862881311360449
-2.54830520134419E-05,1.22245592137915E-05,4.21875,0,0.00862881311360449
-2.52555146289524E-05,1.33871935759089E-05,4.21875,0,0.00862881311360449
-2.28038770728745E-05,1.40082629513927E-05,4.21875,0,0.00862881311360449
-2.30488640227122E-05,1.40147940328461E-05,4.21875,0,0.00862881311360449
-2.25099465751555E-05,1.17160234367475E-05,4.21875,0,0.00862881311360449
-2.30282621487277E-05,1.1766131137847E-05,4.21875,0,0.00862881311360449
-2.2301963326754E-05,1.34084884848562E-05,4.21875,0,0.00862881311360449
-2.25881594815291E-05,1.54399422171991E-05,4.21875,0,0.00862881311360449
-2.22353064600611E-05,1.46983857121086E-05,4.21875,0,0.00862881311360449
-2.31545836868463E-05,1.28897027025232E-05,4.21875,0,0.00862881311360449
-2.30536461458541E-05,1.13749310912681E-05,4.21875,0,0.00862881311360449
-2.29063552978914E-05,1.05291919680894E-05,4.21875,0,0.00862881311360449
-1.90697955986252E-05,8.0319887274527E-06,4.21875,0,0.00862881311360449
-2.70827258646023E-05,9.83970494417008E-06,4.21875,0,0.00862881311360449
-2.14171523111872E-05,5.90526815358317E-06,4.21875,0,0.00862881311360449
-2.74313824775163E-05,7.54989059714717E-06,4.21875,0,0.00862881311360449
-2.31254834943684E-05,5.19037303092773E-06,4.21875,0,0.00862881311360449
-2.49116219492862E-05,5.00348323839717E-06,4.21875,0,0.00862881311360449
-2.29372944886563E-05,1.18764330636623E-06,4.21875,0,0.00862881311360449
-2.50020457315259E-05,3.68187966159894E-06,4.21875,0,0.00862881311360449
-2.4810364266159E-05,8.48175204737345E-06,4.21875,0,0.00862881311360449
-2.41808629652951E-05,9.95167010842124E-06,4.21875,0,0.00862881311360449
-2.29508405027445E-05,8.83524990058504E-06,4.21875,0,0.00862881311360449
-1.99434398382436E-05,8.88387967279414E-06,4.21875,0,0.00862881311360449
-2.01019647647627E-05,1.11145745904651E-05,4.21875,0,0.00862881311360449
-2.13209259527503E-05,1.17617082651122E-05,4.21875,0,0.00862881311360449
-2.46161325776484E-05,1.16622295536217E-05,4.21875,0,0.00862881311360449
-2.38935917877825E-05,1.03329603007296E-05,4.21875,0,0.00862881311360449
-2.35464358411264E-05,1.11479866973241E-05,4.21875,0,0.00862881311360449
-2.04865409614285E-05,1.17081808639341E-05,4.21875,0,0.00862881311360449
-1.95270513358992E-05,1.38671530294232E-05,4.21875,0,0.00862881311360449
-1.837378476921E-05,1.65467154147336E-05,4.21875,0,0.00862881311360449
-1.98086017917376E-05,2.12961804209044E-05,4.21875,0,0.00862881311360449
-2.00049707927974E-05,2.44309339905158E-05,4.21875,0,0.00862881311360449
-2.08427209145157E-05,2.41904035647167E-05,4.21875,0,0.00862881311360449
-2.11258120543789E-05,1.99776095541893E-05,4.21875,0,0.00862881311360449
-2.208246041846E-05,1.55392535816645E-05,4.21875,0,0.00862881311360449
-2.19742196350126E-05,1.32682462208322E-05,4.21875,0,0.00862881311360449
-2.225092430308E-05,1.39729754664586E-05,4.21875,0,0.00862881311360449
-1.81229115696624E-05,1.13011246867245E-05,4.21875,0,0.00862881311360449
-2.61175700870808E-05,1.44824380186037E-05,4.21875,0,0.00862881311360449
-2.10878570214845E-05,1.00793540696031E-05,4.21875,0,0.00862881311360449
-2.72673696599668E-05,1.3990671504871E-05,4.21875,0,0.00862881311360449
-2.46412982960464E-05,1.19579472084297E-05,4.21875,0,0.00862881311360449
-2.67888990492793E-05,1.49939141920186E-05,4.21875,0,0.00862881311360449
-2.4004573788261E-05,1.33105941131362E-05,4.21875,0,0.00862881311360449
-2.44089605985209E-05,1.31892838908243E-05,4.21875,0,0.00862881311360449
-2.34677809203276E-05,1.31123397295596E-05,4.21875,0,0.00862881311360449
-2.38270822592312E-05,1.26140321299317E-05,4.21875,0,0.00862881311360449
-2.38640477618901E-05,1.10330929601332E-05,4.21875,0,0.00862881311360449
-2.24980722123291E-05,7.3229607551184E-06,4.21875,0,0.00862881311360449
-2.3348455215455E-05,5.36990773980506E-06,4.21875,0,0.00862881311360449
-2.37617932725698E-05,4.99167117595789E-06,4.21875,0,0.00862881311360449
-2.58225263678469E-05,7.67581241234438E-06,4.21875,0,0.00862881311360449
-2.49121585511602E-05,9.55452742346097E-06,4.21875,0,0.00862881311360449
-2.47120788117172E-05,1.24425723697641E-05,4.21875,0,0.00862881311360449
-2.24840059672715E-05,1.2130762115703E-05,4.21875,0,0.00862881311360449
-2.29486122407252E-05,1.03613401734037E-05,4.21875,0,0.00862881311360449
-2.25572566705523E-05,7.34075911168475E-06,4.21875,0,0.00862881311360449
-2.36836876865709E-05,7.68354402680416E-06,4.21875,0,0.00862881311360449
-2.44515667873202E-05,7.74807358538965E-06,4.21875,0,0.00862881311360449
-2.68970252363943E-05,7.49666605770472E-06,4.21875,0,0.00862881311360449
-2.70104865194298E-05,6.44413421468926E-06,4.21875,0,0.00862881311360449
-2.59056487266207E-05,5.50357253814582E-06,4.21875,0,0.00862881311360449
-2.47088137257379E-05,7.01464659869089E-06,4.21875,0,0.00862881311360449
-2.60895303654252E-05,9.88856299954932E-06,4.21875,0,0.00862881311360449
-2.26053507503821E-05,7.08750303601846E-06,4.39453125,0,0.00862881311360449
-3.08018061332405E-05,7.16256636223989E-06,4.39453125,0,0.00862881311360449
-2.10640555451391E-05,2.84404359263135E-06,4.39453125,0,0.00862881311360449
-2.68257172137965E-05,7.48835145714111E-06,4.39453125,0,0.00862881311360449
-2.3988450266188E-05,7.89165915193735E-06,4.39453125,0,0.00862881311360449
-2.89374784188112E-05,9.50004414335126E-06,4.39453125,0,0.00862881311360449
-2.62228422798216E-05,8.01535497885197E-06,4.39453125,0,0.00862881311360449
-2.63865786109818E-05,7.96550102677429E-06,4.39453125,0,0.00862881311360449
-2.50519497058121E-05,9.44530529523036E-06,4.39453125,0,0.00862881311360449
-2.50795455940533E-05,1.24385696835816E-05,4.39453125,0,0.00862881311360449
-2.51478704740293E-05,1.45307913044235E-05,4.39453125,0,0.00862881311360449
-2.32881593547063E-05,1.33730436573387E-05,4.39453125,0,0.00862881311360449
-2.36436408158625E-05,1.15961875053472E-05,4.39453125,0,0.00862881311360449
-2.25965468416689E-05,9.84986945695709E-06,4.39453125,0,0.00862881311360449
-2.40604385908227E-05,1.03817765193526E-05,4.39453125,0,0.00862881311360449
-2.24690666073002E-05,1.10018108898657E-05,4.39453125,0,0.00862881311360449
-2.3166960090748E-05,1.18067846415215E-05,4.39453125,0,0.00862881311360449
-2.1971080059302E-05,1.14746353574446E-05,4.39453125,0,0.00862881311360449
-2.36351843341254E-05,1.18554844448227E-05,4.39453125,0,0.00862881311360449
-2.37024432863109E-05,1.08331450974219E-05,4.39453125,0,0.00862881311360449
-2.61668265011394E-05,1.01823779914412E-05,4.39453125,0,0.00862881311360449
-2.64869668171741E-05,8.36413710203487E-06,4.39453125,0,0.00862881311360449
-2.58507952821674E-05,6.66228061163565E-06,4.39453125,0,0.00862881311360449
-2.42915011767764E-05,6.86118846715544E-06,4.39453125,0,0.00862881311360449
-2.48674277827377E-05,8.55962025525514E-06,4.39453125,0,0.00862881311360449
-2.53206453635357E-05,9.26901884668041E-06,4.39453125,0,0.00862881311360449
-2.51672518061241E-05,1.02266185422195E-05,4.39453125,0,0.00862881311360449
-2.11228907573968E-05,1.00793058663839E-05,4.39453125,0,0.00862881311360449
-3.08947746816557E-05,1.52350667121937E-05,4.39453125,0,0.00862881311360449
-2.3584743757965E-05,1.14974527605227E-05,4.39453125,0,0.00862881311360449
-2.70831496891333E-05,1.1308460670989E-05,4.39453125,0,0.00862881311360449
-2.17921660805587E-05,6.58376939099981E-06,4.39453125,0,0.00862881311360449
-2.41009947785642E-05,7.60354987505707E-06,4.39453125,0,0.00862881311360449
-2.13880830415292E-05,8.02170779934386E-06,4.39453125,0,0.00862881311360449
-2.25184030568926E-05,9.72310135693988E-06,4.39453125,0,0.00862881311360449
-2.21222326217685E-05,1.07680543806055E-05,4.39453125,0,0.00862881311360449
-2.19622106669704E-05,1.12906709546223E-05,4.39453125,0,0.00862881311360449
-2.14639476325829E-05,1.19705982797313E-05,4.39453125,0,0.00862881311360449
-2.07224456971744E-05,1.25804654089734E-05,4.39453125,0,0.00862881311360449
-2.28418884944404E-05,1.30163571157027E-05,4.39453125,0,0.00862881311360449
-2.31071262533078E-05,1.13113846964552E-05,4.39453125,0,0.00862881311360449
-2.51585042860825E-05,1.02433268693858E-05,4.39453125,0,0.00862881311360449
-2.41959769482492E-05,8.96656820259523E-06,4.39453125,0,0.00862881311360449
-2.49084805545863E-05,9.65415983955609E-06,4.39453125,0,0.00862881311360449
-2.41160778386984E-05,9.37220465857536E-06,4.39453125,0,0.00862881311360449
-2.60720607911935E-05,1.00170755104045E-05,4.39453125,0,0.00862881311360449
-2.60356409853557E-05,1.11557101263315E-05,4.39453125,0,0.00862881311360449
-2.62060002569342E-05,1.4219689546735E-05,4.39453125,0,0.00862881311360449
-2.32903057622025E-05,1.54664576257346E-05,4.39453125,0,0.00862881311360449
-2.14289284485858E-05,1.45055028042407E-05,4.39453125,0,0.00862881311360449
-2.07948778552236E-05,1.25390752145904E-05,4.39453125,0,0.00862881311360449
-2.23970600927714E-05,1.15922994154971E-05,4.39453125,0,0.00862881311360449
-2.38477441598661E-05,1.2532873370219E-05,4.39453125,0,0.00862881311360449
-2.39327127928846E-05,1.49987326949486E-05,4.39453125,0,0.00862881311360449
-1.8805505533237E-05,1.27875864563975E-05,4.39453125,0,0.00862881311360449
-2.70831624220591E-05,1.71486426552292E-05,4.39453125,0,0.00862881311360449
-2.14477095141774E-05,1.01757523225388E-05,4.39453125,0,0.00862881311360449
-2.6524072382017E-05,1.06748921098188E-05,4.39453125,0,0.00862881311360449
-2.2824347979622E-05,7.74235832068371E-06,4.39453125,0,0.00862881311360449
-2.52325298788492E-05,1.25613114505541E-05,4.39453125,0,0.00862881311360449
-2.20521524170181E-05,1.29209529404761E-05,4.39453125,0,0.00862881311360449
-2.2486014131573E-05,1.38278501253808E-05,4.39453125,0,0.00862881311360449
-2.32090496865567E-05,1.20946060633287E-05,4.39453125,0,0.00862881311360449
-2.50980792770861E-05,9.41716007218929E-06,4.39453125,0,0.00862881311360449
-2.51151104748715E-05,7.96885342424503E-06,4.39453125,0,0.00862881311360449
-2.29031029448379E-05,6.93391621098272E-06,4.39453125,0,0.00862881311360449
-2.30622517847223E-05,7.772366188874E-06,4.39453125,0,0.00862881311360449
-2.27880464080954E-05,7.79557558416855E-06,4.39453125,0,0.00862881311360449
-2.39142154896399E-05,9.0080056907027E-06,4.39453125,0,0.00862881311360449
-2.23143924813485E-05,7.37384061721968E-06,4.39453125,0,0.00862881311360449
-2.3442098608939E-05,6.06122375756968E-06,4.39453125,0,0.00862881311360449
-2.3547867385787E-05,4.44957140643965E-06,4.39453125,0,0.00862881311360449
-2.46506497205701E-05,5.64468928132555E-06,4.39453125,0,0.00862881311360449
-2.21738500840729E-05,6.31961120234337E-06,4.39453125,0,0.00862881311360449
-2.08919827855425E-05,8.52606990520144E-06,4.39453125,0,0.00862881311360449
-1.9757600966841E-05,9.51391120906919E-06,4.39453125,0,0.00862881311360449
-2.12522882065969E-05,1.00981187642901E-05,4.39453125,0,0.00862881311360449
-2.21638747461839E-05,9.89560703601455E-06,4.39453125,0,0.00862881311360449
-2.28382814384531E-05,9.93652793113142E-06,4.39453125,0,0.00862881311360449
-2.35127772612032E-05,1.0372900760558E-05,4.39453125,0,0.00862881311360449
-2.41959969571326E-05,1.05591061583254E-05,4.39453125,0,0.00862881311360449
-2.00275644601788E-05,7.63352363719605E-06,4.39453125,0,0.00862881311360449
-2.83000099443598E-05,1.01712603282067E-05,4.39453125,0,0.00862881311360449
-2.08733181352727E-05,9.21013179322472E-06,4.39453125,0,0.00862881311360449
-2.53915641224012E-05,1.32051372929709E-05,4.39453125,0,0.00862881311360449
-2.12786271731602E-05,1.07222376755089E-05,4.39453125,0,0.00862881311360449
-2.51007586484775E-05,1.09593229353777E-05,4.39453125,0,0.00862881311360449
-2.49388667725725E-05,9.12484028958716E-06,4.39453125,0,0.00862881311360449
-2.76611626759404E-05,9.51322272157995E-06,4.39453125,0,0.00862881311360449
-2.77696690318407E-05,1.14720378405764E-05,4.39453125,0,0.00862881311360449
-2.76731698249932E-05,1.3948866580904E-05,4.39453125,0,0.00862881311360449
-2.75926613539923E-05,1.24968619275023E-05,4.39453125,0,0.00862881311360449
-2.72197594313184E-05,9.06265358935343E-06,4.39453125,0,0.00862881311360449
-2.90376901830314E-05,7.6487358455779E-06,4.39453125,0,0.00862881311360449
-2.88925093627768E-05,7.27587030269206E-06,4.39453125,0,0.00862881311360449
-2.99232815450523E-05,9.94591027847491E-06,4.39453125,0,0.00862881311360449
-2.81053216895089E-05,1.14868789751199E-05,4.39453125,0,0.00862881311360449
-2.85614314634586E-05,1.16025785246165E-05,4.39453125,0,0.00862881311360449
-2.70248037850251E-05,9.63643378781853E-06,4.39453125,0,0.00862881311360449
-2.73525038210209E-05,9.26975826587295E-06,4.39453125,0,0.00862881311360449
-2.61119821516331E-05,8.25578626972856E-06,4.39453125,0,0.00862881311360449
-2.68893454631325E-05,8.3878494478995E-06,4.39453125,0,0.00862881311360449
-2.71201151917921E-05,9.62022022577003E-06,4.39453125,0,0.00862881311360449
-2.81831544270972E-05,1.23194104162394E-05,4.39453125,0,0.00862881311360449
-2.73955211014254E-05,1.32167342599132E-05,4.39453125,0,0.00862881311360449
-2.61383138422389E-05,1.34323854581453E-05,4.39453125,0,0.00862881311360449
-2.4377390218433E-05,1.47103528433945E-05,4.39453125,0,0.00862881311360449
-2.38125630858121E-05,1.53995370055782E-05,4.39453125,0,0.00862881311360449
-1.93473570107017E-05,1.21208886412205E-05,4.39453125,0,0.00862881311360449
-2.73332225333434E-05,1.72186701092869E-05,4.39453125,0,0.00862881311360449
-2.02604896912817E-05,1.36371590997442E-05,4.39453125,0,0.00862881311360449
-2.47866173594957E-05,1.69671839103103E-05,4.39453125,0,0.00862881311360449
-2.0949077224941E-05,1.42026292451192E-05,4.39453125,0,0.00862881311360449
-2.29601246246602E-05,1.68360929819755E-05,4.39453125,0,0.00862881311360449
-2.02090741368011E-05,1.55070774781052E-05,4.39453125,0,0.00862881311360449
-2.19885132537456E-05,1.39349049277371E-05,4.39453125,0,0.00862881311360449
-2.13790572161088E-05,1.19227934192168E-05,4.39453125,0,0.00862881311360449
-2.05821579584153E-05,1.16415831143968E-05,4.39453125,0,0.00862881311360449
-2.01045841095038E-05,1.1535542398633E-05,4.39453125,0,0.00862881311360449
-1.97573317564093E-05,1.07000178104499E-05,4.39453125,0,0.00862881311360449
-2.21775280806469E-05,1.06197376226191E-05,4.39453125,0,0.00862881311360449
-2.31126505241264E-05,9.54546703724191E-06,4.39453125,0,0.00862881311360449
-2.55601389653748E-05,1.02354497357737E-05,4.39453125,0,0.00862881311360449
-2.53453399636783E-05,1.05901190181612E-05,4.39453125,0,0.00862881311360449
-2.64413265540497E-05,1.22113842735416E-05,4.39453125,0,0.00862881311360449
-2.49953263846692E-05,1.13330515887355E-05,4.39453125,0,0.00862881311360449
-2.53981615969678E-05,1.05476110547897E-05,4.39453125,0,0.00862881311360449
-2.45638530032011E-05,7.52968662709463E-06,4.39453125,0,0.00862881311360449
-2.6043593607028E-05,5.53011886950117E-06,4.39453125,0,0.00862881311360449
-2.50864213739987E-05,5.3029075388622E-06,4.39453125,0,0.00862881311360449
-2.34150320466142E-05,8.31822035252117E-06,4.39453125,0,0.00862881311360449
-2.12339818972396E-05,1.03316260720021E-05,4.39453125,0,0.00862881311360449
-2.11208825930953E-05,1.03087841125671E-05,4.39453125,0,0.00862881311360449
-2.18363875319483E-05,9.00547547644237E-06,4.39453125,0,0.00862881311360449
-2.2068212274462E-05,9.37575259740697E-06,4.39453125,0,0.00862881311360449
-1.88113572221482E-05,8.59273222886259E-06,4.39453125,0,0.00862881311360449
-2.83905228570802E-05,1.21755210784613E-05,4.39453125,0,0.00862881311360449
-2.36185624089558E-05,8.8016295194393E-06,4.39453125,0,0.00862881311360449
-2.75389647867996E-05,9.09482605493395E-06,4.39453125,0,0.00862881311360449
-2.2134887331049E-05,5.70068095839815E-06,4.39453125,0,0.00862881311360449
-2.40229455812369E-05,9.08045240066713E-06,4.39453125,0,0.00862881311360449
-2.30036330322037E-05,1.02276526376954E-05,4.39453125,0,0.00862881311360449
-2.33963164646411E-05,8.97011886991095E-06,4.39453125,0,0.00862881311360449
-2.11113347177161E-05,7.69226971897297E-06,4.39453125,0,0.00862881311360449
-2.05828619073145E-05,8.89719376573339E-06,4.39453125,0,0.00862881311360449
-2.07819957722677E-05,1.01542991615133E-05,4.39453125,0,0.00862881311360449
-1.98088982870104E-05,9.46888485486852E-06,4.39453125,0,0.00862881311360449
-2.04507541639032E-05,8.98608141142176E-06,4.39453125,0,0.00862881311360449
-2.00539525394561E-05,8.42563622427406E-06,4.39453125,0,0.00862881311360449
-2.14980464079417E-05,1.06297848105896E-05,4.39453125,0,0.00862881311360449
-2.0935536667821E-05,1.26377972264891E-05,4.39453125,0,0.00862881311360449
-2.1624253349728E-05,1.44578061735956E-05,4.39453125,0,0.00862881311360449
-1.93184059753548E-05,1.4351676327351E-05,4.39453125,0,0.00862881311360449
-1.95206648641033E-05,1.4211736015568E-05,4.39453125,0,0.00862881311360449
-2.0453529941733E-05,1.28379597299499E-05,4.39453125,0,0.00862881311360449
-2.3219274225994E-05,1.34113315652939E-05,4.39453125,0,0.00862881311360449
-2.2934660592E-05,1.55916586663807E-05,4.39453125,0,0.00862881311360449
-2.29641300393268E-05,1.74806646100478E-05,4.39453125,0,0.00862881311360449
-2.26909651246388E-05,1.77211932168575E-05,4.39453125,0,0.00862881311360449
-2.36204741668189E-05,1.60682266141521E-05,4.39453125,0,0.00862881311360449
-2.41614870901685E-05,1.30459047795739E-05,4.39453125,0,0.00862881311360449
-2.3546168449684E-05,1.23531053759507E-05,4.39453125,0,0.00862881311360449
-1.81100531335687E-05,1.06249817690696E-05,4.39453125,0,0.00862881311360449
-2.59992229985073E-05,1.50885980474413E-05,4.39453125,0,0.00862881311360449
-2.07573430088814E-05,9.73800342762843E-06,4.39453125,0,0.00862881311360449
-2.66987117356621E-05,1.03375004982809E-05,4.39453125,0,0.00862881311360449
-2.41557590925368E-05,8.23869595478754E-06,4.39453125,0,0.00862881311360449
-2.74152935162419E-05,9.67631603998598E-06,4.39453125,0,0.00862881311360449
-2.56036219070666E-05,7.99814915808383E-06,4.39453125,0,0.00862881311360449
-2.63711754087126E-05,8.45456361275865E-06,4.39453125,0,0.00862881311360449
-2.38459961110493E-05,7.94892457633978E-06,4.39453125,0,0.00862881311360449
-2.14807732845657E-05,6.74552302371012E-06,4.39453125,0,0.00862881311360449
-2.15533400478307E-05,6.19458842265885E-06,4.39453125,0,0.00862881311360449
-2.2330270439852E-05,7.29975545255002E-06,4.39453125,0,0.00862881311360449
-2.35933002841193E-05,9.00888426258462E-06,4.39453125,0,0.00862881311360449
-2.20321198867168E-05,8.52619905344909E-06,4.39453125,0,0.00862881311360449
-2.21301143028541E-05,8.8706792666926E-06,4.39453125,0,0.00862881311360449
-2.12460981856566E-05,9.75277998804813E-06,4.39453125,0,0.00862881311360449
-2.33184018725296E-05,1.30899352370761E-05,4.39453125,0,0.00862881311360449
-2.30931564146886E-05,1.39011062856298E-05,4.39453125,0,0.00862881311360449
-2.41434645431582E-05,1.30192984215682E-05,4.39453125,0,0.00862881311360449
-2.45471001107944E-05,1.08156737042009E-05,4.39453125,0,0.00862881311360449
-2.6145855372306E-05,1.09886104837642E-05,4.39453125,0,0.00862881311360449
-2.44459006353281E-05,1.13450487333466E-05,4.39453125,0,0.00862881311360449
-2.39781402342487E-05,1.08992126115481E-05,4.39453125,0,0.00862881311360449
-2.37176172959153E-05,8.80002608028008E-06,4.39453125,0,0.00862881311360449
-2.36195810430218E-05,7.98708060756326E-06,4.39453125,0,0.00862881311360449
-2.25366802624194E-05,7.82102233642945E-06,4.39453125,0,0.00862881311360449
-2.27121799980523E-05,7.7698005043203E-06,4.39453125,0,0.00862881311360449
-1.97410918190144E-05,6.82944346408476E-06,4.39453125,0,0.00862881311360449
-2.8585647669388E-05,1.00472161648213E-05,4.39453125,0,0.00862881311360449
-2.21497684833594E-05,6.19875891061383E-06,4.39453125,0,0.00862881311360449
-2.80685108009493E-05,4.53549546364229E-06,4.39453125,0,0.00862881311360449
-2.52512163569918E-05,2.86726185549924E-06,4.39453125,0,0.00862881311360449
-2.79479772871127E-05,5.89793216931866E-06,4.39453125,0,0.00862881311360449
-2.51668698183494E-05,7.8692173701711E-06,4.39453125,0,0.00862881311360449
-2.59662283497164E-05,1.10531964310212E-05,4.39453125,0,0.00862881311360449
-2.57875635725213E-05,1.32936402224004E-05,4.39453125,0,0.00862881311360449
-2.57364881690592E-05,1.44781224662438E-05,4.39453125,0,0.00862881311360449
-2.56654402619461E-05,1.35384079840151E-05,4.39453125,0,0.00862881311360449
-2.45611336140428E-05,1.21817001854652E-05,4.39453125,0,0.00862881311360449
-2.54223232332151E-05,1.27337525555049E-05,4.39453125,0,0.00862881311360449
-2.49938766501145E-05,1.30194530356675E-05,4.39453125,0,0.00862881311360449
-2.59288299275795E-05,1.35818654598552E-05,4.39453125,0,0.00862881311360449
-2.39078690356109E-05,1.24993812278262E-05,4.39453125,0,0.00862881311360449
-2.35932348005008E-05,1.20099275591201E-05,4.39453125,0,0.00862881311360449
-2.18824206967838E-05,1.171754047391E-05,4.39453125,0,0.00862881311360449
-2.22506678255741E-05,1.30846365209436E-05,4.39453125,0,0.00862881311360449
-2.10607468034141E-05,1.41539394462598E-05,4.39453125,0,0.00862881311360449
-2.22624421439832E-05,1.52093134602183E-05,4.39453125,0,0.00862881311360449
-2.32625079661375E-05,1.50237865454983E-05,4.39453125,0,0.00862881311360449
-2.5288467440987E-05,1.44030045703403E-05,4.39453125,0,0.00862881311360449
-2.59186981566017E-05,1.42630005939282E-05,4.39453125,0,0.00862881311360449
-2.568747731857E-05,1.63392578542698E-05,4.39453125,0,0.00862881311360449
-2.36458672588924E-05,1.91874478332466E-05,4.39453125,0,0.00862881311360449
-2.25930762098869E-05,1.95341708604246E-05,4.39453125,0,0.00862881311360449
-1.86621400644071E-05,1.44197447298211E-05,4.39453125,0,0.00862881311360449
-2.65013786702184E-05,1.94724125321954E-05,4.39453125,0,0.00862881311360449
-2.07223893085029E-05,1.33360954350792E-05,4.39453125,0,0.00862881311360449
-2.66241531790001E-05,1.62902397278231E-05,4.39453125,0,0.00862881311360449
-2.33559076150414E-05,1.2636501196539E-05,4.39453125,0,0.00862881311360449
-2.54669466812629E-05,1.53434866660973E-05,4.39453125,0,0.00862881311360449
-2.2120544599602E-05,1.31731767396559E-05,4.39453125,0,0.00862881311360449
-2.16592397919158E-05,1.24667376439902E-05,4.39453125,0,0.00862881311360449
-2.06413078558398E-05,1.05828603409464E-05,4.39453125,0,0.00862881311360449
-2.10591933864634E-05,8.9536797531764E-06,4.39453125,0,0.00862881311360449
-2.16919761442114E-05,6.83871303408523E-06,4.39453125,0,0.00862881311360449
-2.23965653276537E-05,4.86457656734274E-06,4.39453125,0,0.00862881311360449
-2.48607884714147E-05,6.12395888310857E-06,4.39453125,0,0.00862881311360449
-2.4997101718327E-05,6.03278522248729E-06,4.39453125,0,0.00862881311360449
-2.71168592007598E-05,6.96961342327995E-06,4.39453125,0,0.00862881311360449
-2.78778916253941E-05,6.00834073338774E-06,4.39453125,0,0.00862881311360449
-2.91041560558369E-05,6.95274593454087E-06,4.39453125,0,0.00862881311360449
-2.6363983124611E-05,7.09604182702606E-06,4.39453125,0,0.00862881311360449
-2.60133783740457E-05,8.81129835761385E-06,4.39453125,0,0.00862881311360449
-2.56222883763257E-05,8.88538397703087E-06,4.39453125,0,0.00862881311360449
-2.6865611289395E-05,9.44782095757546E-06,4.39453125,0,0.00862881311360449
-2.67771865765098E-05,8.91399395186454E-06,4.39453125,0,0.00862881311360449
-2.77792587439762E-05,1.00836996352882E-05,4.39453125,0,0.00862881311360449
-2.65093440248165E-05,9.85844417300541E-06,4.39453125,0,0.00862881311360449
-2.45171522692544E-05,8.32171735964948E-06,4.39453125,0,0.00862881311360449
-2.24953546421602E-05,6.98489020578563E-06,4.39453125,0,0.00862881311360449
-2.19962257688167E-05,7.50990375308902E-06,4.39453125,0,0.00862881311360449
-1.88097419595579E-05,6.55822896078462E-06,4.39453125,0,0.00862881311360449
-2.81294596788939E-05,9.66144762060139E-06,4.39453125,0,0.00862881311360449
-2.17160613829037E-05,7.41907797419117E-06,4.39453125,0,0.00862881311360449
-2.5100071070483E-05,8.3801569417119E-06,4.39453125,0,0.00862881311360449
-2.2230640752241E-05,7.47024569136556E-06,4.39453125,0,0.00862881311360449
-2.62485573330196E-05,8.90302817424526E-06,5.09765625,0,0.00862881311360449
-2.63543133769417E-05,7.53884114601533E-06,5.09765625,0,0.00862881311360449
-2.79569048871053E-05,8.16656120150583E-06,5.09765625,0,0.00862881311360449
-2.6276393327862E-05,9.59800036071101E-06,5.09765625,0,0.00862881311360449
-2.47704720095498E-05,1.1479230124678E-05,5.09765625,0,0.00862881311360449
-2.41626512433868E-05,1.33627972900285E-05,5.09765625,0,0.00862881311360449
-2.35509087360697E-05,1.24729203889729E-05,5.09765625,0,0.00862881311360449
-2.41197230934631E-05,9.96064682112774E-06,5.09765625,0,0.00862881311360449
-2.43184549617581E-05,7.66253651818261E-06,5.09765625,0,0.00862881311360449
-2.67224259005161E-05,8.47140927362489E-06,5.09765625,0,0.00862881311360449
-2.58531708823284E-05,9.4060324045131E-06,5.09765625,0,0.00862881311360449
-2.55657087109284E-05,9.59616863838164E-06,5.09765625,0,0.00862881311360449
-2.28031149163144E-05,7.77989407652058E-06,5.09765625,0,0.00862881311360449
-2.21799382416066E-05,7.81520247983281E-06,5.09765625,0,0.00862881311360449
-2.15900818147929E-05,8.29811688163318E-06,5.09765625,0,0.00862881311360449
-2.30227506108349E-05,8.71812335390132E-06,5.09765625,0,0.00862881311360449
-2.27248056035023E-05,9.57271640800172E-06,5.09765625,0,0.00862881311360449
-2.29505731113022E-05,1.05488688859623E-05,5.09765625,0,0.00862881311360449
-2.11338920053095E-05,1.03709280665498E-05,5.09765625,0,0.00862881311360449
-1.94857839233009E-05,1.10947103166836E-05,5.09765625,0,0.00862881311360449
-1.90933242265601E-05,1.27623152366141E-05,5.09765625,0,0.00862881311360449
-2.00231334019918E-05,1.27454368339386E-05,5.09765625,0,0.00862881311360449
-1.7305417713942E-05,8.97906375030288E-06,5.09765625,0,0.00862881311360449
-2.42971909756307E-05,1.33064240799285E-05,5.09765625,0,0.00862881311360449
-1.84931432158919E-05,1.21331086120335E-05,5.09765625,0,0.00862881311360449
-2.33077498705825E-05,1.49351826621569E-05,5.09765625,0,0.00862881311360449
-1.94699550775113E-05,1.09879438241478E-05,5.09765625,0,0.00862881311360449
-2.2154481484904E-05,1.00502102213795E-05,5.09765625,0,0.00862881311360449
-2.03946729016025E-05,6.51206619295408E-06,5.09765625,0,0.00862881311360449
-2.01794973690994E-05,3.83412771043368E-06,5.09765625,0,0.00862881311360449
-1.92537227121647E-05,4.96791471960023E-07,5.09765625,0,0.00862881311360449
-1.96976088773226E-05,-2.7328295004736E-07,5.09765625,0,0.00862881311360449
-2.01949824258918E-05,9.86711484074476E-07,5.09765625,0,0.00862881311360449
-1.97233639482874E-05,3.65472192243033E-06,5.09765625,0,0.00862881311360449
-2.07794000743888E-05,7.93886010796996E-06,5.09765625,0,0.00862881311360449
-2.06155873456737E-05,1.12690158857731E-05,5.09765625,0,0.00862881311360449
-2.2510606868309E-05,1.44544465001673E-05,5.09765625,0,0.00862881311360449
-2.23529968934599E-05,1.37013412313536E-05,5.09765625,0,0.00862881311360449
-2.38914217334241E-05,1.19417427413282E-05,5.09765625,0,0.00862881311360449
-2.3642593077966E-05,9.91364868241362E-06,5.09765625,0,0.00862881311360449
-2.50948160100961E-05,1.11307026600116E-05,5.09765625,0,0.00862881311360449
-2.53204398177331E-05,1.36094704430434E-05,5.09765625,0,0.00862881311360449
-2.62135690718424E-05,1.53292767208768E-05,5.09765625,0,0.00862881311360449
-2.51713063335046E-05,1.30481803353177E-05,5.09765625,0,0.00862881311360449
-2.54680871876189E-05,1.19859287224244E-05,5.09765625,0,0.00862881311360449
-2.42377900576685E-05,1.23268700917833E-05,5.09765625,0,0.00862881311360449
-2.3099559257389E-05,1.21683906399994E-05,5.09765625,0,0.00862881311360449
-2.29748693527654E-05,1.21887796922238E-05,5.09765625,0,0.00862881311360449
-2.34208437177585E-05,1.43634415508131E-05,5.09765625,0,0.00862881311360449
-1.86542711162474E-05,1.22536312119337E-05,5.09765625,0,0.00862881311360449
-2.65105700236745E-05,1.50478672367171E-05,5.09765625,0,0.00862881311360449
-2.0585699530784E-05,7.43636837796657E-06,5.09765625,0,0.00862881311360449
-2.59603584709112E-05,9.02442843653262E-06,5.09765625,0,0.00862881311360449
-2.31456506298855E-05,5.22302570971078E-06,5.09765625,0,0.00862881311360449
-2.74615249509225E-05,6.20849777988042E-06,5.09765625,0,0.00862881311360449
-2.57518495345721E-05,5.83871496928623E-06,5.09765625,0,0.00862881311360449
-2.54082933679456E-05,9.00583017937606E-06,5.09765625,0,0.00862881311360449
-2.34429680858739E-05,9.4109600468073E-06,5.09765625,0,0.00862881311360449
-2.36621945077786E-05,8.853694453137E-06,5.09765625,0,0.00862881311360449
-2.44086440943647E-05,9.41482267080573E-06,5.09765625,0,0.00862881311360449
-2.38256270677084E-05,1.00085317171761E-05,5.09765625,0,0.00862881311360449
-2.42854894167976E-05,1.02617805168848E-05,5.09765625,0,0.00862881311360449
-2.36716314248042E-05,8.04594674264081E-06,5.09765625,0,0.00862881311360449
-2.58058062172495E-05,7.13592771717231E-06,5.09765625,0,0.00862881311360449
-2.56010753219016E-05,6.48253580948222E-06,5.09765625,0,0.00862881311360449
-2.69130905508064E-05,8.70639087224845E-06,5.09765625,0,0.00862881311360449
-2.60898323176662E-05,8.25604001875035E-06,5.09765625,0,0.00862881311360449
-2.68396997853415E-05,8.33041394798784E-06,5.09765625,0,0.00862881311360449
-2.49371296376921E-05,8.64336470840499E-06,5.09765625,0,0.00862881311360449
-2.39312430494465E-05,1.01095783975325E-05,5.09765625,0,0.00862881311360449
-2.21362752199639E-05,9.85805672826245E-06,5.09765625,0,0.00862881311360449
-2.24388077185722E-05,1.08028771137469E-05,5.09765625,0,0.00862881311360449
-2.20641268242616E-05,1.18004027171992E-05,5.09765625,0,0.00862881311360449
-2.19800604099873E-05,1.35079808387673E-05,5.09765625,0,0.00862881311360449
-2.13880721275928E-05,1.41265327329165E-05,5.09765625,0,0.00862881311360449
-2.09233676287113E-05,1.36043872771552E-05,5.09765625,0,0.00862881311360449
-1.75753757503117E-05,9.39837809710298E-06,5.09765625,0,0.00862881311360449
-2.44235488935374E-05,1.24296784633771E-05,5.09765625,0,0.00862881311360449
-1.75182813109132E-05,9.47410080698319E-06,5.09765625,0,0.00862881311360449
-2.18143159145257E-05,1.23192048704368E-05,5.09765625,0,0.00862881311360449
-1.86804572877008E-05,8.83686243469128E-06,5.09765625,0,0.00862881311360449
-2.31808080570772E-05,9.76376304606674E-06,5.09765625,0,0.00862881311360449
-2.34732760873158E-05,9.19040394364856E-06,5.09765625,0,0.00862881311360449
-2.45318205998046E-05,1.07961604953744E-05,5.09765625,0,0.00862881311360449
-2.32047786994372E-05,1.06566612885217E-05,5.09765625,0,0.00862881311360449
-2.26084648602409E-05,9.68372387433192E-06,5.09765625,0,0.00862881311360449
-2.32610545936041E-05,9.07725188881159E-06,5.09765625,0,0.00862881311360449
-2.36388368648477E-05,1.033664921124E-05,5.09765625,0,0.00862881311360449
-2.58607069554273E-05,1.3816266800859E-05,5.09765625,0,0.00862881311360449
-2.61715140368324E-05,1.48851459016441E-05,5.09765625,0,0.00862881311360449
-2.74950762104709E-05,1.55083307618042E-05,5.09765625,0,0.00862881311360449
-2.64348382188473E-05,1.48739927681163E-05,5.09765625,0,0.00862881311360449
-2.70363980234833E-05,1.51037729665404E-05,5.09765625,0,0.00862881311360449
-2.56911353062605E-05,1.32359209601418E-05,5.09765625,0,0.00862881311360449
-2.59775333688594E-05,1.21688635772443E-05,5.09765625,0,0.00862881311360449
-2.56310595432296E-05,1.09296652226476E-05,5.09765625,0,0.00862881311360449
-2.72181459877174E-05,1.22119836305501E-05,5.09765625,0,0.00862881311360449
-2.67489740508609E-05,1.41015952976886E-05,5.09765625,0,0.00862881311360449
-2.66897914116271E-05,1.49853804032318E-05,5.09765625,0,0.00862881311360449
-2.71059197984869E-05,1.32534296426456E-05,5.09765625,0,0.00862881311360449
-2.75045986199984E-05,1.23712725326186E-05,5.09765625,0,0.00862881311360449
-2.69077991106315E-05,1.30872567751794E-05,5.09765625,0,0.00862881311360449
-2.61814839177532E-05,1.30792077470687E-05,5.09765625,0,0.00862881311360449
-2.00192062038695E-05,1.07684863905888E-05,5.09765625,0,0.00862881311360449
-2.69945230684243E-05,1.59313622134505E-05,5.09765625,0,0.00862881311360449
-1.81949926627567E-05,1.27469302242389E-05,5.09765625,0,0.00862881311360449
-2.3987517124624E-05,1.54261797433719E-05,5.09765625,0,0.00862881311360449
-2.1105433916091E-05,1.35231375679723E-05,5.09765625,0,0.00862881311360449
-2.44254188146442E-05,1.3832363038091E-05,5.09765625,0,0.00862881311360449
-2.33179071074119E-05,1.09620859802817E-05,5.09765625,0,0.00862881311360449
-2.5817131245276E-05,1.15366901809466E-05,5.09765625,0,0.00862881311360449
-2.57298052019905E-05,1.17441159090959E-05,5.09765625,0,0.00862881311360449
-2.49280892603565E-05,1.10341306935879E-05,5.09765625,0,0.00862881311360449
-2.32607453654055E-05,9.89887757896213E-06,5.09765625,0,0.00862881311360449
-2.09214795177104E-05,8.86845828063088E-06,5.09765625,0,0.00862881311360449
-2.11413425859064E-05,9.29216275835643E-06,5.09765625,0,0.00862881311360449
-2.02310002350714E-05,8.24860853754217E-06,5.09765625,0,0.00862881311360449
-2.2349657228915E-05,6.6131115090684E-06,5.09765625,0,0.00862881311360449
-2.27919445023872E-05,3.76917591893289E-06,5.09765625,0,0.00862881311360449
-2.51706569542876E-05,4.51616824648227E-06,5.09765625,0,0.00862881311360449
-2.52344507316593E-05,6.51707341603469E-06,5.09765625,0,0.00862881311360449
-2.70670989266364E-05,9.15007331059314E-06,5.09765625,0,0.00862881311360449
-2.64758964476641E-05,9.05960405361839E-06,5.09765625,0,0.00862881311360449
-2.74653102678712E-05,9.87484236247838E-06,5.09765625,0,0.00862881311360449
-2.69993452093331E-05,1.16845822049072E-05,5.09765625,0,0.00862881311360449
-2.67952364083612E-05,1.40974780151737E-05,5.09765625,0,0.00862881311360449
-2.65077960648341E-05,1.38512468765839E-05,5.09765625,0,0.00862881311360449
-2.68268540821737E-05,1.21856110126828E-05,5.09765625,0,0.00862881311360449
-2.54406495514559E-05,1.1832946256618E-05,5.09765625,0,0.00862881311360449
-2.40336430579191E-05,1.35976033561747E-05,5.09765625,0,0.00862881311360449
-1.87971545528853E-05,1.11677227323526E-05,5.09765625,0,0.00862881311360449
-2.73551213467726E-05,1.49443349073408E-05,5.09765625,0,0.00862881311360449
-2.21998179767979E-05,1.07611349449144E-05,5.09765625,0,0.00862881311360449
-2.73988116532564E-05,1.38807627081405E-05,5.09765625,0,0.00862881311360449
-2.34006620303262E-05,1.14628383016679E-05,5.09765625,0,0.00862881311360449
-2.56166404142277E-05,1.38150617203792E-05,5.09765625,0,0.00862881311360449
-2.23784609261202E-05,1.25902515719645E-05,5.09765625,0,0.00862881311360449
-2.24251834879396E-05,1.15291422844166E-05,5.09765625,0,0.00862881311360449
-2.20551246457035E-05,9.24248524825089E-06,5.09765625,0,0.00862881311360449
-2.37557251239195E-05,9.79925152932992E-06,5.09765625,0,0.00862881311360449
-2.57035590038868E-05,1.16217570393928E-05,5.09765625,0,0.00862881311360449
-2.56047660514014E-05,1.20359936772729E-05,5.09765625,0,0.00862881311360449
-2.51157507591415E-05,1.19219102998613E-05,5.09765625,0,0.00862881311360449
-2.20965757762315E-05,9.88802457868587E-06,5.09765625,0,0.00862881311360449
-2.18520672206068E-05,9.38535504246829E-06,5.09765625,0,0.00862881311360449
-2.13881558011053E-05,8.08628919912735E-06,5.09765625,0,0.00862881311360449
-2.36732012126595E-05,8.02468639449216E-06,5.09765625,0,0.00862881311360449
-2.26447518798523E-05,6.51350001135143E-06,5.09765625,0,0.00862881311360449
-2.1857071260456E-05,6.13876954957959E-06,5.09765625,0,0.00862881311360449
-1.99286714632763E-05,5.66184098715894E-06,5.09765625,0,0.00862881311360449
-2.20002548303455E-05,7.69861526350724E-06,5.09765625,0,0.00862881311360449
-2.4120055968524E-05,8.80755851540016E-06,5.09765625,0,0.00862881311360449
-2.58181407843949E-05,8.98546659300337E-06,5.09765625,0,0.00862881311360449
-2.51100445893826E-05,7.05663251210353E-06,5.09765625,0,0.00862881311360449
-2.53929283644538E-05,5.42158068128629E-06,5.09765625,0,0.00862881311360449
-2.55319118878106E-05,5.4826573432365E-06,5.09765625,0,0.00862881311360449
-2.39725650317268E-05,7.3434002842987E-06,5.09765625,0,0.00862881311360449
-1.82606017915532E-05,7.64794367569266E-06,5.09765625,0,0.00862881311360449
-2.60452870861627E-05,1.1338219337631E-05,5.09765625,0,0.00862881311360449
-2.00981539819622E-05,1.04398004623363E-05,5.09765625,0,0.00862881311360449
-2.48002506850753E-05,1.41447035275633E-05,5.09765625,0,0.00862881311360449
-2.06162058020709E-05,1.41907094075577E-05,5.09765625,0,0.00862881311360449
-2.37065742112463E-05,1.73912376340013E-05,5.09765625,0,0.00862881311360449
-2.3150318156695E-05,1.78808531927643E-05,5.09765625,0,0.00862881311360449
-2.35439965763362E-05,1.65829733305145E-05,5.09765625,0,0.00862881311360449
-2.22571634367341E-05,1.44991718116216E-05,5.09765625,0,0.00862881311360449
-2.33192986343056E-05,1.43857396324165E-05,5.09765625,0,0.00862881311360449
-2.45721312239766E-05,1.44116829687846E-05,5.09765625,0,0.00862881311360449
-2.45082737819757E-05,1.42194830914377E-05,5.09765625,0,0.00862881311360449
-2.51237488555489E-05,1.43050210681395E-05,5.09765625,0,0.00862881311360449
-2.36552914429922E-05,1.28543351820554E-05,5.09765625,0,0.00862881311360449
-2.40061090153176E-05,1.20566901387065E-05,5.09765625,0,0.00862881311360449
-2.29400320677087E-05,1.13770738607855E-05,5.09765625,0,0.00862881311360449
-2.52050140261417E-05,1.20007252917276E-05,5.09765625,0,0.00862881311360449
-2.59802818618482E-05,1.10077708086465E-05,5.09765625,0,0.00862881311360449
-2.77385825029342E-05,1.0160042620555E-05,5.09765625,0,0.00862881311360449
-2.64696827798616E-05,9.06449440662982E-06,5.09765625,0,0.00862881311360449
-2.60759770753793E-05,1.00883880804759E-05,5.09765625,0,0.00862881311360449
-2.53068628808251E-05,1.1817548511317E-05,5.09765625,0,0.00862881311360449
-2.64075024460908E-05,1.34492247525486E-05,5.09765625,0,0.00862881311360449
-2.62262892647414E-05,1.27593302750029E-05,5.09765625,0,0.00862881311360449
-2.54544684139546E-05,1.28378105728189E-05,5.09765625,0,0.00862881311360449
-2.38142383750528E-05,1.37413462653058E-05,5.09765625,0,0.00862881311360449
-2.24698469537543E-05,1.31735805553035E-05,5.09765625,0,0.00862881311360449
-1.86579163710121E-05,8.56632777868072E-06,5.09765625,0,0.00862881311360449
-2.68995263468241E-05,9.96774906525388E-06,5.09765625,0,0.00862881311360449
-2.0153027435299E-05,5.90820809520665E-06,5.09765625,0,0.00862881311360449
-2.41638590523507E-05,9.81444918579655E-06,5.09765625,0,0.00862881311360449
-2.00858048629016E-05,8.77566617418779E-06,5.09765625,0,0.00862881311360449
-2.24231844185852E-05,9.91178330878029E-06,5.09765625,0,0.00862881311360449
-2.01986586034764E-05,7.50795516069047E-06,5.09765625,0,0.00862881311360449
-2.12809864024166E-05,7.78276717028348E-06,5.09765625,0,0.00862881311360449
-2.21483314817306E-05,7.95326013758313E-06,5.09765625,0,0.00862881311360449
-2.30518089665566E-05,8.57837767398451E-06,5.09765625,0,0.00862881311360449
-2.26781921810471E-05,7.54775737732416E-06,5.09765625,0,0.00862881311360449
-2.14647716347827E-05,5.39792790732463E-06,5.09765625,0,0.00862881311360449
-2.3084981876309E-05,5.75671083424822E-06,5.09765625,0,0.00862881311360449
-2.34059807553422E-05,5.68278574064607E-06,5.09765625,0,0.00862881311360449
-2.41321085923119E-05,5.64950505577144E-06,5.09765625,0,0.00862881311360449
-2.17652814171743E-05,4.63095011582482E-06,5.09765625,0,0.00862881311360449
-2.10966863960493E-05,5.87075419389294E-06,5.09765625,0,0.00862881311360449
-1.94413369172253E-05,5.9509920902201E-06,5.09765625,0,0.00862881311360449
-2.15612199099269E-05,8.21175672172103E-06,5.09765625,0,0.00862881311360449
-2.28942408284638E-05,1.19225460366579E-05,5.09765625,0,0.00862881311360449
-2.42953774431953E-05,1.57039048644947E-05,5.09765625,0,0.00862881311360449
-2.27518503379542E-05,1.45172762131551E-05,5.09765625,0,0.00862881311360449
-2.21651498577558E-05,1.18437737910426E-05,5.09765625,0,0.00862881311360449
-2.21316713577835E-05,9.93459525489016E-06,5.09765625,0,0.00862881311360449
-2.30030018428806E-05,9.55671021074522E-06,5.09765625,0,0.00862881311360449
-2.34649160120171E-05,9.7870297395275E-06,5.09765625,0,0.00862881311360449
-2.31943176913774E-05,1.02722069641459E-05,5.09765625,0,0.00862881311360449
-1.8246442778036E-05,9.94572474155575E-06,5.09765625,0,0.00862881311360449
-2.65866801782977E-05,1.41173522933968E-05,5.09765625,0,0.00862881311360449
-2.19844623643439E-05,1.12839661596809E-05,5.09765625,0,0.00862881311360449
-2.79635896731634E-05,1.4629425095336E-05,5.09765625,0,0.00862881311360449
-2.46960207732627E-05,1.10162263808888E-05,5.09765625,0,0.00862881311360449
-2.67057530436432E-05,9.63145612331573E-06,5.09765625,0,0.00862881311360449
-2.41205216298113E-05,7.65961794968462E-06,5.09765625,0,0.00862881311360449
-2.46046420215862E-05,9.50467801885679E-06,5.09765625,0,0.00862881311360449
-2.26324063987704E-05,1.20534023153596E-05,5.09765625,0,0.00862881311360449
-2.22821399802342E-05,1.27047760543064E-05,5.09765625,0,0.00862881311360449
-2.23657443712E-05,1.12817224362516E-05,5.09765625,0,0.00862881311360449
-2.17191609408474E-05,1.03754309748183E-05,5.09765625,0,0.00862881311360449
-2.23674178414512E-05,1.08433578134282E-05,5.09765625,0,0.00862881311360449
-2.11603473871946E-05,8.84621476870961E-06,5.09765625,0,0.00862881311360449
-2.24981267820112E-05,7.721268957539E-06,5.09765625,0,0.00862881311360449
-2.24391733354423E-05,8.02604154159781E-06,5.09765625,0,0.00862881311360449
-2.45250030275201E-05,1.12321158667328E-05,5.09765625,0,0.00862881311360449
-2.42852256633341E-05,1.23745694509125E-05,5.09765625,0,0.00862881311360449
-2.5813142201514E-05,1.22806704894174E-05,5.09765625,0,0.00862881311360449
-2.50795947067672E-05,1.0831705367309E-05,5.09765625,0,0.00862881311360449
-2.48881551669911E-05,1.14830181701109E-05,5.09765625,0,0.00862881311360449
-2.3478816729039E-05,1.2492276255216E-05,5.09765625,0,0.00862881311360449
-2.33398041018518E-05,1.32027889776509E-05,5.09765625,0,0.00862881311360449
-2.25194617087254E-05,1.21520470202086E-05,5.09765625,0,0.00862881311360449
-2.27025630010758E-05,1.08151434687898E-05,5.09765625,0,0.00862881311360449
-2.36504129134119E-05,8.73203407536494E-06,5.09765625,0,0.00862881311360449
-2.46851686824812E-05,6.91196464686072E-06,5.09765625,0,0.00862881311360449
-1.9888544557034E-05,5.45874536328483E-06,5.09765625,0,0.00862881311360449
-2.87686052615754E-05,8.51741606311407E-06,5.09765625,0,0.00862881311360449
-2.21803402382648E-05,9.84019334282493E-06,5.09765625,0,0.00862881311360449
-2.73260120593477E-05,1.3474234037858E-05,5.09765625,0,0.00862881311360449
-2.30961104534799E-05,1.22435012599453E-05,5.09765625,0,0.00862881311360449
-2.59145836025709E-05,1.45884141602437E-05,5.09765625,0,0.00862881311360449
-2.52141071541701E-05,1.55152829393046E-05,5.09765625,0,0.00862881311360449
-2.67884552158648E-05,1.54055505845463E-05,5.09765625,0,0.00862881311360449
-2.67670893663308E-05,1.43029046739684E-05,5.09765625,0,0.00862881311360449
-2.76265582215274E-05,1.38704863275052E-05,5.09765625,0,0.00862881311360449
-2.73799887509085E-05,1.403449823556E-05,5.09765625,0,0.00862881311360449
-2.59084372373763E-05,1.33938328872318E-05,5.09765625,0,0.00862881311360449
-2.66889892373001E-05,1.28540450532455E-05,5.09765625,0,0.00862881311360449
-2.59531552728731E-05,1.13187525130343E-05,5.09765625,0,0.00862881311360449
-2.71381704806117E-05,9.73285477812169E-06,6.328125,0,0.00862881311360449
-2.67266186710913E-05,7.85887550591724E-06,6.328125,0,0.00862881311360449
-2.84121379081625E-05,7.92180526332231E-06,6.328125,0,0.00862881311360449
-2.7870331905433E-05,8.35998071124777E-06,6.328125,0,0.00862881311360449
-2.83126119029475E-05,9.77320632955525E-06,6.328125,0,0.00862881311360449
-2.56999755947618E-05,1.0952396223729E-05,6.328125,0,0.00862881311360449
-2.44502953137271E-05,1.17116323963273E-05,6.328125,0,0.00862881311360449
-2.33752416534116E-05,1.01004634416313E-05,6.328125,0,0.00862881311360449
-2.45310711761704E-05,7.67413530411432E-06,6.328125,0,0.00862881311360449
-2.46461313508917E-05,6.74150851409649E-06,6.328125,0,0.00862881311360449
-2.44556413235841E-05,8.77133425092325E-06,6.328125,0,0.00862881311360449
-2.39694709307514E-05,1.04162108982564E-05,6.328125,0,0.00862881311360449
-2.39870951190824E-05,1.05361577880103E-05,6.328125,0,0.00862881311360449
-1.90689897863194E-05,8.57184932101518E-06,6.328125,0,0.00862881311360449
-2.69527336058673E-05,1.1802263543359E-05,6.328125,0,0.00862881311360449
-2.03383569896687E-05,8.58758085087175E-06,6.328125,0,0.00862881311360449
-2.57210012932774E-05,1.09324100776576E-05,6.328125,0,0.00862881311360449
-2.17387078009779E-05,9.60010856942972E-06,6.328125,0,0.00862881311360449
-2.38934371736832E-05,1.18548477985314E-05,6.328125,0,0.00862881311360449
-2.19321882468648E-05,1.08345257103792E-05,6.328125,0,0.00862881311360449
-2.28593471547356E-05,1.12351908683195E-05,6.328125,0,0.00862881311360449
-2.20698493649252E-05,1.37548449856695E-05,6.328125,0,0.00862881311360449
-2.18167970160721E-05,1.70108341990272E-05,6.328125,0,0.00862881311360449
-2.13480834645452E-05,1.67444068210898E-05,6.328125,0,0.00862881311360449
-2.02017363335472E-05,1.41854834510013E-05,6.328125,0,0.00862881311360449
-2.1147006918909E-05,1.36194057631656E-05,6.328125,0,0.00862881311360449
-2.0631658117054E-05,1.32210816445877E-05,6.328125,0,0.00862881311360449
-2.19584926526295E-05,1.27203129522968E-05,6.328125,0,0.00862881311360449
-2.14982028410304E-05,1.11057670437731E-05,6.328125,0,0.00862881311360449
-2.35669413086725E-05,1.17189993034117E-05,6.328125,0,0.00862881311360449
-2.3400440113619E-05,1.1394626199035E-05,6.328125,0,0.00862881311360449
-2.37726326304255E-05,1.11899371404434E-05,6.328125,0,0.00862881311360449
-2.16106636798941E-05,1.00422375908238E-05,6.328125,0,0.00862881311360449
-2.11940841836622E-05,1.01745217762073E-05,6.328125,0,0.00862881311360449
-2.12256236409303E-05,1.06749112092075E-05,6.328125,0,0.00862881311360449
-2.30884143093135E-05,1.24321513794712E-05,6.328125,0,0.00862881311360449
-2.26559386646841E-05,1.44071827890002E-05,6.328125,0,0.00862881311360449
-2.19511675823014E-05,1.50140413097688E-05,6.328125,0,0.00862881311360449
-2.16175558307441E-05,1.14614631456789E-05,6.328125,0,0.00862881311360449
-2.19357571040746E-05,8.36712843010901E-06,6.328125,0,0.00862881311360449
-1.77118563442491E-05,6.26464452579967E-06,6.328125,0,0.00862881311360449
-2.5013188860612E-05,8.50582182465587E-06,6.328125,0,0.00862881311360449
-2.00067352125188E-05,5.95972096562036E-06,6.328125,0,0.00862881311360449
-2.49708755291067E-05,7.61762976253522E-06,6.328125,0,0.00862881311360449
-2.09638783417176E-05,5.86759415455163E-06,6.328125,0,0.00862881311360449
-2.37567346630385E-05,4.75076785733108E-06,6.328125,0,0.00862881311360449
-2.23183087655343E-05,2.02749174604833E-06,6.328125,0,0.00862881311360449
-2.44438706431538E-05,3.72508338841726E-06,6.328125,0,0.00862881311360449
-2.32984657486668E-05,6.54679706713068E-06,6.328125,0,0.00862881311360449
-2.22672497329768E-05,7.62698664402706E-06,6.328125,0,0.00862881311360449
-2.19463272514986E-05,7.78264075051993E-06,6.328125,0,0.00862881311360449
-2.14661158679519E-05,8.60291402204894E-06,6.328125,0,0.00862881311360449
-2.26598640438169E-05,1.04786086012609E-05,6.328125,0,0.00862881311360449
-2.15670752368169E-05,1.17860527097946E-05,6.328125,0,0.00862881311360449
-2.1826888769283E-05,1.37396855279803E-05,6.328125,0,0.00862881311360449
-2.07557095563971E-05,1.42184098876896E-05,6.328125,0,0.00862881311360449
-2.28591343329754E-05,1.38096156661049E-05,6.328125,0,0.00862881311360449
-2.37195563386194E-05,1.18624084279872E-05,6.328125,0,0.00862881311360449
-2.66639326582663E-05,1.06285469883005E-05,6.328125,0,0.00862881311360449
-2.62821995420381E-05,1.03178645076696E-05,6.328125,0,0.00862881311360449
-2.47450498136459E-05,1.238920049218E-05,6.328125,0,0.00862881311360449
-2.14467218029313E-05,1.31010601762682E-05,6.328125,0,0.00862881311360449
-2.24697032535914E-05,1.23879171951558E-05,6.328125,0,0.00862881311360449
-2.37126641877694E-05,1.05842163975467E-05,6.328125,0,0.00862881311360449
-2.37165168073261E-05,9.23810603126185E-06,6.328125,0,0.00862881311360449
-2.33678219956346E-05,8.98483085620683E-06,6.328125,0,0.00862881311360449
-2.35631814575754E-05,9.70884593698429E-06,6.328125,0,0.00862881311360449
-1.89263409993146E-05,8.02191607363056E-06,6.328125,0,0.00862881311360449
-2.6633933885023E-05,1.16921701192041E-05,6.328125,0,0.00862881311360449
-1.97410954569932E-05,9.83052632363979E-06,6.328125,0,0.00862881311360449
-2.51371966442093E-05,1.25180995382834E-05,6.328125,0,0.00862881311360449
-2.25600524572656E-05,9.44769908528542E-06,6.328125,0,0.00862881311360449
-2.57198280451121E-05,9.44945168157574E-06,6.328125,0,0.00862881311360449
-2.27476284635486E-05,8.85583449417027E-06,6.328125,0,0.00862881311360449
-2.29370252782246E-05,9.18440218811156E-06,6.328125,0,0.00862881311360449
-2.27673954213969E-05,9.01762996363686E-06,6.328125,0,0.00862881311360449
-2.3758630049997E-05,8.41045675770147E-06,6.328125,0,0.00862881311360449
-2.41459438257152E-05,7.39488314138725E-06,6.328125,0,0.00862881311360449
-2.29742490773788E-05,7.59440126785194E-06,6.328125,0,0.00862881311360449
-2.37403910432477E-05,8.71005522640189E-06,6.328125,0,0.00862881311360449
-2.35989027714822E-05,8.46598595671821E-06,6.328125,0,0.00862881311360449
-2.5573986931704E-05,8.9652212409419E-06,6.328125,0,0.00862881311360449
-2.47227981162723E-05,9.38675475481432E-06,6.328125,0,0.00862881311360449
-2.46728086494841E-05,1.08469339465955E-05,6.328125,0,0.00862881311360449
-2.31786852964433E-05,1.01791847555432E-05,6.328125,0,0.00862881311360449
-2.51451656367863E-05,9.29455291043269E-06,6.328125,0,0.00862881311360449
-2.55792419920908E-05,8.62949855218176E-06,6.328125,0,0.00862881311360449
-2.63848924078047E-05,8.96827350516105E-06,6.328125,0,0.00862881311360449
-2.57794908975484E-05,9.19912781682797E-06,6.328125,0,0.00862881311360449
-2.64926675299648E-05,1.16017745313002E-05,6.328125,0,0.00862881311360449
-2.57242973020766E-05,1.25245433082455E-05,6.328125,0,0.00862881311360449
-2.45326846197713E-05,1.09463271655841E-05,6.328125,0,0.00862881311360449
-2.33723294513766E-05,8.66190839587944E-06,6.328125,0,0.00862881311360449
-2.25135572691215E-05,7.56764484322048E-06,6.328125,0,0.00862881311360449
-1.85398675967008E-05,6.13422662354424E-06,6.328125,0,0.00862881311360449
-2.74767371593043E-05,8.96351048140787E-06,6.328125,0,0.00862881311360449
-2.30669684242457E-05,7.78561116021592E-06,6.328125,0,0.00862881311360449
-2.89056224573869E-05,9.68508629739517E-06,6.328125,0,0.00862881311360449
-2.55256945820292E-05,8.53838719194755E-06,6.328125,0,0.00862881311360449
-2.76315640803659E-05,9.68546919466462E-06,6.328125,0,0.00862881311360449
-2.45525152422488E-05,8.39745462144492E-06,6.328125,0,0.00862881311360449
-2.45575993176317E-05,8.70962958288146E-06,6.328125,0,0.00862881311360449
-2.46767776843626E-05,1.03578267953708E-05,6.328125,0,0.00862881311360449
-2.60405431617983E-05,1.34848787638475E-05,6.328125,0,0.00862881311360449
-2.7366797439754E-05,1.50650812429376E-05,6.328125,0,0.00862881311360449
-2.71083663392346E-05,1.36450944410171E-05,6.328125,0,0.00862881311360449
-2.73200039373478E-05,1.20572658488527E-05,6.328125,0,0.00862881311360449
-2.5532364816172E-05,1.11184372144635E-05,6.328125,0,0.00862881311360449
-2.64711998170242E-05,1.20185741252499E-05,6.328125,0,0.00862881311360449
-2.61627010331722E-05,1.16977698780829E-05,6.328125,0,0.00862881311360449
-2.6855834221351E-05,1.16882420115871E-05,6.328125,0,0.00862881311360449
-2.5417923097848E-05,1.1836090379802E-05,6.328125,0,0.00862881311360449
-2.68942931143101E-05,1.20927134048543E-05,6.328125,0,0.00862881311360449
-2.71225781034445E-05,9.59130920819007E-06,6.328125,0,0.00862881311360449
-2.74769590760116E-05,6.26969585937331E-06,6.328125,0,0.00862881311360449
-2.52568279393017E-05,4.14000305681839E-06,6.328125,0,0.00862881311360449
-2.40498611674411E-05,7.00011696608271E-06,6.328125,0,0.00862881311360449
-2.35288262047106E-05,1.01646328403149E-05,6.328125,0,0.00862881311360449
-2.5109631678788E-05,1.04685686892481E-05,6.328125,0,0.00862881311360449
-2.71157023234991E-05,1.05719300336204E-05,6.328125,0,0.00862881311360449
-2.72190372925252E-05,1.13099249574589E-05,6.328125,0,0.00862881311360449
-2.05620508495485E-05,9.65995059232228E-06,6.328125,0,0.00862881311360449
-2.84283796645468E-05,1.26928371173562E-05,6.328125,0,0.00862881311360449
-2.13817147596274E-05,9.4469169198419E-06,6.328125,0,0.00862881311360449
-2.74396807071753E-05,1.39293915708549E-05,6.328125,0,0.00862881311360449
-2.32788552239072E-05,1.27542343761888E-05,6.328125,0,0.00862881311360449
-2.61695076915203E-05,1.47244336403674E-05,6.328125,0,0.00862881311360449
-2.41866382566513E-05,1.390380475641E-05,6.328125,0,0.00862881311360449
-2.61196546489373E-05,1.50653831951786E-05,6.328125,0,0.00862881311360449
-2.49792501563206E-05,1.5093493857421E-05,6.328125,0,0.00862881311360449
-2.4305802071467E-05,1.39029743877472E-05,6.328125,0,0.00862881311360449
-2.41571287915576E-05,1.33908342832001E-05,6.328125,0,0.00862881311360449
-2.36025061894907E-05,1.30657899717335E-05,6.328125,0,0.00862881311360449
-2.48234282480553E-05,1.42571971082361E-05,6.328125,0,0.00862881311360449
-2.44377079070546E-05,1.5595518561895E-05,6.328125,0,0.00862881311360449
-2.65904382104054E-05,1.7174474123749E-05,6.328125,0,0.00862881311360449
-2.57319388765609E-05,1.564570084156E-05,6.328125,0,0.00862881311360449
-2.58967938862043E-05,1.44701352837728E-05,6.328125,0,0.00862881311360449
-2.32283873629058E-05,1.3242291061033E-05,6.328125,0,0.00862881311360449
-2.41005400312133E-05,1.45466501635383E-05,6.328125,0,0.00862881311360449
-2.42629339481937E-05,1.50581818161299E-05,6.328125,0,0.00862881311360449
-2.58007858064957E-05,1.43363986353506E-05,6.328125,0,0.00862881311360449
-2.50388566200854E-05,1.25392671179725E-05,6.328125,0,0.00862881311360449
-2.50309331022436E-05,1.39154653879814E-05,6.328125,0,0.00862881311360449
-2.35337211051956E-05,1.68328333529644E-05,6.328125,0,0.00862881311360449
-2.26583506446332E-05,1.79152921191417E-05,6.328125,0,0.00862881311360449
-2.28206408792175E-05,1.55099514813628E-05,6.328125,0,0.00862881311360449
-2.24954765144503E-05,1.26797222037567E-05,6.328125,0,0.00862881311360449
-1.75868699443527E-05,9.68092717812397E-06,6.328125,0,0.00862881311360449
-2.55971463047899E-05,1.42507396958536E-05,6.328125,0,0.00862881311360449
-2.11426158784889E-05,1.16296732812771E-05,6.328125,0,0.00862881311360449
-2.67138038907433E-05,1.369901929138E-05,6.328125,0,0.00862881311360449
-2.32488910114625E-05,1.16495784823201E-05,6.328125,0,0.00862881311360449
-2.5809446015046E-05,1.4573750377167E-05,6.328125,0,0.00862881311360449
-2.4407761884504E-05,1.55171619553585E-05,6.328125,0,0.00862881311360449
-2.4842282073223E-05,1.63944550877204E-05,6.328125,0,0.00862881311360449
-2.2553896997124E-05,1.49466086440952E-05,6.328125,0,0.00862881311360449
-2.17880897253053E-05,1.32761742861476E-05,6.328125,0,0.00862881311360449
-2.34627095778706E-05,1.25769438454881E-05,6.328125,0,0.00862881311360449
-2.4593264242867E-05,1.30134758364875E-05,6.328125,0,0.00862881311360449
-2.48586402449291E-05,1.29888494484476E-05,6.328125,0,0.00862881311360449
-2.15038471651496E-05,1.01329414974316E-05,6.328125,0,0.00862881311360449
-2.04881853278494E-05,9.41580310609424E-06,6.328125,0,0.00862881311360449
-1.9354714822839E-05,1.03911215774133E-05,6.328125,0,0.00862881311360449
-2.10118305403739E-05,1.30668195197359E-05,6.328125,0,0.00862881311360449
-1.99956393771572E-05,1.33507301143254E-05,6.328125,0,0.00862881311360449
-1.97895024030004E-05,1.38004506879952E-05,6.328125,0,0.00862881311360449
-1.89355851034634E-05,1.43248589665745E-05,6.328125,0,0.00862881311360449
-2.07026314456016E-05,1.57606100401608E-05,6.328125,0,0.00862881311360449
-2.11958304134896E-05,1.45875692396658E-05,6.328125,0,0.00862881311360449
-2.20715392060811E-05,1.2309927114984E-05,6.328125,0,0.00862881311360449
-2.16939424717566E-05,9.67463802226121E-06,6.328125,0,0.00862881311360449
-2.12948834814597E-05,9.72155976342037E-06,6.328125,0,0.00862881311360449
-2.16412445297465E-05,1.22306773846503E-05,6.328125,0,0.00862881311360449
-2.32623151532607E-05,1.44896666824934E-05,6.328125,0,0.00862881311360449
-2.05630512937205E-05,9.52091704675695E-06,6.328125,0,0.00862881311360449
-2.9346214432735E-05,1.00067472885712E-05,6.328125,0,0.00862881311360449
-2.19625981117133E-05,3.38654103870795E-06,6.328125,0,0.00862881311360449
-2.63797501247609E-05,7.15068654244533E-06,6.328125,0,0.00862881311360449
-2.07561388378963E-05,7.24298115528654E-06,6.328125,0,0.00862881311360449
-2.30820951401256E-05,1.04097962321248E-05,6.328125,0,0.00862881311360449
-2.19310804823181E-05,8.98986763786525E-06,6.328125,0,0.00862881311360449
-2.32322563533671E-05,9.26114080357365E-06,6.328125,0,0.00862881311360449
-2.27733762585558E-05,8.60836917127017E-06,6.328125,0,0.00862881311360449
-2.43153917836025E-05,7.59790236770641E-06,6.328125,0,0.00862881311360449
-2.58155923802406E-05,5.59070940653328E-06,6.328125,0,0.00862881311360449
-2.44636212300975E-05,2.98579743684968E-06,6.328125,0,0.00862881311360449
-2.40148710872745E-05,1.83256804575649E-06,6.328125,0,0.00862881311360449
-2.26146112254355E-05,8.31096315323521E-07,6.328125,0,0.00862881311360449
-2.34780090977438E-05,2.72977581516898E-06,6.328125,0,0.00862881311360449
-2.16860953514697E-05,4.53527354693506E-06,6.328125,0,0.00862881311360449
-2.31689245993039E-05,7.16998511052225E-06,6.328125,0,0.00862881311360449
-2.39304099522997E-05,6.87429064782918E-06,6.328125,0,0.00862881311360449
-2.62279263552045E-05,6.65147172185243E-06,6.328125,0,0.00862881311360449
-2.53827238338999E-05,5.6743356253719E-06,6.328125,0,0.00862881311360449
-2.47013085754588E-05,6.25752818450565E-06,6.328125,0,0.00862881311360449
-2.28200533456402E-05,6.88691125105834E-06,6.328125,0,0.00862881311360449
-2.29541165026603E-05,8.18465923657641E-06,6.328125,0,0.00862881311360449
-2.29046254389687E-05,7.62578656576807E-06,6.328125,0,0.00862881311360449
-2.39857654378284E-05,6.56093970974325E-06,6.328125,0,0.00862881311360449
-2.38627108046785E-05,5.65322397960699E-06,6.328125,0,0.00862881311360449
-2.31699686992215E-05,5.87144359087688E-06,6.328125,0,0.00862881311360449
-1.89408983715111E-05,5.59807267563883E-06,6.328125,0,0.00862881311360449
-2.51709989242954E-05,7.91775073594181E-06,6.328125,0,0.00862881311360449
-1.68999085872201E-05,5.30407487531193E-06,6.328125,0,0.00862881311360449
-2.19748581002932E-05,6.13648126090993E-06,6.328125,0,0.00862881311360449
-1.91115468624048E-05,5.48161551705562E-06,6.328125,0,0.00862881311360449
-2.27593081945088E-05,6.04154365646536E-06,6.328125,0,0.00862881311360449
-2.05374562938232E-05,4.95843005410279E-06,6.328125,0,0.00862881311360449
-2.07449338631704E-05,6.06565890848287E-06,6.328125,0,0.00862881311360449
-1.95004049601266E-05,7.7521008279291E-06,6.328125,0,0.00862881311360449
-1.93253345059929E-05,8.56814676808426E-06,6.328125,0,0.00862881311360449
-1.97710833163001E-05,7.83060932008084E-06,6.328125,0,0.00862881311360449
-2.05375126824947E-05,6.28034467808902E-06,6.328125,0,0.00862881311360449
-2.26555002882378E-05,6.36109689367004E-06,6.328125,0,0.00862881311360449
-2.18603017856367E-05,7.87786211731145E-06,6.328125,0,0.00862881311360449
-2.21486334339716E-05,9.81200173555408E-06,6.328125,0,0.00862881311360449
-2.10541311389534E-05,9.53430026129354E-06,6.328125,0,0.00862881311360449
-2.40092122112401E-05,8.93466130946763E-06,6.328125,0,0.00862881311360449
-2.52793324762024E-05,7.76765682530822E-06,6.328125,0,0.00862881311360449
-2.74339399766177E-05,7.93654908193275E-06,6.328125,0,0.00862881311360449
-2.63360252574785E-05,8.11587233329192E-06,6.328125,0,0.00862881311360449
-2.56825751421275E-05,8.38736468722345E-06,6.328125,0,0.00862881311360449
-2.34586004808079E-05,8.57414579513716E-06,6.328125,0,0.00862881311360449
-2.3374706870527E-05,9.16456338018179E-06,6.328125,0,0.00862881311360449
-2.26062747969991E-05,8.89107923285337E-06,6.328125,0,0.00862881311360449
-2.24120358325308E-05,9.60806028160732E-06,6.328125,0,0.00862881311360449
-2.29888846661197E-05,1.18156813186943E-05,6.328125,0,0.00862881311360449
-2.41528941842262E-05,1.34807405629545E-05,6.328125,0,0.00862881311360449
-1.86516717803897E-05,1.11488761831424E-05,6.328125,0,0.00862881311360449
-2.4672037397977E-05,1.60152412718162E-05,6.328125,0,0.00862881311360449
-1.7405029211659E-05,1.15102993731853E-05,6.328125,0,0.00862881311360449
-2.29891065828269E-05,1.26291506603593E-05,6.328125,0,0.00862881311360449
-2.0158053303021E-05,9.82005167315947E-06,6.328125,0,0.00862881311360449
-2.56009789154632E-05,1.1696665751515E-05,6.328125,0,0.00862881311360449
-2.4474558813381E-05,1.03811626104289E-05,6.328125,0,0.00862881311360449
-2.54685728577897E-05,1.09204274849617E-05,6.328125,0,0.00862881311360449
-2.44779384956928E-05,1.03344073068001E-05,6.328125,0,0.00862881311360449
-2.43343874899438E-05,1.15131806524005E-05,6.328125,0,0.00862881311360449
-2.3901842723717E-05,1.28367964862264E-05,6.328125,0,0.00862881311360449
-2.24965097004315E-05,1.27229332065326E-05,6.328125,0,0.00862881311360449
-2.34017406910425E-05,1.29408253997099E-05,6.328125,0,0.00862881311360449
-2.24478608288337E-05,1.31413462440833E-05,6.328125,0,0.00862881311360449
-2.40238969126949E-05,1.60133804456564E-05,6.328125,0,0.00862881311360449
-2.37590338656446E-05,1.7330132322968E-05,6.328125,0,0.00862881311360449
-2.53881098615238E-05,1.82884596142685E-05,6.328125,0,0.00862881311360449
-2.46950949076563E-05,1.69375380210113E-05,6.328125,0,0.00862881311360449
-2.58125146501698E-05,1.62580709002214E-05,6.328125,0,0.00862881311360449
-2.49387667281553E-05,1.46610609590425E-05,7.734375,0,0.00862881311360449
-2.57570791291073E-05,1.46589327414404E-05,7.734375,0,0.00862881311360449
-2.52526915573981E-05,1.36237795231864E-05,7.734375,0,0.00862881311360449
-2.51150086114649E-05,1.30348316815798E-05,7.734375,0,0.00862881311360449
-2.36104897339828E-05,1.35316140585928E-05,7.734375,0,0.00862881311360449
-2.3767834136379E-05,1.72439249581657E-05,7.734375,0,0.00862881311360449
-2.45571081904927E-05,2.084319567075E-05,7.734375,0,0.00862881311360449
-2.47221596509917E-05,2.03313102247193E-05,7.734375,0,0.00862881311360449
-2.00295489776181E-05,1.38843524837284E-05,7.734375,0,0.00862881311360449
-2.97466031042859E-05,1.76369740074733E-05,7.734375,0,0.00862881311360449
-2.36037230934016E-05,1.14816011773655E-05,7.734375,0,0.00862881311360449
-2.7500043870532E-05,1.6183284969884E-05,7.734375,0,0.00862881311360449
-2.24685263674473E-05,1.38085679282085E-05,7.734375,0,0.00862881311360449
-2.43906670220895E-05,1.58951406774577E-05,7.734375,0,0.00862881311360449
-2.23096103582066E-05,1.3037411008554E-05,7.734375,0,0.00862881311360449
-2.36247269640444E-05,1.22416831800365E-05,7.734375,0,0.00862881311360449
-2.33691644098144E-05,1.14562071757973E-05,7.734375,0,0.00862881311360449
-2.36385694734054E-05,1.23022100524395E-05,7.734375,0,0.00862881311360449
-2.41132165683666E-05,1.22303072203067E-05,7.734375,0,0.00862881311360449
-2.51690216828138E-05,1.08036183519289E-05,7.734375,0,0.00862881311360449
-2.78833085758379E-05,1.08484136944753E-05,7.734375,0,0.00862881311360449
-2.78721090580802E-05,1.05056024040096E-05,7.734375,0,0.00862881311360449
-2.86291033262387E-05,1.23822183013544E-05,7.734375,0,0.00862881311360449
-2.65723756456282E-05,1.25174155982677E-05,7.734375,0,0.00862881311360449
-2.62484973063692E-05,1.38120603878633E-05,7.734375,0,0.00862881311360449
-2.43300510192057E-05,1.26537734104204E-05,7.734375,0,0.00862881311360449
-2.48150990955764E-05,1.30878352138097E-05,7.734375,0,0.00862881311360449
-2.35957450058777E-05,1.25851729535498E-05,7.734375,0,0.00862881311360449
-2.34665767493425E-05,1.33950352392276E-05,7.734375,0,0.00862881311360449
-2.27644868573407E-05,1.2485877959989E-05,7.734375,0,0.00862881311360449
-2.41136222030036E-05,1.11803738036542E-05,7.734375,0,0.00862881311360449
-2.40753597609E-05,8.98934831639053E-06,7.734375,0,0.00862881311360449
-2.38963111769408E-05,8.98973303264938E-06,7.734375,0,0.00862881311360449
-2.24195900955237E-05,9.40879635891179E-06,7.734375,0,0.00862881311360449
-2.20512192754541E-05,8.61964781506686E-06,7.734375,0,0.00862881311360449
-1.79857197508682E-05,7.24268147678231E-06,7.734375,0,0.00862881311360449
-2.51353958446998E-05,1.04913588074851E-05,7.734375,0,0.00862881311360449
-1.99219794012606E-05,7.97383927420015E-06,7.734375,0,0.00862881311360449
-2.56437087955419E-05,9.13847361516673E-06,7.734375,0,0.00862881311360449
-2.1498493879335E-05,7.38167454983341E-06,7.734375,0,0.00862881311360449
-2.37819858739385E-05,8.84172914084047E-06,7.734375,0,0.00862881311360449
-2.09777062991634E-05,9.718752153276E-06,7.734375,0,0.00862881311360449
-2.22700509766582E-05,1.09894672277733E-05,7.734375,0,0.00862881311360449
-2.38339998759329E-05,1.06403185782256E-05,7.734375,0,0.00862881311360449
-2.54394253715873E-05,9.63761794992024E-06,7.734375,0,0.00862881311360449
-2.62513513007434E-05,8.6646614363417E-06,7.734375,0,0.00862881311360449
-2.58408326772042E-05,8.69608993525617E-06,7.734375,0,0.00862881311360449
-2.63862948486349E-05,9.53701146499952E-06,7.734375,0,0.00862881311360449
-2.49148961302126E-05,9.10622293304186E-06,7.734375,0,0.00862881311360449
-2.61828681686893E-05,8.89795410330407E-06,7.734375,0,0.00862881311360449
-2.67378982243827E-05,8.14209943200694E-06,7.734375,0,0.00862881311360449
-2.86143822449958E-05,8.25007282401202E-06,7.734375,0,0.00862881311360449
-2.68812036665622E-05,7.81758990342496E-06,7.734375,0,0.00862881311360449
-2.62637313426239E-05,9.20012189453701E-06,7.734375,0,0.00862881311360449
-2.38050561165437E-05,1.02159174275585E-05,7.734375,0,0.00862881311360449
-2.36571413552156E-05,9.99481471808394E-06,7.734375,0,0.00862881311360449
-2.39656801568344E-05,8.1486969065736E-06,7.734375,0,0.00862881311360449
-2.60365141002694E-05,6.70218742016004E-06,7.734375,0,0.00862881311360449
-2.72170600510435E-05,5.77978744331631E-06,7.734375,0,0.00862881311360449
-2.73501209449023E-05,6.00669864070369E-06,7.734375,0,0.00862881311360449
-2.62647336057853E-05,5.10813879373018E-06,7.734375,0,0.00862881311360449
-2.54852348007262E-05,4.21243657910964E-06,7.734375,0,0.00862881311360449
-1.94788080989383E-05,2.87361467599112E-06,7.734375,0,0.00862881311360449
-2.76638493232895E-05,4.05029368266696E-06,7.734375,0,0.00862881311360449
-2.13518487726105E-05,3.36270863954269E-06,7.734375,0,0.00862881311360449
-2.63797883235384E-05,5.19328796144691E-06,7.734375,0,0.00862881311360449
-2.3191674699774E-05,7.64490232540993E-06,7.734375,0,0.00862881311360449
-2.69389147433685E-05,1.03382026281906E-05,7.734375,0,0.00862881311360449
-2.43692775256932E-05,9.26017855817918E-06,7.734375,0,0.00862881311360449
-2.52706486207899E-05,9.20610364119057E-06,7.734375,0,0.00862881311360449
-2.46756026172079E-05,1.07074565676157E-05,7.734375,0,0.00862881311360449
-2.37020813074196E-05,1.23428562801564E-05,7.734375,0,0.00862881311360449
-2.19332232518354E-05,1.29796217152034E-05,7.734375,0,0.00862881311360449
-2.06428776436951E-05,1.26096083477023E-05,7.734375,0,0.00862881311360449
-2.17292363231536E-05,1.24971702462062E-05,7.734375,0,0.00862881311360449
-2.14232222788269E-05,1.33997955344967E-05,7.734375,0,0.00862881311360449
-2.2865488062962E-05,1.52574575622566E-05,7.734375,0,0.00862881311360449
-2.1528856450459E-05,1.44423147503403E-05,7.734375,0,0.00862881311360449
-2.21065438381629E-05,1.20481963676866E-05,7.734375,0,0.00862881311360449
-2.08019973797491E-05,1.05586095742183E-05,7.734375,0,0.00862881311360449
-2.20153251575539E-05,1.10364780994132E-05,7.734375,0,0.00862881311360449
-2.18390559894033E-05,1.08363065010053E-05,7.734375,0,0.00862881311360449
-2.34238486882532E-05,1.05985091067851E-05,7.734375,0,0.00862881311360449
-2.36619580391562E-05,1.07986616058042E-05,7.734375,0,0.00862881311360449
-2.46146191784646E-05,1.18566022138111E-05,7.734375,0,0.00862881311360449
-2.41379348153714E-05,1.24514153867494E-05,7.734375,0,0.00862881311360449
-2.44361272052629E-05,1.22023329822696E-05,7.734375,0,0.00862881311360449
-2.40204517467646E-05,1.19048854685389E-05,7.734375,0,0.00862881311360449
-2.43878439505352E-05,1.07329942693468E-05,7.734375,0,0.00862881311360449
-2.13928033190314E-05,7.88369834481273E-06,7.734375,0,0.00862881311360449
-3.06250512949191E-05,1.1236656064284E-05,7.734375,0,0.00862881311360449
-2.17871420318261E-05,8.41540531837381E-06,7.734375,0,0.00862881311360449
-2.50019420491299E-05,8.04128467279952E-06,7.734375,0,0.00862881311360449
-1.97176159417722E-05,4.81228971693781E-06,7.734375,0,0.00862881311360449
-2.18561199289979E-05,9.21100308914902E-06,7.734375,0,0.00862881311360449
-2.04256775759859E-05,1.0835142347787E-05,7.734375,0,0.00862881311360449
-2.25838612095686E-05,1.15276543510845E-05,7.734375,0,0.00862881311360449
-2.17649903788697E-05,1.17672580017825E-05,7.734375,0,0.00862881311360449
-2.10084544960409E-05,1.21724751807051E-05,7.734375,0,0.00862881311360449
-2.05375599762192E-05,1.16371184049058E-05,7.734375,0,0.00862881311360449
-1.97445715457434E-05,1.03523361758562E-05,7.734375,0,0.00862881311360449
-2.14804604183882E-05,1.03155825854628E-05,7.734375,0,0.00862881311360449
-2.19161120185163E-05,1.14674621727318E-05,7.734375,0,0.00862881311360449
-2.40125227719545E-05,1.38194145620218E-05,7.734375,0,0.00862881311360449
-2.2984437237028E-05,1.28659885376692E-05,7.734375,0,0.00862881311360449
-2.37735312111909E-05,1.18813550216146E-05,7.734375,0,0.00862881311360449
-2.259733628307E-05,1.19143778647413E-05,7.734375,0,0.00862881311360449
-2.38990160141839E-05,1.4217219359125E-05,7.734375,0,0.00862881311360449
-2.37824842770351E-05,1.53152468556073E-05,7.734375,0,0.00862881311360449
-2.56362181971781E-05,1.58275179273915E-05,7.734375,0,0.00862881311360449
-2.55613849731162E-05,1.42978424264584E-05,7.734375,0,0.00862881311360449
-2.65145372395637E-05,1.29560758068692E-05,7.734375,0,0.00862881311360449
-2.73863024631282E-05,1.19832466225489E-05,7.734375,0,0.00862881311360449
-2.7248186597717E-05,1.23748013720615E-05,7.734375,0,0.00862881311360449
-2.52926020039013E-05,1.14236891022301E-05,7.734375,0,0.00862881311360449
-2.45929131779121E-05,9.44922976486851E-06,7.734375,0,0.00862881311360449
-2.01595485123107E-05,6.944191227376E-06,7.734375,0,0.00862881311360449
-2.83671724901069E-05,9.07942285266472E-06,7.734375,0,0.00862881311360449
-2.14567953662481E-05,6.63081527818576E-06,7.734375,0,0.00862881311360449
-2.64961472566938E-05,9.69026586972177E-06,7.734375,0,0.00862881311360449
-2.12603590625804E-05,9.53062590269838E-06,7.734375,0,0.00862881311360449
