biceps_emg, triceps_emg, subject_position, position_estimate, brace_position
-2.91349097096827E-05,1.10791334009264E-05,2.8125,0,0
-2.8718619432766E-05,9.39527672016993E-06,2.8125,0,0
-2.80284057225799E-05,7.00241753293085E-06,2.8125,0,0
-2.68339899776038E-05,5.76743968849769E-06,2.8125,0,0
-2.65231028606649E-05,6.38079200143693E-06,2.8125,0,0
-2.16538755921647E-05,6.68709571982617E-06,2.8125,0,0
-3.01051659334917E-05,1.07811811176362E-05,2.8125,0,0
-2.22492562897969E-05,9.02499414223712E-06,2.8125,0,0
-2.83007939287927E-05,9.92535569821484E-06,2.8125,0,0
-2.42217702179914E-05,8.76820104167564E-06,2.8125,0,0
-2.8089374609408E-05,8.66669779497897E-06,2.8125,0,0
-2.66405095317168E-05,7.88163470133441E-06,2.8125,0,0
-2.81817119685002E-05,1.14681397462846E-05,2.8125,0,0
-2.71375847660238E-05,1.45011035783682E-05,2.8125,0,0
-2.66402912529884E-05,1.36540893436177E-05,2.8125,0,0
-2.68823841906851E-05,1.17355411930475E-05,2.8125,0,0
-2.64379232248757E-05,1.15561506390804E-05,2.8125,0,0
-2.69299507635878E-05,1.26897748486954E-05,2.8125,0,0
-2.4258910343633E-05,1.27059856822598E-05,2.8125,0,0
-2.40244953602087E-05,1.31107990455348E-05,2.8125,0,0
-2.22736598516349E-05,1.32729674078291E-05,2.8125,0,0
-2.39176915783901E-05,1.37395909405313E-05,2.8125,0,0
-2.41776233451674E-05,1.29484205899644E-05,2.8125,0,0
-2.54032911470858E-05,1.29138188640354E-05,2.8125,0,0
-2.3375103410217E-05,1.33288749566418E-05,2.8125,0,0
-2.340632272535E-05,1.42538146974402E-05,2.8125,0,0
-2.27866712521063E-05,1.39192097776686E-05,2.8125,0,0
-2.38171396631515E-05,1.39121921165497E-05,2.8125,0,0
-2.33651699090842E-05,1.34414158310392E-05,2.8125,0,0
-2.3141388737713E-05,1.11216450022766E-05,2.8125,0,0
-2.20164511119947E-05,9.21918490348617E-06,2.8125,0,0
-2.01301045308355E-05,9.52419486566214E-06,2.8125,0,0
-1.47281689351075E-05,9.53696599026443E-06,2.8125,0,0
-2.04822299565421E-05,1.36680791911203E-05,2.8125,0,0
-1.61367079272168E-05,8.75518253451446E-06,2.8125,0,0
-2.09757272386923E-05,1.01039149740245E-05,2.8125,0,0
-1.79891430889256E-05,9.20882484933827E-06,2.8125,0,0
-2.06764307222329E-05,1.13501810119487E-05,2.8125,0,0
-1.98536581592634E-05,9.96147264231695E-06,2.8125,0,0
-2.15920645132428E-05,8.02262547949795E-06,2.8125,0,0
-2.16911412280751E-05,6.89456965119462E-06,2.8125,0,0
-2.13619860005565E-05,7.20770094631007E-06,2.8125,0,0
-2.13419261854142E-05,8.11343397799646E-06,2.8125,0,0
-2.15887193917297E-05,8.48378931550542E-06,2.8125,0,0
-2.28813805733807E-05,9.31489012145903E-06,2.8125,0,0
-2.078305624309E-05,9.54497681959765E-06,2.8125,0,0
-1.99592486751499E-05,1.01814903246122E-05,2.8125,0,0
-1.94742078747367E-05,9.62213016464375E-06,2.8125,0,0
-2.15561485674698E-05,1.05073795566568E-05,2.8125,0,0
-2.07823559321696E-05,1.05097715277225E-05,2.8125,0,0
-1.99498444999335E-05,1.12216839625034E-05,2.8125,0,0
-1.7726973965182E-05,1.16202636490925E-05,2.8125,0,0
-1.72032632690389E-05,1.25907572510187E-05,2.8125,0,0
-1.64541906997329E-05,1.26728336908855E-05,2.8125,0,0
-1.73108073795447E-05,1.19499882202945E-05,2.8125,0,0
-1.84755299414974E-05,1.00322167781997E-05,2.8125,0,0
-2.06539552891627E-05,8.75282239576336E-06,2.8125,0,0
-2.05738324439153E-05,8.17611453385325E-06,2.8125,0,0
-1.90250921150437E-05,7.05552292856737E-06,2.8125,0,0
-1.41639893627143E-05,6.14352120464901E-06,2.8125,0,0
-2.03860363399144E-05,1.02685844467487E-05,2.8125,0,0
-1.72398104041349E-05,1.05904073279817E-05,2.8125,0,0
-2.33571936405497E-05,1.28575757116778E-05,2.8125,0,0
-2.13776820601197E-05,1.05885183074861E-05,2.8125,0,0
-2.20532547245966E-05,9.87027669907548E-06,2.8125,0,0
-2.03797426365782E-05,8.59054944157833E-06,2.8125,0,0
-2.47408825089224E-05,8.02193972049281E-06,2.8125,0,0
-2.7566115022637E-05,7.20092930350802E-06,2.8125,0,0
-2.77737653959775E-05,7.20343768989551E-06,2.8125,0,0
-2.64274822256994E-05,7.73061128711561E-06,2.8125,0,0
-2.4627926904941E-05,7.37871505407384E-06,2.8125,0,0
-2.41492653003661E-05,7.01629824106931E-06,2.8125,0,0
-2.41624693444464E-05,6.79059348840383E-06,2.8125,0,0
-2.68313142441912E-05,7.22400773156551E-06,2.8125,0,0
-2.75141901511233E-05,6.14275040788925E-06,2.8125,0,0
-2.85317091766046E-05,5.28353666595649E-06,2.8125,0,0
-2.67526993411593E-05,5.31787054569577E-06,2.8125,0,0
-2.56613639066927E-05,7.80801201472059E-06,2.8125,0,0
-2.4029874111875E-05,1.01725863714819E-05,2.8125,0,0
-2.57574738498079E-05,1.10144919744926E-05,2.8125,0,0
-2.70425680355402E-05,1.0082269909617E-05,2.8125,0,0
-2.76111968560144E-05,1.04323526102235E-05,2.8125,0,0
-2.70891468971968E-05,1.1349161468388E-05,2.8125,0,0
-2.68493622570531E-05,1.09621714727837E-05,2.8125,0,0
-2.5976580218412E-05,9.39123947318876E-06,2.8125,0,0
-2.61630575550953E-05,9.98084669845412E-06,2.8125,0,0
-2.15076142922044E-05,8.97889003681485E-06,2.8125,0,0
-2.96569396596169E-05,1.27792545754346E-05,2.8125,0,0
-2.146041879314E-05,9.85337828751653E-06,2.8125,0,0
-2.67162940872367E-05,1.27984412756632E-05,2.8125,0,0
-2.19274934352143E-05,1.18925372589729E-05,2.8125,0,0
-2.47634943661978E-05,1.19750848170952E-05,2.8125,0,0
-2.19936973735457E-05,8.68818642629776E-06,2.8125,0,0
-2.41608286160044E-05,1.02239400803228E-05,2.8125,0,0
-2.39618257182883E-05,1.22992569231428E-05,2.8125,0,0
-2.34997223742539E-05,1.36168855533469E-05,2.8125,0,0
-2.41444049606798E-05,1.42243779919227E-05,2.8125,0,0
-2.522154863982E-05,1.3608950212074E-05,2.8125,0,0
-2.77994768111967E-05,1.34635065478506E-05,2.8125,0,0
-2.62182838923763E-05,1.30254293253529E-05,2.8125,0,0
-2.59652697423007E-05,1.35113505166373E-05,2.8125,0,0
-2.36599662457593E-05,1.32474897327484E-05,2.8125,0,0
-2.41613597609103E-05,1.4100569387665E-05,2.8125,0,0
-2.20710862777196E-05,1.27975863506435E-05,2.8125,0,0
-2.20236579480115E-05,1.12295265353168E-05,2.8125,0,0
-2.06733238883317E-05,9.78457501332741E-06,2.8125,0,0
-2.19076700886944E-05,1.06625775515568E-05,2.8125,0,0
-2.18973800656386E-05,1.13036012407974E-05,2.8125,0,0
-2.34390281548258E-05,1.14504673547344E-05,2.8125,0,0
-2.41801935771946E-05,1.04663104139036E-05,2.8125,0,0
-2.47682346525835E-05,1.21867687994381E-05,2.8125,0,0
-2.47959014814114E-05,1.45370986501803E-05,2.8125,0,0
-2.48300475504948E-05,1.5233806152537E-05,2.8125,0,0
-2.03040217456874E-05,1.11550361907575E-05,2.8125,0,0
-2.84205289062811E-05,1.54845984070562E-05,2.8125,0,0
-2.091596070386E-05,1.20155018521473E-05,2.8125,0,0
-2.55239738180535E-05,1.5371742847492E-05,2.8125,0,0
-2.07289140234934E-05,1.23844056361122E-05,2.8125,0,0
-2.36455507547362E-05,1.41904884003452E-05,2.8125,0,0
-2.28925528062973E-05,1.40125175676076E-05,2.8125,0,0
-2.56010625889758E-05,1.55783800437348E-05,2.8125,0,0
-2.55409704550402E-05,1.33010098579689E-05,2.8125,0,0
-2.57929150393466E-05,9.2644977485179E-06,2.8125,0,0
-2.59192711382639E-05,6.78884498483967E-06,2.8125,0,0
-2.43950489675626E-05,6.72110445520957E-06,2.8125,0,0
-2.43148606386967E-05,9.24029245652491E-06,2.8125,0,0
-2.37057538470253E-05,9.64110677159624E-06,2.8125,0,0
-2.56836174230557E-05,9.24524101719726E-06,2.8125,0,0
-2.4119952286128E-05,7.47482181395753E-06,2.8125,0,0
-2.42753321799682E-05,8.18558419268811E-06,2.8125,0,0
-2.38180382439168E-05,8.83792563399766E-06,2.8125,0,0
-2.56989660556428E-05,1.0927196854027E-05,2.8125,0,0
-2.44002330873627E-05,1.05955577964778E-05,2.8125,0,0
-2.43656522798119E-05,9.3449352789321E-06,2.8125,0,0
-2.34979306696914E-05,7.46397654438624E-06,2.8125,0,0
-2.40970439335797E-05,8.07346532383235E-06,2.8125,0,0
-2.46580348175485E-05,1.04440823633922E-05,2.8125,0,0
-2.61450113612227E-05,1.3071588909952E-05,2.8125,0,0
-2.66178776655579E-05,1.43826082421583E-05,2.8125,0,0
-2.72912748187082E-05,1.47515083881444E-05,2.8125,0,0
-2.11092501558596E-05,8.85373628989328E-06,2.8125,0,0
-2.81481497950153E-05,1.0604733688524E-05,2.8125,0,0
-1.9054627045989E-05,7.10202857590048E-06,2.8125,0,0
-2.45348946918966E-05,1.02549647635897E-05,2.8125,0,0
-2.06892691494431E-05,6.82611562297097E-06,2.8125,0,0
-2.44651891989633E-05,6.74462171446066E-06,2.8125,0,0
-2.20466226892313E-05,5.43065971214673E-06,2.8125,0,0
-2.27047603402752E-05,8.10154142527608E-06,2.8125,0,0
-2.14934843825176E-05,8.79186427482637E-06,2.8125,0,0
-2.19732246478088E-05,9.00652230484411E-06,2.8125,0,0
-2.26832144107902E-05,1.04361533885822E-05,2.8125,0,0
-2.18339337152429E-05,1.20348695418215E-05,2.8125,0,0
-2.23470178752905E-05,1.35215295813396E-05,2.8125,0,0
-2.09353038371773E-05,1.26892373373266E-05,2.8125,0,0
-2.2453898054664E-05,1.27635330500198E-05,2.8125,0,0
-2.26203719648765E-05,1.1653912224574E-05,2.8125,0,0
-2.48416727117728E-05,1.1283148523944E-05,2.8125,0,0
-2.35502175200963E-05,9.89857198874233E-06,2.8125,0,0
-2.44660295720678E-05,1.02502444860875E-05,2.8125,0,0
-2.39866585616255E-05,9.00033683137735E-06,2.8125,0,0
-2.50209232035559E-05,7.84481562732253E-06,2.8125,0,0
-2.36141568166204E-05,7.20474872650811E-06,2.8125,0,0
-2.33122700592503E-05,9.03362888493575E-06,2.8125,0,0
-2.32193797273794E-05,1.1188294593012E-05,2.8125,0,0
-2.43550621235045E-05,1.26375507534249E-05,2.8125,0,0
-2.43970062001608E-05,1.18611123980372E-05,2.8125,0,0
-2.46907729888335E-05,1.04461723822169E-05,2.8125,0,0
-2.02977444132557E-05,9.68088352237828E-06,2.8125,0,0
-2.82957644230919E-05,1.47753780765925E-05,2.8125,0,0
-2.12243176065385E-05,1.20160957521875E-05,2.8125,0,0
-2.69859192485455E-05,1.40933698276058E-05,2.8125,0,0
-2.24530758714536E-05,1.28337842397741E-05,2.8125,0,0
-2.43967388087185E-05,1.45602207339834E-05,2.8125,0,0
-2.18649020098383E-05,1.3326642147149E-05,2.8125,0,0
-2.33352820941946E-05,1.26571721921209E-05,2.8125,0,0
-2.24579307541717E-05,1.10307846625801E-05,2.8125,0,0
-2.23918432311621E-05,1.08760968942079E-05,2.8125,0,0
-2.31306494242745E-05,1.17502995635732E-05,2.8125,0,0
-2.27440232265508E-05,1.16464143502526E-05,2.8125,0,0
-2.33778337133117E-05,1.21993252832908E-05,2.8125,0,0
-2.0922505427734E-05,1.27193407024606E-05,2.8125,0,0
-2.05092710530153E-05,1.48191747939563E-05,2.8125,0,0
-1.88627182069467E-05,1.546058592794E-05,2.8125,0,0
-2.06649237952661E-05,1.61331845447421E-05,2.8125,0,0
-2.12433915294241E-05,1.52078910105047E-05,2.8125,0,0
-2.41531415667851E-05,1.45044086821144E-05,2.8125,0,0
-2.45212795562111E-05,1.29712989291875E-05,2.8125,0,0
-2.49822242039954E-05,1.28945475807996E-05,2.8125,0,0
-2.36240866797743E-05,1.31542492454173E-05,2.8125,0,0
-2.46547133428976E-05,1.39344883791637E-05,2.8125,0,0
-2.49799377343152E-05,1.4161925719236E-05,2.8125,0,0
-2.44372313318308E-05,1.45110680023208E-05,2.8125,0,0
-2.37170133914333E-05,1.45298099596403E-05,2.8125,0,0
-2.4177725208574E-05,1.43400902743451E-05,2.8125,0,0
-2.02955707209185E-05,1.07576597656589E-05,2.8125,0,0
-2.96136749966536E-05,1.44972382258857E-05,2.8125,0,0
-2.33826212934218E-05,1.01276937130024E-05,2.8125,0,0
-2.71644148597261E-05,1.34023848659126E-05,2.8125,0,0
-2.07923185371328E-05,1.11151184682967E-05,2.8125,0,0
-2.30163568630815E-05,1.12969137262553E-05,2.8125,0,0
-2.10740090551553E-05,8.46140846988419E-06,2.8125,0,0
-2.1415677110781E-05,9.50893445406109E-06,2.8125,0,0
-1.94015683518955E-05,1.15752663987223E-05,2.8125,0,0
-1.89540351129835E-05,1.28550973386155E-05,2.8125,0,0
-2.02737246581819E-05,1.25125698104966E-05,2.8125,0,0
-2.06976328627206E-05,1.13863052320085E-05,2.8125,0,0
-2.23070037463913E-05,1.08853228084627E-05,2.8125,0,0
-2.27560758503387E-05,8.77401998877758E-06,2.8125,0,0
-2.45956325670704E-05,8.0747222455102E-06,2.8125,0,0
-2.24285377043998E-05,8.58228941069683E-06,2.8125,0,0
-2.22241251321975E-05,1.17382660391741E-05,2.8125,0,0
-2.16289663512725E-05,1.09280672404566E-05,2.8125,0,0
-2.42503447225317E-05,8.71254633239005E-06,2.8125,0,0
-2.51884757744847E-05,7.50831259210827E-06,2.8125,0,0
-2.697529271245E-05,8.85462486621691E-06,2.8125,0,0
-2.61525365203852E-05,8.89154034666717E-06,2.8125,0,0
-2.55235663644271E-05,8.55419602885377E-06,2.8125,0,0
-2.58248401223682E-05,7.77404329710407E-06,2.8125,0,0
-2.76895279966993E-05,8.11267364042578E-06,2.8125,0,0
-2.71124063146999E-05,9.36588457989274E-06,2.8125,0,0
-2.67557188635692E-05,1.08924332380411E-05,2.8125,0,0
-2.27466152864508E-05,7.77357581682736E-06,2.8125,0,0
-3.20425679092295E-05,1.04931077657966E-05,2.8125,0,0
-2.24897521547973E-05,9.42436963669024E-06,2.8125,0,0
-2.66119332081871E-05,1.41986520247883E-05,2.8125,0,0
-2.16853022720898E-05,1.29133031805395E-05,2.8125,0,0
-2.53795424214331E-05,1.34047140818438E-05,2.8125,0,0
-2.3870150471339E-05,1.24098360174685E-05,2.8125,0,0
-2.50945086008869E-05,1.31778569993912E-05,2.8125,0,0
-2.35688312386628E-05,1.1848152098537E-05,2.8125,0,0
-2.26505326281767E-05,9.98157156573143E-06,2.8125,0,0
-2.26194206334185E-05,8.69957602844806E-06,2.8125,0,0
-2.20377933146665E-05,8.87959959072759E-06,2.8125,0,0
-2.35947354667587E-05,1.02735784821562E-05,2.8125,0,0
-2.32381044042995E-05,1.04251621451112E-05,2.8125,0,0
-2.51657602348132E-05,1.16119690574124E-05,2.8125,0,0
-2.38373631873401E-05,1.08540189103223E-05,2.8125,0,0
-2.44280672632158E-05,9.62876129051438E-06,2.8125,0,0
-2.28254575631581E-05,7.27950282453094E-06,2.8125,0,0
-2.34949620789848E-05,7.78905814513564E-06,2.8125,0,0
-2.21581067307852E-05,9.38452558330027E-06,2.8125,0,0
-2.16103762795683E-05,1.11245572043117E-05,2.8125,0,0
-1.98833458853187E-05,1.06199740912416E-05,2.8125,0,0
-1.99402165890206E-05,9.79912601906108E-06,2.8125,0,0
-1.96280543605099E-05,9.72616999206366E-06,2.8125,0,0
-2.13402054214384E-05,1.00146644399501E-05,2.8125,0,0
-2.25871099246433E-05,9.68861513683805E-06,2.8125,0,0
-2.26666488742922E-05,9.89813361229608E-06,2.8125,0,0
-1.82676267286297E-05,7.36022457203944E-06,2.8125,0,0
-2.66973493125988E-05,9.25853964872658E-06,2.8125,0,0
-2.20688125409652E-05,6.50683205094538E-06,2.8125,0,0
-2.71770604740595E-05,1.01506948340102E-05,2.8125,0,0
-2.3041957319947E-05,9.55261930357665E-06,2.8125,0,0
-2.57165411312599E-05,9.01002204045653E-06,2.8125,0,0
-2.43991162278689E-05,5.91969455854269E-06,2.8125,0,0
-2.55764061876107E-05,6.72846181259956E-06,2.8125,0,0
-2.42468177020783E-05,6.93066931489739E-06,2.8125,0,0
-2.41926572925877E-05,7.28351960788132E-06,2.8125,0,0
-2.65725429926533E-05,8.63282548380084E-06,2.8125,0,0
-2.90428743028315E-05,9.99051371763926E-06,2.8125,0,0
-3.11320254695602E-05,1.1264652130194E-05,2.8125,0,0
-2.99640287266811E-05,1.14447957457742E-05,2.8125,0,0
-2.99557723337784E-05,1.30703056129278E-05,2.8125,0,0
-2.73988480330445E-05,1.34993379106163E-05,2.8125,0,0
-2.74355752480915E-05,1.35698664962547E-05,2.8125,0,0
-2.69406609731959E-05,1.21536641017883E-05,2.8125,0,0
-2.75930469797459E-05,1.25332253446686E-05,2.8125,0,0
-2.52005775109865E-05,1.26605864352314E-05,2.8125,0,0
-2.45399678533431E-05,1.24467424029717E-05,2.8125,0,0
-2.22284706978826E-05,1.17979434435256E-05,2.8125,0,0
-2.0815803509322E-05,1.22523197205737E-05,2.8125,0,0
-2.09073605219601E-05,1.12319303298136E-05,2.8125,0,0
-2.25865387619706E-05,8.9133054643753E-06,2.8125,0,0
-2.36811138165649E-05,8.23863956611604E-06,2.8125,0,0
-2.37702606682433E-05,1.19110873129102E-05,2.8125,0,0
-1.81159375642892E-05,1.25278274936136E-05,2.8125,0,0
-2.57301817327971E-05,1.62207616085652E-05,2.8125,0,0
-1.97488916455768E-05,8.62762772158021E-06,2.8125,0,0
-2.41139041463612E-05,1.08802651084261E-05,2.8125,0,0
-2.0172932636342E-05,1.04964283309528E-05,2.8125,0,0
-2.35504812735599E-05,1.36137059598695E-05,2.8125,0,0
-2.22783564822748E-05,1.23659501696238E-05,2.8125,0,0
-2.35840725508751E-05,1.34491301650996E-05,2.8125,0,0
-2.31049325520871E-05,1.23822765090154E-05,2.8125,0,0
-2.34636645473074E-05,1.09899583549122E-05,2.8125,0,0
-2.35505758610088E-05,1.03853808468557E-05,2.8125,0,0
-2.22259659494739E-05,9.74515660345787E-06,2.8125,0,0
-2.28162116400199E-05,1.05067711047013E-05,2.8125,0,0
-2.26021584239788E-05,1.03806059996714E-05,2.8125,0,0
-2.41607249336084E-05,1.14566109914449E-05,2.8125,0,0
-2.32313832384534E-05,1.12326524686068E-05,2.8125,0,0
-2.45864011958474E-05,1.15805059976992E-05,2.8125,0,0
-2.44925504375715E-05,9.48951401369413E-06,2.8125,0,0
-2.58725576713914E-05,9.74723661784083E-06,2.8125,0,0
-2.45275277848123E-05,1.00286952147144E-05,2.8125,0,0
-2.423394289508E-05,1.07561672848533E-05,2.8125,0,0
-2.27982782234903E-05,1.0246735655528E-05,2.8125,0,0
-2.30245459533762E-05,1.05541430457379E-05,2.8125,0,0
-2.397225034656E-05,1.05902636278188E-05,2.8125,0,0
-2.48421183641767E-05,1.15103284770157E-05,2.8125,0,0
-2.37395979638677E-05,1.16422206701827E-05,2.8125,0,0
-2.2823969629826E-05,1.12097350211116E-05,2.8125,0,0
-2.03011040866841E-05,8.45058275444899E-06,2.8125,0,0
-3.18420898111071E-05,1.31741344375769E-05,2.8125,0,0
-2.72684628725983E-05,1.17532790682162E-05,2.8125,0,0
-3.04021432384616E-05,1.34397932924912E-05,2.8125,0,0
-2.36918112932472E-05,1.00471170298988E-05,2.8125,0,0
-2.41362286033109E-05,9.50907360675046E-06,2.8125,0,0
-2.11789665627293E-05,8.6026375356596E-06,2.8125,0,0
-2.16298631130485E-05,1.11303870653501E-05,2.8125,0,0
-2.08181172638433E-05,1.29035961435875E-05,2.8125,0,0
-2.09274530789116E-05,1.29442323668627E-05,2.8125,0,0
-2.06860313483048E-05,1.15183893285575E-05,2.8125,0,0
-1.99281239474658E-05,9.77112449618289E-06,2.8125,0,0
-2.22415255848318E-05,9.63382262852974E-06,2.8125,0,0
-2.29447541642003E-05,1.01007681223564E-05,2.8125,0,0
-2.40208992181579E-05,1.15409975478542E-05,2.8125,0,0
-2.29264733206946E-05,1.16488054118236E-05,2.8125,0,0
-2.52171575993998E-05,1.29016407299787E-05,2.8125,0,0
-2.54128572123591E-05,1.36462267619208E-05,2.8125,0,0
-2.56057501246687E-05,1.35923201014521E-05,2.8125,0,0
-2.29217730520759E-05,1.12476345748291E-05,2.8125,0,0
-2.16939206438838E-05,1.00440020105452E-05,2.8125,0,0
-1.97601420950377E-05,9.48870092543075E-06,2.8125,0,0
-1.99386849999428E-05,1.00750003184658E-05,2.8125,0,0
-2.04423995455727E-05,1.03827751445351E-05,2.8125,0,0
-2.09108948183712E-05,1.0141122402274E-05,2.8125,0,0
-2.05522937903879E-05,9.18167552299565E-06,2.8125,0,0
-2.17162760236533E-05,1.01405066743609E-05,2.8125,0,0
-1.8113272744813E-05,9.94136098597664E-06,2.8125,0,0
-2.53380349022336E-05,1.54389417730272E-05,2.8125,0,0
-1.86680626939051E-05,1.30577273012022E-05,2.8125,0,0
-2.33977116295137E-05,1.48554427141789E-05,2.8125,0,0
-1.93003652384505E-05,1.19218921099673E-05,2.8125,0,0
-2.14542906178394E-05,1.29186582853436E-05,2.8125,0,0
-2.06791737582535E-05,1.22101500892313E-05,2.8125,0,0
-2.47224525082856E-05,1.25659071272821E-05,2.8125,0,0
-2.68381190835498E-05,1.19847045425558E-05,2.8125,0,0
-2.70722721325001E-05,1.14174299596925E-05,2.8125,0,0
-2.58484160440275E-05,1.17697491077706E-05,2.8125,0,0
-2.47944699367508E-05,1.23718855320476E-05,2.8125,0,0
-2.67381310550263E-05,1.27117673400789E-05,2.8125,0,0
-2.60396445810329E-05,1.26038048620103E-05,2.8125,0,0
-2.63012661889661E-05,1.46025076901424E-05,2.8125,0,0
-2.50518041866599E-05,1.49713150676689E-05,2.8125,0,0
-2.59540538536385E-05,1.37350680233794E-05,2.8125,0,0
-2.56097537203459E-05,9.912406312651E-06,2.8125,0,0
-2.79126961686416E-05,7.69457801652607E-06,2.8125,0,0
-2.89517774945125E-05,6.69335713610053E-06,2.8125,0,0
-3.06866313621867E-05,7.58258784117061E-06,2.8125,0,0
-2.94750734610716E-05,8.75077148521086E-06,2.8125,0,0
-2.7985170163447E-05,1.07410842247191E-05,2.8125,0,0
-2.69600150204496E-05,1.1512736818986E-05,2.8125,0,0
-2.71854551101569E-05,1.30920852825511E-05,2.8125,0,0
-2.70232740149368E-05,1.32425166157191E-05,2.8125,0,0
-2.83205863524927E-05,1.07229698187439E-05,2.8125,0,0
-2.31403264479013E-05,6.40651069261367E-06,2.8125,0,0
-3.23772255796939E-05,9.08918082132004E-06,2.8125,0,0
-2.36705927818548E-05,7.69580856285756E-06,2.8125,0,0
-2.93091561616166E-05,9.99978601612384E-06,2.8125,0,0
-2.448779741826E-05,9.55398445512401E-06,2.8125,0,0
-2.78530023933854E-05,1.24775624499307E-05,2.8125,0,0
-2.43272806983441E-05,1.33307567011798E-05,2.8125,0,0
-2.43865015363554E-05,1.43167017085943E-05,2.8125,0,0
-2.36047962971497E-05,1.39000203489559E-05,2.8125,0,0
-2.44930670305621E-05,1.3569969269156E-05,2.8125,0,0
-2.53983180300565E-05,1.31301540022832E-05,2.8125,0,0
-2.41658599406946E-05,1.18432935778401E-05,2.8125,0,0
-2.33190421567997E-05,9.66838706517592E-06,2.8125,0,0
-2.02233368327143E-05,6.59562147120596E-06,2.8125,0,0
-2.12423365155701E-05,5.41346980753588E-06,2.8125,0,0
-2.10137259273324E-05,5.59637464903062E-06,2.8125,0,0
-2.33710470638471E-05,6.9181351136649E-06,2.8125,0,0
-2.29368051805068E-05,6.56739211990498E-06,2.8125,0,0
-2.39153578149853E-05,7.69195048633264E-06,2.8125,0,0
-2.27432137762662E-05,9.06459808902582E-06,2.8125,0,0
-2.33784467127407E-05,1.0012658094638E-05,2.8125,0,0
-2.24495470320107E-05,8.85082954482641E-06,2.8125,0,0
-2.36586929531768E-05,7.32773241907125E-06,2.8125,0,0
-2.39590826822678E-05,6.23518144493573E-06,2.8125,0,0
-2.32632119150367E-05,6.1667033151025E-06,2.8125,0,0
-2.09083718800684E-05,7.56201870899531E-06,2.8125,0,0
-1.99363967112731E-05,1.08104322862346E-05,2.8125,0,0
-1.55495763465296E-05,9.39217261475278E-06,2.8125,0,0
-2.21651498577558E-05,1.19075357360998E-05,2.8125,0,0
-1.82950825546868E-05,6.93722267897101E-06,2.8125,0,0
-2.34275412367424E-05,9.92989043879788E-06,2.8125,0,0
-1.96796772797825E-05,1.00879360616091E-05,2.8125,0,0
-2.13806706597097E-05,1.24440603030962E-05,2.8125,0,0
-1.84129694389412E-05,1.05100580185535E-05,2.8125,0,0
-1.72745767486049E-05,9.9743738246616E-06,2.8125,0,0
-1.61549469339661E-05,8.79331128089689E-06,2.8125,0,0
-1.73218959389487E-05,8.90235605766065E-06,2.8125,0,0
-1.92494153452571E-05,9.18247769732261E-06,2.8125,0,0
-1.90801110875327E-05,8.47002502268879E-06,2.8125,0,0
-1.88235262612579E-05,8.07259311841335E-06,2.8125,0,0
-1.74969409272308E-05,7.05287766322726E-06,2.8125,0,0
-1.95014981727581E-05,7.89265322964638E-06,2.8125,0,0
-2.04542266146746E-05,8.15910152596189E-06,2.8125,0,0
-2.25303210754646E-05,9.05666274775285E-06,2.8125,0,0
-2.21174668695312E-05,8.0168565546046E-06,2.8125,0,0
-2.30548157560406E-05,7.56267172619118E-06,2.8125,0,0
-2.3140275516198E-05,6.53634378977586E-06,2.8125,0,0
-2.41658945014933E-05,7.73200372350402E-06,2.8125,0,0
-2.33933133131359E-05,8.95828088687267E-06,2.8125,0,0
-2.32809761655517E-05,9.11934785108315E-06,2.8125,0,0
-2.33338632824598E-05,6.93401125317905E-06,2.8125,0,0
-2.28636545216432E-05,5.35177377969376E-06,2.8125,0,0
-2.17847264138982E-05,5.1938463911938E-06,2.8125,0,0
-2.22551861952525E-05,6.52850212645717E-06,2.8125,0,0
-1.94809490494663E-05,5.04888930663583E-06,2.8125,0,0
-2.84487123280996E-05,6.88718046149006E-06,2.8125,0,0
-2.12373797694454E-05,4.9571031013329E-06,2.8125,0,0
-2.4656788809807E-05,5.56868963030865E-06,2.8125,0,0
-2.0721114196931E-05,5.19529930897988E-06,2.8125,0,0
-2.40164245042251E-05,7.53796439312282E-06,2.8125,0,0
-2.28130738832988E-05,7.31540876586223E-06,2.8125,0,0
-2.32523834711174E-05,7.91392176324734E-06,2.8125,0,0
-2.09525969694369E-05,7.72411112848204E-06,2.8125,0,0
-1.89247984963004E-05,9.18558544071857E-06,2.8125,0,0
-1.7274451238336E-05,1.15743214337272E-05,2.8125,0,0
-1.65795718203299E-05,1.1192612873856E-05,2.8125,0,0
-1.89842303370824E-05,8.94003915163921E-06,2.8125,0,0
-1.91441849892726E-05,8.20087461761432E-06,2.8125,0,0
-2.0483261323534E-05,1.04465552794863E-05,2.8125,0,0
-2.03669696929865E-05,1.16161527330405E-05,2.8125,0,0
-2.21222362597473E-05,1.15977327368455E-05,2.8125,0,0
-2.1110892703291E-05,1.02599797173752E-05,2.8125,0,0
-2.16007410926977E-05,1.06172283267369E-05,2.8125,0,0
-2.06853655981831E-05,1.1478678061394E-05,2.8125,0,0
-2.21431528188987E-05,1.33510002342518E-05,2.8125,0,0
-2.27555174205918E-05,1.50389914779225E-05,2.8125,0,0
-2.3728542146273E-05,1.64417397172656E-05,2.8125,0,0
-2.47352654696442E-05,1.54955905600218E-05,2.8125,0,0
-2.76805894827703E-05,1.35532636704738E-05,2.8125,0,0
-2.95746231131488E-05,1.28891624626704E-05,2.8125,0,0
-2.93320463242708E-05,1.32398081404972E-05,2.8125,0,0
-2.27349974011304E-05,1.0472771464265E-05,2.8125,0,0
-3.2319214369636E-05,1.35952595883282E-05,2.8125,0,0
-2.48811520577874E-05,9.8190921562491E-06,2.8125,0,0
-3.03095184790436E-05,1.32107998069841E-05,2.8125,0,0
-2.57178326137364E-05,1.10036153273541E-05,2.8125,0,0
-3.00462397717638E-05,1.44205905598938E-05,2.8125,0,0
-2.67588347924175E-05,1.34613537738915E-05,2.8125,0,0
-2.65281851170585E-05,1.24197385957814E-05,2.8125,0,0
-2.59676107816631E-05,1.0801211828948E-05,2.8125,0,0
-2.73477271548472E-05,1.10675846372033E-05,2.8125,0,0
-2.71520293608774E-05,1.2032419363095E-05,2.8125,0,0
-2.54215010500047E-05,1.20823760880739E-05,2.8125,0,0
-2.66615315922536E-05,1.2583564966917E-05,2.8125,0,0
-2.65977814706275E-05,1.08851108961971E-05,2.8125,0,0
-2.86633749055909E-05,1.0327884410799E-05,2.8125,0,0
-2.82918626908213E-05,9.78565276454901E-06,2.8125,0,0
-2.99786715913797E-05,1.20586873890716E-05,2.8125,0,0
-2.77259914582828E-05,1.29094032672583E-05,2.8125,0,0
-2.7902966394322E-05,1.33875983010512E-05,2.8125,0,0
-2.71927674475592E-05,1.21299999591429E-05,2.8125,0,0
-2.84500201814808E-05,1.15651146188611E-05,2.8125,0,0
-2.79836713161785E-05,1.00981724244775E-05,2.8125,0,0
-2.79930609394796E-05,1.02475260064239E-05,2.8125,0,0
-2.58622185356217E-05,1.14371250674594E-05,2.8125,0,0
-2.54412261710968E-05,1.2736103599309E-05,2.8125,0,0
-2.52305399044417E-05,1.35489572130609E-05,2.8125,0,0
-2.61242112173932E-05,1.53909440996358E-05,2.8125,0,0
-2.16617136175046E-05,1.2937131941726E-05,2.8125,0,0
-2.93074481305666E-05,1.73289990925696E-05,2.8125,0,0
-2.08602232305566E-05,1.18544576253043E-05,2.8125,0,0
-2.81085085589439E-05,1.51749491124065E-05,2.8125,0,0
-2.5448633095948E-05,1.16203309517005E-05,2.8125,0,0
-2.8403737815097E-05,1.30156540762982E-05,2.8125,0,0
-2.39995242736768E-05,1.24291482279659E-05,2.8125,0,0
-2.41731104324572E-05,1.35787167891976E-05,2.8125,0,0
-2.44322200160241E-05,1.27507537399651E-05,2.8125,0,0
-2.53886591963237E-05,1.24342386698117E-05,2.8125,0,0
-2.4411665435764E-05,1.22456012832117E-05,2.8125,0,0
-2.1677207769244E-05,1.05084782262566E-05,2.8125,0,0
-2.22141952690436E-05,9.80474396783393E-06,2.8125,0,0
-2.09028767130803E-05,9.32042257772991E-06,2.8125,0,0
-2.20106358028715E-05,1.07128525996814E-05,2.8125,0,0
-2.12874419958098E-05,9.9776079878211E-06,2.8125,0,0
-2.34304570767563E-05,1.03819056676002E-05,2.8125,0,0
-2.27886230277363E-05,1.02858557511354E-05,2.8125,0,0
-2.35428251471603E-05,1.17284025691333E-05,2.8125,0,0
-2.21410209633177E-05,1.06947964013671E-05,2.8125,0,0
-2.36512860283256E-05,9.5660343504278E-06,2.8125,0,0
-2.49007734964835E-05,7.35070989321684E-06,2.8125,0,0
-2.66697625193046E-05,6.81890969644883E-06,2.8125,0,0
-2.6594858354656E-05,7.46524301575846E-06,2.8125,0,0
-2.67424511548597E-05,8.63380773807876E-06,2.8125,0,0
-2.68517578660976E-05,9.14617885428015E-06,2.8125,0,0
-2.69610955001554E-05,9.2727605078835E-06,2.8125,0,0
-2.24760242417688E-05,6.41726774119888E-06,2.8125,0,0
-3.27072739310097E-05,8.68365259520942E-06,2.8125,0,0
-2.52393183473032E-05,6.50147376290988E-06,2.8125,0,0
-2.88580758933676E-05,9.08256515685935E-06,2.8125,0,0
-2.21734917431604E-05,8.30844419397181E-06,2.8125,0,0
-2.52011377597228E-05,8.48559193400433E-06,2.8125,0,0
-2.38195607380476E-05,5.78818116991897E-06,2.8125,0,0
-2.59330154221971E-05,5.01995555168833E-06,2.8125,0,0
-2.51428864430636E-05,6.52851304039359E-06,2.8125,0,0
-2.38791435549501E-05,9.32985949475551E-06,2.8125,0,0
-2.2631669708062E-05,1.13834030344151E-05,2.8125,0,0
-2.09785393963102E-05,1.23660574899986E-05,2.8125,0,0
-2.22764192585601E-05,1.27216344480985E-05,2.8125,0,0
-2.25500771193765E-05,1.153164794232E-05,2.8125,0,0
-2.49868699029321E-05,1.17923709694878E-05,2.8125,0,0
-2.45740338868927E-05,1.20933618745767E-05,2.8125,0,0
-2.55879658652702E-05,1.30070648083347E-05,2.8125,0,0
-2.32348829740658E-05,1.25354245028575E-05,2.8125,0,0
-2.33932678384008E-05,1.27772400446702E-05,2.8125,0,0
-2.21743994188728E-05,1.37354400067125E-05,2.8125,0,0
-2.29086417675717E-05,1.58183993335115E-05,2.8125,0,0
-2.29600809689146E-05,1.55076268129051E-05,2.8125,0,0
-2.35380248341244E-05,1.39836283779005E-05,2.8125,0,0
-2.16972675843863E-05,1.41753007483203E-05,2.8125,0,0
-2.08854416996473E-05,1.49312700159498E-05,2.8125,0,0
-2.04059870156925E-05,1.44212799568777E-05,2.8125,0,0
-1.92957995750476E-05,1.33888952404959E-05,2.8125,0,0
-1.48709068525932E-05,1.00694178399863E-05,2.8125,0,0
-2.23784809350036E-05,1.35363688968937E-05,2.8125,0,0
-1.95315733435564E-05,8.75166006153449E-06,2.8125,0,0
-2.35029656323604E-05,1.05745821201708E-05,2.8125,0,0
-1.98372999875573E-05,8.66181744640926E-06,2.8125,0,0
-2.24321720452281E-05,1.09964621515246E-05,2.8125,0,0
-2.26939719141228E-05,1.01774376162211E-05,2.8125,0,0
-2.54414590017404E-05,1.12985899249907E-05,2.8125,0,0
-2.54002625297289E-05,1.22592055049608E-05,2.8125,0,0
-2.48887918132823E-05,1.30974294734187E-05,2.8125,0,0
-2.42601254285546E-05,1.36368171297363E-05,2.8125,0,0
-2.32677066378528E-05,1.3669166037289E-05,2.8125,0,0
-2.3582264475408E-05,1.46162092278246E-05,2.8125,0,0
-2.18318127735984E-05,1.44644391184556E-05,2.8125,0,0
-2.22089693124872E-05,1.37996139528695E-05,2.8125,0,0
-2.19276371353772E-05,1.08212852865108E-05,2.8125,0,0
-2.33602004300337E-05,8.79099115991266E-06,2.8125,0,0
-2.26571501116268E-05,6.93891888658982E-06,2.8125,0,0
-2.38454049394932E-05,8.62836077430984E-06,2.8125,0,0
-2.48802953137783E-05,1.10065557237249E-05,2.8125,0,0
-2.63875954260584E-05,1.40190186357358E-05,2.8125,0,0
-2.59367661783472E-05,1.47535602081916E-05,2.8125,0,0
-2.63097736024065E-05,1.49404877447523E-05,2.8125,0,0
-2.45041501329979E-05,1.57797603606014E-05,2.8125,0,0
-2.16998232644983E-05,1.67050056916196E-05,2.8125,0,0
-1.97802892216714E-05,1.50108462548815E-05,2.8125,0,0
-1.94920776266372E-05,1.26236482174136E-05,2.8125,0,0
-1.6748288544477E-05,1.0496339200472E-05,2.8125,0,0
-2.48524793278193E-05,1.514852829132E-05,2.8125,0,0
-2.01759321498685E-05,1.28940200738725E-05,2.8125,0,0
-2.45322335103992E-05,1.59936771524372E-05,2.8125,0,0
-2.11458864214364E-05,1.24167863759794E-05,2.8125,0,0
-2.35776824411005E-05,1.21481089081499E-05,2.8125,0,0
-2.20387264562305E-05,1.01756550066057E-05,2.8125,0,0
-2.26984484470449E-05,1.23751096907654E-05,2.8125,0,0
-2.12399208976422E-05,1.3712983673031E-05,2.8125,0,0
-2.04327352548717E-05,1.28215515360353E-05,2.8125,0,0
-2.12160084629431E-05,1.02085678008734E-05,2.8125,0,0
-2.13690982491244E-05,7.55841574573424E-06,2.8125,0,0
-2.18604636756936E-05,7.88411671237554E-06,2.8125,0,0
-2.11218539334368E-05,8.45640261104563E-06,2.8125,0,0
-2.28370900003938E-05,1.12158259071293E-05,2.8125,0,0
-2.33513619605219E-05,1.37853603519034E-05,2.8125,0,0
-2.50154316745466E-05,1.7262618712266E-05,2.8125,0,0
-2.36333162320079E-05,1.75992117874557E-05,2.8125,0,0
-2.34945855481783E-05,1.74221022462007E-05,2.8125,0,0
-2.37090225709835E-05,1.55279176397016E-05,2.8125,0,0
-2.59834159805905E-05,1.49414427141892E-05,2.8125,0,0
-2.57644260273082E-05,1.51716913023847E-05,2.8125,0,0
-2.52979971264722E-05,1.59419651026838E-05,2.8125,0,0
-2.48765772994375E-05,1.50508858496323E-05,2.8125,0,0
-2.57192587014288E-05,1.33779922180111E-05,2.8125,0,0
-2.55694358202163E-05,1.2058051652275E-05,2.8125,0,0
-2.60258420894388E-05,1.34155434352579E-05,2.8125,0,0
-2.24625691771507E-05,1.18438902063644E-05,2.8125,0,0
-3.11406402033754E-05,1.49952047650004E-05,2.8125,0,0
-2.24333925871179E-05,8.1346906881663E-06,2.8125,0,0
-2.80139465758111E-05,1.13422020149301E-05,2.8125,0,0
-2.26924476010026E-05,1.06400229924475E-05,2.8125,0,0
-2.47305524680996E-05,1.34351539600175E-05,2.8125,0,0
-2.31184822041541E-05,1.1833074495371E-05,2.8125,0,0
-2.62416342593497E-05,1.1887858818227E-05,2.8125,0,0
-2.54056303674588E-05,1.15381044452079E-05,2.8125,0,0
-2.38766824622871E-05,1.13197975224466E-05,2.8125,0,0
-2.30542627832619E-05,1.15790080599254E-05,2.8125,0,0
-2.3228411009768E-05,1.16005812742515E-05,2.8125,0,0
-2.58221461990615E-05,1.21381344797555E-05,2.8125,0,0
-2.52706686296733E-05,1.11306635517394E-05,2.8125,0,0
-2.58599447988672E-05,1.17019762910786E-05,2.8125,0,0
-2.43795257119928E-05,1.14339172796463E-05,2.8125,0,0
-2.69506963377353E-05,1.21583962027216E-05,2.8125,0,0
-2.67748673650203E-05,1.05136059573852E-05,2.8125,0,0
-2.70507862296654E-05,9.22337858355604E-06,2.8125,0,0
-2.44970087805996E-05,7.76522119849687E-06,2.8125,0,0
-2.45547489612363E-05,8.43763882585336E-06,2.8125,0,0
-2.32599068112904E-05,8.41417386254761E-06,2.8125,0,0
-2.27384425670607E-05,8.56862425280269E-06,2.8125,0,0
-2.12396116694435E-05,7.7360427894746E-06,2.8125,0,0
-2.10375965252751E-05,6.64213666823343E-06,2.8125,0,0
-2.11618389585055E-05,5.87042995903175E-06,2.8125,0,0
-2.15395084524062E-05,5.85203451919369E-06,2.8125,0,0
-1.64889588631922E-05,4.78805714010377E-06,2.8125,0,0
-2.18230361497262E-05,7.14522866473999E-06,2.8125,0,0
-1.41769614856457E-05,7.65422646509251E-06,2.8125,0,0
-1.84506097866688E-05,9.92679724731715E-06,2.8125,0,0
-1.69856721186079E-05,7.04596823197789E-06,2.8125,0,0
-2.15779746213229E-05,6.15614544585696E-06,2.8125,0,0
-2.05355408979813E-05,5.44515387446154E-06,2.8125,0,0
-2.2208652808331E-05,5.52346182303154E-06,2.8125,0,0
-2.27434356929734E-05,5.41823919775197E-06,2.8125,0,0
-2.31075591727858E-05,6.00961584495963E-06,2.8125,0,0
-2.30078567255987E-05,6.17337764197146E-06,2.8125,0,0
-2.24291288759559E-05,6.35370952295489E-06,2.8125,0,0
-2.3221735318657E-05,7.31718591850949E-06,2.8125,0,0
-2.21711688936921E-05,7.12409200787079E-06,2.8125,0,0
-2.26002466661157E-05,6.9111583798076E-06,2.8125,0,0
-2.13575931411469E-05,6.63723403704353E-06,2.8125,0,0
-2.26588836085284E-05,7.7289678301895E-06,2.8125,0,0
-2.26176598516759E-05,8.47105184220709E-06,2.8125,0,0
-2.39677883655531E-05,9.15220243768999E-06,2.8125,0,0
-2.37911826843629E-05,8.27639996714424E-06,2.8125,0,0
-2.47107782342937E-05,7.74802720115986E-06,2.8125,0,0
-2.40962690440938E-05,7.78543471824378E-06,2.8125,0,0
-2.38767770497361E-05,7.96539552538889E-06,2.8125,0,0
-2.22089474846143E-05,6.86421344653354E-06,2.8125,0,0
-2.25361964112381E-05,6.17095474808593E-06,2.8125,0,0
-2.23824645217974E-05,6.92080493536196E-06,2.8125,0,0
-2.07503526326036E-05,7.7366612458718E-06,2.8125,0,0
-1.59387709572911E-05,5.58351848667371E-06,2.8125,0,0
-2.31587928283261E-05,7.40732548365486E-06,2.8125,0,0
-1.9545666873455E-05,5.66339167562546E-06,2.8125,0,0
-2.45782521233195E-05,8.83010579855181E-06,2.8125,0,0
-2.09575937333284E-05,9.57758402364561E-06,2.8125,0,0
-2.35591687669512E-05,1.1032861948479E-05,2.8125,0,0
-2.25578551180661E-05,9.19915964914253E-06,2.8125,0,0
-2.46186264121206E-05,7.74697855376871E-06,2.8125,0,0
-2.41966517933179E-05,8.20595869299723E-06,2.8125,0,0
-2.33356022363296E-05,1.13792539195856E-05,2.8125,0,0
-2.38963311858242E-05,1.27347066154471E-05,2.8125,0,0
-2.51891724474262E-05,1.06117158793495E-05,2.8125,0,0
-2.73831647064071E-05,8.44678743305849E-06,2.8125,0,0
-2.63603105850052E-05,8.74700253916672E-06,2.8125,0,0
-2.66155275312485E-05,1.06287998278276E-05,2.8125,0,0
-2.69121010205708E-05,1.0387996553618E-05,2.8125,0,0
-3.00534011330456E-05,9.60047691478394E-06,2.8125,0,0
-3.00565279758302E-05,8.02575959824026E-06,2.8125,0,0
-3.01145373668987E-05,7.80862228566548E-06,2.8125,0,0
-2.86487502307864E-05,7.71562281443039E-06,2.8125,0,0
-2.83026947727194E-05,8.07424567028647E-06,2.8125,0,0
-2.70386335614603E-05,8.12736470834352E-06,2.8125,0,0
-2.82950204564258E-05,9.59427597990725E-06,2.8125,0,0
-2.94712262984831E-05,1.15979455586057E-05,2.8125,0,0
-2.93866614811122E-05,1.30383023133618E-05,2.8125,0,0
-2.76176160696195E-05,1.33214462039177E-05,2.8125,0,0
-2.63753427134361E-05,1.36465223476989E-05,2.8125,0,0
-2.20557303691749E-05,1.00688966995222E-05,2.8125,0,0
-3.20059625664726E-05,1.48536437336588E-05,2.8125,0,0
-2.52292084041983E-05,1.26813829410821E-05,2.8125,0,0
-3.10524628730491E-05,1.38803134177579E-05,2.8125,0,0
-2.70059881586349E-05,1.01026607808308E-05,2.8125,0,0
-3.01952259178506E-05,1.3119828508934E-05,2.8125,0,0
-2.7341158784111E-05,1.32754057631246E-05,2.8125,0,0
-2.83141762338346E-05,1.40914335133857E-05,2.8125,0,0
-2.72156976279803E-05,1.38237101054983E-05,2.8125,0,0
-2.69191677944036E-05,1.41311329571181E-05,2.8125,0,0
-2.72978522843914E-05,1.34771753437235E-05,2.8125,0,0
-2.6785273803398E-05,1.21757657325361E-05,2.8125,0,0
-2.74724206974497E-05,1.19031174108386E-05,2.8125,0,0
-2.6328621970606E-05,1.18023890536278E-05,2.8125,0,0
-2.80500989902066E-05,1.33723842736799E-05,2.8125,0,0
-2.65800863417098E-05,1.3398242117546E-05,2.8125,0,0
-2.62326411757385E-05,1.42329508889816E-05,2.8125,0,0
-2.40288118220633E-05,1.36434828164056E-05,2.8125,0,0
-2.4851598936948E-05,1.41976724989945E-05,2.8125,0,0
-2.39701803366188E-05,1.38148161568097E-05,2.8125,0,0
-2.49171989707975E-05,1.47389228004613E-05,2.8125,0,0
-2.36948253586888E-05,1.48131193782319E-05,2.8125,0,0
-2.29742163355695E-05,1.45919329952449E-05,2.8125,0,0
-2.16020871448563E-05,1.27902922031353E-05,2.8125,0,0
-2.21475474972976E-05,1.06174147731508E-05,2.8125,0,0
-2.37196745729307E-05,8.98566850082716E-06,2.8125,0,0
-2.55184131674469E-05,8.65324545884505E-06,2.8125,0,0
-2.05686792469351E-05,7.23972016203334E-06,2.8125,0,0
-2.77638500847388E-05,1.12838979475782E-05,2.8125,0,0
-1.82832682185108E-05,1.01274681583163E-05,2.8125,0,0
-2.27483888011193E-05,1.20363447422278E-05,2.8125,0,0
-1.87960085895611E-05,9.7278825705871E-06,2.8125,0,0
-2.28033932216931E-05,9.29230918700341E-06,2.8125,0,0
-2.32967959163943E-05,7.85514930612408E-06,2.8125,0,0
-2.64946884271922E-05,8.40235225041397E-06,2.8125,0,0
-2.51841192948632E-05,9.15794589673169E-06,2.8125,0,0
-2.4003122234717E-05,9.99298299575457E-06,2.8125,0,0
-2.39253822655883E-05,1.09538159449585E-05,2.8125,0,0
-2.36782543652225E-05,1.0792739885801E-05,2.8125,0,0
-2.50025914283469E-05,1.06461948234937E-05,2.8125,0,0
-2.35309216805035E-05,1.00989682323416E-05,2.8125,0,0
-2.46767813223414E-05,9.92036621028092E-06,2.8125,0,0
-2.4632150598336E-05,8.83135544427205E-06,2.8125,0,0
-2.59691732935607E-05,8.51630011311499E-06,2.8125,0,0
-2.37492731685052E-05,8.00992529548239E-06,2.8125,0,0
-2.31650519708637E-05,9.07046887732577E-06,2.8125,0,0
-2.15621112147346E-05,9.6365702120238E-06,2.8125,0,0
-2.21334594243672E-05,9.72215912042884E-06,2.8125,0,0
-2.07328084798064E-05,8.42861300043296E-06,2.8125,0,0
-2.08704404940363E-05,7.74721229390707E-06,2.8125,0,0
-2.08434630621923E-05,8.38173036754597E-06,2.8125,0,0
-2.12053200812079E-05,9.56663188844686E-06,2.8125,0,0
-2.10696198337246E-05,1.00760735222138E-05,2.8125,0,0
-2.20566544157919E-05,1.05005028672167E-05,2.8125,0,0
-1.86632150871446E-05,8.57311897561885E-06,2.8125,0,0
-2.59745720541105E-05,1.31171900648042E-05,2.8125,0,0
-1.90736300282879E-05,1.15077027658117E-05,2.8125,0,0
-2.40969766309718E-05,1.35767186293378E-05,2.8125,0,0
-2.04022835532669E-05,1.17180579763954E-05,2.8125,0,0
-2.31082376558334E-05,1.39743024192285E-05,2.8125,0,0
-2.18989061977481E-05,1.3351167581277E-05,2.8125,0,0
-2.38759530475363E-05,1.35446362037328E-05,2.8125,0,0
-2.31307167268824E-05,1.30086591525469E-05,2.8125,0,0
-2.2897234885022E-05,1.28725569084054E-05,2.8125,0,0
-2.31662525038701E-05,1.2786761544703E-05,2.8125,0,0
-2.19641678995686E-05,1.16708670248045E-05,2.8125,0,0
-2.18838613363914E-05,1.10654573290958E-05,2.8125,0,0
-2.03460131160682E-05,1.01147161331028E-05,2.8125,0,0
-2.11645601666532E-05,1.04705050034681E-05,2.8125,0,0
-2.0127907191636E-05,1.04337668744847E-05,2.8125,0,0
-2.13657440326642E-05,1.19248516057269E-05,2.8125,0,0
-2.11241494980641E-05,1.24046746350359E-05,2.8125,0,0
-2.32077436521649E-05,1.32921004478703E-05,2.8125,0,0
-2.36565756495111E-05,1.31113492898294E-05,2.8125,0,0
-2.41285815718584E-05,1.3385762940743E-05,2.8125,0,0
-2.21603040699847E-05,1.28550273075234E-05,2.8125,0,0
-2.12607355933869E-05,1.15923940029461E-05,2.8125,0,0
-2.05665637622587E-05,1.00698771348107E-05,2.8125,0,0
-2.16729949897854E-05,1.12566076495568E-05,2.8125,0,0
-2.20176552829798E-05,1.35266491270158E-05,2.8125,0,0
-2.23669721890474E-05,1.51246686073137E-05,2.8125,0,0
-1.83911670319503E-05,1.18325233415817E-05,2.8125,0,0
-2.65086982835783E-05,1.50073165059439E-05,2.8125,0,0
-2.13787825487088E-05,9.89387353911297E-06,2.8125,0,0
-2.70310192718171E-05,1.39950016091461E-05,2.8125,0,0
-2.35515581152868E-05,1.19371325126849E-05,2.8125,0,0
-2.55286468018312E-05,1.34500569402007E-05,2.8125,0,0
-2.20989550143713E-05,1.11723766167415E-05,2.8125,0,0
-2.18813165702159E-05,1.19258847917081E-05,2.8125,0,0
-2.15572035813238E-05,1.19214500955422E-05,2.8125,0,0
-2.33625523833325E-05,1.31694550873362E-05,2.8125,0,0
-2.42194128077244E-05,1.32417017084663E-05,2.8125,0,0
-2.28317167056957E-05,1.12400284706382E-05,2.8125,0,0
-2.25355051952647E-05,1.08954964161967E-05,2.8125,0,0
-2.11717051570304E-05,1.00729657788179E-05,2.8125,0,0
-2.24241448449902E-05,1.04896589618875E-05,2.8125,0,0
-2.20988131331978E-05,9.77085528575117E-06,2.8125,0,0
-2.37540498346789E-05,1.11915560410125E-05,2.8125,0,0
-2.31319863814861E-05,1.07481891973293E-05,2.8125,0,0
-2.46489234996261E-05,1.04317359728157E-05,2.8125,0,0
-2.49570730375126E-05,8.86661655385979E-06,2.8125,0,0
-2.59046591963852E-05,9.49044806475285E-06,2.8125,0,0
-2.48107280640397E-05,9.1991951194359E-06,2.8125,0,0
-2.55848535744008E-05,8.91686613613274E-06,2.8125,0,0
-2.64437894657021E-05,9.24077448871685E-06,2.8125,0,0
-2.62299909081776E-05,1.15055345304427E-05,2.8125,0,0
-2.4703973394935E-05,1.21267512440681E-05,2.8125,0,0
-2.54963342740666E-05,1.18727184599265E-05,2.8125,0,0
-2.11090900847921E-05,1.06387560663279E-05,2.8125,0,0
-2.91994820145192E-05,1.54681365529541E-05,2.8125,0,0
-2.09626214200398E-05,1.18448815555894E-05,2.8125,0,0
-2.58112922892906E-05,1.43704091897234E-05,2.8125,0,0
-2.13875264307717E-05,1.20896083899424E-05,2.8125,0,0
-2.4802669940982E-05,1.36156540975207E-05,2.8125,0,0
-2.25135427172063E-05,1.3612396287499E-05,2.8125,0,0
-2.40153131016996E-05,1.32605700855493E-05,2.8125,0,0
-2.32282382057747E-05,1.00403476608335E-05,2.8125,0,0
-2.31366320804227E-05,8.06038133305265E-06,2.8125,0,0
-2.32915645028697E-05,8.81964751897613E-06,2.8125,0,0
-2.23696843022481E-05,1.05376120700384E-05,2.8125,0,0
-2.39150285779033E-05,1.25397855299525E-05,2.8125,0,0
-2.30348359764321E-05,1.19951237138594E-05,2.8125,0,0
-2.3811340724933E-05,1.14765789476223E-05,2.8125,0,0
-2.23988827201538E-05,1.01308305602288E-05,2.8125,0,0
-2.33986738749081E-05,1.03419351944467E-05,2.8125,0,0
-2.15328363992739E-05,9.87076055025682E-06,2.8125,0,0
-2.11643691727659E-05,1.03623697214061E-05,2.8125,0,0
-1.94684453163063E-05,9.7815427579917E-06,2.8125,0,0
-2.08942983590532E-05,1.02992598840501E-05,2.8125,0,0
-2.09217323572375E-05,1.04270375231863E-05,2.8125,0,0
-2.09518530027708E-05,1.06869147202815E-05,2.8125,0,0
-2.07130633498309E-05,1.03338907138095E-05,2.8125,0,0
-2.18260174733587E-05,9.21858372748829E-06,2.8125,0,0
-2.17885190068046E-05,6.6998304646404E-06,2.8125,0,0
-2.07556131499587E-05,5.20650974067394E-06,2.8125,0,0
-1.59534847625764E-05,4.51353525932063E-06,2.8125,0,0
-2.20914243982406E-05,6.10169172432506E-06,2.8125,0,0
-1.76546363945818E-05,5.26607027495629E-06,2.8125,0,0
-2.38919110415736E-05,8.44850001158193E-06,2.8125,0,0
-2.07435205084039E-05,9.42451879382133E-06,2.8125,0,0
-2.27885484491708E-05,1.1026792890334E-05,2.8125,0,0
-2.17571341636358E-05,1.13782070911839E-05,2.8125,0,0
-2.35452371271094E-05,1.18770922199474E-05,2.8125,0,0
-2.40842728089774E-05,1.07129326352151E-05,2.8125,0,0
-2.44588045461569E-05,1.03818474599393E-05,2.8125,0,0
-2.34766794164898E-05,1.06668057924253E-05,2.8125,0,0
-2.17452925426187E-05,1.0456053132657E-05,2.8125,0,0
-2.30519653996453E-05,1.07096229839954E-05,2.8125,0,0
-2.42210935539333E-05,1.00055985967629E-05,2.8125,0,0
-2.71032804448623E-05,9.33068986341823E-06,2.8125,0,0
-2.71010139840655E-05,8.67504513735184E-06,2.8125,0,0
-2.72673496510834E-05,9.55203995545162E-06,2.8125,0,0
-2.50308294198476E-05,1.02835165307624E-05,2.8125,0,0
-2.49622207775246E-05,1.18623365779058E-05,2.8125,0,0
-2.3951430193847E-05,1.29891031974694E-05,2.8125,0,0
-2.43246067839209E-05,1.44287605507998E-05,2.8125,0,0
-2.4074823159026E-05,1.38990126288263E-05,2.8125,0,0
-2.53573398367735E-05,1.15566299427883E-05,2.8125,0,0
-2.64441350736888E-05,1.00361585282371E-05,2.8125,0,0
-2.68822423095116E-05,9.65456547419308E-06,2.8125,0,0
-2.54527767538093E-05,1.00609731816803E-05,2.8125,0,0
-2.49216391239315E-05,1.14105714601465E-05,2.8125,0,0
-2.08315996133024E-05,1.07468395071919E-05,2.8125,0,0
-2.97378028335515E-05,1.6216135918512E-05,2.8125,0,0
-2.30116929742508E-05,1.24745556604466E-05,2.8125,0,0
-2.9341887056944E-05,1.38314962896402E-05,2.8125,0,0
-2.58410727838054E-05,1.16161363621359E-05,2.8125,0,0
-2.82744931610068E-05,1.41549953696085E-05,2.8125,0,0
-2.48310916504124E-05,1.32789182316628E-05,2.8125,0,0
-2.50787161348853E-05,1.46763140946859E-05,2.8125,0,0
-2.33948940149276E-05,1.69147842825623E-05,2.8125,0,0
-2.2499734768644E-05,1.75568729900988E-05,2.8125,0,0
-2.34591661865124E-05,1.50606902025174E-05,2.8125,0,0
-2.38830980379134E-05,9.81013999989955E-06,2.8125,0,0
-2.46702184085734E-05,6.6044412960764E-06,2.8125,0,0
-2.3660564693273E-05,6.18556896370137E-06,2.8125,0,0
-2.6272989998688E-05,9.16859062272124E-06,2.8125,0,0
-2.73501136689447E-05,1.02796739156474E-05,2.8125,0,0
-2.97321003017714E-05,1.06290599433123E-05,2.8125,0,0
-2.86166796286125E-05,9.78415482677519E-06,2.8125,0,0
-2.83877507172292E-05,1.06891775430995E-05,2.8125,0,0
-2.61114037130028E-05,1.04491446109023E-05,2.8125,0,0
-2.55143004324054E-05,8.90102546691196E-06,2.8125,0,0
-2.37699605349917E-05,7.06753417034633E-06,2.8125,0,0
-2.43025169766042E-05,8.04477349447552E-06,2.8125,0,0
-2.47032021434279E-05,8.78324772202177E-06,2.8125,0,0
-2.55955746979453E-05,8.9686573119252E-06,2.8125,0,0
-2.57878728007199E-05,8.94037657417357E-06,2.8125,0,0
-2.57027313637082E-05,1.00275701697683E-05,2.8125,0,0
-2.04340230993694E-05,9.40263089432847E-06,2.8125,0,0
-2.8489308533608E-05,1.22907986224163E-05,2.8125,0,0
-2.12450704566436E-05,7.52149480831577E-06,2.8125,0,0
-2.63738129433477E-05,9.76015962805832E-06,2.8125,0,0
-2.09422923944658E-05,8.31446050142404E-06,2.8125,0,0
-2.31499143410474E-05,1.04832879515016E-05,2.8125,0,0
-2.15661584661575E-05,1.1009666195605E-05,2.8125,0,0
-2.45687842834741E-05,1.27916491692304E-05,2.8125,0,0
-2.54478873102926E-05,1.26768982227077E-05,2.8125,0,0
-2.53598718700232E-05,1.14286904135952E-05,2.8125,0,0
-2.5014915081556E-05,9.26644315768499E-06,2.8125,0,0
-2.35969691857463E-05,7.84168241807492E-06,2.8125,0,0
-2.46136842179112E-05,9.23229072213871E-06,2.8125,0,0
-2.44148359342944E-05,9.91983233689098E-06,2.8125,0,0
-2.60998422163539E-05,1.05774488474708E-05,2.8125,0,0
-2.48548003582982E-05,9.71709323493997E-06,2.8125,0,0
-2.46510589931859E-05,1.11373610707233E-05,2.8125,0,0
-2.22233993554255E-05,1.22480478239595E-05,2.8125,0,0
-2.29491488425992E-05,1.21115435831598E-05,2.8125,0,0
-2.27604596148012E-05,9.65449271461694E-06,2.8125,0,0
-2.42350033659022E-05,9.9362077889964E-06,2.8125,0,0
-2.38395969063276E-05,1.08898439066252E-05,2.8125,0,0
-2.31317771977047E-05,1.10211158244056E-05,2.8125,0,0
-2.05798005481483E-05,9.69512075243983E-06,2.8125,0,0
-1.98326943063876E-05,8.99032875167904E-06,2.8125,0,0
-2.09780228033196E-05,9.32385955820791E-06,2.8125,0,0
-2.21355057874462E-05,9.73746682575438E-06,2.8125,0,0
-1.86740089702653E-05,8.04357750894269E-06,2.8125,0,0
-2.67518298642244E-05,1.1669517334667E-05,2.8125,0,0
-2.0610792489606E-05,9.34731997404015E-06,2.8125,0,0
-2.59136395470705E-05,1.12550651465426E-05,2.8125,0,0
-2.20529382204404E-05,9.97942152025644E-06,2.8125,0,0
-2.37490567087661E-05,1.20486929517938E-05,2.8125,0,0
-2.16956595977535E-05,1.1113485925307E-05,2.8125,0,0
-2.22841154027265E-05,1.07746554931509E-05,2.8125,0,0
-2.2651282051811E-05,9.37924414756708E-06,2.8125,0,0
-2.52614663622808E-05,8.6376749095507E-06,2.8125,0,0
-2.7023486836697E-05,8.94369895831915E-06,2.8125,0,0
-2.66777842625743E-05,8.98487814993132E-06,2.8125,0,0
-2.76020200544735E-05,9.27670225792099E-06,2.8125,0,0
-2.63879592239391E-05,8.89168040885124E-06,2.8125,0,0
-2.5973393348977E-05,9.42061888054013E-06,2.8125,0,0
-2.35078441619407E-05,8.93430933501804E-06,2.8125,0,0
-2.37662316067144E-05,1.01852783700451E-05,2.8125,0,0
-2.2714373699273E-05,1.07310306702857E-05,2.8125,0,0
-2.38879565586103E-05,1.08611284304061E-05,2.8125,0,0
-2.40575391217135E-05,9.27049768506549E-06,2.8125,0,0
-2.50737812166335E-05,8.83631037140731E-06,2.8125,0,0
-2.3426822735928E-05,9.39166602620389E-06,2.8125,0,0
-2.25123185373377E-05,1.10068131107255E-05,2.8125,0,0
-2.17717788473237E-05,1.1085288861068E-05,2.8125,0,0
-2.25810672418447E-05,1.05612807601574E-05,2.8125,0,0
-2.35417646763381E-05,1.04431273939554E-05,2.8125,0,0
-2.37273143284256E-05,1.03626834970783E-05,2.8125,0,0
-1.72949494299246E-05,9.53386279434199E-06,2.8125,0,0
-2.3390613932861E-05,1.41986729431665E-05,2.8125,0,0
-1.65076526172925E-05,1.12845600597211E-05,2.8125,0,0
-2.16991884371964E-05,1.31071528812754E-05,2.8125,0,0
-1.87949863175163E-05,1.06312281786813E-05,2.8125,0,0
-2.23668794205878E-05,1.09827687992947E-05,2.8125,0,0
-2.23005445150193E-05,9.31966314965393E-06,2.8125,0,0
-2.46565432462376E-05,1.03928550743149E-05,2.8125,0,0
-2.42508394876495E-05,1.05551098386059E-05,2.8125,0,0
-2.42823698499706E-05,9.22413437365321E-06,2.8125,0,0
-2.3949252863531E-05,7.85373867984163E-06,2.8125,0,0
-2.23182196350535E-05,8.28464999358403E-06,2.8125,0,0
-2.28033986786613E-05,1.05542894743849E-05,2.8125,0,0
-2.26180545723764E-05,1.07133546407567E-05,2.8125,0,0
-2.41430079768179E-05,1.13692949526012E-05,2.8125,0,0
-2.34928302234039E-05,1.21026314445771E-05,2.8125,0,0
-2.53257785516325E-05,1.32726381707471E-05,2.8125,0,0
-2.52176469075494E-05,1.1691865438479E-05,2.8125,0,0
-2.57332230830798E-05,1.06500147012412E-05,2.8125,0,0
-2.41151792579331E-05,1.09229476947803E-05,2.8125,0,0
-2.50704670179402E-05,1.35593800223432E-05,2.8125,0,0
-2.58783056779066E-05,1.41852542583365E-05,2.8125,0,0
-2.64944374066545E-05,1.3396781469055E-05,2.8125,0,0
-2.55880695476662E-05,1.32683480842388E-05,2.8125,0,0
-2.57424344454193E-05,1.51710291902418E-05,2.8125,0,0
-2.58409272646531E-05,1.52584243551246E-05,2.8125,0,0
-2.61146797129186E-05,1.34765541588422E-05,2.8125,0,0
-2.13748444366502E-05,8.98941198101966E-06,2.8125,0,0
-3.10401082970202E-05,1.18488933367189E-05,2.8125,0,0
-2.44886978180148E-05,9.41216330829775E-06,2.8125,0,0
-3.02602038573241E-05,1.29402460515848E-05,2.8125,0,0
-2.51262408710318E-05,9.29243651626166E-06,2.8125,0,0
-2.59969037870178E-05,9.8021137091564E-06,2.8125,0,0
-2.24132108996855E-05,1.06257220977568E-05,2.8125,0,0
-2.39859873545356E-05,1.35845739350771E-05,2.8125,0,0
-2.33213777391938E-05,1.29960071717505E-05,2.8125,0,0
-2.22082271648105E-05,1.08252015706967E-05,2.8125,0,0
-2.1384277715697E-05,1.00277256933623E-05,2.8125,0,0
-2.10454181797104E-05,9.39219535212033E-06,2.8125,0,0
-2.39815271925181E-05,8.84577821125276E-06,2.8125,0,0
-2.43476879404625E-05,7.35544745111838E-06,2.8125,0,0
-2.53300695476355E-05,7.6193650784262E-06,2.8125,0,0
-2.35317165788729E-05,7.88275519880699E-06,2.8125,0,0
-2.40112822211813E-05,9.65820981946308E-06,2.8125,0,0
-2.26039919652976E-05,9.6239518825314E-06,2.8125,0,0
-2.37558178923791E-05,9.63411457632901E-06,2.8125,0,0
-2.29176548600663E-05,8.37634979689028E-06,2.8125,0,0
-2.32801867241506E-05,8.27238909550942E-06,2.8125,0,0
-2.15953550650738E-05,7.82575079938397E-06,2.8125,0,0
-2.01358980120858E-05,8.08693675935501E-06,2.8125,0,0
-1.85265907930443E-05,8.9253089754493E-06,2.8125,0,0
-1.90011651284294E-05,1.04325481515843E-05,2.8125,0,0
-2.18233308260096E-05,1.16740457087872E-05,2.8125,0,0
-2.52076461038087E-05,1.22387455121498E-05,2.8125,0,0
-2.125484024873E-05,9.39514848141698E-06,2.8125,0,0
-2.9382450520643E-05,1.20362783491146E-05,2.8125,0,0
-2.13743369386066E-05,7.8898901847424E-06,2.8125,0,0
-2.70895925496006E-05,1.12090128823183E-05,2.8125,0,0
-2.29775250772946E-05,1.01340528999572E-05,2.8125,0,0
-2.7138901714352E-05,1.16859137051506E-05,2.8125,0,0
-2.71302906185156E-05,1.0549430953688E-05,2.8125,0,0
-2.91382730210898E-05,1.16675610115635E-05,2.8125,0,0
-2.67693867499474E-05,1.18731140901218E-05,2.8125,0,0
-2.4863187718438E-05,1.25304750326904E-05,2.8125,0,0
-2.56493894994492E-05,1.31317638079054E-05,2.8125,0,0
-2.67970481218072E-05,1.284015525016E-05,2.8125,0,0
-2.85993064608192E-05,1.22979226944153E-05,2.8125,0,0
-2.71491862804396E-05,1.06303514257888E-05,2.8125,0,0
-2.78841052931966E-05,1.04984455902013E-05,2.8125,0,0
-2.73839359579142E-05,9.7449137683725E-06,2.8125,0,0
-2.87049824692076E-05,1.12791722131078E-05,2.8125,0,0
-2.63862330029951E-05,1.29331438074587E-05,2.8125,0,0
-2.62139674305217E-05,1.47970013131271E-05,2.8125,0,0
-2.5418337827432E-05,1.31645365399891E-05,2.8125,0,0
-2.67330997303361E-05,1.15194516183692E-05,2.8125,0,0
-2.56567182077561E-05,9.70657583820866E-06,2.8125,0,0
-2.55779887083918E-05,8.59865667734994E-06,2.8125,0,0
-2.60849519690964E-05,8.14937448012643E-06,2.8125,0,0
-2.78439929388696E-05,8.9447012214805E-06,2.8125,0,0
-2.78903062280733E-05,9.26873872231226E-06,2.8125,0,0
-2.73475616268115E-05,1.03703159766155E-05,2.8125,0,0
-2.22017170017352E-05,1.07687892523245E-05,2.8125,0,0
-3.17961857945193E-05,1.54032622958766E-05,2.8125,0,0
-2.45586670644116E-05,1.09747052192688E-05,2.8125,0,0
-2.96739635814447E-05,1.28273177324445E-05,2.8125,0,0
-2.29882261919556E-05,1.07264977486921E-05,2.8125,0,0
-2.54431161010871E-05,1.19589149107924E-05,2.8125,0,0
-2.53200159932021E-05,9.34335548663512E-06,2.8125,0,0
-2.88057781290263E-05,8.14178201835603E-06,2.8125,0,0
-2.85406167677138E-05,7.52462256059516E-06,2.8125,0,0
-2.72999750450253E-05,7.84205440140795E-06,2.8125,0,0
-2.6264786356478E-05,8.92048410605639E-06,2.8125,0,0
-2.48258711508242E-05,8.94520053407177E-06,2.8125,0,0
-2.5625309717725E-05,9.53435755945975E-06,2.8125,0,0
-2.42919250013074E-05,9.58479722612537E-06,2.8125,0,0
-2.51433648372767E-05,1.08353979157982E-05,2.8125,0,0
-2.28996887017274E-05,1.12161123979604E-05,2.8125,0,0
-2.2082969735493E-05,1.1925537364732E-05,2.8125,0,0
-1.95940301637165E-05,1.01893301689415E-05,2.8125,0,0
-2.01424827537267E-05,1.01418845588341E-05,2.8125,0,0
-1.89178954315139E-05,1.05566214188002E-05,2.8125,0,0
-1.89306920219678E-05,1.17378967843251E-05,2.8125,0,0
-1.81801915459801E-05,1.23838990475633E-05,2.8125,0,0
-1.91952003660845E-05,1.33122621264192E-05,2.8125,0,0
-1.87318564712768E-05,1.30076705318061E-05,2.8125,0,0
-1.84416621777928E-05,1.15669727165368E-05,2.8125,0,0
-1.79143680725247E-05,1.02038911791169E-05,2.8125,0,0
-1.79435428435681E-05,9.94443507806864E-06,2.8125,0,0
-1.46014863275923E-05,8.18359058030183E-06,2.8125,0,0
-2.17257766053081E-05,1.14641588879749E-05,2.8125,0,0
-1.91103736142395E-05,7.66142875363585E-06,2.8125,0,0
-2.46690415224293E-05,9.21987793844892E-06,2.8125,0,0
-2.17054493987234E-05,8.6142335931072E-06,2.8125,0,0
-2.16244061448378E-05,1.02081730801729E-05,2.8125,0,0
-1.90595383173786E-05,1.03545135061722E-05,2.8125,0,0
-2.10460711969063E-05,1.26644781630603E-05,2.8125,0,0
-2.14426345337415E-05,1.33335888676811E-05,2.8125,0,0
-2.1306645066943E-05,1.42161179610412E-05,2.8125,0,0
-2.14118881558534E-05,1.47341743286233E-05,2.8125,0,0
-2.06446111405967E-05,1.40039164762129E-05,2.8125,0,0
-2.03453219000949E-05,1.38365494422032E-05,2.8125,0,0
-1.90323080460075E-05,1.26809500216041E-05,2.8125,0,0
-1.98240650206571E-05,1.28575848066248E-05,2.8125,0,0
-1.94204912986606E-05,1.30427315525594E-05,2.8125,0,0
-2.0509125533863E-05,1.41810414788779E-05,2.8125,0,0
-1.98479083337588E-05,1.39109151859884E-05,2.8125,0,0
-2.08856126846513E-05,1.43135275720851E-05,2.8125,0,0
-2.13806761166779E-05,1.41898399306228E-05,2.8125,0,0
-2.32068396144314E-05,1.44571167766117E-05,2.8125,0,0
-2.30330097110709E-05,1.33425164676737E-05,2.8125,0,0
-2.25936910283053E-05,1.31248280013097E-05,2.8125,0,0
-2.17352298932383E-05,1.47466680573416E-05,2.8125,0,0
-2.1781042960356E-05,1.59024402819341E-05,2.8125,0,0
-2.24329724005656E-05,1.5769612218719E-05,2.8125,0,0
-2.36994874285301E-05,1.48745066326228E-05,2.8125,0,0
-1.97363624465652E-05,9.52976279222639E-06,2.8125,0,0
-2.72748511633836E-05,1.26279737742152E-05,2.8125,0,0
-1.8718812498264E-05,9.36377728066873E-06,2.8125,0,0
-2.28525423153769E-05,1.41954506034381E-05,2.8125,0,0
-1.89084312296472E-05,1.43007664519246E-05,2.8125,0,0
-2.25245239562355E-05,1.51738940985524E-05,2.8125,0,0
-2.13722778426018E-05,1.2057646017638E-05,2.8125,0,0
-2.25487965508364E-05,1.12348216134706E-05,2.8125,0,0
-2.14336214412469E-05,9.84745565801859E-06,2.8125,0,0
-2.15918116737157E-05,1.00104980447213E-05,2.8125,0,0
-2.29579454753548E-05,1.14758377094404E-05,2.8125,0,0
-2.25614421651699E-05,1.31754841277143E-05,2.8125,0,0
-2.25543008127715E-05,1.40352358357632E-05,2.8125,0,0
-2.11531114473473E-05,1.32129816847737E-05,2.8125,0,0
-2.29684246733086E-05,1.44956638905569E-05,2.8125,0,0
-2.38774609897519E-05,1.4511582776322E-05,2.8125,0,0
-2.67117120529292E-05,1.46876227518078E-05,2.8125,0,0
-2.66193128481973E-05,1.34760593937244E-05,2.8125,0,0
-2.77042981906561E-05,1.3168705663702E-05,2.8125,0,0
-2.6544279535301E-05,1.21023276733467E-05,2.8125,0,0
-2.68680087174289E-05,1.37960969368578E-05,2.8125,0,0
-2.59645657934016E-05,1.56137175508775E-05,2.8125,0,0
-2.52934205491329E-05,1.61248863150831E-05,2.8125,0,0
-2.42341302509885E-05,1.39218109325157E-05,2.8125,0,0
-2.51802175625926E-05,1.0447486602061E-05,2.8125,0,0
-2.49995100602973E-05,7.97680331743322E-06,2.8125,0,0
-2.40794888668461E-05,8.68813822307857E-06,2.8125,0,0
-1.94839776668232E-05,7.90674221207155E-06,2.8125,0,0
-2.89731869997922E-05,1.21347720778431E-05,2.8125,0,0
-2.49116583290743E-05,1.00258994280011E-05,2.8125,0,0
-3.08094749925658E-05,1.10266510091606E-05,2.8125,0,0
-2.57526698987931E-05,8.71297288540518E-06,2.8125,0,0
-2.82177934423089E-05,1.07989262687624E-05,2.8125,0,0
-2.81077536783414E-05,1.0121854757017E-05,2.8125,0,0
-3.0558217986254E-05,8.96995879884344E-06,2.8125,0,0
-2.87512484646868E-05,7.32412354409462E-06,2.8125,0,0
-2.7443411454442E-05,5.94233642914332E-06,2.8125,0,0
-2.73630812444026E-05,6.02504769631196E-06,2.8125,0,0
-2.63973870460177E-05,6.44635429125628E-06,2.8125,0,0
-2.66756887867814E-05,7.71550185163505E-06,2.8125,0,0
-2.58346481132321E-05,6.34574462310411E-06,2.8125,0,0
-2.80673430097522E-05,4.01141733163968E-06,2.8125,0,0
-2.78163661278086E-05,2.4921434942371E-06,2.8125,0,0
-2.82799428532599E-05,3.75567537957977E-06,2.8125,0,0
-2.53147136390908E-05,4.75716433356865E-06,2.8125,0,0
-2.38623833865859E-05,6.40328880763263E-06,2.8125,0,0
-2.15888558159349E-05,7.40516316000139E-06,2.8125,0,0
-2.22335365833715E-05,7.54119037083001E-06,2.8125,0,0
-2.27451164391823E-05,6.13035308560939E-06,2.8125,0,0
-2.38531574723311E-05,5.77500577492174E-06,2.8125,0,0
-2.32726051763166E-05,6.69790779284085E-06,2.8125,0,0
-2.28566095756833E-05,6.89650141794118E-06,2.8125,0,0
-2.27469063247554E-05,5.6043395488814E-06,2.8125,0,0
-2.35907809837954E-05,4.87263287141104E-06,2.8125,0,0
-1.97569042938994E-05,3.68676342077379E-06,2.8125,0,0
-2.88334031210979E-05,5.21496440342162E-06,2.8125,0,0
-2.27989785344107E-05,4.7504686335742E-06,2.8125,0,0
-2.71527642325964E-05,7.05225556885125E-06,2.8125,0,0
-2.22243543248624E-05,7.67220626585186E-06,2.8125,0,0
-2.43677113758167E-05,9.60844408837147E-06,2.8125,0,0
-2.10254311241442E-05,9.30947317101527E-06,2.8125,0,0
-2.05533033295069E-05,8.63497734826524E-06,2.8125,0,0
-1.90975333680399E-05,8.67130347614875E-06,2.8125,0,0
-1.85043318197131E-05,1.00975503301015E-05,2.8125,0,0
-1.91338531294605E-05,1.09911261461093E-05,2.8125,0,0
-2.03530489670811E-05,1.00029155873926E-05,2.8125,0,0
-2.35087045439286E-05,9.77398940449348E-06,2.8125,0,0
-2.48233591264579E-05,1.08493622974493E-05,2.8125,0,0
-2.77169037872227E-05,1.23962336147088E-05,2.8125,0,0
-2.68841322395019E-05,1.2386464732117E-05,2.8125,0,0
-2.67104824160924E-05,1.12891329990816E-05,2.8125,0,0
-2.55846898653544E-05,9.95854770735605E-06,2.8125,0,0
-2.74821777566103E-05,1.07649293568102E-05,2.8125,0,0
-2.66454389930004E-05,1.21241400847794E-05,2.8125,0,0
-2.57794690696755E-05,1.26334798551397E-05,2.8125,0,0
-2.30530840781285E-05,1.11787630885374E-05,2.8125,0,0
-2.20113488467177E-05,1.03572756415815E-05,2.8125,0,0
-2.21506361413049E-05,1.11393192128162E-05,2.8125,0,0
-2.44383336394094E-05,1.34997790155467E-05,2.8125,0,0
-2.64885293290718E-05,1.57352496898966E-05,2.8125,0,0
-2.71038970822701E-05,1.64049561135471E-05,2.8125,0,0
-2.05629075935576E-05,1.22232604553574E-05,2.8125,0,0
-2.84282741631614E-05,1.63952245202381E-05,2.8125,0,0
-2.08749625016935E-05,1.13365103970864E-05,2.8125,0,0
-2.52286099566845E-05,1.45453523145989E-05,2.8125,0,0
-1.91514736798126E-05,1.06928991954192E-05,2.8125,0,0
-2.14709725696594E-05,1.18898724394967E-05,2.8125,0,0
-1.94095282495255E-05,1.15571410788107E-05,2.8125,0,0
-2.19262292375788E-05,1.37737570184981E-05,2.8125,0,0
-2.17693868762581E-05,1.43209354064311E-05,2.8125,0,0
-2.08797810046235E-05,1.47613909575739E-05,2.8125,0,0
-1.98644138436066E-05,1.40394395202748E-05,2.8125,0,0
-1.85463377420092E-05,1.2507915016613E-05,2.8125,0,0
-1.99346904992126E-05,1.34084702949622E-05,2.8125,0,0
-1.9831979443552E-05,1.42310218507191E-05,2.8125,0,0
-2.18904115172336E-05,1.59766404976835E-05,2.8125,0,0
-2.09150985028828E-05,1.55318866745802E-05,2.8125,0,0
-2.14788542507449E-05,1.58473558258265E-05,2.8125,0,0
-2.03010349650867E-05,1.40474448926398E-05,2.8125,0,0
-2.20410893234657E-05,1.23079853437957E-05,2.8125,0,0
-2.20963192987256E-05,8.76762624102412E-06,2.8125,0,0
-2.37096774071688E-05,8.03959937911714E-06,2.8125,0,0
-2.36289415624924E-05,8.89951752469642E-06,2.8125,0,0
-2.52751742664259E-05,1.06754987427848E-05,2.8125,0,0
-2.60381402767962E-05,1.05979015643243E-05,2.8125,0,0
-2.55143695540028E-05,9.08729907678207E-06,2.8125,0,0
-2.43594586208928E-05,7.50339768273989E-06,2.8125,0,0
-2.48688938881969E-05,7.26645703252871E-06,2.8125,0,0
-2.01605889742495E-05,6.70081089992891E-06,2.8125,0,0
-2.87619823211571E-05,9.31915565161034E-06,2.8125,0,0
-2.19013672904111E-05,7.06871423972189E-06,2.8125,0,0
-2.65165381279076E-05,9.54188453761162E-06,2.8125,0,0
-2.12769027712056E-05,1.05984172478202E-05,2.8125,0,0
-2.43601916736225E-05,1.49492734635714E-05,2.8125,0,0
-2.38978045672411E-05,1.59570299729239E-05,2.8125,0,0
-2.62523135461379E-05,1.53156343003502E-05,2.8125,0,0
-2.67413852270693E-05,1.33736357383896E-05,2.8125,0,0
-2.75001311820233E-05,1.21177108667325E-05,2.8125,0,0
-2.73263722192496E-05,1.23827048810199E-05,2.8125,0,0
-2.5236531655537E-05,1.19653677757015E-05,2.8125,0,0
-2.48225424002158E-05,1.08206095319474E-05,2.8125,0,0
-2.36352734646061E-05,9.82450546871405E-06,2.8125,0,0
-2.48688465944724E-05,1.11957269837148E-05,2.8125,0,0
-2.37447220570175E-05,1.11358476715395E-05,2.8125,0,0
-2.47470179601805E-05,1.01267596619437E-05,2.8125,0,0
-2.39445998886367E-05,8.05830950412201E-06,2.8125,0,0
-2.5191073291353E-05,7.75435091782128E-06,2.8125,0,0
-2.48535907303449E-05,8.71954580361489E-06,2.8125,0,0
-2.66200495389057E-05,1.0222182936559E-05,2.8125,0,0
-2.7266942197457E-05,9.95827485894552E-06,2.8125,0,0
-2.73529149126261E-05,1.02989952210919E-05,2.8125,0,0
-2.50692664849339E-05,1.09513302959385E-05,2.8125,0,0
-2.41937304963358E-05,1.1571311915759E-05,2.8125,0,0
-2.48473315878073E-05,1.21933753689518E-05,2.8125,0,0
-2.55433060374344E-05,1.18401594590978E-05,2.8125,0,0
-2.00232589122606E-05,6.79652202961734E-06,2.8125,0,0
-2.81747925328091E-05,8.24332073534606E-06,2.8125,0,0
-2.28258904826362E-05,5.51140055904398E-06,2.8125,0,0
-2.95502504741307E-05,8.2911528807017E-06,2.8125,0,0
-2.40646695601754E-05,6.53574352327269E-06,2.8125,0,0
-2.5470792024862E-05,7.39327151677571E-06,2.8125,0,0
-2.24557061301311E-05,6.01296915192506E-06,2.8125,0,0
-2.33091795962537E-05,6.90867454977706E-06,2.8125,0,0
-2.29781726375222E-05,8.75742625794373E-06,2.8125,0,0
-2.39920318563236E-05,1.18022899187054E-05,2.8125,0,0
-2.4802651751088E-05,1.30387115859776E-05,2.8125,0,0
-2.39061282627517E-05,1.16910250653746E-05,2.8125,0,0
-2.48506257776171E-05,1.08645581349265E-05,2.8125,0,0
-2.38501761486987E-05,9.70366272667889E-06,2.8125,0,0
-2.54092392424354E-05,8.54393510962836E-06,2.8125,0,0
-2.45133651333163E-05,6.58474391457275E-06,2.8125,0,0
-2.52592071774416E-05,6.84645328874467E-06,2.8125,0,0
-2.45409446506528E-05,6.38097071714583E-06,2.8125,0,0
-2.65498347289395E-05,5.93513914282084E-06,2.8125,0,0
-2.59739954344695E-05,5.36676725459984E-06,2.8125,0,0
-2.63702968368307E-05,6.84969609210384E-06,2.8125,0,0
-2.58158306678524E-05,7.67775509302737E-06,2.8125,0,0
-2.51623951044166E-05,7.63357093092054E-06,2.8125,0,0
-2.44500988628715E-05,7.29723706172081E-06,2.8125,0,0
-2.58966028923169E-05,9.43991835811175E-06,2.8125,0,0
-2.52736372203799E-05,1.15046268547303E-05,2.8125,0,0
-2.35603019973496E-05,1.10356022560154E-05,2.8125,0,0
-1.69056274899049E-05,8.30540648166789E-06,2.8125,0,0
-2.35805055126548E-05,1.35147447508643E-05,2.8125,0,0
-1.84935197466984E-05,1.31214110297151E-05,2.8125,0,0
-2.36739033425692E-05,1.6451000192319E-05,2.8125,0,0
-2.11572732951026E-05,1.48084845932317E-05,2.8125,0,0
-2.51873407250969E-05,1.47714108607033E-05,2.8125,0,0
-2.33940900216112E-05,1.22941828522016E-05,2.8125,0,0
-2.36804553424008E-05,1.15804077722714E-05,2.8125,0,0
-2.18540135392686E-05,1.07394971564645E-05,2.8125,0,0
-2.04003372346051E-05,9.86002305580769E-06,2.8125,0,0
-1.95488591998583E-05,1.01049754448468E-05,2.8125,0,0
-1.92277639143867E-05,1.03601523733232E-05,2.8125,0,0
-2.0992885765736E-05,1.07370360638015E-05,2.8125,0,0
-2.12066843232606E-05,9.82520396064501E-06,2.8125,0,0
-2.24403975153109E-05,8.91380295797717E-06,2.8125,0,0
-2.11780425161123E-05,7.71456507209223E-06,2.8125,0,0
-2.22265989577863E-05,8.50569449539762E-06,2.8125,0,0
-2.14853243960533E-05,9.205251444655E-06,2.8125,0,0
-2.23325878323521E-05,9.97372990241274E-06,2.8125,0,0
-2.21261489059543E-05,9.36960623221239E-06,2.8125,0,0
-2.40813515119953E-05,9.32505372475134E-06,2.8125,0,0
-2.4106429918902E-05,9.03669570107013E-06,2.8125,0,0
-2.3158097974374E-05,9.55560335569317E-06,2.8125,0,0
-2.14982555917231E-05,1.01186496976879E-05,2.8125,0,0
-2.25176681851735E-05,1.01125851870165E-05,2.8125,0,0
-2.35521383729065E-05,8.10150686447741E-06,2.8125,0,0
-2.31240628636442E-05,6.51096252113348E-06,2.8125,0,0
-1.75728237081785E-05,5.99737677475787E-06,2.8125,0,0
-2.49545246333582E-05,8.63819877849892E-06,2.8125,0,0
-1.96667915588478E-05,7.95461528468877E-06,2.8125,0,0
-2.51041383307893E-05,1.16834553409717E-05,2.8125,0,0
-2.10670896194642E-05,1.2748399967677E-05,2.8125,0,0
-2.18642999243457E-05,1.52393522512284E-05,2.8125,0,0
-1.86822016985388E-05,1.36773833219195E-05,2.8125,0,0
-1.99498972506262E-05,1.20516151582706E-05,2.8125,0,0
-2.02735172933899E-05,1.09860975499032E-05,2.8125,0,0
-2.05939340958139E-05,1.1248080227233E-05,2.8125,0,0
-2.05793439818081E-05,1.11727085823077E-05,2.8125,0,0
-2.080348895106E-05,9.75950206338894E-06,2.8125,0,0
-2.32461188716115E-05,9.62614649324678E-06,2.8125,0,0
-2.37189960898831E-05,1.09027214421076E-05,2.8125,0,0
-2.52887202805141E-05,1.39232961373636E-05,2.8125,0,0
-2.4394032152486E-05,1.44224131872761E-05,2.8125,0,0
-2.46065501414705E-05,1.32744480652036E-05,2.8125,0,0
-2.27743730647489E-05,1.1531580639712E-05,2.8125,0,0
-2.43124850385357E-05,1.25147043945617E-05,2.8125,0,0
-2.47659463639138E-05,1.44124051075778E-05,2.8125,0,0
-2.43754220718984E-05,1.5693809473305E-05,2.8125,0,0
-2.11653168662451E-05,1.44431051012361E-05,2.8125,0,0
-2.08887104236055E-05,1.38756004162133E-05,2.8125,0,0
-2.24015730054816E-05,1.36545904751983E-05,2.8125,0,0
-2.32505408348516E-05,1.2506844541349E-05,2.8125,0,0
-2.22497001232114E-05,1.19672040455043E-05,2.8125,0,0
-2.08548226510175E-05,1.29070813272847E-05,2.8125,0,0
-1.71761948877247E-05,1.0605709576339E-05,2.8125,0,0
-2.65963335550623E-05,1.45825360959861E-05,2.8125,0,0
-2.33689861488529E-05,1.04730497696437E-05,2.8125,0,0
-2.62192279478768E-05,1.40862357511651E-05,2.8125,0,0
-2.00073245650856E-05,1.34166903080768E-05,2.8125,0,0
-2.19616067624884E-05,1.58614911924815E-05,2.8125,0,0
-2.1545263734879E-05,1.45960048030247E-05,2.8125,0,0
-2.36678279179614E-05,1.49801426232443E-05,2.8125,0,0
-2.41512534557842E-05,1.43972638397827E-05,2.8125,0,0
-2.55456579907332E-05,1.35873633553274E-05,2.8125,0,0
-2.69490865321131E-05,1.20476715892437E-05,2.8125,0,0
-2.63674519374035E-05,1.09567226900253E-05,2.8125,0,0
-2.61378627328668E-05,1.23359359349706E-05,2.8125,0,0
-2.37937274505384E-05,1.30190628624405E-05,2.8125,0,0
-2.31790763791651E-05,1.41559467010666E-05,2.8125,0,0
-2.19706853386015E-05,1.37066781462636E-05,2.8125,0,0
-2.40470617427491E-05,1.3427110388875E-05,2.8125,0,0
-2.40354474954074E-05,1.21546863738331E-05,2.8125,0,0
-2.45254923356697E-05,1.3657595445693E-05,2.8125,0,0
-2.42645619437099E-05,1.4386528164323E-05,2.8125,0,0
-2.58243180724094E-05,1.49400111695286E-05,2.8125,0,0
-2.5087265385082E-05,1.42079989018384E-05,2.8125,0,0
-2.46690797212068E-05,1.33259236463346E-05,2.8125,0,0
-2.342443804082E-05,1.18371481221402E-05,2.8125,0,0
-2.26494794333121E-05,1.16878718472435E-05,2.8125,0,0
-2.19535941141658E-05,1.20933163998416E-05,2.8125,0,0
-2.21254649659386E-05,1.36932485474972E-05,2.8125,0,0
-1.97445115190931E-05,1.26653703773627E-05,2.8125,0,0
-2.9633893063874E-05,1.7202290109708E-05,2.8125,0,0
-2.45665305556031E-05,1.09333514046739E-05,2.8125,0,0
-2.9368296964094E-05,1.1891856956936E-05,2.8125,0,0
-2.47403495450271E-05,6.57264627079712E-06,2.8125,0,0
-2.73113582807127E-05,6.68713664708775E-06,2.8125,0,0
-2.56664534390438E-05,5.35625122211059E-06,2.8125,0,0
-2.7452895665192E-05,6.94174468662823E-06,2.8125,0,0
-2.76431328529725E-05,7.89187015470816E-06,2.8125,0,0
-2.77769158856245E-05,8.78525133884978E-06,2.8125,0,0
-2.80923013633583E-05,9.77389572653919E-06,2.8125,0,0
-2.80125514109386E-05,9.81526409304934E-06,2.8125,0,0
-2.85344249277841E-05,1.06942461570725E-05,2.8125,0,0
-2.65837115875911E-05,1.01014902611496E-05,2.8125,0,0
-2.75402981060324E-05,1.01904206530889E-05,2.8125,0,0
-2.76523678621743E-05,9.03556792763993E-06,2.8125,0,0
-2.93796620098874E-05,1.03062620837591E-05,2.8125,0,0
-2.70136533799814E-05,1.08728481791331E-05,2.8125,0,0
-2.66362494585337E-05,1.17933204819565E-05,2.8125,0,0
-2.65690650849137E-05,1.02619123936165E-05,2.8125,0,0
-2.71655735559762E-05,9.79684955382254E-06,2.8125,0,0
-2.47828083956847E-05,8.9644536274136E-06,2.8125,0,0
-2.40707340708468E-05,8.39791482576402E-06,2.8125,0,0
-2.46316267293878E-05,8.01702935859794E-06,2.8125,0,0
-2.67422692559194E-05,7.74279942561407E-06,2.8125,0,0
-2.65756643784698E-05,7.65067397878738E-06,2.8125,0,0
-2.49437289312482E-05,8.79150684340857E-06,2.8125,0,0
-1.92037005035672E-05,7.23439552530181E-06,2.8125,0,0
-2.59635253314627E-05,9.71207100519678E-06,2.8125,0,0
-1.7628890418564E-05,6.56474958304898E-06,2.8125,0,0
-2.34660001297016E-05,8.84573273651768E-06,2.8125,0,0
-2.20406818698393E-05,8.86631914909231E-06,2.8125,0,0
-2.66355691564968E-05,1.02071426226757E-05,2.8125,0,0
-2.45870323851705E-05,8.75952991918894E-06,2.8125,0,0
-2.40295921685174E-05,8.06561274657724E-06,2.8125,0,0
-2.15544478123775E-05,6.27490726401447E-06,2.8125,0,0
-2.1600188119919E-05,6.68767825118266E-06,2.8125,0,0
-2.35036241065245E-05,8.72721375344554E-06,2.8125,0,0
-2.32156562560704E-05,9.69577649811981E-06,2.8125,0,0
-2.2475416699308E-05,1.01441428341786E-05,2.8125,0,0
-1.91518229257781E-05,9.5243804025813E-06,2.8125,0,0
-1.85820608749054E-05,8.92287789611146E-06,2.8125,0,0
-1.78261143446434E-05,7.21534615877317E-06,2.8125,0,0
-2.07366811082466E-05,6.95047356202849E-06,2.8125,0,0
-2.16522294067545E-05,7.05651791577111E-06,2.8125,0,0
-2.38621942116879E-05,7.96664062363561E-06,2.8125,0,0
-2.35232109844219E-05,7.75201442593243E-06,2.8125,0,0
-2.37727599596838E-05,9.20677302929107E-06,2.8125,0,0
-2.30407367780572E-05,1.02920748759061E-05,2.8125,0,0
-2.39939690800384E-05,1.06711959233508E-05,2.8125,0,0
-2.40841218328569E-05,1.06649467852549E-05,2.8125,0,0
-2.42950827669119E-05,1.18120415208978E-05,2.8125,0,0
-2.35217885347083E-05,1.22846086014761E-05,2.8125,0,0
-2.18021468754159E-05,1.1618798453128E-05,2.8125,0,0
-1.64862140081823E-05,7.75230273575289E-06,2.8125,0,0
-2.44566690525971E-05,9.98782070382731E-06,2.8125,0,0
-2.03944618988317E-05,6.36329787084833E-06,2.8125,0,0
-2.53995112871053E-05,9.25123094930314E-06,2.8125,0,0
-2.25404037337285E-05,9.80976528808242E-06,2.8125,0,0
-2.51088185905246E-05,1.26093882499845E-05,2.8125,0,0
-2.37449894484598E-05,1.22845394798787E-05,2.8125,0,0
-2.37736767303431E-05,1.34100655486691E-05,2.8125,0,0
-2.11493425013032E-05,1.34291594804381E-05,2.8125,0,0
-2.11442893487401E-05,1.40706470119767E-05,2.8125,0,0
-2.29350425797747E-05,1.38284976856085E-05,2.8125,0,0
-2.27888067456661E-05,1.37398164952174E-05,2.8125,0,0
-2.25717903958866E-05,1.61943571583834E-05,2.8125,0,0
-2.13785588130122E-05,1.79466806002893E-05,2.8125,0,0
-2.31456942856312E-05,1.87457735592034E-05,2.8125,0,0
-2.40209155890625E-05,1.72760210261913E-05,2.8125,0,0
-2.618454345793E-05,1.72492982528638E-05,2.8125,0,0
-2.51232013397384E-05,1.63301592692733E-05,2.8125,0,0
-2.45210339926416E-05,1.55090001499048E-05,2.8125,0,0
-2.3132752176025E-05,1.50492242028122E-05,2.8125,0,0
-2.391900306975E-05,1.64943503477843E-05,2.8125,0,0
-2.3229506041389E-05,1.60820454766508E-05,2.8125,0,0
-2.45975115831243E-05,1.53154251165688E-05,2.8125,0,0
-2.69579722953495E-05,1.34943566081347E-05,2.8125,0,0
-2.80426429526415E-05,1.08117465060786E-05,2.8125,0,0
-2.67702525889035E-05,9.58950022322824E-06,2.8125,0,0
-2.5991148504545E-05,1.13161695480812E-05,2.8125,0,0
-2.19180001295172E-05,1.02111662272364E-05,2.8125,0,0
-3.32616655214224E-05,1.43819579534465E-05,2.8125,0,0
-2.70511118287686E-05,8.97282552614342E-06,2.8125,0,0
-3.01458985632053E-05,8.84596101968782E-06,2.8125,0,0
-2.31209269259125E-05,6.96550250722794E-06,2.8125,0,0
-2.47591069637565E-05,1.00100824056426E-05,2.8125,0,0
-2.20744004764128E-05,9.22482831811067E-06,2.8125,0,0
-2.32009406317957E-05,1.01859277492622E-05,2.8125,0,0
-2.18995573959546E-05,1.12670604721643E-05,2.8125,0,0
-2.13604816963198E-05,1.25579726955038E-05,2.8125,0,0
-2.21066602534847E-05,1.21786179079209E-05,2.8125,0,0
-2.2752949007554E-05,9.88772171695018E-06,2.8125,0,0
-2.46532126766397E-05,8.52039011078887E-06,2.8125,0,0
-2.38563716266071E-05,7.57521002014983E-06,2.8125,0,0
-2.58043928624829E-05,8.35857190395473E-06,2.8125,0,0
-2.60973010881571E-05,7.14484121999703E-06,2.8125,0,0
-2.76904429483693E-05,7.18054343451513E-06,2.8125,0,0
-2.61038767348509E-05,7.42953261578805E-06,2.8125,0,0
-2.68122457782738E-05,8.74423312779982E-06,2.8125,0,0
-2.54634378507035E-05,9.18656951398589E-06,2.8125,0,0
-2.46760737354634E-05,1.0602971087792E-05,2.8125,0,0
-2.32570182561176E-05,1.11473973447573E-05,2.8125,0,0
-2.42507030634442E-05,1.20116537800641E-05,2.8125,0,0
-2.40017052419716E-05,1.16532746687881E-05,2.8125,0,0
-2.31923131650547E-05,1.05135713965865E-05,2.8125,0,0
-2.19292942347238E-05,1.02460453490494E-05,2.8125,0,0
-2.16867229028139E-05,1.12524276119075E-05,2.8125,0,0
-1.79988965101074E-05,9.13721578399418E-06,2.8125,0,0
-2.59105509030633E-05,1.29504487631493E-05,2.8125,0,0
-1.95627362700179E-05,9.39004348765593E-06,2.8125,0,0
-2.29291872528847E-05,1.0560199370957E-05,2.8125,0,0
-1.83795200427994E-05,8.2565775301191E-06,2.8125,0,0
-2.04280131583801E-05,1.01062942121644E-05,2.8125,0,0
-1.75599416252226E-05,9.93114736047573E-06,2.8125,0,0
-1.79744765773648E-05,1.1018958502973E-05,2.8125,0,0
-1.9601046005846E-05,1.01566583907697E-05,2.8125,0,0
-2.21707741729915E-05,8.64753837959142E-06,2.8125,0,0
-2.38359552895417E-05,7.97525808593491E-06,2.8125,0,0
-2.4243088773801E-05,8.54577228892595E-06,2.8125,0,0
-2.59738826571265E-05,1.02436042652698E-05,2.8125,0,0
-2.55583436228335E-05,1.01180603451212E-05,2.8125,0,0
-2.68877538474044E-05,9.47695843933616E-06,2.8125,0,0
-2.67680225078948E-05,7.37867230782285E-06,2.8125,0,0
-2.81456814263947E-05,7.67525216360809E-06,2.8125,0,0
-2.70738146355143E-05,8.55310645420104E-06,2.8125,0,0
-2.72147372015752E-05,1.06349689303897E-05,2.8125,0,0
-2.58034451690037E-05,1.08972180896671E-05,2.8125,0,0
-2.5669325623312E-05,1.07547375591821E-05,2.8125,0,0
-2.32935744861607E-05,9.91509023151593E-06,2.8125,0,0
-2.17958422581432E-05,8.68416555022122E-06,2.8125,0,0
-2.12964732781984E-05,7.25461632100632E-06,2.8125,0,0
-2.31059711950365E-05,8.16664123703958E-06,2.8125,0,0
-2.49571530730464E-05,8.56304995977553E-06,2.8125,0,0
-2.51679794018855E-05,7.93954404798569E-06,2.8125,0,0
-2.04204625333659E-05,5.04790432387381E-06,2.8125,0,0
-2.81073153018951E-05,5.96741483605001E-06,2.8125,0,0
-1.93956875591539E-05,4.88597743242281E-06,2.8125,0,0
-2.40484005189501E-05,8.34995807963423E-06,2.8125,0,0
-2.02688224817393E-05,6.91244849804207E-06,2.8125,0,0
-2.42107944359304E-05,6.17271234659711E-06,2.8125,0,0
-2.23842980631161E-05,4.10713710152777E-06,2.8125,0,0
-2.1742656826973E-05,4.76750301459106E-06,2.8125,0,0
-1.93760060938075E-05,6.1135069699958E-06,2.8125,0,0
-2.00849281100091E-05,7.4430763561395E-06,2.8125,0,0
-2.24908817472169E-05,7.63144089432899E-06,2.8125,0,0
-2.28832686843816E-05,6.42749955659383E-06,2.8125,0,0
-2.33964128710795E-05,6.70556482873508E-06,2.8125,0,0
-2.24213381443406E-05,8.07070955488598E-06,2.8125,0,0
-2.42684454860864E-05,8.95749053597683E-06,2.8125,0,0
-2.42521473410307E-05,6.98262101650471E-06,2.8125,0,0
-2.66280258074403E-05,6.57575901641394E-06,2.8125,0,0
-2.65341514023021E-05,8.80380139278714E-06,2.8125,0,0
-2.76682603725931E-05,1.26737868413329E-05,2.8125,0,0
-2.67338018602459E-05,1.38274890559842E-05,2.8125,0,0
-2.71782682830235E-05,1.38434215841698E-05,2.8125,0,0
-2.56674957199721E-05,1.31330361909932E-05,2.8125,0,0
-2.54936967394315E-05,1.32807281261194E-05,2.8125,0,0
-2.53458983934252E-05,1.35630325530656E-05,2.8125,0,0
-2.48238666245015E-05,1.34847050503595E-05,2.8125,0,0
-2.18683599086944E-05,1.37920742417919E-05,2.8125,0,0
-2.02403698494891E-05,1.50710875459481E-05,2.8125,0,0
-1.60819126904244E-05,1.37360266307951E-05,2.8125,0,0
-2.2687594537274E-05,1.83737520274008E-05,2.8125,0,0
-1.79867529368494E-05,1.10176242742455E-05,2.8125,0,0
-2.2995584004093E-05,1.22937481137342E-05,2.8125,0,0
-1.93724572454812E-05,1.0335130355088E-05,2.8125,0,0
-2.13833463931223E-05,1.66110366990324E-05,2.8125,0,0
-2.01919519895455E-05,1.77287565747974E-05,2.8125,0,0
-2.21790214709472E-05,1.70650218933588E-05,2.8125,0,0
-2.28148601308931E-05,1.42035860335454E-05,2.8125,0,0
-2.39464006881462E-05,1.31895085360156E-05,2.8125,0,0
-2.45355131482938E-05,1.35869577206904E-05,2.8125,0,0
-2.38683951465646E-05,1.39508201755234E-05,2.8125,0,0
-2.47622065217001E-05,1.45158874147455E-05,2.8125,0,0
-2.44128550548339E-05,1.28646343000582E-05,2.8125,0,0
-2.58875697909389E-05,1.2263337339391E-05,2.8125,0,0
-2.62827124970499E-05,1.12250418169424E-05,2.8125,0,0
-2.77920080407057E-05,1.35405616674689E-05,2.8125,0,0
-2.60347242146963E-05,1.4839590221527E-05,2.8125,0,0
-2.49378099397291E-05,1.61108982865699E-05,2.8125,0,0
-2.25710427912418E-05,1.50068244693102E-05,2.8125,0,0
-2.25715957640205E-05,1.4489942259388E-05,2.8125,0,0
-2.19119756366126E-05,1.24052239698358E-05,2.8125,0,0
-2.22718808799982E-05,1.09982011053944E-05,2.8125,0,0
-2.24471259571146E-05,9.34277159103658E-06,2.8125,0,0
-2.2759737476008E-05,1.05292456282768E-05,2.8125,0,0
-2.2116113541415E-05,1.18704865599284E-05,2.8125,0,0
-2.17033630178776E-05,1.1775838174799E-05,2.8125,0,0
-1.79839444172103E-05,1.02342482932727E-05,2.8125,0,0
-2.63198398897657E-05,1.55416291818256E-05,2.8125,0,0
-2.17661781789502E-05,1.27393832372036E-05,2.8125,0,0
-2.74231661023805E-05,1.48890776472399E-05,2.8125,0,0
-2.38910433836281E-05,1.3078862139082E-05,2.8125,0,0
-2.60570141108474E-05,1.41776963573648E-05,2.8125,0,0
-2.41220968746347E-05,1.27952071125037E-05,2.8125,0,0
-2.49408021772979E-05,1.33085868583294E-05,2.8125,0,0
-2.33931168622803E-05,1.34009187604534E-05,2.8125,0,0
-2.17983288166579E-05,1.25767555800849E-05,2.8125,0,0
-2.15034742723219E-05,1.09088432509452E-05,2.8125,0,0
-2.20922720473027E-05,1.06664301711135E-05,2.8125,0,0
-2.40967183344765E-05,1.21566727102618E-05,2.8125,0,0
-2.43064496316947E-05,1.20601280286792E-05,2.8125,0,0
-2.52263598667923E-05,1.1532340067788E-05,2.8125,0,0
-2.28453736781375E-05,9.15181317395763E-06,2.8125,0,0
-2.30386649491265E-05,8.04621504357783E-06,2.8125,0,0
-2.27043983613839E-05,7.41366193324211E-06,2.8125,0,0
-2.40696190303424E-05,8.71674183144933E-06,2.8125,0,0
-2.32313504966442E-05,8.8513352238806E-06,2.8125,0,0
-2.35899224207969E-05,1.0004988325818E-05,2.8125,0,0
-2.27610471483786E-05,1.10730452433927E-05,2.8125,0,0
-2.33258160733385E-05,1.23916897791787E-05,2.8125,0,0
-2.38347020058427E-05,1.18308880701079E-05,2.8125,0,0
-2.47847710852511E-05,1.09443226392614E-05,2.8125,0,0
-2.49308650381863E-05,1.02182766568149E-05,2.8125,0,0
-2.5031746190507E-05,9.34150739340112E-06,2.8125,0,0
-1.94740732695209E-05,6.81887649989221E-06,2.8125,0,0
-2.71422941295896E-05,9.79606738837902E-06,2.8125,0,0
-2.00780887098517E-05,8.33527974464232E-06,2.8125,0,0
-2.5151308364002E-05,1.09364727904904E-05,2.8125,0,0
-2.12268732866505E-05,9.76924911810784E-06,2.8125,0,0
-2.47867519647116E-05,1.17266381494119E-05,2.8125,0,0
-2.2034464564058E-05,1.16926203190815E-05,2.8125,0,0
-2.21284699364332E-05,1.11851149995346E-05,2.8125,0,0
-2.22637427214067E-05,1.0398954145785E-05,2.8125,0,0
-2.33853606914636E-05,1.12148072730633E-05,2.8125,0,0
-2.36037176364334E-05,1.256376344827E-05,2.8125,0,0
-2.14967076317407E-05,1.28678393593873E-05,2.8125,0,0
-2.15539985219948E-05,1.33346984512173E-05,2.8125,0,0
-2.0742339984281E-05,1.25116575873108E-05,2.8125,0,0
-2.19178073166404E-05,1.12659290607553E-05,2.8125,0,0
-2.03544968826463E-05,9.89264935924439E-06,2.8125,0,0
-2.1586809452856E-05,1.17455865620286E-05,2.8125,0,0
-2.21721638808958E-05,1.40006732181064E-05,2.8125,0,0
-2.5021789042512E-05,1.4979625120759E-05,2.8125,0,0
-2.53005218837643E-05,1.24184562082519E-05,2.8125,0,0
-2.61749773926567E-05,9.49627337831771E-06,2.8125,0,0
-2.63975016423501E-05,7.9474475569441E-06,2.8125,0,0
-2.79204941762146E-05,8.60650925460504E-06,2.8125,0,0
-2.81484917650232E-05,9.29729503695853E-06,2.8125,0,0
-2.80099011433776E-05,1.11141216621036E-05,2.8125,0,0
-2.76801802101545E-05,1.29550817291602E-05,2.8125,0,0
-2.84063808067003E-05,1.34859665195108E-05,2.8125,0,0
-2.27352757065091E-05,1.18335292427219E-05,2.8125,0,0
-3.19252103508916E-05,1.71092051459709E-05,2.8125,0,0
-2.34215222008061E-05,1.19384767458541E-05,2.8125,0,0
-2.91491196549032E-05,1.2449833775463E-05,2.8125,0,0
-2.49249442276778E-05,8.27209441922605E-06,2.8125,0,0
-2.88980445475318E-05,9.10487506189384E-06,2.8125,0,0
-2.74505400739145E-05,8.80712741491152E-06,2.8125,0,0
-2.91648939310107E-05,1.15170096250949E-05,2.8125,0,0
-2.74322192126419E-05,1.17435110951192E-05,2.8125,0,0
-2.72778379439842E-05,1.08687117972295E-05,2.8125,0,0
-2.83678691630485E-05,1.04279160950682E-05,2.8125,0,0
-2.78378411167068E-05,1.03024367490434E-05,2.8125,0,0
-2.88164719677297E-05,1.0216906957794E-05,2.8125,0,0
-2.76244845736073E-05,8.09151242719963E-06,2.8125,0,0
-2.85954101855168E-05,7.35471030566259E-06,2.8125,0,0
-2.71170647465624E-05,6.93610172675108E-06,2.8125,0,0
-2.74169597105356E-05,9.04162061488023E-06,2.8125,0,0
-2.45793198700994E-05,9.7200854725088E-06,2.8125,0,0
-2.54638380283723E-05,1.02681760836276E-05,2.8125,0,0
-2.64897989836754E-05,8.44409623823594E-06,2.8125,0,0
-2.85126316157402E-05,7.96113545220578E-06,2.8125,0,0
-2.65938706434099E-05,8.24053586256923E-06,2.8125,0,0
-2.42833921220154E-05,9.43324357649544E-06,2.8125,0,0
-2.15931759157684E-05,1.0325682524126E-05,2.8125,0,0
-2.16922144318232E-05,1.09882985270815E-05,2.8125,0,0
-2.18643654079642E-05,9.92137574939989E-06,2.8125,0,0
-2.03996714844834E-05,9.56115854933159E-06,2.8125,0,0
-1.56912592501612E-05,7.64271771913627E-06,2.8125,0,0
-2.27459640882444E-05,1.01605310192099E-05,2.8125,0,0
-1.80112983798608E-05,7.57682710172958E-06,2.8125,0,0
-2.16920161619782E-05,9.52610571403056E-06,2.8125,0,0
-1.85694825631799E-05,5.61659771847189E-06,2.8125,0,0
-2.12817867577542E-05,5.93565300732735E-06,2.8125,0,0
-2.06292043003486E-05,6.94780101184733E-06,2.8125,0,0
-2.16568078030832E-05,7.68420068197884E-06,2.8125,0,0
-1.97125064005377E-05,6.99834481565631E-06,2.8125,0,0
-1.91440503840568E-05,7.78884714236483E-06,2.8125,0,0
-2.02141036425019E-05,9.37202457862441E-06,2.8125,0,0
-2.05203432415146E-05,1.05129684015992E-05,2.8125,0,0
-2.14990086533362E-05,1.14280865091132E-05,2.8125,0,0
-2.10475063795457E-05,1.12534289655741E-05,2.8125,0,0
-2.22785365622258E-05,1.18931966426317E-05,2.8125,0,0
-2.23203860514332E-05,1.10105265775928E-05,2.8125,0,0
-2.4811599359964E-05,1.05895933302236E-05,2.8125,0,0
-2.52936970355222E-05,9.61648402153514E-06,2.8125,0,0
-2.63676229224075E-05,9.84727375907823E-06,2.8125,0,0
-2.63870078924811E-05,9.99767871689983E-06,2.8125,0,0
-2.82307228189893E-05,1.10273194877664E-05,2.8125,0,0
-2.78683928627288E-05,1.02771973615745E-05,2.8125,0,0
-2.7210855478188E-05,8.84495602804236E-06,2.8125,0,0
-2.58744148595724E-05,7.58008945922484E-06,2.8125,0,0
-2.59034823102411E-05,8.51192089612596E-06,2.8125,0,0
-2.55061204370577E-05,1.03899028545129E-05,2.8125,0,0
-2.5035686121555E-05,1.14498816401465E-05,2.8125,0,0
-2.13680032175034E-05,8.56814222061075E-06,2.8125,0,0
-3.05192552332301E-05,1.0228452993033E-05,2.8125,0,0
-2.27093041758053E-05,6.54571294944617E-06,2.8125,0,0
-2.73038149316562E-05,1.12172556328005E-05,2.8125,0,0
-2.21127702388912E-05,1.07972491605324E-05,2.8125,0,0
-2.51136079896241E-05,1.29870650198427E-05,2.8125,0,0
-2.43028698605485E-05,1.24475172924576E-05,2.8125,0,0
-2.60129763773875E-05,1.28356759887538E-05,2.8125,0,0
-2.51054934778949E-05,1.14480935735628E-05,2.8125,0,0
-2.550989484007E-05,1.00958941402496E-05,2.8125,0,0
-2.57390365732135E-05,1.01071154858801E-05,2.8125,0,0
-2.44743223447585E-05,1.16291075755726E-05,2.8125,0,0
-2.49630029429682E-05,1.31970682559768E-05,2.8125,0,0
-2.42755722865695E-05,1.06966454040958E-05,2.8125,0,0
-2.51194651355036E-05,7.86116015660809E-06,2.8125,0,0
-2.26175034185871E-05,5.59392037757789E-06,2.8125,0,0
-2.28180488193175E-05,7.31671980247484E-06,2.8125,0,0
-2.28695971600246E-05,9.27357177715749E-06,2.8125,0,0
-2.63116198766511E-05,1.07630030470318E-05,2.8125,0,0
-2.70278760581277E-05,9.52844402490882E-06,2.8125,0,0
-2.78440038528061E-05,7.60499551688554E-06,2.8125,0,0
-2.64860209426843E-05,6.07900665272609E-06,2.8125,0,0
-2.5955949240597E-05,8.33989088278031E-06,2.8125,0,0
-2.48935630224878E-05,1.14881131594302E-05,2.8125,0,0
-2.55919458140852E-05,1.34927686303854E-05,2.8125,0,0
-2.45237479248317E-05,1.13820578917512E-05,2.8125,0,0
-2.36952655541245E-05,8.72398140927544E-06,2.8125,0,0
-2.08469755307306E-05,7.77285367803415E-06,2.8125,0,0
-2.98522954835789E-05,1.16748387881671E-05,2.8125,0,0
-2.29675333685009E-05,1.00072120403638E-05,2.8125,0,0
-2.8245533030713E-05,1.15357051981846E-05,2.8125,0,0
-2.40828849200625E-05,9.5285859060823E-06,2.8125,0,0
-2.63159563473891E-05,1.09900847746758E-05,2.8125,0,0
-2.32317506743129E-05,1.00416491477517E-05,2.8125,0,0
-2.34865274251206E-05,9.58171949605457E-06,2.8125,0,0
-2.09983609238407E-05,8.19364322524052E-06,2.8125,0,0
-1.99123969650827E-05,7.76644810684957E-06,2.8125,0,0
-2.01733055291697E-05,8.24819380795816E-06,2.8125,0,0
-1.95642514881911E-05,8.5916626630933E-06,2.8125,0,0
-2.09313839150127E-05,9.07410685613286E-06,2.8125,0,0
-2.07071971090045E-05,8.69123778102221E-06,2.8125,0,0
-2.20961646846263E-05,8.71980228112079E-06,2.8125,0,0
-2.08706405828707E-05,8.11745667306241E-06,2.8125,0,0
-2.2467005692306E-05,1.0328314601793E-05,2.8125,0,0
-2.21504269575235E-05,1.26115819512052E-05,2.8125,0,0
-2.37478634517174E-05,1.35892569232965E-05,2.8125,0,0
-2.33982373174513E-05,1.08871909105801E-05,2.8125,0,0
-2.43588074226864E-05,9.1899119070149E-06,2.8125,0,0
-2.27924974751659E-05,1.06044526546611E-05,2.8125,0,0
-2.27515192818828E-05,1.37444385472918E-05,2.8125,0,0
-2.32430502364878E-05,1.48475310197682E-05,2.8125,0,0
-2.41626530623762E-05,1.50226824189303E-05,2.8125,0,0
-2.40189037867822E-05,1.38052600959782E-05,2.8125,0,0
-2.33509290410439E-05,1.35572618091828E-05,2.8125,0,0
-1.81189479917521E-05,1.23840382002527E-05,2.8125,0,0
-2.57270785368746E-05,1.76140783878509E-05,2.8125,0,0
-2.0764404325746E-05,1.39246385515435E-05,2.8125,0,0
-2.67129162239144E-05,1.84342625288991E-05,2.8125,0,0
-2.29520355787827E-05,1.67700709425844E-05,2.8125,0,0
-2.55149843724212E-05,1.91614490177017E-05,2.8125,0,0
-2.42324877035571E-05,1.88338872249005E-05,2.8125,0,0
-2.61386467172997E-05,1.96392084035324E-05,2.8125,0,0
-2.48096093855565E-05,1.75405712070642E-05,2.8125,0,0
-2.28497247007908E-05,1.5761124814162E-05,2.8125,0,0
-2.14854680962162E-05,1.48394838106469E-05,2.8125,0,0
-2.06343775062123E-05,1.29351828945801E-05,2.8125,0,0
-2.21137870539678E-05,1.16369792522164E-05,2.8125,0,0
-2.18369259528117E-05,9.48645265452797E-06,2.8125,0,0
-2.24434606934665E-05,9.91166416497435E-06,2.8125,0,0
-2.07633729587542E-05,9.33879800868453E-06,2.8125,0,0
-2.20254150917754E-05,8.28107113193255E-06,2.8125,0,0
-2.24661635002121E-05,4.95628773933277E-06,2.8125,0,0
-2.49717340921052E-05,4.90440970679629E-06,2.8125,0,0
-2.44339844357455E-05,5.81175891056773E-06,2.8125,0,0
-2.41968245973112E-05,7.30696046957746E-06,2.8125,0,0
-2.29134730034275E-05,7.26400639905478E-06,2.8125,0,0
-2.31810045079328E-05,7.94808147475123E-06,2.8125,0,0
-2.27844157052459E-05,8.55292364576599E-06,2.8125,0,0
-2.23705883399816E-05,9.82059009402292E-06,2.8125,0,0
-2.10196012631059E-05,9.76901446847478E-06,2.8125,0,0
-2.00159556698054E-05,8.63854529598029E-06,2.8125,0,0
-1.62188462127233E-05,6.96491088092444E-06,2.8125,0,0
-2.36684154515387E-05,1.0637081686582E-05,2.8125,0,0
-1.86491815838963E-05,8.9408003987046E-06,2.8125,0,0
-2.25246349145891E-05,1.09837801574031E-05,2.8125,0,0
-2.04435982595896E-05,1.19113792607095E-05,2.8125,0,0
-2.32340607908554E-05,1.46504144140636E-05,2.8125,0,0
-2.02438786800485E-05,1.33678113343194E-05,2.8125,0,0
-2.05309279408539E-05,1.30595508380793E-05,2.8125,0,0
-2.03022700588917E-05,1.33841122078593E-05,2.8125,0,0
-2.12683589779772E-05,1.45048752528965E-05,2.8125,0,0
-2.25331550609553E-05,1.43338056659559E-05,2.8125,0,0
-2.33716855291277E-05,1.25423111967393E-05,2.8125,0,0
-2.48652813752415E-05,1.16842456918675E-05,2.8125,0,0
-2.39642904489301E-05,1.09222883111215E-05,2.8125,0,0
-2.45943283516681E-05,9.91994966170751E-06,2.8125,0,0
-2.4291026420542E-05,7.04167723597493E-06,2.8125,0,0
-2.59265507338569E-05,6.12714575254358E-06,2.8125,0,0
-2.50705415965058E-05,6.61235162624507E-06,2.8125,0,0
-2.58970067079645E-05,8.93739797902526E-06,2.8125,0,0
-2.55590875894995E-05,9.54193365032552E-06,2.8125,0,0
-2.58517920883605E-05,9.40272184379864E-06,2.8125,0,0
-2.46723047894193E-05,1.0499724339752E-05,2.8125,0,0
-2.52436784649035E-05,1.27609691844555E-05,2.8125,0,0
-2.55088380072266E-05,1.35723494167905E-05,2.8125,0,0
-2.57485735346563E-05,1.32989962366992E-05,2.8125,0,0
-2.51831279456383E-05,1.20655549835647E-05,2.8125,0,0
-2.49868571700063E-05,1.26720397020108E-05,2.8125,0,0
-1.97401004697895E-05,1.15667671707342E-05,2.8125,0,0
-2.84564976027468E-05,1.64542161655845E-05,2.8125,0,0
-2.20819347305223E-05,1.32908517116448E-05,2.8125,0,0
-2.70183645625366E-05,1.72265445144149E-05,2.8125,0,0
-2.26061983994441E-05,1.39907115226379E-05,2.8125,0,0
-2.47857642534655E-05,1.51954691318679E-05,2.8125,0,0
-2.27066757361172E-05,1.48698090924881E-05,2.8125,0,0
-2.48817432293436E-05,1.52647717186483E-05,2.8125,0,0
-2.480051080056E-05,1.42519193104818E-05,2.8125,0,0
-2.3932750991662E-05,1.38068353408016E-05,2.8125,0,0
-2.23084480239777E-05,1.29100808408111E-05,2.8125,0,0
-2.03726704057772E-05,1.07529749584501E-05,2.8125,0,0
-2.09871832339559E-05,9.94785932562081E-06,2.8125,0,0
-2.03766066988464E-05,1.02647882158635E-05,2.8125,0,0
-2.13182411243906E-05,1.20282538773608E-05,2.8125,0,0
-2.00120866793441E-05,1.13261203296133E-05,2.8125,0,0
-2.13182793231681E-05,1.0674275472411E-05,2.8125,0,0
-2.10020443773828E-05,9.57579322857782E-06,2.8125,0,0
-2.29792258323869E-05,1.07214864328853E-05,2.8125,0,0
-2.28753542614868E-05,1.04217851912836E-05,2.8125,0,0
-2.32112215599045E-05,9.87735165836057E-06,2.8125,0,0
-2.15036034205696E-05,8.8922206487041E-06,2.8125,0,0
-2.19142348214518E-05,8.7730522864149E-06,2.8125,0,0
-2.24859322770499E-05,6.39594873064198E-06,2.8125,0,0
-2.29488632612629E-05,5.71937789572985E-06,2.8125,0,0
-2.29602956096642E-05,7.3890578278224E-06,2.8125,0,0
-2.35788484133082E-05,9.29788893699879E-06,2.8125,0,0
-1.83849715540418E-05,8.05089166533435E-06,2.8125,0,0
-2.57261508522788E-05,1.03459988167742E-05,2.8125,0,0
-1.94677504623542E-05,6.43560633761808E-06,2.8125,0,0
-2.35491443163482E-05,8.11674999567913E-06,2.8125,0,0
-1.77940273715649E-05,6.89014586896519E-06,2.8125,0,0
-2.00487502297619E-05,9.83076552074635E-06,2.8125,0,0
-1.91210729099112E-05,1.01002551673446E-05,2.8125,0,0
-2.15957443288062E-05,1.02166804936132E-05,2.8125,0,0
-2.15424697671551E-05,9.45817282627104E-06,2.8125,0,0
-2.1555870262091E-05,9.54671395447804E-06,2.8125,0,0
-2.20800502575003E-05,9.42826773098204E-06,2.8125,0,0
-2.17058241105406E-05,8.53761230246164E-06,2.8125,0,0
-2.22993749048328E-05,8.78230821399484E-06,2.8125,0,0
-2.13435669138562E-05,8.60456293594325E-06,2.8125,0,0
-2.28949993470451E-05,9.86267605185276E-06,2.8125,0,0
-2.2408854420064E-05,9.37393906497164E-06,2.8125,0,0
-2.4890570784919E-05,8.30821500130696E-06,2.8125,0,0
-2.55838931479957E-05,6.5400618041167E-06,2.8125,0,0
-2.65329981630202E-05,7.26300049791462E-06,2.8125,0,0
-2.47033985942835E-05,8.77918319019955E-06,2.8125,0,0
-2.4173519705073E-05,9.68474614637671E-06,2.8125,0,0
-2.29696142923785E-05,7.80526806920534E-06,2.8125,0,0
-2.4144788767444E-05,7.50386652725865E-06,2.8125,0,0
-2.46618237724761E-05,8.71525571710663E-06,2.8125,0,0
-2.54206715908367E-05,9.34732179302955E-06,2.8125,0,0
-2.66009774350096E-05,9.20085039979313E-06,2.8125,0,0
-2.73152581939939E-05,9.82762048806762E-06,2.8125,0,0
-2.15085874515353E-05,8.04208957561059E-06,2.8125,0,0
-2.92632485070499E-05,1.08824287963216E-05,2.8125,0,0
-2.10120033443673E-05,8.07329524832312E-06,2.8125,0,0
-2.76739338005427E-05,1.22353385449969E-05,2.8125,0,0
-2.43264548771549E-05,1.27214389067376E-05,2.8125,0,0
-2.82640812656609E-05,1.29295813167118E-05,2.8125,0,0
-2.55012546404032E-05,1.09262318801484E-05,2.8125,0,0
-2.58284871961223E-05,1.29473537526792E-05,2.8125,0,0
-2.53104026342044E-05,1.48494764289353E-05,2.8125,0,0
-2.60899687418714E-05,1.60747422341956E-05,2.8125,0,0
-2.66089737124275E-05,1.55888228619006E-05,2.8125,0,0
-2.6028015781776E-05,1.40237798404996E-05,2.8125,0,0
-2.71068383881357E-05,1.33386374727706E-05,2.8125,0,0
-2.56885123235406E-05,1.15872207970824E-05,2.8125,0,0
-2.60353135672631E-05,1.04704276964185E-05,2.8125,0,0
-2.44067414314486E-05,9.05960223462898E-06,2.8125,0,0
-2.52042827924015E-05,9.73425721895183E-06,2.8125,0,0
-2.27879882004345E-05,1.04844129964476E-05,2.8125,0,0
-2.24616269406397E-05,1.16166975203669E-05,2.8125,0,0
-2.11039641726529E-05,1.10050059447531E-05,2.8125,0,0
-2.18121767829871E-05,1.13285968836863E-05,2.8125,0,0
-2.15182608371833E-05,1.14826352728414E-05,2.8125,0,0
-2.33390510402387E-05,1.30906964841415E-05,2.8125,0,0
-2.40435201703804E-05,1.47064038173994E-05,2.8125,0,0
-2.41266297962284E-05,1.41429673021776E-05,2.8125,0,0
-2.29654997383477E-05,1.23511263154796E-05,2.8125,0,0
-2.22231792577077E-05,1.18588586701662E-05,2.8125,0,0
-1.84090076800203E-05,1.08944132080069E-05,2.8125,0,0
-2.64889640675392E-05,1.63976910698693E-05,2.8125,0,0
-2.01342463697074E-05,1.41527789310203E-05,2.8125,0,0
-2.41517063841457E-05,1.80884071596665E-05,2.8125,0,0
-2.1844238290214E-05,1.5703955796198E-05,2.8125,0,0
-2.7071329895989E-05,1.52235088535235E-05,2.8125,0,0
-2.62726134678815E-05,1.25687165564159E-05,2.8125,0,0
-2.61590685113333E-05,1.23917534438078E-05,2.8125,0,0
-2.39205292018596E-05,1.21976700029336E-05,2.8125,0,0
-2.35107600019546E-05,1.2054526450811E-05,2.8125,0,0
-2.45139435719466E-05,1.06041197796003E-05,2.8125,0,0
-2.49152235483052E-05,8.40246138977818E-06,2.8125,0,0
-2.6488976800465E-05,7.62036188461934E-06,2.8125,0,0
-2.63247038674308E-05,7.80896152718924E-06,2.8125,0,0
-2.79497671726858E-05,1.04086620922317E-05,2.8125,0,0
-2.72884481091751E-05,1.08935582829872E-05,2.8125,0,0
-2.77506533166161E-05,1.08131162050995E-05,2.8125,0,0
-2.55983613897115E-05,1.00330435088836E-05,2.8125,0,0
-2.52972804446472E-05,1.07401046989253E-05,2.8125,0,0
-2.34641738643404E-05,9.75376224232605E-06,2.8125,0,0
-2.33339196711313E-05,9.33864066610113E-06,2.8125,0,0
-2.26000483962707E-05,8.99149563338142E-06,2.8125,0,0
-2.24310260819038E-05,1.01617342807003E-05,2.8125,0,0
-2.10467824217631E-05,1.10212313302327E-05,2.8125,0,0
-2.09537938644644E-05,1.21441662486177E-05,2.8125,0,0
-2.15528325497871E-05,1.13109717858606E-05,2.8125,0,0
-2.22871003643377E-05,9.38185166887706E-06,2.8125,0,0
-1.83936699613696E-05,7.50640447222395E-06,2.8125,0,0
-2.5583944079699E-05,1.14135609692312E-05,2.8125,0,0
-1.82767034857534E-05,8.51660570333479E-06,2.8125,0,0
-2.27277741942089E-05,8.87419264472555E-06,2.8125,0,0
-2.0628565835068E-05,8.10543315310497E-06,2.8125,0,0
-2.54583101195749E-05,1.14977074190392E-05,2.8125,0,0
-2.4150738681783E-05,1.23277141028666E-05,2.8125,0,0
-2.49107706622453E-05,1.19406049634563E-05,2.8125,0,0
-2.49623717536451E-05,1.0179972377955E-05,2.8125,0,0
-2.6773175704875E-05,9.31842259888072E-06,2.8125,0,0
-2.82948803942418E-05,8.99064434634056E-06,2.8125,0,0
-2.809269244608E-05,8.24091875983868E-06,2.8125,0,0
-2.92023869405966E-05,8.17057480162475E-06,2.8125,0,0
-2.82639975921484E-05,8.03188049758319E-06,2.8125,0,0
-2.83623976429226E-05,9.85816950560547E-06,2.8125,0,0
-2.55024988291552E-05,1.15418570203474E-05,2.8125,0,0
-2.44169677898753E-05,1.35971622512443E-05,2.8125,0,0
-2.30339137488045E-05,1.2979757229914E-05,2.8125,0,0
-2.50653574767057E-05,1.08095446194056E-05,2.8125,0,0
-2.52603713306598E-05,8.23281970951939E-06,2.8125,0,0
-2.59989592450438E-05,7.62874879001174E-06,2.8125,0,0
-2.53054695349419E-05,7.97490429249592E-06,2.8125,0,0
-2.61923996731639E-05,9.45382907957537E-06,2.8125,0,0
-2.68477087956853E-05,1.08200147224125E-05,2.8125,0,0
-2.77189537882805E-05,1.15992161227041E-05,2.8125,0,0
-2.70943128271028E-05,1.1459696906968E-05,2.8125,0,0
-2.69235770247178E-05,1.18052839752636E-05,2.8125,0,0
-2.27409818762681E-05,1.03453930933028E-05,2.8125,0,0
-3.25748151226435E-05,1.27345429064007E-05,2.8125,0,0
-2.45120736508397E-05,6.07001675234642E-06,2.8125,0,0
-2.98328614007914E-05,8.55016787681961E-06,2.8125,0,0
-2.56232397077838E-05,8.18458556750556E-06,2.8125,0,0
-2.96596335829236E-05,9.62820104177808E-06,2.8125,0,0
-2.84267862298293E-05,6.92439198246575E-06,2.8125,0,0
-2.90477219095919E-05,7.31028558220714E-06,2.8125,0,0
-2.58127802226227E-05,7.45505758459331E-06,2.8125,0,0
-2.46509825956309E-05,8.13480073702522E-06,2.8125,0,0
-2.57191313721705E-05,8.90134924702579E-06,2.8125,0,0
-2.66267907136353E-05,9.07731555344071E-06,2.8125,0,0
-2.77477738563903E-05,1.00134766398696E-05,2.8125,0,0
-2.57548981608124E-05,8.30067619972397E-06,2.8125,0,0
-2.62748617387842E-05,6.66771256874199E-06,2.8125,0,0
-2.46690997300902E-05,5.03642922922154E-06,2.8125,0,0
-2.55032700806623E-05,6.58358976579621E-06,2.8125,0,0
-2.35597017308464E-05,7.87863973528147E-06,2.8125,0,0
-2.41687812376767E-05,9.17463057703571E-06,2.8125,0,0
-2.35776005865773E-05,8.5454930740525E-06,2.8125,0,0
-2.47720417974051E-05,9.42810402193572E-06,2.8125,0,0
-2.41658981394721E-05,9.70538803812815E-06,2.8125,0,0
-2.46156105276896E-05,1.05768249341054E-05,2.8125,0,0
-2.33979953918606E-05,1.21501834655646E-05,2.8125,0,0
-2.33280661632307E-05,1.34727624754305E-05,2.8125,0,0
-2.41083580476698E-05,1.22502178783179E-05,2.8125,0,0
-2.37293425016105E-05,1.08857429950149E-05,2.8125,0,0
-1.77248748514103E-05,9.40435074880952E-06,2.8125,0,0
-2.51319743256317E-05,1.34730389618198E-05,2.8125,0,0
-2.03363160835579E-05,1.05056569736917E-05,2.8125,0,0
-2.55408631346654E-05,1.29939617181662E-05,2.8125,0,0
-2.08656765607884E-05,1.01852228908683E-05,2.8125,0,0
-2.25440580834402E-05,1.11181898319046E-05,2.8125,0,0
-2.01704115170287E-05,1.07056966953678E-05,2.8125,0,0
-2.18293371290201E-05,1.07105079223402E-05,2.8125,0,0
-2.28935896302573E-05,9.97080678644124E-06,2.8125,0,0
-2.43650829361286E-05,9.85963288258063E-06,2.8125,0,0
-2.4639024559292E-05,9.41928556130733E-06,2.8125,0,0
-2.29048891924322E-05,8.28282463771757E-06,2.8125,0,0
-2.23117931454908E-05,8.37427160149673E-06,2.8125,0,0
-2.04570624191547E-05,7.74278396420414E-06,2.8125,0,0
-2.06270178750856E-05,8.00775887910277E-06,2.8125,0,0
-1.87073510460323E-05,7.61964156481554E-06,2.8125,0,0
-1.96618057088926E-05,9.03240106708836E-06,2.8125,0,0
-1.93159339687554E-05,9.68911535892403E-06,2.8125,0,0
-2.01723614736693E-05,1.03563097582082E-05,2.8125,0,0
-1.82702042366145E-05,9.39561414270429E-06,2.8125,0,0
-1.80066490429454E-05,9.51438232732471E-06,2.8125,0,0
-1.77357560460223E-05,1.02385674836114E-05,2.8125,0,0
-1.85270000656601E-05,1.21427165140631E-05,2.8125,0,0
-1.85466778930277E-05,1.38375617098063E-05,2.8125,0,0
-1.94210315385135E-05,1.4517288946081E-05,2.8125,0,0
-2.02992523554713E-05,1.3347230378713E-05,2.8125,0,0
-2.01333550648997E-05,1.16812516353093E-05,2.8125,0,0
-1.6224830687861E-05,7.62239642426721E-06,2.8125,0,0
-2.31355825235369E-05,1.0183211088588E-05,2.8125,0,0
-1.68807164300233E-05,7.04640569892945E-06,2.8125,0,0
-2.08948604267789E-05,8.6752770585008E-06,2.8125,0,0
-1.98394864128204E-05,7.82504139351659E-06,2.8125,0,0
-2.35819134104531E-05,1.15528928290587E-05,2.8125,0,0
-2.13340626942227E-05,1.18116950034164E-05,2.8125,0,0
-2.15430136449868E-05,1.19106198326335E-05,2.8125,0,0
-2.17481428990141E-05,1.18891648526187E-05,2.8125,0,0
-2.23787374125095E-05,1.32894692796981E-05,2.8125,0,0
-2.2332844309858E-05,1.43751231007627E-05,2.8125,0,0
-2.1514486434171E-05,1.39777557706111E-05,2.8125,0,0
-2.2269716282608E-05,1.31589376906049E-05,2.8125,0,0
-2.15035215660464E-05,1.23336494652904E-05,2.8125,0,0
-2.21883838094072E-05,1.37274555527256E-05,2.8125,0,0
-2.14065967156785E-05,1.36340595418005E-05,2.8125,0,0
-2.26049050979782E-05,1.30033968162024E-05,2.8125,0,0
-2.21503323700745E-05,1.24653552120435E-05,2.8125,0,0
-2.37034655583557E-05,1.42085200423026E-05,2.8125,0,0
-2.42927690123906E-05,1.43300121635548E-05,2.8125,0,0
-2.55036829912569E-05,1.27285520648002E-05,2.8125,0,0
-2.50625253102044E-05,9.3714070317219E-06,2.8125,0,0
-2.44474395003635E-05,9.46799355006078E-06,2.8125,0,0
-2.29709603445372E-05,1.16756091301795E-05,2.8125,0,0
-2.3430509827449E-05,1.37252100103069E-05,2.8125,0,0
-2.44845541601535E-05,1.37185097628389E-05,2.8125,0,0
-2.41937232203782E-05,1.22938408821938E-05,2.8125,0,0
-1.94788353837794E-05,9.93387402559165E-06,2.8125,0,0
-2.88462142634671E-05,1.34725160023663E-05,2.8125,0,0
-2.30717632803135E-05,9.55723771767225E-06,2.8125,0,0
-2.65104426944163E-05,1.26404520415235E-05,2.8125,0,0
-2.00532740564086E-05,1.08614603959722E-05,2.8125,0,0
-2.08749206649372E-05,1.14632348413579E-05,2.8125,0,0
-1.91576000361238E-05,8.94233289727708E-06,2.8125,0,0
-2.17393480852479E-05,9.29062298382632E-06,2.8125,0,0
-2.18816003325628E-05,9.68238509813091E-06,2.8125,0,0
-2.1999094315106E-05,1.07644964373321E-05,2.8125,0,0
-2.18721270357491E-05,1.25368915178115E-05,2.8125,0,0
-2.07843531825347E-05,1.3235838196124E-05,2.8125,0,0
-2.17339202208677E-05,1.30753442135756E-05,2.8125,0,0
-2.09395111596677E-05,1.07994355857954E-05,2.8125,0,0
-2.12194554478629E-05,9.94350284599932E-06,2.8125,0,0
-1.9593446268118E-05,9.13033545657527E-06,2.8125,0,0
-2.13414950849256E-05,1.0045006092696E-05,2.8125,0,0
-2.19642679439858E-05,9.40320205700118E-06,2.8125,0,0
-2.45845985773485E-05,8.65595211507753E-06,2.8125,0,0
-2.55266386375297E-05,6.17136583969113E-06,2.8125,0,0
-2.75916245300323E-05,5.65034315513913E-06,2.8125,0,0
-2.8065065635019E-05,6.76598074278445E-06,2.8125,0,0
-2.89449089905247E-05,9.31861541175749E-06,2.8125,0,0
-2.84896814264357E-05,1.0487696272321E-05,2.8125,0,0
-2.84271372947842E-05,1.15016564450343E-05,2.8125,0,0
-2.73356854449958E-05,1.20778840937419E-05,2.8125,0,0
-2.59926691796863E-05,1.13283431346645E-05,2.8125,0,0
-2.16637254197849E-05,9.53900416789111E-06,2.8125,0,0
-3.15400429826695E-05,1.49834986586939E-05,2.8125,0,0
-2.46148320002249E-05,1.29392101371195E-05,2.8125,0,0
-2.90974203380756E-05,1.58514631038997E-05,2.8125,0,0
-2.36233208852354E-05,1.56375117512653E-05,2.8125,0,0
-2.63100810116157E-05,1.6611638784525E-05,2.8125,0,0
-2.5148941858788E-05,1.31883216454298E-05,2.8125,0,0
-2.83961853710935E-05,1.22784285849775E-05,2.8125,0,0
-2.97576625598595E-05,1.17896188385203E-05,2.8125,0,0
-3.07761547446717E-05,1.06789511846728E-05,2.8125,0,0
-3.03468968922971E-05,9.45449119171826E-06,2.8125,0,0
-2.8790442229365E-05,9.7092624855577E-06,2.8125,0,0
-2.93953962682281E-05,1.20450240501668E-05,2.8125,0,0
-2.8136153559899E-05,1.29672307593864E-05,2.8125,0,0
-2.96878861263394E-05,1.31780807350879E-05,2.8125,0,0
-2.95806603389792E-05,1.13558235170785E-05,2.8125,0,0
-3.16462064802181E-05,1.16977425932419E-05,2.8125,0,0
-3.0251747375587E-05,1.24942789625493E-05,2.8125,0,0
-3.00847241305746E-05,1.37519446070655E-05,2.8125,0,0
-2.90103089355398E-05,1.44094292409136E-05,2.8125,0,0
-3.07565824186895E-05,1.55205161718186E-05,2.8125,0,0
-2.9240220101201E-05,1.34709689518786E-05,2.8125,0,0
-2.71256758423988E-05,1.19275191536872E-05,2.8125,0,0
-2.59452281170525E-05,1.18914367703837E-05,2.8125,0,0
-2.70684104179963E-05,1.26619206639589E-05,2.8125,0,0
-2.7690504794009E-05,1.21568118629511E-05,2.8125,0,0
-2.82485743809957E-05,1.08193926280364E-05,2.8125,0,0
-2.19199537241366E-05,8.84186374605633E-06,2.8125,0,0
-2.93155644612852E-05,1.25862716231495E-05,2.8125,0,0
-2.04394582397072E-05,1.03384390968131E-05,2.8125,0,0
-2.60324086411856E-05,1.40436204674188E-05,2.8125,0,0
-2.12018640013412E-05,1.254307153431E-05,2.8125,0,0
-2.54949172813213E-05,1.33184321384761E-05,2.8125,0,0
-2.38641423493391E-05,1.11435565486318E-05,2.8125,0,0
-2.52506870310754E-05,1.03981628853944E-05,2.8125,0,0
-2.43669765040977E-05,9.9457520263968E-06,2.8125,0,0
-2.54582064371789E-05,1.06745765151572E-05,2.8125,0,0
-2.69247866526712E-05,1.17435274660238E-05,2.8125,0,0
-2.59377429756569E-05,1.04396431197529E-05,2.8125,0,0
-2.52990212175064E-05,8.19947126728948E-06,2.8125,0,0
-2.24279920075787E-05,6.47499791739392E-06,2.8125,0,0
-2.27431028179126E-05,7.76106844568858E-06,2.8125,0,0
-2.09731042559724E-05,9.02405281522078E-06,2.8125,0,0
-2.0924240743625E-05,1.11974195533548E-05,2.8125,0,0
-1.80339484359138E-05,1.15784123408957E-05,2.8125,0,0
-1.86651559488382E-05,1.1678998816933E-05,2.8125,0,0
-1.84041873581009E-05,1.11153331090463E-05,2.8125,0,0
-2.00296981347492E-05,1.23381987577886E-05,2.8125,0,0
-1.89631755347364E-05,1.33151042973623E-05,2.8125,0,0
-1.89710135600762E-05,1.33691037262906E-05,2.8125,0,0
-1.9293849618407E-05,1.2411825991876E-05,2.8125,0,0
-2.12412669498008E-05,1.19088135761558E-05,2.8125,0,0
-2.16600183193805E-05,1.15697203000309E-05,2.8125,0,0
-2.05572578124702E-05,1.08279291453073E-05,2.8125,0,0
-1.70481798704714E-05,7.50231311030802E-06,2.8125,0,0
-2.4815917640808E-05,1.062969204213E-05,2.8125,0,0
-1.90422124433098E-05,8.7574580902583E-06,2.8125,0,0
-2.28571880143136E-05,1.12711895781104E-05,2.8125,0,0
-1.96235741896089E-05,9.61211026151432E-06,2.8125,0,0
-2.26037500397069E-05,1.00338638731046E-05,2.8125,0,0
-2.2735928723705E-05,9.0574067144189E-06,2.8125,0,0
-2.50256343861111E-05,9.92499553831294E-06,2.8125,0,0
-2.52866611845093E-05,8.46836428536335E-06,2.8125,0,0
-2.54576116276439E-05,6.6274474193051E-06,2.8125,0,0
-2.53494308708468E-05,5.61128354092943E-06,2.8125,0,0
-2.46316085394938E-05,4.88605837745126E-06,2.8125,0,0
-2.47571024374338E-05,4.90319825985353E-06,2.8125,0,0
-2.30616315093357E-05,4.32110891779303E-06,2.8125,0,0
-2.39723685808713E-05,5.41143526788801E-06,2.8125,0,0
-2.48257183557143E-05,6.37185848972877E-06,2.8125,0,0
-2.7720943762688E-05,7.75858461565804E-06,2.8125,0,0
-2.72297020273982E-05,8.22700076241745E-06,2.8125,0,0
-2.68571347987745E-05,9.95409573079087E-06,2.8125,0,0
-2.52514582825825E-05,9.67790128925117E-06,2.8125,0,0
-2.5622510293033E-05,8.22729543870082E-06,2.8125,0,0
-2.58415839198278E-05,6.30577824267675E-06,2.8125,0,0
-2.76049486274133E-05,6.31205648460309E-06,2.8125,0,0
-2.74505655397661E-05,7.50276558392216E-06,2.8125,0,0
-2.61311797657982E-05,8.94820550456643E-06,2.8125,0,0
-2.47356310865143E-05,9.79780725174351E-06,2.8125,0,0
-2.48842752625933E-05,1.19013511721278E-05,2.8125,0,0
-1.87798887054669E-05,1.06117677205475E-05,2.8125,0,0
-2.46110630541807E-05,1.61555617523845E-05,2.8125,0,0
-1.75415789271938E-05,1.40329038913478E-05,2.8125,0,0
-2.40552017203299E-05,1.71596166183008E-05,2.8125,0,0
-2.06314798560925E-05,1.39699450301123E-05,2.8125,0,0
-2.39995988522423E-05,1.35014306579251E-05,2.8125,0,0
-2.07094672077801E-05,1.15275233838474E-05,2.8125,0,0
-2.06581717066001E-05,1.25087153719505E-05,2.8125,0,0
-1.95314605662134E-05,1.26117847685236E-05,2.8125,0,0
-1.8932085367851E-05,1.29263971757609E-05,2.8125,0,0
-1.78966693056282E-05,1.28497522382531E-05,2.8125,0,0
-1.65617475431645E-05,1.20842823889689E-05,2.8125,0,0
-1.80439565156121E-05,1.26717759485473E-05,2.8125,0,0
-1.81090617843438E-05,1.2904887626064E-05,2.8125,0,0
-2.01543134608073E-05,1.28788524307311E-05,2.8125,0,0
-2.00825652427739E-05,1.14612312245299E-05,2.8125,0,0
-2.20718720811419E-05,1.28161564134643E-05,2.8125,0,0
-2.15557520277798E-05,1.37084252855857E-05,2.8125,0,0
-2.29682791541563E-05,1.43108063639374E-05,2.8125,0,0
-2.25389831030043E-05,1.32917130031274E-05,2.8125,0,0
-2.32034981308971E-05,1.3805489288643E-05,2.8125,0,0
-2.18966506508878E-05,1.36611934067332E-05,2.8125,0,0
-2.24579180212459E-05,1.32497571030399E-05,2.8125,0,0
-2.34338604059303E-05,1.18565239972668E-05,2.8125,0,0
-2.36811702052364E-05,1.13675641841837E-05,2.8125,0,0
-2.20828169403831E-05,1.17754289021832E-05,2.8125,0,0
-2.11220813071122E-05,1.18618263513781E-05,2.8125,0,0
-1.69115010066889E-05,8.44840451463824E-06,2.8125,0,0
-2.46240251726704E-05,1.1859957339766E-05,2.8125,0,0
-1.96514374692924E-05,9.59184399107471E-06,2.8125,0,0
-2.44159509747988E-05,1.27778957903502E-05,2.8125,0,0
-2.10736052395077E-05,1.07269825093681E-05,2.8125,0,0
-2.29074921662686E-05,1.05767085187836E-05,2.8125,0,0
-2.12967279367149E-05,8.08001095720101E-06,2.8125,0,0
-2.31564645218896E-05,8.01927399152191E-06,2.8125,0,0
-2.47322404902661E-05,8.15749353932915E-06,2.8125,0,0
-2.67592276941286E-05,7.98591918282909E-06,2.8125,0,0
-2.80045787803829E-05,7.38005383027485E-06,2.8125,0,0
-2.69130378001137E-05,6.22696779828402E-06,2.8125,0,0
-2.61044333456084E-05,6.21879826212535E-06,2.8125,0,0
-2.4528504582122E-05,6.41797896605567E-06,2.8125,0,0
-2.53433045145357E-05,7.76455726736458E-06,2.8125,0,0
-2.48097130679525E-05,7.99696863396093E-06,2.8125,0,0
-2.64182290266035E-05,8.55202506500063E-06,2.8125,0,0
-2.65621129074134E-05,7.92276023275917E-06,2.8125,0,0
-2.82927485386608E-05,8.62973593029892E-06,2.8125,0,0
-2.83814333670307E-05,8.25841107143788E-06,2.8125,0,0
-2.89822564809583E-05,8.53465098771267E-06,2.8125,0,0
-2.76376413239632E-05,9.17247871257132E-06,2.8125,0,0
-2.68470939772669E-05,9.89547243079869E-06,2.8125,0,0
-2.58681302511832E-05,9.39464098337339E-06,2.8125,0,0
-2.57563879131339E-05,9.38268658501329E-06,2.8125,0,0
-2.53931975748856E-05,1.08368894871091E-05,2.8125,0,0
-2.60143133345991E-05,1.33364637804334E-05,2.8125,0,0
-2.09590052691055E-05,1.17015615614946E-05,2.8125,0,0
-2.888905328291E-05,1.50701553138788E-05,2.8125,0,0
-2.08625424420461E-05,8.61733315105084E-06,2.8125,0,0
-2.69631127594039E-05,1.07459909486352E-05,2.8125,0,0
-2.27849450311624E-05,8.53730580274714E-06,2.8125,0,0
-2.46284671447938E-05,1.10811206468497E-05,2.8125,0,0
-2.12431314139394E-05,1.09765815068386E-05,2.8125,0,0
-2.33106511586811E-05,1.27646044347784E-05,2.8125,0,0
-2.44879556703381E-05,1.198522568302E-05,2.8125,0,0
-2.56507428275654E-05,1.09338170659612E-05,2.8125,0,0
-2.63754936895566E-05,1.09054481072235E-05,2.8125,0,0
-2.55390332313254E-05,1.0519681381993E-05,2.8125,0,0
-2.65499147644732E-05,1.05510434877942E-05,2.8125,0,0
-2.62553712673252E-05,9.44538442126941E-06,2.8125,0,0
-2.76945938821882E-05,1.02987878562999E-05,2.8125,0,0
-2.66379647655413E-05,1.06979496194981E-05,2.8125,0,0
-2.81703778455267E-05,1.23259778774809E-05,2.8125,0,0
-2.77002727671061E-05,1.18539846880594E-05,2.8125,0,0
-2.96167090709787E-05,1.24365369629231E-05,2.8125,0,0
-2.86583162960596E-05,1.25605711218668E-05,2.8125,0,0
-2.73159912467236E-05,1.30927837744821E-05,2.8125,0,0
-2.51949022640474E-05,1.09617585621891E-05,2.8125,0,0
-2.5115279640886E-05,9.06470177142182E-06,2.8125,0,0
-2.42052356043132E-05,8.30534008855466E-06,2.8125,0,0
-2.48772394115804E-05,9.7374258984928E-06,2.8125,0,0
-2.45807441388024E-05,9.83433710644022E-06,2.8125,0,0
-2.29120596486609E-05,8.58864768815693E-06,2.8125,0,0
-1.67692614922998E-05,7.09721552993869E-06,2.8125,0,0
-2.35173574765213E-05,1.12290799734183E-05,2.8125,0,0
-1.87923142220825E-05,9.40380414249375E-06,2.8125,0,0
-2.36495488934452E-05,1.10005821625236E-05,2.8125,0,0
-1.87187015399104E-05,1.053478627E-05,2.8125,0,0
-2.11143087653909E-05,1.1198849279026E-05,2.8125,0,0
-2.06883414648473E-05,1.02531212178292E-05,2.8125,0,0
-2.25324001803529E-05,1.04665887192823E-05,2.8125,0,0
-2.22970520553645E-05,9.85104816209059E-06,2.8125,0,0
-2.25191106437705E-05,1.05661029010662E-05,2.8125,0,0
-2.25375388254179E-05,1.10793544081389E-05,2.8125,0,0
-2.1315236153896E-05,1.09393085949705E-05,2.8125,0,0
-2.27918189921184E-05,1.17137360575725E-05,2.8125,0,0
-2.34932340390515E-05,1.15258435471333E-05,2.8125,0,0
-2.46124363911804E-05,1.1407995771151E-05,2.8125,0,0
-2.31911271839635E-05,1.04899518191814E-05,2.8125,0,0
-2.37972162722144E-05,1.01563218777301E-05,2.8125,0,0
-2.2592283130507E-05,9.1597485152306E-06,2.8125,0,0
-2.25065523409285E-05,9.34819763642736E-06,2.8125,0,0
-2.09962690860266E-05,9.72494945017388E-06,2.8125,0,0
-2.19420944631565E-05,1.10035398392938E-05,2.8125,0,0
-2.27926593652228E-05,1.09522561615449E-05,2.8125,0,0
-2.41644356719917E-05,9.78634489001706E-06,2.8125,0,0
-2.37871900026221E-05,7.89338537288131E-06,2.8125,0,0
-2.43572721956298E-05,7.12885912435013E-06,2.8125,0,0
-2.46682939177845E-05,7.65819186199224E-06,2.8125,0,0
-2.46395393332932E-05,8.35429455037229E-06,2.8125,0,0
-1.97437238966813E-05,6.39922973277862E-06,2.8125,0,0
-2.83210683846846E-05,8.70094754645834E-06,2.8125,0,0
-2.08827877941076E-05,6.73831846143003E-06,2.8125,0,0
-2.42622827499872E-05,9.96065318759065E-06,2.8125,0,0
-1.98854995687725E-05,9.69376560533419E-06,2.8125,0,0
-2.42504302150337E-05,1.00241813925095E-05,2.8125,0,0
-2.31128906307276E-05,8.76439935382223E-06,2.8125,0,0
-2.33814098464791E-05,9.17357738217106E-06,2.8125,0,0
-2.25999428948853E-05,8.20813056634506E-06,2.8125,0,0
-2.30668083531782E-05,8.2230762927793E-06,2.8125,0,0
-2.25947569560958E-05,1.03101747299661E-05,2.8125,0,0
-2.01426228159107E-05,1.20802478704718E-05,2.8125,0,0
-1.89735201274743E-05,1.2188086657261E-05,2.8125,0,0
-1.71345582202775E-05,1.05456429082551E-05,2.8125,0,0
-1.84045675268862E-05,9.14120937522966E-06,2.8125,0,0
-1.78189511643723E-05,7.99685858510202E-06,2.8125,0,0
-1.88645262824139E-05,9.72886300587561E-06,2.8125,0,0
-1.77660913323052E-05,1.1110064406239E-05,2.8125,0,0
-1.91826475202106E-05,1.19279111459036E-05,2.8125,0,0
-1.94401745829964E-05,1.13188307295786E-05,2.8125,0,0
-2.08946312341141E-05,1.20295690066996E-05,2.8125,0,0
-2.02331975742709E-05,1.37018259920296E-05,2.8125,0,0
-2.03892650461057E-05,1.43328043122892E-05,2.8125,0,0
-1.95759366761195E-05,1.24147463793634E-05,2.8125,0,0
-1.95293014257913E-05,1.19410242405138E-05,2.8125,0,0
-1.98281340999529E-05,1.48398066812661E-05,2.8125,0,0
-2.06438926397823E-05,1.73942025867291E-05,2.8125,0,0
-1.92141087609343E-05,1.29273721540812E-05,2.8125,0,0
-2.88440369331511E-05,1.68124479387188E-05,2.8125,0,0
-2.31075864576269E-05,1.20943832371267E-05,2.8125,0,0
-2.75394195341505E-05,1.68216774909524E-05,2.8125,0,0
-2.34441940847319E-05,1.38016430355492E-05,2.8125,0,0
-2.54140359174926E-05,1.56729438458569E-05,2.8125,0,0
-2.29546894843224E-05,1.49517181853298E-05,2.8125,0,0
-2.34171657211846E-05,1.67507296282565E-05,2.8125,0,0
-2.45739756792318E-05,1.57131053128978E-05,2.8125,0,0
-2.75759448413737E-05,1.48081180668669E-05,2.8125,0,0
-3.00330830214079E-05,1.53116961882915E-05,2.8125,0,0
-2.86239937850041E-05,1.55139805428917E-05,2.8125,0,0
-2.71902772510657E-05,1.56688984134234E-05,2.8125,0,0
-2.48041451413883E-05,1.36639346237644E-05,2.8125,0,0
-2.53525759035256E-05,1.35352001962019E-05,2.8125,0,0
-2.49914810410701E-05,1.28915125969797E-05,2.8125,0,0
-2.63410893239779E-05,1.51680906128604E-05,2.8125,0,0
-2.48868254857371E-05,1.61066145665245E-05,2.8125,0,0
-2.45913142862264E-05,1.60017589223571E-05,2.8125,0,0
-2.34219969570404E-05,1.24894049804425E-05,2.8125,0,0
-2.43166632571956E-05,1.09151242213557E-05,2.8125,0,0
-2.39895380218513E-05,1.04203400042024E-05,2.8125,0,0
-2.40640492847888E-05,1.13837104436243E-05,2.8125,0,0
-2.45146584347822E-05,1.12948573587346E-05,2.8125,0,0
-2.5794395696721E-05,1.24476864584722E-05,2.8125,0,0
-2.47030639002332E-05,1.39051217047381E-05,2.8125,0,0
-2.25233688979642E-05,1.51135554915527E-05,2.8125,0,0
-1.77136880665785E-05,1.1304151485092E-05,2.8125,0,0
-2.60633059951942E-05,1.50078058140934E-05,2.8125,0,0
-2.09028403332923E-05,1.19802980407258E-05,2.8125,0,0
-2.49816730502062E-05,1.71409355971264E-05,2.8125,0,0
-2.05876858672127E-05,1.44192190418835E-05,2.8125,0,0
-2.32619313464966E-05,1.46217798828729E-05,2.8125,0,0
-2.28641165449517E-05,1.0948199815175E-05,2.8125,0,0
-2.543115260778E-05,1.01348214229802E-05,2.8125,0,0
-2.60058859566925E-05,9.58815417106962E-06,2.8125,0,0
-2.54477490670979E-05,9.40967947826721E-06,2.8125,0,0
-2.49275708483765E-05,9.37173444981454E-06,2.8125,0,0
-2.53506186709274E-05,9.33264982450055E-06,2.8125,0,0
-2.7621670597E-05,9.88836200122023E-06,2.8125,0,0
-2.70628261205275E-05,8.34276761452202E-06,2.8125,0,0
-2.75008151220391E-05,7.97851316747256E-06,2.8125,0,0
-2.67905452346895E-05,7.55179235056858E-06,2.8125,0,0
-2.80170097539667E-05,1.00966535683256E-05,2.8125,0,0
-2.69698921329109E-05,1.14081722131232E-05,2.8125,0,0
-2.74865960818715E-05,1.29276031657355E-05,2.8125,0,0
-2.57841256825486E-05,1.25194710562937E-05,2.8125,0,0
-2.47178868448827E-05,1.20198610602529E-05,2.8125,0,0
-2.31306457862956E-05,9.74180511548184E-06,2.8125,0,0
-2.20992587856017E-05,8.98291455087019E-06,2.8125,0,0
-2.01631664822344E-05,8.69687846716261E-06,2.8125,0,0
-1.9859484382323E-05,7.83395989856217E-06,2.8125,0,0
-2.07734956347849E-05,6.89669604980736E-06,2.8125,0,0
-2.36352407227969E-05,7.14124462319887E-06,2.8125,0,0
-2.13788716791896E-05,6.42072382106562E-06,2.8125,0,0
-3.15613942802884E-05,9.86250688583823E-06,2.8125,0,0
-2.48777541855816E-05,8.35144874145044E-06,2.8125,0,0
-3.10170944430865E-05,1.06132338260068E-05,2.8125,0,0
-2.81518841802608E-05,1.07993719211663E-05,2.8125,0,0
-3.19239734380972E-05,1.12974839794333E-05,2.8125,0,0
-3.08809212583583E-05,9.38280845730333E-06,2.8125,0,0
-3.26300942106172E-05,9.04195530893048E-06,2.8125,0,0
-3.16000405291561E-05,8.37681818666169E-06,2.8125,0,0
-3.01551262964495E-05,8.19023989606649E-06,2.8125,0,0
-2.91835804091534E-05,8.99737278814428E-06,2.8125,0,0
-2.74811591225443E-05,9.80368622549577E-06,2.8125,0,0
-2.76734699582448E-05,1.02923913800623E-05,2.8125,0,0
-2.70744931185618E-05,9.85130554909119E-06,2.8125,0,0
-2.92163531412371E-05,1.01294281193987E-05,2.8125,0,0
-2.84824473055778E-05,1.00260695035104E-05,2.8125,0,0
-2.85155820165528E-05,1.01654486570624E-05,2.8125,0,0
-2.5726778403623E-05,9.2509053501999E-06,2.8125,0,0
-2.50250323006185E-05,9.9001454145764E-06,2.8125,0,0
-2.19240355363581E-05,1.06447159851086E-05,2.8125,0,0
-1.93995838344563E-05,1.12763991637621E-05,2.8125,0,0
-1.64375669555739E-05,1.05636654552654E-05,2.8125,0,0
-1.56842343130847E-05,1.02088552011992E-05,2.8125,0,0
-1.43652114275028E-05,1.00786246548523E-05,2.8125,0,0
-1.30291909954394E-05,9.8375585366739E-06,2.8125,0,0
-1.15547554742079E-05,9.29126781556988E-06,2.8125,0,0
-1.03685006251908E-05,8.43147608975414E-06,2.8125,0,0
-8.34709680930246E-06,5.84798317504465E-06,2.8125,0,0
-1.17616073112004E-05,8.46011243993416E-06,2.8125,0,0
-9.54549523157766E-06,6.90430260874564E-06,2.8125,0,0
-1.36125345306937E-05,9.4687702585361E-06,2.8125,0,0
-1.49921961565269E-05,8.87915484781843E-06,2.8125,0,0
-1.8306347556063E-05,9.61299338086974E-06,2.8125,0,0
-1.84551281563472E-05,9.43110171647277E-06,2.8125,0,0
-1.99564201466274E-05,9.97977622319013E-06,2.8125,0,0
-2.15843429032248E-05,1.01192008514772E-05,2.8125,0,0
