biceps_emg, triceps_emg, subject_position, position_estimate, brace_position
-2.22220060095424E-05,1.22453830044833E-05,2.63671875,0,0
-2.19185203604866E-05,5.36529250894091E-06,2.63671875,0,0
-1.92748429981293E-05,5.05440857523354E-06,2.63671875,0,0
-1.90111986739794E-05,5.70205475014518E-06,2.63671875,0,0
-1.78292211785447E-05,6.2466529016092E-06,2.63671875,0,0
-1.86683555511991E-05,6.28124280410702E-06,2.63671875,0,0
-1.95504926523427E-05,5.85673933528597E-06,2.63671875,0,0
-2.16537973756203E-05,8.21798857941758E-06,2.63671875,0,0
-2.0778445104952E-05,1.09768043330405E-05,2.63671875,0,0
-2.04013886104804E-05,1.11248573375633E-05,2.63671875,0,0
-2.11596125154756E-05,7.81744347477797E-06,2.63671875,0,0
-2.27380296564661E-05,5.54303551325575E-06,2.63671875,0,0
-1.90659593499731E-05,6.13090560364071E-06,2.63671875,0,0
-2.59029293374624E-05,1.37019442263409E-05,2.63671875,0,0
-1.61524712893879E-05,1.36392818603781E-05,2.63671875,0,0
-1.92263833014295E-05,1.96500659512822E-05,2.63671875,0,0
-1.62124015332665E-05,2.80692001979332E-05,2.63671875,0,0
-2.00104659597855E-05,1.79926919372519E-05,2.63671875,0,0
-1.93754858628381E-05,1.05676581370062E-05,2.63671875,0,0
-2.23656697926344E-05,1.95175780390855E-05,2.63671875,0,0
-2.28557710215682E-05,1.92093320947606E-05,2.63671875,0,0
-2.2987474949332E-05,2.01410312001826E-05,2.63671875,0,0
-2.40088011196349E-05,2.53813632298261E-05,2.63671875,0,0
-2.49135046033189E-05,2.0595922251232E-05,2.63671875,0,0
-2.63729634752963E-05,1.80223178176675E-05,2.63671875,0,0
-2.54351089097327E-05,2.61429649981437E-05,2.63671875,0,0
-2.66549686784856E-05,2.94210603897227E-05,2.63671875,0,0
-2.60788347077323E-05,2.24560517381178E-05,2.63671875,0,0
-2.77192793873837E-05,1.59352894115727E-05,2.63671875,0,0
-2.74206013273215E-05,1.35571808641544E-05,2.63671875,0,0
-2.87552484223852E-05,1.47714645208907E-05,2.63671875,0,0
-2.80243821180193E-05,1.55462039401755E-05,2.63671875,0,0
-2.89399140456226E-05,1.2750248060911E-05,2.63671875,0,0
-2.92504319077125E-05,6.73839349474292E-06,2.63671875,0,0
-2.89656345557887E-05,1.42039755246515E-06,2.63671875,0,0
-2.54488058999414E-05,-2.73732575806207E-06,2.63671875,0,0
-2.44144703174243E-05,-2.51868550549261E-06,2.63671875,0,0
-2.59220742009347E-05,2.20082881696726E-07,2.63671875,0,0
-2.69495121756336E-05,1.77159893155476E-06,2.63671875,0,0
-2.08250003197463E-05,2.85023247670324E-06,2.63671875,0,0
-2.71147873718292E-05,7.49274704503478E-06,2.63671875,0,0
-1.85543740371941E-05,5.01217436976731E-06,2.63671875,0,0
-2.58956497418694E-05,6.63683067614329E-06,2.63671875,0,0
-2.25398871407378E-05,1.01504383565043E-05,2.63671875,0,0
-2.67268715106184E-05,-2.08893288800027E-06,2.63671875,0,0
-2.432936707919E-05,-4.60096680399147E-06,2.63671875,0,0
-2.37036929320311E-05,7.06688888385543E-06,2.63671875,0,0
-2.15034742723219E-05,7.71994200476911E-06,2.63671875,0,0
-2.16982334677596E-05,8.26045015855925E-06,2.63671875,0,0
-2.34040562645532E-05,1.46275042425259E-05,2.63671875,0,0
-2.44192669924814E-05,1.296317896049E-05,2.63671875,0,0
-2.52893787546782E-05,1.2626172065211E-05,2.63671875,0,0
-2.18123259401182E-05,2.38904503930826E-05,2.63671875,0,0
-2.08911951631308E-05,3.0618848541053E-05,2.63671875,0,0
-1.93320847756695E-05,2.55954546446446E-05,2.63671875,0,0
-2.14228421100415E-05,1.87278037628857E-05,2.63671875,0,0
-2.13775820157025E-05,1.55111665662844E-05,2.63671875,0,0
-2.34814360737801E-05,1.60755080287345E-05,2.63671875,0,0
-2.35010393225821E-05,2.34338749578455E-05,2.63671875,0,0
-2.45645169343334E-05,3.32362360495608E-05,2.63671875,0,0
-2.43906761170365E-05,3.83067163056694E-05,2.63671875,0,0
-2.57329611486057E-05,3.69564004358836E-05,2.63671875,0,0
-2.62685825873632E-05,3.18435122608207E-05,2.63671875,0,0
-2.79484174825484E-05,2.69845313596306E-05,2.63671875,0,0
-2.74968042504042E-05,2.252911508549E-05,2.63671875,0,0
-2.48196665779687E-05,1.7546921299072E-05,2.63671875,0,0
-1.78566770046018E-05,7.85522570367903E-06,2.63671875,0,0
-2.55940794886556E-05,1.17980971481302E-05,2.63671875,0,0
-2.06058866751846E-05,6.35406422588858E-06,2.63671875,0,0
-2.55326849583071E-05,1.12178058770951E-05,2.63671875,0,0
-2.15857107832562E-05,1.45073727253475E-05,2.63671875,0,0
-2.46395466092508E-05,2.09635140890896E-06,2.63671875,0,0
-2.40240697166882E-05,-7.37319078325527E-06,2.63671875,0,0
-2.68709227384534E-05,-1.01184150480549E-06,2.63671875,0,0
-2.70930759143084E-05,-3.91400590160629E-06,2.63671875,0,0
-2.68380445049843E-05,-4.70762324766838E-06,2.63671875,0,0
-2.57702977251029E-05,1.0469949529579E-06,2.63671875,0,0
-2.39804849115899E-05,1.22350070341781E-06,2.63671875,0,0
-2.47438547376078E-05,3.17360513690801E-06,2.63671875,0,0
-2.40461704379413E-05,9.90421358437743E-06,2.63671875,0,0
-2.47847965511028E-05,8.95888297236525E-06,2.63671875,0,0
-2.38448337768205E-05,-2.01836769520014E-07,2.63671875,0,0
-2.53671296377433E-05,-2.99581756735279E-06,2.63671875,0,0
-2.46685831370996E-05,6.25437110102212E-07,2.63671875,0,0
-2.50516095547937E-05,4.7114831431827E-06,2.63671875,0,0
-2.36322593991645E-05,7.3213941504946E-06,2.63671875,0,0
-2.35036641242914E-05,1.19492824524059E-05,2.63671875,0,0
-2.29454235523008E-05,1.57969952852E-05,2.63671875,0,0
-2.37545991694788E-05,1.83543870662106E-05,2.63671875,0,0
-2.39943419728661E-05,1.96584733203053E-05,2.63671875,0,0
-2.54663245868869E-05,1.88101403182372E-05,2.63671875,0,0
-2.59019016084494E-05,1.42165690704132E-05,2.63671875,0,0
-2.591153679532E-05,1.04117398223025E-05,2.63671875,0,0
-1.97511653823312E-05,9.41026064538164E-06,2.63671875,0,0
-2.67358900600811E-05,1.63586064445553E-05,2.63671875,0,0
-1.9991126464447E-05,1.00311290225363E-05,2.63671875,0,0
-2.76913851848803E-05,1.30687903947546E-05,2.63671875,0,0
-2.51624333031941E-05,1.92464412975824E-05,2.63671875,0,0
-2.80118965747533E-05,1.00681427284144E-05,2.63671875,0,0
-2.52091158472467E-05,2.9075142720103E-06,2.63671875,0,0
-2.71176231763093E-05,8.03005332272733E-06,2.63671875,0,0
-2.68236872216221E-05,2.25275266529934E-06,2.63671875,0,0
-2.45214450842468E-05,-3.47870894756852E-07,2.63671875,0,0
-2.17172218981432E-05,5.44287195225479E-06,2.63671875,0,0
-2.04664447664982E-05,2.81147254099778E-06,2.63671875,0,0
-2.33767259487649E-05,2.76995677950254E-07,2.63671875,0,0
-2.40665885939961E-05,3.06523156723415E-06,2.63671875,0,0
-2.50507237069542E-05,-1.90424646007159E-06,2.63671875,0,0
-2.27101809286978E-05,-1.35128320835065E-05,2.63671875,0,0
-2.3327513190452E-05,-1.47054897752241E-05,2.63671875,0,0
-2.2975724277785E-05,-7.50371964386432E-06,2.63671875,0,0
-2.40030985878548E-05,-9.51249603531323E-07,2.63671875,0,0
-2.15659383684397E-05,9.24658593248751E-07,2.63671875,0,0
-2.06096374313347E-05,2.0228494577168E-06,2.63671875,0,0
-1.96505079657072E-05,2.98967461276334E-06,2.63671875,0,0
-2.04349034902407E-05,3.98181873606518E-06,2.63671875,0,0
-1.93242321984144E-05,8.54632435220992E-06,2.63671875,0,0
-1.89911461347947E-05,1.61434036272112E-05,2.63671875,0,0
-1.96247910935199E-05,2.08920919249067E-05,2.63671875,0,0
-1.99068017536774E-05,2.11998976737959E-05,2.63671875,0,0
-1.69011327670887E-05,1.63152981258463E-05,2.63671875,0,0
-2.46340059675276E-05,2.57441715802997E-05,2.63671875,0,0
-2.07809825951699E-05,1.64918219525134E-05,2.63671875,0,0
-2.6729330784292E-05,2.17437427636469E-05,2.63671875,0,0
-2.34805047512054E-05,2.82524033536902E-05,2.63671875,0,0
-2.42601036006818E-05,2.28493790928042E-05,2.63671875,0,0
-2.04906555154594E-05,1.88448466360569E-05,2.63671875,0,0
-2.0599938579835E-05,2.79177656921092E-05,2.63671875,0,0
-2.11632013815688E-05,2.0624982425943E-05,2.63671875,0,0
-2.31229332712246E-05,1.68050191859948E-05,2.63671875,0,0
-2.39176533796126E-05,2.45435003307648E-05,2.63671875,0,0
-2.25739586312557E-05,2.34273393289186E-05,2.63671875,0,0
-2.16447115235496E-05,1.91698873095447E-05,2.63671875,0,0
-2.07892717298819E-05,2.07142766157631E-05,2.63671875,0,0
-2.27600048674503E-05,2.01181137526874E-05,2.63671875,0,0
-2.19250450754771E-05,1.06532988866093E-05,2.63671875,0,0
-2.2052927306504E-05,1.68848703197E-06,2.63671875,0,0
-2.13096482184483E-05,-5.89148066865164E-06,2.63671875,0,0
-2.39304081333103E-05,-7.78628691477934E-06,2.63671875,0,0
-2.54150290857069E-05,-7.39887263989658E-06,2.63671875,0,0
-2.69592856056988E-05,-5.42959105587215E-06,2.63671875,0,0
-2.5893687052303E-05,-4.74352691526292E-06,2.63671875,0,0
-2.53714206337463E-05,-3.09573420054221E-06,2.63671875,0,0
-2.41824873228325E-05,-1.92328889170312E-06,2.63671875,0,0
-2.42278601945145E-05,1.54958843268105E-06,2.63671875,0,0
-2.35725474340143E-05,4.3224545152043E-06,2.63671875,0,0
-2.19144603761379E-05,4.97610972161056E-06,2.63671875,0,0
-1.73110438481672E-05,4.10354095947696E-06,2.63671875,0,0
-2.58706968452316E-05,7.23328275853419E-06,2.63671875,0,0
-2.15462732739979E-05,4.39082896264154E-06,2.63671875,0,0
-2.62347748503089E-05,1.11002964331419E-05,2.63671875,0,0
-2.1978152290103E-05,2.21061200136319E-05,2.63671875,0,0
-2.38720112974988E-05,1.38189516292186E-05,2.63671875,0,0
-2.24420109589119E-05,7.48485217627604E-06,2.63671875,0,0
-2.31801495829131E-05,1.52489728861838E-05,2.63671875,0,0
-2.34209110203665E-05,1.33764042402618E-05,2.63671875,0,0
-2.41489706240827E-05,1.62683900271077E-05,2.63671875,0,0
-2.40166245930595E-05,2.64701884589158E-05,2.63671875,0,0
-2.23580045712879E-05,2.68163003056543E-05,2.63671875,0,0
-2.15276922972407E-05,2.57988122029928E-05,2.63671875,0,0
-1.92979896382894E-05,3.09312745230272E-05,2.63671875,0,0
-2.00442718778504E-05,2.82647833955707E-05,2.63671875,0,0
-2.01989569177385E-05,1.61491989274509E-05,2.63671875,0,0
-2.15091458812822E-05,9.96318067336688E-06,2.63671875,0,0
-2.12538507184945E-05,1.16253349915496E-05,2.63671875,0,0
-2.50516986852745E-05,1.42562539622304E-05,2.63671875,0,0
-2.7482816221891E-05,1.39705152832903E-05,2.63671875,0,0
-2.8085196390748E-05,1.03932106867433E-05,2.63671875,0,0
-2.61538498307345E-05,1.44002228807949E-06,2.63671875,0,0
-2.48252872552257E-05,-5.49393325854908E-06,2.63671875,0,0
-2.44241109612631E-05,-3.83468068321235E-06,2.63671875,0,0
-2.69121901510516E-05,-1.4093263871473E-06,2.63671875,0,0
-2.79673258773983E-05,-5.20601270181942E-06,2.63671875,0,0
-2.64080208580708E-05,-8.64417415868957E-06,2.63671875,0,0
-1.98764537344687E-05,-5.0043486226059E-06,2.63671875,0,0
-2.81235679722158E-05,-2.85473720396112E-06,2.63671875,0,0
-1.98214511328842E-05,-2.16114335671591E-06,2.63671875,0,0
-2.20849542529322E-05,-4.34321600550902E-06,2.63671875,0,0
-1.80579063453479E-05,1.05685057860683E-06,2.63671875,0,0
-2.42339101532707E-05,-7.8140692494344E-06,2.63671875,0,0
-2.46011550188996E-05,-4.25437337980838E-06,2.63671875,0,0
-2.70225191343343E-05,9.37121058086632E-06,2.63671875,0,0
-2.67074192379368E-05,9.62284866545815E-06,2.63671875,0,0
-2.62305002252106E-05,1.17722411232535E-05,2.63671875,0,0
-2.57211795542389E-05,2.54769620369188E-05,2.63671875,0,0
-2.51296078204177E-05,2.84894449578132E-05,2.63671875,0,0
-2.71564749709796E-05,2.562785630289E-05,2.63671875,0,0
-2.77348117379006E-05,2.86248905467801E-05,2.63671875,0,0
-2.91814085358055E-05,2.55467184615554E-05,2.63671875,0,0
-2.69668616965646E-05,1.69467821251601E-05,2.63671875,0,0
-2.72479101113277E-05,1.13654632514226E-05,2.63671875,0,0
-2.64769514615182E-05,1.28217470773961E-05,2.63671875,0,0
-2.70598520728527E-05,1.28029869301827E-05,2.63671875,0,0
-2.47172647505067E-05,1.12242969407816E-05,2.63671875,0,0
-2.42018159042345E-05,9.32272632780951E-06,2.63671875,0,0
-2.30320238188142E-05,1.36942562676268E-05,2.63671875,0,0
-2.37023959925864E-05,2.18120767385699E-05,2.63671875,0,0
-2.31571793847252E-05,2.91151973215165E-05,2.63671875,0,0
-2.31238918786403E-05,3.02932094200514E-05,2.63671875,0,0
-2.30130899581127E-05,2.45201135840034E-05,2.63671875,0,0
-2.20494166569551E-05,1.6902522474993E-05,2.63671875,0,0
-1.7848555216915E-05,1.09760621853638E-05,2.63671875,0,0
-2.5336265025544E-05,1.75695113284746E-05,2.63671875,0,0
-1.88296471606009E-05,1.07681116787717E-05,2.63671875,0,0
-2.23081588046625E-05,1.67087709996849E-05,2.63671875,0,0
-1.88321755558718E-05,1.99539517780067E-05,2.63671875,0,0
-2.25230032810941E-05,5.91447997067007E-06,2.63671875,0,0
-2.07249195227632E-05,-2.20820243157505E-06,2.63671875,0,0
-2.24976447498193E-05,6.69486189508461E-06,2.63671875,0,0
-2.37801250477787E-05,4.21382492277189E-06,2.63671875,0,0
-2.51711717282888E-05,3.10981772599916E-06,2.63671875,0,0
-2.60159886238398E-05,8.5853516793577E-06,2.63671875,0,0
-2.54931164818117E-05,5.25500263393042E-06,2.63671875,0,0
-2.5977125915233E-05,3.36585958393698E-06,2.63671875,0,0
-2.43454596784431E-05,1.04479822766734E-05,2.63671875,0,0
-2.49763634201372E-05,1.46987549669575E-05,2.63671875,0,0
-2.40411536651663E-05,1.10014589154162E-05,2.63671875,0,0
-2.45054106926546E-05,7.58728401706321E-06,2.63671875,0,0
-2.29682464123471E-05,7.46348678148934E-06,2.63671875,0,0
-2.40907702391269E-05,1.35017935463111E-05,2.63671875,0,0
-2.43613558268407E-05,1.89635466085747E-05,2.63671875,0,0
-2.66161550825927E-05,1.93502728507156E-05,2.63671875,0,0
-2.76009886874817E-05,1.8355276552029E-05,2.63671875,0,0
-2.74151771009201E-05,2.03652234631591E-05,2.63671875,0,0
-2.46107774728443E-05,2.23365059355274E-05,2.63671875,0,0
-2.31814374274109E-05,2.38543034356553E-05,2.63671875,0,0
-2.25926014536526E-05,2.33665959967766E-05,2.63671875,0,0
-2.28191529458854E-05,2.32868460443569E-05,2.63671875,0,0
-1.94735803233925E-05,1.91715316759655E-05,2.63671875,0,0
-2.76675436907681E-05,2.63886176981032E-05,2.63671875,0,0
-2.21088885155041E-05,1.32376153487712E-05,2.63671875,0,0
-2.78767038253136E-05,1.84087439265568E-05,2.63671875,0,0
-2.2915575755178E-05,2.02569135581143E-05,2.63671875,0,0
-2.48199194174958E-05,1.41262926263153E-05,2.63671875,0,0
-2.14407809835393E-05,9.19971353141591E-06,2.63671875,0,0
-2.24006525968434E-05,1.61767093231902E-05,2.63671875,0,0
-2.42106088990113E-05,6.62003185425419E-06,2.63671875,0,0
-2.64128866547253E-05,-1.23884012737108E-06,2.63671875,0,0
-2.58849959209329E-05,2.96349185191502E-06,2.63671875,0,0
-2.26072734221816E-05,-3.15814432383377E-08,2.63671875,0,0
-2.25067287829006E-05,-3.51924177266483E-06,2.63671875,0,0
-2.28160479309736E-05,-1.18261880288628E-06,2.63671875,0,0
-2.53598700510338E-05,-2.7711739676306E-06,2.63671875,0,0
-2.45548362727277E-05,-1.45142157634837E-05,2.63671875,0,0
-2.55592694884399E-05,-1.86536726687336E-05,2.63671875,0,0
-2.54238966590492E-05,-1.42624530781177E-05,2.63671875,0,0
-2.71257704298478E-05,-8.19012348074466E-06,2.63671875,0,0
-2.61440563917859E-05,-9.95912614598637E-06,2.63671875,0,0
-2.62543271674076E-05,-9.95177924778545E-06,2.63671875,0,0
-2.5046012524399E-05,-5.74382102058735E-06,2.63671875,0,0
-2.52251611527754E-05,1.88120372968115E-06,2.63671875,0,0
-2.51030196523061E-05,8.85260124050546E-06,2.63671875,0,0
-2.70795608230401E-05,1.67477392096771E-05,2.63671875,0,0
-2.949990266643E-05,2.22347171074944E-05,2.63671875,0,0
-2.98359354928834E-05,2.0298313756939E-05,2.63671875,0,0
-2.26007141463924E-05,1.13063069875352E-05,2.63671875,0,0
-3.09404567815363E-05,1.63220956892474E-05,2.63671875,0,0
-2.17519282159628E-05,7.43448617868125E-06,2.63671875,0,0
-2.83480967482319E-05,1.13309006337659E-05,2.63671875,0,0
-2.48826581810135E-05,1.85569042514544E-05,2.63671875,0,0
-2.64081336354138E-05,1.44786599776126E-05,2.63671875,0,0
-2.1982028556522E-05,1.16295914267539E-05,2.63671875,0,0
-2.39799974224297E-05,2.38313059526263E-05,2.63671875,0,0
-2.37457770708716E-05,2.30358473345404E-05,2.63671875,0,0
-2.27447108045453E-05,1.88755257113371E-05,2.63671875,0,0
-2.07299872272415E-05,1.92424176930217E-05,2.63671875,0,0
-1.91090621228796E-05,1.22889960039174E-05,2.63671875,0,0
-2.08874844247475E-05,8.80596235219855E-06,2.63671875,0,0
-1.99419955606572E-05,1.529068867967E-05,2.63671875,0,0
-1.97107583517209E-05,1.59739774971968E-05,2.63671875,0,0
-1.69627455761656E-05,4.04465617975802E-06,2.63671875,0,0
-1.88844369404251E-05,-4.43278304373962E-06,2.63671875,0,0
-1.95945085579297E-05,-5.08726679981919E-06,2.63671875,0,0
-2.14391493500443E-05,-1.21319067147851E-06,2.63671875,0,0
-2.0594732632162E-05,-1.27678003991605E-06,2.63671875,0,0
-2.29185261559905E-05,-3.39429493578791E-06,2.63671875,0,0
-2.37626209127484E-05,-3.70586280951102E-06,2.63671875,0,0
-2.48027499765158E-05,-2.25990129365528E-06,2.63671875,0,0
-2.40316094277659E-05,-1.66916220223357E-06,2.63671875,0,0
-2.38243392232107E-05,2.3227296424011E-06,2.63671875,0,0
-2.4171793484129E-05,5.54454345547128E-06,2.63671875,0,0
-2.39767086895881E-05,6.41418318991782E-06,2.63671875,0,0
-1.89499060070375E-05,1.05098197309417E-05,2.63671875,0,0
-2.7662283173413E-05,2.52621630352223E-05,2.63671875,0,0
-2.24301766138524E-05,2.78544030152261E-05,2.63671875,0,0
-2.76463870250154E-05,3.42155799444299E-05,2.63671875,0,0
-2.32094007515116E-05,3.9082548028091E-05,2.63671875,0,0
-2.52069366979413E-05,2.59639764408348E-05,2.63671875,0,0
-2.37232216022676E-05,2.03132531169103E-05,2.63671875,0,0
-2.51082783506718E-05,2.8064650905435E-05,2.63671875,0,0
-2.40301269514021E-05,2.36613177548861E-05,2.63671875,0,0
-2.44685343204765E-05,2.20632664422737E-05,2.63671875,0,0
-2.60814267676324E-05,2.8607617423404E-05,2.63671875,0,0
-2.58962481893832E-05,2.48054438998224E-05,2.63671875,0,0
-2.69365518761333E-05,2.06608692678856E-05,2.63671875,0,0
-2.64334266830701E-05,2.34958406508667E-05,2.63671875,0,0
-2.8126638426329E-05,1.84127111424459E-05,2.63671875,0,0
-2.8778316846001E-05,5.84862118557794E-06,2.63671875,0,0
-3.14888675347902E-05,-2.77262955705737E-07,2.63671875,0,0
-3.06537585856859E-05,3.73048465007741E-07,2.63671875,0,0
-2.93389493890572E-05,1.17430136015173E-06,2.63671875,0,0
-2.5814075343078E-05,9.9626277005882E-07,2.63671875,0,0
-2.57340161624597E-05,2.27217356041365E-06,2.63671875,0,0
-2.67658942902926E-05,2.35201855502964E-06,2.63671875,0,0
-2.79824525932781E-05,1.0129367638001E-06,2.63671875,0,0
-2.59893658949295E-05,-4.9632290028967E-06,2.63671875,0,0
-2.41210564126959E-05,-1.47013815876562E-05,2.63671875,0,0
-2.29526413022541E-05,-2.03176659852033E-05,2.63671875,0,0
-2.20927868213039E-05,-1.95617849385599E-05,2.63671875,0,0
-1.77164893102599E-05,-1.01850600913167E-05,2.63671875,0,0
-2.54025053436635E-05,-9.54512688622344E-06,2.63671875,0,0
-1.98256057046819E-05,-5.80324558541179E-06,2.63671875,0,0
-2.34326562349452E-05,-3.83477481591399E-06,2.63671875,0,0
-1.84832570084836E-05,1.05038343463093E-05,2.63671875,0,0
-2.01122147700517E-05,2.77161689155037E-07,2.63671875,0,0
-1.78245263668941E-05,-1.06292509371997E-06,2.63671875,0,0
-1.9807661374216E-05,9.62188369157957E-06,2.63671875,0,0
-1.9880624677171E-05,9.83687368716346E-06,2.63671875,0,0
-1.97074386960594E-05,8.35357786854729E-06,2.63671875,0,0
-1.97629269678146E-05,1.33863250084687E-05,2.63671875,0,0
-1.96350156329572E-05,1.10216078610392E-05,2.63671875,0,0
-2.07335360755678E-05,9.69202028500149E-06,2.63671875,0,0
-1.97626013687113E-05,2.03336567210499E-05,2.63671875,0,0
-2.11058704735478E-05,2.30640598601894E-05,2.63671875,0,0
-2.12684517464368E-05,1.7671509340289E-05,2.63671875,0,0
-2.33454356930451E-05,1.22115470730932E-05,2.63671875,0,0
-2.26088613999309E-05,1.15083184937248E-05,2.63671875,0,0
-2.26490701606963E-05,9.22470007935772E-06,2.63671875,0,0
-2.09094432648271E-05,1.06709849205799E-05,2.63671875,0,0
-2.13578750845045E-05,1.24290027088136E-05,2.63671875,0,0
-2.11274109460646E-05,1.37675469886744E-05,2.63671875,0,0
-2.20552883547498E-05,1.40841575557715E-05,2.63671875,0,0
-2.21346181206172E-05,1.42849485200713E-05,2.63671875,0,0
-2.21187747229123E-05,1.08817639556946E-05,2.63671875,0,0
-2.05060405278346E-05,6.31978809906286E-06,2.63671875,0,0
-1.99619826162234E-05,6.58954695609282E-06,2.63671875,0,0
-1.83961674338207E-05,9.33311730477726E-06,2.63671875,0,0
-2.82111705018906E-05,1.68311944435118E-05,2.63671875,0,0
-2.42484147747746E-05,7.48946922612959E-06,2.63671875,0,0
-2.81981701846235E-05,4.45006890004152E-06,2.63671875,0,0
-2.21139089262579E-05,6.31365446679411E-06,2.63671875,0,0
-2.25841158680851E-05,-4.56170710094739E-06,2.63671875,0,0
-2.08886431209976E-05,-6.23374126007548E-06,2.63671875,0,0
-2.29589750233572E-05,8.83116626937408E-06,2.63671875,0,0
-2.26097563427174E-05,6.9891043494863E-06,2.63671875,0,0
-2.15532854781486E-05,3.35793470185308E-06,2.63671875,0,0
-2.15281270357082E-05,7.45893521525431E-06,2.63671875,0,0
-2.24843406613218E-05,4.78957008454017E-06,2.63671875,0,0
-2.51773672061972E-05,3.14200474349491E-06,2.63671875,0,0
-2.47961652348749E-05,1.30599155454547E-05,2.63671875,0,0
-2.47724310611375E-05,1.9191966202925E-05,2.63671875,0,0
-2.33210885198787E-05,1.35608361233608E-05,2.63671875,0,0
-2.42193618760211E-05,1.07726409623865E-05,2.63671875,0,0
-2.25467065320117E-05,1.49882962432457E-05,2.63671875,0,0
-2.26468291657511E-05,1.95098928088555E-05,2.63671875,0,0
-2.24304294533795E-05,1.86969846254215E-05,2.63671875,0,0
-2.32761303777806E-05,1.72495329024969E-05,2.63671875,0,0
-2.25011535803787E-05,1.56472615344683E-05,2.63671875,0,0
-2.34475701290648E-05,1.31255792439333E-05,2.63671875,0,0
-2.38595166592859E-05,1.09513985080412E-05,2.63671875,0,0
-2.34936942433706E-05,1.41036698551034E-05,2.63671875,0,0
-2.22860617213883E-05,2.02830433408963E-05,2.63671875,0,0
-2.20131478272378E-05,2.51067503995728E-05,2.63671875,0,0
-1.86699435289484E-05,2.14714236790314E-05,2.63671875,0,0
-2.78083389275707E-05,3.14030148729216E-05,2.63671875,0,0
-2.21329610212706E-05,1.99827027245192E-05,2.63671875,0,0
-2.56592993537197E-05,2.80762633337872E-05,2.63671875,0,0
-2.12621562241111E-05,3.25772416545078E-05,2.63671875,0,0
-2.37332569668069E-05,2.4323737306986E-05,2.63671875,0,0
-2.29187553486554E-05,1.14661861516652E-05,2.63671875,0,0
-2.52751106017968E-05,1.48578492371598E-05,2.63671875,0,0
-2.5118475605268E-05,5.95591836827225E-06,2.63671875,0,0
-2.46609833993716E-05,-2.86997732246164E-07,2.63671875,0,0
-2.36489704548148E-05,3.81617246603128E-06,2.63671875,0,0
-2.31426929531153E-05,3.80720024395487E-07,2.63671875,0,0
-2.57431165664457E-05,-6.91841194111475E-07,2.63671875,0,0
-2.70571963483235E-05,4.82861150885583E-06,2.63671875,0,0
-2.92485092359129E-05,6.4185592236754E-06,2.63671875,0,0
-2.76528207905358E-05,-1.14905603254556E-07,2.63671875,0,0
-2.67355626419885E-05,1.53754299958564E-07,2.63671875,0,0
-2.45884330070112E-05,4.95646872877842E-07,2.63671875,0,0
-2.59576554526575E-05,7.38147150514124E-07,2.63671875,0,0
-2.5814084438025E-05,9.14919098704559E-07,2.63671875,0,0
-2.59154094237601E-05,5.36204970558174E-06,2.63671875,0,0
-2.49538061325438E-05,7.48794491300941E-06,2.63671875,0,0
-2.62872235907707E-05,9.26190386962844E-06,2.63671875,0,0
-2.72806264547398E-05,1.35163536469918E-05,2.63671875,0,0
-2.8362823286443E-05,1.85541939572431E-05,2.63671875,0,0
-2.83940844383324E-05,1.80214628926478E-05,2.63671875,0,0
-2.81570446531987E-05,1.65263736562338E-05,2.63671875,0,0
-2.34158596867928E-05,1.39164385473123E-05,2.63671875,0,0
-3.42061939591076E-05,2.45767878368497E-05,2.63671875,0,0
-2.61973327724263E-05,2.41556554101408E-05,2.63671875,0,0
-3.01701093121665E-05,3.55251868313644E-05,2.63671875,0,0
-2.46712788793957E-05,4.35917645518202E-05,2.63671875,0,0
-2.88381088466849E-05,3.45211083185859E-05,2.63671875,0,0
-2.73354053206276E-05,2.60533724940615E-05,2.63671875,0,0
-2.84809939330444E-05,3.17597223329358E-05,2.63671875,0,0
-2.59044809354236E-05,2.00200047402177E-05,2.63671875,0,0
-2.40494318859419E-05,9.49126479099505E-06,2.63671875,0,0
-2.40995123022003E-05,1.08861713670194E-05,2.63671875,0,0
-2.49227123276796E-05,8.0387108027935E-06,2.63671875,0,0
-2.82497676380444E-05,7.16357681085356E-06,2.63671875,0,0
-2.85619589703856E-05,1.47911587191629E-05,2.63671875,0,0
-2.79996711469721E-05,2.03575509658549E-05,2.63671875,0,0
-2.40303015743848E-05,1.50771547851036E-05,2.63671875,0,0
-2.48741471295943E-05,8.64052617544075E-06,2.63671875,0,0
-2.42954647546867E-05,3.61280945071485E-06,2.63671875,0,0
-2.43219401454553E-05,2.35447691920854E-06,2.63671875,0,0
-2.1620291590807E-05,1.64903053700982E-06,2.63671875,0,0
-2.25177191168768E-05,3.84390068575158E-06,2.63671875,0,0
-2.26356532948557E-05,5.74202067582519E-06,2.63671875,0,0
-2.29972720262595E-05,7.42618522053817E-06,2.63671875,0,0
-2.10331654670881E-05,8.34259935800219E-06,2.63671875,0,0
-2.02315277419984E-05,9.38074845180381E-06,2.63671875,0,0
-2.14288011193275E-05,9.35048501560232E-06,2.63671875,0,0
-2.28280568990158E-05,1.03049169410951E-05,2.63671875,0,0
-1.66274858202087E-05,1.22839346659021E-05,2.63671875,0,0
-2.14884676097427E-05,2.54070437222254E-05,2.63671875,0,0
-1.41954778882791E-05,2.54536244028714E-05,2.63671875,0,0
-1.86119650606997E-05,3.00311839964706E-05,2.63671875,0,0
-1.58009188453434E-05,3.15870020131115E-05,2.63671875,0,0
-2.07157645490952E-05,1.90123355423566E-05,2.63671875,0,0
-2.07545363082318E-05,1.07667947304435E-05,2.63671875,0,0
-2.20277870539576E-05,1.69550876307767E-05,2.63671875,0,0
-2.01396796910558E-05,1.63625609275186E-05,2.63671875,0,0
-1.84518848982407E-05,2.03895451704739E-05,2.63671875,0,0
-1.77982819877798E-05,3.02014450426213E-05,2.63671875,0,0
-1.79652015503962E-05,2.61726054304745E-05,2.63671875,0,0
-1.9611841707956E-05,1.82553649210604E-05,2.63671875,0,0
-1.91406525118509E-05,2.07581997528905E-05,2.63671875,0,0
-2.05641754291719E-05,2.21804457396502E-05,2.63671875,0,0
-1.98403959075222E-05,1.30479838844622E-05,2.63671875,0,0
-2.01517177629285E-05,4.56203042631387E-06,2.63671875,0,0
-1.79765611392213E-05,3.75609516822806E-07,2.63671875,0,0
-1.79857670445926E-05,-2.61189802586159E-06,2.63671875,0,0
-1.65232449944597E-05,-6.09973085374804E-06,2.63671875,0,0
-1.72524687513942E-05,-7.22637423677952E-06,2.63671875,0,0
-1.87715722859139E-05,-9.79909236775711E-06,2.63671875,0,0
-2.156807204301E-05,-1.50315618157038E-05,2.63671875,0,0
-2.18984041566728E-05,-2.12072027352406E-05,2.63671875,0,0
-2.05802007258171E-05,-2.51657475018874E-05,2.63671875,0,0
-1.89393795153592E-05,-2.27692271437263E-05,2.63671875,0,0
-1.96878027054481E-05,-1.66188456205418E-05,2.63671875,0,0
-1.70403636730043E-05,-1.05607723526191E-05,2.63671875,0,0
-2.52193294727476E-05,-8.44308397063287E-06,2.63671875,0,0
-2.07440625672461E-05,1.06556478840503E-06,2.63671875,0,0
-2.52571080636699E-05,4.22709899794427E-06,2.63671875,0,0
-2.09651152545121E-05,1.53301480168011E-05,2.63671875,0,0
-2.24248469749E-05,4.14354235545034E-06,2.63671875,0,0
-2.17636425077217E-05,3.31041769641161E-06,2.63671875,0,0
-2.44671919062966E-05,1.23108229672653E-05,2.63671875,0,0
-2.41906636802014E-05,8.46087004902074E-06,2.63671875,0,0
-2.35215466091176E-05,8.86010275280569E-06,2.63671875,0,0
-2.40703375311568E-05,1.69622271641856E-05,2.63671875,0,0
-2.43624908762285E-05,1.4819648640696E-05,2.63671875,0,0
-2.51653182203881E-05,1.10086712084012E-05,2.63671875,0,0
-2.37241802096833E-05,1.61287553055445E-05,2.63671875,0,0
-2.4452805519104E-05,1.43007173392107E-05,2.63671875,0,0
-2.37260519497795E-05,6.99855263519567E-06,2.63671875,0,0
-2.37078802456381E-05,4.23427945861476E-06,2.63671875,0,0
-2.20944439206505E-05,1.04602386272745E-05,2.63671875,0,0
-2.35977513511898E-05,1.35003783725551E-05,2.63671875,0,0
-2.42653641180368E-05,1.24597008834826E-05,2.63671875,0,0
-2.51370111072902E-05,1.13611977212713E-05,2.63671875,0,0
-2.33499667956494E-05,1.59713890752755E-05,2.63671875,0,0
-2.26736010517925E-05,1.95115244423505E-05,2.63671875,0,0
-2.32272541325074E-05,1.85902026714757E-05,2.63671875,0,0
-2.4769706215011E-05,1.51244621520163E-05,2.63671875,0,0
-2.56014263868565E-05,1.17630206659669E-05,2.63671875,0,0
-2.63034144154517E-05,8.6339814515668E-06,2.63671875,0,0
-2.2193471522769E-05,6.62023421682534E-06,2.63671875,0,0
-3.07505106320605E-05,1.163734941656E-05,2.63671875,0,0
-2.17617089219857E-05,4.40964367953711E-06,2.63671875,0,0
-2.61063960351748E-05,3.25138466905628E-06,2.63671875,0,0
-2.10174857784295E-05,4.9738232519303E-06,2.63671875,0,0
-2.53131438512355E-05,-7.60731563786976E-06,2.63671875,0,0
-2.45813353103586E-05,-1.33217963593779E-05,2.63671875,0,0
-2.60728320427006E-05,-1.70562577750388E-06,2.63671875,0,0
-2.45176652242662E-05,-1.65057508638711E-06,2.63671875,0,0
-2.43735448748339E-05,-2.32344245887361E-06,2.63671875,0,0
-2.51021283474984E-05,4.67084055344458E-06,2.63671875,0,0
-2.52055579039734E-05,5.07321328768739E-06,2.63671875,0,0
-2.58248055615695E-05,5.08287621414638E-06,2.63671875,0,0
-2.39505388890393E-05,1.31179804157E-05,2.63671875,0,0
-2.56184812315041E-05,1.51022131831269E-05,2.63671875,0,0
-2.5588951757527E-05,8.85500594449695E-06,2.63671875,0,0
-2.69758329523029E-05,6.34854905001703E-06,2.63671875,0,0
-2.52485497185262E-05,8.76855119713582E-06,2.63671875,0,0
-2.7032123398385E-05,1.33132289192872E-05,2.63671875,0,0
-2.79092801065417E-05,1.51452049976797E-05,2.63671875,0,0
-3.03021770378109E-05,1.39032272272743E-05,2.63671875,0,0
-2.99191797239473E-05,1.34314295792137E-05,2.63671875,0,0
-2.94938890874619E-05,1.72043946804479E-05,2.63671875,0,0
-2.68490221060347E-05,2.09603313123807E-05,2.63671875,0,0
-2.51333131018328E-05,2.18091263377573E-05,2.63671875,0,0
-2.44416387431556E-05,2.321001556993E-05,2.63671875,0,0
-2.5845551135717E-05,2.77467424893985E-05,2.63671875,0,0
-2.16536354855634E-05,2.21418904402526E-05,2.63671875,0,0
-3.06318142975215E-05,2.85672995232744E-05,2.63671875,0,0
-2.41506950260373E-05,1.42891049108584E-05,2.63671875,0,0
-3.03556462313281E-05,2.26098945859121E-05,2.63671875,0,0
-2.47749048867263E-05,2.24101549974876E-05,2.63671875,0,0
-2.71885437541641E-05,1.08052399809822E-05,2.63671875,0,0
-2.49025943048764E-05,1.99554122559675E-07,2.63671875,0,0
-2.54439200944034E-05,6.89482567395316E-06,2.63671875,0,0
-2.30984405789059E-05,-8.29150735626172E-07,2.63671875,0,0
-2.20297897612909E-05,-2.73566115538415E-06,2.63671875,0,0
-2.21534792217426E-05,3.25330870509788E-06,2.63671875,0,0
-2.1771009414806E-05,-2.72549277724465E-06,2.63671875,0,0
-2.24250889004907E-05,-7.68516383686801E-06,2.63671875,0,0
-2.0801357095479E-05,-3.67933921552321E-06,2.63671875,0,0
-2.21193149627652E-05,-1.98016095964704E-07,2.63671875,0,0
-2.24016475840472E-05,-4.72269402962411E-06,2.63671875,0,0
-2.52259760600282E-05,-6.43205055439466E-07,2.63671875,0,0
-2.47696643782547E-05,4.28543762609479E-06,2.63671875,0,0
-2.55496397585375E-05,6.41037013338064E-06,2.63671875,0,0
-2.36348278122023E-05,3.86744432034902E-06,2.63671875,0,0
-2.41261404880788E-05,7.90916601545177E-06,2.63671875,0,0
-2.47027764999075E-05,1.55113011715002E-05,2.63671875,0,0
-2.72192810371052E-05,2.40605259023141E-05,2.63671875,0,0
-2.67826289928053E-05,2.72990073426627E-05,2.63671875,0,0
-2.51143610512372E-05,2.95269219350303E-05,2.63671875,0,0
-2.35165916819824E-05,3.14408025587909E-05,2.63671875,0,0
-2.26942665904062E-05,3.16080549964681E-05,2.63671875,0,0
-1.92206480278401E-05,2.62933081103256E-05,2.63671875,0,0
-2.72594297712203E-05,3.99597010982689E-05,2.63671875,0,0
-2.08236451726407E-05,2.67346531472867E-05,2.63671875,0,0
-2.67072155111237E-05,3.30249276885297E-05,2.63671875,0,0
-2.39279470406473E-05,3.41425038641319E-05,2.63671875,0,0
-2.65853559540119E-05,2.7716161639546E-05,2.63671875,0,0
-2.45876653934829E-05,2.20106576307444E-05,2.63671875,0,0
-2.52593836194137E-05,2.94900273729581E-05,2.63671875,0,0
-2.40200188272865E-05,2.20733454625588E-05,2.63671875,0,0
-2.41266152443131E-05,1.67535872606095E-05,2.63671875,0,0
-2.46673789661145E-05,1.90184018720174E-05,2.63671875,0,0
-2.38994580286089E-05,9.58751843427308E-06,2.63671875,0,0
-2.4598393792985E-05,2.10549205803545E-06,2.63671875,0,0
-2.36263331316877E-05,5.86599480811856E-06,2.63671875,0,0
-2.44325237872545E-05,8.49827119964175E-06,2.63671875,0,0
-2.35857969528297E-05,1.08476505999988E-07,2.63671875,0,0
-2.47338284680154E-05,-3.25911832987913E-06,2.63671875,0,0
-2.3544112991658E-05,-4.61707259091781E-06,2.63671875,0,0
-2.4556338757975E-05,-5.51249877389637E-06,2.63671875,0,0
-2.41418129007798E-05,-6.69368637318257E-06,2.63671875,0,0
-2.50010361924069E-05,-1.65031065080257E-06,2.63671875,0,0
-2.42875921685481E-05,2.8677918635367E-06,2.63671875,0,0
-2.4076784029603E-05,7.88937904872E-06,2.63671875,0,0
-2.24226005229866E-05,1.017820341076E-05,2.63671875,0,0
-2.11758779187221E-05,1.56741534738103E-05,2.63671875,0,0
-2.0622588635888E-05,2.41294164879946E-05,2.63671875,0,0
-2.16621738218237E-05,2.74637932307087E-05,2.63671875,0,0
-1.83952342922566E-05,2.08332985494053E-05,2.63671875,0,0
-2.63720103248488E-05,3.03954820992658E-05,2.63671875,0,0
-1.96753899217583E-05,2.09270929190097E-05,2.63671875,0,0
-2.33965747611364E-05,3.28571295540314E-05,2.63671875,0,0
-1.92253774002893E-05,3.97655749111436E-05,2.63671875,0,0
-2.13781077036401E-05,3.01490799756721E-05,2.63671875,0,0
-1.96192577277543E-05,1.87163568625692E-05,2.63671875,0,0
-2.0815312382183E-05,2.52294357778737E-05,2.63671875,0,0
-2.0993809812353E-05,1.96728287846781E-05,2.63671875,0,0
-2.24070045078406E-05,1.73861153598409E-05,2.63671875,0,0
-2.31825415539788E-05,2.34106191783212E-05,2.63671875,0,0
-2.34248182096053E-05,2.04439165827353E-05,2.63671875,0,0
-2.46002127823886E-05,1.66819881997071E-05,2.63671875,0,0
-2.27534510486294E-05,1.78689588210545E-05,2.63671875,0,0
-2.25441126531223E-05,1.53697164932964E-05,2.63671875,0,0
-2.17324686673237E-05,2.51483766078309E-06,2.63671875,0,0
-2.35600946325576E-05,-5.1563720262493E-06,2.63671875,0,0
-2.27835662371945E-05,-6.56204747429001E-06,2.63671875,0,0
-2.3559992769151E-05,-2.47263346864202E-06,2.63671875,0,0
-2.37329622905236E-05,-2.69452243628621E-06,2.63671875,0,0
-2.63014135271078E-05,-4.67428071715403E-06,2.63671875,0,0
-2.59975913650123E-05,-7.0712612796342E-06,2.63671875,0,0
-2.55535614996916E-05,-6.06511548539856E-06,2.63671875,0,0
-2.39020155277103E-05,-6.51870914225583E-06,2.63671875,0,0
-2.2362472009263E-05,-7.00801547282026E-06,2.63671875,0,0
-2.28934550250415E-05,-1.05490025816835E-05,2.63671875,0,0
-2.45340543187922E-05,-1.2582278031914E-05,2.63671875,0,0
-1.87815967365168E-05,-1.8148506342186E-06,2.63671875,0,0
-2.46083436650224E-05,6.92554567649495E-06,2.63671875,0,0
-1.69124014064437E-05,1.05130156953237E-05,2.63671875,0,0
-2.3593956939294E-05,1.00969400591566E-05,2.63671875,0,0
-2.0274306734791E-05,1.99046189663932E-05,2.63671875,0,0
-2.2932284991839E-05,7.83887207944645E-06,2.63671875,0,0
-2.0866693375865E-05,6.77847901897621E-06,2.63671875,0,0
-2.15851923712762E-05,2.2291555069387E-05,2.63671875,0,0
-2.0701925677713E-05,2.40895460592583E-05,2.63671875,0,0
-2.1870422642678E-05,1.90192040463444E-05,2.63671875,0,0
-2.41349262068979E-05,1.69397699210094E-05,2.63671875,0,0
-2.58880845649401E-05,7.7345575846266E-06,2.63671875,0,0
-2.79946434602607E-05,4.6635655053251E-06,2.63671875,0,0
-2.60141659964575E-05,1.43991001095856E-05,2.63671875,0,0
-2.52258305408759E-05,1.51731501318864E-05,2.63671875,0,0
-2.32345955737401E-05,6.78226342643029E-06,2.63671875,0,0
-2.44178590946831E-05,1.73108116996445E-06,2.63671875,0,0
-2.37093481700867E-05,4.53298025604454E-06,2.63671875,0,0
-2.4680899514351E-05,5.07275808558916E-06,2.63671875,0,0
-2.43535450863419E-05,2.23197162085853E-06,2.63671875,0,0
-2.52308709605131E-05,7.40408950150595E-07,2.63671875,0,0
-2.26449465117184E-05,4.55472900284803E-06,2.63671875,0,0
-2.11156002478674E-05,4.12351164413849E-06,2.63671875,0,0
-2.15152540476993E-05,-1.69447005760048E-07,2.63671875,0,0
-2.3490139938076E-05,-5.04062245454406E-06,2.63671875,0,0
-2.33818173001055E-05,-7.327268122026E-06,2.63671875,0,0
-2.30961668421514E-05,-6.67224094286212E-06,2.63671875,0,0
-1.8117591025657E-05,-2.85232295027527E-06,2.63671875,0,0
-2.52025256486377E-05,-9.16207511636458E-07,2.63671875,0,0
-1.97463177755708E-05,-3.69524764209928E-06,2.63671875,0,0
-2.59809658018639E-05,-4.72207420898485E-06,2.63671875,0,0
-2.2992433514446E-05,6.19095862930408E-06,2.63671875,0,0
-2.66066072072135E-05,-4.36586873320266E-07,2.63671875,0,0
-2.51705187110929E-05,-2.58651584772451E-06,2.63671875,0,0
-2.70453583652852E-05,6.27644885753398E-06,2.63671875,0,0
-2.80903695966117E-05,5.45248076377902E-06,2.63671875,0,0
-2.82942492049187E-05,6.11147834206349E-06,2.63671875,0,0
-2.723619218159E-05,1.32194027173682E-05,2.63671875,0,0
-2.73359983111732E-05,1.15026259663864E-05,2.63671875,0,0
-2.97687620331999E-05,1.13892110675806E-05,2.63671875,0,0
-2.89568743028212E-05,2.23002534767147E-05,2.63671875,0,0
-2.98638024105458E-05,2.54522710747551E-05,2.63671875,0,0
-3.02108837786363E-05,1.66348945640493E-05,2.63671875,0,0
-3.27470334013924E-05,6.81041365169222E-06,2.63671875,0,0
-3.14474673359655E-05,5.33081856701756E-06,2.63671875,0,0
-3.00489300570916E-05,1.00762390502496E-05,2.63671875,0,0
-2.74713675025851E-05,1.90804476005724E-05,2.63671875,0,0
-2.81484935840126E-05,2.68409185082419E-05,2.63671875,0,0
-2.82608416455332E-05,3.05747562379111E-05,2.63671875,0,0
-2.96807302220259E-05,2.9343131245696E-05,2.63671875,0,0
-2.96192647510907E-05,2.66943061433267E-05,2.63671875,0,0
-2.98126378766028E-05,2.38316933973692E-05,2.63671875,0,0
-3.02219086734112E-05,1.80866845767014E-05,2.63671875,0,0
-2.9573799110949E-05,1.08687199826818E-05,2.63671875,0,0
-2.23290917347185E-05,7.99160807218868E-06,2.63671875,0,0
-3.13418167934287E-05,1.68514416145626E-05,2.63671875,0,0
-2.36151045100996E-05,1.45865205922746E-05,2.63671875,0,0
-2.84443067357643E-05,1.62523920153035E-05,2.63671875,0,0
-2.20270103454823E-05,1.80903571163071E-05,2.63671875,0,0
-2.45963092311285E-05,4.26077394877211E-06,2.63671875,0,0
-2.18305540329311E-05,-5.10218251292827E-06,2.63671875,0,0
-2.15544660022715E-05,2.96668417831825E-06,2.63671875,0,0
-1.78937625605613E-05,2.31966737374023E-06,2.63671875,0,0
-1.69409267982701E-05,2.08541541724117E-06,2.63671875,0,0
-1.83776155608939E-05,5.06457718074671E-06,2.63671875,0,0
-1.83934407687048E-05,-3.10190443997271E-06,2.63671875,0,0
-1.84681866812753E-05,-9.0079029178014E-06,2.63671875,0,0
-1.64571683853865E-05,-4.90165234623419E-07,2.63671875,0,0
-1.7976690287469E-05,7.24424944564817E-06,2.63671875,0,0
-1.7483103874838E-05,6.23712548986077E-06,2.63671875,0,0
-1.8969452867168E-05,5.27996917298879E-06,2.63671875,0,0
-1.7565393136465E-05,5.93047752772691E-06,2.63671875,0,0
-1.87767600436928E-05,8.32338082545903E-06,2.63671875,0,0
-1.82636031240691E-05,1.17676236186526E-05,2.63671875,0,0
-1.97180852410384E-05,1.48540957525256E-05,2.63671875,0,0
-1.97104218386812E-05,1.52327102114214E-05,2.63671875,0,0
-2.03038998733973E-05,1.48604640344274E-05,2.63671875,0,0
-1.9855891878251E-05,1.2628556760319E-05,2.63671875,0,0
-2.09839417948388E-05,1.28693427541293E-05,2.63671875,0,0
-2.08400306291878E-05,1.88206922757672E-05,2.63671875,0,0
-2.02933970285812E-05,2.55013364949264E-05,2.63671875,0,0
-1.6776622942416E-05,2.3911281459732E-05,2.63671875,0,0
-2.4166060029529E-05,3.67378561350051E-05,2.63671875,0,0
-2.00096401385963E-05,2.70712607743917E-05,2.63671875,0,0
-2.6101564799319E-05,3.9894013752928E-05,2.63671875,0,0
-2.21089758269954E-05,4.30323125328869E-05,2.63671875,0,0
-2.18968798435526E-05,2.73263576673344E-05,2.63671875,0,0
-1.93012219824595E-05,9.96587004920002E-06,2.63671875,0,0
-2.04879434022587E-05,1.07221412690706E-05,2.63671875,0,0
-1.94124313566135E-05,1.81975792656885E-06,2.63671875,0,0
-1.87673194886884E-05,-1.79443793513201E-06,2.63671875,0,0
-1.97073568415362E-05,5.66673770663328E-06,2.63671875,0,0
-2.11624865187332E-05,4.77612638860592E-06,2.63671875,0,0
-2.32058864639839E-05,3.03838123727473E-06,2.63671875,0,0
-2.23443348659202E-05,5.31264504388673E-06,2.63671875,0,0
-2.32196671277052E-05,3.83359019906493E-06,2.63671875,0,0
-2.26222055061953E-05,-5.30955048816395E-06,2.63671875,0,0
-2.27934524446027E-05,-7.65142249292694E-06,2.63671875,0,0
-2.03959352802485E-05,-6.41669566903147E-06,2.63671875,0,0
-2.06823788175825E-05,-7.97410280028998E-07,2.63671875,0,0
-2.08541914616944E-05,1.72356044458866E-06,2.63671875,0,0
-2.28290609811665E-05,1.26935105981829E-06,2.63671875,0,0
-2.35447714658221E-05,-1.03731997569412E-06,2.63671875,0,0
-2.56808561971411E-05,3.74186925000686E-07,2.63671875,0,0
-2.62677367572906E-05,5.17223361384822E-06,2.63671875,0,0
-2.54857277468545E-05,1.21555940495455E-05,2.63671875,0,0
-2.44351285800803E-05,1.69848644873127E-05,2.63671875,0,0
-2.36339037655853E-05,1.928301389853E-05,2.63671875,0,0
-1.90564423974138E-05,1.40467900564545E-05,2.63671875,0,0
-2.65696871792898E-05,2.14893534575822E-05,2.63671875,0,0
-2.02617229660973E-05,1.39561634568963E-05,2.63671875,0,0
-2.6763700589072E-05,1.94207350432407E-05,2.63671875,0,0
-2.37276035477407E-05,2.23880670091603E-05,2.63671875,0,0
-2.63569654634921E-05,1.37588840516401E-05,2.63671875,0,0
-2.37724088947289E-05,1.014319332171E-05,2.63671875,0,0
-2.47499901888659E-05,2.01878447114723E-05,2.63671875,0,0
-2.49703734880313E-05,1.54699446284212E-05,2.63671875,0,0
-2.53014441113919E-05,1.14304839371471E-05,2.63671875,0,0
-2.47538646362955E-05,1.39282055897638E-05,2.63671875,0,0
-2.37499916693196E-05,7.51850484448369E-06,2.63671875,0,0
-2.34492727031466E-05,4.32501701652654E-06,2.63671875,0,0
-2.04744010261493E-05,1.07938185465173E-05,2.63671875,0,0
-2.06186105060624E-05,1.23559502753778E-05,2.63671875,0,0
-2.05173892027233E-05,3.47160403180169E-06,2.63671875,0,0
-2.28074804908829E-05,-5.12776978212059E-07,2.63671875,0,0
-2.20750425796723E-05,5.93495542489109E-07,2.63671875,0,0
-2.27392229135148E-05,3.0309743124235E-06,2.63671875,0,0
-2.15209129237337E-05,2.60812703345437E-06,2.63671875,0,0
-2.1250521967886E-05,2.55068835031125E-06,2.63671875,0,0
-1.93251125892857E-05,2.03973922907608E-06,2.63671875,0,0
-1.9159782823408E-05,3.60587068826135E-06,2.63671875,0,0
-1.86044762813253E-05,5.40592554898467E-06,2.63671875,0,0
-1.84419550350867E-05,5.28537748323288E-06,2.63671875,0,0
-1.82756430149311E-05,6.39181598671712E-06,2.63671875,0,0
-1.9162140233675E-05,1.09674956547678E-05,2.63671875,0,0
-1.63575823535211E-05,1.29469435705687E-05,2.63671875,0,0
-2.32012789638247E-05,2.29730358114466E-05,2.63671875,0,0
-1.75927889358718E-05,1.99461883312324E-05,2.63671875,0,0
-2.18210643652128E-05,2.72489669441711E-05,2.63671875,0,0
-1.96491255337605E-05,3.28953537973575E-05,2.63671875,0,0
-2.38269112742273E-05,2.41087200265611E-05,2.63671875,0,0
-2.44491802732227E-05,1.84277650987497E-05,2.63671875,0,0
-2.67249997705221E-05,2.61397199210478E-05,2.63671875,0,0
-2.62332541751675E-05,2.01342281798134E-05,2.63671875,0,0
-2.71694661932997E-05,1.87288424058352E-05,2.63671875,0,0
-2.82385863101808E-05,2.64151567535009E-05,2.63671875,0,0
-2.75022830464877E-05,2.07612156373216E-05,2.63671875,0,0
-2.65715571003966E-05,1.47048631333746E-05,2.63671875,0,0
-2.44429757003672E-05,2.10506459552562E-05,2.63671875,0,0
-2.58542586379917E-05,2.54616152233211E-05,2.63671875,0,0
-2.66806200670544E-05,1.90898535947781E-05,2.63671875,0,0
-2.93427656288259E-05,1.48570434248541E-05,2.63671875,0,0
-2.9918281143182E-05,1.44073646879406E-05,2.63671875,0,0
-3.15801116812509E-05,1.5477944543818E-05,2.63671875,0,0
-3.11441872327123E-05,1.52523316501174E-05,2.63671875,0,0
-3.29074100591242E-05,1.57288668560795E-05,2.63671875,0,0
-3.44362342730165E-05,1.282714856643E-05,2.63671875,0,0
-3.5844037483912E-05,5.52376741325133E-06,2.63671875,0,0
-3.42900093528442E-05,2.72196018613613E-07,2.63671875,0,0
-3.28512178384699E-05,-1.74520846485393E-06,2.63671875,0,0
-3.2467651180923E-05,-6.34848584013525E-06,2.63671875,0,0
-3.20081671816297E-05,-6.29723217571154E-06,2.63671875,0,0
-2.490310180292E-05,-3.22779260386596E-06,2.63671875,0,0
-3.47674431395717E-05,-3.23604990626336E-06,2.63671875,0,0
-2.55187314905925E-05,-5.58029842068208E-06,2.63671875,0,0
-3.12523443426471E-05,-5.49152264284203E-06,2.63671875,0,0
-2.55058457696578E-05,5.66714970773319E-06,2.63671875,0,0
-2.95186528092017E-05,1.60163881446351E-06,2.63671875,0,0
-2.67951454588911E-05,2.37900871979946E-06,2.63671875,0,0
-2.81421671388671E-05,1.19842179628904E-05,2.63671875,0,0
-2.77147537417477E-05,8.15851853985805E-06,2.63671875,0,0
-2.75011097983224E-05,6.32105457043508E-06,2.63671875,0,0
-2.7013877115678E-05,1.45934036481776E-05,2.63671875,0,0
-2.66430743067758E-05,1.71365063579287E-05,2.63671875,0,0
-2.80518652289175E-05,1.82295607373817E-05,2.63671875,0,0
-2.51146520895418E-05,2.60333799815271E-05,2.63671875,0,0
-2.37166186707327E-05,2.7945256078965E-05,2.63671875,0,0
-2.07867105928017E-05,2.3412791051669E-05,2.63671875,0,0
-2.2223361156648E-05,1.99750065803528E-05,2.63671875,0,0
-2.21295122173615E-05,2.04267835215433E-05,2.63671875,0,0
-2.47125299210893E-05,2.28520893870154E-05,2.63671875,0,0
-2.39129021792905E-05,2.72185279754922E-05,2.63671875,0,0
-2.3981652702787E-05,2.98680060950574E-05,2.63671875,0,0
-2.22393045987701E-05,2.9879092835472E-05,2.63671875,0,0
-2.23876559175551E-05,2.79451869573677E-05,2.63671875,0,0
-2.15152649616357E-05,2.48393280344317E-05,2.63671875,0,0
-2.18694094655802E-05,2.06559343496338E-05,2.63671875,0,0
-2.16540520341368E-05,1.56699461513199E-05,2.63671875,0,0
-2.12988397834124E-05,9.021649020724E-06,2.63671875,0,0
-1.73236803675536E-05,1.46751051488536E-06,2.63671875,0,0
-2.45431747316616E-05,5.65584983291956E-08,2.63671875,0,0
-1.77514921233524E-05,-8.93062679097056E-06,2.63671875,0,0
-1.97094250324881E-05,-8.31317538541043E-06,2.63671875,0,0
-1.39580342874979E-05,6.15009753346385E-07,2.63671875,0,0
-1.60125200636685E-05,-6.46658372716047E-06,2.63671875,0,0
-1.4719924365636E-05,-8.48713807499735E-06,2.63671875,0,0
-1.54769331857096E-05,3.05154685520392E-06,2.63671875,0,0
-1.48061908475938E-05,1.72009231391712E-06,2.63671875,0,0
-1.47846258187201E-05,4.36612054954821E-07,2.63671875,0,0
-1.36868738991325E-05,3.78003687728778E-06,2.63671875,0,0
-1.07380901681609E-05,7.26788698557357E-07,2.63671875,0,0
-1.04675309557933E-05,1.53612873532438E-07,2.63671875,0,0
-9.92534569377312E-06,9.54563074628823E-06,2.63671875,0,0
-1.15044867925462E-05,1.26164532048278E-05,2.63671875,0,0
-1.21639268400031E-05,5.2570453590306E-06,2.63671875,0,0
-1.50925434354576E-05,6.34053662906808E-07,2.63671875,0,0
-1.50315418068203E-05,3.17292369800271E-06,2.63671875,0,0
-1.56579644681187E-05,8.80746847542468E-06,2.63671875,0,0
-1.56180758494884E-05,1.2813488865504E-05,2.63671875,0,0
-1.79697508428944E-05,1.53390665218467E-05,2.63671875,0,0
-1.93802025023615E-05,1.6180720194825E-05,2.63671875,0,0
-2.04783409571974E-05,1.36575508804526E-05,2.63671875,0,0
-1.98620473383926E-05,9.77550280367723E-06,2.63671875,0,0
-2.00940648937831E-05,1.08242820715532E-05,2.63671875,0,0
-2.06459226319566E-05,1.51877911775955E-05,2.63671875,0,0
-2.22427152039018E-05,1.83332504093414E-05,2.63671875,0,0
-2.02965984499315E-05,1.29007448776974E-05,2.63671875,0,0
-2.93475004582433E-05,1.88139965757728E-05,2.63671875,0,0
-2.27527616516454E-05,1.27756484289421E-05,2.63671875,0,0
-2.95183235721197E-05,1.90525606740266E-05,2.63671875,0,0
-2.72410397883505E-05,1.82981802936411E-05,2.63671875,0,0
-2.99287003144855E-05,2.33716764341807E-06,2.63671875,0,0
-2.81678276223829E-05,-1.29551008285489E-05,2.63671875,0,0
-2.98801096505485E-05,-7.03697469361941E-06,2.63671875,0,0
-2.98803170153406E-05,-5.19569312018575E-06,2.63671875,0,0
-3.03256438201061E-05,-3.13737382384716E-06,2.63671875,0,0
-3.08850903820712E-05,-3.88774651582935E-07,2.63671875,0,0
-3.0348897780641E-05,-7.65087952458998E-06,2.63671875,0,0
-3.02568314509699E-05,-7.8096609286149E-06,2.63671875,0,0
-2.80583008134272E-05,4.09170070270193E-06,2.63671875,0,0
-2.94189976557391E-05,9.89847740129335E-06,2.63671875,0,0
-2.92139611701714E-05,2.90727621177211E-06,2.63671875,0,0
-2.9620870918734E-05,8.15084149508039E-07,2.63671875,0,0
-2.65527778537944E-05,4.1600701479183E-06,2.63671875,0,0
-2.65680664597312E-05,7.01966337146587E-06,2.63671875,0,0
-2.7374802812119E-05,4.22836001234828E-06,2.63671875,0,0
-2.85504065686837E-05,1.51356334754382E-06,2.63671875,0,0
-2.58279396803118E-05,6.34775005892152E-07,2.63671875,0,0
-2.49217300734017E-05,4.48634045824292E-06,2.63671875,0,0
-2.57977608271176E-05,1.26494505821029E-05,2.63671875,0,0
-2.80448384728516E-05,2.02421124413377E-05,2.63671875,0,0
-2.89202707790537E-05,1.90696664503776E-05,2.63671875,0,0
-2.80458752968116E-05,1.52773445734056E-05,2.63671875,0,0
-2.22013768507168E-05,1.4037996152183E-05,2.63671875,0,0
-3.20596700476017E-05,2.79406776826363E-05,2.63671875,0,0
-2.53194357355824E-05,2.68454368779203E-05,2.63671875,0,0
-3.02971366181737E-05,3.1076113373274E-05,2.63671875,0,0
-2.45969076786423E-05,3.39193647960201E-05,2.63671875,0,0
-2.79486121144146E-05,2.3789181796019E-05,2.63671875,0,0
-2.60329034063034E-05,1.6194288036786E-05,2.63671875,0,0
-2.72230645350646E-05,2.12870309042046E-05,2.63671875,0,0
-2.60206070379354E-05,1.20470003821538E-05,2.63671875,0,0
-2.59382013609866E-05,4.96015536555205E-06,2.63671875,0,0
-2.5949697374017E-05,7.53751965021365E-06,2.63671875,0,0
-2.49046224780614E-05,2.08414599001117E-06,2.63671875,0,0
-2.57307819993002E-05,-6.43001214939432E-07,2.63671875,0,0
-2.39178789342986E-05,8.08290133136325E-06,2.63671875,0,0
-2.46673171204748E-05,1.20927352327271E-05,2.63671875,0,0
-2.3936541765579E-05,5.71080818190239E-06,2.63671875,0,0
-2.53792568400968E-05,2.33195305554545E-06,2.63671875,0,0
-2.36165924434317E-05,3.18885918204614E-06,2.63671875,0,0
-2.44078546529636E-05,6.1901232584205E-06,2.63671875,0,0
-2.35903607972432E-05,6.41328369965777E-06,2.63671875,0,0
-2.28697990678484E-05,4.84884822071763E-06,2.63671875,0,0
-2.0066843717359E-05,3.58150259671675E-06,2.63671875,0,0
-2.05928809009492E-05,5.67750385016552E-06,2.63671875,0,0
-2.17701654037228E-05,9.15339023777051E-06,2.63671875,0,0
-2.31545491260476E-05,1.31080187202315E-05,2.63671875,0,0
-2.3666892957408E-05,1.552514731884E-05,2.63671875,0,0
-2.55495506280568E-05,1.53702621901175E-05,2.63671875,0,0
-2.23447859752923E-05,1.15871707748738E-05,2.63671875,0,0
-3.15876968670636E-05,1.90640112123219E-05,2.63671875,0,0
-2.28758981393185E-05,1.30782973428722E-05,2.63671875,0,0
-2.71497956418898E-05,2.02437840925995E-05,2.63671875,0,0
-2.13455641642213E-05,2.5950819690479E-05,2.63671875,0,0
-2.28332482947735E-05,1.28599122035666E-05,2.63671875,0,0
-2.00335234694649E-05,6.86090425006114E-06,2.63671875,0,0
-2.17279684875393E-05,1.73652788362233E-05,2.63671875,0,0
-2.08342535188422E-05,1.36780536195147E-05,2.63671875,0,0
-2.00865051738219E-05,1.02036310636322E-05,2.63671875,0,0
-1.99635014723754E-05,1.40838528750464E-05,2.63671875,0,0
-2.04706175281899E-05,1.25055958051234E-05,2.63671875,0,0
-2.28155877266545E-05,1.28420524561079E-05,2.63671875,0,0
-2.16514144995017E-05,2.04228963411879E-05,2.63671875,0,0
-2.18153072637506E-05,2.13691928365733E-05,2.63671875,0,0
-1.99448877538089E-05,1.06273555502412E-05,2.63671875,0,0
-2.12139584618853E-05,1.07355549516797E-06,2.63671875,0,0
-1.9910072296625E-05,-1.59683077072259E-06,2.63671875,0,0
-2.04992920771474E-05,4.57924443253432E-06,2.63671875,0,0
-1.97180997929536E-05,9.5459263320663E-06,2.63671875,0,0
-2.15518739423715E-05,6.49191315460484E-06,2.63671875,0,0
-2.27092950808583E-05,-3.83714109375433E-08,2.63671875,0,0
-2.48698270297609E-05,-2.1441946955747E-06,2.63671875,0,0
-2.47969546762761E-05,-3.58412876266812E-06,2.63671875,0,0
-2.44997117988532E-05,-4.99331054015784E-06,2.63671875,0,0
-2.42617570620496E-05,-7.11360144123319E-06,2.63671875,0,0
-2.44983057200443E-05,-7.91450202086708E-06,2.63671875,0,0
-2.01713755814126E-05,-4.72013243779656E-06,2.63671875,0,0
-2.90129337372491E-05,-2.21506343223155E-06,2.63671875,0,0
-2.21694353967905E-05,1.30838566292368E-06,2.63671875,0,0
-2.7100231818622E-05,4.59596412838437E-06,2.63671875,0,0
-2.41104389715474E-05,1.33966877911007E-05,2.63671875,0,0
-2.78247425740119E-05,3.93404752685456E-06,2.63671875,0,0
-2.46984054683708E-05,4.50343895863625E-06,2.63671875,0,0
-2.4762124667177E-05,1.28387364384253E-05,2.63671875,0,0
-2.35830029851059E-05,8.00787347543519E-06,2.63671875,0,0
-2.17231045098742E-05,7.07621711626416E-06,2.63671875,0,0
-2.03346389753278E-05,1.72051877598278E-05,2.63671875,0,0
-2.02431638172129E-05,1.79776852746727E-05,2.63671875,0,0
-2.21331774810096E-05,1.54752633534372E-05,2.63671875,0,0
-1.99920068553183E-05,2.29732049774611E-05,2.63671875,0,0
-1.94138428923907E-05,2.61727873294149E-05,2.63671875,0,0
-1.86762335943058E-05,2.24746127059916E-05,2.63671875,0,0
-2.18981276702834E-05,1.995738784899E-05,2.63671875,0,0
-2.35103179875296E-05,2.44071379711386E-05,2.63671875,0,0
-2.56701823673211E-05,2.8922688215971E-05,2.63671875,0,0
-2.51471210503951E-05,2.88196133624297E-05,2.63671875,0,0
-2.68006497208262E-05,2.13823368540034E-05,2.63671875,0,0
-2.77312847174471E-05,1.49930247062002E-05,2.63671875,0,0
-2.9242577511468E-05,1.40967622428434E-05,2.63671875,0,0
-2.8309557819739E-05,1.5315205018851E-05,2.63671875,0,0
-2.66649240074912E-05,1.44032837852137E-05,2.63671875,0,0
-2.42331971094245E-05,1.23661957331933E-05,2.63671875,0,0
-2.33255941566313E-05,9.2083291747258E-06,2.63671875,0,0
-2.00229478650726E-05,7.44798353480292E-06,2.63671875,0,0
-2.883150591515E-05,1.46286120070727E-05,2.63671875,0,0
-2.13775729207555E-05,9.36936794460053E-06,2.63671875,0,0
-2.57416813838063E-05,1.09444508780143E-05,2.63671875,0,0
-2.17646793316817E-05,1.65387573360931E-05,2.63671875,0,0
-2.479127033439E-05,8.949420589488E-06,2.63671875,0,0
-2.24046380026266E-05,7.15536953066476E-06,2.63671875,0,0
-2.19268022192409E-05,1.66105182870524E-05,2.63671875,0,0
-2.15104901144514E-05,1.40058018587297E-05,2.63671875,0,0
-2.36942778428784E-05,1.30232274386799E-05,2.63671875,0,0
-2.66805600404041E-05,1.80916740646353E-05,2.63671875,0,0
-2.71179051196668E-05,1.46572720041149E-05,2.63671875,0,0
-2.63175752479583E-05,1.162914577435E-05,2.63671875,0,0
-2.32973470701836E-05,1.80871302291052E-05,2.63671875,0,0
-2.39051951211877E-05,1.76081812242046E-05,2.63671875,0,0
-2.42519872699631E-05,6.34777279628906E-06,2.63671875,0,0
-2.7233438231633E-05,3.62661467079306E-07,2.63671875,0,0
-2.75258425972424E-05,4.57942587672733E-06,2.63671875,0,0
-2.7937458071392E-05,1.17675672299811E-05,2.63671875,0,0
-2.51239671342773E-05,1.53988275997108E-05,2.63671875,0,0
-2.34905946854269E-05,1.52769462147262E-05,2.63671875,0,0
-2.17020460695494E-05,1.26027434816933E-05,2.63671875,0,0
-2.19606590690091E-05,1.2861588402302E-05,2.63671875,0,0
-2.20151123357937E-05,1.5848818293307E-05,2.63671875,0,0
-2.18057411984773E-05,2.17572269320954E-05,2.63671875,0,0
-2.06777731364127E-05,2.6949739549309E-05,2.63671875,0,0
-2.11700134968851E-05,2.50192861130927E-05,2.63671875,0,0
-1.77138153958367E-05,1.36999042297248E-05,2.63671875,0,0
-2.51424899033736E-05,1.55207853822503E-05,2.63671875,0,0
-1.96937726286706E-05,3.73875877812679E-06,2.63671875,0,0
-2.46068611886585E-05,1.19259830171359E-05,2.63671875,0,0
-2.07975281227846E-05,1.67107646120712E-05,2.63671875,0,0
-2.35374809562927E-05,5.64413812753628E-06,2.63671875,0,0
-2.14688279811526E-05,-7.19192848919192E-06,2.63671875,0,0
-2.19347857637331E-05,-5.17045009473804E-07,2.63671875,0,0
-2.17491233343026E-05,-4.14248063407285E-07,2.63671875,0,0
-2.28586432058364E-05,3.48508933711855E-06,2.63671875,0,0
-2.35515872191172E-05,1.01956411526771E-05,2.63671875,0,0
-2.33160026255064E-05,2.63512879428163E-06,2.63671875,0,0
-2.45832961809356E-05,-4.99113730256795E-06,2.63671875,0,0
-2.30113400903065E-05,-3.36610901285894E-06,2.63671875,0,0
-2.34392973652575E-05,-2.43512363340415E-06,2.63671875,0,0
-2.41876750806114E-05,-9.53189555730205E-06,2.63671875,0,0
-2.65120525000384E-05,-1.44333052958245E-05,2.63671875,0,0
-2.40270674112253E-05,-1.70821658684872E-05,2.63671875,0,0
-2.22566741285846E-05,-1.28379069792572E-05,2.63671875,0,0
-2.13068506127456E-05,-6.10748611507006E-06,2.63671875,0,0
-2.40570934693096E-05,2.25233338824182E-06,2.63671875,0,0
-2.59203170571709E-05,7.5289267442713E-06,2.63671875,0,0
-2.67324303422356E-05,1.2324202543823E-05,2.63671875,0,0
-2.47284551733173E-05,1.79718172148569E-05,2.63671875,0,0
-2.50792490987806E-05,2.32218990277033E-05,2.63671875,0,0
-2.52849749813322E-05,2.58495183516061E-05,2.63671875,0,0
-2.49010172410635E-05,2.53864727710607E-05,2.63671875,0,0
-2.11076931009302E-05,1.62026244652225E-05,2.63671875,0,0
-3.11735093418974E-05,2.44776983890915E-05,2.63671875,0,0
-2.52161244134186E-05,1.76196917891502E-05,2.63671875,0,0
-3.07420923491009E-05,2.53455200436292E-05,2.63671875,0,0
-2.61287004832411E-05,2.59449807344936E-05,2.63671875,0,0
-2.89964991679881E-05,1.42735161716701E-05,2.63671875,0,0
-2.74265803454909E-05,9.64110677159624E-06,2.63671875,0,0
-2.85100213659462E-05,2.45671417360427E-05,2.63671875,0,0
-2.71934695774689E-05,2.46441213676007E-05,2.63671875,0,0
-2.60218694165815E-05,1.885926212708E-05,2.63671875,0,0
-2.53759280894883E-05,1.76306002686033E-05,2.63671875,0,0
-2.48167234531138E-05,9.49087188928388E-06,2.63671875,0,0
-2.51956134889042E-05,3.52036931872135E-06,2.63671875,0,0
-2.33420705626486E-05,6.1652413023694E-06,2.63671875,0,0
-2.520474481571E-05,4.70380155093153E-06,2.63671875,0,0
-2.60543638432864E-05,-8.59574356582016E-06,2.63671875,0,0
-2.76205446425593E-05,-1.80191909748828E-05,2.63671875,0,0
-2.52406771323876E-05,-1.83095398824662E-05,2.63671875,0,0
-2.49670774792321E-05,-9.67298728937749E-06,2.63671875,0,0
-2.39084256463684E-05,-1.97370354726445E-06,2.63671875,0,0
-2.44529801420867E-05,2.20646165871585E-06,2.63671875,0,0
-2.26518477575155E-05,1.79022902102588E-06,2.63671875,0,0
-2.17294509639032E-05,2.17603155761026E-06,2.63671875,0,0
-2.17719971260522E-05,3.52334086528572E-06,2.63671875,0,0
-2.39989803958451E-05,4.76711329611135E-06,2.63671875,0,0
-2.47920233960031E-05,5.82190250497661E-06,2.63671875,0,0
-2.43897684413241E-05,7.23496395949041E-06,2.63671875,0,0
-1.97570225282107E-05,7.1254075919569E-06,2.63671875,0,0
-2.83066947304178E-05,1.77781512320507E-05,2.63671875,0,0
-2.27959990297677E-05,1.94768890651176E-05,2.63671875,0,0
-2.91412252408918E-05,2.22624876187183E-05,2.63671875,0,0
-2.53473099292023E-05,2.6878547942033E-05,2.63671875,0,0
-2.69812298938632E-05,1.65228630066849E-05,2.63671875,0,0
-2.37200747505995E-05,1.19787382573122E-05,2.63671875,0,0
-2.52247336902656E-05,2.32663878705353E-05,2.63671875,0,0
-2.4483046217938E-05,2.44592065428151E-05,2.63671875,0,0
-2.33985283557558E-05,2.64409809460631E-05,2.63671875,0,0
-2.27146247198107E-05,3.32807903760113E-05,2.63671875,0,0
-2.16908265429083E-05,3.12897209369112E-05,2.63671875,0,0
-2.20811434701318E-05,2.9319624445634E-05,2.63671875,0,0
-2.04082080017542E-05,3.37371784553397E-05,2.63671875,0,0
-2.13360144698527E-05,3.06778456433676E-05,2.63671875,0,0
-1.98071993509075E-05,1.96260280063143E-05,2.63671875,0,0
-1.93528539966792E-05,1.36366788865416E-05,3.1640625,0,0
-1.714873178571E-05,1.30290509332553E-05,3.1640625,0,0
-1.82376898010261E-05,1.16566216092906E-05,3.1640625,0,0
-1.82723542820895E-05,5.74919113205397E-06,3.1640625,0,0
-2.05426767934114E-05,-1.68608926287561E-06,3.1640625,0,0
-2.14659667108208E-05,-4.79003574582748E-06,3.1640625,0,0
-2.26086267502978E-05,-2.13104249269236E-06,3.1640625,0,0
-2.17824926949106E-05,-2.58617831150332E-07,3.1640625,0,0
-1.99148762476398E-05,5.2440867648329E-07,3.1640625,0,0
-1.85846183740068E-05,3.05596046246137E-07,3.1640625,0,0
-1.95151078514755E-05,-2.4189608893721E-07,3.1640625,0,0
-1.6497544493177E-05,4.12331360166718E-07,3.1640625,0,0
-2.40494264289737E-05,1.80554266648869E-07,3.1640625,0,0
-1.97089866560418E-05,-4.04634056394571E-06,3.1640625,0,0
-2.4382821720792E-05,3.35864797307295E-06,3.1640625,0,0
-2.04838033823762E-05,1.51544818436378E-05,3.1640625,0,0
-2.25786443479592E-05,4.12981353292707E-06,3.1640625,0,0
-2.06339373107767E-05,-4.79369759887049E-07,3.1640625,0,0
-1.98319448827533E-05,1.27965731735458E-05,3.1640625,0,0
-1.96806868189014E-05,1.83748525159899E-05,3.1640625,0,0
-2.23780607484514E-05,2.17114175029565E-05,3.1640625,0,0
-2.42766745941481E-05,2.68465828412445E-05,3.1640625,0,0
-2.39267374126939E-05,2.10122307180427E-05,3.1640625,0,0
-2.28648332267767E-05,1.71146202774253E-05,3.1640625,0,0
-2.02548635570565E-05,2.55083996307803E-05,3.1640625,0,0
-2.00223803403787E-05,2.93124103336595E-05,3.1640625,0,0
-1.82986659638118E-05,2.23751467274269E-05,3.1640625,0,0
-1.90172377187992E-05,1.57983886310831E-05,3.1640625,0,0
-1.91313647519564E-05,1.6161549865501E-05,3.1640625,0,0
-2.13310813705903E-05,1.93081941688433E-05,3.1640625,0,0
-2.18845925701316E-05,2.24780269491021E-05,3.1640625,0,0
-2.33538157772273E-05,2.18858458538307E-05,3.1640625,0,0
-2.2887994418852E-05,1.79111593752168E-05,3.1640625,0,0
-2.3624017558177E-05,1.45096528285649E-05,3.1640625,0,0
-2.46124673140002E-05,1.39649846460088E-05,3.1640625,0,0
-2.60818414972164E-05,1.57456597662531E-05,3.1640625,0,0
-2.68234198301798E-05,1.63668410095852E-05,3.1640625,0,0
-2.5661622203188E-05,1.35426298584207E-05,3.1640625,0,0
-1.86547822522698E-05,5.13274153490784E-06,3.1640625,0,0
-2.53254165727412E-05,1.74206331848836E-06,3.1640625,0,0
-1.83642823685659E-05,-1.20113290904555E-05,3.1640625,0,0
-2.38542415900156E-05,-1.14342628876329E-05,3.1640625,0,0
-2.04430889425566E-05,-5.3876774472883E-06,3.1640625,0,0
-2.41331890720176E-05,-1.22629289762699E-05,3.1640625,0,0
-2.24109899136238E-05,-1.77865476871375E-05,3.1640625,0,0
-2.38798711507116E-05,-7.4001918619615E-06,3.1640625,0,0
-2.35611532843905E-05,-4.83542135043535E-06,3.1640625,0,0
-2.35600309679285E-05,-2.35357038036454E-06,3.1640625,0,0
-2.45385799644282E-05,4.65549510408891E-06,3.1640625,0,0
-2.47250591201009E-05,5.62180139240809E-06,3.1640625,0,0
-2.57998199231224E-05,9.80677577899769E-06,3.1640625,0,0
-2.46962299570441E-05,2.26244465011405E-05,3.1640625,0,0
-2.55451141129015E-05,2.88107112282887E-05,3.1640625,0,0
-2.44132643274497E-05,2.33773225772893E-05,3.1640625,0,0
-2.52526951953769E-05,1.87506448128261E-05,3.1640625,0,0
-2.40360077441437E-05,1.81835166586097E-05,3.1640625,0,0
-2.45217761403183E-05,1.92600855370983E-05,3.1640625,0,0
-2.20865531446179E-05,1.87354471563594E-05,3.1640625,0,0
-2.05542946787318E-05,1.88715803233208E-05,3.1640625,0,0
-1.94571639440255E-05,1.87838122656103E-05,3.1640625,0,0
-2.17736742342822E-05,1.86665056389757E-05,3.1640625,0,0
-2.26279880735092E-05,1.55857396748615E-05,3.1640625,0,0
-2.1916795958532E-05,1.10606888483744E-05,3.1640625,0,0
-2.10418220376596E-05,7.45062834539567E-06,3.1640625,0,0
-2.14881838473957E-05,8.06237949291244E-06,3.1640625,0,0
-1.86642355402E-05,1.10321598185692E-05,3.1640625,0,0
-2.53137022809824E-05,1.8953969629365E-05,3.1640625,0,0
-1.68591486726655E-05,1.12884736154228E-05,3.1640625,0,0
-2.08475812542019E-05,1.14637705337373E-05,3.1640625,0,0
-1.89156053238548E-05,1.39138956001261E-05,3.1640625,0,0
-2.44761758949608E-05,3.20732374348154E-06,3.1640625,0,0
-2.43731919908896E-05,-3.7563056594081E-06,3.1640625,0,0
-2.63750607700786E-05,2.67782934315619E-06,3.1640625,0,0
-2.6127023375011E-05,-1.86886791198049E-06,3.1640625,0,0
-2.67673840426141E-05,-2.67422092292691E-06,3.1640625,0,0
-2.7251770006842E-05,3.73920306628861E-06,3.1640625,0,0
-2.63398851529928E-05,1.72349430727081E-07,3.1640625,0,0
-2.60363067354774E-05,-3.81799509341363E-06,3.1640625,0,0
-2.36751275224378E-05,2.38009949526941E-08,3.1640625,0,0
-2.35825882555218E-05,-3.09219359451163E-07,3.1640625,0,0
-2.20505844481522E-05,-7.47448711990728E-06,3.1640625,0,0
-2.39176351897186E-05,-8.73020962899318E-06,3.1640625,0,0
-2.39223318203585E-05,-4.35278980148723E-06,3.1640625,0,0
-2.53467915172223E-05,1.87761747838522E-06,3.1640625,0,0
-2.53036214417079E-05,6.34348634775961E-06,3.1640625,0,0
-2.69192569248844E-05,1.09228476503631E-05,3.1640625,0,0
-2.65556136582745E-05,1.48613989949808E-05,3.1640625,0,0
-2.63472848018864E-05,1.68575006682659E-05,3.1640625,0,0
-2.58948657574365E-05,1.40306901812437E-05,3.1640625,0,0
-2.71094413619721E-05,9.3570442913915E-06,3.1640625,0,0
-2.75965503533371E-05,5.08792982145678E-06,3.1640625,0,0
-2.74303019978106E-05,4.37484959547874E-06,3.1640625,0,0
-2.22032631427282E-05,5.18738897881121E-06,3.1640625,0,0
-3.27156449202448E-05,1.11541130536352E-05,3.1640625,0,0
-2.65280687017366E-05,9.88633382803528E-06,3.1640625,0,0
-3.05721514450852E-05,1.52554621308809E-05,3.1640625,0,0
-2.3571667043143E-05,2.19018329516985E-05,3.1640625,0,0
-2.68825679086149E-05,9.40778863878222E-06,3.1640625,0,0
-2.6131116101169E-05,1.64320545081864E-06,3.1640625,0,0
-2.77608614851488E-05,8.36496383271879E-06,3.1640625,0,0
-2.65904654952465E-05,5.65863820156665E-06,3.1640625,0,0
-2.70991749857785E-05,7.10088079358684E-06,3.1640625,0,0
-2.82377277471824E-05,1.38335244628252E-05,3.1640625,0,0
-2.68288058578037E-05,9.47085300140316E-06,3.1640625,0,0
-2.62690737145022E-05,5.05551270180149E-06,3.1640625,0,0
-2.53119123954093E-05,9.06588502402883E-06,3.1640625,0,0
-2.6673415050027E-05,8.09333869256079E-06,3.1640625,0,0
-2.53455473284703E-05,6.53234906167199E-07,3.1640625,0,0
-2.74515841738321E-05,-1.62953915605613E-06,3.1640625,0,0
-2.76842856692383E-05,1.85238650374231E-06,3.1640625,0,0
-2.91790856863372E-05,5.24249207956018E-06,3.1640625,0,0
-2.7530339139048E-05,4.62491561847855E-06,3.1640625,0,0
-2.75980037258705E-05,3.20037611345469E-06,3.1640625,0,0
-2.74268513749121E-05,5.56799250261975E-06,3.1640625,0,0
-2.8693066269625E-05,1.14952063086093E-05,3.1640625,0,0
-2.7928424970014E-05,1.75053792190738E-05,3.1640625,0,0
-2.79878495348385E-05,2.40816607401939E-05,3.1640625,0,0
-2.70648597506806E-05,2.77175295195775E-05,3.1640625,0,0
-2.53055877692532E-05,2.47097632382065E-05,3.1640625,0,0
-1.94843069039052E-05,1.61683074111352E-05,3.1640625,0,0
-2.81842058029724E-05,2.31936519412557E-05,3.1640625,0,0
-2.31333779083798E-05,1.44182013173122E-05,3.1640625,0,0
-2.88466799247544E-05,2.38071916101035E-05,3.1640625,0,0
-2.48817050305661E-05,3.06293841276784E-05,3.1640625,0,0
-2.81739867205033E-05,2.27362852456281E-05,3.1640625,0,0
-2.66475090029417E-05,1.46574957398116E-05,3.1640625,0,0
-2.74843059742125E-05,2.50909561145818E-05,3.1640625,0,0
-2.55762352026068E-05,2.73814257525373E-05,3.1640625,0,0
-2.54836941167014E-05,3.03426786558703E-05,3.1640625,0,0
-2.54070073424373E-05,3.37444980686996E-05,3.1640625,0,0
-2.38665470533306E-05,2.43488266278291E-05,3.1640625,0,0
-2.4693204977666E-05,1.5278987120837E-05,3.1640625,0,0
-2.47769257839536E-05,1.46195661727688E-05,3.1640625,0,0
-2.63981273747049E-05,1.31715360112139E-05,3.1640625,0,0
-2.45774172071833E-05,7.19219679012895E-06,3.1640625,0,0
-2.543191476434E-05,7.9564752013539E-06,3.1640625,0,0
-2.45081100729294E-05,9.02629471966065E-06,3.1640625,0,0
-2.41516936512198E-05,8.12281086837174E-06,3.1640625,0,0
-2.11397928069346E-05,3.78525828637066E-06,3.1640625,0,0
-2.08929486689158E-05,9.85145334198023E-07,3.1640625,0,0
-1.97211174963741E-05,-5.8120008361584E-07,3.1640625,0,0
-1.83853680937318E-05,9.69437564890541E-07,3.1640625,0,0
-1.60741965373745E-05,-5.43366354577302E-07,3.1640625,0,0
-1.5154996617639E-05,-4.37886319559766E-06,3.1640625,0,0
-1.52154671013705E-05,-6.11374434811296E-06,3.1640625,0,0
-1.67648322531022E-05,-9.60827833296207E-07,3.1640625,0,0
-1.43218794619315E-05,5.9013614190917E-06,3.1640625,0,0
-1.88451303984039E-05,1.01101513791946E-05,3.1640625,0,0
-1.36676353577059E-05,3.75441595679149E-06,3.1640625,0,0
-1.98002671822906E-05,9.78906064119656E-06,3.1640625,0,0
-1.82210478669731E-05,2.17441447603051E-05,3.1640625,0,0
-2.09487025131239E-05,1.07321120594861E-05,3.1640625,0,0
-2.04513289645547E-05,3.18113688990707E-06,3.1640625,0,0
-2.1643762011081E-05,1.21827788461815E-05,3.1640625,0,0
-2.09160843951395E-05,1.31111319205957E-05,3.1640625,0,0
-2.01834991457872E-05,1.53526780195534E-05,3.1640625,0,0
-1.97190584003692E-05,2.06010263354983E-05,3.1640625,0,0
-1.94235744856996E-05,1.42255021273741E-05,3.1640625,0,0
-2.08821838896256E-05,1.06159050119459E-05,3.1640625,0,0
-2.06545755645493E-05,2.03482995857485E-05,3.1640625,0,0
-2.13633556995774E-05,2.64983173110522E-05,3.1640625,0,0
-1.99441092263442E-05,2.17675315070665E-05,3.1640625,0,0
-2.11671940633096E-05,1.80451115738833E-05,3.1640625,0,0
-2.29449360631406E-05,2.05273736355593E-05,3.1640625,0,0
-2.54561782639939E-05,2.67708564933855E-05,3.1640625,0,0
-2.43867325480096E-05,3.04422701447038E-05,3.1640625,0,0
-2.45413866650779E-05,2.58023683272768E-05,3.1640625,0,0
-2.38417451328132E-05,1.63978656928521E-05,3.1640625,0,0
-2.25144613068551E-05,9.61266960075591E-06,3.1640625,0,0
-2.04214848054107E-05,8.08568347565597E-06,3.1640625,0,0
-2.00428930838825E-05,1.09457523649326E-05,3.1640625,0,0
-2.02591090783244E-05,1.40360216391855E-05,3.1640625,0,0
-2.0316672816989E-05,1.31109154608566E-05,3.1640625,0,0
-1.56605965457857E-05,5.97773714616778E-06,3.1640625,0,0
-2.15939344343496E-05,6.16293891653186E-06,3.1640625,0,0
-1.51230624396703E-05,-3.03763908959809E-06,3.1640625,0,0
-1.89200382010313E-05,-2.51358500236165E-07,3.1640625,0,0
-1.66121517395368E-05,4.89721378471586E-06,3.1640625,0,0
-2.15753407246666E-05,-3.97633493776084E-06,3.1640625,0,0
-2.25185758608859E-05,-7.09417599864537E-06,3.1640625,0,0
-2.34918916248716E-05,4.4181001612742E-06,3.1640625,0,0
-2.24696232180577E-05,8.77312004377018E-07,3.1640625,0,0
-2.31843714573188E-05,-2.79209007203463E-06,3.1640625,0,0
-2.48349006142234E-05,-2.31341829248777E-07,3.1640625,0,0
-2.58753061643802E-05,-5.596004484687E-06,3.1640625,0,0
-2.80790463875746E-05,-4.75742217531661E-06,3.1640625,0,0
-2.81247084785718E-05,8.77871116244933E-06,3.1640625,0,0
-2.84355264739133E-05,1.43291326821782E-05,3.1640625,0,0
-2.68589519691886E-05,6.99572774465196E-06,3.1640625,0,0
-2.77910767181311E-05,6.07483889325522E-06,3.1640625,0,0
-2.67099021584727E-05,1.33847279357724E-05,3.1640625,0,0
-2.61196928477148E-05,1.9048262402066E-05,3.1640625,0,0
-2.46860981860664E-05,1.74407086888095E-05,3.1640625,0,0
-2.56061393884011E-05,1.36755907078623E-05,3.1640625,0,0
-2.54037859122036E-05,1.09204793261597E-05,3.1640625,0,0
-2.54502410825808E-05,1.05664594229893E-05,3.1640625,0,0
-2.56997627730016E-05,1.16649762276211E-05,3.1640625,0,0
-2.75216043519322E-05,1.30819116748171E-05,3.1640625,0,0
-2.85570058622397E-05,1.14910726551898E-05,3.1640625,0,0
-2.74458216154017E-05,1.01446012195083E-05,3.1640625,0,0
-2.11000697163399E-05,9.66131938184844E-06,3.1640625,0,0
-3.10503564833198E-05,1.41369600896724E-05,3.1640625,0,0
-2.57757383224089E-05,5.34886021341663E-06,3.1640625,0,0
-3.16113437293097E-05,1.03416114143329E-05,3.1640625,0,0
-2.56142739090137E-05,1.65023666340858E-05,3.1640625,0,0
-2.84478046523873E-05,2.68491703536711E-06,3.1640625,0,0
-2.82350119960029E-05,-6.7230439526611E-06,3.1640625,0,0
-2.98102186206961E-05,3.37791448146163E-06,3.1640625,0,0
-2.77375966106774E-05,1.39879466587445E-06,3.1640625,0,0
-2.62694284174358E-05,-2.09756444746745E-06,3.1640625,0,0
-2.52139489020919E-05,1.47931086758035E-06,3.1640625,0,0
-2.30500863835914E-05,-8.97274276212556E-07,3.1640625,0,0
-2.25775929720839E-05,-9.51533593251952E-07,3.1640625,0,0
-2.18329532799544E-05,6.67128006170969E-06,3.1640625,0,0
-2.46580966631882E-05,1.04552154880366E-05,3.1640625,0,0
-2.5055573132704E-05,8.58030671224697E-06,3.1640625,0,0
-2.67795658146497E-05,1.14498689072207E-05,3.1640625,0,0
-2.54333135671914E-05,1.3796819075651E-05,3.1640625,0,0
-2.50122793659102E-05,1.15944530989509E-05,3.1640625,0,0
-2.22630205826135E-05,6.8084582380834E-06,3.1640625,0,0
-2.16710286622401E-05,5.49328933630022E-06,3.1640625,0,0
-2.07913344638655E-05,7.51959623812581E-06,3.1640625,0,0
-2.1740326701547E-05,1.27514949781471E-05,3.1640625,0,0
-2.10020971280755E-05,1.66407135111513E-05,3.1640625,0,0
-2.04742627829546E-05,1.80554434336955E-05,3.1640625,0,0
-2.05899741558824E-05,1.98155339603545E-05,3.1640625,0,0
-1.96077235159464E-05,2.30705900321482E-05,3.1640625,0,0
-1.48719182107016E-05,1.81949144462124E-05,3.1640625,0,0
-2.1587147784885E-05,2.50615103141172E-05,3.1640625,0,0
-1.58588154590689E-05,1.57182657858357E-05,3.1640625,0,0
-1.9070912458119E-05,2.08568526431918E-05,3.1640625,0,0
-1.86525703611551E-05,1.57163794938242E-05,3.1640625,0,0
-2.36926916841185E-05,2.3249888272403E-06,3.1640625,0,0
-2.33306145673851E-05,-5.35050003236393E-06,3.1640625,0,0
-2.39650307776174E-05,8.01128317107214E-06,3.1640625,0,0
-2.36078740272205E-05,7.61291721573798E-06,3.1640625,0,0
-2.37610965996282E-05,6.805865723436E-06,3.1640625,0,0
-2.50750927079935E-05,1.21711955216597E-05,3.1640625,0,0
-2.55131180892931E-05,8.86354882823071E-06,3.1640625,0,0
-2.60867600445636E-05,9.17225497687468E-06,3.1640625,0,0
-2.56124094448751E-05,1.66409699886572E-05,3.1640625,0,0
-2.67791147052776E-05,1.74181332113221E-05,3.1640625,0,0
-2.55464583460707E-05,5.93701224715915E-06,3.1640625,0,0
-2.4533454052289E-05,2.51712572207907E-06,3.1640625,0,0
-2.2538657503901E-05,6.45233058094163E-06,3.1640625,0,0
-2.37926087720552E-05,1.25074566312833E-05,3.1640625,0,0
-2.46488289121771E-05,1.23039453683305E-05,3.1640625,0,0
-2.6005536710727E-05,1.24149064504309E-05,3.1640625,0,0
-2.55712711805245E-05,1.40101183205843E-05,3.1640625,0,0
-2.49935656029265E-05,1.52140946738655E-05,3.1640625,0,0
-2.37383228522958E-05,1.20044023788068E-05,3.1640625,0,0
-2.40926201513503E-05,1.46482771015144E-05,3.1640625,0,0
-2.58761738223257E-05,2.15059517358895E-05,4.21875,0,0
-2.69967840722529E-05,2.36842843150953E-05,4.21875,0,0
-2.08127785299439E-05,1.26643344628974E-05,4.21875,0,0
-2.84428460872732E-05,1.51074327732204E-05,4.21875,0,0
-2.09557765629143E-05,7.98989276518114E-06,4.21875,0,0
-2.84047418972477E-05,1.83306474355049E-05,4.21875,0,0
-2.5787683625822E-05,2.23914357775357E-05,4.21875,0,0
-2.96373327728361E-05,1.23855425044894E-05,4.21875,0,0
-2.79053201666102E-05,6.6699735725706E-06,4.21875,0,0
-2.95905756502179E-05,2.00567683350528E-05,4.21875,0,0
-2.86177782982122E-05,1.98359284695471E-05,4.21875,0,0
-2.81066677416675E-05,2.09146619454259E-05,4.21875,0,0
-2.81630418612622E-05,2.77144099527504E-05,4.21875,0,0
-2.72775650955737E-05,2.47086009039776E-05,4.21875,0,0
-2.57315659837332E-05,2.2236459699343E-05,4.21875,0,0
-2.08588262466947E-05,2.6340003387304E-05,4.21875,0,0
-1.98532761714887E-05,2.55092090810649E-05,4.21875,0,0
-2.06940512725851E-05,1.36751395984902E-05,4.21875,0,0
-2.54002261499409E-05,4.67441577711725E-06,4.21875,0,0
-2.5197032300639E-05,-2.80267276053792E-08,4.21875,0,0
-2.44367111008614E-05,1.84894372523559E-06,4.21875,0,0
-2.13654075196246E-05,6.03525222686585E-06,4.21875,0,0
-2.23661445488688E-05,1.10853761725593E-05,4.21875,0,0
-2.34981143876212E-05,9.17308898351621E-06,4.21875,0,0
-2.45454284595326E-05,6.04516890234663E-06,4.21875,0,0
-2.3809510821593E-05,4.6954510253272E-06,4.21875,0,0
-2.48836058744928E-05,4.54917699244106E-06,4.21875,0,0
-2.58571708400268E-05,3.01346517517231E-06,4.21875,0,0
-2.69916254183045E-05,-8.65865445121017E-07,4.21875,0,0
-2.19208777707536E-05,-2.80144513453706E-06,4.21875,0,0
-2.95760091830743E-05,2.45693104261591E-06,4.21875,0,0
-2.01924103748752E-05,1.37095903482987E-05,4.21875,0,0
-2.50195371336304E-05,2.70961136266124E-05,4.21875,0,0
-1.97870085685281E-05,4.00095777877141E-05,4.21875,0,0
-2.38178035942838E-05,2.77895014733076E-05,4.21875,0,0
-2.24507275561336E-05,2.14280844375025E-05,4.21875,0,0
-2.34670224017464E-05,2.84738925984129E-05,4.21875,0,0
-2.1682233636966E-05,2.58095733443042E-05,4.21875,0,0
-2.01001330424333E-05,2.72579563898034E-05,4.21875,0,0
-1.93685445992742E-05,3.43672618328128E-05,4.21875,0,0
-1.93733885680558E-05,2.85077348962659E-05,4.21875,0,0
-2.10255493584555E-05,2.21510490518995E-05,4.21875,0,0
-1.94337517314125E-05,2.72087982011726E-05,4.21875,0,0
-2.05952837859513E-05,2.50675984716509E-05,4.21875,0,0
-2.01337661565049E-05,1.44914465636248E-05,4.21875,0,0
-2.12940049095778E-05,7.25934660295025E-06,4.21875,0,0
-1.83532265509712E-05,4.97735072713112E-06,4.21875,0,0
-1.76647936314112E-05,3.19696346195997E-06,4.21875,0,0
-1.6302328731399E-05,4.09062704420649E-06,4.21875,0,0
-1.77287020051153E-05,5.63457024327363E-06,4.21875,0,0
-1.82201856659958E-05,6.41392580291722E-06,4.21875,0,0
-1.95648844965035E-05,5.40954715688713E-06,4.21875,0,0
-1.93718242371688E-05,1.92910147234215E-06,4.21875,0,0
-1.88982157851569E-05,-3.10567452288524E-06,4.21875,0,0
-1.60723666340346E-05,-8.34884485811926E-06,4.21875,0,0
-1.28139163280139E-05,-1.25928891065996E-05,4.21875,0,0
-1.1079451724072E-05,-8.82426957105054E-06,4.21875,0,0
-1.95686043298338E-05,-6.02868021815084E-06,4.21875,0,0
-2.10126308957115E-05,-2.71793737738335E-07,4.21875,0,0
-2.37349704548251E-05,7.4580617592801E-07,4.21875,0,0
-1.95882239495404E-05,9.20708771445788E-06,4.21875,0,0
-2.126682556991E-05,-9.33653154788772E-06,4.21875,0,0
-2.35095758398529E-05,-1.83951851795428E-05,4.21875,0,0
-2.55120539804921E-05,-7.61832143325591E-06,4.21875,0,0
-2.40693116211332E-05,-2.95244632297909E-07,4.21875,0,0
-2.24120067287004E-05,5.16140380568686E-06,4.21875,0,0
-2.22778944589663E-05,1.15049788291799E-05,4.21875,0,0
-2.28983317356324E-05,7.33407250663731E-06,4.21875,0,0
-2.40416302403901E-05,5.2183127081662E-06,4.21875,0,0
-2.33994760492351E-05,1.94658059626818E-05,4.21875,0,0
-2.35656971199205E-05,2.88373321382096E-05,4.21875,0,0
-2.39496657741256E-05,2.63567435467849E-05,4.21875,0,0
-2.5759782147361E-05,1.88680442079203E-05,4.21875,0,0
-2.46280960709555E-05,1.60354975378141E-05,4.21875,0,0
-2.2497981262859E-05,1.3865171240468E-05,4.21875,0,0
-2.02366973098833E-05,1.33417015604209E-05,4.21875,0,0
-2.07010180020006E-05,1.3039707482676E-05,4.21875,0,0
-2.07445664273109E-05,1.20908862299984E-05,4.21875,0,0
-1.95518005057238E-05,9.66597690421622E-06,4.21875,0,0
-1.7395901522832E-05,1.01722043837071E-05,4.21875,0,0
-1.76188368641306E-05,7.00165173839196E-06,4.21875,0,0
-2.02580649784068E-05,1.31366914501996E-06,4.21875,0,0
-2.24209925363539E-05,-1.43743091030046E-06,4.21875,0,0
-1.82295098056784E-05,-5.86575197303318E-07,4.21875,0,0
-2.43662416323787E-05,2.42372811953828E-06,4.21875,0,0
-1.58159527927637E-05,-9.85060978564434E-07,4.21875,0,0
-2.13331586564891E-05,-1.53939936353709E-06,4.21875,0,0
-2.02300689124968E-05,6.91207151248818E-06,4.21875,0,0
-2.49680306296796E-05,-3.75536615138117E-06,4.21875,0,0
-2.3662376406719E-05,-1.0078253581014E-05,4.21875,0,0
-2.42986279772595E-05,-3.55828456122254E-06,4.21875,0,0
-2.31277172133559E-05,-7.71323811932234E-06,4.21875,0,0
-2.31795202125795E-05,-7.48255115468055E-06,4.21875,0,0
-2.47939042310463E-05,1.96463452084572E-06,4.21875,0,0
-2.55154227488674E-05,3.35900040226988E-06,4.21875,0,0
-2.57663159572985E-05,5.6828280321497E-06,4.21875,0,0
-2.37984331761254E-05,1.80857932718936E-05,4.21875,0,0
-2.57819792750524E-05,2.18027144001098E-05,4.21875,0,0
-2.68849526037229E-05,1.60435993166175E-05,4.21875,0,0
-2.85235346382251E-05,1.51521471707383E-05,4.21875,0,0
-2.69080192083493E-05,2.24919185711769E-05,4.21875,0,0
-2.66211536654737E-05,2.9817538234056E-05,4.21875,0,0
-2.46708805207163E-05,3.22163250530139E-05,4.21875,0,0
-2.48459291469771E-05,3.09508468490094E-05,4.21875,0,0
-2.52826957876096E-05,3.10187679133378E-05,4.21875,0,0
-2.7862542992807E-05,2.98012018902227E-05,4.21875,0,0
-2.86532304016873E-05,2.54640344792278E-05,4.21875,0,0
-2.81954144156771E-05,2.14052670344245E-05,4.21875,0,0
-2.78077368420782E-05,1.98332654690603E-05,4.21875,0,0
-2.83141271211207E-05,1.99473452084931E-05,4.21875,0,0
-2.41003399423789E-05,1.50648229464423E-05,4.21875,0,0
-3.29318791045807E-05,2.0474548364291E-05,4.21875,0,0
-2.26861448027194E-05,9.73811438598204E-06,4.21875,0,0
-2.78725474345265E-05,1.50785590449232E-05,4.21875,0,0
-2.34001454373356E-05,1.35939608298941E-05,4.21875,0,0
-2.84663710772293E-05,-3.04954755847575E-06,4.21875,0,0
-2.57862266153097E-05,-1.25046935863793E-05,4.21875,0,0
-2.59758471656824E-05,-7.1932976197786E-07,4.21875,0,0
-2.42466830968624E-05,-2.04758816835238E-06,4.21875,0,0
-2.36754913203185E-05,-3.24817824548518E-06,4.21875,0,0
-2.39173659792868E-05,1.08961239675409E-06,4.21875,0,0
-2.32487764151301E-05,-5.51085577171762E-06,4.21875,0,0
-2.48319829552202E-05,-9.31721751840087E-06,4.21875,0,0
-2.34202543651918E-05,-8.10007236395904E-07,4.21875,0,0
-2.38017164519988E-05,6.01141073275357E-06,4.21875,0,0
-2.21286663872888E-05,1.15504326458904E-06,4.21875,0,0
-2.38294924201909E-05,-1.96954101738811E-06,4.21875,0,0
-2.20366437133634E-05,-2.81282291325624E-06,4.21875,0,0
-2.15094969462371E-05,-2.42091709878878E-06,4.21875,0,0
-1.82532457984053E-05,-1.08819040178787E-06,4.21875,0,0
-1.79459912033053E-05,6.94339223628049E-06,4.21875,0,0
-1.85937842616113E-05,1.14742879304686E-05,4.21875,0,0
-2.19959856622154E-05,9.14232805371284E-06,4.21875,0,0
-2.38711199926911E-05,7.86340751801617E-06,4.21875,0,0
-2.50386347033782E-05,1.4998719052528E-05,4.21875,0,0
-2.50426292041084E-05,2.14942247112049E-05,4.21875,0,0
-2.50802640948677E-05,2.29543948080391E-05,4.21875,0,0
-2.13974799407879E-05,2.00055001187138E-05,4.21875,0,0
-3.03581582556944E-05,3.05571120406967E-05,4.21875,0,0
-2.40660319832386E-05,2.09337522392161E-05,4.21875,0,0
-3.18189704557881E-05,2.88314240606269E-05,4.21875,0,0
-2.87891816697083E-05,3.16946461680345E-05,4.21875,0,0
-3.18533202516846E-05,2.39470555243315E-05,4.21875,0,0
-2.89849231194239E-05,2.20162746700225E-05,4.21875,0,0
-2.91278411168605E-05,3.37499332090374E-05,4.21875,0,0
-2.8705173463095E-05,2.58723885053769E-05,4.21875,0,0
-2.99725634249626E-05,1.68075275723822E-05,4.21875,0,0
-3.11896365019493E-05,1.68635524460115E-05,4.21875,0,0
-3.06312322209124E-05,1.0138978723262E-05,4.21875,0,0
-3.0574643460568E-05,6.0454090089479E-06,4.21875,0,0
-2.75286092801252E-05,9.73400801740354E-06,4.21875,0,0
-2.69035881501623E-05,7.00841246725759E-06,4.21875,0,0
-2.3898552171886E-05,-8.97080008144258E-06,4.21875,0,0
-2.39342134591425E-05,-1.70269413501956E-05,4.21875,0,0
-2.38972988881869E-05,-1.4705081412103E-05,4.21875,0,0
-2.73836540145567E-05,-8.0496856753598E-06,4.21875,0,0
-2.80922195088351E-05,-6.89743410475785E-06,4.21875,0,0
-2.75702968792757E-05,-7.27512133380515E-06,4.21875,0,0
-2.42292826442281E-05,-6.69353403282003E-06,4.21875,0,0
-2.32299626077292E-05,-3.44863792633987E-07,4.21875,0,0
-2.34088802244514E-05,5.20108096679905E-06,4.21875,0,0
-2.41133511735825E-05,6.15807539361413E-06,4.21875,0,0
-2.33834798564203E-05,4.67320705865859E-06,4.21875,0,0
-2.19002431549598E-05,3.79571929443046E-06,4.21875,0,0
-1.75976419996005E-05,4.26668702857569E-06,4.21875,0,0
-2.66386359726312E-05,1.54254030348966E-05,4.21875,0,0
-2.2679598259856E-05,2.29072720685508E-05,4.21875,0,0
-2.72955930995522E-05,2.90670268441318E-05,4.21875,0,0
-2.28457593038911E-05,3.23522908729501E-05,4.21875,0,0
-2.33748942264356E-05,1.73957068909658E-05,4.21875,0,0
-1.97126355487853E-05,1.39532039611368E-05,4.21875,0,0
-1.86794859473594E-05,2.67746127065038E-05,4.21875,0,0
-1.78427944774739E-05,2.46902418439277E-05,4.21875,0,0
-1.94814729184145E-05,2.05187316169031E-05,4.21875,0,0
-2.21808350033825E-05,2.54563747148495E-05,4.21875,0,0
-2.35468778555514E-05,2.28090866585262E-05,4.21875,0,0
-2.4403461793554E-05,1.49524930748157E-05,4.21875,0,0
-2.35298266488826E-05,1.49770803545834E-05,4.21875,0,0
-2.47747975663515E-05,1.23838462968706E-05,4.21875,0,0
-2.34114013437647E-05,5.3610010581906E-06,4.21875,0,0
-2.33616683544824E-05,2.35683478422288E-06,4.21875,0,0
-2.20313504541991E-05,4.42115970145096E-06,4.21875,0,0
-2.23228398681385E-05,6.08984555583447E-06,4.21875,0,0
-2.15511445276206E-05,3.46491219715972E-06,4.21875,0,0
-2.32513320952421E-05,-2.37513427236991E-06,4.21875,0,0
-2.42826135945506E-05,-6.29845135335927E-06,4.21875,0,0
-2.51675046456512E-05,-5.91863908994128E-06,4.21875,0,0
-2.35226634686114E-05,-2.93184416477743E-06,4.21875,0,0
-2.12548166018678E-05,6.57681027860235E-07,4.21875,0,0
-2.03053350560367E-05,-2.51372796356009E-07,4.21875,0,0
-2.22089165617945E-05,-2.63841275227605E-06,4.21875,0,0
-1.9612116375356E-05,-1.61776381446543E-06,4.21875,0,0
-2.77269518846879E-05,1.21176014999946E-06,4.21875,0,0
-2.08027522603516E-05,5.42510770173976E-06,4.21875,0,0
-2.62647790805204E-05,1.39545800266205E-05,4.21875,0,0
-2.26798802032135E-05,2.37682234001113E-05,4.21875,0,0
-2.54866172326729E-05,9.42031147133093E-06,4.21875,0,0
-2.27432410611073E-05,-3.50218982703154E-07,4.21875,0,0
-2.33050632232334E-05,7.68626341596246E-06,4.21875,0,0
-2.46667568717385E-05,8.82783388078678E-06,4.21875,0,0
-2.75773418252356E-05,1.10433684312738E-05,4.21875,0,0
-2.9236032787594E-05,1.90775463124737E-05,4.21875,0,0
-2.8487262170529E-05,1.83033989742398E-05,4.21875,0,0
-2.87082893919433E-05,1.91123926924774E-05,4.21875,0,0
-2.56280345638515E-05,2.79355335806031E-05,4.21875,0,0
-2.32583061006153E-05,2.81101529253647E-05,4.21875,0,0
-2.0165427486063E-05,1.91013205039781E-05,4.21875,0,0
-2.17237247852609E-05,1.17548588605132E-05,4.21875,0,0
-2.2621816242463E-05,1.07589421531884E-05,4.21875,0,0
-2.55104769166792E-05,1.17821773528703E-05,4.21875,0,0
-2.58835116255796E-05,1.29389964058646E-05,4.21875,0,0
-2.60106335190358E-05,1.37666611408349E-05,4.21875,0,0
-2.49074091698276E-05,1.24391190183815E-05,4.21875,0,0
-2.54778533417266E-05,8.73357294040034E-06,4.21875,0,0
-2.478175520082E-05,8.12872349342797E-06,4.21875,0,0
-2.51541951001855E-05,9.38779066927964E-06,4.21875,0,0
-2.6449995857547E-05,5.79993184146588E-06,4.21875,0,0
-2.83204408333404E-05,-1.65904009463702E-06,4.21875,0,0
-2.38256616285071E-05,-2.44614670918963E-06,4.21875,0,0
-3.25492546835449E-05,2.0358668280096E-06,4.21875,0,0
-2.17523429455468E-05,9.35823038616945E-07,4.21875,0,0
-2.59624066529796E-05,-1.06419338408159E-06,4.21875,0,0
-2.13882576645119E-05,6.21692151980824E-06,4.21875,0,0
-2.60110282397363E-05,-4.65772563984501E-06,4.21875,0,0
-2.28205281018745E-05,-7.69895177654689E-06,4.21875,0,0
-2.2582835299545E-05,6.2695909264221E-07,4.21875,0,0
-2.04823445528746E-05,7.24957715192431E-07,4.21875,0,0
-1.96770633920096E-05,3.44935961038573E-06,4.21875,0,0
-1.96535311260959E-05,1.36889202622115E-05,4.21875,0,0
-2.01746697712224E-05,1.43890456456575E-05,4.21875,0,0
-2.33853443205589E-05,1.43811894304235E-05,4.21875,0,0
-2.32877755479421E-05,2.77790695690783E-05,4.21875,0,0
-2.37897766055539E-05,3.508156441967E-05,4.21875,0,0
-2.09276731766295E-05,2.98062332149129E-05,4.21875,0,0
-2.13094226637622E-05,2.24266204895685E-05,4.21875,0,0
-1.91078415809898E-05,2.04523239517584E-05,4.21875,0,0
-1.87787063623546E-05,1.93663327081595E-05,4.21875,0,0
-1.74207580130314E-05,2.08551555260783E-05,4.21875,0,0
-1.94009917322546E-05,2.18119766941527E-05,4.21875,0,0
-1.93686846614582E-05,2.20980400627013E-05,4.21875,0,0
-2.11333772313083E-05,2.32589700317476E-05,4.21875,0,0
-2.29327688430203E-05,2.77784183708718E-05,4.21875,0,0
-2.44714537984692E-05,3.10017676383723E-05,4.21875,0,0
-2.45987921516644E-05,2.82109249383211E-05,4.21875,0,0
-2.48289779847255E-05,2.64048758253921E-05,4.21875,0,0
-2.18154764297651E-05,2.40151221078122E-05,4.21875,0,0
-3.26383087667637E-05,3.40682963724248E-05,4.21875,0,0
-2.66201423073653E-05,2.02083465410396E-05,4.21875,0,0
-3.155504600727E-05,2.81617903965525E-05,5.2734375,0,0
-2.58353084063856E-05,2.73042460321449E-05,5.2734375,0,0
-2.72098714049207E-05,1.46149959618924E-05,5.2734375,0,0
-2.52079025813146E-05,5.4561123761232E-06,5.2734375,0,0
-2.67570030700881E-05,1.4759743862669E-05,5.2734375,0,0
-2.59027310676174E-05,7.40620953365578E-06,5.2734375,0,0
-2.53843445534585E-05,1.74250101281359E-06,5.2734375,0,0
-2.50842349487357E-05,4.50300058219E-06,5.2734375,0,0
-2.33743976423284E-05,-6.72338671847683E-07,5.2734375,0,0
-2.2936630557524E-05,-1.75872537511168E-06,5.2734375,0,0
-2.13592848012922E-05,6.77369371260284E-06,5.2734375,0,0
-2.20839083340252E-05,1.39732246680069E-05,5.2734375,0,0
-1.97992667381186E-05,8.6401387306978E-06,5.2734375,0,0
-1.992185934796E-05,5.75280409975676E-06,5.2734375,0,0
-1.88823705684626E-05,4.62053867522627E-06,5.2734375,0,0
-2.02870651264675E-05,8.47689807415009E-06,5.2734375,0,0
-1.90646005648887E-05,1.49701781992917E-05,5.2734375,0,0
-1.91410308616469E-05,2.45350147451973E-05,5.2734375,0,0
-1.89694965229137E-05,2.49731492658611E-05,5.2734375,0,0
-1.99088572117034E-05,2.01871207536897E-05,5.2734375,0,0
-2.0355333617772E-05,1.4408946299227E-05,5.2734375,0,0
-2.11661645153072E-05,1.33846151584294E-05,5.2734375,0,0
-2.09785303013632E-05,1.53659930219874E-05,5.2734375,0,0
-2.24213217734359E-05,1.38385767058935E-05,5.2734375,0,0
-1.9489119949867E-05,6.16010447629378E-06,5.2734375,0,0
-2.67310315393843E-05,9.46818818192696E-06,5.2734375,0,0
-1.95233569684206E-05,5.52878782400512E-06,5.2734375,0,0
-2.61412460531574E-05,1.13340011012042E-05,5.2734375,0,0
-2.46852614509407E-05,1.95664833881892E-05,5.2734375,0,0
-3.01271174976137E-05,1.12877933133859E-05,5.2734375,0,0
-3.0129269362078E-05,4.91290938953171E-06,5.2734375,0,0
-3.08244088955689E-05,1.25721180666005E-05,5.2734375,0,0
-2.88662176899379E-05,7.77801506046671E-06,5.2734375,0,0
-2.85749028989812E-05,3.87102909371606E-06,5.2734375,0,0
-2.74585363513324E-05,5.98126234763185E-06,5.2734375,0,0
-2.45478768192697E-05,-1.09511461232614E-06,5.2734375,0,0
-2.4227992980741E-05,-8.5780657173018E-06,5.2734375,0,0
-2.35669831454288E-05,-7.76167507865466E-06,5.2734375,0,0
-2.59355510934256E-05,-1.01311125035863E-05,5.2734375,0,0
-2.55701888818294E-05,-1.86182551260572E-05,5.2734375,0,0
-2.50530429184437E-05,-2.10625021281885E-05,5.2734375,0,0
-2.19817702600267E-05,-1.52154034367413E-05,5.2734375,0,0
-2.35280804190552E-05,-7.75930220697774E-06,5.2734375,0,0
-2.45883657044033E-05,-8.27456460683607E-06,5.2734375,0,0
-2.56665425695246E-05,-1.27132507259375E-05,5.2734375,0,0
-2.44834373006597E-05,-1.43499673868064E-05,5.2734375,0,0
-2.37529602600262E-05,-9.96271410258487E-06,5.2734375,0,0
-2.18406039493857E-05,-5.02811508340528E-06,5.2734375,0,0
-2.23592523980187E-05,-5.55090946363634E-06,5.2734375,0,0
-2.35735842579743E-05,-9.99753774522105E-06,5.2734375,0,0
-2.56294151768088E-05,-8.36616527521983E-06,5.2734375,0,0
-2.16463722608751E-05,7.06075013567897E-07,5.2734375,0,0
-3.01130949083017E-05,7.38283915779903E-06,5.2734375,0,0
-2.19880421354901E-05,1.23981981232646E-05,5.2734375,0,0
-2.75672518910142E-05,2.04908465093467E-05,5.2734375,0,0
-2.32344318646938E-05,2.93144348688656E-05,5.2734375,0,0
-2.59788084804313E-05,1.78293375938665E-05,5.2734375,0,0
-2.33752198255388E-05,1.64106641022954E-05,5.2734375,0,0
-2.5705308871693E-05,2.91780906991335E-05,5.2734375,0,0
-2.59231455856934E-05,3.21097832056694E-05,5.2734375,0,0
-2.62821158685256E-05,3.40265250997618E-05,5.2734375,0,0
-2.64475729636615E-05,3.89652559533715E-05,5.2734375,0,0
-2.60811011685291E-05,3.33407915604766E-05,5.2734375,0,0
-2.75562651950167E-05,2.79156593023799E-05,5.2734375,0,0
-2.61515488091391E-05,3.35534678015392E-05,5.2734375,0,0
-2.6842104489333E-05,3.42184503097087E-05,5.2734375,0,0
-2.52850841206964E-05,2.44984312303131E-05,5.2734375,0,0
-2.57233950833324E-05,1.50612077050027E-05,5.2734375,0,0
-2.30733585340204E-05,1.28819974634098E-05,5.2734375,0,0
-2.26087358896621E-05,1.1645068298094E-05,5.2734375,0,0
-2.031060103036E-05,7.72867224441143E-06,5.2734375,0,0
-1.96952805708861E-05,9.8487555533211E-07,5.2734375,0,0
-1.76115645444952E-05,-4.23991650677635E-06,5.2734375,0,0
-1.74131255334942E-05,-5.71935834159376E-06,5.2734375,0,0
-1.84163054655073E-05,-4.71155954073765E-06,5.2734375,0,0
-2.09018526220461E-05,-3.64038123734645E-06,5.2734375,0,0
-2.11927217605989E-05,-2.67127506958786E-06,5.2734375,0,0
-2.03226427402115E-05,1.32642571770702E-06,5.2734375,0,0
-1.64978318935027E-05,6.10800498179742E-06,5.2734375,0,0
-2.31277808779851E-05,1.31975757540204E-05,5.2734375,0,0
-1.64765424415236E-05,1.26026861835271E-05,5.2734375,0,0
-1.92878924281104E-05,1.89347174455179E-05,5.2734375,0,0
-1.50747328007128E-05,2.54173046414508E-05,5.2734375,0,0
-1.70144739968237E-05,1.0288772500644E-05,5.2734375,0,0
-1.63636159413727E-05,3.47000536748965E-07,5.2734375,0,0
-1.89151887752814E-05,1.03556030808249E-05,5.2734375,0,0
-2.00825998035725E-05,1.19871210699785E-05,5.2734375,0,0
-2.18372169911163E-05,1.46160145959584E-05,5.2734375,0,0
-2.21468944801018E-05,2.04407861019718E-05,5.2734375,0,0
-2.08622877835296E-05,1.54214267240604E-05,5.2734375,0,0
-2.00307822524337E-05,1.13611531560309E-05,5.2734375,0,0
-1.73282969626598E-05,2.01224975171499E-05,5.2734375,0,0
-1.79808121174574E-05,2.57342235272517E-05,5.2734375,0,0
-1.90228820429184E-05,2.09380486921873E-05,5.2734375,0,0
-2.18862060137326E-05,1.59360934048891E-05,5.2734375,0,0
-2.20267902477644E-05,1.44710793392733E-05,5.2734375,0,0
-2.33566115639405E-05,1.56872156367172E-05,5.2734375,0,0
-2.21604641410522E-05,1.53998025780311E-05,5.2734375,0,0
-2.16772314161062E-05,1.12628249553381E-05,5.2734375,0,0
-1.9826944480883E-05,4.93859124617302E-06,5.2734375,0,0
-1.8657956388779E-05,3.46796127814741E-06,5.2734375,0,0
-1.89217080333037E-05,5.8033556342707E-06,5.2734375,0,0
-2.3251777747646E-05,8.29557029646821E-06,5.2734375,0,0
-2.71804256044561E-05,7.71987561165588E-06,5.2734375,0,0
-2.79185842373408E-05,5.78282060814672E-06,5.2734375,0,0
-2.0546258383547E-05,3.40413885169255E-06,5.2734375,0,0
-2.80510357697494E-05,7.99511326476932E-06,5.2734375,0,0
-2.0284962374717E-05,5.86106079936144E-06,5.2734375,0,0
-2.57681294897338E-05,8.00741236162139E-06,5.2734375,0,0
-2.07810971915023E-05,1.23408744912012E-05,5.2734375,0,0
-2.37918247876223E-05,3.70723569176334E-07,5.2734375,0,0
-2.19604844460264E-05,-5.38299627805827E-06,5.2734375,0,0
-2.38125794567168E-05,4.34585535913357E-06,5.2734375,0,0
-2.38112024817383E-05,3.94073549614404E-06,5.2734375,0,0
-2.4578064767411E-05,5.55461610929342E-06,5.2734375,0,0
-2.48336018557893E-05,1.41419031933765E-05,5.2734375,0,0
-2.38517895922996E-05,1.25282904264168E-05,5.2734375,0,0
-2.48973792622564E-05,1.14358281280147E-05,5.2734375,0,0
-2.42565602093237E-05,1.96731634787284E-05,5.2734375,0,0
-2.55931518040597E-05,2.4880528144422E-05,5.2734375,0,0
-2.43018366745673E-05,2.38124794122996E-05,5.2734375,0,0
-2.54762308031786E-05,2.21547215915052E-05,5.2734375,0,0
-2.53779471677262E-05,1.9959028577432E-05,5.2734375,0,0
-2.77066719718277E-05,1.57413360284409E-05,5.2734375,0,0
-2.64892150880769E-05,1.14835520435008E-05,5.2734375,0,0
-2.59957396337995E-05,1.02288458947442E-05,5.2734375,0,0
-2.49146032729186E-05,1.26704971989966E-05,5.2734375,0,0
-2.54000260611065E-05,1.66842382895993E-05,5.2734375,0,0
-2.42379264818737E-05,1.92963398149004E-05,5.2734375,0,0
-2.38180855376413E-05,2.06316162802977E-05,5.2734375,0,0
-2.44289349211613E-05,1.95245866052574E-05,5.2734375,0,0
-2.55673094216036E-05,1.64506873261416E-05,5.2734375,0,0
-2.20688598346896E-05,1.65865985763958E-05,5.2734375,0,0
-3.14660574076697E-05,2.84937268588692E-05,5.2734375,0,0
-2.41003599512624E-05,1.87131026905263E-05,5.2734375,0,0
-2.99946259474382E-05,2.02231694856891E-05,5.2734375,0,0
-2.57922147284262E-05,2.24092236749129E-05,5.2734375,0,0
-2.80154908978147E-05,9.93029607343487E-06,5.2734375,0,0
-2.33876762649743E-05,-1.82711426077731E-06,5.2734375,0,0
-2.27834752877243E-05,1.20484298804513E-06,5.2734375,0,0
-2.30965488299262E-05,-4.38263623436796E-06,5.2734375,0,0
-2.54711994784884E-05,-5.16783302373369E-06,5.2734375,0,0
-2.70409636868862E-05,2.28001385949028E-06,5.2734375,0,0
-2.70472355623497E-05,-2.84891854107627E-07,5.2734375,0,0
-2.80463282251731E-05,-1.84167959105253E-06,5.2734375,0,0
-2.664748353709E-05,5.29936232851469E-06,5.2734375,0,0
-2.69069805653999E-05,7.87056887929793E-06,5.2734375,0,0
-2.4308452339028E-05,6.82447137023701E-07,5.2734375,0,0
-2.42541482293746E-05,-1.49827872064634E-06,5.2734375,0,0
-2.10662601602962E-05,1.11811061742628E-06,5.2734375,0,0
-2.01290276891086E-05,3.63901358468866E-06,5.2734375,0,0
-1.95499469555216E-05,2.24175300900242E-06,5.2734375,0,0
-2.27516557060881E-05,2.48547553383105E-06,5.2734375,0,0
-2.34775070566684E-05,5.79276183998445E-06,5.2734375,0,0
-2.41813704633387E-05,9.67505820881343E-06,5.2734375,0,0
-2.39463061006973E-05,1.04616137832636E-05,5.2734375,0,0
-2.34678282140521E-05,1.52049942698795E-05,5.2734375,0,0
-2.26019255933352E-05,2.28916469495744E-05,5.2734375,0,0
-2.01328566618031E-05,2.32361580856377E-05,5.2734375,0,0
-1.2282086572668E-05,1.64631019288208E-05,5.2734375,0,0
-1.58114035002654E-05,2.6715290005086E-05,5.2734375,0,0
-1.13879223135882E-05,2.19715439015999E-05,5.2734375,0,0
-1.63615968631348E-05,3.07402733596973E-05,5.2734375,0,0
-1.48399067256832E-05,3.38659338012803E-05,5.2734375,0,0
-1.71552910614992E-05,2.00924241653411E-05,5.2734375,0,0
-1.61312291311333E-05,6.18787407802301E-06,5.2734375,0,0
-1.77346446434967E-05,1.11427243609796E-05,5.2734375,0,0
-1.71179872268112E-05,6.89612306814524E-06,5.2734375,0,0
-1.70618422998814E-05,5.38250287718256E-06,5.2734375,0,0
-1.97280605789274E-05,9.39307119551813E-06,6.15234375,0,0
-2.30143832595786E-05,5.30592660652474E-06,6.15234375,0,0
-2.53701855399413E-05,2.80207450487069E-06,6.15234375,0,0
-2.50714456342394E-05,6.04284741712036E-06,6.15234375,0,0
-2.62736721197143E-05,4.46391732111806E-06,6.15234375,0,0
-2.60633405559929E-05,-5.52067967873882E-06,6.15234375,0,0
-2.69642150669824E-05,-8.47765659273136E-06,6.15234375,0,0
-2.71837325271918E-05,-5.81673384658643E-06,6.15234375,0,0
-2.9431086659315E-05,-2.40522197714199E-08,6.15234375,0,0
-2.96185244224034E-05,3.39653001901752E-06,6.15234375,0,0
-2.92411241389345E-05,5.84565532335546E-06,6.15234375,0,0
-2.66648657998303E-05,4.86480212202878E-06,6.15234375,0,0
-2.67056166194379E-05,4.68629514216445E-06,6.15234375,0,0
-2.85056630673353E-05,5.7890169955499E-06,6.15234375,0,0
-2.93360244540963E-05,8.42059944261564E-06,6.15234375,0,0
-2.78371808235534E-05,9.37493769015418E-06,6.15234375,0,0
-2.69562788162148E-05,1.20655267892289E-05,6.15234375,0,0
-2.13568346225657E-05,1.73193166119745E-05,6.15234375,0,0
-2.85584101220593E-05,2.82225209957687E-05,6.15234375,0,0
-1.86954839591635E-05,1.70303410413908E-05,6.15234375,0,0
-2.42213318415452E-05,1.78752143256133E-05,6.15234375,0,0
-2.12974446185399E-05,2.30749192269286E-05,6.15234375,0,0
-2.66820206888951E-05,1.97744157048874E-05,6.15234375,0,0
-2.56770763371605E-05,1.8727507267613E-05,6.15234375,0,0
-2.67370287474478E-05,2.80378098977963E-05,6.15234375,0,0
-2.62104895227822E-05,1.85634671652224E-05,6.15234375,0,0
-2.61133009189507E-05,9.68006315815728E-06,6.15234375,0,0
-2.51864094025223E-05,1.39261583171901E-05,6.15234375,0,0
-2.4274195311591E-05,1.22050942081842E-05,6.15234375,0,0
-2.61184468399733E-05,9.31282011151779E-06,6.15234375,0,0
-2.69209249381674E-05,1.1708644706232E-05,6.15234375,0,0
-2.98657414532499E-05,1.08881649794057E-05,6.15234375,0,0
-2.85734204226173E-05,2.89991749014007E-06,6.15234375,0,0
-2.87155653495574E-05,1.25568976727664E-06,6.15234375,0,0
-2.70934033324011E-05,4.35356560046785E-06,6.15234375,0,0
-2.73361365543678E-05,8.04790033726022E-06,6.15234375,0,0
-2.49452641583048E-05,7.41642907087225E-06,6.15234375,0,0
-2.44052680500317E-05,6.15638782619499E-06,6.15234375,0,0
-2.29301131184911E-05,2.98233112516755E-06,6.15234375,0,0
-2.33348710025894E-05,5.90170316172589E-07,6.15234375,0,0
-2.21190803131321E-05,1.75938885149662E-06,6.15234375,0,0
-2.16085409192601E-05,4.90282855025725E-06,6.15234375,0,0
-2.10449288715608E-05,4.5070282794768E-06,6.15234375,0,0
-1.99934711417882E-05,3.62615082849516E-06,6.15234375,0,0
-1.70429229910951E-05,2.61150466940308E-06,6.15234375,0,0
-2.41627476498252E-05,7.33810247766087E-06,6.15234375,0,0
-1.85906319529749E-05,9.04922853806056E-06,6.15234375,0,0
-2.40798635786632E-05,1.5307537978515E-05,6.15234375,0,0
-2.29326014959952E-05,2.07986868190346E-05,6.15234375,0,0
-2.83944718830753E-05,8.55121743370546E-06,6.15234375,0,0
-2.79951145785162E-05,3.86159172194311E-06,6.15234375,0,0
-2.79565265373094E-05,1.24253565445542E-05,6.15234375,0,0
-2.75682214123663E-05,9.246236004401E-06,6.15234375,0,0
-2.85383448499488E-05,9.41982489166548E-06,6.15234375,0,0
-2.92660915874876E-05,1.56007135956315E-05,6.15234375,0,0
-2.80589119938668E-05,1.14657814265229E-05,6.15234375,0,0
-2.74721769528696E-05,8.85786175786052E-06,6.15234375,0,0
-2.63463007286191E-05,1.62337746587582E-05,6.15234375,0,0
-2.85217211057898E-05,1.80340921360767E-05,6.15234375,0,0
-2.87208604277112E-05,9.81548419076717E-06,6.15234375,0,0
-2.88327628368279E-05,3.01623367704451E-06,6.15234375,0,0
-2.61834175034892E-05,2.3901498025225E-06,6.15234375,0,0
-2.62016583292279E-05,4.7035537136253E-06,6.15234375,0,0
-2.51459132414311E-05,6.29070564173162E-06,6.15234375,0,0
-2.5191307940986E-05,2.92221261588566E-06,6.15234375,0,0
-2.4624834622955E-05,-3.40841825163807E-06,6.15234375,0,0
-2.5549565179972E-05,-3.52013125848316E-06,6.15234375,0,0
-2.61021887126844E-05,7.13416397957189E-07,6.15234375,0,0
-2.54802471317817E-05,2.34293702305877E-06,6.15234375,0,0
-2.29363977268804E-05,3.16676528200333E-06,6.15234375,0,0
-2.04698153538629E-05,3.95723691326566E-06,6.15234375,0,0
-1.67596954270266E-05,3.40275619237218E-06,6.15234375,0,0
-2.58927866525482E-05,4.9691066124069E-06,6.15234375,0,0
-2.37393524002982E-05,1.22190374440834E-06,6.15234375,0,0
-2.87368293356849E-05,7.45853276384878E-06,6.15234375,0,0
-2.37562871916452E-05,1.67473717738176E-05,6.15234375,0,0
-2.4010420020204E-05,8.60290310811251E-06,6.15234375,0,0
-2.00635895453161E-05,3.83282258553663E-06,6.15234375,0,0
-1.94453386939131E-05,1.21428820420988E-05,6.15234375,0,0
-1.86788292921847E-05,9.62930243986193E-06,6.15234375,0,0
-1.94822896446567E-05,1.0239404218737E-05,6.15234375,0,0
-2.10561283893185E-05,1.88180729310261E-05,6.15234375,0,0
-2.2258956960286E-05,1.78418395080371E-05,6.15234375,0,0
-2.46478157350793E-05,1.54447079694364E-05,6.15234375,0,0
-2.48136420850642E-05,1.85939115908695E-05,6.15234375,0,0
-2.54058486461872E-05,1.37869519676315E-05,6.15234375,0,0
-2.40878198383143E-05,3.00178703582787E-06,6.15234375,0,0
-2.59680891758762E-05,1.06907327790395E-06,6.15234375,0,0
-2.69397187366849E-05,5.61083834327292E-06,6.15234375,0,0
-2.87201692117378E-05,1.02179974419414E-05,6.15234375,0,0
-2.82173259620322E-05,1.31189444800839E-05,6.15234375,0,0
-2.93142275040736E-05,1.37916167659569E-05,6.15234375,0,0
-2.92346685455414E-05,1.38853001772077E-05,6.15234375,0,0
-2.95709469355643E-05,1.53314376802882E-05,6.15234375,0,0
-2.80017593468074E-05,1.58585262397537E-05,6.15234375,0,0
-2.67403866018867E-05,1.51753092723084E-05,6.15234375,0,0
-2.66319239017321E-05,1.02638214229955E-05,6.15234375,0,0
-2.61065160884755E-05,3.35401182383066E-06,6.15234375,0,0
-2.05536362045677E-05,1.50396954268217E-06,6.15234375,0,0
-2.94884066533996E-05,4.75224715046352E-06,6.15234375,0,0
-2.34073904721299E-05,1.5231647694236E-06,6.15234375,0,0
-2.84275156445801E-05,4.38720826423378E-06,6.15234375,0,0
-2.15115105675068E-05,1.19300402730005E-05,6.15234375,0,0
-2.17940978473052E-05,-2.31482476920064E-06,6.15234375,0,0
-1.79337857844075E-05,-1.0937748811557E-05,6.15234375,0,0
-1.84111431735801E-05,-2.61169452642207E-06,6.15234375,0,0
-1.75342229340458E-05,2.30456430472259E-06,6.15234375,0,0
-1.69941486092284E-05,1.00132419902366E-05,6.15234375,0,0
-1.67577672982588E-05,1.74362976395059E-05,6.15234375,0,0
-1.58327784447465E-05,1.29691634356277E-05,6.15234375,0,0
-1.63356744451448E-05,9.48598426475655E-06,6.15234375,0,0
-1.56733040057588E-05,1.65915371326264E-05,6.15234375,0,0
-1.74654669535812E-05,1.63051536219427E-05,6.15234375,0,0
-1.64354823937174E-05,6.81110668665497E-06,6.15234375,0,0
-1.75116383616114E-05,1.72367231243697E-06,6.15234375,0,0
-1.72456584550673E-05,4.0295094549947E-06,6.15234375,0,0
-1.91767358046491E-05,8.24259768705815E-06,6.15234375,0,0
-1.81578761839774E-05,1.18804291560082E-05,6.15234375,0,0
-1.9451261323411E-05,1.17426980068558E-05,6.15234375,0,0
-2.00109952857019E-05,9.3610433395952E-06,6.15234375,0,0
-2.0365903765196E-05,1.08226131487754E-05,6.15234375,0,0
-1.92127445188817E-05,1.44526648000465E-05,6.15234375,0,0
-2.0047447833349E-05,1.74177821463672E-05,6.15234375,0,0
-2.20160291064531E-05,1.83994015969802E-05,6.15234375,0,0
-2.29759189096512E-05,1.8226226529805E-05,6.15234375,0,0
-1.92107017937815E-05,1.69752729561878E-05,6.15234375,0,0
-2.76649461738998E-05,2.81757093034685E-05,6.15234375,0,0
-2.22703965846449E-05,1.98209163499996E-05,6.15234375,0,0
-2.95821992040146E-05,2.34955405176152E-05,6.15234375,0,0
-2.77834842563607E-05,2.40818735619541E-05,6.15234375,0,0
-3.01874788419809E-05,1.08482445284608E-05,6.15234375,0,0
-2.70182390522677E-05,3.52424365246407E-07,6.15234375,0,0
-2.65267062786734E-05,9.41412963584298E-06,6.15234375,0,0
-2.414175105514E-05,9.86209124675952E-06,6.15234375,0,0
-2.42240494117141E-05,1.07936321001034E-05,6.15234375,0,0
-2.6078670998686E-05,1.41509881359525E-05,6.15234375,0,0
-2.68175117525971E-05,3.96964151150314E-06,6.15234375,0,0
-2.78473089565523E-05,-3.90764171243063E-06,6.15234375,0,0
-2.57390074693831E-05,2.30789822808219E-08,6.15234375,0,0
-2.56604125752347E-05,2.29344823310385E-06,6.15234375,0,0
-2.43476461037062E-05,-5.89318733545952E-06,6.15234375,0,0
-2.53715734288562E-05,-1.0732704140537E-05,6.15234375,0,0
-2.44075290538603E-05,-9.98544328467688E-06,6.15234375,0,0
-2.44428119913209E-05,-4.88363912154455E-06,6.15234375,0,0
-2.19694175029872E-05,-2.38466077462363E-06,6.15234375,0,0
-2.11493825190701E-05,-9.240942517863E-07,6.15234375,0,0
-2.05110427486943E-05,2.45864066528156E-06,6.15234375,0,0
-2.14614083233755E-05,1.11778945210972E-05,6.15234375,0,0
-2.04767329705646E-05,2.31120739044854E-05,6.15234375,0,0
-2.01913844648516E-05,3.10033428831957E-05,6.15234375,0,0
-2.08326418942306E-05,2.90315056190593E-05,6.15234375,0,0
-2.19464800466085E-05,2.54303668043576E-05,6.15234375,0,0
-1.92218030861113E-05,1.98716497834539E-05,6.15234375,0,0
-2.73902878689114E-05,3.29962349496782E-05,6.15234375,0,0
-1.91164435818791E-05,2.61153109022416E-05,6.15234375,0,0
-2.12343093153322E-05,2.95443878712831E-05,6.15234375,0,0
-1.73099924722919E-05,2.630378548929E-05,6.15234375,0,0
-2.21531445276923E-05,1.36362768898834E-05,6.15234375,0,0
-2.19796675082762E-05,8.66809023136739E-06,6.15234375,0,0
-2.23589286179049E-05,2.30764908337733E-05,6.15234375,0,0
-2.0327215679572E-05,1.99048954527825E-05,6.15234375,0,0
-2.08090750675183E-05,1.48605422509718E-05,6.15234375,0,0
-2.33303526329109E-05,1.53845248860307E-05,6.15234375,0,0
-2.48092019319301E-05,6.49439789413009E-06,6.15234375,0,0
-2.69183274212992E-05,6.51388461392344E-07,6.15234375,0,0
-2.65307517111069E-05,5.35818935532006E-06,6.15234375,0,0
-2.7669666451402E-05,7.32609714759747E-06,6.15234375,0,0
-2.70810687652556E-05,-5.83413815036238E-08,6.85546875,0,0
-2.8283400752116E-05,-2.54290353041142E-06,6.85546875,0,0
-2.64930768025806E-05,-4.39643372374121E-06,6.85546875,0,0
-2.63623114733491E-05,-5.69464782529394E-06,6.85546875,0,0
-2.55580489465501E-05,-6.38571555100498E-06,6.85546875,0,0
-2.61067052633734E-05,-1.36226458380406E-06,6.85546875,0,0
-2.51638703048229E-05,2.06241020350717E-06,6.85546875,0,0
-2.58245199802332E-05,3.7489558053494E-06,6.85546875,0,0
-2.56093717325712E-05,4.31839407610823E-06,6.85546875,0,0
-2.59140470006969E-05,7.82407732913271E-06,6.85546875,0,0
-2.62683588516666E-05,1.15159837150713E-05,6.85546875,0,0
-2.59316875599325E-05,1.36986627694569E-05,6.85546875,0,0
-1.91989693121286E-05,1.13054438770632E-05,6.85546875,0,0
-2.68911844614195E-05,1.8162088963436E-05,6.85546875,0,0
-2.11071819649078E-05,1.33996009026305E-05,6.85546875,0,0
-2.57876217801822E-05,2.34300332522253E-05,6.85546875,0,0
-2.05666510737501E-05,3.66081731044687E-05,6.85546875,0,0
-2.40011504502036E-05,3.60438716597855E-05,6.85546875,0,0
-2.23002552957041E-05,3.50471527781338E-05,6.85546875,0,0
-2.41504931182135E-05,4.41861411673017E-05,6.85546875,0,0
-2.28894332394702E-05,3.84717532142531E-05,6.85546875,0,0
-2.17238684854237E-05,3.22427367791533E-05,6.85546875,0,0
-2.12285049201455E-05,3.13130476570223E-05,6.85546875,0,0
-2.04007264983375E-05,2.27332293434301E-05,6.85546875,0,0
-2.20116817217786E-05,1.84467644430697E-05,6.85546875,0,0
-2.30934892897494E-05,2.22912549361354E-05,6.85546875,0,0
-2.75275215244619E-05,1.88423891813727E-05,6.85546875,0,0
-2.81784869002877E-05,4.76615377920098E-06,6.85546875,0,0
-2.77529452432645E-05,-3.47797026734042E-06,6.85546875,0,0
-2.34850522247143E-05,-3.61161187356629E-06,6.85546875,0,0
-2.25064086407656E-05,3.30488376221183E-07,6.85546875,0,0
-2.16603475564625E-05,2.26645397560787E-06,6.85546875,0,0
-2.32144793699263E-05,2.98041527457826E-06,6.85546875,0,0
-2.39183136727661E-05,3.61118145519868E-06,6.85546875,0,0
-2.4962704628706E-05,4.81984579892014E-06,6.85546875,0,0
-2.50430566666182E-05,4.11292694479926E-06,6.85546875,0,0
-2.59489097516052E-05,5.25730047229445E-06,6.85546875,0,0
-2.6318975869799E-05,5.59717136638938E-06,6.85546875,0,0
-2.70742002612678E-05,2.79929690805147E-06,6.85546875,0,0
-2.19401954382192E-05,-8.06019500032562E-07,6.85546875,0,0
-3.08723028865643E-05,1.06838649571728E-06,6.85546875,0,0
-2.26250067498768E-05,1.6022421505113E-06,6.85546875,0,0
-2.76201899396256E-05,3.83915130441892E-06,6.85546875,0,0
-2.32493857765803E-05,8.3889290181105E-06,6.85546875,0,0
-2.74127196462359E-05,-6.37292441751924E-06,6.85546875,0,0
-2.67149953288026E-05,-1.29228492369293E-05,6.85546875,0,0
-2.82400342257461E-05,6.3964813534767E-07,6.85546875,0,0
-2.69173469860107E-05,1.75158663751063E-06,6.85546875,0,0
-2.71509979938855E-05,1.85517558293213E-06,6.85546875,0,0
-2.82463352050399E-05,8.86757243279135E-06,6.85546875,0,0
-2.81228640233167E-05,8.34646107250592E-06,6.85546875,0,0
-2.82245109701762E-05,7.76178148953477E-06,6.85546875,0,0
-2.47465413849568E-05,1.70237763086334E-05,6.85546875,0,0
-2.43612721533282E-05,2.29493598453701E-05,6.85546875,0,0
-2.36318974202732E-05,2.12041613849578E-05,6.85546875,0,0
-2.56781295320252E-05,2.0692770704045E-05,6.85546875,0,0
-2.44531747739529E-05,2.23487695620861E-05,6.85546875,0,0
-2.41363231907599E-05,2.19373705476755E-05,6.85546875,0,0
-2.16670814552344E-05,1.95211014215602E-05,6.85546875,0,0
-2.24382638407405E-05,1.80693095899187E-05,6.85546875,0,0
-2.23120496229967E-05,1.91627823369345E-05,6.85546875,0,0
-2.1787078367197E-05,2.3797385438229E-05,6.85546875,0,0
-1.99202204385074E-05,2.89932377199875E-05,6.85546875,0,0
-1.92466450243955E-05,3.16814184770919E-05,6.85546875,0,0
-1.9857257939293E-05,3.00696137855994E-05,6.85546875,0,0
-2.21031386899995E-05,2.18503973883344E-05,6.85546875,0,0
-1.97663885046495E-05,1.2631673598662E-05,6.85546875,0,0
-2.65853923338E-05,1.82885178219294E-05,6.85546875,0,0
-1.77973761310568E-05,1.10343762571574E-05,6.85546875,0,0
-2.29208635573741E-05,1.67586113093421E-05,6.85546875,0,0
-2.02699720830424E-05,1.55565594468499E-05,6.85546875,0,0
-2.36965879594209E-05,-2.42393252847251E-06,6.85546875,0,0
-2.11503520404221E-05,-1.44072955663432E-05,6.85546875,0,0
-2.1028405171819E-05,-6.47516299068229E-06,6.85546875,0,0
-1.9183658878319E-05,-8.88218528416473E-06,6.85546875,0,0
-1.89767852134537E-05,-8.41508153825998E-06,6.85546875,0,0
-1.99164514924632E-05,-3.29172416968504E-06,6.85546875,0,0
-2.05820360861253E-05,-1.25321830637404E-05,6.85546875,0,0
-2.2913331122254E-05,-1.9986911865999E-05,6.85546875,0,0
-2.24128853005823E-05,-9.75258899416076E-06,6.85546875,0,0
-2.24385130422888E-05,2.88421733785071E-06,6.85546875,0,0
-1.97637018573005E-05,3.0492017231154E-06,6.85546875,0,0
-2.00676786334952E-05,2.42440728470683E-06,6.85546875,0,0
-1.87144960364094E-05,5.71843156649265E-06,6.85546875,0,0
-1.97474528249586E-05,1.19006626846385E-05,6.85546875,0,0
-2.01376587938285E-05,1.46449783642311E-05,6.85546875,0,0
-2.24619343498489E-05,1.78385180333862E-05,6.85546875,0,0
-2.22406597458757E-05,2.14653446164448E-05,6.85546875,0,0
-2.25325711653568E-05,2.23528331844136E-05,6.85546875,0,0
-2.22456274059368E-05,1.88829380931566E-05,6.85546875,0,0
-2.16995140362997E-05,1.99247806449421E-05,6.85546875,0,0
-2.0143701476627E-05,2.54167352977674E-05,6.85546875,0,0
-2.03878535103286E-05,3.18300953949802E-05,6.85546875,0,0
-1.86711640708381E-05,3.0333094400703E-05,6.85546875,0,0
-2.64905793301295E-05,4.65985285700299E-05,6.85546875,0,0
-1.95955744857201E-05,3.03632041322999E-05,6.85546875,0,0
-2.38204647757811E-05,3.21485058520921E-05,6.85546875,0,0
-1.9859398889821E-05,2.88370356429368E-05,6.85546875,0,0
-2.2161193555803E-05,1.909463571792E-05,6.85546875,0,0
-1.96274559129961E-05,8.35237460705685E-06,6.85546875,0,0
-1.92811548913596E-05,1.58645107148914E-05,6.85546875,0,0
-1.88866088137729E-05,8.5722203948535E-06,6.85546875,0,0
-2.03941926883999E-05,1.98815496332827E-06,6.85546875,0,0
-2.17047963815276E-05,3.16045770887285E-06,6.85546875,0,0
-2.216538086941E-05,-1.5401820974148E-07,6.85546875,0,0
-2.3790858904249E-05,2.08060237127938E-06,6.85546875,0,0
-2.32204365602229E-05,8.86877205630299E-06,6.85546875,0,0
-2.41364759858698E-05,8.54748122947058E-06,6.85546875,0,0
-2.37404765357496E-05,-3.90762033930514E-06,6.85546875,0,0
-2.5580558940419E-05,-6.16671013631276E-06,6.85546875,0,0
-2.44373732130043E-05,-1.8168316273659E-06,6.85546875,0,0
-2.42043588514207E-05,4.09625135944225E-06,6.85546875,0,0
-2.31706653721631E-05,2.213926791228E-06,6.85546875,0,0
-2.47688585659489E-05,2.50765128839703E-06,6.85546875,0,0
-2.48884807660943E-05,5.52566598344129E-06,6.85546875,0,0
-2.50966440944467E-05,1.21217235573567E-05,6.85546875,0,0
-2.33144455705769E-05,1.64586217579199E-05,6.85546875,0,0
-2.36937703448348E-05,2.1090374502819E-05,6.85546875,0,0
-2.57140563917346E-05,2.27069449465489E-05,6.85546875,0,0
-2.6220148356515E-05,1.96009386854712E-05,6.85546875,0,0
-2.05583037313772E-05,1.43501492857467E-05,6.85546875,0,0
-2.81682368949987E-05,2.61839359154692E-05,6.85546875,0,0
-2.07448756555095E-05,2.46314557443839E-05,6.85546875,0,0
-2.77359340543626E-05,3.12213560391683E-05,6.85546875,0,0
-2.50353677984094E-05,3.43230603903066E-05,6.85546875,0,0
-2.86415706796106E-05,2.37716303672642E-05,6.85546875,0,0
-2.64936843450414E-05,1.90726987057133E-05,6.85546875,0,0
-2.69360079983016E-05,3.44801192113664E-05,6.85546875,0,0
-2.54801980190678E-05,3.69495392078534E-05,6.85546875,0,0
-2.54037222475745E-05,3.32185045408551E-05,6.85546875,0,0
-2.51115434366511E-05,2.92273471131921E-05,6.85546875,0,0
-2.4390308681177E-05,1.59631581482245E-05,6.85546875,0,0
-2.43313515966292E-05,7.9924375313567E-06,6.85546875,0,0
-2.11212136491667E-05,1.05079925560858E-05,6.85546875,0,0
-2.12473114515888E-05,8.06299067335203E-06,6.85546875,0,0
-2.14277642953675E-05,-3.77830883735442E-06,6.85546875,0,0
-2.40713907260215E-05,-9.28794997889781E-06,6.85546875,0,0
-2.28054777835496E-05,-7.18903174856678E-06,6.85546875,0,0
-2.37488693528576E-05,-1.85211149528186E-06,6.85546875,0,0
-2.30273944907822E-05,-7.52023026961979E-07,6.85546875,0,0
-2.33083901548525E-05,-2.06189542950597E-06,6.85546875,0,0
-2.29795296036173E-05,-5.12544602315756E-06,6.85546875,0,0
-2.5409823138034E-05,-5.45234752280521E-06,6.85546875,0,0
-2.68265503109433E-05,-3.25317250826629E-06,6.85546875,0,0
-2.68332096311497E-05,3.25443636484124E-07,6.85546875,0,0
-2.52271001954796E-05,2.78866878034023E-06,6.85546875,0,0
-2.52367735811276E-05,4.37774815509329E-06,6.85546875,0,0
-2.22116304939846E-05,6.42532040728838E-06,6.85546875,0,0
-3.20471081067808E-05,1.35388445414719E-05,6.85546875,0,0
-2.43213689827826E-05,1.24368534670793E-05,6.85546875,0,0
-3.01092222798616E-05,1.753161814122E-05,6.85546875,0,0
-2.67315608653007E-05,2.37886833929224E-05,6.85546875,0,0
-2.98744671454187E-05,1.40738957270514E-05,6.85546875,0,0
-2.75803649856243E-05,1.05559129224275E-05,6.85546875,0,0
-2.85209298453992E-05,1.89060265256558E-05,6.85546875,0,0
-2.67163886746857E-05,1.30101125250803E-05,6.85546875,0,0
-2.55816976277856E-05,1.0981127161358E-05,6.85546875,0,0
-2.58919226325816E-05,1.86131528607802E-05,6.85546875,0,0
-2.53587968472857E-05,1.4899260349921E-05,6.85546875,0,0
-2.54983933700714E-05,9.20275761018274E-06,6.85546875,0,0
-2.32577895076247E-05,1.35568379846518E-05,6.85546875,0,0
-2.45156679739011E-05,1.52647317008814E-05,6.85546875,0,0
-2.50042012339691E-05,8.08186905487673E-06,6.85546875,0,0
-2.78744792012731E-05,2.20989386434667E-06,6.85546875,0,0
-2.75968486675993E-05,6.87622161876789E-07,7.91015625,0,0
-2.85540172626497E-05,2.73101454695279E-06,7.91015625,0,0
-2.69912252406357E-05,2.36967093769636E-06,7.91015625,0,0
-2.75195088761393E-05,-3.81926702175406E-06,7.91015625,0,0
-2.69250704150181E-05,-9.21383252716623E-06,7.91015625,0,0
-2.63259498751722E-05,-7.52261530578835E-06,7.91015625,0,0
-2.40992285398534E-05,-2.52607659234627E-08,7.91015625,0,0
-2.32107850024477E-05,6.64706203679089E-06,7.91015625,0,0
-2.29579673032276E-05,7.28746863387642E-06,7.91015625,0,0
-2.22367070819018E-05,7.5951516009809E-06,7.91015625,0,0
-1.771880670276E-05,7.4752924774657E-06,7.91015625,0,0
-2.52686550084036E-05,1.18403131637024E-05,7.91015625,0,0
-1.96370710909832E-05,6.27264671493322E-06,7.91015625,0,0
-2.3887982024462E-05,1.14024351205444E-05,7.91015625,0,0
-1.92364823305979E-05,1.5841056665522E-05,7.91015625,0,0
-2.09418703889241E-05,3.82629468731466E-06,7.91015625,0,0
-1.91225644812221E-05,-5.80001255912066E-07,7.91015625,0,0
-2.08129949896829E-05,1.13644264274626E-05,7.91015625,0,0
-2.03266881726449E-05,1.21409548228257E-05,7.91015625,0,0
-2.03082036023261E-05,1.49805200635456E-05,7.91015625,0,0
-2.15887830563588E-05,2.37196036323439E-05,7.91015625,0,0
-2.22421786020277E-05,1.93568102986319E-05,7.91015625,0,0
-2.2271140551311E-05,1.37559081849759E-05,7.91015625,0,0
-1.94463063962758E-05,1.90460395970149E-05,7.91015625,0,0
-2.04908155865269E-05,2.0609179046005E-05,7.91015625,0,0
-2.17372598854126E-05,1.33722824102733E-05,7.91015625,0,0
-2.47592925006757E-05,1.17817435238976E-05,7.91015625,0,0
-2.42578571487684E-05,1.8462627849658E-05,7.91015625,0,0
-2.42857149714837E-05,2.63501478912076E-05,7.91015625,0,0
-2.30195182666648E-05,2.76372284133686E-05,7.91015625,0,0
-2.3531149054179E-05,2.20237616304075E-05,7.91015625,0,0
-2.20948804781074E-05,1.31553406390594E-05,7.91015625,0,0
-2.19024641410215E-05,6.60739260638366E-06,7.91015625,0,0
-2.21821483137319E-05,2.34020217249054E-06,7.91015625,0,0
-2.27628606808139E-05,-7.79254378358019E-07,7.91015625,0,0
-2.2921836716705E-05,-3.00719057122478E-06,7.91015625,0,0
-2.30147488764487E-05,-2.59601029029E-06,7.91015625,0,0
-1.7705833670334E-05,4.22215407525073E-07,7.91015625,0,0
-2.52833906415617E-05,1.74798537955212E-06,7.91015625,0,0
-2.06335025723092E-05,-4.1493722164887E-06,7.91015625,0,0
-2.6385254386696E-05,-3.90462491850485E-06,7.91015625,0,0
-2.21584687096765E-05,4.08841469834442E-06,7.91015625,0,0
-2.2880385586177E-05,-8.11052177596139E-06,7.91015625,0,0
-1.89140591828618E-05,-1.39130806928733E-05,7.91015625,0,0
-1.9436269212747E-05,-4.10832853958709E-06,7.91015625,0,0
-1.79507987922989E-05,-5.05097887071315E-06,7.91015625,0,0
-1.66831869137241E-05,-8.31358920549974E-06,7.91015625,0,0
-1.68626247614156E-05,-6.6513025558379E-06,7.91015625,0,0
-1.67780999618117E-05,-9.28194731386611E-06,7.91015625,0,0
-1.7865309928311E-05,-8.54502195579698E-06,7.91015625,0,0
-1.70066869031871E-05,-8.32281330076512E-07,7.91015625,0,0
-1.77268047991674E-05,-6.14478722127387E-07,7.91015625,0,0
-1.69232098414795E-05,-4.25584312324645E-06,7.91015625,0,0
-1.89141428563744E-05,-1.51884947285907E-07,7.91015625,0,0
-1.94240692508174E-05,8.51120967126917E-06,7.91015625,0,0
-2.17028373299399E-05,1.23289264593041E-05,7.91015625,0,0
-2.20696001633769E-05,1.2330445315456E-05,7.91015625,0,0
-2.32876700465567E-05,1.16483734018402E-05,7.91015625,0,0
-2.27589753194479E-05,1.18621246656403E-05,7.91015625,0,0
-2.32510719797574E-05,1.43838824442355E-05,7.91015625,0,0
-2.35955521930009E-05,1.7110278349719E-05,7.91015625,0,0
-2.58630425378215E-05,2.03073213924654E-05,7.91015625,0,0
-2.81045522569912E-05,2.44030761678005E-05,7.91015625,0,0
-2.91312444460345E-05,2.58012933045393E-05,7.91015625,0,0
-2.35468942264561E-05,1.77531182998791E-05,7.91015625,0,0
-3.30901311826892E-05,2.39893815887626E-05,7.91015625,0,0
-2.43039921770105E-05,1.38450095619191E-05,7.91015625,0,0
-2.9522900149459E-05,2.23208735405933E-05,7.91015625,0,0
-2.49753338721348E-05,2.33308310271241E-05,7.91015625,0,0
-2.97367787425173E-05,1.31652905110968E-05,7.91015625,0,0
-2.73614714387804E-05,4.93802372147911E-06,7.91015625,0,0
-2.88119153992739E-05,1.44615696626715E-05,7.91015625,0,0
-2.78198785963468E-05,1.21586062959977E-05,7.91015625,0,0
-2.64627251453931E-05,1.1257397090958E-05,7.91015625,0,0
-2.5341290893266E-05,1.50563864735886E-05,7.91015625,0,0
-2.46176041400759E-05,8.39756648929324E-06,7.91015625,0,0
-2.69404354185099E-05,2.5587794425519E-06,7.91015625,0,0
-2.67676477960777E-05,6.19274578639306E-06,7.91015625,0,0
-2.82219043583609E-05,9.72924499365035E-06,7.91015625,0,0
-2.65883281826973E-05,4.81049619338592E-06,7.91015625,0,0
-2.73289042524993E-05,6.52876769891009E-06,7.91015625,0,0
-2.56229232036276E-05,1.19483902381035E-05,7.91015625,0,0
-2.72135275736218E-05,1.80579736479558E-05,7.91015625,0,0
-2.70067757810466E-05,2.16666430787882E-05,7.91015625,0,0
-2.8326312531135E-05,2.59378448390635E-05,7.91015625,0,0
-2.77847211691551E-05,2.3292606783798E-05,7.91015625,0,0
-2.71294320555171E-05,1.66698373504914E-05,7.91015625,0,0
-2.50165958277648E-05,1.56971236719983E-05,7.91015625,0,0
-2.5524755983497E-05,2.33384671446402E-05,7.91015625,0,0
