biceps_emg, triceps_emg, subject_position, position_estimate, brace_position
-2.3828171833884E-05,6.99952897775802E-06,1.93359375,0,0.00862881311360449
-2.11002115975134E-05,7.75453918322455E-06,1.93359375,0,0.00862881311360449
-2.15907075471478E-05,1.01140240076347E-05,1.93359375,0,0.00862881311360449
-2.11935130209895E-05,9.86306076811161E-06,1.93359375,0,0.00862881311360449
-2.2224068743526E-05,8.52473567647394E-06,1.93359375,0,0.00862881311360449
-2.1109441149747E-05,5.34457785761333E-06,1.93359375,0,0.00862881311360449
-2.13978728424991E-05,4.50333209300879E-06,1.93359375,0,0.00862881311360449
-2.11570040846709E-05,6.28695170235005E-06,1.93359375,0,0.00862881311360449
-2.33704631682485E-05,1.03551683423575E-05,1.93359375,0,0.00862881311360449
-2.49321692535887E-05,1.2329624951235E-05,1.93359375,0,0.00862881311360449
-2.55624272540445E-05,1.35279633468599E-05,1.93359375,0,0.00862881311360449
-2.43539361690637E-05,1.42074959512684E-05,1.93359375,0,0.00862881311360449
-2.32400052482262E-05,1.31051056087017E-05,1.93359375,0,0.00862881311360449
-1.92122897715308E-05,9.53468043007888E-06,1.93359375,0,0.00862881311360449
-2.77950639429037E-05,1.35419113576063E-05,1.93359375,0,0.00862881311360449
-2.069074253086E-05,1.02015646916698E-05,1.93359375,0,0.00862881311360449
-2.50255870923866E-05,1.15652665044763E-05,1.93359375,0,0.00862881311360449
-2.17391916521592E-05,8.75148361956235E-06,1.93359375,0,0.00862881311360449
-2.36314645007951E-05,1.13289434011676E-05,1.93359375,0,0.00862881311360449
-2.12481809285237E-05,1.1387736776669E-05,1.93359375,0,0.00862881311360449
-2.30463738262188E-05,1.24046136988909E-05,1.93359375,0,0.00862881311360449
-2.30729947361397E-05,1.17272529678303E-05,1.93359375,0,0.00862881311360449
-2.28939479711698E-05,8.74194665811956E-06,1.93359375,0,0.00862881311360449
-2.28680601139786E-05,5.62449895369355E-06,1.93359375,0,0.00862881311360449
-2.24886680371128E-05,5.56347958990955E-06,1.93359375,0,0.00862881311360449
-2.37227814068319E-05,9.75065086095128E-06,1.93359375,0,0.00862881311360449
-2.31195117521565E-05,1.27620796774863E-05,1.93359375,0,0.00862881311360449
-2.38059583352879E-05,1.36329917950206E-05,1.93359375,0,0.00862881311360449
-2.26830306928605E-05,1.09477368823718E-05,1.93359375,0,0.00862881311360449
-2.41271882259753E-05,8.66283789946465E-06,1.93359375,0,0.00862881311360449
-2.34921135415789E-05,6.5892304519366E-06,1.93359375,0,0.00862881311360449
-2.41251964325784E-05,7.87203498475719E-06,1.93359375,0,0.00862881311360449
-2.29940706049092E-05,8.94109325599857E-06,1.93359375,0,0.00862881311360449
-2.36881387536414E-05,9.11091501620831E-06,1.93359375,0,0.00862881311360449
-2.32190177484881E-05,8.3090044427081E-06,1.93359375,0,0.00862881311360449
-2.27228447329253E-05,9.62187459663255E-06,1.93359375,0,0.00862881311360449
-2.10558991966536E-05,1.19978194561554E-05,1.93359375,0,0.00862881311360449
-2.18493278225651E-05,1.38242430693936E-05,1.93359375,0,0.00862881311360449
-2.33626815315802E-05,1.29047111840919E-05,1.93359375,0,0.00862881311360449
-2.32729998970171E-05,9.93965568341082E-06,1.93359375,0,0.00862881311360449
-1.75707609741949E-05,6.688032499369E-06,1.93359375,0,0.00862881311360449
-2.54833212238736E-05,9.99149233393837E-06,1.93359375,0,0.00862881311360449
-2.13127459574025E-05,9.01914700079942E-06,1.93359375,0,0.00862881311360449
-2.72703055088641E-05,1.13309752123314E-05,1.93359375,0,0.00862881311360449
-2.45050778175937E-05,1.02100175354281E-05,1.93359375,0,0.00862881311360449
-2.74315443675732E-05,1.24793541544932E-05,1.93359375,0,0.00862881311360449
-2.50607899943134E-05,1.33899666252546E-05,1.93359375,0,0.00862881311360449
-2.66178321908228E-05,1.45747235364979E-05,1.93359375,0,0.00862881311360449
-2.6600600904203E-05,1.45647109093261E-05,1.93359375,0,0.00862881311360449
-2.6054654881591E-05,1.43844472404453E-05,1.93359375,0,0.00862881311360449
-2.5435912903049E-05,1.45199992402922E-05,1.93359375,0,0.00862881311360449
-2.48488686338533E-05,1.4809736967436E-05,1.93359375,0,0.00862881311360449
-2.56077964877477E-05,1.59641585923964E-05,1.93359375,0,0.00862881311360449
-2.38327738770749E-05,1.62727046699729E-05,1.93359375,0,0.00862881311360449
-2.35168572544353E-05,1.53852761286544E-05,1.93359375,0,0.00862881311360449
-2.23611441469984E-05,1.1694204658852E-05,1.93359375,0,0.00862881311360449
-2.4276110707433E-05,8.99434053280856E-06,1.93359375,0,0.00862881311360449
-2.3732342015137E-05,8.41895325720543E-06,1.93359375,0,0.00862881311360449
-2.36682008107891E-05,1.16381315820036E-05,1.93359375,0,0.00862881311360449
-2.23106435441878E-05,1.476420857216E-05,1.93359375,0,0.00862881311360449
-2.40493754972704E-05,1.66669342434034E-05,1.93359375,0,0.00862881311360449
-2.41318466578377E-05,1.67198613780783E-05,1.93359375,0,0.00862881311360449
-2.31890189752448E-05,1.54972894961247E-05,1.93359375,0,0.00862881311360449
-2.1746380298282E-05,1.26307459140662E-05,1.93359375,0,0.00862881311360449
-2.23805327550508E-05,8.79760955285747E-06,1.93359375,0,0.00862881311360449
-2.27992240979802E-05,6.90884371579159E-06,1.93359375,0,0.00862881311360449
-2.31088033615379E-05,1.01134164651739E-05,1.93359375,0,0.00862881311360449
-1.92058869288303E-05,1.06209345176467E-05,1.93359375,0,0.00862881311360449
-2.78022016573232E-05,1.37760916913976E-05,1.93359375,0,0.00862881311360449
-2.15689669857966E-05,8.7140633695526E-06,1.93359375,0,0.00862881311360449
-2.57461306318874E-05,1.12526167868054E-05,1.93359375,0,0.00862881311360449
-2.16280950553482E-05,1.02132044048631E-05,1.93359375,0,0.00862881311360449
-2.52106729021762E-05,1.33974099298939E-05,1.93359375,0,0.00862881311360449
-2.46918025368359E-05,1.14822178147733E-05,1.93359375,0,0.00862881311360449
-2.6727500880952E-05,1.18791358545423E-05,1.93359375,0,0.00862881311360449
-2.52925310633145E-05,1.40495822051889E-05,1.93359375,0,0.00862881311360449
-2.38201573665719E-05,1.63965596584603E-05,1.93359375,0,0.00862881311360449
-2.35439565585693E-05,1.79305952769937E-05,1.93359375,0,0.00862881311360449
-2.38945285673253E-05,2.05782271223143E-05,1.93359375,0,0.00862881311360449
-2.59120715782046E-05,2.43400827457663E-05,1.93359375,0,0.00862881311360449
-2.54446003964404E-05,2.36173655139282E-05,1.93359375,0,0.00862881311360449
-2.60499855357921E-05,1.97240842680912E-05,1.93359375,0,0.00862881311360449
-2.43154427153058E-05,1.33145276777213E-05,1.93359375,0,0.00862881311360449
-2.53008111030795E-05,1.10743421828374E-05,1.93359375,0,0.00862881311360449
-2.46685722231632E-05,1.20620352390688E-05,1.93359375,0,0.00862881311360449
-2.5117438781308E-05,1.56508613144979E-05,1.93359375,0,0.00862881311360449
-2.32222282647854E-05,1.55391098815016E-05,1.93359375,0,0.00862881311360449
-2.27159398491494E-05,1.35074787976919E-05,1.93359375,0,0.00862881311360449
-2.19207322516013E-05,9.7382990134065E-06,1.93359375,0,0.00862881311360449
-2.38702741626184E-05,7.18476803740487E-06,1.93359375,0,0.00862881311360449
-2.51877117989352E-05,6.04795695835492E-06,1.93359375,0,0.00862881311360449
-2.63467809418216E-05,6.94818891133764E-06,1.93359375,0,0.00862881311360449
-2.56654948316282E-05,8.18248918221798E-06,1.93359375,0,0.00862881311360449
-2.40099070651922E-05,9.574804607837E-06,1.93359375,0,0.00862881311360449
-1.7711377950036E-05,7.49746322981082E-06,1.93359375,0,0.00862881311360449
-2.55413106060587E-05,9.31940030568512E-06,1.93359375,0,0.00862881311360449
-2.07667017093627E-05,6.33810350336717E-06,1.93359375,0,0.00862881311360449
-2.5939267288777E-05,1.01161222119117E-05,1.93359375,0,0.00862881311360449
-2.2709744371241E-05,1.08438789538923E-05,1.93359375,0,0.00862881311360449
-2.67059695033822E-05,1.25883743749E-05,1.93359375,0,0.00862881311360449
-2.55648246820783E-05,8.3793329395121E-06,1.93359375,0,0.00862881311360449
-2.50150333158672E-05,5.16887121193577E-06,1.93359375,0,0.00862881311360449
-2.21353457163787E-05,3.56214650309994E-06,1.93359375,0,0.00862881311360449
-2.18055429286323E-05,4.78295487482683E-06,1.93359375,0,0.00862881311360449
-2.32319489441579E-05,8.46778766572243E-06,1.93359375,0,0.00862881311360449
-2.44468265009345E-05,1.24134858197067E-05,1.93359375,0,0.00862881311360449
-2.55356499110349E-05,1.37478391479817E-05,1.93359375,0,0.00862881311360449
-2.37171589105856E-05,1.11751605800237E-05,1.93359375,0,0.00862881311360449
-2.42004862229805E-05,1.1153546438436E-05,1.93359375,0,0.00862881311360449
-2.40889530687127E-05,1.25371761896531E-05,1.93359375,0,0.00862881311360449
-2.63452020590194E-05,1.44447349157417E-05,1.93359375,0,0.00862881311360449
-2.57976516877534E-05,1.29799800561159E-05,1.93359375,0,0.00862881311360449
-2.64509835687932E-05,1.09053180494811E-05,1.93359375,0,0.00862881311360449
-2.53916150541045E-05,8.57650138641475E-06,1.93359375,0,0.00862881311360449
-2.51379897235893E-05,8.04049977887189E-06,1.93359375,0,0.00862881311360449
-2.34952058235649E-05,7.89021487435093E-06,1.93359375,0,0.00862881311360449
-2.39935598074226E-05,8.47368301037932E-06,1.93359375,0,0.00862881311360449
-2.39139390032506E-05,7.81011112849228E-06,1.93359375,0,0.00862881311360449
-2.41925154114142E-05,6.48091418042895E-06,1.93359375,0,0.00862881311360449
-2.40307617787039E-05,4.85713235320873E-06,1.93359375,0,0.00862881311360449
-2.39418950513937E-05,3.81085078515753E-06,1.93359375,0,0.00862881311360449
-1.94729618669953E-05,3.69124154531164E-06,1.93359375,0,0.00862881311360449
-2.71421849902254E-05,4.68255848318222E-06,1.93359375,0,0.00862881311360449
-2.10916659852955E-05,1.7170856381199E-06,1.93359375,0,0.00862881311360449
-2.82372275250964E-05,4.97979272040538E-07,1.93359375,0,0.00862881311360449
-2.53340640483657E-05,2.17072988561995E-06,1.93359375,0,0.00862881311360449
-2.7506746846484E-05,7.68468908063369E-06,1.93359375,0,0.00862881311360449
-2.35654279094888E-05,8.13116275821812E-06,1.93359375,0,0.00862881311360449
-2.33218361245235E-05,8.36544495541602E-06,1.93359375,0,0.00862881311360449
-2.26143893087283E-05,1.01709993032273E-05,1.93359375,0,0.00862881311360449
-2.36839769058861E-05,1.27369303299929E-05,1.93359375,0,0.00862881311360449
-2.4526485503884E-05,1.34461288325838E-05,1.93359375,0,0.00862881311360449
-2.36862724705134E-05,1.2272956155357E-05,1.93359375,0,0.00862881311360449
-2.44111852225615E-05,1.21594111988088E-05,1.93359375,0,0.00862881311360449
-2.3653879907215E-05,1.11324206955032E-05,1.93359375,0,0.00862881311360449
-2.58776290138485E-05,9.57802330958657E-06,1.93359375,0,0.00862881311360449
-2.58274540101411E-05,8.10919027571799E-06,1.93359375,0,0.00862881311360449
-2.67937102762517E-05,9.88832562143216E-06,1.93359375,0,0.00862881311360449
-2.50092980422778E-05,1.21278808364877E-05,1.93359375,0,0.00862881311360449
-2.52933350566309E-05,1.254683775187E-05,1.93359375,0,0.00862881311360449
-2.39829769270727E-05,1.06698416857398E-05,1.93359375,0,0.00862881311360449
-2.46372746914858E-05,9.5706536740181E-06,1.93359375,0,0.00862881311360449
-2.42195128521416E-05,1.03149604910868E-05,1.93359375,0,0.00862881311360449
-2.54188016697299E-05,1.17575773401768E-05,1.93359375,0,0.00862881311360449
-2.68743824562989E-05,1.18811758511583E-05,1.93359375,0,0.00862881311360449
-2.82815817627124E-05,1.14903141366085E-05,1.93359375,0,0.00862881311360449
-2.72033939836547E-05,1.03357124316972E-05,1.93359375,0,0.00862881311360449
-2.63887577602873E-05,8.80724837770686E-06,1.93359375,0,0.00862881311360449
-2.08291585295228E-05,6.66891855871654E-06,1.93359375,0,0.00862881311360449
-2.93477387458552E-05,9.74837439571274E-06,1.93359375,0,0.00862881311360449
-2.25595558731584E-05,8.3642016761587E-06,1.93359375,0,0.00862881311360449
-2.87239163299091E-05,1.1159944733663E-05,1.93359375,0,0.00862881311360449
-2.40653826040216E-05,1.14345984911779E-05,1.93359375,0,0.00862881311360449
-2.65725666395156E-05,1.3166055396141E-05,1.93359375,0,0.00862881311360449
-2.42334590438986E-05,1.09145630631247E-05,1.93359375,0,0.00862881311360449
-2.53652324317954E-05,1.026882455335E-05,1.93359375,0,0.00862881311360449
-2.50566499744309E-05,1.06209863588447E-05,1.93359375,0,0.00862881311360449
-2.49299482675269E-05,1.21948824016727E-05,1.93359375,0,0.00862881311360449
-2.39236032939516E-05,1.31984525069129E-05,1.93359375,0,0.00862881311360449
-2.26131087401882E-05,1.23938898468623E-05,1.93359375,0,0.00862881311360449
-2.39313867496094E-05,1.04575156001374E-05,1.93359375,0,0.00862881311360449
-2.37440999626415E-05,8.10078654467361E-06,1.93359375,0,0.00862881311360449
-2.51068886427674E-05,8.21423782326747E-06,1.93359375,0,0.00862881311360449
-2.36550695262849E-05,7.90110152593115E-06,1.93359375,0,0.00862881311360449
-2.43385347857839E-05,8.54062363941921E-06,1.93359375,0,0.00862881311360449
-2.27390792133519E-05,9.12643008632585E-06,1.93359375,0,0.00862881311360449
-2.32372076425236E-05,9.01853218238102E-06,1.93359375,0,0.00862881311360449
-2.15211657632608E-05,6.09618109592702E-06,1.93359375,0,0.00862881311360449
-2.14197716559283E-05,5.28968394064577E-06,1.93359375,0,0.00862881311360449
-2.08643941732589E-05,6.74891316521098E-06,1.93359375,0,0.00862881311360449
-2.17657507164404E-05,9.16521548788296E-06,1.93359375,0,0.00862881311360449
-2.17981214518659E-05,1.10714818220004E-05,1.93359375,0,0.00862881311360449
-2.33637474593706E-05,1.15174325401313E-05,1.93359375,0,0.00862881311360449
-2.4359729650314E-05,9.66420975601068E-06,1.93359375,0,0.00862881311360449
-2.35369298025034E-05,7.68597328715259E-06,1.93359375,0,0.00862881311360449
-1.73076823557494E-05,6.68260918246233E-06,1.93359375,0,0.00862881311360449
-2.40343179029878E-05,9.20567890716484E-06,1.93359375,0,0.00862881311360449
-1.84888176590903E-05,6.10110100751626E-06,1.93359375,0,0.00862881311360449
-2.44283037318382E-05,7.79112724558217E-06,1.93359375,0,0.00862881311360449
-2.09786212508334E-05,7.93004528532038E-06,1.93359375,0,0.00862881311360449
-2.1861475033802E-05,1.04847740658442E-05,1.93359375,0,0.00862881311360449
-1.85783428605646E-05,9.55097584665054E-06,1.93359375,0,0.00862881311360449
-2.01725542865461E-05,8.70155781740323E-06,1.93359375,0,0.00862881311360449
-2.08296023629373E-05,9.09317532205023E-06,1.93359375,0,0.00862881311360449
-2.14221563510364E-05,1.00911120171077E-05,1.93359375,0,0.00862881311360449
-2.27544278459391E-05,1.10324235720327E-05,1.93359375,0,0.00862881311360449
-2.33464143093443E-05,1.063295530912E-05,1.93359375,0,0.00862881311360449
-2.4328443032573E-05,9.61748355621239E-06,1.93359375,0,0.00862881311360449
-2.34528433793457E-05,8.97217068995815E-06,1.93359375,0,0.00862881311360449
-2.44769507844467E-05,1.07707164715976E-05,1.93359375,0,0.00862881311360449
-2.40117024077335E-05,1.11347244455828E-05,1.93359375,0,0.00862881311360449
-2.57004467130173E-05,1.00713868960156E-05,1.93359375,0,0.00862881311360449
-2.42901678575436E-05,8.20253899291856E-06,1.93359375,0,0.00862881311360449
-2.36790292547084E-05,8.43316956888884E-06,1.93359375,0,0.00862881311360449
-2.21321788558271E-05,9.22327126318123E-06,1.93359375,0,0.00862881311360449
-2.30339192057727E-05,1.06025572677027E-05,1.93359375,0,0.00862881311360449
-2.41209254454589E-05,1.13628320832504E-05,1.93359375,0,0.00862881311360449
-2.55914765148191E-05,1.24882908494328E-05,1.93359375,0,0.00862881311360449
-2.45946703216759E-05,1.3131097148289E-05,1.93359375,0,0.00862881311360449
-2.43846989178564E-05,1.26182512758533E-05,1.93359375,0,0.00862881311360449
-2.4285387553391E-05,1.16864875963074E-05,1.93359375,0,0.00862881311360449
-2.35962615988683E-05,1.20790100481827E-05,1.93359375,0,0.00862881311360449
-1.81148934643716E-05,1.14304984890623E-05,1.93359375,0,0.00862881311360449
-2.50731409323635E-05,1.52065904330811E-05,1.93359375,0,0.00862881311360449
-1.90476912393933E-05,7.69742382544791E-06,1.93359375,0,0.00862881311360449
-2.4834862415446E-05,7.07683966538752E-06,1.93359375,0,0.00862881311360449
-2.02003793674521E-05,5.53733752894914E-06,1.93359375,0,0.00862881311360449
-2.10584439628292E-05,1.08505455500563E-05,1.93359375,0,0.00862881311360449
-1.84886521310546E-05,1.26350578284473E-05,1.93359375,0,0.00862881311360449
-1.94462700164877E-05,1.50798396134633E-05,1.93359375,0,0.00862881311360449
-1.92898642126238E-05,1.40494121296797E-05,1.93359375,0,0.00862881311360449
-1.98832130990922E-05,1.05513236121624E-05,1.93359375,0,0.00862881311360449
-1.99112200789386E-05,7.93069375504274E-06,1.93359375,0,0.00862881311360449
-1.89717320608906E-05,8.73041608429048E-06,1.93359375,0,0.00862881311360449
-2.02379378606565E-05,1.24767284432892E-05,1.93359375,0,0.00862881311360449
-2.07367884286214E-05,1.3969040082884E-05,1.93359375,0,0.00862881311360449
-2.2345235265675E-05,1.45642279676395E-05,1.93359375,0,0.00862881311360449
-2.09222271223553E-05,1.27767470985418E-05,1.93359375,0,0.00862881311360449
-2.14821866393322E-05,1.27942776089185E-05,1.93359375,0,0.00862881311360449
-2.04101615963737E-05,1.23356039694045E-05,1.93359375,0,0.00862881311360449
-2.1366455257521E-05,1.29737391034723E-05,1.93359375,0,0.00862881311360449
-2.15090294659603E-05,1.22095962069579E-05,1.93359375,0,0.00862881311360449
-2.34138988162158E-05,1.19817186714499E-05,1.93359375,0,0.00862881311360449
-2.33759383263532E-05,1.11181543616112E-05,1.93359375,0,0.00862881311360449
-2.39413930103183E-05,1.21084303827956E-05,1.93359375,0,0.00862881311360449
-2.38621578318998E-05,1.32579034470837E-05,1.93359375,0,0.00862881311360449
-2.45844712480903E-05,1.42371827678289E-05,1.93359375,0,0.00862881311360449
-2.46251329372171E-05,1.3017072888033E-05,1.93359375,0,0.00862881311360449
-2.45219580392586E-05,9.8484342743177E-06,1.93359375,0,0.00862881311360449
-1.97508816199843E-05,4.91024229631876E-06,1.93359375,0,0.00862881311360449
-2.80500553344609E-05,6.30271688351058E-06,1.93359375,0,0.00862881311360449
-2.17751094169216E-05,7.14321549821761E-06,1.93359375,0,0.00862881311360449
-2.74189969786676E-05,1.19509522846784E-05,1.93359375,0,0.00862881311360449
-2.3939106540638E-05,1.17331383080455E-05,1.93359375,0,0.00862881311360449
-2.75661204796052E-05,1.41876480483916E-05,1.93359375,0,0.00862881311360449
-2.52102690865286E-05,1.45105695992243E-05,1.93359375,0,0.00862881311360449
-2.49346503551351E-05,1.4666143215436E-05,1.93359375,0,0.00862881311360449
-2.37192871281877E-05,1.38959994728793E-05,1.93359375,0,0.00862881311360449
-2.41639572777785E-05,1.40125721372897E-05,1.93359375,0,0.00862881311360449
-2.4645974917803E-05,1.39379653774085E-05,1.93359375,0,0.00862881311360449
-2.52036370511632E-05,1.18913694677758E-05,1.93359375,0,0.00862881311360449
-2.79263913398609E-05,9.80792356131133E-06,1.93359375,0,0.00862881311360449
-2.77643248409731E-05,8.67790276970482E-06,1.93359375,0,0.00862881311360449
-2.82969067484373E-05,9.92371587926755E-06,1.93359375,0,0.00862881311360449
-2.61900167970452E-05,1.0617643056321E-05,1.93359375,0,0.00862881311360449
-2.71199114649789E-05,1.07420419226401E-05,1.93359375,0,0.00862881311360449
-2.70963337243302E-05,9.38083758228458E-06,1.93359375,0,0.00862881311360449
-2.87658676825231E-05,1.05555427580839E-05,1.93359375,0,0.00862881311360449
-2.76189603027888E-05,1.27055927805486E-05,1.93359375,0,0.00862881311360449
-2.7538533686311E-05,1.47276114148553E-05,1.93359375,0,0.00862881311360449
-2.6135803636862E-05,1.37212837216794E-05,1.93359375,0,0.00862881311360449
-2.6716335923993E-05,1.04306609500782E-05,1.93359375,0,0.00862881311360449
-2.7360942112864E-05,7.55748988012783E-06,1.93359375,0,0.00862881311360449
-2.74486465059454E-05,6.6954471549252E-06,1.93359375,0,0.00862881311360449
-2.7136855351273E-05,7.83737141318852E-06,1.93359375,0,0.00862881311360449
-2.88258070213487E-05,1.03028705780162E-05,1.93359375,0,0.00862881311360449
-2.36916457652114E-05,9.11272945813835E-06,1.93359375,0,0.00862881311360449
-3.14331955451053E-05,1.12641164378147E-05,1.93359375,0,0.00862881311360449
-2.06503136723768E-05,4.22975244873669E-06,1.93359375,0,0.00862881311360449
-2.62660068983678E-05,4.9145714910992E-06,1.93359375,0,0.00862881311360449
-2.097884498653E-05,6.9078205342521E-06,1.93359375,0,0.00862881311360449
-2.42401292780414E-05,1.44692976391525E-05,1.93359375,0,0.00862881311360449
-2.18901623156853E-05,1.50217792906915E-05,1.93359375,0,0.00862881311360449
-2.35685056395596E-05,1.29073159769177E-05,1.93359375,0,0.00862881311360449
-2.24931663979078E-05,1.01182013168E-05,1.93359375,0,0.00862881311360449
-2.19383819057839E-05,8.39139647723641E-06,1.93359375,0,0.00862881311360449
-2.06441236514365E-05,7.66603716328973E-06,1.93359375,0,0.00862881311360449
-1.74089727806859E-05,7.59235763325705E-06,1.93359375,0,0.00862881311360449
-1.73480875673704E-05,8.85906320036156E-06,1.93359375,0,0.00862881311360449
-1.65888013725635E-05,8.14784652902745E-06,1.93359375,0,0.00862881311360449
-1.82953590410762E-05,7.59582326281816E-06,1.93359375,0,0.00862881311360449
-1.7922649931279E-05,6.65949119138531E-06,1.93359375,0,0.00862881311360449
-2.19182911678217E-05,7.98059681983432E-06,1.93359375,0,0.00862881311360449
-2.33218725043116E-05,9.02599094843026E-06,1.93359375,0,0.00862881311360449
-2.58226646110415E-05,1.0578472938505E-05,1.93359375,0,0.00862881311360449
-2.45879036810948E-05,1.06424649857217E-05,1.93359375,0,0.00862881311360449
-2.32960537687177E-05,1.08643134808517E-05,1.93359375,0,0.00862881311360449
-2.04465559363598E-05,1.14596850835369E-05,1.93359375,0,0.00862881311360449
-2.07733737624949E-05,1.44910572998924E-05,1.93359375,0,0.00862881311360449
-2.13459934457205E-05,1.71289830177557E-05,1.93359375,0,0.00862881311360449
-2.21808968490222E-05,1.85821554623544E-05,1.93359375,0,0.00862881311360449
-2.19762205233565E-05,1.88769772648811E-05,1.93359375,0,0.00862881311360449
-2.32791899179574E-05,1.72336876858026E-05,1.93359375,0,0.00862881311360449
-1.97698736883467E-05,1.10184446384665E-05,1.93359375,0,0.00862881311360449
-2.69785268756095E-05,1.35815816975082E-05,1.93359375,0,0.00862881311360449
-1.98880406969693E-05,9.13396706891945E-06,1.93359375,0,0.00862881311360449
-2.58785457845079E-05,1.35915825012489E-05,1.93359375,0,0.00862881311360449
-2.14914362004492E-05,1.04518921943964E-05,1.93359375,0,0.00862881311360449
-2.36864925682312E-05,1.10386372398352E-05,1.93359375,0,0.00862881311360449
-2.16472762986086E-05,9.13795884116553E-06,1.93359375,0,0.00862881311360449
-2.37430813285755E-05,9.96491417026846E-06,1.93359375,0,0.00862881311360449
-2.4632574422867E-05,1.01139094113023E-05,1.93359375,0,0.00862881311360449
-2.50935790973017E-05,1.07561781987897E-05,1.93359375,0,0.00862881311360449
-2.52456211455865E-05,1.1474902748887E-05,1.93359375,0,0.00862881311360449
-2.46383297053399E-05,1.24386106108432E-05,1.93359375,0,0.00862881311360449
-2.57020765275229E-05,1.44949299283326E-05,1.93359375,0,0.00862881311360449
-2.49196964432485E-05,1.54608933371492E-05,1.93359375,0,0.00862881311360449
-2.60295091720764E-05,1.71434621734079E-05,1.93359375,0,0.00862881311360449
-2.53605558100389E-05,1.56904188770568E-05,1.93359375,0,0.00862881311360449
-2.714936817938E-05,1.47011442095391E-05,1.93359375,0,0.00862881311360449
-2.69162101176335E-05,1.18748966997373E-05,1.93359375,0,0.00862881311360449
-2.85918940789998E-05,9.74562408373458E-06,1.93359375,0,0.00862881311360449
-2.7920797947445E-05,7.55085966375191E-06,1.93359375,0,0.00862881311360449
-2.75480069831247E-05,7.98256587586366E-06,1.93359375,0,0.00862881311360449
-2.48758642555913E-05,7.36221772967838E-06,1.93359375,0,0.00862881311360449
-2.48578744503902E-05,7.3566397986724E-06,1.93359375,0,0.00862881311360449
-2.51157543971203E-05,7.9872561400407E-06,1.93359375,0,0.00862881311360449
-2.47703792410903E-05,8.29066084406804E-06,1.93359375,0,0.00862881311360449
-2.51356905209832E-05,7.10079621057957E-06,1.93359375,0,0.00862881311360449
-2.59168846241664E-05,6.82989048073068E-06,1.93359375,0,0.00862881311360449
-2.04344996745931E-05,6.42575969322934E-06,1.93359375,0,0.00862881311360449
-2.82254823105177E-05,8.93559172254754E-06,1.93359375,0,0.00862881311360449
-2.08644414669834E-05,5.63079584026127E-06,1.93359375,0,0.00862881311360449
-2.6923244149657E-05,5.05206435263972E-06,1.93359375,0,0.00862881311360449
-2.33998162002536E-05,3.43929082191607E-06,1.93359375,0,0.00862881311360449
-2.59697935689474E-05,7.25935524314991E-06,1.93359375,0,0.00862881311360449
-2.2130379875307E-05,1.00726583696087E-05,1.93359375,0,0.00862881311360449
-2.12976574403001E-05,1.26402928799507E-05,1.93359375,0,0.00862881311360449
-1.98201269085985E-05,1.33057119455771E-05,1.93359375,0,0.00862881311360449
-2.04130010388326E-05,1.17053941721679E-05,1.93359375,0,0.00862881311360449
-2.08711608138401E-05,9.49061450228328E-06,1.93359375,0,0.00862881311360449
-2.07570756174391E-05,8.17284762888448E-06,1.93359375,0,0.00862881311360449
-2.20674119191244E-05,8.76206740940688E-06,1.93359375,0,0.00862881311360449
-2.04363677767105E-05,9.24834512261441E-06,1.93359375,0,0.00862881311360449
-2.10375383176142E-05,9.93553840089589E-06,1.93359375,0,0.00862881311360449
-2.0100374968024E-05,9.17048146220623E-06,1.93359375,0,0.00862881311360449
-2.12241429835558E-05,8.90157934918534E-06,1.93359375,0,0.00862881311360449
-1.95415177586256E-05,8.3612758317031E-06,1.93359375,0,0.00862881311360449
-1.99458154384047E-05,9.14489646675065E-06,1.93359375,0,0.00862881311360449
-1.89004658750491E-05,1.0175724128203E-05,1.93359375,0,0.00862881311360449
-1.97591634787386E-05,1.1554056982277E-05,1.93359375,0,0.00862881311360449
-1.89681668416597E-05,1.07983732959838E-05,1.93359375,0,0.00862881311360449
-1.99546393560013E-05,9.90660100796958E-06,1.93359375,0,0.00862881311360449
-2.06805034395074E-05,1.06022553154617E-05,1.93359375,0,0.00862881311360449
-2.17246488318779E-05,1.18794787340448E-05,1.93359375,0,0.00862881311360449
-2.19860194192734E-05,1.23130384963588E-05,1.93359375,0,0.00862881311360449
-2.25400126510067E-05,1.08573212855845E-05,1.93359375,0,0.00862881311360449
-2.00353606487624E-05,6.9430652729352E-06,1.93359375,0,0.00862881311360449
-2.90805164695485E-05,9.08117272047093E-06,1.93359375,0,0.00862881311360449
-2.26602060138248E-05,7.13473036739742E-06,1.93359375,0,0.00862881311360449
-2.80747317447094E-05,1.12977368189604E-05,1.93359375,0,0.00862881311360449
-2.39755299844546E-05,1.20222666737391E-05,1.93359375,0,0.00862881311360449
-2.57158226304455E-05,1.45165313369944E-05,1.93359375,0,0.00862881311360449
-2.35931565839564E-05,1.26787390399841E-05,1.93359375,0,0.00862881311360449
-2.51531528192572E-05,1.15703305709758E-05,1.93359375,0,0.00862881311360449
-2.51058827416273E-05,1.15380880743032E-05,1.93359375,0,0.00862881311360449
-2.50687862717314E-05,1.26317718240898E-05,1.93359375,0,0.00862881311360449
-2.51674664468737E-05,1.39088588184677E-05,1.93359375,0,0.00862881311360449
-2.45526953221997E-05,1.41213095048442E-05,1.93359375,0,0.00862881311360449
-2.53880225500325E-05,1.33055609694566E-05,1.93359375,0,0.00862881311360449
-2.38424217968713E-05,1.11994058897835E-05,1.93359375,0,0.00862881311360449
-2.40738518186845E-05,1.1975978850387E-05,1.93359375,0,0.00862881311360449
-2.25610874622362E-05,1.31361020976328E-05,1.93359375,0,0.00862881311360449
-2.3413575036102E-05,1.37511560751591E-05,1.93359375,0,0.00862881311360449
-2.27049749810249E-05,1.31804372358602E-05,1.93359375,0,0.00862881311360449
-2.32569655054249E-05,1.50655332618044E-05,1.93359375,0,0.00862881311360449
-2.17553879338084E-05,1.59811570483726E-05,1.93359375,0,0.00862881311360449
-2.23755432671169E-05,1.54301360453246E-05,1.93359375,0,0.00862881311360449
-2.22806284000399E-05,1.3835930985806E-05,1.93359375,0,0.00862881311360449
-2.37843087234069E-05,1.31820215756306E-05,1.93359375,0,0.00862881311360449
-2.37693748204038E-05,1.2554160093714E-05,1.93359375,0,0.00862881311360449
-2.28687931667082E-05,1.29238214867655E-05,1.93359375,0,0.00862881311360449
-2.25691001105588E-05,1.42810531542636E-05,1.93359375,0,0.00862881311360449
-2.32843995036092E-05,1.38030027301284E-05,1.93359375,0,0.00862881311360449
-1.92107690963894E-05,1.02068752312334E-05,1.93359375,0,0.00862881311360449
-2.67449941020459E-05,1.55706093210028E-05,1.93359375,0,0.00862881311360449
-1.92880706890719E-05,1.25831020341138E-05,1.93359375,0,0.00862881311360449
-2.38966295000864E-05,1.23004710985697E-05,1.93359375,0,0.00862881311360449
-2.04822845262242E-05,6.25724851488485E-06,1.93359375,0,0.00862881311360449
-2.48824180744123E-05,5.01056319990312E-06,1.93359375,0,0.00862881311360449
-2.4560422389186E-05,2.76006653621153E-06,1.93359375,0,0.00862881311360449
-2.60993147094268E-05,4.59602279079263E-06,1.93359375,0,0.00862881311360449
-2.48627675318858E-05,6.57799682812765E-06,1.93359375,0,0.00862881311360449
-2.36465657508234E-05,6.27532472208259E-06,1.93359375,0,0.00862881311360449
-2.4085929908324E-05,4.18154877479537E-06,1.93359375,0,0.00862881311360449
-2.47477437369525E-05,4.00708313463838E-06,1.93359375,0,0.00862881311360449
-2.61908735410543E-05,6.04506658419268E-06,1.93359375,0,0.00862881311360449
-2.52180161623983E-05,6.42505210635136E-06,1.93359375,0,0.00862881311360449
-2.6164552764385E-05,6.56363727102871E-06,1.93359375,0,0.00862881311360449
-2.55004542850656E-05,4.58516296930611E-06,1.93359375,0,0.00862881311360449
-2.69014108198462E-05,3.81984364139498E-06,1.93359375,0,0.00862881311360449
-2.62008761637844E-05,2.12436566471297E-06,1.93359375,0,0.00862881311360449
-2.74652502412209E-05,1.93995060726593E-06,1.93359375,0,0.00862881311360449
-2.66677288891515E-05,3.43288002113695E-06,1.93359375,0,0.00862881311360449
-2.66018578258809E-05,7.63758544053417E-06,1.93359375,0,0.00862881311360449
-2.48930973612005E-05,1.06847401184496E-05,1.93359375,0,0.00862881311360449
-2.45995361183304E-05,1.3211123587098E-05,1.93359375,0,0.00862881311360449
-2.38419888773933E-05,1.38874738695449E-05,1.93359375,0,0.00862881311360449
-2.43445065279957E-05,1.40604370244546E-05,1.93359375,0,0.00862881311360449
-2.50280972977635E-05,1.20287850222667E-05,1.93359375,0,0.00862881311360449
-2.55528575507924E-05,8.08253571449313E-06,1.93359375,0,0.00862881311360449
-2.055664845102E-05,3.55240035787574E-06,1.93359375,0,0.00862881311360449
-2.84334910247708E-05,6.6006432462018E-06,1.93359375,0,0.00862881311360449
-2.11239021155052E-05,1.00533716249629E-05,1.93359375,0,0.00862881311360449
-2.63378242379986E-05,1.47235141412239E-05,1.93359375,0,0.00862881311360449
-2.02226492547197E-05,1.51828480738914E-05,1.93359375,0,0.00862881311360449
-2.18649092857959E-05,1.55205434566597E-05,1.93359375,0,0.00862881311360449
-2.03190847969381E-05,1.42364615385304E-05,1.93359375,0,0.00862881311360449
-2.34365870710462E-05,1.33858047774993E-05,1.93359375,0,0.00862881311360449
-2.34516628552228E-05,1.29993995869881E-05,1.93359375,0,0.00862881311360449
-2.27399123104988E-05,1.38235191116109E-05,1.93359375,0,0.00862881311360449
-2.24054583668476E-05,1.24186590255704E-05,1.93359375,0,0.00862881311360449
-2.17488086491358E-05,1.1178892236785E-05,1.93359375,0,0.00862881311360449
-2.25960757234134E-05,1.21009152280749E-05,1.93359375,0,0.00862881311360449
-2.1051659132354E-05,1.30216394609306E-05,1.93359375,0,0.00862881311360449
-2.21671016333858E-05,1.25638889585389E-05,1.93359375,0,0.00862881311360449
-2.20541896851501E-05,1.00530924100894E-05,1.93359375,0,0.00862881311360449
-2.49557670031209E-05,8.71997690410353E-06,1.93359375,0,0.00862881311360449
-2.5312456273241E-05,7.8975854194141E-06,1.93359375,0,0.00862881311360449
-2.66859769908478E-05,7.07341268935124E-06,1.93359375,0,0.00862881311360449
-2.54345632129116E-05,5.52237588635762E-06,1.93359375,0,0.00862881311360449
-2.5869905584841E-05,7.03328078088816E-06,1.93359375,0,0.00862881311360449
-2.4627030143165E-05,1.04390264823451E-05,1.93359375,0,0.00862881311360449
-2.43646227318095E-05,1.36262933665421E-05,1.93359375,0,0.00862881311360449
-2.45654646278126E-05,1.49933193824836E-05,1.93359375,0,0.00862881311360449
-2.60485667240573E-05,1.56598598550772E-05,1.93359375,0,0.00862881311360449
-2.63832898781402E-05,1.67529724421911E-05,1.93359375,0,0.00862881311360449
-2.68773073912598E-05,1.62157157319598E-05,1.93359375,0,0.00862881311360449
-2.27448654186446E-05,1.05990529846167E-05,1.93359375,0,0.00862881311360449
-3.17814701702446E-05,1.40634920171578E-05,1.93359375,0,0.00862881311360449
-2.36245978157967E-05,1.17272757051978E-05,1.93359375,0,0.00862881311360449
-2.9427796107484E-05,1.65113942784956E-05,1.93359375,0,0.00862881311360449
-2.45631363213761E-05,1.24338375826483E-05,1.93359375,0,0.00862881311360449
-2.8483065761975E-05,1.28711071738508E-05,1.93359375,0,0.00862881311360449
-2.69416159426328E-05,1.11257386379293E-05,1.93359375,0,0.00862881311360449
-2.77228482445935E-05,1.19431433631689E-05,1.93359375,0,0.00862881311360449
-2.52783502219245E-05,1.23660583994933E-05,1.93359375,0,0.00862881311360449
-2.38196225836873E-05,1.2070668162778E-05,1.93359375,0,0.00862881311360449
-2.41175912378822E-05,1.00539664344979E-05,1.93359375,0,0.00862881311360449
-2.401872734481E-05,6.5000217546185E-06,1.93359375,0,0.00862881311360449
-2.45672581513645E-05,5.38309086550726E-06,1.93359375,0,0.00862881311360449
-2.20600431930507E-05,6.17166551819537E-06,1.93359375,0,0.00862881311360449
-2.15407071664231E-05,9.10417384147877E-06,1.93359375,0,0.00862881311360449
-1.94818167074118E-05,9.52588379732333E-06,1.93359375,0,0.00862881311360449
-2.16750231629703E-05,1.00990764622111E-05,1.93359375,0,0.00862881311360449
-2.21926493395586E-05,9.39082929107826E-06,1.93359375,0,0.00862881311360449
-2.36167361435946E-05,1.10826304080547E-05,1.93359375,0,0.00862881311360449
-2.16666721826186E-05,1.168330800283E-05,1.93359375,0,0.00862881311360449
-2.16859934880631E-05,1.1833498319902E-05,1.93359375,0,0.00862881311360449
-2.05358337552752E-05,9.75455259322189E-06,1.93359375,0,0.00862881311360449
-2.07842458621599E-05,6.15955423199921E-06,1.93359375,0,0.00862881311360449
-2.11607930395985E-05,2.61842615145724E-06,1.93359375,0,0.00862881311360449
-2.31387712119613E-05,2.90633056465595E-06,1.93359375,0,0.00862881311360449
-2.41286943492014E-05,4.58975455330801E-06,1.93359375,0,0.00862881311360449
-2.3856695406721E-05,5.50940376342623E-06,1.93359375,0,0.00862881311360449
-1.8684311726247E-05,6.15593080510735E-06,1.93359375,0,0.00862881311360449
-2.67423929471988E-05,1.18346415547421E-05,1.93359375,0,0.00862881311360449
-2.13785406231182E-05,1.33983239720692E-05,1.93359375,0,0.00862881311360449
-2.65518392552622E-05,1.50348632814712E-05,1.93359375,0,0.00862881311360449
-2.19907669816166E-05,1.17761037472519E-05,1.93359375,0,0.00862881311360449
-2.42865899053868E-05,1.01334635473904E-05,1.93359375,0,0.00862881311360449
-2.31037120101973E-05,8.92811931407778E-06,1.93359375,0,0.00862881311360449
-2.5228224330931E-05,8.81249070516787E-06,1.93359375,0,0.00862881311360449
-2.49712757067755E-05,8.57405848364579E-06,1.93359375,0,0.00862881311360449
-2.46306444751099E-05,6.73825888952706E-06,1.93359375,0,0.00862881311360449
-2.47496773226885E-05,5.31110981683014E-06,1.93359375,0,0.00862881311360449
-2.41432717302814E-05,4.54353221357451E-06,1.93359375,0,0.00862881311360449
-2.44185612245929E-05,5.36248808202799E-06,1.93359375,0,0.00862881311360449
-2.27673626795877E-05,7.06185483068111E-06,1.93359375,0,0.00862881311360449
-2.44015500356909E-05,8.17203181213699E-06,1.93359375,0,0.00862881311360449
-2.51809942710679E-05,7.8152515925467E-06,1.93359375,0,0.00862881311360449
-2.74225767498137E-05,7.96266522229416E-06,1.93359375,0,0.00862881311360449
-2.61349177890224E-05,8.47649880597601E-06,1.93359375,0,0.00862881311360449
-2.59707376244478E-05,1.11391436803387E-05,1.93359375,0,0.00862881311360449
-2.45004976022756E-05,1.41706004797015E-05,1.93359375,0,0.00862881311360449
-2.55595059570624E-05,1.48804483615095E-05,1.93359375,0,0.00862881311360449
-2.58001691690879E-05,1.40295533128665E-05,1.93359375,0,0.00862881311360449
-2.64794289250858E-05,1.43394681799691E-05,1.93359375,0,0.00862881311360449
-2.68867843260523E-05,1.35427126224386E-05,1.93359375,0,0.00862881311360449
-2.77189465123229E-05,1.35556774694123E-05,1.93359375,0,0.00862881311360449
-2.74028661806369E-05,1.43799106808729E-05,1.93359375,0,0.00862881311360449
-2.72831002803287E-05,1.38773448270513E-05,1.93359375,0,0.00862881311360449
-2.10985654121032E-05,8.95210996532114E-06,1.93359375,0,0.00862881311360449
-2.90800962829962E-05,1.16252003863337E-05,1.93359375,0,0.00862881311360449
-2.18974582821829E-05,8.99027781997574E-06,1.93359375,0,0.00862881311360449
-2.78586139756953E-05,1.25590431707678E-05,1.93359375,0,0.00862881311360449
-2.30707228183746E-05,1.04504406408523E-05,1.93359375,0,0.00862881311360449
-2.64115351455985E-05,1.29158497657045E-05,1.93359375,0,0.00862881311360449
-2.39805285673356E-05,1.22835035654134E-05,1.93359375,0,0.00862881311360449
-2.58593227044912E-05,1.21125904115615E-05,1.93359375,0,0.00862881311360449
-2.57365536526777E-05,1.01549539976986E-05,1.93359375,0,0.00862881311360449
-2.52868503594073E-05,1.04811706478358E-05,1.93359375,0,0.00862881311360449
-2.44804177782498E-05,1.13740088636405E-05,1.93359375,0,0.00862881311360449
-2.30008881771937E-05,1.18063844638527E-05,1.93359375,0,0.00862881311360449
-2.39067503571277E-05,1.3049905646767E-05,1.93359375,0,0.00862881311360449
-2.37260337598855E-05,1.38257782964502E-05,1.93359375,0,0.00862881311360449
-2.63596484728623E-05,1.59482369781472E-05,1.93359375,0,0.00862881311360449
-2.62991325143958E-05,1.5241009350575E-05,1.93359375,0,0.00862881311360449
-2.79981213680003E-05,1.36431799546699E-05,1.93359375,0,0.00862881311360449
-2.68717540166108E-05,1.09970296762185E-05,1.93359375,0,0.00862881311360449
-2.74412122962531E-05,1.16876008178224E-05,1.93359375,0,0.00862881311360449
-2.51539786404464E-05,1.26186496345326E-05,1.93359375,0,0.00862881311360449
-2.37385793298017E-05,1.41713899211027E-05,1.93359375,0,0.00862881311360449
-2.18676068470813E-05,1.40915617521387E-05,1.93359375,0,0.00862881311360449
-2.33151749853278E-05,1.32371660583885E-05,1.93359375,0,0.00862881311360449
-2.41237939917482E-05,1.05620101749082E-05,1.93359375,0,0.00862881311360449
-2.45459323195973E-05,9.1178371803835E-06,1.93359375,0,0.00862881311360449
-2.35362222156255E-05,9.08740094018867E-06,1.93359375,0,0.00862881311360449
-2.26745451072929E-05,9.77018589765066E-06,1.93359375,0,0.00862881311360449
-1.86757370101986E-05,8.85809186002007E-06,1.93359375,0,0.00862881311360449
-2.70136624749284E-05,1.23055615404155E-05,1.93359375,0,0.00862881311360449
-2.13728362723487E-05,9.46909949561814E-06,1.93359375,0,0.00862881311360449
-2.55639843089739E-05,1.22417723105173E-05,1.93359375,0,0.00862881311360449
-2.01909424504265E-05,1.02398662420455E-05,1.93359375,0,0.00862881311360449
-2.08894271054305E-05,1.1421017916291E-05,1.93359375,0,0.00862881311360449
-1.73404951056E-05,9.94716629065806E-06,1.93359375,0,0.00862881311360449
-1.78981699718861E-05,9.3926455519977E-06,1.93359375,0,0.00862881311360449
-1.81970153789734E-05,7.69018788560061E-06,1.93359375,0,0.00862881311360449
-1.97772296814946E-05,6.09789913141867E-06,1.93359375,0,0.00862881311360449
-2.08081110031344E-05,6.72138139634626E-06,1.93359375,0,0.00862881311360449
-2.06097229238367E-05,7.95619325799635E-06,1.93359375,0,0.00862881311360449
-2.22991184273269E-05,9.72059206105769E-06,1.93359375,0,0.00862881311360449
-2.20642687054351E-05,1.05696090031415E-05,1.93359375,0,0.00862881311360449
-2.27174168685451E-05,1.27309176605195E-05,1.93359375,0,0.00862881311360449
-2.11785045394208E-05,1.40097718031029E-05,1.93359375,0,0.00862881311360449
-2.32779766520252E-05,1.4613033272326E-05,1.93359375,0,0.00862881311360449
-2.44091461354401E-05,1.24711141324951E-05,1.93359375,0,0.00862881311360449
-2.63231868302682E-05,1.12005136543303E-05,1.93359375,0,0.00862881311360449
-2.51150577241788E-05,1.03494321592734E-05,1.93359375,0,0.00862881311360449
-2.49629865720635E-05,1.03269503597403E-05,1.93359375,0,0.00862881311360449
-2.43245685851434E-05,9.03173440747196E-06,1.93359375,0,0.00862881311360449
-2.58262807619758E-05,8.59702595334966E-06,1.93359375,0,0.00862881311360449
-2.62564317381475E-05,1.00146498880349E-05,1.93359375,0,0.00862881311360449
-2.63092715613311E-05,1.30995076688123E-05,1.93359375,0,0.00862881311360449
-2.54610131378286E-05,1.41749615067965E-05,1.93359375,0,0.00862881311360449
-2.47662101173773E-05,1.38706591314985E-05,1.93359375,0,0.00862881311360449
-2.06984514079522E-05,1.07494306575973E-05,1.93359375,0,0.00862881311360449
-2.96725975204026E-05,1.37158622237621E-05,1.93359375,0,0.00862881311360449
-2.29318229685305E-05,5.68531049793819E-06,1.93359375,0,0.00862881311360449
-2.79013420367846E-05,4.20461083194823E-06,1.93359375,0,0.00862881311360449
-2.31543672271073E-05,9.69430402619764E-07,1.93359375,0,0.00862881311360449
-2.61008426605258E-05,5.46294086234411E-06,1.93359375,0,0.00862881311360449
-2.48714586632559E-05,8.10066558187827E-06,1.93359375,0,0.00862881311360449
-2.67402556346497E-05,9.46571799431695E-06,1.93359375,0,0.00862881311360449
-2.4987049982883E-05,8.3320355770411E-06,1.93359375,0,0.00862881311360449
-2.3673550458625E-05,8.41030669107568E-06,1.93359375,0,0.00862881311360449
-2.29660709010204E-05,9.36183732846985E-06,1.93359375,0,0.00862881311360449
-2.14400643017143E-05,9.90993976301979E-06,1.93359375,0,0.00862881311360449
-2.14937845157692E-05,1.00043362181168E-05,1.93359375,0,0.00862881311360449
-1.97480731003452E-05,8.68750066729262E-06,1.93359375,0,0.00862881311360449
-2.0191922885715E-05,9.37662116484717E-06,1.93359375,0,0.00862881311360449
-1.90942282642936E-05,1.01815567177255E-05,1.93359375,0,0.00862881311360449
-2.12731356441509E-05,1.17256440717028E-05,1.93359375,0,0.00862881311360449
-2.13494313356932E-05,1.07636487882701E-05,1.93359375,0,0.00862881311360449
-2.29419893003069E-05,1.10832825157559E-05,1.93359375,0,0.00862881311360449
-2.21351765503641E-05,1.22571846077335E-05,1.93359375,0,0.00862881311360449
-2.31243393500336E-05,1.49938496178947E-05,1.93359375,0,0.00862881311360449
-2.30019177251961E-05,1.55484831338981E-05,1.93359375,0,0.00862881311360449
-2.35601728491019E-05,1.58770908456063E-05,1.93359375,0,0.00862881311360449
-2.29411671170965E-05,1.49497582242475E-05,1.93359375,0,0.00862881311360449
-2.27038144657854E-05,1.34304837047239E-05,1.93359375,0,0.00862881311360449
-2.14440187846776E-05,1.29632071548258E-05,1.93359375,0,0.00862881311360449
-2.14659303310327E-05,1.28774800032261E-05,1.93359375,0,0.00862881311360449
-1.75768618646543E-05,7.89726982475258E-06,1.93359375,0,0.00862881311360449
-2.42923742916901E-05,8.59416923049139E-06,1.93359375,0,0.00862881311360449
-1.79582402779488E-05,5.87471049584565E-06,1.93359375,0,0.00862881311360449
-2.24892155529233E-05,1.05655135484994E-05,1.93359375,0,0.00862881311360449
-1.84846248885151E-05,7.83701398177072E-06,1.93359375,0,0.00862881311360449
-2.09591180464486E-05,8.36845629237359E-06,1.93359375,0,0.00862881311360449
-1.96097043954069E-05,6.82759537085076E-06,1.93359375,0,0.00862881311360449
-2.21267273445847E-05,7.64322066970635E-06,1.93359375,0,0.00862881311360449
-2.25235380639788E-05,8.28969950816827E-06,1.93359375,0,0.00862881311360449
-2.32914662774419E-05,9.68849508353742E-06,1.93359375,0,0.00862881311360449
-2.47133029915858E-05,1.13747237264761E-05,1.93359375,0,0.00862881311360449
-2.51426281465683E-05,1.1776286555687E-05,1.93359375,0,0.00862881311360449
-2.63843085122062E-05,1.107000389311E-05,1.93359375,0,0.00862881311360449
-2.47243551712018E-05,7.15584201316233E-06,1.93359375,0,0.00862881311360449
-2.44000693783164E-05,6.91208560965606E-06,1.93359375,0,0.00862881311360449
-2.27364689635579E-05,1.09997408799245E-05,1.93359375,0,0.00862881311360449
-2.41275029111421E-05,1.70403582160361E-05,1.93359375,0,0.00862881311360449
-2.40599019889487E-05,1.79522576218005E-05,1.93359375,0,0.00862881311360449
-2.51697656494798E-05,1.7277723600273E-05,1.93359375,0,0.00862881311360449
-2.37325439229608E-05,1.63240783876972E-05,1.93359375,0,0.00862881311360449
-2.38256889133481E-05,1.61660973390099E-05,1.93359375,0,0.00862881311360449
-2.35072529903846E-05,1.46080474223709E-05,1.93359375,0,0.00862881311360449
-2.42280930251582E-05,1.40742622534162E-05,1.93359375,0,0.00862881311360449
-2.34811104746768E-05,1.42054714160622E-05,1.93359375,0,0.00862881311360449
-2.25883650273317E-05,1.46065385706606E-05,1.93359375,0,0.00862881311360449
-2.31669964705361E-05,1.43546849358245E-05,1.93359375,0,0.00862881311360449
-2.47631978709251E-05,1.28378769659321E-05,1.93359375,0,0.00862881311360449
-1.98822708625812E-05,1.02251597127179E-05,1.93359375,0,0.00862881311360449
-2.68016447080299E-05,1.5287812857423E-05,1.93359375,0,0.00862881311360449
-1.84266664291499E-05,1.12096313387156E-05,1.93359375,0,0.00862881311360449
-2.35196239373181E-05,1.07141659100307E-05,1.93359375,0,0.00862881311360449
-1.99823534785537E-05,5.07391223436571E-06,1.93359375,0,0.00862881311360449
-2.39764485741034E-05,3.65348773812002E-06,1.93359375,0,0.00862881311360449
-2.26379615924088E-05,2.97123347081651E-06,1.93359375,0,0.00862881311360449
-2.41442685364746E-05,7.83152700023493E-06,1.93359375,0,0.00862881311360449
-2.45475312112831E-05,1.33813982756692E-05,1.93359375,0,0.00862881311360449
-2.67263676505536E-05,1.72808722709306E-05,1.93359375,0,0.00862881311360449
-2.76959999609971E-05,1.915126813401E-05,1.93359375,0,0.00862881311360449
-2.6379719201941E-05,1.81280884135049E-05,1.93359375,0,0.00862881311360449
-2.70668260782259E-05,1.49925599544076E-05,1.93359375,0,0.00862881311360449
-2.58151903835824E-05,9.03469936019974E-06,1.93359375,0,0.00862881311360449
-2.57415740634315E-05,5.19879495186615E-06,1.93359375,0,0.00862881311360449
-2.39053642872022E-05,3.66747894986474E-06,1.93359375,0,0.00862881311360449
-2.51999208558118E-05,5.8163350331597E-06,1.93359375,0,0.00862881311360449
-2.39759847318055E-05,7.29387556930305E-06,1.93359375,0,0.00862881311360449
-2.44499169639312E-05,8.74538272910286E-06,1.93359375,0,0.00862881311360449
-2.3496279027313E-05,8.58270777825965E-06,1.93359375,0,0.00862881311360449
-2.43898575718049E-05,7.51612651583855E-06,1.93359375,0,0.00862881311360449
-2.34523868130054E-05,4.77401135867694E-06,1.93359375,0,0.00862881311360449
-2.38787306443555E-05,4.42299733549589E-06,1.93359375,0,0.00862881311360449
-2.38728407566668E-05,8.02887370809913E-06,1.93359375,0,0.00862881311360449
-2.42680252995342E-05,1.62441192514962E-05,1.93359375,0,0.00862881311360449
-2.44396433117799E-05,2.35745665122522E-05,1.93359375,0,0.00862881311360449
-2.45161572820507E-05,2.37373751588166E-05,1.93359375,0,0.00862881311360449
-1.97542467503808E-05,1.34508527480648E-05,1.93359375,0,0.00862881311360449
-2.72568940999918E-05,1.39284838951426E-05,1.93359375,0,0.00862881311360449
-1.97488134290325E-05,5.41578765478334E-06,1.93359375,0,0.00862881311360449
-2.53162415901897E-05,1.00733504950767E-05,1.93359375,0,0.00862881311360449
-2.15139389183605E-05,8.27255644253455E-06,1.93359375,0,0.00862881311360449
-2.47692933044164E-05,1.40338788696681E-05,1.93359375,0,0.00862881311360449
-2.35688112297794E-05,1.38650930239237E-05,1.93359375,0,0.00862881311360449
-2.45136561716208E-05,1.40590782393701E-05,1.93359375,0,0.00862881311360449
-2.29850829782663E-05,1.05207909655292E-05,1.93359375,0,0.00862881311360449
-2.30031218961813E-05,7.94019797467627E-06,1.93359375,0,0.00862881311360449
-2.48386440944159E-05,6.68563279759837E-06,1.93359375,0,0.00862881311360449
-2.45767369051464E-05,6.80408084008377E-06,1.93359375,0,0.00862881311360449
-2.37181757256621E-05,8.92248226591619E-06,1.93359375,0,0.00862881311360449
-2.10616981348721E-05,8.39047424960881E-06,1.93359375,0,0.00862881311360449
-2.17176457226742E-05,9.25067888601916E-06,1.93359375,0,0.00862881311360449
-2.09938516491093E-05,8.85899316926952E-06,1.93359375,0,0.00862881311360449
-2.15082600334426E-05,9.91800516203512E-06,1.93359375,0,0.00862881311360449
-1.91995550267166E-05,7.07903882357641E-06,1.93359375,0,0.00862881311360449
-2.03862546186429E-05,4.75531624033465E-06,1.93359375,0,0.00862881311360449
-2.17768429138232E-05,2.44850639319338E-06,1.93359375,0,0.00862881311360449
-2.49749173235614E-05,4.25138341597631E-06,1.93359375,0,0.00862881311360449
-2.53607013291912E-05,4.08149298891658E-06,1.93359375,0,0.00862881311360449
-2.56983985309489E-05,3.0009387046448E-06,1.93359375,0,0.00862881311360449
-2.48746273427969E-05,1.82562621375837E-06,1.93359375,0,0.00862881311360449
-2.39625223912299E-05,2.57516353485698E-06,1.93359375,0,0.00862881311360449
-2.37940566876205E-05,3.43213832820766E-06,1.93359375,0,0.00862881311360449
-2.42761670961045E-05,3.56565283254895E-06,1.93359375,0,0.00862881311360449
-2.05668839043938E-05,2.62965022557182E-06,1.93359375,0,0.00862881311360449
-2.89472936856328E-05,4.42348164142459E-06,1.93359375,0,0.00862881311360449
-2.11417336686281E-05,5.25388259120518E-06,1.93359375,0,0.00862881311360449
-2.62769190157996E-05,7.69201506045647E-06,1.93359375,0,0.00862881311360449
-2.25458588829497E-05,8.07972719485406E-06,1.93359375,0,0.00862881311360449
-2.5561294023646E-05,8.04802130005555E-06,1.93359375,0,0.00862881311360449
-2.26929860218661E-05,8.69462655828102E-06,1.93359375,0,0.00862881311360449
-2.292996396136E-05,9.54769620875595E-06,1.93359375,0,0.00862881311360449
-2.26905249292031E-05,9.32937291509006E-06,1.93359375,0,0.00862881311360449
-2.30074983846862E-05,8.49868501973106E-06,1.93359375,0,0.00862881311360449
-2.27163727686275E-05,8.20943751023151E-06,1.93359375,0,0.00862881311360449
-2.1187403035583E-05,9.46288855629973E-06,1.93359375,0,0.00862881311360449
-2.18482891796157E-05,1.04436685433029E-05,1.93359375,0,0.00862881311360449
-2.1338648366509E-05,1.04288201328018E-05,1.93359375,0,0.00862881311360449
-2.25048424908891E-05,1.06281959233456E-05,1.93359375,0,0.00862881311360449
-2.1117419237271E-05,1.02744197647553E-05,1.93359375,0,0.00862881311360449
-2.25048042921117E-05,9.81844732450554E-06,1.93359375,0,0.00862881311360449
-2.27320724661695E-05,9.29801535676233E-06,1.93359375,0,0.00862881311360449
-2.5257397282985E-05,9.47171611187514E-06,1.93359375,0,0.00862881311360449
-2.48099950113101E-05,9.43792656471487E-06,1.93359375,0,0.00862881311360449
-2.4288839995279E-05,8.78414994076593E-06,1.93359375,0,0.00862881311360449
-2.23340757656842E-05,9.58315013122046E-06,1.93359375,0,0.00862881311360449
-2.23917431867449E-05,1.23151476145722E-05,1.93359375,0,0.00862881311360449
-2.30607820412843E-05,1.18236339403666E-05,1.93359375,0,0.00862881311360449
-2.48867017944576E-05,9.28427652979735E-06,1.93359375,0,0.00862881311360449
-2.5487293896731E-05,7.99384906713385E-06,1.93359375,0,0.00862881311360449
-2.57865485764341E-05,8.39321637613466E-06,1.93359375,0,0.00862881311360449
-2.07023767870851E-05,7.88656325312331E-06,1.93359375,0,0.00862881311360449
-2.86173544736812E-05,1.30756861835835E-05,1.93359375,0,0.00862881311360449
-2.07746707019396E-05,1.3493154256139E-05,1.93359375,0,0.00862881311360449
-2.56364710367052E-05,1.67587277246639E-05,1.93359375,0,0.00862881311360449
-2.06416279979749E-05,1.57144822878763E-05,1.93359375,0,0.00862881311360449
-2.38223128690152E-05,1.59576557052787E-05,1.93359375,0,0.00862881311360449
-2.24968171096407E-05,1.10388891698676E-05,1.93359375,0,0.00862881311360449
-2.51906494668219E-05,8.19736396806547E-06,1.93359375,0,0.00862881311360449
-2.53468042501481E-05,7.34435252525145E-06,1.93359375,0,0.00862881311360449
-2.45703358814353E-05,7.9097944762907E-06,1.93359375,0,0.00862881311360449
-2.33832761296071E-05,9.3636090241489E-06,1.93359375,0,0.00862881311360449
-2.25477269850671E-05,1.15909870146425E-05,1.93359375,0,0.00862881311360449
-2.53332018473884E-05,1.22348974400666E-05,1.93359375,0,0.00862881311360449
-2.5965104214265E-05,8.8070128185791E-06,1.93359375,0,0.00862881311360449
-2.73442838079063E-05,6.48226523480844E-06,1.93359375,0,0.00862881311360449
-2.57281353697181E-05,4.99487077831873E-06,1.93359375,0,0.00862881311360449
-2.66770693997387E-05,6.29380474492791E-06,1.93359375,0,0.00862881311360449
-2.55152845056728E-05,8.88666454557097E-06,1.93359375,0,0.00862881311360449
-2.65599883277901E-05,1.27593211800558E-05,1.93359375,0,0.00862881311360449
-2.60137894656509E-05,1.36662965815049E-05,1.93359375,0,0.00862881311360449
-2.67980612989049E-05,1.26559070849908E-05,1.93359375,0,0.00862881311360449
-2.54616206802893E-05,1.04115724752774E-05,1.93359375,0,0.00862881311360449
-2.55972809100058E-05,9.56007170316298E-06,1.93359375,0,0.00862881311360449
-2.60585347859887E-05,9.74054091784637E-06,1.93359375,0,0.00862881311360449
-2.77854614978423E-05,9.62349531619111E-06,1.93359375,0,0.00862881311360449
-2.85141159110935E-05,8.80286825122312E-06,1.93359375,0,0.00862881311360449
-2.74662379524671E-05,9.24535015656147E-06,1.93359375,0,0.00862881311360449
-2.08339060918661E-05,9.26466873352183E-06,1.93359375,0,0.00862881311360449
-2.93426692223875E-05,1.40716419991804E-05,1.93359375,0,0.00862881311360449
-2.25647854676936E-05,1.03617749118712E-05,1.93359375,0,0.00862881311360449
-2.89616382360691E-05,1.14067934191553E-05,1.93359375,0,0.00862881311360449
-2.58406435023062E-05,9.40044719754951E-06,1.93359375,0,0.00862881311360449
-2.96444577543298E-05,1.10947130451677E-05,1.93359375,0,0.00862881311360449
-2.64107693510596E-05,1.17709751066286E-05,1.93359375,0,0.00862881311360449
-2.60599626926705E-05,1.22709006973309E-05,1.93359375,0,0.00862881311360449
-2.51912879321026E-05,1.16454439194058E-05,1.93359375,0,0.00862881311360449
-2.60314554907382E-05,1.2282577699807E-05,1.93359375,0,0.00862881311360449
-2.57323063124204E-05,1.31544184114318E-05,1.93359375,0,0.00862881311360449
-2.34376584558049E-05,1.29161126096733E-05,1.93359375,0,0.00862881311360449
-2.36423238675343E-05,1.35200853037531E-05,1.93359375,0,0.00862881311360449
-2.29173347179312E-05,1.39503354148474E-05,1.93359375,0,0.00862881311360449
-2.43786489591002E-05,1.5861254723859E-05,1.93359375,0,0.00862881311360449
-2.39576747844694E-05,1.67259549925802E-05,1.93359375,0,0.00862881311360449
-2.60838132817298E-05,1.69372597156325E-05,1.93359375,0,0.00862881311360449
-2.49322129093343E-05,1.47972104969085E-05,1.93359375,0,0.00862881311360449
-2.53917787631508E-05,1.35942082124529E-05,1.93359375,0,0.00862881311360449
-2.46766885538818E-05,1.35273794512614E-05,1.93359375,0,0.00862881311360449
-2.56760231422959E-05,1.43973611557158E-05,1.93359375,0,0.00862881311360449
-2.42992045969004E-05,1.42875824167277E-05,1.93359375,0,0.00862881311360449
-2.37956664932426E-05,1.49873749251128E-05,1.93359375,0,0.00862881311360449
-2.27276250370778E-05,1.52057755258284E-05,1.93359375,0,0.00862881311360449
-2.27146410907153E-05,1.49471707118209E-05,1.93359375,0,0.00862881311360449
-2.26640750042861E-05,1.44117248055409E-05,1.93359375,0,0.00862881311360449
-2.2761350919609E-05,1.33929743242334E-05,1.93359375,0,0.00862881311360449
-1.83937809197232E-05,9.66391689871671E-06,1.93359375,0,0.00862881311360449
-2.62424873653799E-05,1.47962846313021E-05,1.93359375,0,0.00862881311360449
-2.07476223295089E-05,1.43966062751133E-05,1.93359375,0,0.00862881311360449
-2.64716763922479E-05,1.84314940270269E-05,1.93359375,0,0.00862881311360449
-2.28428834816441E-05,1.45966459967894E-05,1.93359375,0,0.00862881311360449
-2.47445350396447E-05,1.34182155306917E-05,1.93359375,0,0.00862881311360449
-2.28684875764884E-05,1.08494632513612E-05,1.93359375,0,0.00862881311360449
-2.52292065852089E-05,1.0919270607701E-05,1.93359375,0,0.00862881311360449
-2.50451466854429E-05,1.16348492156249E-05,1.93359375,0,0.00862881311360449
-2.41678244492505E-05,1.26666764117545E-05,1.93359375,0,0.00862881311360449
-2.37963104154915E-05,1.31404494823073E-05,1.93359375,0,0.00862881311360449
-2.34794024436269E-05,1.52797601913335E-05,1.93359375,0,0.00862881311360449
-2.39232904277742E-05,1.75781515281415E-05,1.93359375,0,0.00862881311360449
-2.1961537640891E-05,1.64288667292567E-05,1.93359375,0,0.00862881311360449
-2.30625719268573E-05,1.55047928274143E-05,1.93359375,0,0.00862881311360449
-2.29329652938759E-05,1.37882443596027E-05,1.93359375,0,0.00862881311360449
-2.44250968535198E-05,1.29114187075174E-05,1.93359375,0,0.00862881311360449
-2.31443264055997E-05,1.18649031719542E-05,1.93359375,0,0.00862881311360449
-2.32602178584784E-05,1.38192981467E-05,1.93359375,0,0.00862881311360449
-2.18647601286648E-05,1.45903122756863E-05,1.93359375,0,0.00862881311360449
-2.18999120988883E-05,1.47094415297033E-05,1.93359375,0,0.00862881311360449
-2.03168820007704E-05,1.45712201629067E-05,1.93359375,0,0.00862881311360449
-1.97795761778252E-05,1.53633245645324E-05,1.93359375,0,0.00862881311360449
-1.91856161109172E-05,1.34445281219087E-05,1.93359375,0,0.00862881311360449
-2.02385108423186E-05,1.07710275187856E-05,1.93359375,0,0.00862881311360449
-2.08372894121567E-05,1.02214835351333E-05,1.93359375,0,0.00862881311360449
-2.030968607869E-05,1.1722920135071E-05,1.93359375,0,0.00862881311360449
-1.73062453541206E-05,9.1192196123302E-06,1.93359375,0,0.00862881311360449
-2.61385011981474E-05,1.17853915071464E-05,1.93359375,0,0.00862881311360449
-2.12905888474779E-05,8.53965502756182E-06,1.93359375,0,0.00862881311360449
-2.47455154749332E-05,1.17647114166175E-05,1.93359375,0,0.00862881311360449
-2.09713434742298E-05,1.08136764538358E-05,1.93359375,0,0.00862881311360449
-2.35475272347685E-05,1.44142122735502E-05,1.93359375,0,0.00862881311360449
-2.23549159272807E-05,1.38788700496661E-05,1.93359375,0,0.00862881311360449
-2.31366175285075E-05,1.36657517941785E-05,1.93359375,0,0.00862881311360449
-2.25991334446007E-05,1.12405550680705E-05,1.93359375,0,0.00862881311360449
-2.40037297771778E-05,8.29328291729325E-06,1.93359375,0,0.00862881311360449
-2.62698576989351E-05,6.09438075116486E-06,1.93359375,0,0.00862881311360449
-2.64363625319675E-05,5.81520498599275E-06,1.93359375,0,0.00862881311360449
-2.52373101830017E-05,8.06036314315861E-06,1.93359375,0,0.00862881311360449
-2.2502516003442E-05,9.45550891628955E-06,1.93359375,0,0.00862881311360449
-2.32950642384822E-05,1.09243073893595E-05,1.93359375,0,0.00862881311360449
-2.3425511244568E-05,9.85589394986164E-06,1.93359375,0,0.00862881311360449
-2.41126545006409E-05,1.0559604561422E-05,1.93359375,0,0.00862881311360449
-2.17035249079345E-05,1.04164009826491E-05,1.93359375,0,0.00862881311360449
-2.21781283471501E-05,9.47448552324204E-06,1.93359375,0,0.00862881311360449
-2.31109679589281E-05,5.79271681999671E-06,1.93359375,0,0.00862881311360449
-2.49750573857455E-05,1.96714313460689E-06,1.93359375,0,0.00862881311360449
-2.39800046983873E-05,-1.05800916117005E-06,1.93359375,0,0.00862881311360449
-2.33782157010864E-05,3.43483094411567E-07,1.93359375,0,0.00862881311360449
-2.30007262871368E-05,3.79306652575906E-06,1.93359375,0,0.00862881311360449
-2.43780141317984E-05,7.71646864450304E-06,1.93359375,0,0.00862881311360449
-2.5577768610674E-05,8.88217618921772E-06,1.93359375,0,0.00862881311360449
-2.5730059860507E-05,7.39372990210541E-06,1.93359375,0,0.00862881311360449
-2.096765274473E-05,6.28737052466022E-06,1.93359375,0,0.00862881311360449
-2.82199471257627E-05,1.04547279988765E-05,1.93359375,0,0.00862881311360449
-1.77708079718286E-05,9.73242458712775E-06,1.93359375,0,0.00862881311360449
-2.22634098463459E-05,1.21335133371758E-05,1.93359375,0,0.00862881311360449
-1.99417281692149E-05,1.25646320157102E-05,1.93359375,0,0.00862881311360449
-2.45020837610355E-05,1.2243206583662E-05,1.93359375,0,0.00862881311360449
-2.23531715164427E-05,8.94976255949587E-06,1.93359375,0,0.00862881311360449
-2.30114510486601E-05,9.06166860659141E-06,1.93359375,0,0.00862881311360449
-2.13837065530242E-05,1.21809998745448E-05,1.93359375,0,0.00862881311360449
-1.95688498934032E-05,1.39183184728608E-05,1.93359375,0,0.00862881311360449
-1.88512822205666E-05,1.18538991955575E-05,1.93359375,0,0.00862881311360449
-1.93992873391835E-05,8.88979866431328E-06,1.93359375,0,0.00862881311360449
-2.28446660912596E-05,7.62633817430469E-06,1.93359375,0,0.00862881311360449
-2.35922070714878E-05,5.28631835550186E-06,1.93359375,0,0.00862881311360449
-2.45200499193743E-05,3.50774968183032E-07,1.93359375,0,0.00862881311360449
-2.28372318815673E-05,-5.3751127779833E-06,1.93359375,0,0.00862881311360449
-2.45889932557475E-05,-5.16778345627245E-06,1.93359375,0,0.00862881311360449
-2.52501613431377E-05,-8.84797657363379E-07,1.93359375,0,0.00862881311360449
-2.74765097856289E-05,3.97976464228123E-06,1.93359375,0,0.00862881311360449
-2.55124850809807E-05,7.47091689845547E-06,1.93359375,0,0.00862881311360449
-2.408877844573E-05,1.01326177173178E-05,1.93359375,0,0.00862881311360449
-2.21919217437971E-05,1.02010599221103E-05,1.93359375,0,0.00862881311360449
-2.30198747885879E-05,9.29843736230396E-06,1.93359375,0,0.00862881311360449
-2.41052857745672E-05,7.77831974119181E-06,1.93359375,0,0.00862881311360449
-2.4682229195605E-05,6.30989552519168E-06,1.93359375,0,0.00862881311360449
-2.32992551900679E-05,5.67539609619416E-06,1.93359375,0,0.00862881311360449
-2.28607950703008E-05,5.71898090129253E-06,1.93359375,0,0.00862881311360449
-1.93459582078503E-05,5.18260230819578E-06,1.93359375,0,0.00862881311360449
-2.8123253287049E-05,8.39646418171469E-06,1.93359375,0,0.00862881311360449
-2.14050523936749E-05,7.52020014260779E-06,1.93359375,0,0.00862881311360449
-2.49569147854345E-05,8.12433427199721E-06,1.93359375,0,0.00862881311360449
-2.06864406209206E-05,8.54545669426443E-06,1.93359375,0,0.00862881311360449
-2.40656463574851E-05,1.30889875435969E-05,1.93359375,0,0.00862881311360449
-2.27776145038661E-05,1.41018099384382E-05,1.93359375,0,0.00862881311360449
-2.40860608755611E-05,1.35697846417315E-05,1.93359375,0,0.00862881311360449
-2.39992787101073E-05,1.28654819491203E-05,1.93359375,0,0.00862881311360449
-2.49356289714342E-05,1.20817821880337E-05,1.93359375,0,0.00862881311360449
-2.50622761086561E-05,1.15271604954614E-05,1.93359375,0,0.00862881311360449
-2.34705585171469E-05,1.22304254546179E-05,1.93359375,0,0.00862881311360449
-2.31713402172318E-05,1.33074481709627E-05,1.93359375,0,0.00862881311360449
-2.17027354665333E-05,1.23216150313965E-05,1.93359375,0,0.00862881311360449
-2.32675065490184E-05,1.16044084279565E-05,1.93359375,0,0.00862881311360449
-2.29391807806678E-05,1.09826178231742E-05,1.93359375,0,0.00862881311360449
-2.45879600697663E-05,1.16139235615265E-05,1.93359375,0,0.00862881311360449
-2.40304725593887E-05,1.31812930703745E-05,1.93359375,0,0.00862881311360449
-2.52700920100324E-05,1.48394010466291E-05,1.93359375,0,0.00862881311360449
-2.43375397985801E-05,1.28083056551986E-05,1.93359375,0,0.00862881311360449
-2.38281936617568E-05,9.39749952522106E-06,1.93359375,0,0.00862881311360449
-2.20965084736235E-05,6.01756210016902E-06,1.93359375,0,0.00862881311360449
-2.17296637856634E-05,3.66321796718694E-06,1.93359375,0,0.00862881311360449
-2.12039740290493E-05,3.44658246831386E-06,1.93359375,0,0.00862881311360449
-2.19046014535706E-05,6.27207964498666E-06,1.93359375,0,0.00862881311360449
-2.22978069359669E-05,1.0405568900751E-05,1.93359375,0,0.00862881311360449
-2.28971293836366E-05,1.36820362968137E-05,1.93359375,0,0.00862881311360449
-1.77060956048081E-05,1.07333244159236E-05,1.93359375,0,0.00862881311360449
-2.42311161855469E-05,1.36014050440281E-05,1.93359375,0,0.00862881311360449
-1.80944243766135E-05,9.77960007730871E-06,1.93359375,0,0.00862881311360449
-2.3313255951507E-05,1.49793077071081E-05,1.93359375,0,0.00862881311360449
-1.93986124941148E-05,1.28310221043648E-05,1.93359375,0,0.00862881311360449
-2.24596697080415E-05,1.33280573209049E-05,1.93359375,0,0.00862881311360449
-2.173601751565E-05,9.69532993622124E-06,1.93359375,0,0.00862881311360449
-2.38988341152435E-05,8.56024416862056E-06,1.93359375,0,0.00862881311360449
-2.33027822105214E-05,9.92585592030082E-06,1.93359375,0,0.00862881311360449
-2.34494418691611E-05,1.33516305140802E-05,1.93359375,0,0.00862881311360449
-2.40804783970816E-05,1.54183453560108E-05,1.93359375,0,0.00862881311360449
-2.32450784096727E-05,1.52005204654415E-05,1.93359375,0,0.00862881311360449
-2.36652722378494E-05,1.33325520437211E-05,1.93359375,0,0.00862881311360449
-2.31333469855599E-05,9.73300484474748E-06,1.93359375,0,0.00862881311360449
-2.43706581386505E-05,9.3585840659216E-06,1.93359375,0,0.00862881311360449
-2.28066564886831E-05,1.0577765351627E-05,1.93359375,0,0.00862881311360449
-2.30118930630852E-05,1.35501622935408E-05,1.93359375,0,0.00862881311360449
-2.20516503759427E-05,1.2686561603914E-05,1.93359375,0,0.00862881311360449
-2.38115080719581E-05,1.11300514618051E-05,1.93359375,0,0.00862881311360449
-2.35308343690122E-05,9.67611867963569E-06,1.93359375,0,0.00862881311360449
-2.42457299464149E-05,1.12572215584805E-05,1.93359375,0,0.00862881311360449
-2.37455915339524E-05,1.2990467439522E-05,1.93359375,0,0.00862881311360449
-2.46929903369164E-05,1.48597555380547E-05,1.93359375,0,0.00862881311360449
-2.50233460974414E-05,1.51247695612255E-05,1.93359375,0,0.00862881311360449
-2.50082684942754E-05,1.46350357681513E-05,1.93359375,0,0.00862881311360449
-2.39063974731835E-05,1.34429037643713E-05,1.93359375,0,0.00862881311360449
-2.29949182539713E-05,1.24955349747324E-05,1.93359375,0,0.00862881311360449
-1.86588458745973E-05,8.59765077620978E-06,1.93359375,0,0.00862881311360449
-2.66359475062927E-05,1.16455321403919E-05,1.93359375,0,0.00862881311360449
-2.00246340682497E-05,9.05358774616616E-06,1.93359375,0,0.00862881311360449
-2.41199577430962E-05,1.2310366400925E-05,1.93359375,0,0.00862881311360449
-2.06543536478421E-05,1.13634068839019E-05,1.93359375,0,0.00862881311360449
-2.47191219386877E-05,1.23775216707145E-05,1.93359375,0,0.00862881311360449
-2.2684529540129E-05,9.53056041907985E-06,1.93359375,0,0.00862881311360449
-2.33869614021387E-05,9.37614004214993E-06,1.93359375,0,0.00862881311360449
-2.37953081523301E-05,9.4987326519913E-06,1.93359375,0,0.00862881311360449
-2.40691897488432E-05,8.50047854328295E-06,1.93359375,0,0.00862881311360449
-2.37155945796985E-05,7.43003602110548E-06,1.93359375,0,0.00862881311360449
-2.27051568799652E-05,8.29684086056659E-06,1.93359375,0,0.00862881311360449
-2.4293347451021E-05,1.02597541626892E-05,1.93359375,0,0.00862881311360449
-2.47513780777808E-05,9.522429536446E-06,1.93359375,0,0.00862881311360449
-2.66398892563302E-05,8.51585809868993E-06,1.93359375,0,0.00862881311360449
-2.60966680798447E-05,6.9215684561641E-06,1.93359375,0,0.00862881311360449
-2.76998089248082E-05,7.4536455940688E-06,1.93359375,0,0.00862881311360449
-2.7187659725314E-05,7.9124611147563E-06,1.93359375,0,0.00862881311360449
-2.78113348031184E-05,1.03041247712099E-05,1.93359375,0,0.00862881311360449
-2.65743819909403E-05,1.19323376566172E-05,1.93359375,0,0.00862881311360449
-2.71228345809504E-05,1.3215365470387E-05,1.93359375,0,0.00862881311360449
-2.7716832846636E-05,1.30230828290223E-05,1.93359375,0,0.00862881311360449
-2.94326855510008E-05,1.3113784007146E-05,1.93359375,0,0.00862881311360449
-2.95698573609116E-05,1.18662555905757E-05,1.93359375,0,0.00862881311360449
-2.99662697216263E-05,1.05390045064269E-05,1.93359375,0,0.00862881311360449
-2.98875111184316E-05,1.07599180410034E-05,1.93359375,0,0.00862881311360449
-2.84901962004369E-05,1.07149498944636E-05,1.93359375,0,0.00862881311360449
-2.0151283024461E-05,7.4956578828278E-06,1.93359375,0,0.00862881311360449
-2.79838641290553E-05,1.06366524050827E-05,1.93359375,0,0.00862881311360449
-2.12502945942106E-05,1.00158904388081E-05,1.93359375,0,0.00862881311360449
-2.73566693067551E-05,1.43789002322592E-05,1.93359375,0,0.00862881311360449
-2.34377857850632E-05,1.22894271044061E-05,1.93359375,0,0.00862881311360449
-2.74399772024481E-05,1.248944317922E-05,1.93359375,0,0.00862881311360449
-2.61804161709733E-05,1.20777294796426E-05,1.93359375,0,0.00862881311360449
-2.69475458480883E-05,1.32815093820682E-05,1.93359375,0,0.00862881311360449
-2.50064476858824E-05,1.37929773700307E-05,1.93359375,0,0.00862881311360449
-2.36839532590238E-05,1.3252522876428E-05,1.93359375,0,0.00862881311360449
-2.28488570428453E-05,1.10791470433469E-05,1.93359375,0,0.00862881311360449
-2.19604262383655E-05,8.57915711094392E-06,1.93359375,0,0.00862881311360449
-2.27884538617218E-05,8.68058759806445E-06,1.93359375,0,0.00862881311360449
-2.15830623346847E-05,9.7348611234338E-06,1.93359375,0,0.00862881311360449
-2.21896734728944E-05,1.07773194031324E-05,1.93359375,0,0.00862881311360449
-2.07576231332496E-05,9.34572108235443E-06,1.93359375,0,0.00862881311360449
-2.20283563976409E-05,8.84898508957122E-06,1.93359375,0,0.00862881311360449
-2.15867967199301E-05,8.40363099996466E-06,1.93359375,0,0.00862881311360449
-2.37080766964937E-05,8.74948182172375E-06,1.93359375,0,0.00862881311360449
-2.42465266637737E-05,9.07349203771446E-06,1.93359375,0,0.00862881311360449
-2.54602528002579E-05,1.04406617538189E-05,1.93359375,0,0.00862881311360449
-2.33326863963157E-05,9.39018809731351E-06,1.93359375,0,0.00862881311360449
-2.25364092329983E-05,7.75122134655248E-06,1.93359375,0,0.00862881311360449
-2.22735834540799E-05,7.78595585870789E-06,1.93359375,0,0.00862881311360449
-2.32634683925426E-05,1.05845410871552E-05,1.93359375,0,0.00862881311360449
-2.42988353420515E-05,1.25303722597891E-05,1.93359375,0,0.00862881311360449
-2.37378826568602E-05,1.17284171210486E-05,1.93359375,0,0.00862881311360449
-1.67592006619088E-05,8.16676492831903E-06,1.93359375,0,0.00862881311360449
-2.37914409808582E-05,1.22720939543797E-05,1.93359375,0,0.00862881311360449
-1.99216301552951E-05,1.05579874798423E-05,1.93359375,0,0.00862881311360449
-2.70364871539641E-05,1.37520319185569E-05,1.93359375,0,0.00862881311360449
-2.4594472051831E-05,1.2600179616129E-05,1.93359375,0,0.00862881311360449
-2.61097666225396E-05,1.28136653074762E-05,1.93359375,0,0.00862881311360449
-2.29396137001459E-05,1.00244233181002E-05,1.93359375,0,0.00862881311360449
-2.43400572799146E-05,9.64197624853114E-06,1.93359375,0,0.00862881311360449
-2.50214943662286E-05,9.58090004132828E-06,1.93359375,0,0.00862881311360449
-2.50993034569547E-05,9.21191076486139E-06,1.93359375,0,0.00862881311360449
-2.4228624170064E-05,9.95330992736854E-06,1.93359375,0,0.00862881311360449
-2.29419711104129E-05,1.20754448289517E-05,1.93359375,0,0.00862881311360449
-2.32340062211733E-05,1.45844496728387E-05,1.93359375,0,0.00862881311360449
-2.20736656046938E-05,1.44474679473205E-05,1.93359375,0,0.00862881311360449
-2.2864713173476E-05,1.38277682708576E-05,1.93359375,0,0.00862881311360449
-2.24339491978753E-05,1.12029092633747E-05,1.93359375,0,0.00862881311360449
-2.43138510995777E-05,8.63076729729073E-06,1.93359375,0,0.00862881311360449
-2.35986353800399E-05,6.62427783026942E-06,1.93359375,0,0.00862881311360449
-2.33341761486372E-05,8.01866917754523E-06,1.93359375,0,0.00862881311360449
-2.15801210288191E-05,9.75873263087124E-06,1.93359375,0,0.00862881311360449
-2.29735942411935E-05,1.06881288957084E-05,1.93359375,0,0.00862881311360449
-2.37192471104208E-05,1.12377801997354E-05,1.93359375,0,0.00862881311360449
-2.43246831814758E-05,1.41215168696363E-05,1.93359375,0,0.00862881311360449
-2.43693339143647E-05,1.71657375176437E-05,1.93359375,0,0.00862881311360449
-2.43483045778703E-05,1.85586613952182E-05,1.93359375,0,0.00862881311360449
-2.34610597544815E-05,1.73886073753238E-05,1.93359375,0,0.00862881311360449
-2.37863605434541E-05,1.40658539748983E-05,1.93359375,0,0.00862881311360449
-2.02966530196136E-05,8.98949747352162E-06,1.93359375,0,0.00862881311360449
-2.86897502519423E-05,1.15846669359598E-05,1.93359375,0,0.00862881311360449
-2.0280247554183E-05,7.26093639968894E-06,1.93359375,0,0.00862881311360449
-2.40758672589436E-05,1.07262922028895E-05,1.93359375,0,0.00862881311360449
-2.00842932827072E-05,1.0721832040872E-05,1.93359375,0,0.00862881311360449
-2.28050084842835E-05,1.2198553122289E-05,1.93359375,0,0.00862881311360449
-2.0137102183071E-05,9.04788430489134E-06,1.93359375,0,0.00862881311360449
-2.17523411265574E-05,8.13550286693498E-06,1.93359375,0,0.00862881311360449
-2.22514026972931E-05,9.63955062616151E-06,1.93359375,0,0.00862881311360449
-2.30959103646455E-05,1.13220303319395E-05,1.93359375,0,0.00862881311360449
-2.43219164985931E-05,1.09682341644657E-05,1.93359375,0,0.00862881311360449
-2.39339042309439E-05,1.00627421488753E-05,1.93359375,0,0.00862881311360449
-2.45159008045448E-05,9.54298684519017E-06,1.93359375,0,0.00862881311360449
-2.28571680054301E-05,7.27728593119537E-06,1.93359375,0,0.00862881311360449
-2.31512312893756E-05,7.73428382672137E-06,1.93359375,0,0.00862881311360449
-2.15911168197636E-05,9.97250936052296E-06,1.93359375,0,0.00862881311360449
-2.29198576562339E-05,1.37468068714952E-05,1.93359375,0,0.00862881311360449
-2.2243022613111E-05,1.47444934555097E-05,1.93359375,0,0.00862881311360449
-2.32819002121687E-05,1.37749493660522E-05,1.93359375,0,0.00862881311360449
-2.26680022024084E-05,1.01910527519067E-05,1.93359375,0,0.00862881311360449
-2.35267561947694E-05,7.68585596233606E-06,1.93359375,0,0.00862881311360449
-2.34148501476739E-05,5.98876795265824E-06,1.93359375,0,0.00862881311360449
-2.46190411417047E-05,7.44005637898226E-06,1.93359375,0,0.00862881311360449
-2.44045331783127E-05,9.7069032563013E-06,1.93359375,0,0.00862881311360449
-2.30034202104434E-05,9.88915508060018E-06,1.93359375,0,0.00862881311360449
-2.05547094083158E-05,9.67746473179432E-06,1.93359375,0,0.00862881311360449
-2.02182436623843E-05,1.05071567304549E-05,1.93359375,0,0.00862881311360449
-1.86675952136284E-05,9.4019806056167E-06,1.93359375,0,0.00862881311360449
-2.71520930255065E-05,1.22907076729462E-05,1.93359375,0,0.00862881311360449
-2.05456180992769E-05,5.75056537854834E-06,1.93359375,0,0.00862881311360449
-2.57888914347859E-05,4.32440583608695E-06,1.93359375,0,0.00862881311360449
-2.40248355112271E-05,3.92730825637955E-08,1.93359375,0,0.00862881311360449
-2.70361779257655E-05,1.26050701965141E-06,1.93359375,0,0.00862881311360449
-2.47968710027635E-05,2.57261172009748E-06,1.93359375,0,0.00862881311360449
-2.5597984858905E-05,5.19074956173426E-06,1.93359375,0,0.00862881311360449
-2.55601862590993E-05,8.17537693365011E-06,1.93359375,0,0.00862881311360449
-2.51256369665498E-05,1.22468027257128E-05,1.93359375,0,0.00862881311360449
-2.3571261408506E-05,1.43577626658953E-05,1.93359375,0,0.00862881311360449
-2.20308011193993E-05,1.44993837238871E-05,1.93359375,0,0.00862881311360449
-2.41623765759869E-05,1.32219793158583E-05,1.93359375,0,0.00862881311360449
-2.48889155045617E-05,1.06580009742174E-05,1.93359375,0,0.00862881311360449
-2.65256549027981E-05,1.00972638392705E-05,1.93359375,0,0.00862881311360449
-2.56217608693987E-05,9.65325398283312E-06,1.93359375,0,0.00862881311360449
-2.59482530964306E-05,9.36821470531868E-06,1.93359375,0,0.00862881311360449
-2.46934414462885E-05,4.89051217300585E-06,1.93359375,0,0.00862881311360449
-2.58815780398436E-05,1.60306498742102E-07,1.93359375,0,0.00862881311360449
-2.55768518400146E-05,-1.6484946172568E-06,1.93359375,0,0.00862881311360449
-2.59033131442266E-05,3.3628177789069E-06,1.93359375,0,0.00862881311360449
-2.50253306148807E-05,9.73379428614862E-06,1.93359375,0,0.00862881311360449
-2.58360632869881E-05,1.15236543933861E-05,1.93359375,0,0.00862881311360449
-2.66350107267499E-05,8.05597210273845E-06,1.93359375,0,0.00862881311360449
-2.71808585239341E-05,6.60909790894948E-06,1.93359375,0,0.00862881311360449
-2.71195003733737E-05,8.19375145511003E-06,1.93359375,0,0.00862881311360449
-2.76544124062639E-05,1.03176153061213E-05,1.93359375,0,0.00862881311360449
-2.1644704247592E-05,6.81121809975593E-06,1.93359375,0,0.00862881311360449
-2.86676768155303E-05,7.04300055076601E-06,1.93359375,0,0.00862881311360449
-1.91285980690736E-05,4.19150683228509E-06,1.93359375,0,0.00862881311360449
-2.50308203249006E-05,8.58276143844705E-06,1.93359375,0,0.00862881311360449
-2.09331155929249E-05,6.24021004114184E-06,1.93359375,0,0.00862881311360449
-2.43943577515893E-05,7.13901636117953E-06,1.93359375,0,0.00862881311360449
-2.12284539884422E-05,9.88014835456852E-06,1.93359375,0,0.00862881311360449
-2.20683868974447E-05,1.58061920956243E-05,1.93359375,0,0.00862881311360449
-2.23104234464699E-05,1.75172772287624E-05,1.93359375,0,0.00862881311360449
-2.31143967539538E-05,1.56644600792788E-05,1.93359375,0,0.00862881311360449
-2.36072464758763E-05,1.38513978527044E-05,1.93359375,0,0.00862881311360449
-2.37193416978698E-05,1.19929636639426E-05,1.93359375,0,0.00862881311360449
-2.62353460129816E-05,1.08627382360282E-05,1.93359375,0,0.00862881311360449
-2.59230691881385E-05,1.01470768640866E-05,1.93359375,0,0.00862881311360449
-2.68131916527636E-05,1.21147586469306E-05,1.93359375,0,0.00862881311360449
-2.47781499638222E-05,1.2675463949563E-05,1.93359375,0,0.00862881311360449
-2.56181301665492E-05,1.28223282445106E-05,1.93359375,0,0.00862881311360449
-2.50076045631431E-05,1.13522019091761E-05,1.93359375,0,0.00862881311360449
-2.66168044618098E-05,1.08013955468778E-05,1.93359375,0,0.00862881311360449
-2.52058507612674E-05,1.03826787380967E-05,1.93359375,0,0.00862881311360449
-2.41176276176702E-05,1.08727472252212E-05,1.93359375,0,0.00862881311360449
-2.08596175070852E-05,1.11789295260678E-05,1.93359375,0,0.00862881311360449
-2.10199414141243E-05,1.19342275866074E-05,1.93359375,0,0.00862881311360449
-2.25393177970545E-05,1.15428510980564E-05,1.93359375,0,0.00862881311360449
-2.4044762540143E-05,1.13941641757265E-05,1.93359375,0,0.00862881311360449
-2.4289593056892E-05,1.23970639833715E-05,1.93359375,0,0.00862881311360449
-2.38841530517675E-05,1.28700012282934E-05,1.93359375,0,0.00862881311360449
-1.88057620107429E-05,9.67205687629757E-06,1.93359375,0,0.00862881311360449
-2.57667670666706E-05,1.43929491969175E-05,1.93359375,0,0.00862881311360449
-1.91617291420698E-05,1.16819101094734E-05,1.93359375,0,0.00862881311360449
-2.4092474632198E-05,1.22154324344592E-05,1.93359375,0,0.00862881311360449
-1.98815596377244E-05,9.1948331828462E-06,1.93359375,0,0.00862881311360449
-2.26876945816912E-05,1.30241032820777E-05,1.93359375,0,0.00862881311360449
-2.01441871467978E-05,1.40527754410869E-05,1.93359375,0,0.00862881311360449
-2.10605867323466E-05,1.29572435980663E-05,1.93359375,0,0.00862881311360449
-2.0971236153855E-05,9.18957266549114E-06,1.93359375,0,0.00862881311360449
-2.24737486860249E-05,9.13926305656787E-06,1.93359375,0,0.00862881311360449
-2.35007573792245E-05,1.19570504466537E-05,1.93359375,0,0.00862881311360449
-2.29504221351817E-05,1.45986323332181E-05,1.93359375,0,0.00862881311360449
-2.4412174752797E-05,1.57158483489184E-05,1.93359375,0,0.00862881311360449
-2.46387171500828E-05,1.39691537697217E-05,1.93359375,0,0.00862881311360449
-2.59994103544159E-05,1.28351302919327E-05,1.93359375,0,0.00862881311360449
-2.40132321778219E-05,1.02477524706046E-05,1.93359375,0,0.00862881311360449
-2.45454102696385E-05,8.46272814669646E-06,1.93359375,0,0.00862881311360449
-2.36466021306114E-05,6.34399248156114E-06,1.93359375,0,0.00862881311360449
-2.54814258369152E-05,7.32813168724533E-06,1.93359375,0,0.00862881311360449
-2.61139084614115E-05,9.16395856620511E-06,1.93359375,0,0.00862881311360449
-2.69263291556854E-05,1.24168327602092E-05,1.93359375,0,0.00862881311360449
-2.43727263296023E-05,1.41822683872306E-05,1.93359375,0,0.00862881311360449
-2.38646480283933E-05,1.50485248013865E-05,1.93359375,0,0.00862881311360449
-2.46011732087936E-05,1.38347613756196E-05,1.93359375,0,0.00862881311360449
-2.61314435192617E-05,1.15198145067552E-05,1.93359375,0,0.00862881311360449
-2.46274303208338E-05,9.28899680729955E-06,1.93359375,0,0.00862881311360449
-2.28714161494281E-05,8.56666702020448E-06,1.93359375,0,0.00862881311360449
-1.97522131202277E-05,7.91443653724855E-06,1.93359375,0,0.00862881311360449
-2.85736005025683E-05,1.13355799840065E-05,1.93359375,0,0.00862881311360449
-2.25419953494566E-05,8.26007908472093E-06,1.93359375,0,0.00862881311360449
-2.83785502688261E-05,1.09935117507121E-05,1.93359375,0,0.00862881311360449
-2.31339508900419E-05,1.060860358848E-05,1.93359375,0,0.00862881311360449
-2.28827721002745E-05,1.02631875051884E-05,1.93359375,0,0.00862881311360449
-2.00732592929853E-05,8.41402288642712E-06,1.93359375,0,0.00862881311360449
-2.2170086594997E-05,9.96662583929719E-06,1.93359375,0,0.00862881311360449
-2.20568745135097E-05,1.12934048956959E-05,1.93359375,0,0.00862881311360449
-2.05714477488073E-05,1.17921490527806E-05,1.93359375,0,0.00862881311360449
-2.0012897948618E-05,1.16862329377909E-05,1.93359375,0,0.00862881311360449
-2.1189647668507E-05,1.06705092548509E-05,1.93359375,0,0.00862881311360449
-2.38456032093382E-05,1.02854901342653E-05,1.93359375,0,0.00862881311360449
-2.26708543777931E-05,9.53811650106218E-06,1.93359375,0,0.00862881311360449
-2.24332616198808E-05,1.01993009593571E-05,1.93359375,0,0.00862881311360449
-2.03679664991796E-05,1.04363616628689E-05,1.93359375,0,0.00862881311360449
-2.15780746657401E-05,1.08634376374539E-05,1.93359375,0,0.00862881311360449
-2.22275102714775E-05,8.93935703061288E-06,1.93359375,0,0.00862881311360449
-2.48133601417067E-05,7.55058590584667E-06,1.93359375,0,0.00862881311360449
-2.37062431551749E-05,8.08271306595998E-06,1.93359375,0,0.00862881311360449
-2.25330732064322E-05,1.00018442026339E-05,1.93359375,0,0.00862881311360449
-2.12585746339755E-05,9.94761467154603E-06,1.93359375,0,0.00862881311360449
-2.24431441893103E-05,9.78920343186473E-06,1.93359375,0,0.00862881311360449
-2.25854219024768E-05,9.49569584918208E-06,1.93359375,0,0.00862881311360449
-2.2675081709167E-05,9.25739095691824E-06,1.93359375,0,0.00862881311360449
-2.25268649955979E-05,9.03922500583576E-06,1.93359375,0,0.00862881311360449
-2.24248051381437E-05,1.05496956166462E-05,1.93359375,0,0.00862881311360449
-1.9481294657453E-05,1.06164088720107E-05,1.93359375,0,0.00862881311360449
-2.8184826078359E-05,1.4306830962596E-05,1.93359375,0,0.00862881311360449
-2.12366467167158E-05,8.58690236782422E-06,1.93359375,0,0.00862881311360449
-2.45566898229299E-05,1.05364997580182E-05,1.93359375,0,0.00862881311360449
-1.90915761777433E-05,1.15025777631672E-05,1.93359375,0,0.00862881311360449
-2.14881474676076E-05,1.65807432495058E-05,1.93359375,0,0.00862881311360449
-2.06597724172752E-05,1.49197921928135E-05,1.93359375,0,0.00862881311360449
-2.28804965445306E-05,1.32677196233999E-05,1.93359375,0,0.00862881311360449
-2.28120115934871E-05,1.15691927931039E-05,1.93359375,0,0.00862881311360449
-2.21786140173208E-05,1.081079699361E-05,1.93359375,0,0.00862881311360449
-2.08195051527582E-05,1.15678121801466E-05,1.93359375,0,0.00862881311360449
-1.90962291526375E-05,1.18489533633692E-05,1.93359375,0,0.00862881311360449
-1.96049095393391E-05,1.11285262391903E-05,1.93359375,0,0.00862881311360449
-1.86779943760484E-05,8.72663713380462E-06,1.93359375,0,0.00862881311360449
-2.01829006982734E-05,7.95835057942895E-06,1.93359375,0,0.00862881311360449
-1.95096054085298E-05,8.03990678832633E-06,1.93359375,0,0.00862881311360449
-2.07498123927508E-05,1.04509281300125E-05,1.93359375,0,0.00862881311360449
-2.03542513190769E-05,1.07568375824485E-05,1.93359375,0,0.00862881311360449
-2.1871526769246E-05,1.08777749119326E-05,1.93359375,0,0.00862881311360449
-2.07927223527804E-05,1.05114622783731E-05,1.93359375,0,0.00862881311360449
-2.12532067962456E-05,1.17079271149123E-05,1.93359375,0,0.00862881311360449
-2.15402142202947E-05,1.21060520541505E-05,1.93359375,0,0.00862881311360449
-2.28238695854088E-05,1.36334992930642E-05,1.93359375,0,0.00862881311360449
-2.2823442122899E-05,1.53548953676363E-05,1.93359375,0,0.00862881311360449
-2.27118798648007E-05,1.60619129019324E-05,1.93359375,0,0.00862881311360449
-2.32910751947202E-05,1.5162727322604E-05,1.93359375,0,0.00862881311360449
-2.37734257098055E-05,1.39966368806199E-05,1.93359375,0,0.00862881311360449
-1.93492887774482E-05,9.67706546362024E-06,1.93359375,0,0.00862881311360449
-2.71985718427459E-05,1.37300758069614E-05,1.93359375,0,0.00862881311360449
-2.12126960832393E-05,1.04800346889533E-05,1.93359375,0,0.00862881311360449
-2.71796034212457E-05,1.24198713820078E-05,1.93359375,0,0.00862881311360449
-2.32114034588449E-05,1.03901265902095E-05,1.93359375,0,0.00862881311360449
-2.62343182839686E-05,1.3107642189425E-05,1.93359375,0,0.00862881311360449
-2.49816530413227E-05,1.3549277355196E-05,1.93359375,0,0.00862881311360449
-2.64695372607093E-05,1.54262197611388E-05,1.93359375,0,0.00862881311360449
-2.58516338362824E-05,1.60374456754653E-05,1.93359375,0,0.00862881311360449
-2.61345849139616E-05,1.68000406119972E-05,1.93359375,0,0.00862881311360449
-2.73804307653336E-05,1.69940776686417E-05,1.93359375,0,0.00862881311360449
-2.77619401458651E-05,1.56001042341813E-05,1.93359375,0,0.00862881311360449
-2.79033247352345E-05,1.41018617796362E-05,1.93359375,0,0.00862881311360449
-2.49945915129501E-05,1.26161457956186E-05,1.93359375,0,0.00862881311360449
-2.52917507168604E-05,1.40452875712072E-05,1.93359375,0,0.00862881311360449
-2.57337142102188E-05,1.43714978548815E-05,1.93359375,0,0.00862881311360449
-2.86570357275195E-05,1.50977184603107E-05,1.93359375,0,0.00862881311360449
-2.80224994639866E-05,1.44771374834818E-05,1.93359375,0,0.00862881311360449
-2.87519087578403E-05,1.39935646075173E-05,1.93359375,0,0.00862881311360449
-2.77106519206427E-05,1.1682573131111E-05,1.93359375,0,0.00862881311360449
-2.81207303487463E-05,1.06280886029708E-05,1.93359375,0,0.00862881311360449
-2.78923143923748E-05,1.08267431642162E-05,1.93359375,0,0.00862881311360449
-2.89954205072718E-05,1.18088582894416E-05,1.93359375,0,0.00862881311360449
-2.77407107205363E-05,1.04368464235449E-05,1.93359375,0,0.00862881311360449
-2.6433863240527E-05,8.54924655868672E-06,1.93359375,0,0.00862881311360449
-2.58870059042238E-05,6.76840409141732E-06,1.93359375,0,0.00862881311360449
-2.62240355368704E-05,6.93985248290119E-06,1.93359375,0,0.00862881311360449
-2.05566648219246E-05,8.59349802340148E-06,1.93359375,0,0.00862881311360449
-2.86977283394663E-05,1.3356592717173E-05,1.93359375,0,0.00862881311360449
-2.25157164095435E-05,1.11560430013924E-05,1.93359375,0,0.00862881311360449
-2.96072157652816E-05,1.21100874821423E-05,1.93359375,0,0.00862881311360449
-2.58967047557235E-05,8.98535290616564E-06,1.93359375,0,0.00862881311360449
-2.98638951790053E-05,8.71655265655136E-06,1.93359375,0,0.00862881311360449
-2.79757168755168E-05,8.60742329678033E-06,1.93359375,0,0.00862881311360449
-2.78010138572427E-05,1.13057622002088E-05,1.93359375,0,0.00862881311360449
-2.53957186941989E-05,1.16022665679338E-05,1.93359375,0,0.00862881311360449
-2.52958761848276E-05,1.14196764116059E-05,1.93359375,0,0.00862881311360449
-2.66587267105933E-05,1.24214493553154E-05,1.93359375,0,0.00862881311360449
-2.65550552285276E-05,1.31699325720547E-05,1.93359375,0,0.00862881311360449
-2.6656818590709E-05,1.3740695976594E-05,1.93359375,0,0.00862881311360449
-2.45865358010633E-05,1.34629717649659E-05,1.93359375,0,0.00862881311360449
-2.56192779488629E-05,1.42848357427283E-05,1.93359375,0,0.00862881311360449
-2.48728483711602E-05,1.19846436064108E-05,1.93359375,0,0.00862881311360449
-2.62960511463461E-05,7.47052808947046E-06,1.93359375,0,0.00862881311360449
-2.49631411861628E-05,1.38275038352731E-06,1.93359375,0,0.00862881311360449
-2.53184189205058E-05,2.39541293467482E-08,1.93359375,0,0.00862881311360449
-2.45851315412438E-05,3.80485880668857E-06,1.93359375,0,0.00862881311360449
-2.55624872806948E-05,8.89143120730296E-06,1.93359375,0,0.00862881311360449
-2.43021859205328E-05,8.99022506928304E-06,1.93359375,0,0.00862881311360449
-2.48546002694638E-05,7.21832702765823E-06,1.93359375,0,0.00862881311360449
-2.46600793616381E-05,7.65553431847366E-06,1.93359375,0,0.00862881311360449
-2.43489048443735E-05,1.06461293398752E-05,1.93359375,0,0.00862881311360449
-2.30685818678467E-05,1.35353393488913E-05,1.93359375,0,0.00862881311360449
-2.19964440475451E-05,1.46715501614381E-05,1.93359375,0,0.00862881311360449
-1.81278301170096E-05,9.66090283327503E-06,1.93359375,0,0.00862881311360449
-2.61113345914055E-05,1.15115317385062E-05,1.93359375,0,0.00862881311360449
-2.0082732589799E-05,6.07901802140987E-06,1.93359375,0,0.00862881311360449
-2.34424060181482E-05,8.55727012094576E-06,1.93359375,0,0.00862881311360449
-1.81457289727405E-05,5.54970483790385E-06,1.93359375,0,0.00862881311360449
-2.05507985810982E-05,6.57963073535939E-06,1.93359375,0,0.00862881311360449
-1.98601501324447E-05,5.25337327417219E-06,1.93359375,0,0.00862881311360449
-2.18161221710034E-05,5.5378804972861E-06,1.93359375,0,0.00862881311360449
-2.11441965802806E-05,5.70133488508873E-06,1.93359375,0,0.00862881311360449
-2.10524322028505E-05,6.76756553730229E-06,1.93359375,0,0.00862881311360449
-2.17591805267148E-05,7.08940979166073E-06,1.93359375,0,0.00862881311360449
-2.12058803299442E-05,6.42232453174074E-06,1.93359375,0,0.00862881311360449
-2.20717720367247E-05,6.41877159068827E-06,1.93359375,0,0.00862881311360449
-2.16970729525201E-05,4.64848562842235E-06,1.93359375,0,0.00862881311360449
-2.34075596381444E-05,4.04114689445123E-06,1.93359375,0,0.00862881311360449
-2.33790888160001E-05,4.43975204689195E-06,1.93359375,0,0.00862881311360449
-2.52617155638291E-05,8.04622141004074E-06,1.93359375,0,0.00862881311360449
-2.42959049501223E-05,9.33757019083714E-06,1.93359375,0,0.00862881311360449
-2.42708083533216E-05,8.80165134731214E-06,1.93359375,0,0.00862881311360449
-2.2284681108431E-05,6.84236374581815E-06,1.93359375,0,0.00862881311360449
-2.26889387704432E-05,7.7522045103251E-06,1.93359375,0,0.00862881311360449
-2.42773166974075E-05,9.15416876523523E-06,1.93359375,0,0.00862881311360449
-2.72017387032975E-05,9.10754442884354E-06,1.93359375,0,0.00862881311360449
-2.80544081761036E-05,4.6454342736979E-06,1.93359375,0,0.00862881311360449
-2.80347157968208E-05,-2.40062627199222E-06,1.93359375,0,0.00862881311360449
-2.70194195763906E-05,-7.4193490036123E-06,1.93359375,0,0.00862881311360449
-2.53504786087433E-05,-6.05461673330865E-06,1.93359375,0,0.00862881311360449
-2.0840121578658E-05,-3.66118513284164E-07,1.93359375,0,0.00862881311360449
-3.06491019728128E-05,2.53185157816915E-06,1.93359375,0,0.00862881311360449
-2.35980951401871E-05,7.47244030208094E-06,1.93359375,0,0.00862881311360449
-2.68196326942416E-05,1.20358936328557E-05,1.93359375,0,0.00862881311360449
-2.06179702217923E-05,1.73599746631226E-05,1.93359375,0,0.00862881311360449
-2.33858154388145E-05,1.88748635991942E-05,1.93359375,0,0.00862881311360449
-2.27901600737823E-05,1.87784353329334E-05,1.93359375,0,0.00862881311360449
-2.4654093067511E-05,1.61225852934876E-05,1.93359375,0,0.00862881311360449
-2.38110951613635E-05,1.34823649204918E-05,1.93359375,0,0.00862881311360449
-2.26418324018596E-05,1.1664921657939E-05,1.93359375,0,0.00862881311360449
-2.18593741010409E-05,9.97935421764851E-06,1.93359375,0,0.00862881311360449
-2.14358005905524E-05,8.2894612205564E-06,1.93359375,0,0.00862881311360449
-2.30967561947182E-05,7.0012356445659E-06,1.93359375,0,0.00862881311360449
-2.20499459828716E-05,8.43304405862E-06,1.93359375,0,0.00862881311360449
-2.20180081669241E-05,1.14205031422898E-05,1.93359375,0,0.00862881311360449
-2.03066465473967E-05,1.28007450257428E-05,1.93359375,0,0.00862881311360449
-2.17462020373205E-05,1.10477212729165E-05,1.93359375,0,0.00862881311360449
-2.12644299608655E-05,9.35256139200646E-06,1.93359375,0,0.00862881311360449
-2.31564154091757E-05,9.49235163716367E-06,1.93359375,0,0.00862881311360449
-2.37465392274316E-05,1.05621538750711E-05,1.93359375,0,0.00862881311360449
-2.46931213041535E-05,1.05833760244423E-05,1.93359375,0,0.00862881311360449
-2.22600519919069E-05,1.07501591628534E-05,1.93359375,0,0.00862881311360449
-2.09366316994419E-05,1.18288389785448E-05,1.93359375,0,0.00862881311360449
-2.1028990886407E-05,1.39690946525661E-05,1.93359375,0,0.00862881311360449
-2.31162357522408E-05,1.58080620167311E-05,1.93359375,0,0.00862881311360449
-2.43232534558047E-05,1.57358335854951E-05,1.93359375,0,0.00862881311360449
-2.43112626776565E-05,1.53620949276956E-05,1.93359375,0,0.00862881311360449
-1.98850320884958E-05,1.26245658975677E-05,1.93359375,0,0.00862881311360449
-2.86400045297341E-05,1.61915522767231E-05,1.93359375,0,0.00862881311360449
-2.27464843192138E-05,9.87183830147842E-06,1.93359375,0,0.00862881311360449
-2.83093959296821E-05,1.23374175018398E-05,1.93359375,0,0.00862881311360449
-2.49881759373238E-05,7.92704304330982E-06,1.93359375,0,0.00862881311360449
-2.89039635390509E-05,1.01751484180568E-05,1.93359375,0,0.00862881311360449
-2.67402774625225E-05,1.01703999462188E-05,1.93359375,0,0.00862881311360449
-2.72640299954219E-05,1.12817679109867E-05,1.93359375,0,0.00862881311360449
-2.62428111454938E-05,1.15573766379384E-05,1.93359375,0,0.00862881311360449
-2.61073128058342E-05,1.30137741507497E-05,1.93359375,0,0.00862881311360449
-2.52147001447156E-05,1.35790423883009E-05,1.93359375,0,0.00862881311360449
-2.30187361012213E-05,1.21949551612488E-05,1.93359375,0,0.00862881311360449
-2.33112896239618E-05,1.11188073788071E-05,1.93359375,0,0.00862881311360449
-2.236208456452E-05,9.56157782638911E-06,1.93359375,0,0.00862881311360449
-2.39474265981698E-05,1.05293293017894E-05,1.93359375,0,0.00862881311360449
-2.35428269661497E-05,1.01297537185019E-05,1.93359375,0,0.00862881311360449
-2.4881979697966E-05,1.11744448076934E-05,1.93359375,0,0.00862881311360449
-2.40347526414553E-05,1.17769577627769E-05,1.93359375,0,0.00862881311360449
-2.52874269790482E-05,1.37489041662775E-05,1.93359375,0,0.00862881311360449
-2.38956199609675E-05,1.27415414681309E-05,1.93359375,0,0.00862881311360449
-2.36398827837547E-05,1.22384981295909E-05,1.93359375,0,0.00862881311360449
-2.26305437536212E-05,1.22291739899083E-05,1.93359375,0,0.00862881311360449
-2.26801112148678E-05,1.41190203066799E-05,1.93359375,0,0.00862881311360449
-2.1820655092597E-05,1.32648501676158E-05,1.93359375,0,0.00862881311360449
-2.17676970351022E-05,9.86232771538198E-06,1.93359375,0,0.00862881311360449
-2.16705884668045E-05,6.87128613208188E-06,1.93359375,0,0.00862881311360449
-2.2635374989477E-05,6.70905319566373E-06,1.93359375,0,0.00862881311360449
-1.88000412890688E-05,6.69318478685454E-06,1.93359375,0,0.00862881311360449
-2.55094491876662E-05,1.13015203169198E-05,1.93359375,0,0.00862881311360449
-1.71293359017E-05,1.3843192391505E-05,1.93359375,0,0.00862881311360449
-2.14679112104932E-05,1.9713517758646E-05,1.93359375,0,0.00862881311360449
-1.84260079549858E-05,1.88542144314852E-05,1.93359375,0,0.00862881311360449
-2.16312510019634E-05,1.71510819200194E-05,1.93359375,0,0.00862881311360449
-1.94834501598962E-05,1.27998819152708E-05,1.93359375,0,0.00862881311360449
-1.98488796741003E-05,1.01041923699086E-05,1.93359375,0,0.00862881311360449
-1.89436614164151E-05,9.07757294044131E-06,1.93359375,0,0.00862881311360449
-2.02121482288931E-05,9.69575648923637E-06,1.93359375,0,0.00862881311360449
-2.20051315409364E-05,1.11060344352154E-05,1.93359375,0,0.00862881311360449
-2.20751080632908E-05,1.33714393086848E-05,1.93359375,0,0.00862881311360449
-2.26765841944143E-05,1.52708580571925E-05,1.93359375,0,0.00862881311360449
-2.17376818909543E-05,1.33688145069755E-05,1.93359375,0,0.00862881311360449
-2.33682367252186E-05,1.1314392395434E-05,1.93359375,0,0.00862881311360449
-2.28665321628796E-05,1.06152347143507E-05,1.93359375,0,0.00862881311360449
-2.34469916904345E-05,1.15247958092368E-05,1.93359375,0,0.00862881311360449
-2.21524751395918E-05,1.19141268442036E-05,1.93359375,0,0.00862881311360449
-2.30280056712218E-05,1.36764410854084E-05,1.93359375,0,0.00862881311360449
-2.16620865103323E-05,1.45332405736553E-05,1.93359375,0,0.00862881311360449
-2.12182621908141E-05,1.49654260894749E-05,1.93359375,0,0.00862881311360449
-1.94142976397416E-05,1.42838907777332E-05,1.93359375,0,0.00862881311360449
-2.04520692932419E-05,1.3167013094062E-05,1.93359375,0,0.00862881311360449
-2.18300701817498E-05,1.20601953312871E-05,1.93359375,0,0.00862881311360449
-2.38112570514204E-05,1.11004519567359E-05,2.109375,0,0.00862881311360449
-2.48700453084894E-05,9.30757505557267E-06,2.109375,0,0.00862881311360449
-2.55254035437247E-05,8.25922506919596E-06,2.109375,0,0.00862881311360449
-2.1650126655004E-05,7.49780838305014E-06,2.109375,0,0.00862881311360449
-3.10282994178124E-05,1.30009320855606E-05,2.109375,0,0.00862881311360449
-2.35837724176236E-05,1.28219862745027E-05,2.109375,0,0.00862881311360449
-2.8985685275984E-05,1.41854334287927E-05,2.109375,0,0.00862881311360449
-2.56318126048427E-05,1.28657593450043E-05,2.109375,0,0.00862881311360449
-3.00627907563467E-05,1.25201695482247E-05,2.109375,0,0.00862881311360449
-2.8198226573295E-05,9.0156481746817E-06,2.109375,0,0.00862881311360449
-2.95018744509434E-05,7.90314425103134E-06,2.109375,0,0.00862881311360449
-2.86878112092381E-05,7.46838895793189E-06,2.109375,0,0.00862881311360449
-2.82353539660107E-05,8.9575760284788E-06,2.109375,0,0.00862881311360449
-2.77758044830989E-05,1.0168651897402E-05,2.109375,0,0.00862881311360449
-2.65964845311828E-05,9.63607817539014E-06,2.109375,0,0.00862881311360449
-2.71621283900458E-05,8.45012255012989E-06,2.109375,0,0.00862881311360449
-2.52579884545412E-05,7.42158272259985E-06,2.109375,0,0.00862881311360449
-2.56866060226457E-05,8.40371467347723E-06,2.109375,0,0.00862881311360449
-2.38474076468265E-05,8.21174580778461E-06,2.109375,0,0.00862881311360449
-2.43655595113523E-05,8.12748930911766E-06,2.109375,0,0.00862881311360449
-2.27711407205788E-05,7.66743687563576E-06,2.109375,0,0.00862881311360449
-2.39525907090865E-05,8.17998261481989E-06,2.109375,0,0.00862881311360449
-2.36782889260212E-05,7.90281319495989E-06,2.109375,0,0.00862881311360449
-2.35740080825053E-05,7.75667831476312E-06,2.109375,0,0.00862881311360449
-2.03809686354361E-05,6.91362174620735E-06,2.109375,0,0.00862881311360449
-1.8695522157941E-05,7.84954227128765E-06,2.109375,0,0.00862881311360449
-1.8247970729135E-05,9.45402825891506E-06,2.109375,0,0.00862881311360449
-1.9168383005308E-05,1.0614837265166E-05,2.109375,0,0.00862881311360449
-1.83586562343407E-05,1.06090865301667E-05,2.109375,0,0.00862881311360449
-1.78950340341544E-05,1.1272950359853E-05,2.109375,0,0.00862881311360449
-1.65110814123182E-05,9.52888694882859E-06,2.109375,0,0.00862881311360449
-2.39017026615329E-05,1.36793278215919E-05,2.109375,0,0.00862881311360449
-1.85239368875045E-05,1.07661880974774E-05,2.109375,0,0.00862881311360449
-2.28262488235487E-05,1.38659179356182E-05,2.109375,0,0.00862881311360449
-2.02264454856049E-05,1.22731416922761E-05,2.109375,0,0.00862881311360449
-2.30352507060161E-05,1.24248535939842E-05,2.109375,0,0.00862881311360449
-2.23105489567388E-05,9.554182724969E-06,2.109375,0,0.00862881311360449
-2.36078740272205E-05,9.08065067051211E-06,2.109375,0,0.00862881311360449
-2.20717156480532E-05,9.22241179068806E-06,2.109375,0,0.00862881311360449
-2.0688705262728E-05,1.12354573502671E-05,2.109375,0,0.00862881311360449
-2.04737043532077E-05,1.23900736070937E-05,2.109375,0,0.00862881311360449
-1.97821245819796E-05,1.10843429865781E-05,2.109375,0,0.00862881311360449
-2.1329087758204E-05,9.23670631891582E-06,2.109375,0,0.00862881311360449
-2.1354866476031E-05,7.23739958630176E-06,2.109375,0,0.00862881311360449
-2.2037151211407E-05,7.97449411038542E-06,2.109375,0,0.00862881311360449
-2.08142555493396E-05,7.63893058319809E-06,2.109375,0,0.00862881311360449
-2.22408561967313E-05,7.63115258450853E-06,2.109375,0,0.00862881311360449
-2.19513658521464E-05,7.1512645263283E-06,2.109375,0,0.00862881311360449
-2.26099782594247E-05,8.5891997514409E-06,2.109375,0,0.00862881311360449
-2.19644280150533E-05,9.6250269052689E-06,2.109375,0,0.00862881311360449
-2.28652770601911E-05,1.07263113022782E-05,2.109375,0,0.00862881311360449
-2.29427369049517E-05,1.05466733657522E-05,2.109375,0,0.00862881311360449
-2.29647521337029E-05,1.21019284051727E-05,2.109375,0,0.00862881311360449
-2.3715556380921E-05,1.35769505504868E-05,2.109375,0,0.00862881311360449
-2.57895226241089E-05,1.44271361932624E-05,2.109375,0,0.00862881311360449
-2.54392143688165E-05,1.32860104713473E-05,2.109375,0,0.00862881311360449
-2.47820553340716E-05,1.17253048301791E-05,2.109375,0,0.00862881311360449
-2.19268440559972E-05,8.43799352878705E-06,2.109375,0,0.00862881311360449
-3.23308195220307E-05,1.20029362733476E-05,2.109375,0,0.00862881311360449
-2.47140324063366E-05,1.00236666185083E-05,2.109375,0,0.00862881311360449
-2.85482910840074E-05,1.19809837997309E-05,2.109375,0,0.00862881311360449
-2.40034096350428E-05,8.91511444933712E-06,2.109375,0,0.00862881311360449
-2.74938156508142E-05,1.06095467344858E-05,2.109375,0,0.00862881311360449
-2.51108776865294E-05,9.90210628515342E-06,2.109375,0,0.00862881311360449
-2.50699104071828E-05,1.06230309029343E-05,2.109375,0,0.00862881311360449
-2.35911102208775E-05,1.16937035272713E-05,2.109375,0,0.00862881311360449
-2.41647194343386E-05,1.34477359097218E-05,2.109375,0,0.00862881311360449
-2.52948393608676E-05,1.4041000213183E-05,2.109375,0,0.00862881311360449
-2.55197173828492E-05,1.35010595840868E-05,2.109375,0,0.00862881311360449
-2.73257046501385E-05,1.32067916638334E-05,2.109375,0,0.00862881311360449
-2.66362094407668E-05,1.15855045805802E-05,2.109375,0,0.00862881311360449
-2.75079200946493E-05,1.17726667667739E-05,2.109375,0,0.00862881311360449
-2.58978416241007E-05,1.10933387986734E-05,2.109375,0,0.00862881311360449
-2.66779716184828E-05,1.06705192592926E-05,2.109375,0,0.00862881311360449
-2.48485721385805E-05,1.04637210824876E-05,2.109375,0,0.00862881311360449
-2.50134580710437E-05,1.23810814329772E-05,2.109375,0,0.00862881311360449
-2.45102000917541E-05,1.28350975501235E-05,2.109375,0,0.00862881311360449
-2.64562586380634E-05,1.30492035168572E-05,2.109375,0,0.00862881311360449
-2.5183735488099E-05,1.20396189231542E-05,2.109375,0,0.00862881311360449
-2.29183624469442E-05,1.03912752820179E-05,2.109375,0,0.00862881311360449
-2.05992546398193E-05,8.950500159699E-06,2.109375,0,0.00862881311360449
-2.08164728974225E-05,1.00471288533299E-05,2.109375,0,0.00862881311360449
-2.2283595171757E-05,9.50823232415132E-06,2.109375,0,0.00862881311360449
-2.30618934438098E-05,7.35360163162113E-06,2.109375,0,0.00862881311360449
-1.75794812093955E-05,4.09473841500585E-06,2.109375,0,0.00862881311360449
-2.38954708038364E-05,5.40277142135892E-06,2.109375,0,0.00862881311360449
-1.80205115611898E-05,5.5033078751876E-06,2.109375,0,0.00862881311360449
-2.40742338064592E-05,7.38403923605802E-06,2.109375,0,0.00862881311360449
-2.07281354960287E-05,4.64657387055922E-06,2.109375,0,0.00862881311360449
-2.34290364460321E-05,4.74499802294304E-06,2.109375,0,0.00862881311360449
-2.30949644901557E-05,4.59396778751398E-06,2.109375,0,0.00862881311360449
-2.76728987955721E-05,6.70859981255489E-06,2.109375,0,0.00862881311360449
-2.98381091852207E-05,1.00435108834063E-05,2.109375,0,0.00862881311360449
-2.98295108223101E-05,1.30235766846454E-05,2.109375,0,0.00862881311360449
-2.85198748315452E-05,1.36500775624881E-05,2.109375,0,0.00862881311360449
-2.69335851044161E-05,1.34691190396552E-05,2.109375,0,0.00862881311360449
-2.69206448137993E-05,1.51377380461781E-05,2.109375,0,0.00862881311360449
-2.5012801415869E-05,1.65544406627305E-05,2.109375,0,0.00862881311360449
-2.57884930761065E-05,1.73674852703698E-05,2.109375,0,0.00862881311360449
-2.57561150647234E-05,1.69801751326304E-05,2.109375,0,0.00862881311360449
-2.81975972029613E-05,1.63096392498119E-05,2.109375,0,0.00862881311360449
-2.74455323960865E-05,1.33205312522477E-05,2.109375,0,0.00862881311360449
-2.64865993813146E-05,1.11370090962737E-05,2.109375,0,0.00862881311360449
-2.40604767896002E-05,1.04448445199523E-05,2.109375,0,0.00862881311360449
-2.51143428613432E-05,1.06119714473607E-05,2.109375,0,0.00862881311360449
-2.56925941357622E-05,1.01547684607795E-05,2.109375,0,0.00862881311360449
-2.59000316873426E-05,1.00276665762067E-05,2.109375,0,0.00862881311360449
-2.54733367910376E-05,9.42241422308143E-06,2.109375,0,0.00862881311360449
-2.65349499386502E-05,9.05922661331715E-06,2.109375,0,0.00862881311360449
-2.70437449216843E-05,7.76808064983925E-06,2.109375,0,0.00862881311360449
-2.75603651971323E-05,6.47720435154042E-06,2.109375,0,0.00862881311360449
-2.11089645745233E-05,5.30608940607635E-06,2.109375,0,0.00862881311360449
-2.7885125746252E-05,8.20901095721638E-06,2.109375,0,0.00862881311360449
-1.86731704161502E-05,7.58729674998904E-06,2.109375,0,0.00862881311360449
-2.47207135544159E-05,9.47724493016722E-06,2.109375,0,0.00862881311360449
-2.14221527130576E-05,8.19299384602346E-06,2.109375,0,0.00862881311360449
-2.55382256000303E-05,8.41753171698656E-06,2.109375,0,0.00862881311360449
-2.21796526602702E-05,7.10277254256653E-06,2.109375,0,0.00862881311360449
-2.24647446884774E-05,8.05186027719174E-06,2.109375,0,0.00862881311360449
-2.21002865146147E-05,1.09396505649784E-05,2.109375,0,0.00862881311360449
-2.27391483349493E-05,1.27749081002548E-05,2.109375,0,0.00862881311360449
-2.33336904784665E-05,1.12758043542271E-05,2.109375,0,0.00862881311360449
-2.14470437640557E-05,9.14860720513389E-06,2.109375,0,0.00862881311360449
-2.14613992284285E-05,9.12765244720504E-06,2.109375,0,0.00862881311360449
-2.04836214834359E-05,9.72050474956632E-06,2.109375,0,0.00862881311360449
-2.27038181037642E-05,9.84601047093747E-06,2.109375,0,0.00862881311360449
-2.20934762182878E-05,8.73005410539918E-06,2.109375,0,0.00862881311360449
-2.26956744882045E-05,8.67636026669061E-06,2.109375,0,0.00862881311360449
-2.07288285309915E-05,7.93450089986436E-06,2.109375,0,0.00862881311360449
-2.18497571040643E-05,7.13349982106593E-06,2.109375,0,0.00862881311360449
-2.25895728362957E-05,5.21104402650963E-06,2.109375,0,0.00862881311360449
-2.56032035395037E-05,4.27750319431652E-06,2.109375,0,0.00862881311360449
-2.64835762209259E-05,4.87662418890977E-06,2.109375,0,0.00862881311360449
-2.66368260781746E-05,6.59388160784147E-06,2.109375,0,0.00862881311360449
-2.4439152184641E-05,7.24718802302959E-06,2.109375,0,0.00862881311360449
-2.3393160518026E-05,6.59467423247406E-06,2.109375,0,0.00862881311360449
-2.33534792641876E-05,5.66410562896635E-06,2.109375,0,0.00862881311360449
-2.37130279856501E-05,6.62067031953484E-06,2.109375,0,0.00862881311360449
-1.87991263373988E-05,6.39347808828461E-06,2.109375,0,0.00862881311360449
-2.57748561125482E-05,8.04752562544309E-06,2.109375,0,0.00862881311360449
-1.99118276213994E-05,4.89562398797716E-06,2.109375,0,0.00862881311360449
-2.71777389571071E-05,8.37842890177853E-06,2.109375,0,0.00862881311360449
-2.42315436480567E-05,9.40156496653799E-06,2.109375,0,0.00862881311360449
-2.61901332123671E-05,1.09536931631737E-05,2.109375,0,0.00862881311360449
-2.2972622900852E-05,1.09369902929757E-05,2.109375,0,0.00862881311360449
-2.39488508668728E-05,1.20157346827909E-05,2.109375,0,0.00862881311360449
-2.37201038544299E-05,1.16279652502271E-05,2.109375,0,0.00862881311360449
-2.45942756009754E-05,1.08458507384057E-05,2.109375,0,0.00862881311360449
-2.5428493245272E-05,1.00882043625461E-05,2.109375,0,0.00862881311360449
-2.49773784162244E-05,1.07035602923133E-05,2.109375,0,0.00862881311360449
-2.55007980740629E-05,1.18288862722693E-05,2.109375,0,0.00862881311360449
-2.35912502830615E-05,1.11217950689024E-05,2.109375,0,0.00862881311360449
-2.35602128668688E-05,1.15000239020446E-05,2.109375,0,0.00862881311360449
-2.17117194551975E-05,1.1939346222789E-05,2.109375,0,0.00862881311360449
-2.19756184378639E-05,1.23292147691245E-05,2.109375,0,0.00862881311360449
-1.99936803255696E-05,1.09351976789185E-05,2.109375,0,0.00862881311360449
-2.03807139769197E-05,1.16773981062579E-05,2.109375,0,0.00862881311360449
-1.94627991731977E-05,1.41522305057151E-05,2.109375,0,0.00862881311360449
-2.03554081963375E-05,1.5791392797837E-05,2.109375,0,0.00862881311360449
-2.02679984795395E-05,1.39669446070911E-05,2.109375,0,0.00862881311360449
-2.19489102164516E-05,1.20285740194959E-05,2.109375,0,0.00862881311360449
-2.30439945880789E-05,1.15938646558789E-05,2.109375,0,0.00862881311360449
-2.40666213358054E-05,1.24351208796725E-05,2.109375,0,0.00862881311360449
-2.42373989749467E-05,1.30967573568341E-05,2.109375,0,0.00862881311360449
-2.34835442824988E-05,1.39650983328465E-05,2.109375,0,0.00862881311360449
-1.92158604477299E-05,1.1166102012794E-05,2.109375,0,0.00862881311360449
-2.80544318229659E-05,1.46819647852681E-05,2.109375,0,0.00862881311360449
-2.1708832719014E-05,9.11414554138901E-06,2.109375,0,0.00862881311360449
-2.59002117672935E-05,1.20587101264391E-05,2.109375,0,0.00862881311360449
-2.26540432777256E-05,1.177341073344E-05,2.109375,0,0.00862881311360449
-2.6718806111603E-05,1.59650644491194E-05,2.109375,0,0.00862881311360449
-2.57745923590846E-05,1.41943310154602E-05,2.109375,0,0.00862881311360449
-2.60791966866236E-05,1.20665326903691E-05,2.109375,0,0.00862881311360449
-2.39990222326014E-05,1.08214790088823E-05,2.109375,0,0.00862881311360449
-2.37878630287014E-05,1.12368097688886E-05,2.109375,0,0.00862881311360449
-2.46740601141937E-05,1.24302614494809E-05,2.109375,0,0.00862881311360449
-2.46621184487594E-05,1.31364622575347E-05,2.109375,0,0.00862881311360449
-2.54598198807798E-05,1.46275006045471E-05,2.109375,0,0.00862881311360449
-2.47789121203823E-05,1.51741487570689E-05,2.109375,0,0.00862881311360449
-2.70071377599379E-05,1.59085739142029E-05,2.109375,0,0.00862881311360449
-2.6921905373456E-05,1.41038317451603E-05,2.109375,0,0.00862881311360449
-2.72195138677489E-05,1.27114217320923E-05,2.109375,0,0.00862881311360449
-2.4246492102975E-05,1.04499576991657E-05,2.109375,0,0.00862881311360449
-2.34088274737587E-05,1.02249005067279E-05,2.109375,0,0.00862881311360449
-2.24905434151879E-05,9.34248237172142E-06,2.109375,0,0.00862881311360449
-2.4066948753898E-05,9.4143424576032E-06,2.109375,0,0.00862881311360449
-2.42462901951512E-05,1.04011533039738E-05,2.109375,0,0.00862881311360449
-2.54924489127006E-05,1.27272714962601E-05,2.109375,0,0.00862881311360449
-2.5320583517896E-05,1.18906646093819E-05,2.109375,0,0.00862881311360449
-2.36172763834475E-05,1.02937519841362E-05,2.109375,0,0.00862881311360449
-2.10827529372182E-05,1.01991718111094E-05,2.109375,0,0.00862881311360449
-2.04088810278336E-05,1.20322265502182E-05,2.109375,0,0.00862881311360449
-1.7581593056093E-05,1.0751471563708E-05,2.109375,0,0.00862881311360449
-2.63911369984271E-05,1.35818117996678E-05,2.109375,0,0.00862881311360449
-2.11442784348037E-05,7.01597082297667E-06,2.109375,0,0.00862881311360449
-2.43402864725795E-05,8.13691804069094E-06,2.109375,0,0.00862881311360449
-2.03112340386724E-05,5.75919011680526E-06,2.109375,0,0.00862881311360449
-2.23322495003231E-05,8.31029774417402E-06,2.109375,0,0.00862881311360449
-1.98073248611763E-05,7.04531294104527E-06,2.109375,0,0.00862881311360449
-1.89491584023926E-05,6.9887450990791E-06,2.109375,0,0.00862881311360449
-1.67963407875504E-05,7.24300662113819E-06,2.109375,0,0.00862881311360449
-1.69632821780397E-05,9.17910529096844E-06,2.109375,0,0.00862881311360449
-1.83516676770523E-05,1.10250502984854E-05,2.109375,0,0.00862881311360449
-1.94217846001266E-05,1.07918358480674E-05,2.109375,0,0.00862881311360449
-2.13910989259603E-05,1.02226658782456E-05,2.109375,0,0.00862881311360449
-2.14314568438567E-05,8.80144580150954E-06,2.109375,0,0.00862881311360449
-2.24135055759689E-05,1.01899231594871E-05,2.109375,0,0.00862881311360449
-2.07184621103806E-05,1.18337802632595E-05,2.109375,0,0.00862881311360449
-2.04078078240855E-05,1.43093930091709E-05,2.109375,0,0.00862881311360449
-1.90929094969761E-05,1.41121045089676E-05,2.109375,0,0.00862881311360449
-2.12377890420612E-05,1.31041342683602E-05,2.109375,0,0.00862881311360449
-2.25061849050689E-05,1.07378355096444E-05,2.109375,0,0.00862881311360449
-2.43493705056608E-05,9.89161890174728E-06,2.109375,0,0.00862881311360449
-2.47973039222416E-05,8.3833347161999E-06,2.109375,0,0.00862881311360449
-2.56893472396769E-05,8.14822215033928E-06,2.109375,0,0.00862881311360449
-2.44605125772068E-05,7.66739140090067E-06,2.109375,0,0.00862881311360449
-2.41383313550614E-05,6.63690070723533E-06,2.109375,0,0.00862881311360449
-2.50606735789916E-05,5.29537419424742E-06,2.109375,0,0.00862881311360449
-2.59803546214243E-05,5.69789153814781E-06,2.109375,0,0.00862881311360449
-2.11022943403805E-05,6.14966302237008E-06,2.109375,0,0.00862881311360449
-3.03899960272247E-05,8.5522660810966E-06,2.109375,0,0.00862881311360449
-2.35592651733896E-05,6.85086070006946E-06,2.109375,0,0.00862881311360449
-2.78792340395739E-05,9.98844370769802E-06,2.109375,0,0.00862881311360449
-2.11652477446478E-05,1.04227265182999E-05,2.109375,0,0.00862881311360449
-2.21393220272148E-05,1.25241522255237E-05,2.109375,0,0.00862881311360449
-1.96136261365609E-05,1.1815182006103E-05,2.109375,0,0.00862881311360449
-2.1902322259848E-05,1.09494603748317E-05,2.109375,0,0.00862881311360449
-2.15694817597978E-05,1.09728543975507E-05,2.109375,0,0.00862881311360449
-2.21059635805432E-05,1.04838800325524E-05,2.109375,0,0.00862881311360449
-2.4005556042539E-05,9.76150568021694E-06,2.109375,0,0.00862881311360449
-2.51759538514307E-05,1.02919220807962E-05,2.109375,0,0.00862881311360449
-2.65737999143312E-05,1.17626905193902E-05,2.109375,0,0.00862881311360449
-2.38880802498898E-05,1.17220461106626E-05,2.109375,0,0.00862881311360449
-2.36098967434373E-05,1.1547304893611E-05,2.109375,0,0.00862881311360449
-2.32983820751542E-05,1.12324614747195E-05,2.109375,0,0.00862881311360449
-2.66132101387484E-05,1.21971761473105E-05,2.109375,0,0.00862881311360449
-2.65538164967438E-05,1.19332698886865E-05,2.109375,0,0.00862881311360449
-2.67493251158157E-05,1.10744804260321E-05,2.109375,0,0.00862881311360449
-2.50801349466201E-05,9.63644470175495E-06,2.109375,0,0.00862881311360449
-2.63784604612738E-05,9.1198371592327E-06,2.109375,0,0.00862881311360449
-2.66206425294513E-05,8.59948431752855E-06,2.109375,0,0.00862881311360449
-2.69120464508887E-05,8.25172355689574E-06,2.109375,0,0.00862881311360449
-2.61319419223582E-05,7.08795369064319E-06,2.109375,0,0.00862881311360449
-2.70126711257035E-05,7.60853390602279E-06,2.109375,0,0.00862881311360449
-2.71493790933164E-05,1.0327823474654E-05,2.109375,0,0.00862881311360449
-2.59873559116386E-05,1.29927748275804E-05,2.109375,0,0.00862881311360449
-1.97535209736088E-05,1.16946757771075E-05,2.109375,0,0.00862881311360449
-2.7917147235712E-05,1.65244509844342E-05,2.109375,0,0.00862881311360449
-2.19641733565368E-05,1.24801717902301E-05,2.98828125,0,0.00862881311360449
-2.84430716419593E-05,1.62578835443128E-05,2.98828125,0,0.00862881311360449
-2.4328839572263E-05,1.42820654218667E-05,2.98828125,0,0.00862881311360449
-2.65352446149336E-05,1.56198020704323E-05,2.98828125,0,0.00862881311360449
-2.42850255744997E-05,1.32225823108456E-05,2.98828125,0,0.00862881311360449
-2.48276319325669E-05,1.21316998047405E-05,2.98828125,0,0.00862881311360449
-2.38917782553472E-05,1.10237233457156E-05,2.98828125,0,0.00862881311360449
-2.46941253863042E-05,1.11491353891324E-05,2.98828125,0,0.00862881311360449
-2.54240912909154E-05,1.15494012788986E-05,2.98828125,0,0.00862881311360449
-2.38291213463526E-05,1.21915863928734E-05,2.98828125,0,0.00862881311360449
-2.29210309043992E-05,1.29288746393286E-05,2.98828125,0,0.00862881311360449
-2.11484439205378E-05,9.91216165857622E-06,2.98828125,0,0.00862881311360449
-2.2252384951571E-05,7.46395426176605E-06,2.98828125,0,0.00862881311360449
-2.13382973015541E-05,5.44597423868254E-06,2.98828125,0,0.00862881311360449
-2.30093610298354E-05,6.57203281662078E-06,2.98828125,0,0.00862881311360449
-2.33913615375059E-05,9.14750125957653E-06,2.98828125,0,0.00862881311360449
-2.56490293395473E-05,1.49673824125784E-05,2.98828125,0,0.00862881311360449
-2.53011057793628E-05,1.83705142262625E-05,2.98828125,0,0.00862881311360449
-2.54655096796341E-05,1.98926736629801E-05,2.98828125,0,0.00862881311360449
-2.3869311917224E-05,1.832248926803E-05,2.98828125,0,0.00862881311360449
-2.45459614234278E-05,1.54046774696326E-05,2.98828125,0,0.00862881311360449
-2.48016876867041E-05,1.25144288176671E-05,2.98828125,0,0.00862881311360449
-2.46785693889251E-05,1.16321425593924E-05,2.98828125,0,0.00862881311360449
-2.44883776758797E-05,1.12819143396337E-05,2.98828125,0,0.00862881311360449
-2.37368003581651E-05,1.16397095553111E-05,2.98828125,0,0.00862881311360449
-1.81267641892191E-05,9.40010158956284E-06,2.98828125,0,0.00862881311360449
-2.57183237408753E-05,1.17680265248055E-05,2.98828125,0,0.00862881311360449
-1.98879242816474E-05,6.75425371809979E-06,2.98828125,0,0.00862881311360449
-2.55046143138316E-05,9.04352327779634E-06,2.98828125,0,0.00862881311360449
-2.16203479794785E-05,7.86313739808975E-06,2.98828125,0,0.00862881311360449
-2.22138696699403E-05,1.04405189631507E-05,2.98828125,0,0.00862881311360449
-1.90393893717555E-05,7.45282659408986E-06,2.98828125,0,0.00862881311360449
-2.04693897103425E-05,4.77328012493672E-06,2.98828125,0,0.00862881311360449
-2.06930271815509E-05,4.22843731939793E-06,2.98828125,0,0.00862881311360449
-2.05256346816896E-05,5.14310113430838E-06,2.98828125,0,0.00862881311360449
-2.06983568205033E-05,6.10338383921771E-06,2.98828125,0,0.00862881311360449
-2.09689205803443E-05,6.44810234007309E-06,2.98828125,0,0.00862881311360449
-2.27152577281231E-05,6.95540575179621E-06,2.98828125,0,0.00862881311360449
-2.2120017092675E-05,6.01059628024814E-06,2.98828125,0,0.00862881311360449
-2.32465172302909E-05,5.88367220188957E-06,2.98828125,0,0.00862881311360449
-2.3202866941574E-05,5.19172363055986E-06,2.98828125,0,0.00862881311360449
-2.52146965067368E-05,6.59729494145722E-06,2.98828125,0,0.00862881311360449
-2.46394192799926E-05,7.50561957829632E-06,2.98828125,0,0.00862881311360449
-2.5593712052796E-05,8.48815489007393E-06,2.98828125,0,0.00862881311360449
-2.50478315138025E-05,7.09810819898848E-06,2.98828125,0,0.00862881311360449
-2.58189757005312E-05,7.55025303078583E-06,2.98828125,0,0.00862881311360449
-2.55678696703399E-05,9.82313576969318E-06,2.98828125,0,0.00862881311360449
-2.63542897300795E-05,1.20154618343804E-05,2.98828125,0,0.00862881311360449
-2.56203074968653E-05,1.14681088234647E-05,2.98828125,0,0.00862881311360449
-2.52096288022585E-05,1.02223884823616E-05,2.98828125,0,0.00862881311360449
-2.65727303485619E-05,1.01914220067556E-05,2.98828125,0,0.00862881311360449
-2.88298924715491E-05,1.12993311631726E-05,2.98828125,0,0.00862881311360449
-2.38164866459556E-05,1.0217961971648E-05,2.98828125,0,0.00862881311360449
-3.29535942000803E-05,1.5426829122589E-05,2.98828125,0,0.00862881311360449
-2.35802508541383E-05,1.25318256323226E-05,2.98828125,0,0.00862881311360449
-3.06162510241847E-05,1.43910910992417E-05,2.98828125,0,0.00862881311360449
-2.64018763118656E-05,1.18565158118145E-05,2.98828125,0,0.00862881311360449
-2.90607695205836E-05,1.23910349429934E-05,2.98828125,0,0.00862881311360449
-2.56476923823357E-05,1.08279600681271E-05,2.98828125,0,0.00862881311360449
-2.67464929493144E-05,1.2532751497929E-05,2.98828125,0,0.00862881311360449
-2.63207184616476E-05,1.36780736283981E-05,2.98828125,0,0.00862881311360449
-2.59471144090639E-05,1.37936895043822E-05,2.98828125,0,0.00862881311360449
-2.56197017733939E-05,1.25600854516961E-05,2.98828125,0,0.00862881311360449
-2.44771035795566E-05,1.18672442113166E-05,2.98828125,0,0.00862881311360449
-2.47841471718857E-05,1.30709968289011E-05,2.98828125,0,0.00862881311360449
-2.26751981244888E-05,1.23208528748364E-05,2.98828125,0,0.00862881311360449
-2.37697731790831E-05,1.19519272629987E-05,2.98828125,0,0.00862881311360449
-2.2257496311795E-05,1.12126290332526E-05,2.98828125,0,0.00862881311360449
-2.24319210246904E-05,1.27135608636308E-05,2.98828125,0,0.00862881311360449
-2.05771902983543E-05,1.38954792419099E-05,2.98828125,0,0.00862881311360449
-2.23658298637019E-05,1.53013643284794E-05,2.98828125,0,0.00862881311360449
-2.22667604248272E-05,1.27100374811562E-05,2.98828125,0,0.00862881311360449
-2.192558531533E-05,8.56412498251302E-06,2.98828125,0,0.00862881311360449
-1.81423456524499E-05,4.99392444908153E-06,2.98828125,0,0.00862881311360449
-1.6678764950484E-05,4.37632616012706E-06,2.98828125,0,0.00862881311360449
-1.67383823281853E-05,5.55033375349012E-06,2.98828125,0,0.00862881311360449
-1.77178408193868E-05,7.80143545853207E-06,2.98828125,0,0.00862881311360449
-1.74102933669928E-05,8.19035722088302E-06,2.98828125,0,0.00862881311360449
-1.69935174199054E-05,6.74005877954187E-06,2.98828125,0,0.00862881311360449
-1.42001081258059E-05,5.05975731357466E-06,2.98828125,0,0.00862881311360449
-2.07419689104427E-05,7.79518086346798E-06,2.98828125,0,0.00862881311360449
-1.6713323930162E-05,6.05374134465819E-06,2.98828125,0,0.00862881311360449
-2.0975941879442E-05,6.34741581961862E-06,2.98828125,0,0.00862881311360449
-1.85679891728796E-05,6.13083466305397E-06,2.98828125,0,0.00862881311360449
-2.00497215701034E-05,7.71929717302555E-06,2.98828125,0,0.00862881311360449
-1.84061118488899E-05,7.76758315623738E-06,2.98828125,0,0.00862881311360449
-1.91561302926857E-05,9.61033856583526E-06,2.98828125,0,0.00862881311360449
-1.89070178748807E-05,1.14310678327456E-05,2.98828125,0,0.00862881311360449
-2.00673075596569E-05,1.26397817439283E-05,2.98828125,0,0.00862881311360449
