biceps_emg, triceps_emg, subject_position, position_estimate, brace_position
-1.98628895304864E-05,1.46883703564527E-05,0.52734375,0,0
-1.96990895346971E-05,1.23628697110689E-05,0.52734375,0,0
-2.21099035115913E-05,1.10834616862121E-05,0.52734375,0,0
-2.15563595702406E-05,9.8249429356656E-06,0.52734375,0,0
-2.24763080041157E-05,8.84274140844354E-06,0.52734375,0,0
-2.4171784389182E-05,6.85006261846866E-06,0.52734375,0,0
-2.7876885724254E-05,5.95931942370953E-06,0.52734375,0,0
-2.87103175651282E-05,6.76746276440099E-06,0.52734375,0,0
-2.74759622698184E-05,8.7380703917006E-06,0.52734375,0,0
-2.54424012382515E-05,1.02543590401183E-05,0.52734375,0,0
-2.52216250373749E-05,9.91998331301147E-06,0.52734375,0,0
-2.08385336009087E-05,8.84777273313375E-06,0.52734375,0,0
-3.01262443827E-05,1.40262964123394E-05,0.52734375,0,0
-2.28301778406603E-05,1.33306684801937E-05,0.52734375,0,0
-2.69547272182535E-05,1.66403624461964E-05,0.52734375,0,0
-2.20524925680365E-05,1.47002747326042E-05,0.52734375,0,0
-2.53411908488488E-05,1.562877514516E-05,0.52734375,0,0
-2.35951865761308E-05,1.55383731907932E-05,0.52734375,0,0
-2.45363771682605E-05,1.66390818776563E-05,0.52734375,0,0
-2.46287272602785E-05,1.48006702147541E-05,0.52734375,0,0
-2.55111299338751E-05,1.29957807075698E-05,0.52734375,0,0
-2.58134896284901E-05,1.34153096951195E-05,0.52734375,0,0
-2.57186948147137E-05,1.31321694425424E-05,0.52734375,0,0
-2.73113109869882E-05,1.17002646220499E-05,0.52734375,0,0
-2.60720862570452E-05,8.47517276270082E-06,0.52734375,0,0
-2.6778881874634E-05,5.16488807988935E-06,0.52734375,0,0
-2.66718416241929E-05,2.25250391849841E-06,0.52734375,0,0
-2.9292759791133E-05,3.56571945303585E-06,0.52734375,0,0
-2.84218713204609E-05,6.18035164734465E-06,0.52734375,0,0
-2.79967134702019E-05,9.53219478105893E-06,0.52734375,0,0
-2.60336200881284E-05,1.00183724498493E-05,0.52734375,0,0
-2.6951889594784E-05,1.15546690722113E-05,0.52734375,0,0
-2.70726759481477E-05,1.4996230675024E-05,0.52734375,0,0
-2.82165055978112E-05,1.63889562827535E-05,0.52734375,0,0
-2.72737706836779E-05,1.51176891449722E-05,0.52734375,0,0
-2.56047333095921E-05,1.46191214298597E-05,0.52734375,0,0
-2.52431200351566E-05,1.34986066768761E-05,0.52734375,0,0
-2.64264945144532E-05,1.49836969285388E-05,0.52734375,0,0
-2.06977456400637E-05,1.48298349813558E-05,0.52734375,0,0
-2.84914076473797E-05,2.11017686524428E-05,0.52734375,0,0
-2.17165052163182E-05,1.48038416227791E-05,0.52734375,0,0
-2.90129373752279E-05,1.75225704879267E-05,0.52734375,0,0
-2.51986639341339E-05,1.54939025378553E-05,0.52734375,0,0
-2.74001031357329E-05,1.80026218004059E-05,0.52734375,0,0
-2.4954735636129E-05,1.49986908581923E-05,0.52734375,0,0
-2.72932938969461E-05,1.24562493510894E-05,0.52734375,0,0
-2.65446396952029E-05,5.93379809288308E-06,0.52734375,0,0
-2.60481428995263E-05,3.31562614519498E-06,0.52734375,0,0
-2.66505594481714E-05,6.70633471600013E-06,0.52734375,0,0
-2.64419322775211E-05,9.01149815035751E-06,0.52734375,0,0
-2.71529625024414E-05,9.35251500777667E-06,0.52734375,0,0
-2.50509947363753E-05,6.78709511703346E-06,0.52734375,0,0
-2.55815284617711E-05,7.22632375982357E-06,0.52734375,0,0
-2.48670603468781E-05,8.3007444118266E-06,0.52734375,0,0
-2.65744565695059E-05,1.13397891254863E-05,0.52734375,0,0
-2.53938233072404E-05,1.18530979307252E-05,0.52734375,0,0
-2.58096479228698E-05,1.40106358230696E-05,0.52734375,0,0
-2.38856446230784E-05,1.58114416990429E-05,0.52734375,0,0
-2.42312598857097E-05,1.71610081451945E-05,0.52734375,0,0
-2.3842880182201E-05,1.51743151945993E-05,0.52734375,0,0
-2.43244758166838E-05,1.40538368214038E-05,0.52734375,0,0
-2.44512611971004E-05,1.27537623484386E-05,0.52734375,0,0
-2.60590022662655E-05,1.23724721561302E-05,0.52734375,0,0
-2.69752672465984E-05,1.3424527423922E-05,0.52734375,0,0
-2.73147434199927E-05,1.37034348881571E-05,0.52734375,0,0
-2.32942966249539E-05,7.76784781919559E-06,0.52734375,0,0
-3.33391872118227E-05,8.52762514114147E-06,0.52734375,0,0
-2.46061517827911E-05,3.6427150007512E-06,0.52734375,0,0
-2.90732859866694E-05,5.43567648492171E-06,0.52734375,0,0
-2.33680657402147E-05,2.16966691368725E-06,0.52734375,0,0
-2.5644480047049E-05,8.53921108046052E-07,0.52734375,0,0
-2.33961436606478E-05,-2.61205764218175E-06,0.52734375,0,0
-2.55692611972336E-05,-1.34290132791648E-06,0.52734375,0,0
-2.55640061368467E-05,1.61090292749577E-06,0.52734375,0,0
-2.6412610168336E-05,5.24237111676484E-06,0.52734375,0,0
-2.67234572675079E-05,8.6169011410675E-06,0.52734375,0,0
-2.54714832408354E-05,1.0074953934236E-05,0.52734375,0,0
-2.64050540863536E-05,1.07799451143364E-05,0.52734375,0,0
-2.46693525696173E-05,1.03431120805908E-05,0.52734375,0,0
-2.48296673817094E-05,1.12131765490631E-05,0.52734375,0,0
-2.32831553148571E-05,1.22833607747452E-05,0.52734375,0,0
-2.49153563345317E-05,1.48710514622508E-05,0.52734375,0,0
-2.35455572692445E-05,1.50323903653771E-05,0.52734375,0,0
-2.37656877288828E-05,1.43916531669674E-05,0.52734375,0,0
-2.15303298318759E-05,1.28669762489153E-05,0.52734375,0,0
-2.02180417545605E-05,1.25388878586818E-05,0.52734375,0,0
-1.76831290445989E-05,1.2502898243838E-05,0.52734375,0,0
-1.77680794877233E-05,1.37512706714915E-05,0.52734375,0,0
-1.72619729710277E-05,1.55554189404938E-05,0.52734375,0,0
-1.79994312929921E-05,1.58333386934828E-05,0.52734375,0,0
-2.02723203983624E-05,1.15986549644731E-05,0.52734375,0,0
-2.23811657633632E-05,7.21523792890366E-06,0.52734375,0,0
-1.84031214303104E-05,3.69599160876533E-06,0.52734375,0,0
-2.68913845502539E-05,5.73298711969983E-06,0.52734375,0,0
-2.0950434191036E-05,5.39409757038811E-06,0.52734375,0,0
-2.51105266215745E-05,8.30793123896001E-06,0.52734375,0,0
-2.19359953916864E-05,9.43997110880446E-06,0.52734375,0,0
-2.53696325671626E-05,8.94177173904609E-06,0.52734375,0,0
-2.38229949900415E-05,8.62068736751098E-06,0.52734375,0,0
-2.43745962507091E-05,9.87394651019713E-06,0.52734375,0,0
-2.32986167247873E-05,9.02086139831226E-06,0.52734375,0,0
-2.31876874750014E-05,8.54808786243666E-06,0.52734375,0,0
-2.43155482166912E-05,8.51751792652067E-06,0.52734375,0,0
-2.53774032898946E-05,8.4841922216583E-06,0.52734375,0,0
-2.60610486293444E-05,1.07153291537543E-05,0.52734375,0,0
-2.38263655774063E-05,1.48827102748328E-05,0.52734375,0,0
-2.35957741097081E-05,1.79685121111106E-05,0.52734375,0,0
-2.22655999095878E-05,1.77014444489032E-05,0.52734375,0,0
-2.41518755501602E-05,1.63876757142134E-05,0.52734375,0,0
-2.48050801019417E-05,1.41262871693471E-05,0.52734375,0,0
-2.70200725935865E-05,1.29665304484661E-05,0.52734375,0,0
-2.69684078375576E-05,1.24078260341776E-05,0.52734375,0,0
-2.67529248958454E-05,1.09605671241297E-05,0.52734375,0,0
-2.42081314354436E-05,8.00407269707648E-06,0.52734375,0,0
-2.354459502385E-05,7.45391298551112E-06,0.52734375,0,0
-2.3446849809261E-05,9.39167421165621E-06,0.52734375,0,0
-2.45021601585904E-05,9.55099312704988E-06,0.52734375,0,0
-2.61012373812264E-05,6.40723283140687E-06,0.52734375,0,0
-2.6516170692048E-05,2.76999935522326E-06,0.52734375,0,0
-2.07010161830112E-05,2.87023226519523E-06,0.52734375,0,0
-2.8486319934018E-05,7.99759800429456E-06,0.52734375,0,0
-2.0077932276763E-05,1.18716152428533E-05,0.52734375,0,0
-2.47312909777975E-05,1.2622311260202E-05,0.52734375,0,0
-2.03203890123405E-05,1.03735601442168E-05,0.52734375,0,0
-2.3791755666025E-05,9.4110082500265E-06,0.52734375,0,0
-2.27027594519313E-05,9.86007307801628E-06,0.52734375,0,0
-2.52532481681556E-05,1.12202833406627E-05,0.52734375,0,0
-2.51238998316694E-05,1.25696733448422E-05,0.52734375,0,0
-2.48999804171035E-05,1.35624468384776E-05,0.52734375,0,0
-2.50877419603057E-05,1.37911083584186E-05,0.52734375,0,0
-2.4794673663564E-05,1.35518730530748E-05,0.52734375,0,0
-2.58281888818601E-05,1.47023802128388E-05,0.52734375,0,0
-2.43744434555992E-05,1.6612044419162E-05,0.52734375,0,0
-2.47952830250142E-05,1.80412880581571E-05,0.52734375,0,0
-2.35408078879118E-05,1.88257636182243E-05,0.52734375,0,0
-2.51692163146799E-05,1.97677381947869E-05,0.52734375,0,0
-2.44644670601701E-05,2.02051778614987E-05,0.52734375,0,0
-2.49386357609183E-05,1.89328657143051E-05,0.52734375,0,0
-2.35557563428301E-05,1.68582573678577E-05,0.52734375,0,0
-2.53226917266147E-05,1.63901913765585E-05,0.52734375,0,0
-2.57412411883706E-05,1.66426380019402E-05,0.52734375,0,0
-2.62752600974636E-05,1.59219162014779E-05,0.52734375,0,0
-2.52153440669645E-05,1.31949682327104E-05,0.52734375,0,0
-2.48339147219667E-05,1.01935620477889E-05,0.52734375,0,0
-2.52844438364264E-05,7.86112650530413E-06,0.52734375,0,0
-2.65417274931679E-05,4.33408149547176E-06,0.52734375,0,0
-2.26100855797995E-05,2.73105342785129E-06,0.52734375,0,0
-3.15861216222402E-05,4.91280707137776E-06,0.52734375,0,0
-2.20872825593688E-05,4.74034141006996E-06,0.52734375,0,0
-2.49804852501256E-05,6.69409655529307E-06,0.52734375,0,0
-1.74040978890844E-05,8.17546879261499E-06,0.52734375,0,0
-2.02057672140654E-05,7.07639401298366E-06,0.52734375,0,0
-1.87081368494546E-05,6.17379828327103E-06,0.52734375,0,0
-1.98550769709982E-05,8.36965591588523E-06,0.52734375,0,0
-1.91661074495642E-05,9.64358787314268E-06,0.52734375,0,0
-1.95585798792308E-05,9.80274853645824E-06,0.52734375,0,0
-2.00374033738626E-05,1.05315775726922E-05,0.52734375,0,0
-1.84381242434029E-05,1.31895712911501E-05,0.52734375,0,0
-1.91355538845528E-05,1.64836092153564E-05,0.52734375,0,0
-1.90147329703905E-05,1.72972941072658E-05,0.52734375,0,0
-2.12034683499951E-05,1.47619721246883E-05,0.52734375,0,0
-1.99694750335766E-05,1.067786161002E-05,0.52734375,0,0
-2.07991051865974E-05,9.49659170146333E-06,0.52734375,0,0
-1.98463858396281E-05,9.52612117544049E-06,0.52734375,0,0
-2.09482241189107E-05,8.20221521280473E-06,0.52734375,0,0
-1.96021337615093E-05,5.83257269681781E-06,0.52734375,0,0
-2.04995722015155E-05,5.3767007557326E-06,0.52734375,0,0
-2.05701671802672E-05,6.62807269691257E-06,0.52734375,0,0
-2.11021942959633E-05,8.8791939560906E-06,0.52734375,0,0
-2.15524451050442E-05,1.0114315955434E-05,0.52734375,0,0
-2.36910345847718E-05,8.07184096629499E-06,0.52734375,0,0
-2.42645546677522E-05,6.31256034466787E-06,0.52734375,0,0
-2.36010000662645E-05,7.91095862950897E-06,0.52734375,0,0
-1.81301002157852E-05,8.56462247611489E-06,0.52734375,0,0
-2.53214257099899E-05,1.14127451524837E-05,0.52734375,0,0
-1.76717021531658E-05,3.83598307962529E-06,0.52734375,0,0
-1.94441381609067E-05,2.07371590477123E-06,0.52734375,0,0
-1.4137296602712E-05,9.24362780096999E-07,0.52734375,0,0
-1.80133811227279E-05,3.27171301250928E-06,0.52734375,0,0
-1.77973524841946E-05,2.41247926169308E-06,0.52734375,0,0
-2.03070212592138E-05,2.31338526646141E-06,0.52734375,0,0
-2.10831058211625E-05,2.57322335528443E-06,0.52734375,0,0
-2.14045376196736E-05,3.72525937564205E-06,0.52734375,0,0
-2.10999824048486E-05,6.84227870806353E-06,0.52734375,0,0
-2.03654908546014E-05,1.13185951704509E-05,0.52734375,0,0
-2.18761124415323E-05,1.64348821272142E-05,0.52734375,0,0
-2.17874021473108E-05,1.8713863028097E-05,0.52734375,0,0
-2.31557733059162E-05,1.83160791493719E-05,0.52734375,0,0
-2.18609493458644E-05,1.50065443449421E-05,0.52734375,0,0
-2.21049249375938E-05,1.26104068840505E-05,0.52734375,0,0
-2.04602674784837E-05,1.09012244138285E-05,0.52734375,0,0
-2.05728556466056E-05,1.15106158773415E-05,0.52734375,0,0
-1.95454576896736E-05,1.13057230919367E-05,0.52734375,0,0
-2.10528032766888E-05,1.01487521533272E-05,0.52734375,0,0
-2.15492163988529E-05,1.0101665793627E-05,0.52734375,0,0
-2.27442324103322E-05,1.29857226056629E-05,0.52734375,0,0
-2.34763047046727E-05,1.43981333167176E-05,0.52734375,0,0
-2.48246324190404E-05,1.33152443595463E-05,0.52734375,0,0
-2.52745339821558E-05,1.16067749331705E-05,0.52734375,0,0
-2.41726575040957E-05,1.05021017589024E-05,0.52734375,0,0
-1.81137129402487E-05,7.76133856561501E-06,0.52734375,0,0
-2.46796826104401E-05,1.03720067272661E-05,0.52734375,0,0
-1.86007328011328E-05,7.32673788661486E-06,0.52734375,0,0
-2.49391960096546E-05,1.07407349787536E-05,0.52734375,0,0
-2.19963840208948E-05,8.54043355502654E-06,0.52734375,0,0
-2.57005831372226E-05,6.97944642524817E-06,0.52734375,0,0
-2.44615857809549E-05,6.81991969031515E-06,0.52734375,0,0
-2.49491713475436E-05,9.64959235716378E-06,0.52734375,0,0
-2.2526306565851E-05,1.0378997103544E-05,0.52734375,0,0
-2.10656999115599E-05,1.1833922144433E-05,0.52734375,0,0
-2.04454900085693E-05,1.3441013834381E-05,0.52734375,0,0
-1.95109241758473E-05,1.26005052152323E-05,0.52734375,0,0
-2.08130259125028E-05,1.16481614895747E-05,0.52734375,0,0
-2.11564729397651E-05,1.05648423414095E-05,0.52734375,0,0
-2.32653619605117E-05,1.01952773547964E-05,0.52734375,0,0
-2.19773064600304E-05,8.58829753269674E-06,0.52734375,0,0
-2.28802036872366E-05,8.3115155575797E-06,0.52734375,0,0
-2.31887497648131E-05,7.57128054829082E-06,0.52734375,0,0
-2.66343868133845E-05,7.8846087490092E-06,0.52734375,0,0
-2.82132859865669E-05,8.8038341345964E-06,0.52734375,0,0
-3.03168108075624E-05,1.05637818705873E-05,0.52734375,0,0
-3.02168737107422E-05,1.01633695521741E-05,0.52734375,0,0
-3.08522285195068E-05,8.82810763869202E-06,0.52734375,0,0
-3.15370634780265E-05,6.44710007691174E-06,0.52734375,0,0
-3.207684494555E-05,3.90602463085088E-06,0.52734375,0,0
-3.11097355734091E-05,1.04972855297092E-06,0.52734375,0,0
-3.03691922454163E-05,-1.42956764648261E-06,0.52734375,0,0
-2.31345038628206E-05,-6.56184511171887E-07,0.52734375,0,0
-3.19892424158752E-05,1.37536540023575E-06,0.52734375,0,0
-2.34706567425746E-05,4.61954914499074E-06,0.52734375,0,0
-3.01615800708532E-05,6.89418266119901E-06,0.52734375,0,0
-2.56266903306823E-05,9.0256507974118E-06,0.52734375,0,0
-2.89195540972287E-05,8.32887690194184E-06,0.52734375,0,0
-2.55316226684954E-05,9.89544241747353E-06,0.52734375,0,0
-2.60681699728593E-05,1.22828478197334E-05,0.52734375,0,0
-2.61303321167361E-05,1.3527481314668E-05,0.52734375,0,0
-2.66540246229852E-05,1.32117356770323E-05,0.52734375,0,0
-2.63849906332325E-05,1.19451842692797E-05,0.52734375,0,0
-2.61962031800067E-05,1.04323089544778E-05,0.52734375,0,0
-2.79428877547616E-05,1.08326657937141E-05,0.52734375,0,0
-2.6318326490582E-05,1.38646928462549E-05,0.52734375,0,0
-2.51256169576664E-05,1.60408908413956E-05,0.52734375,0,0
-2.15646887227194E-05,1.56245841935743E-05,0.52734375,0,0
-2.33566770475591E-05,1.299585619563E-05,0.52734375,0,0
-2.48331834882265E-05,1.05608287412906E-05,0.52734375,0,0
-2.82535893347813E-05,8.4531002357835E-06,0.52734375,0,0
-2.77705148619134E-05,7.17469629307743E-06,0.52734375,0,0
-2.72333672910463E-05,7.17738885214203E-06,0.52734375,0,0
-2.37947315326892E-05,1.05171220639022E-05,0.52734375,0,0
-2.21819827856962E-05,1.56375081132865E-05,0.52734375,0,0
-2.1173646018724E-05,1.83605516212992E-05,0.52734375,0,0
-2.36155901802704E-05,1.65081110026222E-05,0.52734375,0,0
-2.61093136941781E-05,1.22090186778223E-05,0.52734375,0,0
-2.47169264184777E-05,7.51895686335047E-06,0.52734375,0,0
-1.75847671926022E-05,3.79827611141081E-06,0.52734375,0,0
-2.50741377385566E-05,6.88053478370421E-06,0.52734375,0,0
-1.98692450794624E-05,9.2496238721651E-06,0.52734375,0,0
-2.65792477875948E-05,1.48550625453936E-05,0.52734375,0,0
-2.48241503868485E-05,1.7613199815969E-05,0.52734375,0,0
-2.75452548521571E-05,2.0516856238828E-05,0.52734375,0,0
-2.57483388850233E-05,2.18033710552845E-05,0.52734375,0,0
-2.66058741544839E-05,1.96843157027615E-05,0.52734375,0,0
-2.65401977230795E-05,1.33326348077389E-05,0.52734375,0,0
-2.66329097939888E-05,1.04360469777021E-05,0.52734375,0,0
-2.6598459953675E-05,1.25220194604481E-05,0.52734375,0,0
-2.64830214291578E-05,1.45335898196208E-05,0.52734375,0,0
-2.65636426775018E-05,1.57204885908868E-05,0.52734375,0,0
-2.39679775404511E-05,1.58361763169523E-05,0.52734375,0,0
-2.32830097957049E-05,1.46933725773124E-05,0.52734375,0,0
-2.12377453863155E-05,1.26608429127373E-05,0.52734375,0,0
-2.17273936868878E-05,1.13617279566824E-05,0.52734375,0,0
-2.11329461308196E-05,1.03099946500151E-05,0.52734375,0,0
-2.26184438361088E-05,1.09512930066558E-05,0.52734375,0,0
-2.33640112128342E-05,1.21248585855938E-05,0.52734375,0,0
-2.55145369010279E-05,1.40222537083901E-05,0.52734375,0,0
-2.499892252672E-05,1.69329323398415E-05,0.52734375,0,0
-2.51627861871384E-05,1.86008492164547E-05,0.52734375,0,0
-2.48896067205351E-05,1.67373909789603E-05,0.52734375,0,0
-2.39473611145513E-05,1.41917444125284E-05,0.52734375,0,0
-2.36785526794847E-05,1.51052636283566E-05,0.52734375,0,0
-2.46656491071917E-05,1.9569119103835E-05,0.52734375,0,0
-2.04301486519398E-05,1.87637469934998E-05,0.52734375,0,0
-2.71757671725936E-05,2.51480960287154E-05,0.52734375,0,0
-1.75653713085921E-05,1.48819499372621E-05,0.52734375,0,0
-2.21113350562518E-05,1.78637765202438E-05,0.52734375,0,0
-1.7635056792642E-05,1.20898630484589E-05,0.52734375,0,0
-2.05182932404568E-05,1.01106052170508E-05,0.52734375,0,0
-1.83066313184099E-05,3.31972819367365E-06,0.52734375,0,0
-1.83547163032927E-05,6.75953204520852E-09,0.52734375,0,0
-1.68781898537418E-05,-3.14018438984931E-06,0.52734375,0,0
-1.69943523360416E-05,-3.86488318326883E-06,0.52734375,0,0
-1.74530105141457E-05,-3.80343271899619E-06,0.52734375,0,0
-1.76354151335545E-05,-4.2248598219885E-06,0.52734375,0,0
-1.97531626326963E-05,-1.34067465751286E-06,0.52734375,0,0
-1.95364882529248E-05,1.34191122924676E-06,0.52734375,0,0
-2.15085983654717E-05,5.3754442888021E-06,0.52734375,0,0
-2.12346822081599E-05,6.92310368322069E-06,0.52734375,0,0
-2.28797616728116E-05,1.04279561128351E-05,0.52734375,0,0
-2.18120258068666E-05,1.20876220535138E-05,0.52734375,0,0
-2.22043363464763E-05,1.41463069667225E-05,0.52734375,0,0
-2.14990959648276E-05,1.17679373943247E-05,0.52734375,0,0
-2.36679134104634E-05,1.02891417554929E-05,0.52734375,0,0
-2.43415324803209E-05,9.77033141680295E-06,0.52734375,0,0
-2.4608463718323E-05,1.08404738057288E-05,0.52734375,0,0
-2.34171839110786E-05,9.72719499259256E-06,0.52734375,0,0
-2.32389957091073E-05,1.03157690318767E-05,0.52734375,0,0
-2.19919620576547E-05,1.28534829855198E-05,0.52734375,0,0
-2.08900401048595E-05,1.34011297632242E-05,0.52734375,0,0
-1.69117975019617E-05,1.14676313387463E-05,0.52734375,0,0
-2.42293117480585E-05,1.92485458683223E-05,0.52734375,0,0
-1.90789596672403E-05,1.95936900126981E-05,0.52734375,0,0
-2.3116033844417E-05,2.4565881176386E-05,0.52734375,0,0
-1.9689068722073E-05,2.34285962505965E-05,0.52734375,0,0
-2.35457118833438E-05,2.35740153584629E-05,0.52734375,0,0
-2.32567472266965E-05,2.11463539017132E-05,0.52734375,0,0
-2.49454260483617E-05,2.15712734643603E-05,0.52734375,0,0
-2.39656346820993E-05,2.04488278541248E-05,0.52734375,0,0
-2.37338317674585E-05,1.78777117980644E-05,0.52734375,0,0
-2.4269264031318E-05,1.33907942654332E-05,0.52734375,0,0
-2.33947994274786E-05,7.55343535274733E-06,0.52734375,0,0
-2.33908704103669E-05,4.86594763060566E-06,0.52734375,0,0
-2.18618006329052E-05,5.80224059376633E-06,0.52734375,0,0
-2.27331420319388E-05,9.8737755251932E-06,0.52734375,0,0
-2.13882976822788E-05,1.24771495393361E-05,0.52734375,0,0
-2.16789758269442E-05,1.61208936333423E-05,0.52734375,0,0
-2.11205551750027E-05,1.7934946299647E-05,0.52734375,0,0
-2.37231906794477E-05,1.87412388186203E-05,0.52734375,0,0
-2.48151591222268E-05,1.60777799464995E-05,0.52734375,0,0
-2.52392910624621E-05,1.17899962788215E-05,0.52734375,0,0
-2.30343575822189E-05,5.63467983738519E-06,0.52734375,0,0
-2.22168691834668E-05,3.67398882872294E-07,0.52734375,0,0
-2.21605860133423E-05,-2.57736269304587E-06,0.52734375,0,0
-2.23657134483801E-05,-4.42897373886808E-07,0.52734375,0,0
-2.1735508198617E-05,3.86697092835675E-06,0.52734375,0,0
-2.19932317122584E-05,9.19679223443381E-06,0.52734375,0,0
-1.94780805031769E-05,1.22597830340965E-05,0.52734375,0,0
-2.75304373644758E-05,1.96438668353949E-05,0.52734375,0,0
-2.00262347789248E-05,1.67810594575712E-05,0.52734375,0,0
-2.47695370489964E-05,1.82217299879994E-05,0.52734375,0,0
-2.22579674300505E-05,1.37224051286466E-05,0.52734375,0,0
-2.66079587163404E-05,1.37355273182038E-05,0.52734375,0,0
-2.54593960562488E-05,1.34041711135069E-05,0.52734375,0,0
-2.61634922935627E-05,1.39547746584867E-05,0.52734375,0,0
-2.43696031247964E-05,1.34528336275253E-05,0.52734375,0,0
-2.33626778936014E-05,1.58317288878607E-05,0.52734375,0,0
-2.26996980927652E-05,1.71142546605552E-05,0.52734375,0,0
-2.11265160032781E-05,1.47473574543255E-05,0.52734375,0,0
-2.15044055948965E-05,1.22919436762459E-05,0.52734375,0,0
-2.14972696994664E-05,9.08898255147506E-06,0.52734375,0,0
-2.43243139266269E-05,7.06382888893131E-06,0.52734375,0,0
-2.39890432567336E-05,5.42496491107158E-06,0.52734375,0,0
-2.41155357798561E-05,8.48196214064956E-06,0.52734375,0,0
-2.23615243157838E-05,1.25523420138052E-05,0.52734375,0,0
-2.39511609834153E-05,1.66353238455486E-05,0.52734375,0,0
-2.45512583205709E-05,1.75174664036604E-05,0.52734375,0,0
-2.62399007624481E-05,1.72272284544306E-05,0.52734375,0,0
-2.56872899626615E-05,1.51148760778597E-05,0.52734375,0,0
-2.60905271716183E-05,1.32662662508665E-05,0.52734375,0,0
-2.55417980952188E-05,1.11378776637139E-05,0.52734375,0,0
-2.48975338763557E-05,1.03142247098731E-05,0.52734375,0,0
-2.42204132518964E-05,9.85083988780389E-06,0.52734375,0,0
-2.42396708927117E-05,9.32237162487581E-06,0.52734375,0,0
-2.01553903025342E-05,7.50841900298838E-06,0.52734375,0,0
-2.87656748696463E-05,1.16754590635537E-05,0.52734375,0,0
-2.24052782868966E-05,8.89861257746816E-06,0.52734375,0,0
-2.72718789346982E-05,8.32390742289135E-06,0.52734375,0,0
-2.23497390834382E-05,5.06615515405429E-06,0.52734375,0,0
-2.50369721470634E-05,5.41711142432177E-06,0.52734375,0,0
-2.21794234676054E-05,5.35125400347169E-06,0.52734375,0,0
-2.22550661419518E-05,6.6546367634146E-06,0.52734375,0,0
-2.20748388528591E-05,5.62085506317089E-06,0.52734375,0,0
-2.41300986090209E-05,3.35337790602352E-06,0.52734375,0,0
-2.49086115218233E-05,3.65452615369577E-06,0.52734375,0,0
-2.32907077588607E-05,5.41611007065512E-06,0.52734375,0,0
-2.28635581152048E-05,7.90839294495527E-06,0.52734375,0,0
-2.06898803298827E-05,1.02030680864118E-05,0.52734375,0,0
-2.16186908801319E-05,1.20562308438821E-05,0.52734375,0,0
-2.10477137443377E-05,1.09234097180888E-05,0.52734375,0,0
-2.20112269744277E-05,9.40655536396662E-06,0.52734375,0,0
-2.04729240067536E-05,8.49708249006653E-06,0.52734375,0,0
-2.18075747397961E-05,9.17715169634903E-06,0.52734375,0,0
-2.20607107621618E-05,8.65041511133313E-06,0.52734375,0,0
-2.41299421759322E-05,8.75071054906584E-06,0.52734375,0,0
-2.53574125963496E-05,9.18587102205493E-06,0.52734375,0,0
-2.74346402875381E-05,9.6894091257127E-06,0.52734375,0,0
-2.65339058387326E-05,1.01192317742971E-05,0.52734375,0,0
-2.57488100032788E-05,1.12586294562789E-05,0.52734375,0,0
-2.51277906500036E-05,1.24338866953622E-05,0.52734375,0,0
-2.60595261352137E-05,1.38883069666917E-05,0.52734375,0,0
-2.31533958867658E-05,1.01896139312885E-05,0.52734375,0,0
-3.31507435475942E-05,1.25641836348223E-05,0.52734375,0,0
-2.47065308940364E-05,9.18707701202948E-06,0.52734375,0,0
-3.07299596897792E-05,1.633440842852E-05,0.52734375,0,0
-2.7494837922859E-05,1.61427797138458E-05,0.52734375,0,0
-3.11083713313565E-05,1.65871351782698E-05,0.52734375,0,0
-2.78356201306451E-05,1.25637534438283E-05,0.52734375,0,0
-2.72868965112139E-05,1.08118820207892E-05,0.52734375,0,0
-2.57786887232214E-05,1.00866527645849E-05,0.52734375,0,0
-2.6713527404354E-05,1.19555334094912E-05,0.52734375,0,0
-2.84251109405886E-05,1.40747988552903E-05,0.52734375,0,0
-2.82295604847604E-05,1.36312655740767E-05,0.52734375,0,0
-2.78795287158573E-05,1.39799549288E-05,0.52734375,0,0
-2.50473349296954E-05,1.35487089210073E-05,0.52734375,0,0
-2.60533033724641E-05,1.25275855680229E-05,0.52734375,0,0
-2.63608035311336E-05,9.83522022579564E-06,0.52734375,0,0
-2.84296475001611E-05,9.53351900534472E-06,0.52734375,0,0
-2.62530393229099E-05,9.15196233108873E-06,0.52734375,0,0
-2.62653502431931E-05,1.00263614513096E-05,0.52734375,0,0
-2.59714706771774E-05,8.91532727109734E-06,0.52734375,0,0
-2.85579280898673E-05,7.09211872162996E-06,0.52734375,0,0
-2.7755142582464E-05,3.66330505130463E-06,0.52734375,0,0
-2.59664193436038E-05,2.53041275755095E-06,0.52734375,0,0
-2.38114826061064E-05,3.88822809327394E-06,0.52734375,0,0
-2.30797777476255E-05,6.38027449895162E-06,0.52734375,0,0
-2.21816626435611E-05,7.87328008300392E-06,0.52734375,0,0
-2.19400353671517E-05,9.07249886950012E-06,0.52734375,0,0
-1.84022828761954E-05,8.4521798271453E-06,0.52734375,0,0
-2.68906223936938E-05,1.21174598461948E-05,0.52734375,0,0
-2.17118868022226E-05,7.32296939531807E-06,0.52734375,0,0
-2.69676329480717E-05,7.77282093622489E-06,0.52734375,0,0
-2.39698401856003E-05,8.3055174400215E-06,0.52734375,0,0
-2.69190313701984E-05,1.14063959699706E-05,0.52734375,0,0
-2.51264882535907E-05,1.02753756436869E-05,0.52734375,0,0
-2.55417726293672E-05,8.73455064720474E-06,0.52734375,0,0
-2.34029848797945E-05,6.40928737993818E-06,0.52734375,0,0
-2.22687995119486E-05,5.12803444507881E-06,0.52734375,0,0
-2.2729442207492E-05,4.22865014115814E-06,0.52734375,0,0
-2.34047274716431E-05,4.38437564298511E-06,0.52734375,0,0
-2.47813004534692E-05,7.0581263571512E-06,0.52734375,0,0
-2.36224477703217E-05,9.18404111871496E-06,0.52734375,0,0
-2.50302309723338E-05,1.00179458968341E-05,0.52734375,0,0
-2.5175220798701E-05,8.83484426594805E-06,0.52734375,0,0
-2.67145169345895E-05,8.90852334123338E-06,0.52734375,0,0
-2.51858255069237E-05,9.5739351309021E-06,0.52734375,0,0
-2.4551605747547E-05,1.12681709651952E-05,0.52734375,0,0
-2.21252557821572E-05,1.00998277048348E-05,0.52734375,0,0
-2.23831502808025E-05,7.65890035836492E-06,0.52734375,0,0
-2.28441822400782E-05,5.64880565434578E-06,0.52734375,0,0
-2.53324069490191E-05,8.28011707199039E-06,0.52734375,0,0
-2.64583013631636E-05,1.27217526824097E-05,0.52734375,0,0
-2.5834575353656E-05,1.27075736600091E-05,0.52734375,0,0
-2.50527973548742E-05,9.09612754185218E-06,0.52734375,0,0
-2.41967773035867E-05,8.71298925630981E-06,0.52734375,0,0
-1.86623256013263E-05,1.0635389116942E-05,0.52734375,0,0
-2.71593999059405E-05,1.83632801054046E-05,0.52734375,0,0
-2.2688000171911E-05,1.6043024515966E-05,0.52734375,0,0
-2.90050975308986E-05,1.66945301316446E-05,0.52734375,0,0
-2.44977654801914E-05,1.42430599225918E-05,0.52734375,0,0
-2.68981766566867E-05,1.37480647026678E-05,0.52734375,0,0
-2.54151836998062E-05,1.20525555757922E-05,0.52734375,0,0
-2.63234960584668E-05,1.26476488730987E-05,0.52734375,0,0
-2.67177838395583E-05,1.19590395115665E-05,0.52734375,0,0
-2.75789461738896E-05,1.23147074191365E-05,0.52734375,0,0
-2.7664820663631E-05,1.46687279993785E-05,0.52734375,0,0
-2.56858202192234E-05,1.49703255374334E-05,0.52734375,0,0
-2.42079131567152E-05,1.31672668430838E-05,0.52734375,0,0
-2.13647381315241E-05,1.13308906293241E-05,0.52734375,0,0
-2.19094727071933E-05,1.33646062749904E-05,0.52734375,0,0
-2.15525178646203E-05,1.51350777741754E-05,0.52734375,0,0
-2.36786672758171E-05,1.56125206558499E-05,0.52734375,0,0
-2.44887924054638E-05,1.38426776175038E-05,0.52734375,0,0
-2.58437012234936E-05,1.37993238240597E-05,0.52734375,0,0
-2.38559186982457E-05,1.45547774081933E-05,0.52734375,0,0
-2.35505958698923E-05,1.48313329191296E-05,0.52734375,0,0
-2.29472334467573E-05,1.17978179332567E-05,0.52734375,0,0
-2.42192327277735E-05,1.03020092865336E-05,0.52734375,0,0
-2.57020165008726E-05,1.26271825138247E-05,0.52734375,0,0
-2.57320134551264E-05,1.63919248734601E-05,0.52734375,0,0
-2.2127418560558E-05,1.6448426322313E-05,0.52734375,0,0
-1.76645935425768E-05,1.31562956084963E-05,0.52734375,0,0
-1.22761539387284E-05,7.33758452042821E-06,0.52734375,0,0
-1.83155461854767E-05,1.1126111530757E-05,0.52734375,0,0
-1.58950533659663E-05,1.21867942652898E-05,0.52734375,0,0
-1.98041561816353E-05,1.87492460099747E-05,0.52734375,0,0
-1.84608943527564E-05,1.86882753041573E-05,0.52734375,0,0
-2.1312473108992E-05,1.89158054126892E-05,0.52734375,0,0
-2.02092051040381E-05,1.7110260159825E-05,0.52734375,0,0
-2.16438420466147E-05,1.7606515029911E-05,0.52734375,0,0
-2.26292595471023E-05,1.65031869983068E-05,0.52734375,0,0
-2.46239233092638E-05,1.36787293740781E-05,0.52734375,0,0
-2.60302567767212E-05,1.0182165169681E-05,0.52734375,0,0
-2.57866813626606E-05,7.44315957490471E-06,0.52734375,0,0
-2.56076145888073E-05,6.39806467006565E-06,0.52734375,0,0
-2.420439159323E-05,5.40554538019933E-06,0.52734375,0,0
-2.46864474320319E-05,5.41386998520466E-06,0.52734375,0,0
-2.41109828493791E-05,4.01562465413008E-06,0.52734375,0,0
-2.46077524934663E-05,1.21550817766547E-06,0.52734375,0,0
-2.29502638831036E-05,-3.55793622475176E-06,0.52734375,0,0
-2.30090590775944E-05,-6.14276314081508E-06,0.52734375,0,0
-2.32582588068908E-05,-7.20318166713696E-06,0.52734375,0,0
-2.45152405113913E-05,-6.09240260018851E-06,0.52734375,0,0
-2.40439749177312E-05,-3.49598599314049E-06,0.52734375,0,0
-2.37244566960726E-05,7.62500633300078E-07,0.52734375,0,0
-2.33777136600111E-05,3.38920085596328E-06,0.52734375,0,0
-2.28497992793564E-05,6.54603536531795E-06,0.52734375,0,0
-2.18930454138899E-05,9.58257351157954E-06,0.52734375,0,0
-2.1734047550126E-05,8.95504126674496E-06,0.52734375,0,0
-1.81131854333216E-05,5.18656906933757E-06,0.52734375,0,0
-2.65200942521915E-05,8.13078804640099E-06,0.52734375,0,0
-2.08948222280014E-05,9.16470526135527E-06,0.52734375,0,0
-2.50107223109808E-05,1.3878910067433E-05,0.52734375,0,0
-2.04504631255986E-05,1.48067792906659E-05,0.52734375,0,0
-2.28684930334566E-05,1.61891002790071E-05,0.52734375,0,0
-2.26555366680259E-05,1.57377780851675E-05,0.52734375,0,0
-2.60914584941929E-05,1.44409614222241E-05,0.52734375,0,0
-2.78073239314836E-05,1.20930271805264E-05,0.52734375,0,0
-2.82959754258627E-05,1.34272113427869E-05,0.52734375,0,0
-2.77751896646805E-05,1.52712618728401E-05,0.52734375,0,0
-2.71160752163269E-05,1.21923894766951E-05,0.52734375,0,0
-2.84044290310703E-05,5.83940072829137E-06,0.52734375,0,0
-2.79127380053978E-05,1.09693885974593E-07,0.52734375,0,0
-2.89094568870496E-05,-2.24860443154284E-07,0.52734375,0,0
-2.77477356576128E-05,3.84307168133091E-06,0.52734375,0,0
-2.79142132058041E-05,1.09991915451246E-05,0.52734375,0,0
-2.60309570876416E-05,1.52118582263938E-05,0.52734375,0,0
-2.57045303442283E-05,1.49292181959026E-05,0.52734375,0,0
-2.39347391470801E-05,1.19856431410881E-05,0.52734375,0,0
-2.34740218729712E-05,1.14418644443504E-05,0.52734375,0,0
-2.09941645152867E-05,1.30930720843025E-05,0.52734375,0,0
-1.8717586499406E-05,1.43968600241351E-05,0.52734375,0,0
-1.65868623298593E-05,1.29216878121952E-05,0.52734375,0,0
-1.8048342099064E-05,1.14486765596666E-05,0.52734375,0,0
-2.08603232749738E-05,1.14637259684969E-05,0.52734375,0,0
-2.11954029509798E-05,1.43359193316428E-05,0.52734375,0,0
-1.38949271786259E-05,1.46805696203955E-05,0.52734375,0,0
-1.84187410923187E-05,1.97373992705252E-05,0.52734375,0,0
-1.57946687977528E-05,1.10283472167794E-05,0.52734375,0,0
-2.36179184867069E-05,1.1714982065314E-05,0.52734375,0,0
-2.06729000638006E-05,5.68690347790834E-06,0.52734375,0,0
-2.25766616495093E-05,3.33476646119379E-06,0.52734375,0,0
-2.10830694413744E-05,2.1329904598133E-07,0.52734375,0,0
-2.20609490497736E-05,9.73123405856313E-07,0.52734375,0,0
-2.14483497984475E-05,9.63060188041709E-07,0.52734375,0,0
-2.0388770280988E-05,4.88174555357546E-06,0.52734375,0,0
-1.92917214008048E-05,9.18735531740822E-06,0.52734375,0,0
-1.81541126949014E-05,9.35591106099309E-06,0.52734375,0,0
-1.9062510546064E-05,8.1749576565926E-06,0.52734375,0,0
-1.85591816261876E-05,6.19836373516591E-06,0.52734375,0,0
-2.05089618248167E-05,5.74897421756759E-06,0.52734375,0,0
-2.26042538997717E-05,4.39813356933882E-06,0.52734375,0,0
-2.56779694609577E-05,6.1097125581E-06,0.52734375,0,0
-2.45226237893803E-05,7.37176469556289E-06,0.52734375,0,0
-2.3924227207317E-05,1.11926483441493E-05,0.52734375,0,0
-2.29808720177971E-05,1.39314761327114E-05,0.52734375,0,0
-2.40200151893077E-05,1.60404233611189E-05,0.52734375,0,0
-2.40411191043677E-05,1.51449639815837E-05,0.52734375,0,0
-2.40939971263288E-05,1.55513571371557E-05,0.52734375,0,0
-2.28668232011842E-05,1.62348133017076E-05,0.52734375,0,0
-2.1364909116528E-05,1.66340723808389E-05,0.52734375,0,0
-2.03115196200088E-05,1.67878406500677E-05,0.52734375,0,0
-2.1462587028509E-05,1.89861184480833E-05,0.52734375,0,0
-1.86572797247209E-05,1.67465350386919E-05,0.52734375,0,0
-2.57160463661421E-05,2.2485184672405E-05,0.52734375,0,0
-1.72967502294341E-05,1.49706656884518E-05,0.52734375,0,0
-2.11172700801399E-05,2.07709472306306E-05,0.52734375,0,0
-1.76696084963623E-05,1.88818394235568E-05,0.52734375,0,0
-2.04148309421726E-05,2.00862850761041E-05,0.52734375,0,0
-1.83657048182795E-05,1.85577191587072E-05,0.52734375,0,0
-1.93443574971752E-05,2.05278938665288E-05,0.52734375,0,0
-1.90386508620577E-05,1.91685558093013E-05,0.52734375,0,0
-1.93271353055025E-05,1.56101959873922E-05,0.52734375,0,0
-1.98762136278674E-05,1.0205870239588E-05,0.52734375,0,0
-2.003082408919E-05,6.06525691182469E-06,0.52734375,0,0
-2.14204410440288E-05,7.44895169191295E-06,0.52734375,0,0
-2.02126320800744E-05,9.87337261904031E-06,0.52734375,0,0
-2.04278439923655E-05,1.28107276395895E-05,0.52734375,0,0
-1.8453463781043E-05,1.15981038106838E-05,0.52734375,0,0
-1.91347444342682E-05,1.10671735455981E-05,0.52734375,0,0
-1.97470199054806E-05,9.28712597669801E-06,0.52734375,0,0
-2.37114727497101E-05,9.95998652797425E-06,0.52734375,0,0
-2.58416148426477E-05,8.27096300781704E-06,0.52734375,0,0
-2.75879228865961E-05,7.66217181080719E-06,0.52734375,0,0
-2.66656334133586E-05,7.27208180251182E-06,0.52734375,0,0
-2.66335646301741E-05,7.53346694182255E-06,0.52734375,0,0
-2.72859397227876E-05,7.88472152635222E-06,0.52734375,0,0
-2.84204579656944E-05,9.82583060249453E-06,0.52734375,0,0
-2.76183509413386E-05,1.00936158560216E-05,0.52734375,0,0
-2.78556199191371E-05,9.27168730413541E-06,0.52734375,0,0
-2.41010238823947E-05,6.43949806544697E-06,0.52734375,0,0
-3.45110893249512E-05,1.06344787127455E-05,0.52734375,0,0
-2.54799469985301E-05,1.17896370284143E-05,0.52734375,0,0
-2.98215054499451E-05,1.56226487888489E-05,0.52734375,0,0
-2.46656327362871E-05,1.56335299834609E-05,0.52734375,0,0
-2.95091704174411E-05,1.59880619321484E-05,0.52734375,0,0
-2.76637056231266E-05,1.44932027978939E-05,0.52734375,0,0
-2.78885800071293E-05,1.51005770021584E-05,0.52734375,0,0
-2.54720616794657E-05,1.31046608657925E-05,0.52734375,0,0
-2.50763623625971E-05,1.05960216387757E-05,0.52734375,0,0
-2.59338012256194E-05,9.48156503000064E-06,0.52734375,0,0
-2.5952176656574E-05,9.64341779763345E-06,0.52734375,0,0
-2.77557683148189E-05,1.19812893899507E-05,0.52734375,0,0
-2.61555560427951E-05,1.28484098240733E-05,0.52734375,0,0
-2.65623129962478E-05,1.18459629447898E-05,0.52734375,0,0
-2.53823764069239E-05,9.28552890400169E-06,0.52734375,0,0
-2.74530812021112E-05,8.8521555881016E-06,0.52734375,0,0
-2.66077131527709E-05,8.71401243784931E-06,0.52734375,0,0
-2.76266418950399E-05,8.78313585417345E-06,0.52734375,0,0
-2.62598950939719E-05,7.66485936765093E-06,0.52734375,0,0
-2.65020207734779E-05,7.39838287699968E-06,0.52734375,0,0
-2.51469409704441E-05,7.49395030652522E-06,0.52734375,0,0
-2.4453323931084E-05,8.39770473248791E-06,0.52734375,0,0
-2.25587809836725E-05,1.07257001218386E-05,0.52734375,0,0
-2.24694358621491E-05,1.24701582535636E-05,0.52734375,0,0
-2.33462724281708E-05,9.22648359846789E-06,0.52734375,0,0
-2.56496969086584E-05,5.48207390238531E-06,0.52734375,0,0
-2.1932062736596E-05,4.50612014901708E-06,0.52734375,0,0
-2.95649897452677E-05,8.08297500043409E-06,0.52734375,0,0
-2.07092070922954E-05,9.51138281379826E-06,0.52734375,0,0
-2.49135155172553E-05,1.55748839461012E-05,0.52734375,0,0
-1.82825806405162E-05,1.91436829481972E-05,0.52734375,0,0
-2.14964347833302E-05,1.67865546245594E-05,0.52734375,0,0
-1.91331600944977E-05,1.10037790364004E-05,0.52734375,0,0
-2.07608663913561E-05,7.53249787521781E-06,0.52734375,0,0
-2.1412008209154E-05,4.31313083026907E-06,0.52734375,0,0
-2.24672876356635E-05,2.49628214987752E-06,0.52734375,0,0
-2.27551863645203E-05,2.04815569304628E-06,0.52734375,0,0
-2.20522597373929E-05,1.01782120509597E-08,0.52734375,0,0
-2.29770557780284E-05,-3.12354200104892E-06,0.52734375,0,0
-2.15461295738351E-05,-2.60559659182036E-06,0.52734375,0,0
-2.33876126003452E-05,2.35483116739488E-06,0.52734375,0,0
-2.35967781918589E-05,6.02472482569283E-06,0.52734375,0,0
-2.59316948358901E-05,7.60254260967486E-06,0.52734375,0,0
-2.44403454416897E-05,8.88136310095433E-06,0.52734375,0,0
-2.45154551521409E-05,1.13176538434345E-05,0.52734375,0,0
-2.29758607019903E-05,1.34464462462347E-05,0.52734375,0,0
-2.42185706156306E-05,1.47982409544056E-05,0.52734375,0,0
-2.42397745751077E-05,1.37267079480807E-05,0.52734375,0,0
-2.43586546275765E-05,1.14869962999364E-05,0.52734375,0,0
-2.22588187170913E-05,8.76146805239841E-06,0.52734375,0,0
-2.19357534660958E-05,8.53505844133906E-06,0.52734375,0,0
-2.40724348259391E-05,1.15053908302798E-05,0.52734375,0,0
-2.62884168478195E-05,1.37291444843868E-05,0.52734375,0,0
-2.12582181120524E-05,1.00541201391025E-05,0.52734375,0,0
-3.04328532365616E-05,1.3421419680526E-05,0.52734375,0,0
-2.25216717808507E-05,8.79662275110604E-06,0.52734375,0,0
-2.63873898802558E-05,1.11838826342137E-05,0.52734375,0,0
-2.1338346414268E-05,7.5796842793352E-06,0.52734375,0,0
-2.49221848207526E-05,8.12913094705436E-06,0.52734375,0,0
-2.34823273785878E-05,9.15317559702089E-06,0.52734375,0,0
-2.46499967033742E-05,1.19701735457056E-05,0.52734375,0,0
-2.35513980442192E-05,1.04189148260048E-05,0.52734375,0,0
-2.31987960432889E-05,9.06644072529161E-06,0.52734375,0,0
-2.32849233725574E-05,1.06581319414545E-05,0.52734375,0,0
-2.19005887629464E-05,1.21086059152731E-05,0.52734375,0,0
-2.23397200898035E-05,1.32747318275506E-05,0.52734375,0,0
-2.08198307518614E-05,1.27918765429058E-05,0.52734375,0,0
-2.12925242522033E-05,1.41255486596492E-05,0.52734375,0,0
-2.0062863768544E-05,1.58029033627827E-05,0.52734375,0,0
-2.2145664843265E-05,2.02244627871551E-05,0.52734375,0,0
-2.25276471610414E-05,2.35535790125141E-05,0.52734375,0,0
-2.43063714151504E-05,2.47782372753136E-05,0.52734375,0,0
-2.33467562793521E-05,2.15947966353269E-05,0.52734375,0,0
-2.40775043494068E-05,1.90469618246425E-05,0.52734375,0,0
-2.41176894633099E-05,1.89270740520442E-05,0.52734375,0,0
-2.48239030042896E-05,1.93085161299678E-05,0.52734375,0,0
-2.4470758944517E-05,1.63682107086061E-05,0.52734375,0,0
-2.50614102697E-05,1.43209626912721E-05,0.52734375,0,0
-2.58529289567377E-05,1.18160241981968E-05,0.52734375,0,0
-2.68456151388818E-05,5.86820306125446E-06,0.52734375,0,0
-2.21935824811226E-05,-8.02630154339568E-07,0.52734375,0,0
-3.10154246108141E-05,-5.25020504937856E-06,0.52734375,0,0
-2.42911373788957E-05,-9.06892728380626E-06,0.52734375,0,0
-3.13179225486238E-05,-9.39255915000103E-06,0.52734375,0,0
-2.54009482887341E-05,-9.77797026280314E-06,0.52734375,0,0
-2.59910502791172E-05,-7.79402853368083E-06,0.52734375,0,0
-2.21690024773125E-05,-1.8788829265759E-06,0.52734375,0,0
-2.45912342506927E-05,3.37963524543738E-06,0.52734375,0,0
-2.54080459853867E-05,3.33056709678203E-06,0.52734375,0,0
-2.60451051872224E-05,2.8969338927709E-06,0.52734375,0,0
-2.63579095189925E-05,5.78305707676918E-06,0.52734375,0,0
-2.60163469647523E-05,1.02600188256474E-05,0.52734375,0,0
-2.74460835498758E-05,1.48613144119736E-05,0.52734375,0,0
-2.6379511837149E-05,1.82319745363202E-05,0.52734375,0,0
-2.69994452537503E-05,1.87364894372877E-05,0.52734375,0,0
-2.51639594353037E-05,1.62939431902487E-05,0.52734375,0,0
-2.64059945038753E-05,1.45672474900493E-05,0.52734375,0,0
-2.57777410297422E-05,1.4832923625363E-05,0.52734375,0,0
-2.79759697150439E-05,1.57000413310016E-05,0.52734375,0,0
-2.79463492915966E-05,1.64482553373091E-05,0.52734375,0,0
-2.89915788016515E-05,1.79924154508626E-05,0.52734375,0,0
-2.8169608413009E-05,1.76895409822464E-05,0.52734375,0,0
-2.98014019790571E-05,1.39847288664896E-05,0.52734375,0,0
-3.05741232295986E-05,1.01659879874205E-05,0.52734375,0,0
-2.99668972729705E-05,8.99897895578761E-06,0.52734375,0,0
-2.80995718640042E-05,1.03110423879116E-05,0.52734375,0,0
-2.73306413873797E-05,1.19721153168939E-05,0.52734375,0,0
-2.08380970434519E-05,9.50594949244987E-06,0.52734375,0,0
-2.82861874438822E-05,1.13340774987591E-05,0.52734375,0,0
-2.06628119485686E-05,5.91825937590329E-06,0.52734375,0,0
-2.74356207228266E-05,1.04494602055638E-05,0.52734375,0,0
-2.30300338444067E-05,1.11178260340239E-05,0.52734375,0,0
-2.53355428867508E-05,1.40760930662509E-05,0.52734375,0,0
-2.18095101445215E-05,1.38150990096619E-05,0.52734375,0,0
-2.14186311495723E-05,1.55986472236691E-05,0.52734375,0,0
-1.99342066480313E-05,1.59372993948637E-05,0.52734375,0,0
-1.85076114576077E-05,1.68575843417784E-05,0.52734375,0,0
-1.77481852006167E-05,1.84557138709351E-05,0.52734375,0,0
-1.79024191311328E-05,1.80580664164154E-05,0.52734375,0,0
-2.04584775929106E-05,1.67085981956916E-05,0.52734375,0,0
-2.10712969419546E-05,1.21244447655044E-05,0.52734375,0,0
-2.29852012125775E-05,9.0194935182808E-06,0.52734375,0,0
-2.15814670809777E-05,7.51567904444528E-06,0.52734375,0,0
-2.27731889026472E-05,8.46229613671312E-06,0.52734375,0,0
-2.28154385695234E-05,8.31019860925153E-06,0.52734375,0,0
-2.42788482864853E-05,9.68203949014423E-06,0.52734375,0,0
-2.15513155126246E-05,1.05681738205021E-05,0.52734375,0,0
-1.99631867872085E-05,1.26268878375413E-05,0.52734375,0,0
-1.88667236216133E-05,1.49161232911865E-05,0.52734375,0,0
-2.06814747798489E-05,1.58928305609152E-05,0.52734375,0,0
-2.2719012122252E-05,1.41924838317209E-05,0.52734375,0,0
-2.40564349951455E-05,1.20093855002779E-05,0.52734375,0,0
-2.15462969208602E-05,1.00034294518991E-05,0.52734375,0,0
-1.92969800991705E-05,9.79632932285313E-06,0.52734375,0,0
-1.677377440501E-05,1.02278927442967E-05,0.52734375,0,0
-2.48254127654945E-05,1.55467423610389E-05,0.52734375,0,0
-1.90648352145217E-05,1.08372378235799E-05,0.52734375,0,0
-2.25640760618262E-05,1.15770844786312E-05,0.52734375,0,0
-2.11808146559633E-05,9.93850517261308E-06,0.52734375,0,0
-2.55055638263002E-05,1.01246569101932E-05,0.52734375,0,0
-2.32525235333014E-05,8.09407356427982E-06,0.52734375,0,0
-2.25322983169463E-05,8.70778603712097E-06,0.52734375,0,0
-2.19400571950246E-05,1.05500630525057E-05,0.52734375,0,0
-2.23514816752868E-05,1.35262098410749E-05,0.52734375,0,0
-2.32321272051195E-05,1.40691718115704E-05,0.52734375,0,0
-2.35136794799473E-05,1.12145953607978E-05,0.52734375,0,0
-2.48715150519274E-05,1.00529096016544E-05,0.52734375,0,0
-2.40445879171602E-05,9.28425288293511E-06,0.52734375,0,0
-2.4409600882791E-05,8.88583963387646E-06,0.52734375,0,0
-2.29437737289118E-05,6.7302503339306E-06,0.52734375,0,0
-2.26477422984317E-05,5.36695233677165E-06,0.52734375,0,0
-2.07253233384108E-05,4.32172191722202E-06,0.52734375,0,0
-2.16008138522739E-05,5.16289992447128E-06,0.52734375,0,0
-2.17352135223337E-05,5.21886613569222E-06,0.52734375,0,0
-2.27926702791592E-05,7.63080242904834E-06,0.52734375,0,0
-2.22831895371201E-05,1.0237175047223E-05,0.52734375,0,0
-2.20277943299152E-05,9.84530288405949E-06,0.52734375,0,0
-2.12226677831495E-05,7.92882019595709E-06,0.52734375,0,0
-2.07697848964017E-05,7.81828020990361E-06,0.52734375,0,0
-2.10889502341161E-05,9.11466213437961E-06,0.52734375,0,0
-2.19101675611455E-05,1.02029162007966E-05,0.52734375,0,0
-1.86553334060591E-05,7.48861384636257E-06,0.52734375,0,0
-2.65072285401402E-05,9.98651466943556E-06,0.52734375,0,0
-2.04644165933132E-05,8.04167393653188E-06,0.52734375,0,0
-2.64938553300453E-05,1.18855223263381E-05,0.52734375,0,0
-2.31896319746738E-05,1.19996493594954E-05,0.52734375,0,0
-2.60493015957763E-05,1.39102812681813E-05,0.52734375,0,0
-2.45524461206514E-05,1.1328615983075E-05,0.52734375,0,0
-2.57056544796797E-05,9.38639732339652E-06,0.52734375,0,0
-2.52583395194961E-05,7.48789489080082E-06,0.52734375,0,0
-2.38516749959672E-05,8.11963855085196E-06,0.52734375,0,0
-2.26780921366299E-05,9.90937132883118E-06,0.52734375,0,0
-2.21300706471084E-05,1.06605893961387E-05,0.52734375,0,0
-2.40360841416987E-05,9.83926474873442E-06,0.52734375,0,0
-2.42168516706442E-05,6.45739874016726E-06,0.52734375,0,0
-2.55956892942777E-05,5.76430738874478E-06,0.52734375,0,0
-2.41666766669368E-05,7.07380240783095E-06,0.52734375,0,0
-2.4166050934582E-05,1.01096138678258E-05,0.52734375,0,0
-2.31426201935392E-05,1.0440847290738E-05,0.52734375,0,0
-2.55989561992465E-05,9.16001408768352E-06,0.52734375,0,0
-2.66843871941091E-05,5.80749610890052E-06,0.52734375,0,0
-2.85543064819649E-05,3.40838187185E-06,0.52734375,0,0
-2.86899212369462E-05,1.61071625370823E-06,0.52734375,0,0
-2.85633068415336E-05,1.57771637532278E-06,0.52734375,0,0
-2.78520019492134E-05,1.73581884155283E-06,0.52734375,0,0
-2.75660931947641E-05,2.7440216854302E-06,0.52734375,0,0
-2.50646862696158E-05,5.81163021706743E-06,0.52734375,0,0
-2.26875617954647E-05,9.1895026343991E-06,0.52734375,0,0
-1.72923373611411E-05,7.62765239414875E-06,0.52734375,0,0
-2.40498593484517E-05,9.65031358646229E-06,0.52734375,0,0
-1.84734672075138E-05,9.07515732251341E-06,0.52734375,0,0
-2.39571800193517E-05,1.6589394363109E-05,0.52734375,0,0
-2.04514108190779E-05,1.75105942616938E-05,0.52734375,0,0
-2.37456624745391E-05,1.69360591826262E-05,0.52734375,0,0
-2.23708902922226E-05,1.35762811623863E-05,0.52734375,0,0
-2.2009722670191E-05,1.48969793372089E-05,0.52734375,0,0
-1.92404932022328E-05,1.53403816511855E-05,0.52734375,0,0
-1.82617150130682E-05,1.44690529850777E-05,0.52734375,0,0
-1.98349662241526E-05,1.35838145070011E-05,0.52734375,0,0
-2.25447274715407E-05,1.27725306811044E-05,0.52734375,0,0
-2.62028061115416E-05,1.33242001538747E-05,0.52734375,0,0
-2.61432287516072E-05,1.46594793477561E-05,0.52734375,0,0
-2.64875761786243E-05,1.63448366947705E-05,0.52734375,0,0
-2.47202751779696E-05,1.46677202792489E-05,0.52734375,0,0
-2.6120244001504E-05,1.36631233544904E-05,0.52734375,0,0
-2.6807838366949E-05,1.25864326037117E-05,0.52734375,0,0
-2.89665586024057E-05,1.27352022900595E-05,0.52734375,0,0
-2.79081832559314E-05,1.1582918887143E-05,0.52734375,0,0
-2.71292319666827E-05,9.86245959211374E-06,0.52734375,0,0
-2.56495095527498E-05,6.76205945637776E-06,0.52734375,0,0
-2.57230476563564E-05,6.00627163294121E-06,0.52734375,0,0
-2.47946172748925E-05,6.13846259511774E-06,0.52734375,0,0
-2.35581392189488E-05,5.2774366849917E-06,0.52734375,0,0
-2.33860009757336E-05,3.58976035386149E-06,0.52734375,0,0
-2.42960213654442E-05,3.15273996420729E-06,0.52734375,0,0
-1.97461795323761E-05,2.60832871390448E-06,0.52734375,0,0
-2.72653069259832E-05,4.18180206906982E-06,0.52734375,0,0
-1.79686012415914E-05,4.59820148535073E-06,0.52734375,0,0
-2.00117337953998E-05,8.49298248795094E-06,0.52734375,0,0
-1.42302706080955E-05,1.11461313281325E-05,0.52734375,0,0
-1.77804013219429E-05,1.22959654618171E-05,0.52734375,0,0
-1.71309548022691E-05,1.33714047478861E-05,0.52734375,0,0
-1.77093297679676E-05,1.36275766635663E-05,0.52734375,0,0
-1.56175374286249E-05,1.08482199721038E-05,0.52734375,0,0
-1.48141025420045E-05,8.36619801702909E-06,0.52734375,0,0
-1.55454108607955E-05,9.1660567704821E-06,0.52734375,0,0
-1.63956301548751E-05,1.10362434497802E-05,0.52734375,0,0
-1.87912955880165E-05,1.24938396766083E-05,0.52734375,0,0
-1.89483780559385E-05,1.25496089822263E-05,0.52734375,0,0
-2.02022711164318E-05,1.19797450679471E-05,0.52734375,0,0
-1.79902417585254E-05,1.19176484076888E-05,0.52734375,0,0
-1.8149463357986E-05,1.28594447232899E-05,0.52734375,0,0
-1.74416509253206E-05,1.43147744893213E-05,0.52734375,0,0
-1.94609383470379E-05,1.42987782965065E-05,0.52734375,0,0
-1.98563138837926E-05,1.18117332021939E-05,0.52734375,0,0
-2.06175063794944E-05,9.26060602068901E-06,0.52734375,0,0
-1.9764691387536E-05,6.18972035226761E-06,0.52734375,0,0
-2.03234922082629E-05,4.17748333347845E-06,0.52734375,0,0
-1.93594514712458E-05,5.94674702369957E-06,0.52734375,0,0
-1.98203324544011E-05,1.07295682028052E-05,0.52734375,0,0
-2.24018567678286E-05,1.29930867842631E-05,0.52734375,0,0
-2.40179651882499E-05,7.81750441092299E-06,0.52734375,0,0
-1.72952168213669E-05,-4.92612040048357E-09,0.52734375,0,0
-2.24699633690761E-05,1.19338812964997E-06,0.52734375,0,0
-1.5677789633628E-05,3.22239520755829E-06,0.52734375,0,0
-2.21337995753856E-05,3.99322652810952E-06,0.52734375,0,0
-1.98321940843016E-05,5.27518477611011E-06,0.52734375,0,0
-2.38241445913445E-05,7.53839731260086E-06,0.52734375,0,0
-2.29239394684555E-05,1.09418715510401E-05,0.52734375,0,0
-2.46677391260164E-05,1.40289148475858E-05,0.52734375,0,0
-2.31167323363479E-05,1.2083473848179E-05,0.52734375,0,0
-2.18908862734679E-05,9.0290368461865E-06,0.52734375,0,0
-2.26875326916343E-05,8.89510829438223E-06,0.52734375,0,0
-2.42032074311282E-05,1.19108035505633E-05,0.52734375,0,0
-2.70070777332876E-05,1.56108762894291E-05,0.52734375,0,0
-2.61939876509132E-05,1.83912834472721E-05,0.52734375,0,0
-2.66826755250804E-05,1.95334941963665E-05,0.52734375,0,0
-2.70901437033899E-05,1.85358894668752E-05,0.52734375,0,0
-3.08720191242173E-05,1.56305159180192E-05,0.52734375,0,0
-3.11135991069023E-05,1.2302266441111E-05,0.52734375,0,0
-3.10721079586074E-05,9.16087265068199E-06,0.52734375,0,0
-2.86520316876704E-05,6.08565596849076E-06,0.52734375,0,0
-2.89714153041132E-05,4.60061892226804E-06,0.52734375,0,0
-2.99797247862443E-05,5.66845665161964E-06,0.52734375,0,0
-3.18235652230214E-05,7.82403913035523E-06,0.52734375,0,0
-3.15429024340119E-05,9.66947118286043E-06,0.52734375,0,0
-3.07514092128258E-05,1.22159981401637E-05,0.52734375,0,0
-2.94307865260635E-05,1.37670213007368E-05,0.52734375,0,0
-2.85434907709714E-05,1.30186353999306E-05,0.52734375,0,0
-2.40995195781579E-05,9.65157960308716E-06,0.52734375,0,0
-3.60911180905532E-05,1.40170250233496E-05,0.52734375,0,0
-3.0298931960715E-05,1.15990105769015E-05,0.52734375,0,0
-3.64872248610482E-05,1.54502631630749E-05,0.52734375,0,0
-3.03904362226604E-05,1.3255822523206E-05,0.52734375,0,0
-3.16462173941545E-05,1.21028624562314E-05,0.52734375,0,0
-2.65563103312161E-05,1.0653982826625E-05,0.52734375,0,0
-2.63404726865701E-05,1.25150927487994E-05,0.52734375,0,0
-2.48386186285643E-05,1.15593775262823E-05,0.52734375,0,0
-2.44825077970745E-05,1.19646683742758E-05,0.52734375,0,0
-2.46153867919929E-05,1.33476778501063E-05,0.52734375,0,0
-2.39820619754028E-05,1.13892247100011E-05,0.52734375,0,0
-2.4676581233507E-05,8.12159032648196E-06,0.52734375,0,0
-2.24813556997105E-05,5.8652472034737E-06,0.52734375,0,0
-2.25957337534055E-05,6.82668951412779E-06,0.52734375,0,0
-1.99459118448431E-05,8.89556486072252E-06,0.52734375,0,0
-1.93316845980007E-05,1.26554668895551E-05,0.52734375,0,0
-1.67430043802597E-05,1.41486680149683E-05,0.52734375,0,0
-1.85155331564602E-05,1.54628087329911E-05,0.52734375,0,0
-1.97396329895128E-05,1.57264621520881E-05,0.52734375,0,0
-2.21489299292443E-05,1.55874913616572E-05,0.52734375,0,0
-2.1791594917886E-05,1.09465754576377E-05,0.52734375,0,0
-2.23084152821684E-05,5.04401623402373E-06,0.52734375,0,0
-2.11637961911038E-05,6.27032761713053E-07,0.52734375,0,0
-2.09929930861108E-05,5.17419437073841E-07,0.52734375,0,0
-2.15010786632774E-05,3.29348335981194E-06,0.52734375,0,0
-2.18700060941046E-05,5.77879336560727E-06,0.52734375,0,0
-1.85519911610754E-05,3.14086378239153E-06,0.52734375,0,0
-2.70698801614344E-05,3.25991618410626E-06,0.52734375,0,0
-2.13677103602095E-05,1.80644087777182E-06,0.52734375,0,0
-2.57750125456369E-05,5.85314819545601E-06,0.52734375,0,0
-2.28332264669007E-05,1.05915405583801E-05,0.52734375,0,0
-2.60755696217529E-05,1.44255172926933E-05,0.52734375,0,0
-2.38380853261333E-05,1.4808440937486E-05,0.52734375,0,0
-2.49081804213347E-05,1.51567974171485E-05,0.52734375,0,0
-2.4872013455024E-05,1.33831808852847E-05,0.52734375,0,0
-2.40008557739202E-05,1.35479622258572E-05,0.52734375,0,0
-2.281319211761E-05,1.70739258464891E-05,0.52734375,0,0
-2.20735601033084E-05,2.02452392841224E-05,0.52734375,0,0
-2.29276429308811E-05,2.0644671167247E-05,0.52734375,0,0
-2.15676773223095E-05,1.93944761122111E-05,0.52734375,0,0
-2.21584614337189E-05,1.99412879737793E-05,0.52734375,0,0
-2.11456663237186E-05,2.07424727705074E-05,0.52734375,0,0
-2.20859819819452E-05,2.14290594158228E-05,0.52734375,0,0
-2.12389586522477E-05,2.06046515813796E-05,0.52734375,0,0
-2.2976008040132E-05,1.89756992767798E-05,0.52734375,0,0
-2.39144828810822E-05,1.69293834915152E-05,0.52734375,0,0
-2.64850841631414E-05,1.57379654410761E-05,0.52734375,0,0
-2.73209552688058E-05,1.40119727802812E-05,0.52734375,0,0
-2.88444462057669E-05,1.28086285258178E-05,0.52734375,0,0
-2.90502866846509E-05,1.32631366795977E-05,0.52734375,0,0
-2.87890470644925E-05,1.59005448949756E-05,0.52734375,0,0
-2.83256376860663E-05,1.81442028406309E-05,0.52734375,0,0
-2.7913347366848E-05,1.81102423084667E-05,0.52734375,0,0
-2.27389464271255E-05,1.49615971167805E-05,0.52734375,0,0
-3.4419495932525E-05,2.24839277507272E-05,0.52734375,0,0
-2.85712649201741E-05,1.81820360012352E-05,0.52734375,0,0
-3.25530709233135E-05,2.12022077903384E-05,0.52734375,0,0
-2.53768885158934E-05,1.54192421177868E-05,0.52734375,0,0
-2.72869183390867E-05,1.51880167322815E-05,0.52734375,0,0
-2.49883505603066E-05,1.47938308145967E-05,0.52734375,0,0
-2.71616645477479E-05,1.49159704960766E-05,0.52734375,0,0
-2.66821698460262E-05,1.06800771391136E-05,0.52734375,0,0
-2.52991267188918E-05,9.04444004845573E-06,0.52734375,0,0
-2.41196121351095E-05,9.4576380433864E-06,0.52734375,0,0
-2.27846794587094E-05,8.92834941623732E-06,0.52734375,0,0
-2.34672424994642E-05,1.13327714643674E-05,0.52734375,0,0
-2.25350122491363E-05,1.4196216397977E-05,0.52734375,0,0
-2.28669159696437E-05,1.6710033378331E-05,0.52734375,0,0
-2.04099778784439E-05,1.53605578816496E-05,0.52734375,0,0
-2.14344436244573E-05,1.5298684957088E-05,0.52734375,0,0
-2.05969845410436E-05,1.35271129693137E-05,0.52734375,0,0
-2.15428317460464E-05,1.33849025587551E-05,0.52734375,0,0
-2.11979549931129E-05,1.31378528749337E-05,0.52734375,0,0
-2.30286823352799E-05,1.27731645989115E-05,0.52734375,0,0
-2.28948192670941E-05,1.09791253635194E-05,0.52734375,0,0
-2.32224392675562E-05,1.19313517643604E-05,0.52734375,0,0
-2.2106778487796E-05,1.10663631858188E-05,0.52734375,0,0
-2.20244583033491E-05,8.69699124450563E-06,0.52734375,0,0
-2.22162689169636E-05,7.44258977647405E-06,0.52734375,0,0
-2.3104264982976E-05,6.12290068602306E-06,0.52734375,0,0
-1.92211173271062E-05,1.65913570526754E-06,0.52734375,0,0
-2.63394704234088E-05,-1.99560119540365E-07,0.52734375,0,0
-1.94861149793724E-05,-3.10132281811093E-06,0.52734375,0,0
-2.49317690759199E-05,-1.08987444491504E-06,0.52734375,0,0
-2.03709860215895E-05,2.42023497776245E-06,0.52734375,0,0
-2.2050673578633E-05,3.74994260710082E-06,0.52734375,0,0
-2.00701924768509E-05,1.23988229461247E-06,0.52734375,0,0
-2.27833315875614E-05,1.06056825188716E-06,0.52734375,0,0
-2.29913421208039E-05,2.49765230364574E-06,0.52734375,0,0
-2.25068415602436E-05,5.19318246006151E-06,0.52734375,0,0
-2.26555512199411E-05,6.58266526443185E-06,0.52734375,0,0
-2.26219108299119E-05,7.97276607045205E-06,0.52734375,0,0
-2.34923882089788E-05,1.08490148704732E-05,0.52734375,0,0
-2.18547920667334E-05,1.276400507777E-05,0.52734375,0,0
-2.19511020986829E-05,1.33684443426318E-05,0.52734375,0,0
-2.02640530915232E-05,1.32697241497226E-05,0.52734375,0,0
-2.2901534975972E-05,1.37495289891376E-05,0.52734375,0,0
-2.45683968387311E-05,1.39133762786514E-05,0.52734375,0,0
-2.68367330136243E-05,1.48742519741063E-05,0.52734375,0,0
-2.61649875028525E-05,1.51340373122366E-05,0.52734375,0,0
-2.68640797003172E-05,1.47664868563879E-05,0.52734375,0,0
-2.55549512075959E-05,1.50153473441605E-05,0.52734375,0,0
-2.45087412622524E-05,1.76974099304061E-05,0.52734375,0,0
-2.23763163376134E-05,1.929579229909E-05,0.52734375,0,0
-2.15743493754417E-05,1.74402030097554E-05,0.52734375,0,0
-2.28916160267545E-05,1.50618307088735E-05,0.52734375,0,0
-2.5864370400086E-05,1.57219674292719E-05,0.52734375,0,0
-2.15139225474559E-05,1.31824517666246E-05,0.52734375,0,0
-2.85999540210469E-05,1.80057177203707E-05,0.52734375,0,0
-1.86716824828181E-05,1.26319073388004E-05,0.52734375,0,0
-2.43582453549607E-05,1.64192460943013E-05,0.52734375,0,0
-2.12424911296694E-05,1.26349923448288E-05,0.52734375,0,0
-2.50220291491132E-05,1.12297439045506E-05,0.52734375,0,0
-2.23255774471909E-05,7.10126823832979E-06,0.52734375,0,0
-2.3565649826196E-05,6.95177277520997E-06,0.52734375,0,0
-2.34980925597483E-05,7.85835709393723E-06,0.52734375,0,0
-2.37614185607526E-05,1.33720886879019E-05,0.52734375,0,0
-2.33101509365952E-05,2.00189497263636E-05,0.52734375,0,0
-2.19042285607429E-05,2.22861654037843E-05,0.52734375,0,0
-2.29027136811055E-05,2.25298190343892E-05,0.52734375,0,0
-2.27888849622104E-05,2.14696319744689E-05,0.52734375,0,0
-2.54516417044215E-05,1.93186024262104E-05,0.52734375,0,0
-2.51182045758469E-05,1.29800209833775E-05,0.52734375,0,0
-2.66088754869998E-05,9.13354506337782E-06,0.52734375,0,0
-2.59770622506039E-05,6.38999108559801E-06,0.52734375,0,0
-2.73198220384074E-05,6.34086836726055E-06,0.52734375,0,0
-2.56588118645595E-05,5.47216222912539E-06,0.52734375,0,0
-2.56171424553031E-05,6.70613189868163E-06,0.52734375,0,0
-2.58122236118652E-05,8.39274071040563E-06,0.52734375,0,0
-2.81468310276978E-05,1.27285175040015E-05,0.52734375,0,0
-2.7949659852311E-05,1.69186550920131E-05,0.52734375,0,0
-2.6821568098967E-05,1.85245826287428E-05,0.52734375,0,0
-2.56918319792021E-05,1.65801429830026E-05,0.52734375,0,0
-2.56231196544832E-05,1.4233800357033E-05,0.52734375,0,0
-2.12549202842638E-05,1.04906994238263E-05,0.52734375,0,0
-2.97769893222721E-05,1.41037435241742E-05,0.52734375,0,0
-2.15671771002235E-05,9.71350709733088E-06,0.52734375,0,0
-2.6366038582637E-05,1.2960147614649E-05,0.52734375,0,0
-2.22505605051992E-05,1.10788741949364E-05,0.52734375,0,0
-2.48200794885634E-05,1.09442717075581E-05,0.52734375,0,0
-2.10450616577873E-05,8.45902195578674E-06,0.52734375,0,0
-2.16286680370104E-05,9.52675600274233E-06,0.52734375,0,0
-2.1885793103138E-05,1.04570963230799E-05,0.52734375,0,0
-2.31737649301067E-05,1.10958380901138E-05,0.52734375,0,0
-2.42798978433711E-05,8.57063332659891E-06,0.52734375,0,0
-2.39469609368825E-05,4.15336762671359E-06,0.52734375,0,0
-2.52090085268719E-05,2.6289949346392E-06,0.52734375,0,0
-2.44113489316078E-05,2.24180848817923E-06,0.52734375,0,0
-2.41460274992278E-05,2.66157348960405E-06,0.52734375,0,0
-2.0507521185209E-05,4.16748548559553E-07,0.52734375,0,0
-2.00116974156117E-05,-2.92050344796735E-07,0.52734375,0,0
-1.85460376087576E-05,-6.14517205121956E-07,0.52734375,0,0
-2.00298873096472E-05,1.62659989655367E-06,0.52734375,0,0
-1.99557798623573E-05,3.36383845933597E-06,0.52734375,0,0
-2.10999951377744E-05,5.85568659516866E-06,0.52734375,0,0
-2.0069408492418E-05,8.04025876277592E-06,0.52734375,0,0
-1.98249690583907E-05,1.04880155049614E-05,0.52734375,0,0
-1.88014055311214E-05,1.02425310615217E-05,0.52734375,0,0
-1.87133155122865E-05,9.63450111157727E-06,0.52734375,0,0
-1.8276097762282E-05,1.02437797977473E-05,0.52734375,0,0
-1.79661401489284E-05,1.15540442493511E-05,0.52734375,0,0
-1.51441190610058E-05,8.98557118489407E-06,0.52734375,0,0
-2.28949120355537E-05,1.18528505481663E-05,0.52734375,0,0
-2.16656444536056E-05,8.9020204541157E-06,0.52734375,0,0
-2.75611000688514E-05,1.41334985528374E-05,0.52734375,0,0
-2.30554232985014E-05,1.41109831020003E-05,0.52734375,0,0
-2.33998325711582E-05,1.53015716932714E-05,0.52734375,0,0
-2.13365674426313E-05,1.52801112562884E-05,0.52734375,0,0
-2.2863554477226E-05,1.75375462276861E-05,0.52734375,0,0
-2.28368371608667E-05,1.66460122272838E-05,0.52734375,0,0
-2.25546464207582E-05,1.48298177009565E-05,0.52734375,0,0
-2.29388388106599E-05,1.24011176012573E-05,0.52734375,0,0
-2.39482960751047E-05,8.5352312453324E-06,0.52734375,0,0
-2.64004684140673E-05,5.82247139391257E-06,0.52734375,0,0
-2.5947885660571E-05,3.63388608093373E-06,0.52734375,0,0
-2.56663861364359E-05,4.15120484831277E-06,0.52734375,0,0
-2.37258755078074E-05,3.9286815081141E-06,0.52734375,0,0
-2.38279990298906E-05,3.89112756238319E-06,0.52734375,0,0
-2.25180883717258E-05,1.71309898178151E-06,0.52734375,0,0
-2.26845550059807E-05,5.60770445190428E-07,0.52734375,0,0
-2.17760589293903E-05,5.98327630996209E-07,0.52734375,0,0
-2.23229289986193E-05,2.87017314803961E-06,0.52734375,0,0
-2.16258031286998E-05,2.74779017672699E-06,0.52734375,0,0
-2.09589361475082E-05,9.34219713144557E-07,0.52734375,0,0
-2.02812698262278E-05,8.13461610960076E-07,0.52734375,0,0
-2.20213660213631E-05,3.61708634954994E-06,0.52734375,0,0
-2.30741534323897E-05,6.92329831508687E-06,0.52734375,0,0
-2.30464302148903E-05,8.03033890406368E-06,0.52734375,0,0
-1.77045021700906E-05,5.18798424309352E-06,0.52734375,0,0
-2.50215252890484E-05,7.99880672275322E-06,0.52734375,0,0
-1.94915228348691E-05,7.32835451344727E-06,0.52734375,0,0
-2.54407932516187E-05,1.0063633453683E-05,0.52734375,0,0
-2.31439007620793E-05,1.06693660200108E-05,0.52734375,0,0
-2.68352378043346E-05,1.2198647709738E-05,0.52734375,0,0
-2.47002826654352E-05,1.19138076115632E-05,0.52734375,0,0
-2.52059126069071E-05,1.20767290354706E-05,0.52734375,0,0
-2.44772927544545E-05,1.2454911484383E-05,0.52734375,0,0
-2.49323657044442E-05,1.42362023325404E-05,0.52734375,0,0
-2.64313712250441E-05,1.48614744830411E-05,0.52734375,0,0
-2.57302435784368E-05,1.33105913846521E-05,0.52734375,0,0
-2.56601342698559E-05,1.36298504003207E-05,0.52734375,0,0
-2.43448193941731E-05,1.50341875269078E-05,0.52734375,0,0
-2.5815999833867E-05,1.52776719914982E-05,0.52734375,0,0
-2.51761903200531E-05,1.33751291286899E-05,0.52734375,0,0
-2.5493847715552E-05,1.19872611321625E-05,0.52734375,0,0
-2.34911258303327E-05,9.33989667828428E-06,0.52734375,0,0
-2.30897840083344E-05,6.65530842525186E-06,0.52734375,0,0
-2.1906820620643E-05,5.21727997693233E-06,0.52734375,0,0
-2.27006985369371E-05,4.99818088428583E-06,0.52734375,0,0
-2.19662142626476E-05,2.97889118883177E-06,0.52734375,0,0
-2.14040483115241E-05,2.30718023885856E-06,0.52734375,0,0
-2.01838265638798E-05,4.1422649701417E-06,0.52734375,0,0
-1.98264788195957E-05,6.90878005116247E-06,0.52734375,0,0
-2.05948890652508E-05,9.32773855311098E-06,0.52734375,0,0
-2.27312702918425E-05,9.30803798837587E-06,0.52734375,0,0
-1.97465160454158E-05,6.93183528710506E-06,0.52734375,0,0
-2.77912276942516E-05,1.06706438600668E-05,0.52734375,0,0
-2.02505198103609E-05,1.05527187770349E-05,0.52734375,0,0
-2.48182168434141E-05,1.39535140988301E-05,0.52734375,0,0
-2.22059352381621E-05,1.12233556137653E-05,0.52734375,0,0
-2.68991570919752E-05,9.27587188925827E-06,0.52734375,0,0
-2.5109424313996E-05,7.66407720220741E-06,0.52734375,0,0
-2.49677996180253E-05,9.74515205598436E-06,0.52734375,0,0
-2.25166950258426E-05,1.03853290056577E-05,0.52734375,0,0
-2.25627481995616E-05,1.21958892123075E-05,0.52734375,0,0
-2.36899049923522E-05,1.41368709591916E-05,0.52734375,0,0
-2.24090890696971E-05,1.35797081384226E-05,0.52734375,0,0
-2.16371445276309E-05,1.45271988003515E-05,0.52734375,0,0
-2.05630512937205E-05,1.63175227498868E-05,0.52734375,0,0
-2.27081200137036E-05,1.7719297829899E-05,0.52734375,0,0
-2.25454823521432E-05,1.66448808158748E-05,0.52734375,0,0
-2.44290222326526E-05,1.68129554367624E-05,0.52734375,0,0
-2.45186365646077E-05,1.76141220435966E-05,0.52734375,0,0
-2.57197298196843E-05,1.94505901163211E-05,0.52734375,0,0
-2.43510239670286E-05,1.95085722225485E-05,0.52734375,0,0
-2.48827964242082E-05,1.86532288353192E-05,0.52734375,0,0
-2.44124221353559E-05,1.76571702468209E-05,0.52734375,0,0
-2.5962643121602E-05,1.83865031431196E-05,0.52734375,0,0
-2.67499308392871E-05,1.88415233424166E-05,0.52734375,0,0
-2.7686583052855E-05,1.84656582860043E-05,0.52734375,0,0
-2.7339085136191E-05,1.7350141206407E-05,0.52734375,0,0
-2.599226172606E-05,1.66259560501203E-05,0.52734375,0,0
-2.01600323634921E-05,1.37409442686476E-05,0.52734375,0,0
-2.77088274742709E-05,1.91595099749975E-05,0.52734375,0,0
-2.07566736207809E-05,1.19114401968545E-05,0.52734375,0,0
-2.74592221103376E-05,1.39085823320784E-05,0.52734375,0,0
-2.45720857492415E-05,1.15178827400086E-05,0.52734375,0,0
-2.77967446891125E-05,1.30999032990076E-05,0.52734375,0,0
-2.58732234215131E-05,1.2279814654903E-05,0.52734375,0,0
-2.88065948552685E-05,1.51590793393552E-05,0.52734375,0,0
-2.92097574856598E-05,1.86637607839657E-05,0.52734375,0,0
-2.91771593765588E-05,2.20131314563332E-05,0.52734375,0,0
-2.96387861453695E-05,2.25299700105097E-05,0.52734375,0,0
-2.94908368232427E-05,2.02716564672301E-05,0.52734375,0,0
-2.96959915431216E-05,1.9180084564141E-05,0.52734375,0,0
-2.61623190453975E-05,1.77484853338683E-05,0.52734375,0,0
-2.49643344432116E-05,1.67878224601736E-05,0.52734375,0,0
-2.38459397223778E-05,1.38298246383783E-05,0.52734375,0,0
-2.59144071605988E-05,1.19889846246224E-05,0.52734375,0,0
-2.43544927798212E-05,9.24948108149692E-06,0.52734375,0,0
-2.44142502197064E-05,8.3308596003917E-06,0.52734375,0,0
-2.34537292271852E-05,6.41625501884846E-06,0.52734375,0,0
-2.48916276177624E-05,6.91113382345065E-06,0.52734375,0,0
-2.467215017532E-05,7.8397206380032E-06,0.52734375,0,0
-2.4822029445204E-05,9.65947674558265E-06,0.52734375,0,0
-2.3907103241072E-05,1.0319836292183E-05,0.52734375,0,0
-2.40469926211517E-05,1.00892521004425E-05,0.52734375,0,0
-2.39853088714881E-05,8.02309841674287E-06,0.52734375,0,0
-2.36742907873122E-05,5.07917229697341E-06,0.52734375,0,0
-1.9759070710279E-05,3.01820750792103E-06,0.52734375,0,0
-2.88301707769278E-05,5.41861936653731E-06,0.52734375,0,0
-2.33092796406709E-05,7.26154121366562E-06,0.52734375,0,0
-2.91171872959239E-05,1.08274616650306E-05,0.52734375,0,0
-2.41196376009611E-05,1.01733585324837E-05,0.52734375,0,0
-2.5025277864188E-05,8.38831965666031E-06,0.52734375,0,0
-2.30738223763183E-05,8.88188787939725E-06,0.52734375,0,0
-2.4451146600768E-05,1.12686730062705E-05,0.52734375,0,0
-2.32561633310979E-05,1.22920091598644E-05,0.52734375,0,0
-2.25276526180096E-05,1.26034146887832E-05,0.52734375,0,0
-2.27345335588325E-05,1.15709017336485E-05,0.52734375,0,0
-2.28730768867536E-05,8.21999037725618E-06,0.52734375,0,0
-2.45932478719624E-05,4.69166479888372E-06,0.52734375,0,0
-2.37188160099322E-05,2.07603829949221E-06,0.52734375,0,0
-2.38423308474012E-05,-1.2784188356818E-06,0.52734375,0,0
-2.23573460971238E-05,-4.67649897473166E-06,0.52734375,0,0
-2.44455713982461E-05,-3.5338723591849E-06,0.52734375,0,0
-2.45644223468844E-05,9.8479370080895E-07,0.52734375,0,0
-2.53845792030916E-05,6.14156260780874E-06,0.52734375,0,0
-2.41833677137038E-05,8.7303214968415E-06,0.52734375,0,0
-2.52547633863287E-05,7.5512930379773E-06,0.52734375,0,0
-2.47794068855001E-05,5.07299228047486E-06,0.52734375,0,0
-2.39682758547133E-05,4.98005374538479E-06,0.52734375,0,0
-2.21016234718263E-05,5.70427846469102E-06,0.52734375,0,0
-2.25187286559958E-05,5.15005467605079E-06,0.52734375,0,0
-2.42194983002264E-05,2.93922516902967E-06,0.52734375,0,0
-2.45467635977548E-05,6.90822218984977E-07,0.52734375,0,0
-1.92008064914262E-05,-2.6139622377741E-07,0.52734375,0,0
-2.58344171015779E-05,-1.45071703627764E-06,0.52734375,0,0
-1.76892299350584E-05,-1.55674308643938E-06,0.52734375,0,0
-2.21154314203886E-05,1.107516141019E-06,0.52734375,0,0
-1.74085416801972E-05,3.84100303563173E-06,0.52734375,0,0
-2.10439993679756E-05,3.30012289850856E-06,0.52734375,0,0
-2.06132954190252E-05,2.18498394133348E-06,0.52734375,0,0
-2.21647223952459E-05,3.49707534041954E-06,0.52734375,0,0
-2.11929673241684E-05,5.40368000656599E-06,0.52734375,0,0
-2.13392304431181E-05,6.99022393746418E-06,0.52734375,0,0
-2.22696853597881E-05,8.00130237621488E-06,0.52734375,0,0
-2.29991819651332E-05,8.47327828523703E-06,0.52734375,0,0
-2.5756537070265E-05,9.10139169718605E-06,0.52734375,0,0
-2.57201172644272E-05,9.79168362391647E-06,0.52734375,0,0
-2.63779111264739E-05,9.13072199182352E-06,0.52734375,0,0
-2.4312987079611E-05,7.91844831837807E-06,0.52734375,0,0
-2.52992012974573E-05,9.20485763344914E-06,0.52734375,0,0
-2.51797318924218E-05,1.26416207422153E-05,0.52734375,0,0
-2.69119627773762E-05,1.46802904055221E-05,0.52734375,0,0
-2.58531727013178E-05,1.39421990752453E-05,0.52734375,0,0
-2.5511742933304E-05,1.31466476886999E-05,0.52734375,0,0
-2.46404524659738E-05,1.34086303660297E-05,0.52734375,0,0
-2.55102804658236E-05,1.42843146022642E-05,0.52734375,0,0
-2.5156401534332E-05,1.48013723446638E-05,0.52734375,0,0
-2.47734915319597E-05,1.39456242322922E-05,0.52734375,0,0
-2.41172583628213E-05,1.24633215818903E-05,0.52734375,0,0
-2.34229755733395E-05,1.14911927084904E-05,0.52734375,0,0
-1.93523428606568E-05,8.28330030344659E-06,0.52734375,0,0
-2.7063617380918E-05,1.16954151963E-05,0.52734375,0,0
-1.887423604785E-05,9.41602775128558E-06,0.52734375,0,0
-2.16331118281232E-05,1.39577723530238E-05,0.52734375,0,0
-1.65148449013941E-05,1.32956556626596E-05,0.52734375,0,0
-2.04441475943895E-05,1.29949339680024E-05,0.52734375,0,0
-1.99365185835632E-05,1.06401812445256E-05,0.52734375,0,0
-2.18572513404069E-05,1.0942429980787E-05,0.52734375,0,0
-2.27481232286664E-05,1.06835323094856E-05,0.52734375,0,0
-2.31328267545905E-05,1.12380967038916E-05,0.52734375,0,0
-2.27296441153158E-05,1.26082422866602E-05,0.52734375,0,0
-2.04468851734418E-05,1.2663021152548E-05,0.52734375,0,0
-1.97196968656499E-05,1.25799442685093E-05,0.52734375,0,0
-1.83528281922918E-05,1.09920465547475E-05,0.52734375,0,0
-2.06242057174677E-05,1.02155172498897E-05,0.52734375,0,0
-2.18201748793945E-05,8.92634307092521E-06,0.52734375,0,0
-2.42338683165144E-05,8.02830709289992E-06,0.52734375,0,0
-2.35102888836991E-05,7.0206269811024E-06,0.52734375,0,0
-2.45152150455397E-05,9.56011081143515E-06,0.52734375,0,0
-2.47373354795855E-05,1.23768068078789E-05,0.52734375,0,0
-2.66720526269637E-05,1.44087352964561E-05,0.52734375,0,0
-2.72357701760484E-05,1.57075610331958E-05,0.52734375,0,0
-2.82840519503225E-05,1.68457190738991E-05,0.52734375,0,0
-2.6996509404853E-05,1.66604422702221E-05,0.52734375,0,0
-2.61075128946686E-05,1.70308794622542E-05,0.52734375,0,0
-2.66796341747977E-05,1.5488420103793E-05,0.52734375,0,0
-2.784755997709E-05,1.27032762975432E-05,0.52734375,0,0
-2.30036639550235E-05,9.93471348920139E-06,0.52734375,0,0
-3.12620650220197E-05,1.36038261189242E-05,0.52734375,0,0
-2.14303072425537E-05,9.49460991250817E-06,0.52734375,0,0
-2.70629880105844E-05,1.46007641887991E-05,0.52734375,0,0
-2.07117991521955E-05,1.58417624334106E-05,0.52734375,0,0
-2.20554557017749E-05,1.6010832041502E-05,0.52734375,0,0
-1.92107727343682E-05,1.22112078315695E-05,0.52734375,0,0
-2.08439505513525E-05,1.07981641122024E-05,0.52734375,0,0
-2.0731666154461E-05,1.013694145513E-05,0.52734375,0,0
-2.06793774850667E-05,1.10880073407316E-05,0.52734375,0,0
-2.11140632018214E-05,1.06333045550855E-05,0.52734375,0,0
-2.02272003662074E-05,8.16313877294306E-06,0.52734375,0,0
-1.94640961126424E-05,6.77996968079242E-06,0.52734375,0,0
-1.67047019203892E-05,6.11359519098187E-06,0.52734375,0,0
-1.87526420631912E-05,7.98468863649759E-06,0.52734375,0,0
-1.92345942195971E-05,1.10535802377854E-05,0.52734375,0,0
-2.12311861105263E-05,1.50703563122079E-05,0.52734375,0,0
-2.02522805921035E-05,1.47094478961662E-05,0.52734375,0,0
-2.15636155189713E-05,1.37703873406281E-05,0.52734375,0,0
-2.02664868993452E-05,1.35960508487187E-05,0.52734375,0,0
-1.99783080461202E-05,1.33985295178718E-05,0.52734375,0,0
-1.89164711628109E-05,9.76853425527224E-06,0.52734375,0,0
-1.961368980119E-05,8.2867409219034E-06,0.52734375,0,0
-1.81638206413481E-05,1.11654635475134E-05,0.52734375,0,0
-1.69444720086176E-05,1.43716988532105E-05,0.52734375,0,0
-1.70385101228021E-05,1.4517237104883E-05,0.52734375,0,0
-1.75858094735304E-05,1.46445672726259E-05,0.52734375,0,0
-1.41897489811527E-05,1.10329028757405E-05,0.52734375,0,0
-1.99639944185037E-05,1.51444837683812E-05,0.52734375,0,0
-1.69487720995676E-05,1.16928295028629E-05,0.52734375,0,0
-2.36207342823036E-05,1.67233283718815E-05,0.52734375,0,0
-2.23063107114285E-05,1.63034310389776E-05,0.52734375,0,0
-2.42970872932347E-05,1.79027701960877E-05,0.52734375,0,0
-2.17700380744645E-05,1.56726327986689E-05,0.52734375,0,0
-2.24764407903422E-05,1.55026064021513E-05,0.52734375,0,0
-2.28414501179941E-05,1.52952561620623E-05,0.52734375,0,0
-2.43759968725499E-05,1.58964485308388E-05,0.52734375,0,0
-2.60305896517821E-05,1.45788162626559E-05,0.52734375,0,0
-2.5385505068698E-05,8.87043097463902E-06,0.52734375,0,0
-2.46236013481393E-05,2.1778339487355E-06,0.52734375,0,0
-2.16359221667517E-05,-1.55091061060375E-06,0.52734375,0,0
-2.07848643185571E-05,3.19186455044473E-07,0.52734375,0,0
-2.05089836526895E-05,1.93430287254159E-06,0.52734375,0,0
-2.30902132898336E-05,3.80150254386535E-06,0.52734375,0,0
-2.32462716667214E-05,4.02454816139652E-06,0.52734375,0,0
-2.37491840380244E-05,5.90961280977353E-06,0.52734375,0,0
-2.30145014938898E-05,6.41211136098718E-06,0.52734375,0,0
-2.39903911278816E-05,6.85563145452761E-06,0.52734375,0,0
-2.43401373154484E-05,6.83412281432538E-06,0.52734375,0,0
-2.56421499216231E-05,8.05917443358339E-06,0.52734375,0,0
-2.59963217104087E-05,8.23042955744313E-06,0.52734375,0,0
-2.5475696020294E-05,7.15129363015876E-06,0.52734375,0,0
-2.49687418545363E-05,6.29235819360474E-06,0.52734375,0,0
-2.51577821472893E-05,7.46151090424974E-06,0.52734375,0,0
-2.05545038625132E-05,7.24136134522269E-06,0.52734375,0,0
-2.94875299005071E-05,9.96604194369866E-06,0.52734375,0,0
-2.20162073674146E-05,6.70403278490994E-06,0.52734375,0,0
-2.55018330790335E-05,1.04571972769918E-05,0.52734375,0,0
-1.9818146029138E-05,1.31795950437663E-05,0.52734375,0,0
-2.33306218433427E-05,1.4211406778486E-05,0.52734375,0,0
-2.30640725931153E-05,1.09990569399088E-05,0.52734375,0,0
-2.47213010879932E-05,1.01841369541944E-05,0.52734375,0,0
-2.27960244956193E-05,8.91343734110706E-06,0.52734375,0,0
-2.25074036279693E-05,7.64101241657045E-06,0.52734375,0,0
-2.33701612160075E-05,8.55050802783808E-06,0.52734375,0,0
-2.27721338887932E-05,1.10675873656874E-05,0.52734375,0,0
-2.36283103731694E-05,1.57133781613084E-05,0.52734375,0,0
-2.2936837922316E-05,1.86205852514831E-05,0.52734375,0,0
-2.448715713399E-05,1.85736371349776E-05,0.52734375,0,0
-2.38241555052809E-05,1.71852207131451E-05,0.52734375,0,0
-2.50525135925272E-05,1.88340800377773E-05,0.52734375,0,0
-2.41986836044816E-05,2.05534142878605E-05,0.52734375,0,0
-2.55511877185199E-05,2.19132725760574E-05,0.52734375,0,0
-2.48142823693343E-05,2.13728380913381E-05,0.52734375,0,0
-2.58554955507861E-05,2.03697563847527E-05,0.52734375,0,0
-2.49969943979522E-05,1.93602299987106E-05,0.52734375,0,0
-2.44728889811086E-05,1.87392779480433E-05,0.52734375,0,0
-2.32555412367219E-05,1.78488535311772E-05,0.52734375,0,0
-2.12668928725179E-05,1.65586188813904E-05,0.52734375,0,0
-1.96479140868178E-05,1.45504591273493E-05,0.52734375,0,0
-2.10747039091075E-05,1.28362280520378E-05,0.52734375,0,0
-1.97633926291019E-05,9.26317534322152E-06,0.52734375,0,0
-2.94821766146924E-05,1.39439762278926E-05,0.52734375,0,0
-2.28779972530901E-05,1.38349778353586E-05,0.52734375,0,0
-2.6934350898955E-05,1.87988080142532E-05,0.52734375,0,0
-2.35735533351544E-05,1.52678603626555E-05,0.52734375,0,0
-2.59313237620518E-05,1.13632404463715E-05,0.52734375,0,0
-2.44569455389865E-05,5.40491282663425E-06,0.52734375,0,0
-2.71094377239933E-05,2.66677784566127E-06,0.52734375,0,0
-2.82341388810892E-05,-2.17654289258462E-07,0.52734375,0,0
-2.96472044283291E-05,4.25280177296372E-07,0.52734375,0,0
-3.00263091048691E-05,3.25273435919371E-06,0.52734375,0,0
-2.76157079497352E-05,5.0929638746311E-06,0.52734375,0,0
-2.56496714428067E-05,6.81195751894847E-06,0.52734375,0,0
-2.27666587306885E-05,6.52745575280278E-06,0.52734375,0,0
-2.40250155911781E-05,6.63345690554706E-06,0.52734375,0,0
-2.46430245169904E-05,6.73201247991528E-06,0.52734375,0,0
-2.61243476415984E-05,8.79580329637975E-06,0.52734375,0,0
-2.45446608460043E-05,9.98035648080986E-06,0.52734375,0,0
-2.49382901529316E-05,1.12723419078975E-05,0.52734375,0,0
-2.39267119468423E-05,1.00749048215221E-05,0.52734375,0,0
-2.38437896769028E-05,8.99357473826967E-06,0.52734375,0,0
-2.25064941332676E-05,7.31792806618614E-06,0.52734375,0,0
-2.30664445552975E-05,6.46813941784785E-06,0.52734375,0,0
-2.25447856792016E-05,5.13194936502259E-06,0.52734375,0,0
-2.21532518480672E-05,5.28675263922196E-06,0.52734375,0,0
-2.28078170039225E-05,7.0137048169272E-06,0.52734375,0,0
-2.48884844040731E-05,7.36353649699595E-06,0.52734375,0,0
-2.02831797651015E-05,3.96039467887022E-06,0.52734375,0,0
-2.77854724117788E-05,3.75956096831942E-06,0.52734375,0,0
-1.99382739083376E-05,-1.04205264506163E-06,0.52734375,0,0
-2.6134794097743E-05,-8.64877563344635E-07,0.52734375,0,0
-2.33631562878145E-05,2.46294257522095E-06,0.52734375,0,0
-2.64065074588871E-05,9.16602311917813E-06,0.52734375,0,0
-2.23034694499802E-05,1.32694895000895E-05,0.52734375,0,0
-2.10706712095998E-05,1.5012284166005E-05,0.52734375,0,0
-1.98637335415697E-05,1.19316910058842E-05,0.52734375,0,0
-2.16097905649804E-05,7.90247213444673E-06,0.52734375,0,0
-2.29108045459725E-05,6.58416001897422E-06,0.52734375,0,0
-2.21243772102753E-05,8.19231172499713E-06,0.52734375,0,0
-2.24751529458445E-05,1.05613271443872E-05,0.52734375,0,0
-2.13549828913528E-05,9.31624072109116E-06,0.52734375,0,0
-2.29499146371381E-05,6.01715373704792E-06,0.52734375,0,0
-2.3126396627049E-05,4.03163312512334E-06,0.52734375,0,0
-2.63478759734426E-05,5.30113402419374E-06,0.52734375,0,0
-2.73790119535988E-05,5.88542388868518E-06,0.52734375,0,0
-2.94872425001813E-05,6.16399938735412E-06,0.52734375,0,0
-2.8518747058115E-05,6.56489419270656E-06,0.52734375,0,0
-2.90235893771751E-05,7.41995472708368E-06,0.52734375,0,0
-2.86757658614079E-05,7.77408422436565E-06,0.52734375,0,0
-2.92181630356936E-05,7.87693988968385E-06,0.52734375,0,0
-2.83673998637823E-05,7.29596104065422E-06,0.52734375,0,0
-2.93914454232436E-05,7.82681945565855E-06,0.52734375,0,0
-3.032984022866E-05,9.79356445895974E-06,0.52734375,0,0
-3.0377930670511E-05,1.19176638690988E-05,0.52734375,0,0
-2.49181430262979E-05,9.10588823899161E-06,0.52734375,0,0
-3.56722594005987E-05,1.19308442663169E-05,0.52734375,0,0
-2.69972788373707E-05,9.34907257033046E-06,0.52734375,0,0
-3.15020479320083E-05,1.39649482662207E-05,0.52734375,0,0
-2.45200881181518E-05,1.14396443677833E-05,0.52734375,0,0
-2.83095923805377E-05,1.19480137072969E-05,0.52734375,0,0
-2.65230864897603E-05,1.0786143320729E-05,0.52734375,0,0
-2.84479228866985E-05,1.12564612209098E-05,0.52734375,0,0
-2.72816687356681E-05,1.15100046969019E-05,0.52734375,0,0
-2.59552816714859E-05,1.33627981995232E-05,0.52734375,0,0
-2.51274068432394E-05,1.56638125190511E-05,0.52734375,0,0
-2.36081614275463E-05,1.54332446982153E-05,0.52734375,0,0
-2.34348790399963E-05,1.50068544826354E-05,0.52734375,0,0
-2.07159373530885E-05,1.50649657371105E-05,0.52734375,0,0
-2.19322246266529E-05,1.72428026417037E-05,0.52734375,0,0
-2.16200805880362E-05,1.79027319973102E-05,0.52734375,0,0
-2.44901857513469E-05,1.85054814210162E-05,0.52734375,0,0
-2.34945600823266E-05,1.80419756361516E-05,0.52734375,0,0
-2.30916230066214E-05,1.89965048775775E-05,0.52734375,0,0
-2.09296413231641E-05,1.93340401892783E-05,0.52734375,0,0
-2.20512192754541E-05,2.02584742510226E-05,0.52734375,0,0
-2.14225001400337E-05,1.90550344996154E-05,0.52734375,0,0
-2.18305867747404E-05,1.63745862664655E-05,0.52734375,0,0
-2.2582005840377E-05,1.35906311697909E-05,0.52734375,0,0
-2.41881389229093E-05,1.30908847495448E-05,0.52734375,0,0
-2.47523184953025E-05,1.43994238896994E-05,0.52734375,0,0
-2.58967993431725E-05,1.53421260620235E-05,0.52734375,0,0
-2.19476805796148E-05,1.04783985079848E-05,0.52734375,0,0
-3.07326190522872E-05,1.24079379020259E-05,0.52734375,0,0
-2.15569234569557E-05,7.72374096413841E-06,0.52734375,0,0
-2.51695237238891E-05,1.37257975438843E-05,0.52734375,0,0
-1.99402420548722E-05,1.40410893436638E-05,0.52734375,0,0
-2.43942322413204E-05,1.54040008055745E-05,0.52734375,0,0
-2.56295952567598E-05,1.37574152176967E-05,0.52734375,0,0
-2.94100209430326E-05,1.63654440257233E-05,0.52734375,0,0
-2.84288271359401E-05,1.62082887982251E-05,0.52734375,0,0
-2.66861279669683E-05,1.53102973854402E-05,0.52734375,0,0
-2.58591444435297E-05,1.47462178574642E-05,0.52734375,0,0
-2.46659292315599E-05,1.36924736580113E-05,0.52734375,0,0
-2.51465626206482E-05,1.44223895404139E-05,0.52734375,0,0
-2.37428048421862E-05,1.47247164932196E-05,0.52734375,0,0
-2.55521827057237E-05,1.47937844303669E-05,0.52734375,0,0
-2.50704979407601E-05,1.11879371615942E-05,0.52734375,0,0
-2.60952710959828E-05,8.71112570166588E-06,0.52734375,0,0
-2.47162715822924E-05,6.70032795824227E-06,0.52734375,0,0
-2.56125658779638E-05,7.30075998944812E-06,0.52734375,0,0
-2.43729919020552E-05,7.62650688557187E-06,0.52734375,0,0
-2.54330989264417E-05,9.79558535618708E-06,0.52734375,0,0
-2.63496694969945E-05,1.01909636214259E-05,0.52734375,0,0
-2.85752066702116E-05,9.64926221058704E-06,0.52734375,0,0
-2.91081505565671E-05,7.01494946042658E-06,0.52734375,0,0
-2.84036232187646E-05,3.91613866668195E-06,0.52734375,0,0
-2.6405235985294E-05,3.02210719382856E-06,0.52734375,0,0
-2.4623608624097E-05,4.63457035948522E-06,0.52734375,0,0
-1.9349792637513E-05,4.51355481345672E-06,0.52734375,0,0
-2.70676446234575E-05,7.41842177376384E-06,0.52734375,0,0
-1.92486550076865E-05,7.67776327847969E-06,0.52734375,0,0
-2.28124627028592E-05,8.64019511936931E-06,0.52734375,0,0
-1.7662985555944E-05,6.45876571070403E-06,0.52734375,0,0
-1.82710500666872E-05,6.77422758599278E-06,0.52734375,0,0
-1.38643417813E-05,6.40477219349123E-06,0.52734375,0,0
-1.20833328765002E-05,5.80608366362867E-06,0.52734375,0,0
-7.87979024607921E-06,6.0700308495143E-06,0.52734375,0,0
-5.70219981455011E-06,9.91047090792563E-06,0.52734375,0,0
-4.63860033050878E-06,1.41309192258632E-05,0.52734375,0,0
-3.00215856441355E-06,1.52057436935138E-05,0.52734375,0,0
-2.54315023084928E-06,1.54129393195035E-05,0.52734375,0,0
-6.67550864363875E-07,1.59494047693443E-05,0.52734375,0,0
-1.51099084177986E-06,1.59712362801656E-05,0.52734375,0,0
2.7637662469715E-07,1.46749243867816E-05,0.52734375,0,0
3.4335724308221E-07,1.51524809552939E-05,0.52734375,0,0
1.5737366538815E-06,1.69991872098763E-05,0.52734375,0,0
-1.60385343406233E-06,1.95588127098745E-05,0.52734375,0,0
-4.30968839282286E-06,2.01605598704191E-05,0.52734375,0,0
-6.77116895531071E-06,1.97092576854629E-05,0.52734375,0,0
-6.12717076364788E-06,1.73548451130046E-05,0.52734375,0,0
-7.44029148336267E-06,1.24919788504485E-05,0.52734375,0,0
-1.00202614703448E-05,8.35579976410372E-06,0.52734375,0,0
-1.33586408992414E-05,8.55260350363096E-06,0.52734375,0,0
-1.56352689373307E-05,9.8886011983268E-06,0.52734375,0,0
-1.9121500372421E-05,1.09474076452898E-05,0.52734375,0,0
-1.98979123524623E-05,1.17080417112447E-05,0.52734375,0,0
-3.1124145607464E-05,2.07185257750098E-05,0.52734375,0,0
-2.76538467005594E-05,1.53118962771259E-05,0.52734375,0,0
-3.31475057464559E-05,8.48115269036498E-06,0.52734375,0,0
-2.96916077786591E-05,1.49871527810319E-06,0.52734375,0,0
-3.388279947103E-05,3.37747951562051E-06,0.52734375,0,0
-3.47328714269679E-05,5.58192459720885E-06,0.52734375,0,0
-3.77454525732901E-05,6.97013319950202E-06,0.52734375,0,0
-3.73378534277435E-05,1.83280519649998E-06,0.52734375,0,0
-3.59803998435382E-05,-2.73671571449086E-06,0.52734375,0,0
-3.49108886439353E-05,-1.67658060945541E-06,0.52734375,0,0
-3.49730762536637E-05,2.01525358534127E-06,0.52734375,0,0
-3.69240988220554E-05,6.64370236336254E-06,0.52734375,0,0
-3.58429497282486E-05,7.82613915362163E-06,0.52734375,0,0
-3.6410096072359E-05,6.96133383826236E-06,0.52734375,0,0
-3.68899200111628E-05,4.2119554564124E-06,0.52734375,0,0
-3.99886703235097E-05,3.18084471473412E-06,0.52734375,0,0
-3.79265293304343E-05,1.02889282516117E-06,0.52734375,0,0
-3.65807791240513E-05,6.08236234711512E-08,0.52734375,0,0
-3.64179104508366E-05,1.02592537132296E-06,0.52734375,0,0
-3.84253835363779E-05,3.75182571588084E-06,0.52734375,0,0
-3.69470180885401E-05,4.84026259073289E-06,0.52734375,0,0
-3.60906306013931E-05,4.16681496062665E-06,0.52734375,0,0
-3.54723924829159E-05,2.49334971158532E-06,0.52734375,0,0
-3.46433989761863E-05,3.17368721880484E-06,0.52734375,0,0
-3.41814338753466E-05,4.91403397973045E-06,0.52734375,0,0
-3.54388321284205E-05,6.89668331688154E-06,0.52734375,0,0
-2.73439000011422E-05,8.45150862005539E-06,0.52734375,0,0
-3.69473091268446E-05,1.35646050694049E-05,0.52734375,0,0
-2.7137806682731E-05,1.24590887935483E-05,0.52734375,0,0
-3.58502838935237E-05,1.56483911268879E-05,0.52734375,0,0
-2.89717609120999E-05,1.37606821226655E-05,0.52734375,0,0
-3.09294809994753E-05,1.25104297694634E-05,0.52734375,0,0
-2.56800813076552E-05,1.15905077109346E-05,0.52734375,0,0
-2.58759482676396E-05,1.35409254653496E-05,0.52734375,0,0
-2.4287028281833E-05,1.37937304316438E-05,0.52734375,0,0
-2.45351293415297E-05,1.37159013320343E-05,0.52734375,0,0
-2.4749129806878E-05,1.43017159643932E-05,0.52734375,0,0
-2.33857481362065E-05,1.38241339300293E-05,0.52734375,0,0
-2.43351969402283E-05,1.21946695799124E-05,0.52734375,0,0
-2.26304182433523E-05,9.90191801975016E-06,0.52734375,0,0
-2.38633256230969E-05,1.02599942692905E-05,0.52734375,0,0
-2.27781638386659E-05,1.21087541629095E-05,0.52734375,0,0
-2.50781740760431E-05,1.47035007103113E-05,0.52734375,0,0
-2.31344693020219E-05,1.31319502543192E-05,0.52734375,0,0
-2.34000799537171E-05,9.95241043710848E-06,0.52734375,0,0
-2.19724879571004E-05,8.07921333034756E-06,0.52734375,0,0
-2.28045428229962E-05,8.39094354887493E-06,0.52734375,0,0
-2.09178360819351E-05,7.61494129619678E-06,0.52734375,0,0
-2.13755538425175E-05,7.27616816220689E-06,0.52734375,0,0
-2.16081007238245E-05,6.12829262536252E-06,0.52734375,0,0
-2.35483475989895E-05,5.16216869073105E-06,0.52734375,0,0
-2.34060862567276E-05,8.17189629742643E-06,0.52734375,0,0
-2.17209599213675E-05,1.27275197883137E-05,0.52734375,0,0
-1.76052053575404E-05,1.06180650618626E-05,0.52734375,0,0
-2.54468159255339E-05,1.45702451845864E-05,0.52734375,0,0
-1.94520143850241E-05,1.0991178896802E-05,0.52734375,0,0
-2.25816565944115E-05,1.64085849974072E-05,0.52734375,0,0
-1.78379686985863E-05,1.59931496455101E-05,0.52734375,0,0
-2.04827647394268E-05,1.70483672263799E-05,0.52734375,0,0
-2.07562570722075E-05,1.63053446158301E-05,0.52734375,0,0
-2.2799331418355E-05,1.83403808478033E-05,0.52734375,0,0
-2.19467019633157E-05,1.94681233551819E-05,0.52734375,0,0
-2.14718984352658E-05,1.99383575818501E-05,0.52734375,0,0
-2.11775131901959E-05,1.95814172911923E-05,0.52734375,0,0
-2.08775254577631E-05,1.7457776266383E-05,0.52734375,0,0
-2.29267243412323E-05,1.65757355716778E-05,0.52734375,0,0
-2.24434661504347E-05,1.69066552189179E-05,0.52734375,0,0
-2.28162061830517E-05,1.82437343028141E-05,0.52734375,0,0
-2.2382773749996E-05,1.72430663951673E-05,0.52734375,0,0
-2.43564136326313E-05,1.70586772583192E-05,0.52734375,0,0
-2.32111196964979E-05,1.66743357112864E-05,0.52734375,0,0
-2.15723048313521E-05,1.77129822986899E-05,0.52734375,0,0
-1.71507435879903E-05,1.61202860908816E-05,0.52734375,0,0
-1.61044699780177E-05,1.43700099215494E-05,0.52734375,0,0
-1.72799518622924E-05,1.23250420074328E-05,0.52734375,0,0
-1.99471669475315E-05,1.12146844912786E-05,0.52734375,0,0
-2.20299698412418E-05,1.19383412311436E-05,0.52734375,0,0
-2.4180015316233E-05,1.41832915687701E-05,0.52734375,0,0
-2.43138601945248E-05,1.61051757459063E-05,0.52734375,0,0
-2.37216972891474E-05,1.70008916029474E-05,0.52734375,0,0
-1.94792337424587E-05,1.42948847496882E-05,0.52734375,0,0
-2.8188071155455E-05,1.99230926227756E-05,0.52734375,0,0
-2.23713559535099E-05,9.98166706267511E-06,0.52734375,0,0
-2.74738595180679E-05,6.36446930002421E-06,0.52734375,0,0
-2.26660777116194E-05,9.37608717777039E-07,0.52734375,0,0
-2.49779495788971E-05,5.83120072406018E-06,0.52734375,0,0
-2.36547275562771E-05,1.06313700598548E-05,0.52734375,0,0
-2.46146537392633E-05,1.47851178553537E-05,0.52734375,0,0
-2.27501805056818E-05,1.32255245262058E-05,0.52734375,0,0
-2.22328326344723E-05,1.10352657429758E-05,0.52734375,0,0
-2.2838123186375E-05,8.75122714205645E-06,0.52734375,0,0
-2.23818515223684E-05,5.11535017722053E-06,0.52734375,0,0
-2.2956517568673E-05,5.14527800987707E-06,0.52734375,0,0
-2.25306284846738E-05,7.27946508050081E-06,0.52734375,0,0
-2.55604991252767E-05,9.10316975932801E-06,0.52734375,0,0
-2.6599685952533E-05,6.84686710883398E-06,0.52734375,0,0
-2.84169709630078E-05,7.37092977942666E-06,0.52734375,0,0
-2.71963690465782E-05,8.13908445707057E-06,0.52734375,0,0
-2.81267639365979E-05,9.31596423470182E-06,0.52734375,0,0
-2.75807142315898E-05,9.56912845140323E-06,0.52734375,0,0
-2.73206442216178E-05,1.2085867638234E-05,0.52734375,0,0
-2.45071496465243E-05,1.2319460438448E-05,0.52734375,0,0
-2.24016002903227E-05,1.18838806884014E-05,0.52734375,0,0
-2.10315538424766E-05,1.23903600979247E-05,0.52734375,0,0
-2.28174485528143E-05,1.41301316034514E-05,0.52734375,0,0
-2.41909256146755E-05,1.49999405039125E-05,0.52734375,0,0
-2.32221027545165E-05,1.47178552651894E-05,0.52734375,0,0
-1.90835980902193E-05,9.39866185944993E-06,0.52734375,0,0
-2.81198263110127E-05,1.16406699817162E-05,0.52734375,0,0
-2.28330918616848E-05,7.31624413674581E-06,0.52734375,0,0
-2.74537505902117E-05,1.18558236863464E-05,0.52734375,0,0
-2.38808552239789E-05,1.12636007543188E-05,0.52734375,0,0
-2.73419300356181E-05,1.19302030725521E-05,0.52734375,0,0
-2.51857873081462E-05,9.89502768788952E-06,0.52734375,0,0
-2.54323349508923E-05,9.38841913011856E-06,0.52734375,0,0
-2.48969809035771E-05,8.38237428979483E-06,0.52734375,0,0
-2.58665604633279E-05,8.96599522093311E-06,0.52734375,0,0
-2.65928265434923E-05,9.83922018349404E-06,0.52734375,0,0
-2.59888638538541E-05,1.0420890248497E-05,0.52734375,0,0
-2.66484476014739E-05,1.14244394353591E-05,0.52734375,0,0
-2.48086871579289E-05,1.1404134966142E-05,0.52734375,0,0
-2.4354694687645E-05,1.28732681332622E-05,0.52734375,0,0
-2.20021556742722E-05,1.51800395542523E-05,0.52734375,0,0
-2.15252784983022E-05,1.8786204236676E-05,0.52734375,0,0
-1.90856644621817E-05,1.90386326721637E-05,0.52734375,0,0
-1.9306060494273E-05,1.89371094165836E-05,0.52734375,0,0
-1.8007165635936E-05,1.73416410689242E-05,0.52734375,0,0
-1.85063909157179E-05,1.68992064573104E-05,0.52734375,0,0
-1.78839636646444E-05,1.6384987247875E-05,0.52734375,0,0
-1.78910540853394E-05,1.58566108439118E-05,0.52734375,0,0
-1.7107695384766E-05,1.41055652420619E-05,0.52734375,0,0
-1.63326803885866E-05,1.22385199574637E-05,0.52734375,0,0
-1.52382990563638E-05,9.84316829999443E-06,0.52734375,0,0
-1.570623680891E-05,6.06066669206484E-06,0.52734375,0,0
-1.49988109114929E-05,-2.586897664969E-07,0.52734375,0,0
-2.27092059503775E-05,-2.89642071038543E-06,0.52734375,0,0
-1.82214698725147E-05,-1.25575343190576E-06,0.52734375,0,0
-2.05354535864899E-05,6.32927140031825E-06,0.52734375,0,0
-1.68975166161545E-05,9.63803267950425E-06,0.52734375,0,0
-1.90167756954907E-05,8.50374817673583E-06,0.52734375,0,0
-1.8210716007161E-05,7.64268679631641E-06,0.52734375,0,0
-1.92886636796175E-05,1.00567340268753E-05,0.52734375,0,0
-1.90424907486886E-05,1.07811929410673E-05,0.52734375,0,0
-1.94552030734485E-05,8.81017422216246E-06,0.52734375,0,0
-2.02405244635884E-05,7.76112483436009E-06,0.52734375,0,0
-2.0557175957947E-05,7.74221007304732E-06,0.52734375,0,0
-2.17752785829362E-05,8.34199181554141E-06,0.52734375,0,0
-2.20232595893322E-05,7.72918610891793E-06,0.52734375,0,0
-2.4584353013779E-05,5.79597690375522E-06,0.52734375,0,0
-2.55308532359777E-05,3.5296288842801E-06,0.52734375,0,0
-2.64797927229665E-05,2.47372486228414E-06,0.52734375,0,0
-2.53865309787216E-05,2.35142192650528E-06,0.52734375,0,0
-2.58150193985784E-05,2.93899324788072E-06,0.52734375,0,0
-2.51760284299962E-05,5.42603902431438E-06,0.52734375,0,0
-2.58732052316191E-05,8.50423839438008E-06,0.52734375,0,0
-2.46566378336865E-05,8.342810360773E-06,0.52734375,0,0
-2.36218547797762E-05,7.16217164153932E-06,0.52734375,0,0
-2.27448163059307E-05,7.21321339369752E-06,0.52734375,0,0
-2.29175620916067E-05,9.14371867111186E-06,0.52734375,0,0
-2.33079881581943E-05,1.20552604130353E-05,0.52734375,0,0
-2.4212698917836E-05,1.18185034807539E-05,0.52734375,0,0
-1.90494083653903E-05,6.10028337177937E-06,0.52734375,0,0
-2.60521046584472E-05,8.47561750560999E-06,0.52734375,0,0
-1.93622345250333E-05,7.74051568441791E-06,0.52734375,0,0
-2.47711341216927E-05,1.26894838103908E-05,0.52734375,0,0
-1.95769134734292E-05,1.15952307169209E-05,0.52734375,0,0
-2.23659026232781E-05,8.9453169493936E-06,0.52734375,0,0
-2.12318809644785E-05,7.45417810321669E-06,0.52734375,0,0
-2.31923531828215E-05,1.13568567030597E-05,0.52734375,0,0
-2.27661203098251E-05,1.35310137920897E-05,0.52734375,0,0
-2.22758953896118E-05,1.44844161695801E-05,0.52734375,0,0
-2.21351765503641E-05,1.39635676532635E-05,0.52734375,0,0
-2.24239629460499E-05,1.37740116770146E-05,0.52734375,0,0
-2.43934355239617E-05,1.51614349306328E-05,0.52734375,0,0
-2.26928841584595E-05,1.4826092410658E-05,0.52734375,0,0
-2.26628581003752E-05,1.35902009787969E-05,0.52734375,0,0
-2.1911535441177E-05,9.78976640908513E-06,0.52734375,0,0
-2.37639924307587E-05,6.4821970227058E-06,0.52734375,0,0
-2.22577782551525E-05,5.53932341063046E-06,0.52734375,0,0
-2.21551345020998E-05,8.56027327245101E-06,0.52734375,0,0
-2.1135918359505E-05,1.163643446489E-05,0.52734375,0,0
-2.18527056858875E-05,1.32266150103533E-05,0.52734375,0,0
-2.1544226910919E-05,1.21766788652167E-05,0.52734375,0,0
-2.19340181502048E-05,1.15233087853994E-05,0.52734375,0,0
-2.13805324165151E-05,1.18477637442993E-05,0.52734375,0,0
-2.35230018006405E-05,1.19201940833591E-05,0.52734375,0,0
-2.56000566878356E-05,9.98970699583879E-06,0.52734375,0,0
-2.6594141672831E-05,8.6218242358882E-06,0.52734375,0,0
-2.20641741179861E-05,6.95120115778991E-06,0.52734375,0,0
-3.31835617544129E-05,1.0519413081056E-05,0.52734375,0,0
-2.79629621218191E-05,6.45842828816967E-06,0.52734375,0,0
-3.34222422679886E-05,4.77979574498022E-06,0.52734375,0,0
-2.75936636171537E-05,1.27362659441133E-06,0.52734375,0,0
-2.99353996524587E-05,2.61864647654875E-06,0.52734375,0,0
-2.83335866697598E-05,5.28628925167141E-06,0.52734375,0,0
-3.01838208542904E-05,7.5458542596607E-06,0.52734375,0,0
-3.04609311569948E-05,8.25577717478154E-06,0.52734375,0,0
-3.1973555451259E-05,9.56106578087201E-06,0.52734375,0,0
-3.13192031171639E-05,1.11267090687761E-05,0.52734375,0,0
-2.82311648334144E-05,1.09884367702762E-05,0.52734375,0,0
-2.70920936600305E-05,9.85241058515385E-06,0.52734375,0,0
-2.43444064835785E-05,7.96318454376888E-06,0.52734375,0,0
-2.43786234932486E-05,7.36753827368375E-06,0.52734375,0,0
-2.3606875402038E-05,7.495913450839E-06,0.52734375,0,0
-2.62082776316674E-05,8.54342306411127E-06,0.52734375,0,0
-2.58586969721364E-05,8.30875251267571E-06,0.52734375,0,0
-2.60110045928741E-05,8.13342012406792E-06,0.52734375,0,0
-2.37907934206305E-05,7.95792038843501E-06,0.52734375,0,0
-2.41589441429824E-05,9.00498253031401E-06,0.52734375,0,0
-2.38377397181466E-05,1.05421722764731E-05,0.52734375,0,0
-2.47009247686947E-05,1.1563340194698E-05,0.52734375,0,0
-2.48215801548213E-05,1.10204464363051E-05,0.52734375,0,0
-2.5725119485287E-05,1.04394239315297E-05,0.52734375,0,0
-2.52546487899963E-05,9.94900983641855E-06,0.52734375,0,0
-2.55125341936946E-05,8.22026868263492E-06,0.52734375,0,0
-2.12509312405018E-05,2.85711553260626E-06,0.52734375,0,0
-3.01764757750789E-05,3.01737145491643E-06,0.52734375,0,0
-2.33995215239702E-05,4.09268977819011E-06,0.52734375,0,0
-3.02869957522489E-05,8.38331106933765E-06,0.52734375,0,0
-2.61485529335914E-05,6.66786627334659E-06,0.52734375,0,0
-2.76147984550335E-05,6.88202544552041E-06,0.52734375,0,0
-2.43218582909321E-05,8.66298705659574E-06,0.52734375,0,0
-2.4466035029036E-05,1.07419818959897E-05,0.52734375,0,0
-2.2986578187556E-05,1.03713655335014E-05,0.52734375,0,0
-2.34884082601639E-05,1.01968080343795E-05,0.52734375,0,0
-2.48856722464552E-05,1.21546027003205E-05,0.52734375,0,0
-2.46320596488658E-05,1.50737059811945E-05,0.52734375,0,0
-2.4559318262618E-05,1.77561905729817E-05,0.52734375,0,0
-2.14197934838012E-05,1.78472328116186E-05,0.52734375,0,0
-2.05827491299715E-05,1.68951519299299E-05,0.52734375,0,0
-1.92550778592704E-05,1.64599787240149E-05,0.52734375,0,0
-2.14460833376506E-05,1.79285780177452E-05,0.52734375,0,0
-2.16150365304202E-05,1.86455345101422E-05,0.52734375,0,0
-2.35635270655621E-05,1.92234074347652E-05,0.52734375,0,0
-2.28777844313299E-05,1.88170724868542E-05,0.52734375,0,0
-2.30160931096179E-05,1.8203680156148E-05,0.52734375,0,0
-2.20109723159112E-05,1.74681936186971E-05,0.52734375,0,0
-2.24369505303912E-05,1.65544042829424E-05,0.52734375,0,0
-2.11974329431541E-05,1.56050718942424E-05,0.52734375,0,0
-1.98624438780826E-05,1.51707299664849E-05,0.52734375,0,0
-1.91246308531845E-05,1.5656856703572E-05,0.52734375,0,0
-2.04350799322128E-05,1.75024324562401E-05,0.52734375,0,0
-1.89514757948928E-05,1.53540313476697E-05,0.52734375,0,0
-2.73953155556228E-05,1.99234491446987E-05,0.52734375,0,0
-2.16747630474856E-05,1.31440419863793E-05,0.52734375,0,0
-2.70163636741927E-05,1.70924486155855E-05,0.52734375,0,0
-2.39371856878279E-05,1.22277351692901E-05,0.52734375,0,0
-2.72723355010385E-05,1.34195497594192E-05,0.52734375,0,0
-2.53464841080131E-05,1.29752279462991E-05,0.52734375,0,0
-2.60776669165352E-05,1.67101625265786E-05,0.52734375,0,0
-2.53989528573584E-05,1.66892696142895E-05,0.52734375,0,0
-2.49444183282321E-05,1.58078473759815E-05,0.52734375,0,0
-2.55300055869156E-05,1.57105878315633E-05,0.52734375,0,0
-2.62216490227729E-05,1.63007189257769E-05,0.52734375,0,0
-2.85134738078341E-05,1.8384242139291E-05,0.52734375,0,0
-2.78510105999885E-05,1.75464865606045E-05,0.52734375,0,0
-2.75326747214422E-05,1.67575090017635E-05,0.52734375,0,0
-2.40610515902517E-05,1.3890196896682E-05,0.52734375,0,0
-2.26717074838234E-05,1.30882544908673E-05,0.52734375,0,0
-2.12092272704467E-05,1.05784756669891E-05,0.52734375,0,0
-2.29695779125905E-05,1.04573628050275E-05,0.52734375,0,0
-2.23343977268087E-05,8.89844432094833E-06,0.52734375,0,0
-2.17681717913365E-05,8.1311991380062E-06,0.52734375,0,0
-2.0396257241373E-05,6.31315424470813E-06,0.52734375,0,0
-2.18385011976352E-05,6.68262373437756E-06,0.52734375,0,0
-2.19615831156261E-05,8.05827039584983E-06,0.52734375,0,0
-2.05956148420228E-05,9.93141293292865E-06,0.52734375,0,0
-1.96505898202304E-05,9.64762693911325E-06,0.52734375,0,0
-1.97381450561807E-05,8.12912458059145E-06,0.52734375,0,0
-1.59419760166202E-05,7.26328471500892E-06,0.52734375,0,0
-2.30239202210214E-05,1.27062394312816E-05,0.52734375,0,0
-1.77131114469375E-05,1.27573748613941E-05,0.52734375,0,0
-2.1973333787173E-05,1.33217799884733E-05,0.52734375,0,0
-1.97381614270853E-05,9.97714050754439E-06,0.52734375,0,0
-2.30911664402811E-05,9.2407453848864E-06,0.52734375,0,0
-2.27874115807936E-05,8.10661276773317E-06,0.52734375,0,0
-2.29144588956842E-05,8.43139332573628E-06,0.52734375,0,0
-1.98160341824405E-05,7.80410209699767E-06,0.52734375,0,0
-1.86407542059897E-05,7.55697055865312E-06,0.52734375,0,0
-1.8637447283254E-05,7.35642061044928E-06,0.52734375,0,0
-1.76144294528058E-05,5.204542503634E-06,0.52734375,0,0
-1.71760439116042E-05,4.75483011541655E-06,0.52734375,0,0
-1.63113727467135E-05,5.98723818256985E-06,0.52734375,0,0
-1.83549800567562E-05,8.45913746161386E-06,0.52734375,0,0
-1.863169563876E-05,9.66148854786297E-06,0.52734375,0,0
-2.00647355086403E-05,1.08424328573165E-05,0.52734375,0,0
-2.02636310859816E-05,9.5813729785732E-06,0.52734375,0,0
-2.18380355363479E-05,7.64864944358123E-06,0.52734375,0,0
-2.10221714951331E-05,6.56304655421991E-06,0.52734375,0,0
-2.23894094233401E-05,7.85354950494366E-06,0.52734375,0,0
-2.435748501739E-05,8.10093024483649E-06,0.52734375,0,0
-2.67975574388402E-05,7.47841613701894E-06,0.52734375,0,0
-2.68506246356992E-05,8.39514814288123E-06,0.52734375,0,0
-2.62274352280656E-05,8.86876387085067E-06,0.52734375,0,0
-2.5051980628632E-05,7.45518946132506E-06,0.52734375,0,0
-2.4346301870537E-05,6.12152734902338E-06,0.52734375,0,0
-1.82362673513126E-05,3.81739027943695E-06,0.52734375,0,0
-2.43613339989679E-05,4.88856221636524E-06,0.52734375,0,0
-1.78439040610101E-05,1.97671738533245E-06,0.52734375,0,0
-2.43489939748542E-05,2.58672343989019E-06,0.52734375,0,0
-1.97475110326195E-05,3.55966653842188E-06,0.52734375,0,0
-2.17894648812944E-05,3.57559338226565E-06,0.52734375,0,0
-2.07055127248168E-05,1.56737667111884E-06,0.52734375,0,0
-2.2172254830366E-05,2.18981722355238E-06,0.52734375,0,0
-2.18525310629047E-05,3.45832063430862E-06,0.52734375,0,0
-2.26813117478741E-05,7.10218864696799E-06,0.52734375,0,0
-2.32957336265827E-05,1.04970476968447E-05,0.52734375,0,0
-2.2984730094322E-05,9.94010315480409E-06,0.52734375,0,0
-2.34039944189135E-05,8.02836984803434E-06,0.52734375,0,0
-2.15475665754639E-05,8.398726095038E-06,0.52734375,0,0
-2.25744825002039E-05,1.05682584035094E-05,0.52734375,0,0
-2.2349053324433E-05,1.04557584563736E-05,0.52734375,0,0
-2.36152736761142E-05,1.01975647339714E-05,0.52734375,0,0
-2.21171521843644E-05,1.08210278995102E-05,0.52734375,0,0
-2.27023247134639E-05,1.26288059618673E-05,0.52734375,0,0
-2.17551496461965E-05,1.37239712785231E-05,0.52734375,0,0
-2.2238213205128E-05,1.46830616358784E-05,0.52734375,0,0
-2.10607176995836E-05,1.49580391735071E-05,0.52734375,0,0
-2.00866561499424E-05,1.53448017954361E-05,0.52734375,0,0
-1.99969563254854E-05,1.5743265976198E-05,0.52734375,0,0
-2.30394471145701E-05,1.60838917508954E-05,0.52734375,0,0
-2.51717538048979E-05,1.70918556250399E-05,0.52734375,0,0
-2.54418828262715E-05,1.75874447450042E-05,0.52734375,0,0
-1.92049737961497E-05,1.42797616717871E-05,0.52734375,0,0
-2.74107133009238E-05,2.27024374908069E-05,0.52734375,0,0
-2.27632317546522E-05,1.99178903130814E-05,0.52734375,0,0
-3.02514399663778E-05,2.34979434026172E-05,0.52734375,0,0
-2.65113303612452E-05,1.98100260604406E-05,0.52734375,0,0
-2.84734305751044E-05,1.86841298273066E-05,0.52734375,0,0
-2.53711496043252E-05,1.40300444400054E-05,0.52734375,0,0
-2.52257250394905E-05,1.20001304821926E-05,0.52734375,0,0
-2.41615562117659E-05,9.56216990743997E-06,0.52734375,0,0
-2.43797094299225E-05,9.95843674900243E-06,0.52734375,0,0
-2.42203514062567E-05,1.11817598735797E-05,0.52734375,0,0
-2.23864517465699E-05,1.0123150786967E-05,0.52734375,0,0
-2.21314767259173E-05,8.59308238432277E-06,0.52734375,0,0
-2.09565187105909E-05,6.96851247994346E-06,1.0546875,0,0
-2.20440178964054E-05,7.72659677750198E-06,1.0546875,0,0
-2.06182776310015E-05,6.49081857773126E-06,1.0546875,0,0
-2.17215711018071E-05,6.21587059868034E-06,1.0546875,0,0
-2.19528446905315E-05,6.15618500887649E-06,1.0546875,0,0
-2.45939299929887E-05,9.05360047909198E-06,1.0546875,0,0
-2.53572998190066E-05,9.8693171821651E-06,1.0546875,0,0
-2.67005380010232E-05,9.75377224676777E-06,1.0546875,0,0
-2.6254536351189E-05,7.86201871960657E-06,1.0546875,0,0
-2.77126509899972E-05,8.4117064034217E-06,1.0546875,0,0
-2.88945302600041E-05,1.13735004561022E-05,1.0546875,0,0
-3.00138053717092E-05,1.56189707922749E-05,1.0546875,0,0
-2.92832846753299E-05,1.72437376022572E-05,1.0546875,0,0
-2.8355223548715E-05,1.61102852871409E-05,1.0546875,0,0
-2.34206236200407E-05,1.04818982435972E-05,1.0546875,0,0
-3.42016683134716E-05,1.30623438963084E-05,1.0546875,0,0
-2.72139259323012E-05,5.89672663409146E-06,1.0546875,0,0
-3.31328410538845E-05,6.67901895212708E-06,1.0546875,0,0
-2.69625179498689E-05,4.61994841316482E-06,1.0546875,0,0
-2.80436470347922E-05,6.53212418910698E-06,1.0546875,0,0
-2.52393710979959E-05,6.26380824542139E-06,1.0546875,0,0
-2.77582748822169E-05,7.88690886110999E-06,1.0546875,0,0
-2.79148316622013E-05,7.66531229601242E-06,1.0546875,0,0
-2.90345069515752E-05,9.27566452446627E-06,1.0546875,0,0
-3.04577624774538E-05,1.11937379188021E-05,1.0546875,0,0
-2.97047336061951E-05,1.08791227830807E-05,1.0546875,0,0
-3.05434950860217E-05,1.07508276414592E-05,1.0546875,0,0
-2.99262719636317E-05,1.10423670776072E-05,1.0546875,0,0
-3.07484806398861E-05,1.30606458697002E-05,1.0546875,0,0
-2.78255938610528E-05,1.26183440443128E-05,1.0546875,0,0
-2.70131295110332E-05,1.30575699586188E-05,1.0546875,0,0
-2.43470749410335E-05,1.32416007545544E-05,1.0546875,0,0
-2.52331810770556E-05,1.51028125401353E-05,1.0546875,0,0
-2.50047705776524E-05,1.55681773321703E-05,1.0546875,0,0
-2.64181981037837E-05,1.56814912770642E-05,1.0546875,0,0
-2.61442855844507E-05,1.35473783302587E-05,1.0546875,0,0
-2.79692139883991E-05,1.18629513963242E-05,1.0546875,0,0
-2.8960253985133E-05,8.70141320774565E-06,1.0546875,0,0
-2.99134335364215E-05,4.64843014924554E-06,1.0546875,0,0
-2.88298742816551E-05,2.56668931797321E-06,1.0546875,0,0
-2.67666309810011E-05,4.0929676288215E-06,1.0546875,0,0
-2.12501981877722E-05,5.32002923137043E-06,1.0546875,0,0
-2.97819187835557E-05,7.00974078426952E-06,1.0546875,0,0
-2.16887383430731E-05,3.2289756290993E-06,1.0546875,0,0
-2.68025087279966E-05,3.6647868455475E-06,1.0546875,0,0
-2.35855914070271E-05,4.04158026867663E-06,1.0546875,0,0
-2.78272327705054E-05,5.91338130107033E-06,1.0546875,0,0
-2.58180134551367E-05,6.44958390694228E-06,1.0546875,0,0
-2.65682429017033E-05,8.84437304193852E-06,1.0546875,0,0
-2.56353960139677E-05,1.0870176993194E-05,1.0546875,0,0
-2.68279891315615E-05,1.24764965221402E-05,1.0546875,0,0
-2.78002607956296E-05,1.45861013152171E-05,1.0546875,0,0
-2.73554942396004E-05,1.43967063195305E-05,1.0546875,0,0
-2.84735469904263E-05,1.13608557512634E-05,1.0546875,0,0
-2.69323427346535E-05,7.59178055886878E-06,1.0546875,0,0
-2.76360278803622E-05,6.12126859778073E-06,1.0546875,0,0
-2.66562728938879E-05,7.07060553395422E-06,1.0546875,0,0
-2.85911901301006E-05,1.01226733022486E-05,1.0546875,0,0
-2.84301622741623E-05,1.01372352219187E-05,1.0546875,0,0
-3.00732190225972E-05,6.45637601337512E-06,1.0546875,0,0
-2.85938313027145E-05,1.65254448347696E-06,1.0546875,0,0
-2.81232296401868E-05,2.30154955715989E-06,1.0546875,0,0
-2.71995704679284E-05,7.22190816304646E-06,1.0546875,0,0
-2.79002088063862E-05,9.91861543298E-06,1.0546875,0,0
-2.70597756752977E-05,9.37343247642275E-06,1.0546875,0,0
-2.61978293565335E-05,9.32715829549124E-06,1.0546875,0,0
-2.51194978773128E-05,1.00311417554622E-05,1.0546875,0,0
-2.48740016104421E-05,1.14323956950102E-05,1.0546875,0,0
-1.92147490452044E-05,9.65627896221122E-06,1.0546875,0,0
-2.6611134671839E-05,1.33551875478588E-05,1.0546875,0,0
-2.07432076422265E-05,1.02689436971559E-05,1.0546875,0,0
-2.68063522526063E-05,1.44963605634985E-05,1.0546875,0,0
-2.13415551115759E-05,1.30375956359785E-05,1.0546875,0,0
-2.26549836952472E-05,1.34896945382934E-05,1.0546875,0,0
-1.98360648937523E-05,1.19543601613259E-05,1.0546875,0,0
-1.90612245205557E-05,1.22706114780158E-05,1.0546875,0,0
-1.71638530446216E-05,1.16230849016574E-05,1.0546875,0,0
-1.82900112122297E-05,1.18245034173015E-05,1.0546875,0,0
-1.99988953681896E-05,1.2822485587094E-05,1.0546875,0,0
-1.99500209419057E-05,1.40669881147915E-05,1.0546875,0,0
-2.03087911359034E-05,1.67267971846741E-05,1.0546875,0,0
-1.84346754394937E-05,1.7628701243666E-05,1.0546875,0,0
-1.93438827409409E-05,1.78042009792989E-05,1.0546875,0,0
-1.96400233107852E-05,1.61930474860128E-05,1.0546875,0,0
-2.24454433919163E-05,1.48162234836491E-05,1.0546875,0,0
-2.1559322703979E-05,1.21384164231131E-05,1.0546875,0,0
-2.18001496250508E-05,1.09753764263587E-05,1.0546875,0,0
-2.08135934371967E-05,9.87954990705475E-06,1.0546875,0,0
-2.12602735700784E-05,1.05525223261793E-05,1.0546875,0,0
-2.01855236809934E-05,1.1360161806806E-05,1.0546875,0,0
-2.04762218345422E-05,1.20517715913593E-05,1.0546875,0,0
-1.98640518647153E-05,1.15875436677015E-05,1.0546875,0,0
-1.99848218471743E-05,1.27148423416656E-05,1.0546875,0,0
-1.95894699572818E-05,1.5894605894573E-05,1.0546875,0,0
-2.0076291548321E-05,1.83558022399666E-05,1.0546875,0,0
-1.7715290596243E-05,1.49792576848995E-05,1.0546875,0,0
-2.60610777331749E-05,2.18094701267546E-05,1.0546875,0,0
-2.0525947547867E-05,1.66108820849331E-05,1.0546875,0,0
-2.31978738156613E-05,1.82806270458968E-05,1.0546875,0,0
-1.87365039892029E-05,1.44622381412773E-05,1.0546875,0,0
-2.22564594878349E-05,1.74587930814596E-05,1.0546875,0,0
-2.09202262340114E-05,1.53217115439475E-05,1.0546875,0,0
-2.07142147701234E-05,1.47988084790995E-05,1.0546875,0,0
-1.83439533429919E-05,1.23089739645366E-05,1.0546875,0,0
-1.75501518242527E-05,1.0936446415144E-05,1.0546875,0,0
-1.74721135408618E-05,1.07620162452804E-05,1.0546875,0,0
-1.73824628291186E-05,1.0285527423548E-05,1.0546875,0,0
-1.84625187102938E-05,1.19966971396934E-05,1.0546875,0,0
-1.72124018718023E-05,1.23798572531086E-05,1.0546875,0,0
-1.75233908521477E-05,1.25591013784287E-05,1.0546875,0,0
-1.59511218953412E-05,1.13726609924925E-05,1.0546875,0,0
-1.61010575538967E-05,1.26135018945206E-05,1.0546875,0,0
-1.33099392769509E-05,1.18004536489025E-05,1.0546875,0,0
-1.16656274258276E-05,1.33000839923625E-05,1.0546875,0,0
-9.80475215328624E-06,1.3585324268206E-05,1.0546875,0,0
-1.15370330604492E-05,1.25305787150864E-05,1.0546875,0,0
-1.3047469110461E-05,8.76876038091723E-06,1.0546875,0,0
-1.59478422574466E-05,7.08013340045E-06,1.0546875,0,0
-1.77430811163504E-05,5.12979431732674E-06,1.0546875,0,0
-1.84456766874064E-05,3.66007679986069E-06,1.0546875,0,0
-1.83644788194215E-05,3.85047678719275E-06,1.0546875,0,0
-1.85026910912711E-05,5.33023694515578E-06,1.0546875,0,0
-1.66372501553269E-05,5.20082721777726E-06,1.0546875,0,0
-2.55523264058866E-05,9.43172290135408E-06,1.0546875,0,0
-2.08866404136643E-05,1.08339290818549E-05,1.0546875,0,0
-2.42499154410325E-05,1.32861778183724E-05,1.0546875,0,0
-2.07730754482327E-05,1.16239589260658E-05,1.0546875,0,0
-2.21894133574096E-05,1.02594167401548E-05,1.0546875,0,0
-2.11063252208987E-05,8.40428492665524E-06,1.0546875,0,0
-2.29720772040309E-05,7.28228496882366E-06,1.0546875,0,0
-2.34839953918708E-05,6.42968689135159E-06,1.0546875,0,0
-2.32460697588976E-05,8.50657488626894E-06,1.0546875,0,0
-2.19158609979786E-05,1.13279857032467E-05,1.0546875,0,0
-2.11933784157736E-05,1.16730379886576E-05,1.0546875,0,0
-2.3104756110115E-05,1.11934132291935E-05,1.0546875,0,0
-2.35527550103143E-05,1.02296444310923E-05,1.0546875,0,0
-2.50107732426841E-05,8.71747670316836E-06,1.0546875,0,0
-2.51888704951853E-05,7.15789519745158E-06,1.0546875,0,0
-2.69818901870167E-05,8.39191943668993E-06,1.0546875,0,0
-2.54372880590381E-05,9.31977956497576E-06,1.0546875,0,0
-2.44558923441218E-05,8.344295565621E-06,1.0546875,0,0
-2.4057104383246E-05,6.96726283422322E-06,1.0546875,0,0
-2.60502874880331E-05,7.91290494817076E-06,1.0546875,0,0
-2.5655050194473E-05,9.00160284800222E-06,1.0546875,0,0
-2.48044198087882E-05,8.91486979526235E-06,1.0546875,0,0
-2.27841246669414E-05,8.12634334579343E-06,1.0546875,0,0
-2.09982536034659E-05,9.86544273473555E-06,1.0546875,0,0
-2.03292474907357E-05,1.2426317880454E-05,1.0546875,0,0
-2.17488086491358E-05,1.27100365716615E-05,1.0546875,0,0
-1.76953344634967E-05,8.42850022308994E-06,1.0546875,0,0
-2.42410806094995E-05,1.10917044366943E-05,1.0546875,0,0
-1.87181340152165E-05,8.29904638521839E-06,1.0546875,0,0
-2.5479072064627E-05,1.28045603560167E-05,1.0546875,0,0
-2.27140881179366E-05,1.28908659462468E-05,1.0546875,0,0
-2.56714956776705E-05,1.2947287359566E-05,1.0546875,0,0
-2.37405347434105E-05,9.80088680080371E-06,1.0546875,0,0
-2.66597144218395E-05,1.09309758045129E-05,1.0546875,0,0
-2.88172086584382E-05,1.07039450085722E-05,1.0546875,0,0
-3.00844858429627E-05,9.42878705245676E-06,1.0546875,0,0
-3.09714268951211E-05,7.58721353122382E-06,1.0546875,0,0
-3.13552809529938E-05,6.35816195426742E-06,1.0546875,0,0
-3.32945855916478E-05,7.38510061637498E-06,1.0546875,0,0
-3.29124159179628E-05,8.19730394141516E-06,1.0546875,0,0
-3.43070350936614E-05,9.81706853053765E-06,1.0546875,0,0
-3.47257773682941E-05,1.07012929220218E-05,1.0546875,0,0
-3.79614320991095E-05,1.27660478028702E-05,1.0546875,0,0
-3.85917446692474E-05,1.14007170850527E-05,1.0546875,0,0
-3.93431510019582E-05,9.46948421187699E-06,1.0546875,0,0
-3.80123929062393E-05,8.48513991513755E-06,1.0546875,0,0
-3.87548752769362E-05,9.47310763876885E-06,1.0546875,0,0
-3.7399418943096E-05,1.01674468169222E-05,1.0546875,0,0
-3.53288742189761E-05,1.04980481410166E-05,1.0546875,0,0
-3.35207951138727E-05,9.89228556136368E-06,1.0546875,0,0
-3.33909229084384E-05,1.13260684884153E-05,1.0546875,0,0
-3.15612378471997E-05,1.10924538603285E-05,1.0546875,0,0
-2.88260835077381E-05,7.46900150261354E-06,1.0546875,0,0
-2.02850969799329E-05,4.80146900372347E-06,1.0546875,0,0
-2.51527617365355E-05,9.23547304410022E-06,1.0546875,0,0
-1.30870184875675E-05,1.05953367892653E-05,1.0546875,0,0
-1.58143157023005E-05,1.11500585262547E-05,1.0546875,0,0
-1.05240897028125E-05,8.90163028088864E-06,1.0546875,0,0
-1.37035804073093E-05,9.52205755311297E-06,1.0546875,0,0
-9.40715108299628E-06,1.1006835848093E-05,1.0546875,0,0
-6.09870266998769E-06,1.27005623653531E-05,1.0546875,0,0
-1.40694226047344E-06,1.23107211038587E-05,1.0546875,0,0
1.04530293754124E-07,1.17653680717922E-05,1.0546875,0,0
2.80246041484133E-07,1.2430989954737E-05,1.0546875,0,0
-1.68991078908221E-07,1.30180433188798E-05,1.0546875,0,0
-3.86651527151116E-06,1.35032232719823E-05,1.0546875,0,0
-5.28782038600184E-06,1.32816830955562E-05,1.0546875,0,0
-7.53996982894023E-06,1.26125987662817E-05,1.0546875,0,0
-7.46890509617515E-06,1.04139589893748E-05,1.0546875,0,0
-1.00638644653372E-05,8.3024360719719E-06,1.0546875,0,0
-1.08774493128294E-05,7.82700954005122E-06,1.0546875,0,0
-1.50693749674247E-05,1.03301399576594E-05,1.0546875,0,0
-1.69211507454747E-05,1.23661648103734E-05,1.0546875,0,0
-1.97985918930499E-05,1.24793559734826E-05,1.0546875,0,0
-2.15634536289144E-05,1.20782251542551E-05,1.0546875,0,0
-2.38462816923857E-05,1.35512700580875E-05,1.0546875,0,0
-2.30311507039005E-05,1.540264202049E-05,1.0546875,0,0
-2.32784914260264E-05,1.46697793752537E-05,1.0546875,0,0
-2.51207948167576E-05,1.17289000627352E-05,1.0546875,0,0
-2.74154590442777E-05,1.08508302218979E-05,1.0546875,0,0
-2.41037687374046E-05,9.52655773289735E-06,1.0546875,0,0
-3.43760693795048E-05,1.23646677820943E-05,1.0546875,0,0
-2.59259577433113E-05,7.59339036449092E-06,1.0546875,0,0
-3.19463651976548E-05,9.50707453739597E-06,1.0546875,0,0
-2.76486680377275E-05,6.17160549154505E-06,1.0546875,0,0
-3.28204150719102E-05,6.34254183751182E-06,1.0546875,0,0
-3.21183579217177E-05,5.69933717997628E-06,1.0546875,0,0
-3.32997442455962E-05,7.35162302589742E-06,1.0546875,0,0
-3.1874642445473E-05,5.78158505959436E-06,1.0546875,0,0
-3.13611635647248E-05,3.5900204693462E-06,1.0546875,0,0
-3.05333196592983E-05,4.08443520427682E-06,1.0546875,0,0
-2.90029292955296E-05,5.93845834373496E-06,1.0546875,0,0
-3.05415705952328E-05,9.99796247924678E-06,1.0546875,0,0
-2.98785598715767E-05,1.15556567834574E-05,1.0546875,0,0
-2.96256766887382E-05,1.07914302134304E-05,1.0546875,0,0
-2.57705123658525E-05,8.47941555548459E-06,1.0546875,0,0
-2.53188009082805E-05,1.06383049569558E-05,1.0546875,0,0
-2.22816015593708E-05,1.4000576811668E-05,1.0546875,0,0
-2.10154485102976E-05,1.6006099031074E-05,1.0546875,0,0
-1.88519807124976E-05,1.43717852552072E-05,1.0546875,0,0
-2.05139967874857E-05,1.42499229696114E-05,1.0546875,0,0
-2.16074076888617E-05,1.53525688801892E-05,1.0546875,0,0
-2.40590052271727E-05,1.5176533452177E-05,1.0546875,0,0
-2.4660381313879E-05,1.14232989290031E-05,1.0546875,0,0
-2.58228246821091E-05,8.43868383526569E-06,1.0546875,0,0
-2.63892143266276E-05,7.88636953075184E-06,1.0546875,0,0
-2.64234859059798E-05,7.57368025006144E-06,1.0546875,0,0
-2.11138321901672E-05,5.31888554178295E-06,1.0546875,0,0
-2.88002156594303E-05,6.22338211542228E-06,1.0546875,0,0
-2.05212563741952E-05,9.40890572564967E-07,1.0546875,0,0
-2.66392489720602E-05,7.09090443251625E-07,1.0546875,0,0
-2.41911129705841E-05,6.72029557335918E-07,1.0546875,0,0
-2.91738942905795E-05,1.33731157347938E-06,1.0546875,0,0
-2.74474386969814E-05,5.75621072584909E-07,1.0546875,0,0
-2.82460205198731E-05,1.60995591613755E-06,1.0546875,0,0
-2.69329902948812E-05,2.98189115710557E-06,1.0546875,0,0
-2.75224901997717E-05,6.11339373790543E-06,1.0546875,0,0
-2.90064563159831E-05,9.75639068201417E-06,1.0546875,0,0
-2.9626735340571E-05,1.16563796836999E-05,1.0546875,0,0
-3.10813338728622E-05,1.32791028590873E-05,1.0546875,0,0
-2.98034519801149E-05,1.44217765409849E-05,1.0546875,0,0
-3.08537200908177E-05,1.38840196086676E-05,1.0546875,0,0
-2.89017898467137E-05,1.149479248852E-05,1.0546875,0,0
-2.84428260783898E-05,1.10144919744926E-05,1.0546875,0,0
-2.56732728303177E-05,1.10113696791814E-05,1.0546875,0,0
-2.60676551988581E-05,1.19079077194328E-05,1.93359375,0,0
-2.50320081249811E-05,1.28270958157373E-05,1.93359375,0,0
-2.60567321674898E-05,1.4181812730385E-05,1.93359375,0,0
-2.55545419349801E-05,1.47531327456818E-05,1.93359375,0,0
-2.51832298090449E-05,1.56495880219154E-05,1.93359375,0,0
-2.37472740991507E-05,1.6600050003035E-05,1.93359375,0,0
-2.29376764764311E-05,1.79432354343589E-05,1.93359375,0,0
-2.1604384528473E-05,1.97142962861108E-05,1.93359375,0,0
-2.03012041311013E-05,2.03231484192656E-05,1.93359375,0,0
-1.65068577189231E-05,1.48047656693961E-05,1.93359375,0,0
-2.36441610468319E-05,1.8498431018088E-05,1.93359375,0,0
-1.87685182027053E-05,1.01996729426901E-05,1.93359375,0,0
-2.44485563598573E-05,1.33006951728021E-05,1.93359375,0,0
-2.09423960768618E-05,1.12048546725418E-05,1.93359375,0,0
-2.11164169741096E-05,1.58231123350561E-05,1.93359375,0,0
-1.80405204446288E-05,1.55708676174982E-05,1.93359375,0,0
-1.86779125215253E-05,1.75719287653919E-05,1.93359375,0,0
-1.97742774616927E-05,1.55593897943618E-05,1.93359375,0,0
-2.15138006751658E-05,1.25437163660536E-05,1.93359375,0,0
-2.27405162149807E-05,8.38032156025292E-06,1.93359375,0,0
-2.27411073865369E-05,4.24554946221178E-06,1.93359375,0,0
-2.4879595002858E-05,5.71852297071018E-06,1.93359375,0,0
-2.55398354056524E-05,7.53134145270451E-06,1.93359375,0,0
-2.63865422311937E-05,8.40470420371275E-06,1.93359375,0,0
-2.49458862526808E-05,4.66882056571194E-06,1.93359375,0,0
-2.639713602548E-05,3.57655562766013E-06,1.93359375,0,0
-2.72067791229347E-05,3.98689917346928E-06,1.93359375,0,0
-2.88887404167326E-05,8.40835309645627E-06,1.93359375,0,0
-2.88565333903534E-05,9.94453239400173E-06,1.93359375,0,0
-3.00769261230016E-05,1.01225514299585E-05,1.93359375,0,0
-3.0349086955539E-05,1.02019075711723E-05,1.93359375,0,0
-3.17344783979934E-05,1.26954519146238E-05,1.93359375,0,0
-3.21897823596373E-05,1.43232318805531E-05,1.93359375,0,0
-3.16598670906387E-05,1.50557152664987E-05,1.93359375,0,0
-2.94200326607097E-05,1.27054863696685E-05,1.93359375,0,0
-2.8102951546316E-05,1.02190424513537E-05,1.93359375,0,0
-2.38171633100137E-05,8.88818885869114E-06,1.93359375,0,0
-3.36093762598466E-05,1.22746887427638E-05,1.93359375,0,0
-2.36513551499229E-05,6.20967284703511E-06,1.93359375,0,0
-2.76122063951334E-05,7.55134942664881E-06,1.93359375,0,0
-2.12402774195652E-05,1.01890273072058E-05,1.93359375,0,0
-2.39354849327356E-05,1.46715728988056E-05,1.93359375,0,0
-2.2774833269068E-05,1.67499838426011E-05,1.93359375,0,0
-2.54679580393713E-05,1.89400634553749E-05,1.93359375,0,0
-2.50588345807046E-05,1.83939046110027E-05,1.93359375,0,0
-2.52943373197922E-05,1.70608273037942E-05,1.93359375,0,0
-2.53521011472913E-05,1.45473686643527E-05,1.93359375,0,0
-2.48100805038121E-05,1.00963698059786E-05,1.93359375,0,0
-2.59316475421656E-05,8.06625303084729E-06,1.93359375,0,0
-2.36126634263201E-05,8.54195968713611E-06,1.93359375,0,0
-2.41602701862575E-05,9.29436009755591E-06,1.93359375,0,0
-2.38021384575404E-05,7.08845209373976E-06,1.93359375,0,0
-2.5729852495715E-05,5.91089929002919E-06,1.93359375,0,0
-2.34295821428532E-05,5.7603128880146E-06,1.93359375,0,0
-2.25939911615569E-05,9.29376983549446E-06,1.93359375,0,0
-2.07335724553559E-05,1.3058170225122E-05,1.93359375,0,0
-2.22340968321078E-05,1.3676905837201E-05,1.93359375,0,0
-2.19043377001071E-05,1.12576635729056E-05,1.93359375,0,0
-2.20050715142861E-05,9.80140885076253E-06,1.93359375,0,0
-2.18303794099484E-05,1.01294826890808E-05,1.93359375,0,0
-2.27784403250553E-05,1.30372663988965E-05,1.93359375,0,0
-2.17665401578415E-05,1.44625546454336E-05,1.93359375,0,0
-2.06160366360564E-05,1.32056120492052E-05,1.93359375,0,0
-1.62262040248606E-05,8.29511191113852E-06,1.93359375,0,0
-2.32677703024819E-05,9.97526240098523E-06,1.93359375,0,0
-1.89673501154175E-05,7.82992901804391E-06,1.93359375,0,0
-2.36345058510778E-05,1.35651771415723E-05,1.93359375,0,0
-2.02890314540127E-05,1.42402941492037E-05,1.93359375,0,0
-2.3667438654229E-05,1.81271097972058E-05,1.93359375,0,0
-2.33519131143112E-05,1.88286121556303E-05,1.93359375,0,0
-2.52408881351585E-05,2.09559639188228E-05,1.93359375,0,0
-2.46710897044977E-05,1.93127616512356E-05,1.93359375,0,0
-2.38787743001012E-05,1.60637882800074E-05,1.93359375,0,0
-2.26341326197144E-05,1.30373382489779E-05,1.93359375,0,0
-2.02738992811646E-05,1.08737858681707E-05,1.93359375,0,0
-1.93878386198776E-05,1.1434817679401E-05,1.93359375,0,0
-1.80369443114614E-05,1.27683815662749E-05,1.93359375,0,0
-1.85209573828615E-05,1.55260822793934E-05,1.93359375,0,0
-1.65995243150974E-05,1.54834069689969E-05,1.93359375,0,0
