biceps_emg, triceps_emg, subject_position, position_estimate, brace_position
-2.73804816970369E-05,-1.73474181792699E-05,0.17578125,0,0
-2.19325393118197E-05,-1.81250725290738E-05,0.17578125,0,0
-2.91699543595314E-05,-2.05882624868536E-05,0.17578125,0,0
-2.02637311303988E-05,-1.67509624589002E-05,0.17578125,0,0
-2.65957987721777E-05,-2.01142320293002E-05,0.17578125,0,0
-2.26209431275493E-05,-8.1238122220384E-06,0.17578125,0,0
-2.59772059507668E-05,-3.67230531992391E-05,0.17578125,0,0
-2.20546316995751E-05,-4.88752048113383E-05,0.17578125,0,0
-2.26513366214931E-05,-3.04744025925174E-05,0.17578125,0,0
-2.27072032430442E-05,-2.86051053990377E-05,0.17578125,0,0
-2.30757304962026E-05,-2.76383179880213E-05,0.17578125,0,0
-2.25756120926235E-05,-8.23983100417536E-06,0.17578125,0,0
-2.07889843295561E-05,-1.28070496430155E-06,0.17578125,0,0
-2.15134314203169E-05,-2.28142630476214E-06,0.17578125,0,0
-2.11041879083496E-05,1.56472415255848E-05,0.17578125,0,0
-2.39058790612035E-05,2.50519133260241E-05,0.17578125,0,0
-2.40723475144478E-05,1.77857364178635E-05,0.17578125,0,0
-2.50764314841945E-05,7.28264740246232E-06,0.17578125,0,0
-2.23712740989868E-05,8.80754032550612E-06,0.17578125,0,0
-2.3186112230178E-05,1.31058068291168E-05,0.17578125,0,0
-2.30186215048889E-05,1.84172131412197E-05,0.17578125,0,0
-2.44156399276108E-05,2.17417673411546E-05,0.17578125,0,0
-2.39065630012192E-05,2.83289646176854E-05,0.17578125,0,0
-2.38263892242685E-05,3.2830244890647E-05,0.17578125,0,0
-2.25390958803473E-05,3.51721282640938E-05,0.17578125,0,0
-2.25281128223287E-05,3.44770087394863E-05,0.17578125,0,0
-2.22775688598631E-05,3.16906480293255E-05,0.17578125,0,0
-2.32004440476885E-05,2.58481650234899E-05,0.17578125,0,0
-2.03028830583207E-05,1.39282301461208E-05,0.17578125,0,0
-2.855291859305E-05,2.10818343475694E-05,0.17578125,0,0
-2.04734569706488E-05,6.74954299029196E-06,0.17578125,0,0
-2.46097370109055E-05,6.22246307102614E-06,0.17578125,0,0
-2.03143790713511E-05,1.23117379189353E-05,0.17578125,0,0
-2.34149301832076E-05,-6.59449779050192E-06,0.17578125,0,0
-2.14646170206834E-05,-2.80851254501613E-05,0.17578125,0,0
-2.30593141168356E-05,-2.10117868846282E-05,0.17578125,0,0
-2.33114096772624E-05,-3.38545105478261E-05,0.17578125,0,0
-2.20124638872221E-05,-4.63112119177822E-05,0.17578125,0,0
-1.94300046132412E-05,-4.18364579672925E-05,0.17578125,0,0
-1.69181748788105E-05,-4.8441255785292E-05,0.17578125,0,0
-1.70174571394455E-05,-5.25608047610149E-05,0.17578125,0,0
-1.58370257850038E-05,-3.66052008757833E-05,0.17578125,0,0
-1.75793011294445E-05,-2.68955172941787E-05,0.17578125,0,0
-1.77483598235995E-05,-3.54734183929395E-05,0.17578125,0,0
-1.90908740478335E-05,-3.53506984538399E-05,0.17578125,0,0
-1.67628495546523E-05,-2.52613517659483E-05,0.17578125,0,0
-1.59703758981777E-05,-1.55389589053812E-05,0.17578125,0,0
-1.4206216292223E-05,-1.01409586932277E-05,0.17578125,0,0
-1.45733511089929E-05,-2.91010081809873E-07,0.17578125,0,0
-1.34247338792193E-05,1.06007801150554E-05,0.17578125,0,0
-1.39490257424768E-05,1.70307739608688E-05,0.17578125,0,0
-1.51436406667926E-05,2.01724014914362E-05,0.17578125,0,0
-1.7617743651499E-05,2.66203169303481E-05,0.17578125,0,0
-1.92787665582728E-05,3.04246241285E-05,0.17578125,0,0
-2.01755938178394E-05,3.00376814266201E-05,0.17578125,0,0
-1.68969236256089E-05,2.4631812266307E-05,0.17578125,0,0
-2.39810251514427E-05,4.37184935435653E-05,0.17578125,0,0
-1.91891977010528E-05,3.62408572982531E-05,0.17578125,0,0
-2.47990410571219E-05,4.63815813418478E-05,0.17578125,0,0
-2.13199855352286E-05,5.66664202779066E-05,0.17578125,0,0
-2.29751422011759E-05,3.72345675714314E-05,0.17578125,0,0
-1.99763162527233E-05,1.33478079078486E-05,0.17578125,0,0
-2.02360042749206E-05,1.85489134310046E-05,0.17578125,0,0
-2.07748198590707E-05,5.2973418860347E-06,0.17578125,0,0
-2.27414184337249E-05,-4.40948906543781E-06,0.17578125,0,0
-2.35652041737922E-05,3.01674890579307E-06,0.17578125,0,0
-2.18227760342415E-05,-4.44413990408066E-06,0.17578125,0,0
-2.15725740417838E-05,-1.55768702825299E-05,0.17578125,0,0
-2.06001932383515E-05,-1.03280463008559E-05,0.17578125,0,0
-2.16834032471525E-05,-1.06150055216858E-05,0.17578125,0,0
-2.15745494642761E-05,-3.1099498301046E-05,0.17578125,0,0
-2.46549116127426E-05,-4.57485766673926E-05,0.17578125,0,0
-2.6191115466645E-05,-4.90342354169115E-05,0.17578125,0,0
-2.79749729088508E-05,-4.34402572864201E-05,0.17578125,0,0
-2.62212470261147E-05,-3.86766623705626E-05,0.17578125,0,0
-2.49365002673585E-05,-3.2600546546746E-05,0.17578125,0,0
-2.39857399719767E-05,-2.82541932392633E-05,0.17578125,0,0
-2.53419693763135E-05,-2.31262365559815E-05,0.17578125,0,0
-2.4791477699182E-05,-1.83674237632658E-05,0.17578125,0,0
-2.32530837820377E-05,-1.0409472452011E-05,0.17578125,0,0
-2.32310758292442E-05,-3.17975900543388E-06,0.17578125,0,0
-2.48627256951295E-05,6.6502525442047E-07,0.17578125,0,0
-2.06957520276774E-05,4.82014775116113E-06,0.17578125,0,0
-2.91497744910885E-05,1.6053905710578E-05,0.17578125,0,0
-2.26709926209878E-05,1.87689602171304E-05,0.17578125,0,0
-2.89106228592573E-05,3.07371883536689E-05,0.17578125,0,0
-2.49189379246673E-05,5.05404423165601E-05,0.17578125,0,0
-2.89684230665443E-05,3.08005182887428E-05,0.17578125,0,0
-2.74703688774025E-05,1.96265664271778E-05,0.17578125,0,0
-2.87052462226711E-05,4.30609870818444E-05,0.17578125,0,0
-2.90069529000903E-05,4.66102719656192E-05,0.17578125,0,0
-2.94195506285178E-05,4.26721198891755E-05,0.17578125,0,0
-2.81800366792595E-05,5.11242142238189E-05,0.17578125,0,0
-2.68009916908341E-05,4.59137008874677E-05,0.17578125,0,0
-2.86842514469754E-05,3.86334140785038E-05,0.17578125,0,0
-2.95047266263282E-05,5.01847716805059E-05,0.17578125,0,0
-3.17786689265631E-05,5.08192715642508E-05,0.17578125,0,0
-2.97428723570192E-05,2.68123822024791E-05,0.17578125,0,0
-2.91241995000746E-05,2.92303479909606E-06,0.17578125,0,0
-2.76703995041316E-05,-5.48081652596011E-06,0.17578125,0,0
-2.9077913495712E-05,-4.79987193102716E-06,0.17578125,0,0
-2.76563732768409E-05,-4.09388758271234E-06,0.17578125,0,0
-2.72564466285985E-05,-7.50920662540011E-06,0.17578125,0,0
-2.56941184488824E-05,-9.69191478361608E-06,0.17578125,0,0
-2.56639323197305E-05,-8.35514765640255E-06,0.17578125,0,0
-2.40640238189371E-05,-8.2928936535609E-06,0.17578125,0,0
-2.41571488004411E-05,-8.20731747808168E-06,0.17578125,0,0
-2.49536824412644E-05,-5.50755248696078E-06,0.17578125,0,0
-2.44172570091905E-05,4.01526733639912E-07,0.17578125,0,0
-1.811602669477E-05,7.75517401052639E-06,0.17578125,0,0
-2.54677561315475E-05,2.0897989088553E-05,0.17578125,0,0
-2.02518513106043E-05,1.98067318706308E-05,0.17578125,0,0
-2.56219263974344E-05,2.89086838165531E-05,0.17578125,0,0
-2.26639731408795E-05,5.01277900184505E-05,0.17578125,0,0
-2.74380981863942E-05,3.51542694261298E-05,0.17578125,0,0
-2.49696367973229E-05,2.39356813835911E-05,0.17578125,0,0
-2.33619721257128E-05,4.28708190156613E-05,0.17578125,0,0
-2.15673335333122E-05,4.21919503423851E-05,0.17578125,0,0
-2.29444831347791E-05,4.07239167543594E-05,0.17578125,0,0
-2.38825905398699E-05,5.32020967511926E-05,0.17578125,0,0
-2.36403466260526E-05,4.71070306957699E-05,0.17578125,0,0
-2.53981743298937E-05,3.86659121431876E-05,0.17578125,0,0
-2.53844718827168E-05,5.18053711857647E-05,0.17578125,0,0
-2.69136889983201E-05,5.6797856814228E-05,0.17578125,0,0
-2.59568696492352E-05,4.10514367104042E-05,0.17578125,0,0
-2.66232163994573E-05,3.09305905830115E-05,0.17578125,0,0
-2.57570536632556E-05,3.73669790860731E-05,0.17578125,0,0
-2.81971515505575E-05,4.65205375803635E-05,0.17578125,0,0
-2.91593878500862E-05,4.46320336777717E-05,0.17578125,0,0
-2.98940194625175E-05,3.17506128340028E-05,0.17578125,0,0
-2.71643493761076E-05,2.0200852304697E-05,0.17578125,0,0
-2.58445870713331E-05,1.58931979967747E-05,0.17578125,0,0
-2.40607896557776E-05,1.41637319757137E-05,0.17578125,0,0
-2.21141453948803E-05,1.31506494653877E-05,0.17578125,0,0
-2.17697124753613E-05,1.22043948067585E-05,0.17578125,0,0
-2.40535464399727E-05,1.14006870717276E-05,0.17578125,0,0
-2.08375113288639E-05,9.10359085537493E-06,0.17578125,0,0
-2.81524735328276E-05,1.53508990479168E-05,0.17578125,0,0
-1.88314315892057E-05,3.91497422924658E-07,0.17578125,0,0
-2.30052301049E-05,-3.49322726833634E-06,0.17578125,0,0
-1.89013226190582E-05,8.8995566329686E-06,0.17578125,0,0
-2.46034778683679E-05,-6.9155712481006E-06,0.17578125,0,0
-2.51967940130271E-05,-2.11605056392727E-05,0.17578125,0,0
-2.73650293820538E-05,-2.09208178603149E-06,0.17578125,0,0
-2.68759704340482E-05,6.71743578095629E-07,0.17578125,0,0
-2.62949524767464E-05,4.17071805713931E-06,0.17578125,0,0
-2.55636896326905E-05,2.23362148972228E-05,0.17578125,0,0
-2.46825893555069E-05,2.49694512604037E-05,0.17578125,0,0
-2.52412301051663E-05,2.49585664278129E-05,0.17578125,0,0
-2.30179666687036E-05,4.06118560931645E-05,0.17578125,0,0
-2.41164980252506E-05,4.74113767268136E-05,0.17578125,0,0
-2.45640130742686E-05,3.50680275005288E-05,0.17578125,0,0
-2.71958742814604E-05,2.52382887993008E-05,0.17578125,0,0
-2.54511196544627E-05,2.48663818638306E-05,0.17578125,0,0
-2.40772405959433E-05,2.82023447653046E-05,0.17578125,0,0
-2.10478156077443E-05,2.9901251764386E-05,0.17578125,0,0
-2.12412323890021E-05,3.17255180561915E-05,0.17578125,0,0
-2.18099285120843E-05,3.17648009513505E-05,0.17578125,0,0
-2.21199643419823E-05,3.10331706714351E-05,0.17578125,0,0
-1.91849048860604E-05,2.93570556095801E-05,0.17578125,0,0
-1.7769894839148E-05,2.80571057373891E-05,0.17578125,0,0
-1.6346533811884E-05,2.72356901405146E-05,0.17578125,0,0
-1.45412859637872E-05,2.32945658353856E-05,0.17578125,0,0
-1.17479776235996E-05,1.26294680740102E-05,0.17578125,0,0
-1.80502247530967E-05,1.90851860679686E-05,0.17578125,0,0
-1.53269047586946E-05,6.34611433270038E-06,0.17578125,0,0
-1.88845024240436E-05,8.75539080880117E-06,0.17578125,0,0
-1.9392979083932E-05,1.8820705008693E-05,0.17578125,0,0
-2.28934677579673E-05,5.18117474257451E-07,0.17578125,0,0
-2.07517459784867E-05,-1.76344092324143E-05,0.17578125,0,0
-1.96802102436777E-05,-6.68958182359347E-06,0.17578125,0,0
-1.93704690900631E-05,-1.94269596249796E-05,0.17578125,0,0
-1.97110693989089E-05,-3.4001703170361E-05,0.17578125,0,0
-1.95683824131265E-05,-3.14177668769844E-05,0.17578125,0,0
-1.84650634764694E-05,-3.60643098247238E-05,0.17578125,0,0
-1.89459624380106E-05,-3.55161937477533E-05,0.17578125,0,0
-2.0931151084369E-05,-1.43328270496568E-05,0.17578125,0,0
-2.41673278651433E-05,-1.22812514291581E-06,0.17578125,0,0
-2.40011140704155E-05,-9.83960308076348E-06,0.17578125,0,0
-2.35638854064746E-05,-1.43239512908622E-05,0.17578125,0,0
-2.32497732213233E-05,-7.38584230930428E-06,0.17578125,0,0
-2.54108672379516E-05,4.96777420266881E-06,0.17578125,0,0
-2.62552493950352E-05,1.36956577989622E-05,0.17578125,0,0
-2.69373522314709E-05,2.1407482563518E-05,0.17578125,0,0
-2.56810235441662E-05,2.81676093436545E-05,0.17578125,0,0
-2.53641646850156E-05,3.70931666111574E-05,0.17578125,0,0
-2.67315590463113E-05,3.98850788769778E-05,0.17578125,0,0
-2.92946660920279E-05,3.41794366249815E-05,0.17578125,0,0
-3.02130829368252E-05,3.04395070997998E-05,0.17578125,0,0
-2.98935028695269E-05,3.30038492393214E-05,0.17578125,0,0
-2.29773813771317E-05,3.08922317344695E-05,0.17578125,0,0
-3.08944618154783E-05,5.09070086991414E-05,0.17578125,0,0
-2.23494480451336E-05,3.71361384168267E-05,0.17578125,0,0
-2.93886969302548E-05,4.80164962937124E-05,0.17578125,0,0
-2.38734264712548E-05,5.87118192925118E-05,0.17578125,0,0
-2.75585935014533E-05,3.4065236832248E-05,0.17578125,0,0
-2.51355868385872E-05,1.05552021523181E-06,0.17578125,0,0
-2.55123341048602E-05,7.51902916817926E-06,0.17578125,0,0
-2.34907456615474E-05,-1.26483803342126E-06,0.17578125,0,0
-2.36200776271289E-05,-8.87222358869622E-06,0.17578125,0,0
-2.48373580689076E-05,-1.89115291959752E-06,0.17578125,0,0
-2.43981612584321E-05,-1.13794794742716E-05,0.17578125,0,0
-2.4169954485842E-05,-2.23426832235418E-05,0.17578125,0,0
-2.08424826269038E-05,-1.61978350661229E-05,0.17578125,0,0
-2.15243144339183E-05,-1.20679160318105E-05,0.17578125,0,0
-2.17815686482936E-05,-2.85909554804675E-05,0.17578125,0,0
-2.45511109824292E-05,-4.26538135798182E-05,0.17578125,0,0
-2.30191690206993E-05,-4.7534609620925E-05,0.17578125,0,0
-2.38351367443101E-05,-4.03435515181627E-05,0.17578125,0,0
-2.37541298702126E-05,-3.396690954105E-05,0.17578125,0,0
-2.57820229307981E-05,-2.69182528427336E-05,0.17578125,0,0
-2.52294285019161E-05,-2.17783945117844E-05,0.17578125,0,0
-2.50335124292178E-05,-1.66188747243723E-05,0.17578125,0,0
-2.28048538701842E-05,-1.60611471073935E-05,0.17578125,0,0
-2.14677147596376E-05,-1.61807602125918E-05,0.17578125,0,0
-2.08892124646809E-05,-1.01132291092654E-05,0.17578125,0,0
-2.04073476197664E-05,1.84705538686103E-06,0.17578125,0,0
-1.51427029777551E-05,1.02844260254642E-05,0.17578125,0,0
-2.09249337785877E-05,2.28541375690838E-05,0.17578125,0,0
-1.5635432646377E-05,2.03159761440475E-05,0.17578125,0,0
-2.10891776077915E-05,2.75037346000317E-05,0.17578125,0,0
-1.93757732631639E-05,4.15681970480364E-05,0.17578125,0,0
-2.10282523767091E-05,2.27639375225408E-05,0.17578125,0,0
-1.86170200322522E-05,1.09216516648303E-05,0.17578125,0,0
-1.98909747268772E-05,3.05719004245475E-05,0.17578125,0,0
-2.03177132789278E-05,3.14955213980284E-05,0.17578125,0,0
-2.10205816983944E-05,2.93909670290304E-05,0.17578125,0,0
-2.27542204811471E-05,3.84482918889262E-05,0.17578125,0,0
-2.49287058977643E-05,3.0038041586522E-05,0.17578125,0,0
-2.80900276266038E-05,1.79935432242928E-05,0.17578125,0,0
-2.79108462564182E-05,2.08353940251982E-05,0.17578125,0,0
-2.77343260677299E-05,1.35808422783157E-05,0.17578125,0,0
-2.51422952715075E-05,-1.12113093564403E-05,0.17578125,0,0
-2.5100711354753E-05,-3.06727670249529E-05,0.17578125,0,0
-2.62704834312899E-05,-3.95199785998557E-05,0.17578125,0,0
-3.09867646137718E-05,-4.56538546131924E-05,0.17578125,0,0
-3.29903596139047E-05,-5.31036857864819E-05,0.17578125,0,0
-3.24782340612728E-05,-5.880609023734E-05,0.17578125,0,0
-2.94884539471241E-05,-6.35753240203485E-05,0.17578125,0,0
-2.87338752968935E-05,-6.99476804584265E-05,0.17578125,0,0
-2.8733282306348E-05,-7.63377829571255E-05,0.17578125,0,0
-2.78461338893976E-05,-7.41070980438963E-05,0.17578125,0,0
-2.65158123511355E-05,-6.44390165689401E-05,0.17578125,0,0
-2.84181987808552E-05,-5.41743356734514E-05,0.17578125,0,0
-2.5443683625781E-05,-3.46013257512823E-05,0.17578125,0,0
-3.48862340615597E-05,-3.4205262636533E-05,0.17578125,0,0
-2.40147764998255E-05,-9.79310425464064E-06,0.17578125,0,0
-3.03898814308923E-05,-4.35037327406462E-06,0.17578125,0,0
-2.53973703365773E-05,2.96611160592875E-05,0.17578125,0,0
-2.78062434517778E-05,7.6232390711084E-06,0.17578125,0,0
-2.34822891798103E-05,-2.05101423489396E-06,0.17578125,0,0
-2.43362701439764E-05,1.45398271342856E-05,0.17578125,0,0
-2.40468289121054E-05,1.75341319845757E-05,0.17578125,0,0
-2.53581838478567E-05,1.61321713676443E-05,0.17578125,0,0
-2.60034503298812E-05,2.97176393360132E-05,0.17578125,0,0
-2.37810654653003E-05,3.0135521228658E-05,0.17578125,0,0
-2.35280676861294E-05,2.33383561862865E-05,0.17578125,0,0
-2.21351001528092E-05,4.05879327445291E-05,0.17578125,0,0
-2.38894081121543E-05,4.95106542075519E-05,0.17578125,0,0
-2.2604399418924E-05,4.35794754594099E-05,0.17578125,0,0
-2.37016829487402E-05,3.01893687719712E-05,0.17578125,0,0
-2.23372080654372E-05,3.05058511003153E-05,0.17578125,0,0
-2.32257280003978E-05,3.15938123094384E-05,0.17578125,0,0
-2.09885838557966E-05,3.44431100529619E-05,0.17578125,0,0
-2.14463416341459E-05,2.80484491668176E-05,0.17578125,0,0
-2.20379788515856E-05,1.87457353604259E-05,0.17578125,0,0
-2.37521762755932E-05,7.00855662216782E-06,0.17578125,0,0
-2.23547394853085E-05,4.09226959163789E-06,0.17578125,0,0
-2.17545475607039E-05,5.80423102292116E-06,0.17578125,0,0
-2.15784293686738E-05,6.99573547535692E-06,0.17578125,0,0
-2.1061219740659E-05,3.91431285606814E-06,0.17578125,0,0
-1.73294574778993E-05,3.57272097062378E-06,0.17578125,0,0
-2.50628963840427E-05,1.26909953905852E-05,0.17578125,0,0
-1.97870267584221E-05,1.22943765745731E-05,0.17578125,0,0
-2.46176605287474E-05,2.31659814744489E-05,0.17578125,0,0
-2.20341025851667E-05,4.56777670478914E-05,0.17578125,0,0
-2.48245887632947E-05,2.99811017612228E-05,0.17578125,0,0
-2.24238210648764E-05,1.54252265929244E-05,0.17578125,0,0
-2.21295631490648E-05,3.07422087644227E-05,0.17578125,0,0
-2.06008116947487E-05,3.00364463328151E-05,0.17578125,0,0
-2.09322042792337E-05,3.15305587719195E-05,0.17578125,0,0
-2.32381808018545E-05,5.10969293827657E-05,0.17578125,0,0
-2.41732104768744E-05,5.71093733015005E-05,0.17578125,0,0
-2.44096136157168E-05,5.83162800467107E-05,0.17578125,0,0
-2.14168303500628E-05,7.47753074392676E-05,0.17578125,0,0
-2.06051299755927E-05,8.11647114460357E-05,0.17578125,0,0
-1.95767443074146E-05,6.729549204465E-05,0.17578125,0,0
-2.04020980163477E-05,5.31033656443469E-05,0.17578125,0,0
-1.86464021680877E-05,5.08757148054428E-05,0.17578125,0,0
-2.00811446120497E-05,5.45357543160208E-05,0.17578125,0,0
-2.2556894691661E-05,5.53969803149812E-05,0.17578125,0,0
-2.66587467194768E-05,5.26595904375426E-05,0.17578125,0,0
-2.70918753813021E-05,5.12898477609269E-05,0.17578125,0,0
-2.51361143455142E-05,5.33144193468615E-05,0.17578125,0,0
-2.24235191126354E-05,5.43139212823007E-05,0.17578125,0,0
-2.26441497943597E-05,4.60916053270921E-05,0.17578125,0,0
-2.3819900889066E-05,3.08499693346675E-05,0.17578125,0,0
-2.42595961026382E-05,2.26973097596783E-05,0.17578125,0,0
-1.9602583051892E-05,1.64140492415754E-05,0.17578125,0,0
-2.74744797934545E-05,2.49227177846478E-05,0.17578125,0,0
-2.01567654585233E-05,1.11535118776374E-05,0.17578125,0,0
-2.42630412685685E-05,1.62527558131842E-05,0.17578125,0,0
-1.84367600013502E-05,2.63680976786418E-05,0.17578125,0,0
-2.07371776923537E-05,5.85175621381495E-06,0.17578125,0,0
-1.87220593943493E-05,-1.70082639669999E-05,0.17578125,0,0
-1.96540022443514E-05,-7.18322189641185E-06,0.17578125,0,0
-2.05582418857375E-05,-1.52588709170232E-05,0.17578125,0,0
-2.23821716645034E-05,-2.26227693929104E-05,0.17578125,0,0
-2.25417352339718E-05,-1.33974108393886E-05,0.17578125,0,0
-2.12580798688577E-05,-1.37252800413989E-05,0.17578125,0,0
-2.28088356379885E-05,-9.12089308258146E-06,0.17578125,0,0
-2.36360883718589E-05,1.28397523440071E-05,0.17578125,0,0
-2.68136263912311E-05,2.2996959160082E-05,0.17578125,0,0
-2.64193440671079E-05,9.44775456446223E-06,0.17578125,0,0
-2.56616731348913E-05,6.26363544142805E-07,0.17578125,0,0
-2.25096628128085E-05,3.90342938771937E-06,0.17578125,0,0
-2.30158475460485E-05,1.11404915514868E-05,0.17578125,0,0
-2.30117366299964E-05,1.06821280496661E-05,0.17578125,0,0
-2.39472356042825E-05,8.77159709489206E-06,0.17578125,0,0
-2.23626866500126E-05,8.45981230668258E-06,0.17578125,0,0
-2.11742099054391E-05,1.17247454909375E-05,0.17578125,0,0
-1.92282841453562E-05,1.40385709528346E-05,0.17578125,0,0
-1.87463447218761E-05,1.76244375325041E-05,0.17578125,0,0
-1.91958151845029E-05,2.59073931374587E-05,0.17578125,0,0
-1.93470496014925E-05,3.44476247846615E-05,0.17578125,0,0
-1.47218415804673E-05,2.86963313556043E-05,0.17578125,0,0
-1.90405517059844E-05,4.34934117947705E-05,0.17578125,0,0
-1.28947958728531E-05,2.65536491497187E-05,0.17578125,0,0
-1.86043762369081E-05,3.06527872453444E-05,0.17578125,0,0
-1.73984099092195E-05,3.39333892043214E-05,0.17578125,0,0
-2.11326860153349E-05,1.29274176288163E-05,0.17578125,0,0
-2.13977491512196E-05,-1.15395687316777E-05,0.17578125,0,0
-2.41916532104369E-05,2.83097551800893E-06,0.17578125,0,0
-2.47305561060784E-05,-2.50293828685244E-06,0.17578125,0,0
-2.43861613853369E-05,-1.04047976492438E-05,0.17578125,0,0
-2.34857652685605E-05,-7.72649764257949E-06,0.17578125,0,0
-2.26725478569278E-05,-2.0965511794202E-05,0.17578125,0,0
-2.41708075918723E-05,-3.1443818443222E-05,0.17578125,0,0
-2.33512364502531E-05,-2.13566236197948E-05,0.17578125,0,0
-2.36447940551443E-05,-1.28446090457146E-05,0.17578125,0,0
-2.35856768995291E-05,-2.55547420238145E-05,0.17578125,0,0
-2.56700313912006E-05,-3.34397336700931E-05,0.17578125,0,0
-2.54993465205189E-05,-3.3132379030576E-05,0.17578125,0,0
-2.62289122474613E-05,-2.67033428826835E-05,0.17578125,0,0
-2.54083915933734E-05,-2.27966520469636E-05,0.17578125,0,0
-2.66347306023818E-05,-1.38307095767232E-05,0.17578125,0,0
-2.74123376584612E-05,-6.08831760473549E-06,0.17578125,0,0
-2.85293244814966E-05,1.0528023040024E-06,0.17578125,0,0
-2.86290196527261E-05,5.2271384447522E-06,0.17578125,0,0
-2.90591869998025E-05,1.13519190563238E-05,0.17578125,0,0
-2.89595209324034E-05,1.5344247003668E-05,0.17578125,0,0
-2.77270501101157E-05,1.72587369888788E-05,0.17578125,0,0
-2.0003517420264E-05,1.7352413124172E-05,0.17578125,0,0
-2.88543433271116E-05,3.52993411070202E-05,0.17578125,0,0
-2.31239300774178E-05,3.46929991792422E-05,0.17578125,0,0
-2.78014285868267E-05,4.35772126365919E-05,0.17578125,0,0
-2.28123644774314E-05,5.62464338145219E-05,0.17578125,0,0
-2.78345269180136E-05,3.90790046367329E-05,0.17578125,0,0
-2.8586193366209E-05,1.93674568436109E-05,0.17578125,0,0
-3.17705744237173E-05,3.1099083571462E-05,0.17578125,0,0
-3.14504140987992E-05,2.4584758648416E-05,0.17578125,0,0
-3.03022352454718E-05,1.41338387038559E-05,0.17578125,0,0
-2.89413474092726E-05,1.41470791277243E-05,0.17578125,0,0
-2.81686116068158E-05,-1.73192267993727E-06,0.17578125,0,0
-2.91072883555898E-05,-1.45821022670134E-05,0.17578125,0,0
-2.61380446318071E-05,-3.19127821057918E-06,0.17578125,0,0
-2.36308242165251E-05,1.84195630481554E-06,0.17578125,0,0
-2.00909707928076E-05,-1.99920086743077E-05,0.17578125,0,0
-2.06400491151726E-05,-3.88921471312642E-05,0.17578125,0,0
-2.01762686629081E-05,-4.04654056183062E-05,0.17578125,0,0
-2.25142739509465E-05,-3.38617173838429E-05,0.17578125,0,0
-2.26404335990082E-05,-3.37894416588824E-05,0.17578125,0,0
-2.25888543354813E-05,-3.76050847989973E-05,0.17578125,0,0
-2.04013576876605E-05,-4.07128318329342E-05,0.17578125,0,0
-2.08347482839599E-05,-3.75690869987011E-05,0.17578125,0,0
-2.13226667256095E-05,-3.30151233356446E-05,0.17578125,0,0
-2.1327767171897E-05,-2.8896964067826E-05,0.17578125,0,0
-2.02897535928059E-05,-2.49074164457852E-05,0.17578125,0,0
-2.05763499252498E-05,-1.57322592713172E-05,0.17578125,0,0
-1.74509059434058E-05,3.74964679394907E-06,0.17578125,0,0
-2.56660641753115E-05,2.02670817088801E-05,0.17578125,0,0
-2.04919197130948E-05,2.33593018492684E-05,0.17578125,0,0
-2.40507415583124E-05,2.55499417107785E-05,0.17578125,0,0
-1.88762041943846E-05,4.44293618784286E-05,0.17578125,0,0
-1.90368027688237E-05,2.77767958323238E-05,0.17578125,0,0
-1.60768140631262E-05,1.76386656676186E-05,0.17578125,0,0
-1.84466589416843E-05,3.5175347875338E-05,0.17578125,0,0
-2.04926454898668E-05,3.31328228639904E-05,0.17578125,0,0
-2.12653794733342E-05,2.98177110380493E-05,0.17578125,0,0
-1.97615081560798E-05,4.40781732322648E-05,0.17578125,0,0
-1.73805601662025E-05,4.48024184152018E-05,0.17578125,0,0
-1.76003122760449E-05,4.27923187089618E-05,0.17578125,0,0
-1.74055967363529E-05,5.83828150411136E-05,0.17578125,0,0
-2.03355612029554E-05,6.28121852059849E-05,0.17578125,0,0
-2.2318334231386E-05,4.45560071966611E-05,0.17578125,0,0
-2.51861656579422E-05,2.44394850597018E-05,0.17578125,0,0
-2.4411534468527E-05,1.80699098564219E-05,0.17578125,0,0
-2.44202692556428E-05,1.6187301298487E-05,0.17578125,0,0
-2.27390919462778E-05,1.15465591079555E-05,0.17578125,0,0
-2.28793123824289E-05,3.77950777874503E-06,0.17578125,0,0
-2.33257305808365E-05,-3.83606993636931E-06,0.17578125,0,0
-2.64946447714465E-05,-1.19206897579716E-05,0.17578125,0,0
-2.80642561847344E-05,-1.81847972271498E-05,0.17578125,0,0
-2.67461600742536E-05,-2.23104161705123E-05,0.17578125,0,0
-2.43743452301715E-05,-2.73683690465987E-05,0.17578125,0,0
-2.44173243117984E-05,-3.10723262373358E-05,0.17578125,0,0
-2.35584284382639E-05,-2.43364902416943E-05,0.17578125,0,0
-3.55736556230113E-05,-2.70413202088093E-05,0.17578125,0,0
-2.75685670203529E-05,-1.73305106727639E-05,0.17578125,0,0
-3.22699925163761E-05,-1.77329111465951E-05,0.17578125,0,0
-2.85035348497331E-05,5.66437984161894E-06,0.17578125,0,0
-3.10835675918497E-05,-1.46748570841737E-05,0.17578125,0,0
-2.75895763479639E-05,-1.90394766832469E-05,0.17578125,0,0
-2.83441604551626E-05,5.15235115017276E-06,0.17578125,0,0
-2.81387710856507E-05,1.36185863084393E-05,0.17578125,0,0
-2.8426613425836E-05,2.20428410102613E-05,0.17578125,0,0
-2.92692493530922E-05,4.07771731261164E-05,0.17578125,0,0
-2.84612560790265E-05,4.11689434258733E-05,0.17578125,0,0
-2.83501904050354E-05,3.5723493056139E-05,0.17578125,0,0
-2.6187117327936E-05,4.93240768264513E-05,0.17578125,0,0
-2.70668315351941E-05,4.93730331072584E-05,0.17578125,0,0
-2.63439123955322E-05,3.47692148352508E-05,0.17578125,0,0
-2.82301007246133E-05,2.37461899814662E-05,0.17578125,0,0
-2.78674942819634E-05,3.0091468943283E-05,0.17578125,0,0
-2.89245581370778E-05,3.77553951693699E-05,0.17578125,0,0
-2.76439204753842E-05,4.37999551650137E-05,0.17578125,0,0
-2.75250495178625E-05,3.99115415348206E-05,0.17578125,0,0
-2.53712933044881E-05,3.12064985337202E-05,0.17578125,0,0
-2.4670744096511E-05,2.15352010854986E-05,0.17578125,0,0
-2.31184330914402E-05,1.57836766447872E-05,0.17578125,0,0
-2.15641011891421E-05,1.29410236695549E-05,0.17578125,0,0
-2.16286971408408E-05,1.10931687231641E-05,0.17578125,0,0
-2.40093158936361E-05,4.14282158089918E-06,0.17578125,0,0
-2.17967972275801E-05,-1.71234933077358E-06,0.17578125,0,0
-3.01577856589574E-05,1.44008117786143E-06,0.17578125,0,0
-2.01925831788685E-05,-3.8451680666185E-06,0.17578125,0,0
-2.3967733795871E-05,-1.82241547008744E-06,0.17578125,0,0
-2.01966158783762E-05,1.69116665347246E-05,0.17578125,0,0
-2.50440643867478E-05,-1.58437990194216E-06,0.17578125,0,0
-2.37079875660129E-05,-1.95842840184923E-05,0.17578125,0,0
-2.52048739639577E-05,-6.9577095018758E-06,0.17578125,0,0
-2.55122358794324E-05,-8.17204909253633E-06,0.17578125,0,0
-2.58276431850391E-05,-7.94727384345606E-06,0.17578125,0,0
-2.52610461757286E-05,6.49039793643169E-06,0.17578125,0,0
-2.38027914747363E-05,6.53873712508357E-06,0.17578125,0,0
-2.48693577304948E-05,5.1825345508405E-06,0.17578125,0,0
-2.38325992540922E-05,2.52884619840188E-05,0.17578125,0,0
-2.46355866693193E-05,3.62040118488949E-05,0.17578125,0,0
-2.24137020268245E-05,2.44449020101456E-05,0.17578125,0,0
-2.26683168875752E-05,1.13606156446622E-05,0.17578125,0,0
-2.12145423574839E-05,1.2776716175722E-05,0.17578125,0,0
-2.23851384362206E-05,2.17188317037653E-05,0.17578125,0,0
-2.2076736058807E-05,2.87135444523301E-05,0.17578125,0,0
-2.34903181990376E-05,2.97024889732711E-05,0.17578125,0,0
-2.38310913118767E-05,2.82856490230188E-05,0.17578125,0,0
-2.49670192715712E-05,2.80589119938668E-05,0.17578125,0,0
-2.44794555328554E-05,2.89662002614932E-05,0.17578125,0,0
-2.38270058616763E-05,3.23921158269513E-05,0.17578125,0,0
-2.3600019630976E-05,3.59531077265274E-05,0.17578125,0,0
-2.39701912505552E-05,3.86001011065673E-05,0.17578125,0,0
-1.86660599865718E-05,3.24435168295167E-05,0.17578125,0,0
-2.58415038842941E-05,4.700038334704E-05,0.17578125,0,0
-1.93893411051249E-05,2.27021246246295E-05,0.17578125,0,0
-2.42162404902047E-05,2.38661668845452E-05,0.17578125,0,0
-2.05457563424716E-05,2.4712799131521E-05,0.17578125,0,0
-2.50217017310206E-05,4.36071468357113E-06,0.17578125,0,0
-2.37378717429237E-05,-1.96595192392124E-05,0.17578125,0,0
-2.5199831725331E-05,-1.0072803888761E-05,0.17578125,0,0
-2.49206077569397E-05,-2.00564209080767E-05,0.17578125,0,0
-2.41625839407789E-05,-2.47771786234807E-05,0.17578125,0,0
-2.42375681409612E-05,-1.58211896632565E-05,0.17578125,0,0
-2.41621964960359E-05,-2.7542211682885E-05,0.17578125,0,0
-2.41978123085573E-05,-3.89393317163922E-05,0.17578125,0,0
-2.25929179578088E-05,-2.84180077869678E-05,0.17578125,0,0
-2.47630468948046E-05,-1.7868158465717E-05,0.17578125,0,0
-2.4086921257549E-05,-2.68086296273395E-05,0.17578125,0,0
-2.44669536186848E-05,-2.80107196886092E-05,0.17578125,0,0
-2.46851450356189E-05,-2.07791053981055E-05,0.17578125,0,0
-2.80835847661365E-05,-9.18544446903979E-06,0.17578125,0,0
-2.81942848232575E-05,-4.40223584519117E-06,0.17578125,0,0
-2.73472523986129E-05,2.18244807115298E-07,0.17578125,0,0
-2.35350362345343E-05,3.02671310237201E-06,0.17578125,0,0
-2.15365580515936E-05,9.02281772141578E-06,0.17578125,0,0
-2.07651864911895E-05,1.14152517198818E-05,0.17578125,0,0
-2.04434254555963E-05,1.61799162015086E-05,0.17578125,0,0
-1.84855234692805E-05,2.50416196649894E-05,0.17578125,0,0
-1.75044842762873E-05,3.40358637913596E-05,0.17578125,0,0
-1.45859785334324E-05,3.33835087076295E-05,0.17578125,0,0
-2.08196142921224E-05,5.76410857320298E-05,0.17578125,0,0
-1.66223780979635E-05,5.05429052282125E-05,0.17578125,0,0
-2.02336341317277E-05,6.36592667433433E-05,0.17578125,0,0
-1.70300991158001E-05,7.12126347934827E-05,0.17578125,0,0
-2.04668176593259E-05,5.25237737747375E-05,0.17578125,0,0
-2.05058695428306E-05,2.76869177469052E-05,0.17578125,0,0
-2.24605028051883E-05,3.70782836398575E-05,0.17578125,0,0
-2.22923190449364E-05,2.71906010311795E-05,0.17578125,0,0
-2.24506475205999E-05,1.60465824592393E-05,0.17578125,0,0
-2.3618351406185E-05,1.85081589734182E-05,0.17578125,0,0
-2.53966190939536E-05,4.56865427622688E-06,0.17578125,0,0
-2.7985170163447E-05,-7.46481055102777E-06,0.17578125,0,0
-2.75435650110012E-05,-1.60912372848543E-06,0.17578125,0,0
-2.6805377274286E-05,-1.6046800510594E-06,0.17578125,0,0
-2.4165654394892E-05,-2.38880693359533E-05,0.17578125,0,0
-2.42897276621079E-05,-3.89276501664426E-05,0.17578125,0,0
-2.33084392675664E-05,-4.39994291809853E-05,0.17578125,0,0
-2.43589074671036E-05,-4.0587765397504E-05,0.17578125,0,0
-2.42960213654442E-05,-3.90809836972039E-05,0.17578125,0,0
-2.35440165852197E-05,-3.64417755918112E-05,0.17578125,0,0
-2.09486843232298E-05,-3.34055039274972E-05,0.17578125,0,0
-2.15964209928643E-05,-2.51791407208657E-05,0.17578125,0,0
-2.29864963330328E-05,-1.51447411553818E-05,0.17578125,0,0
-2.4652546926518E-05,-1.37459346660762E-06,0.17578125,0,0
-2.53107791650109E-05,1.14127979031764E-05,0.17578125,0,0
-2.489398320904E-05,1.88316571438918E-05,0.17578125,0,0
-1.97380359168164E-05,1.5434032320627E-05,0.17578125,0,0
-2.8589465728146E-05,3.10308350890409E-05,0.17578125,0,0
-2.26515439862851E-05,3.20854451274499E-05,0.17578125,0,0
-2.62765170191415E-05,4.49146282335278E-05,0.17578125,0,0
-1.97241879504872E-05,5.66594389965758E-05,0.17578125,0,0
-2.26159208978061E-05,3.58530924131628E-05,0.17578125,0,0
-2.24271407205379E-05,1.85365643119439E-05,0.17578125,0,0
-2.52652389463037E-05,3.6414905480342E-05,0.17578125,0,0
-2.45264109253185E-05,3.74617920897435E-05,0.17578125,0,0
-2.43251852225512E-05,3.94736780435778E-05,0.17578125,0,0
-2.54745700658532E-05,5.53858699277043E-05,0.17578125,0,0
-2.58026102528675E-05,5.28197087987792E-05,0.17578125,0,0
-2.61560544458916E-05,4.4713120587403E-05,0.17578125,0,0
-2.31561971304473E-05,5.06708929606248E-05,0.17578125,0,0
-2.22430899157189E-05,4.80254384456202E-05,0.17578125,0,0
-1.97497192857554E-05,2.70647924480727E-05,0.17578125,0,0
-1.97998797375476E-05,1.33983648993308E-05,0.17578125,0,0
-1.77569945662981E-05,1.07759105958394E-05,0.17578125,0,0
-1.88178528333083E-05,1.0381070751464E-05,0.17578125,0,0
-2.02714054466924E-05,5.45705461263424E-06,0.17578125,0,0
-2.29238376050489E-05,-2.37676598402459E-08,0.17578125,0,0
-2.20566980715375E-05,-6.61704871163238E-06,0.17578125,0,0
-2.1865802409593E-05,-1.17723193397978E-05,0.17578125,0,0
-2.29989182116697E-05,-1.46484471770236E-05,0.17578125,0,0
-2.64049849647563E-05,-1.54132703755749E-05,0.17578125,0,0
-2.71461976808496E-05,-1.88129415619187E-05,0.17578125,0,0
-2.52453792199958E-05,-2.28342996706488E-05,0.17578125,0,0
-1.98959260160336E-05,-1.66552090377081E-05,0.17578125,0,0
-2.92869281111052E-05,-1.3239284271549E-05,0.17578125,0,0
-2.28250373766059E-05,-2.09015161090065E-06,0.17578125,0,0
-2.61497243627673E-05,1.5284790606529E-06,0.17578125,0,0
-2.10203888855176E-05,2.6334562789998E-05,0.17578125,0,0
-2.42191472352715E-05,7.17315879228408E-06,0.17578125,0,0
-2.30664882110432E-05,-4.32172919317964E-06,0.17578125,0,0
-2.44195689447224E-05,1.34173487822409E-05,0.17578125,0,0
-2.36663181567565E-05,1.97813460545149E-05,0.17578125,0,0
-2.32121237786487E-05,2.33442478929646E-05,0.17578125,0,0
-2.29659253818681E-05,3.8644782762276E-05,0.17578125,0,0
-2.26914780796506E-05,3.84378545277286E-05,0.17578125,0,0
-2.44358670897782E-05,2.99907660519239E-05,0.17578125,0,0
-2.36850682995282E-05,3.86141036869958E-05,0.17578125,0,0
-2.48666510742623E-05,3.84504928661045E-05,0.17578125,0,0
-2.4714336177567E-05,2.55636496149236E-05,0.17578125,0,0
-2.74469111900544E-05,1.34087504193303E-05,0.17578125,0,0
-2.90359748760238E-05,1.32639916046173E-05,0.17578125,0,0
-3.17565354635008E-05,1.24709249575972E-05,0.17578125,0,0
-3.01326872431673E-05,1.02761587186251E-05,0.17578125,0,0
-2.71784683718579E-05,5.70109023101395E-06,0.17578125,0,0
-2.28941225941526E-05,4.14700070905383E-06,0.17578125,0,0
-2.30675886996323E-05,9.95841560325061E-07,0.17578125,0,0
-2.46987983700819E-05,-4.02360910811694E-06,0.17578125,0,0
-2.50013963523088E-05,-1.16488499770639E-05,0.17578125,0,0
-2.27389227802632E-05,-1.58504899445688E-05,0.17578125,0,0
-2.2397040083888E-05,-1.5076912859513E-05,0.17578125,0,0
-2.11176229640841E-05,-9.42643964663148E-06,0.17578125,0,0
-3.18192469421774E-05,-6.61321200823295E-06,0.17578125,0,0
-2.61835866695037E-05,-7.30847295926651E-06,0.17578125,0,0
-3.09912575175986E-05,-1.28706005853019E-05,0.17578125,0,0
-2.64212048932677E-05,-3.71895254147603E-07,0.17578125,0,0
-2.93423909170087E-05,-2.48200885835104E-05,0.17578125,0,0
-2.63723104581004E-05,-3.88757580367383E-05,0.17578125,0,0
-2.54959013545886E-05,-1.93512278201524E-05,0.17578125,0,0
-2.34921044466319E-05,-1.63280910783214E-05,0.17578125,0,0
-2.25912117457483E-05,-1.61982970894314E-05,0.17578125,0,0
-2.22296512220055E-05,-9.05359343050804E-07,0.17578125,0,0
-2.15012623812072E-05,8.04898050432712E-08,0.17578125,0,0
-2.30194564210251E-05,-3.88604712497909E-06,0.17578125,0,0
-2.26058273256058E-05,1.54861500050174E-05,0.17578125,0,0
-2.45366099989042E-05,3.0149854865158E-05,0.17578125,0,0
-2.56380153587088E-05,2.49015065492131E-05,0.17578125,0,0
-2.92450022243429E-05,1.45879830597551E-05,0.17578125,0,0
-2.85228379652835E-05,1.49016805153224E-05,0.17578125,0,0
-2.7025127565139E-05,2.02012925001327E-05,0.17578125,0,0
-2.37165168073261E-05,2.82201890513534E-05,0.17578125,0,0
-2.42705427808687E-05,3.46279448422138E-05,0.17578125,0,0
-2.42289333982626E-05,3.94581365981139E-05,0.17578125,0,0
-2.30593595915707E-05,4.05170903832186E-05,0.17578125,0,0
-2.05416690732818E-05,3.95150891563389E-05,0.17578125,0,0
-2.02168303076178E-05,3.84380145987961E-05,0.17578125,0,0
-2.16156586247962E-05,3.79407101718243E-05,0.17578125,0,0
-2.32803831750061E-05,3.41039340128191E-05,0.17578125,0,0
-1.71639985637739E-05,1.81284085556399E-05,0.17578125,0,0
-2.13500170502812E-05,2.53965372394305E-05,0.17578125,0,0
-1.39477770062513E-05,1.27344956126763E-05,0.17578125,0,0
-2.0395662431838E-05,1.91236922546523E-05,0.17578125,0,0
-1.72241489053704E-05,2.36832220252836E-05,0.17578125,0,0
-1.96904638869455E-05,4.16221791965654E-06,0.17578125,0,0
-1.72627387655666E-05,-1.54197714437032E-05,0.17578125,0,0
-1.8201597413281E-05,-1.43477006986359E-06,0.17578125,0,0
-1.80174138222355E-05,-1.02341318779509E-05,0.17578125,0,0
-1.99114892893704E-05,-2.18073091673432E-05,0.17578125,0,0
-2.21992559090722E-05,-1.97937733901199E-05,0.17578125,0,0
-2.22385788219981E-05,-3.14924509439152E-05,0.17578125,0,0
-2.12391059903894E-05,-3.81722202291712E-05,0.17578125,0,0
-1.76222292793682E-05,-1.97183999262052E-05,0.17578125,0,0
-1.74980650626821E-05,-4.36004984294414E-06,0.17578125,0,0
-1.66507779795211E-05,-1.30288717627991E-05,0.17578125,0,0
-1.87923997145845E-05,-1.92937532119686E-05,0.17578125,0,0
-1.96768705791328E-05,-1.51127214849112E-05,0.17578125,0,0
-2.21722493733978E-05,-3.83932501790696E-06,0.17578125,0,0
-2.15777781704674E-05,4.9515338105266E-06,0.17578125,0,0
-2.16365642700111E-05,1.55914895003662E-05,0.17578125,0,0
-2.04861171368975E-05,2.3344957298832E-05,0.17578125,0,0
-2.0051153114764E-05,3.04046498058597E-05,0.17578125,0,0
-1.91650015040068E-05,3.51277012669016E-05,0.17578125,0,0
-2.09627560252557E-05,3.79280645574909E-05,0.17578125,0,0
-2.35661900660489E-05,3.80392120860051E-05,0.17578125,0,0
-2.46021609200398E-05,3.9164846384665E-05,0.17578125,0,0
-1.93487157957861E-05,3.74316550733056E-05,0.17578125,0,0
-2.66740353254136E-05,6.26893161097541E-05,0.17578125,0,0
-1.96877081179991E-05,4.99988200317603E-05,0.17578125,0,0
-2.47226926148869E-05,6.06887078902218E-05,0.17578125,0,0
-2.08016917895293E-05,6.42256272840314E-05,0.17578125,0,0
-2.44938637479208E-05,4.31133958045393E-05,0.17578125,0,0
-2.28388853429351E-05,2.03520176000893E-05,0.17578125,0,0
-2.40974550251849E-05,3.11436051561031E-05,0.17578125,0,0
-2.3522125047748E-05,1.79396411112975E-05,0.17578125,0,0
-2.30372806981904E-05,1.73538592207478E-06,0.17578125,0,0
-2.2622059987043E-05,2.60304886978702E-06,0.17578125,0,0
-2.17849410546478E-05,-7.63988100516144E-06,0.17578125,0,0
-2.31517897191225E-05,-1.68004535225919E-05,0.17578125,0,0
-2.32344027608633E-05,-1.12311226985184E-05,0.17578125,0,0
-2.48764754360309E-05,-9.40359041123884E-06,0.17578125,0,0
-2.42812129727099E-05,-2.93795001198305E-05,0.17578125,0,0
-2.63801393884933E-05,-4.31914486398455E-05,0.17578125,0,0
-2.57151841651648E-05,-4.4616903323913E-05,0.17578125,0,0
-2.59113876381889E-05,-3.55920892616268E-05,0.17578125,0,0
-2.35507723118644E-05,-2.97655205940828E-05,0.17578125,0,0
-2.282804416609E-05,-2.21712762140669E-05,0.17578125,0,0
-2.25479616347002E-05,-1.68977221619571E-05,0.17578125,0,0
-2.44016391661717E-05,-9.76975115918322E-06,0.17578125,0,0
-2.47789903369267E-05,-2.24276459448447E-06,0.17578125,0,0
-2.57879019045504E-05,8.82157928572269E-06,0.17578125,0,0
-2.68547864834545E-05,2.00771228264784E-05,0.17578125,0,0
-2.68178573605837E-05,2.84973430098034E-05,0.17578125,0,0
-1.98845955310389E-05,2.76686860161135E-05,0.17578125,0,0
-2.9169519621064E-05,4.62227944808546E-05,0.17578125,0,0
-2.48958476731787E-05,3.62892278644722E-05,0.17578125,0,0
-2.94121673505288E-05,4.82692994410172E-05,0.17578125,0,0
-2.25038602366112E-05,5.96456229686737E-05,0.17578125,0,0
-2.64385926129762E-05,4.55368754046503E-05,0.17578125,0,0
-2.72147699433845E-05,3.3121195883723E-05,0.17578125,0,0
-3.04121458611917E-05,5.4075600928627E-05,0.17578125,0,0
-3.01215259241872E-05,5.12046608491801E-05,0.17578125,0,0
-2.9494074624381E-05,4.56645211670548E-05,0.17578125,0,0
-2.77064318652265E-05,5.55408405489288E-05,0.17578125,0,0
-2.52572644967586E-05,4.704426828539E-05,0.17578125,0,0
-2.63841884589056E-05,3.39109574269969E-05,0.17578125,0,0
-2.57509309449233E-05,3.93636000808328E-05,0.17578125,0,0
-2.62721932813292E-05,4.40329895354807E-05,0.17578125,0,0
-2.43135418713791E-05,2.66114748228574E-05,0.17578125,0,0
-2.45749179157428E-05,9.71516965364572E-06,0.17578125,0,0
-2.28519329539267E-05,1.32899276650278E-06,0.17578125,0,0
-2.34924245887669E-05,-1.97732305196041E-07,0.17578125,0,0
-2.15315776586067E-05,-6.48460581942345E-06,0.17578125,0,0
-2.06750064535299E-05,-1.0858033419936E-05,0.17578125,0,0
-1.98670641111676E-05,-1.24825810416951E-05,0.17578125,0,0
-2.15410000237171E-05,-1.33829989863443E-05,0.17578125,0,0
-2.28614553634543E-05,-1.90965056390269E-05,0.17578125,0,0
-2.45430874201702E-05,-2.40773351833923E-05,0.17578125,0,0
-2.61366203631042E-05,-2.43867270910414E-05,0.17578125,0,0
-2.73730056505883E-05,-1.61593798111426E-05,0.17578125,0,0
-2.19308822124731E-05,-1.1239307013966E-06,0.17578125,0,0
-3.11450967274141E-05,8.4100120147923E-06,0.17578125,0,0
-2.47684529313119E-05,1.29077370729647E-05,0.17578125,0,0
-3.02055104839383E-05,2.15530253626639E-05,0.17578125,0,0
-2.2839254597784E-05,4.46862213721033E-05,0.17578125,0,0
-2.34351173276082E-05,2.87936327367788E-05,0.17578125,0,0
-2.03149957087589E-05,2.18730401684297E-05,0.17578125,0,0
-2.17962569877272E-05,4.55712870461866E-05,0.17578125,0,0
-2.13834555324866E-05,4.88925543322694E-05,0.17578125,0,0
-2.25448457058519E-05,4.31116168329027E-05,0.17578125,0,0
-2.27322434511734E-05,4.76602544949856E-05,0.17578125,0,0
-2.0902289179503E-05,3.69091976608615E-05,0.17578125,0,0
-2.10962734854547E-05,2.57440351560945E-05,0.17578125,0,0
-2.06602653634036E-05,4.00349708797876E-05,0.17578125,0,0
-2.40508888964541E-05,4.90732854814269E-05,0.17578125,0,0
-2.52808749792166E-05,3.78658151021227E-05,0.17578125,0,0
-2.80480726360111E-05,2.59445187111851E-05,0.17578125,0,0
-2.7133366529597E-05,2.7697793484549E-05,0.17578125,0,0
-2.83432818832807E-05,3.07049049297348E-05,0.17578125,0,0
-2.70222317340085E-05,2.46585223067086E-05,0.17578125,0,0
-2.58641375694424E-05,1.03462598417536E-05,0.17578125,0,0
-2.43569302256219E-05,-8.61946432451077E-07,0.17578125,0,0
-2.62369012489216E-05,-6.26821974947234E-06,0.17578125,0,0
-2.84402976831188E-05,-9.22827530303039E-06,0.17578125,0,0
-3.22925625368953E-05,-1.2120850442443E-05,0.17578125,0,0
-3.25145119859371E-05,-1.69236118381377E-05,0.17578125,0,0
-3.00119154417189E-05,-2.44043640122982E-05,0.17578125,0,0
-2.19374796870397E-05,-2.24314753722865E-05,0.17578125,0,0
-3.02189873764291E-05,-2.53841571975499E-05,0.17578125,0,0
-2.28042208618717E-05,-2.22332018893212E-05,0.17578125,0,0
-2.91821106657153E-05,-3.03038286801893E-05,0.17578125,0,0
-2.44001512328396E-05,-8.14599934528815E-06,0.17578125,0,0
-2.7534440960153E-05,-2.46488052653149E-05,0.17578125,0,0
-2.507025419618E-05,-3.13063173962291E-05,0.17578125,0,0
-2.69563588517485E-05,-1.39601215778384E-05,0.17578125,0,0
-2.57611500273924E-05,-1.38898240038543E-05,0.17578125,0,0
-2.40851841226686E-05,-1.44815867315629E-05,0.17578125,0,0
-2.30031673709163E-05,1.60090303324978E-06,0.17578125,0,0
-2.1458909031935E-05,7.01417184245656E-06,0.17578125,0,0
-2.22728740482125E-05,7.99371537141269E-06,0.17578125,0,0
-2.11456390388776E-05,3.01381551253144E-05,0.17578125,0,0
-2.26797747018281E-05,4.13842171838041E-05,0.17578125,0,0
-2.17607648664853E-05,3.33708157995716E-05,0.17578125,0,0
-2.25300627789693E-05,2.06582135433564E-05,0.17578125,0,0
-2.13691182580078E-05,2.00427439267514E-05,0.17578125,0,0
-2.28975550271571E-05,1.9723956938833E-05,0.17578125,0,0
-2.0906711142743E-05,2.00227896129945E-05,0.17578125,0,0
-1.97215413209051E-05,1.85914013854926E-05,0.17578125,0,0
-1.81301911652554E-05,1.87506248039426E-05,0.17578125,0,0
-1.94625172298402E-05,1.88824269571342E-05,0.17578125,0,0
-2.13236362469615E-05,2.07636512641329E-05,0.17578125,0,0
-2.45064020418795E-05,1.62741980602732E-05,0.17578125,0,0
-2.61770255747251E-05,5.52180563317961E-06,0.17578125,0,0
-2.5252438717871E-05,-6.16177749179769E-06,0.17578125,0,0
-1.92204497579951E-05,-1.21758930617943E-05,0.17578125,0,0
-2.72622783086263E-05,-1.30825992528116E-05,0.17578125,0,0
-2.13247076317202E-05,-1.34770261865924E-05,0.17578125,0,0
-2.72256293101236E-05,-1.23637846627389E-05,0.17578125,0,0
-2.32219535973854E-05,8.8136821432272E-06,0.17578125,0,0
-2.58666113950312E-05,-1.28139063235722E-05,0.17578125,0,0
-2.44825150730321E-05,-3.094108615187E-05,0.17578125,0,0
-2.60456108662765E-05,-2.06168024305953E-05,0.17578125,0,0
-2.52696390816709E-05,-2.91122123599052E-05,0.17578125,0,0
-2.3768154278514E-05,-4.15238064306322E-05,0.17578125,0,0
-2.25271523959236E-05,-3.41731865773909E-05,0.17578125,0,0
-2.19226949411677E-05,-3.23941712849773E-05,0.17578125,0,0
-2.39980709011434E-05,-3.08299277094193E-05,0.17578125,0,0
-2.37300810113084E-05,-8.93583182914881E-06,0.17578125,0,0
-2.44020648096921E-05,1.88610817986046E-06,0.17578125,0,0
-2.22487724386156E-05,-6.24394260739791E-06,0.17578125,0,0
-2.24461455218261E-05,-1.46882093758904E-05,0.17578125,0,0
-2.15078653127421E-05,-1.08459844341269E-05,0.17578125,0,0
-2.27990622079233E-05,-5.39929806109285E-06,0.17578125,0,0
-2.27058608288644E-05,-9.55789573708898E-07,0.17578125,0,0
-2.51294204645092E-05,1.85026522103726E-06,0.17578125,0,0
-2.72131655947305E-05,7.84302392276004E-06,0.17578125,0,0
-2.88749833998736E-05,1.43204924825113E-05,0.17578125,0,0
-2.77041199296946E-05,2.14279280044138E-05,0.17578125,0,0
-2.6461651941645E-05,2.98836894216947E-05,0.17578125,0,0
-2.58459367614705E-05,3.69559056707658E-05,0.17578125,0,0
-2.5957788238884E-05,3.97940930270124E-05,0.17578125,0,0
-2.08335859497311E-05,3.02215685223928E-05,0.17578125,0,0
-2.96056405204581E-05,4.82950017612893E-05,0.17578125,0,0
-2.28203043661779E-05,3.72140857507475E-05,0.17578125,0,0
-2.88291466858936E-05,5.01576068927534E-05,0.17578125,0,0
-2.53304424404632E-05,5.60876433155499E-05,0.17578125,0,0
-2.86966023850255E-05,3.28607784467749E-05,0.17578125,0,0
-2.6052486646222E-05,5.0751659728121E-06,0.17578125,0,0
-2.62298708548769E-05,1.73856169567443E-05,0.17578125,0,0
-2.46407580561936E-05,9.60352917900309E-06,0.17578125,0,0
-2.34533818002092E-05,2.54415408562636E-06,0.17578125,0,0
-2.23847328015836E-05,1.05705439636949E-05,0.17578125,0,0
-2.25494313781383E-05,2.34251706388022E-06,0.17578125,0,0
-2.49863187491428E-05,-7.1595736699237E-06,0.17578125,0,0
-2.48083288170164E-05,-2.63706624537008E-07,0.17578125,0,0
-2.59198295680108E-05,2.4294417926285E-06,0.17578125,0,0
-2.45181472564582E-05,-1.89021902770037E-05,0.17578125,0,0
-2.42671285377583E-05,-3.61041820724495E-05,0.17578125,0,0
-2.07370085263392E-05,-3.92829751945101E-05,0.17578125,0,0
-2.02364408323774E-05,-2.64255977526773E-05,0.17578125,0,0
-1.85194039659109E-05,-1.43206652865047E-05,0.17578125,0,0
-1.87141358765075E-05,-2.81155871562078E-06,0.17578125,0,0
-1.88508893188555E-05,4.18496256315848E-06,0.17578125,0,0
-2.09405116038397E-05,1.4727014786331E-05,0.17578125,0,0
-2.15755935641937E-05,2.53914186032489E-05,0.17578125,0,0
-2.29952511290321E-05,3.69164044968784E-05,0.17578125,0,0
-2.46433301072102E-05,4.50671468570363E-05,0.17578125,0,0
-2.57018145930488E-05,4.63896212750115E-05,0.17578125,0,0
-2.01622624445008E-05,3.96090508729685E-05,0.17578125,0,0
-2.73121695499867E-05,6.31575603620149E-05,0.17578125,0,0
-1.99330079340143E-05,4.84118318127003E-05,0.17578125,0,0
-2.57802839769283E-05,6.22668594587594E-05,0.17578125,0,0
-1.98587713384768E-05,7.20214884495363E-05,0.17578125,0,0
-2.02713254111586E-05,6.27657209406607E-05,0.17578125,0,0
-1.62234555318719E-05,4.74387634312734E-05,0.17578125,0,0
-1.7134294466814E-05,5.96600766584743E-05,0.17578125,0,0
-1.82315652637044E-05,4.48347745987121E-05,0.17578125,0,0
-2.02723349502776E-05,3.13238451781217E-05,0.17578125,0,0
-2.17007582250517E-05,3.7087458622409E-05,0.17578125,0,0
-2.10833222809015E-05,2.77457274933113E-05,0.17578125,0,0
-2.16568387259031E-05,1.73613861988997E-05,0.17578125,0,0
-2.05056949198479E-05,2.23597817239352E-05,0.17578125,0,0
-2.14536448766012E-05,2.34020881180186E-05,0.17578125,0,0
-1.95025986613473E-05,1.7805929246606E-06,0.17578125,0,0
-1.95985521713737E-05,-1.49590150613221E-05,0.17578125,0,0
-1.82773601409281E-05,-2.39081819017883E-05,0.17578125,0,0
-2.04431125894189E-05,-2.26392367039807E-05,0.17578125,0,0
-2.13160801649792E-05,-2.58050858974457E-05,0.17578125,0,0
-2.22217840928352E-05,-3.00466763292206E-05,0.17578125,0,0
-1.9524075469235E-05,-3.84938502975274E-05,0.17578125,0,0
-1.74748038261896E-05,-4.40666699432768E-05,0.17578125,0,0
-1.69746217579814E-05,-4.26264086854644E-05,0.17578125,0,0
-1.95532738871407E-05,-3.42456332873553E-05,0.17578125,0,0
-2.33588252740446E-05,-2.99940420518396E-05,0.17578125,0,0
-2.65490780293476E-05,-2.36065752687864E-05,0.17578125,0,0
-2.11114420380909E-05,-8.96590063348413E-06,0.17578125,0,0
-2.76191367447609E-05,2.7919218155148E-06,0.17578125,0,0
-1.81682571565034E-05,1.77917681867257E-05,0.17578125,0,0
-2.42288369918242E-05,2.44361526711145E-05,0.17578125,0,0
-2.17261058423901E-05,4.84070988022722E-05,0.17578125,0,0
-2.61069817497628E-05,3.06195106531959E-05,0.17578125,0,0
-2.32458114624023E-05,1.84509426617296E-05,0.17578125,0,0
-2.49383901973488E-05,3.30172733811196E-05,0.17578125,0,0
-2.51912642852403E-05,3.5455417673802E-05,0.17578125,0,0
-2.55329105129931E-05,3.78945769625716E-05,0.17578125,0,0
-2.43757149291923E-05,5.30148718098644E-05,0.17578125,0,0
-2.2378500943887E-05,5.16343607159797E-05,0.17578125,0,0
-2.3815659005777E-05,4.46671001554932E-05,0.17578125,0,0
-2.41731941059697E-05,5.67457609577104E-05,0.17578125,0,0
-2.65946691797581E-05,5.96997997490689E-05,0.17578125,0,0
-2.53774524026085E-05,4.59343573311344E-05,0.17578125,0,0
-2.59683274634881E-05,3.06073779938743E-05,0.17578125,0,0
-2.36394607782131E-05,2.58464133366942E-05,0.17578125,0,0
-2.31698613788467E-05,2.22788967221277E-05,0.17578125,0,0
-2.09683457796928E-05,2.00795348064275E-05,0.17578125,0,0
-2.09338450076757E-05,1.53642977238633E-05,0.17578125,0,0
-1.84973869181704E-05,8.30848330224399E-06,0.17578125,0,0
-1.73743483173894E-05,-3.70098268831498E-06,0.17578125,0,0
-1.76161393028451E-05,-1.62205178639852E-05,0.17578125,0,0
-1.91791932593333E-05,-2.4620629119454E-05,0.17578125,0,0
-2.04531097551808E-05,-2.58704112638952E-05,0.17578125,0,0
-2.16426651604706E-05,-2.4003442376852E-05,0.17578125,0,0
-1.75921122718137E-05,-1.7838832718553E-05,0.17578125,0,0
-2.54607803071849E-05,-2.16638763959054E-05,0.17578125,0,0
-2.04499683604809E-05,-1.72723666764796E-05,0.17578125,0,0
-2.56842267845059E-05,-1.1145306416438E-05,0.17578125,0,0
-2.27429500228027E-05,1.49591469380539E-05,0.17578125,0,0
-2.61815148405731E-05,-5.65399341212469E-06,0.17578125,0,0
-2.43900212808512E-05,-1.43785746331559E-05,0.17578125,0,0
-2.32989423238905E-05,8.2916121755261E-06,0.17578125,0,0
-2.16975204239134E-05,1.23097042887821E-05,0.17578125,0,0
-2.22534672502661E-05,1.30257349155727E-05,0.17578125,0,0
-2.40779882005882E-05,2.88974479190074E-05,0.17578125,0,0
-2.5795423425734E-05,2.99488619930344E-05,0.17578125,0,0
-2.78053703368641E-05,2.3091215552995E-05,0.17578125,0,0
-2.67620653175982E-05,3.63805811502971E-05,0.17578125,0,0
-2.69974898401415E-05,4.2185107304249E-05,0.17578125,0,0
-2.57974406849826E-05,3.20458493661135E-05,0.17578125,0,0
-2.58369891525945E-05,2.12384038604796E-05,0.17578125,0,0
-2.36032719840296E-05,2.38903739955276E-05,0.17578125,0,0
-2.33124610531377E-05,2.93255761789624E-05,0.17578125,0,0
-2.21853279072093E-05,3.31876508425921E-05,0.17578125,0,0
-2.35275983868632E-05,3.18602615152486E-05,0.17578125,0,0
-2.27829787036171E-05,3.20169237966184E-05,0.17578125,0,0
-2.24935884034494E-05,3.0220942790038E-05,0.17578125,0,0
-2.35825009440305E-05,2.5221896066796E-05,0.17578125,0,0
-2.61663790297462E-05,1.86300021596253E-05,0.17578125,0,0
-2.66559090960072E-05,1.1121576790174E-05,0.17578125,0,0
-2.59339758486021E-05,1.70763235018967E-06,0.17578125,0,0
-2.08199198823422E-05,-4.82620316688553E-06,0.17578125,0,0
-2.84341022052104E-05,-4.2102378756681E-06,0.17578125,0,0
-1.98268171516247E-05,-1.12188781713485E-05,0.17578125,0,0
-2.3659433281864E-05,-1.61456227942836E-05,0.17578125,0,0
-1.88391513802344E-05,-4.36286472904612E-06,0.17578125,0,0
-2.34758372243959E-05,-2.6839228667086E-05,0.17578125,0,0
-2.06713593797758E-05,-4.37868002336472E-05,0.17578125,0,0
-2.13474904739996E-05,-2.90336083708098E-05,0.17578125,0,0
-2.20573347178288E-05,-3.06120127788745E-05,0.17578125,0,0
-2.36737123486819E-05,-3.26574227074161E-05,0.17578125,0,0
-2.4808488888084E-05,-2.13704952329863E-05,0.17578125,0,0
-2.48972719418816E-05,-2.46130784944398E-05,0.17578125,0,0
-2.6095925932168E-05,-2.60831602645339E-05,0.17578125,0,0
-2.3006361516309E-05,-1.93717528418347E-06,0.17578125,0,0
-2.19702742469963E-05,1.45909525599563E-05,0.17578125,0,0
-2.06830882234499E-05,9.63840648182668E-06,0.17578125,0,0
-2.33633909374475E-05,5.46397859579884E-06,0.17578125,0,0
-2.38696757151047E-05,1.31408423840185E-05,0.17578125,0,0
-2.58815634879284E-05,1.82917210622691E-05,0.17578125,0,0
-2.5579513021512E-05,1.72583677340299E-05,0.17578125,0,0
-2.65337639575591E-05,1.63698496180587E-05,0.17578125,0,0
-2.56644725595834E-05,1.96170985873323E-05,0.17578125,0,0
-2.57601168414112E-05,2.6005103791249E-05,0.17578125,0,0
-2.43712383962702E-05,3.11599069391377E-05,0.17578125,0,0
-2.38925895246211E-05,3.22270425385796E-05,0.17578125,0,0
-2.48600736085791E-05,3.32168747263495E-05,0.17578125,0,0
-2.64211212197552E-05,3.47704590240028E-05,0.17578125,0,0
-2.35744100791635E-05,2.9454557079589E-05,0.17578125,0,0
-3.47702261933591E-05,4.49725375801791E-05,0.17578125,0,0
-2.71953394985758E-05,2.48591259150999E-05,0.17578125,0,0
-3.17628146149218E-05,2.73974128504051E-05,0.17578125,0,0
-2.68653802777408E-05,3.19585342367645E-05,0.17578125,0,0
-3.04033383144997E-05,1.22517139971023E-05,0.17578125,0,0
-2.64214595517842E-05,-1.02878047982813E-05,0.17578125,0,0
-2.54488732025493E-05,5.71654936720734E-06,0.17578125,0,0
-2.41866273427149E-05,2.16909393202513E-06,0.17578125,0,0
-2.40550471062306E-05,-4.74208400191856E-06,0.17578125,0,0
-2.48011547228089E-05,1.25222572933126E-06,0.17578125,0,0
-2.61452278209617E-05,-6.06941239311709E-06,0.17578125,0,0
-2.86716876871651E-05,-1.29267491502105E-05,0.17578125,0,0
-2.6294743292965E-05,-2.07144944397442E-06,0.17578125,0,0
-2.56072544289054E-05,7.3591240834503E-06,0.17578125,0,0
-2.38360898947576E-05,-3.40865904036036E-06,0.17578125,0,0
-2.52588233706774E-05,-1.26186205307022E-05,0.17578125,0,0
-2.41298621403985E-05,-1.46656502693077E-05,0.17578125,0,0
-2.53004909609444E-05,-5.54289681531372E-06,0.17578125,0,0
-2.46320541918976E-05,3.11739472635963E-06,0.17578125,0,0
-2.53301877819467E-05,1.29178924908047E-05,0.17578125,0,0
-2.49311997322366E-05,1.91453382285545E-05,0.17578125,0,0
-2.6078558221343E-05,2.53993548540166E-05,0.17578125,0,0
-2.57798565144185E-05,2.95650443149498E-05,0.17578125,0,0
-2.54318711085944E-05,3.24052816722542E-05,0.17578125,0,0
-2.4351309548365E-05,3.25831133523025E-05,0.17578125,0,0
-2.36784035223536E-05,3.48830471921247E-05,0.17578125,0,0
-2.03143899852876E-05,2.57247702393215E-05,0.17578125,0,0
-2.95930858555948E-05,3.85593557439279E-05,0.17578125,0,0
-2.18857039726572E-05,2.80640924756881E-05,0.17578125,0,0
-2.53651924140286E-05,4.61248346255161E-05,0.17578125,0,0
-2.13693583646091E-05,5.98737460677512E-05,0.17578125,0,0
-2.5033707061084E-05,4.38385868619662E-05,0.17578125,0,0
-2.42414680542424E-05,2.60032375081209E-05,0.17578125,0,0
-2.56610564974835E-05,3.92569199902937E-05,0.17578125,0,0
-2.46597574005136E-05,2.65114213107154E-05,0.17578125,0,0
-2.22768940147944E-05,1.15052935143467E-05,0.17578125,0,0
-2.03746403713012E-05,1.31752267407137E-05,0.17578125,0,0
-1.97934259631438E-05,1.86661384304898E-06,0.17578125,0,0
-2.13823332160246E-05,-9.57332667894661E-06,0.17578125,0,0
-2.06898021133384E-05,-2.93384323413193E-06,0.17578125,0,0
-2.17590404645307E-05,3.52111896972929E-07,0.17578125,0,0
-2.13628500205232E-05,-1.89435013453476E-05,0.17578125,0,0
-2.27556429308606E-05,-3.41312916134484E-05,0.17578125,0,0
-2.13536986848339E-05,-3.57639037247282E-05,0.17578125,0,0
-2.11876158573432E-05,-2.68985604634508E-05,0.17578125,0,0
-1.95916945813224E-05,-2.67550731223309E-05,0.17578125,0,0
-1.98617708520032E-05,-3.23828644468449E-05,0.17578125,0,0
-1.87458426808007E-05,-3.66742169717327E-05,0.17578125,0,0
-2.0472898540902E-05,-3.19575374305714E-05,0.17578125,0,0
-2.37416134041268E-05,-2.63286583503941E-05,0.17578125,0,0
-2.73356217803666E-05,-2.03512390726246E-05,0.17578125,0,0
-2.81409302260727E-05,-1.17061899800319E-05,0.17578125,0,0
-2.7311070880387E-05,1.04435365244626E-07,0.17578125,0,0
-2.20504971366609E-05,7.96156200522091E-06,0.17578125,0,0
-3.01702457363717E-05,2.07592329388717E-05,0.17578125,0,0
-2.06536024052184E-05,2.63463916780893E-05,0.17578125,0,0
-2.63740948867053E-05,4.44345569121651E-05,0.17578125,0,0
-2.31387839448871E-05,6.69041473884135E-05,0.17578125,0,0
-2.79666055575944E-05,4.61009403807111E-05,0.17578125,0,0
-2.67515952145914E-05,2.62015328189591E-05,0.17578125,0,0
-2.75228103419067E-05,4.06510116590653E-05,0.17578125,0,0
-2.68772691924823E-05,3.67345528502483E-05,0.17578125,0,0
-2.7333775506122E-05,3.2801730412757E-05,0.17578125,0,0
-2.6815352612175E-05,4.62466305179987E-05,0.17578125,0,0
-2.51855326496297E-05,4.44967226940207E-05,0.17578125,0,0
-2.54006990871858E-05,3.94063063140493E-05,0.17578125,0,0
-2.32700567721622E-05,5.0439361075405E-05,0.17578125,0,0
-2.44350067077903E-05,5.14222483616322E-05,0.17578125,0,0
-2.43692884396296E-05,2.95079989882652E-05,0.17578125,0,0
-2.57295832852833E-05,7.51513471186627E-06,0.17578125,0,0
-2.37374279095093E-05,-1.2523391887953E-06,0.17578125,0,0
-2.38510929193581E-05,-4.3230470510025E-06,0.17578125,0,0
-2.2643673219136E-05,-1.20531703942106E-05,0.17578125,0,0
-2.39088149101008E-05,-2.19439134525601E-05,0.17578125,0,0
-2.48364340222906E-05,-2.93709308607504E-05,0.17578125,0,0
-2.58096351899439E-05,-3.40295882779174E-05,0.17578125,0,0
-2.35426814469974E-05,-3.91541143471841E-05,0.17578125,0,0
-2.21475456783082E-05,-4.25067919422872E-05,0.17578125,0,0
-2.07925695576705E-05,-4.3201489461353E-05,0.17578125,0,0
-2.03270155907376E-05,-4.30890431744047E-05,0.17578125,0,0
-1.60969411808765E-05,-3.59883197234012E-05,0.17578125,0,0
-2.31989852181869E-05,-4.20263240812346E-05,0.17578125,0,0
-1.87641217053169E-05,-2.0779265469173E-05,0.17578125,0,0
-2.24885734496638E-05,-1.55450143211056E-05,0.17578125,0,0
-1.90138598554768E-05,1.40975153044565E-05,0.17578125,0,0
-2.31053199968301E-05,-5.93996401221375E-06,0.17578125,0,0
-2.30447039939463E-05,-7.51244169805432E-06,0.17578125,0,0
-2.41742854996119E-05,1.67949310707627E-05,0.17578125,0,0
-2.24314444494667E-05,2.43996237259125E-05,0.17578125,0,0
-2.13608564081369E-05,2.62728190136841E-05,0.17578125,0,0
-2.1856751118321E-05,3.69131521438248E-05,0.17578125,0,0
-2.23790157178883E-05,3.17922385875136E-05,0.17578125,0,0
-2.21465634240303E-05,2.11110891541466E-05,0.17578125,0,0
-1.87555033335229E-05,3.47109089489095E-05,0.17578125,0,0
-1.84971213457175E-05,3.93861846532673E-05,0.17578125,0,0
-1.94642034330172E-05,3.11725125357043E-05,0.17578125,0,0
-2.33928785746684E-05,2.15959480556194E-05,0.17578125,0,0
-2.39117507589981E-05,2.69474712695228E-05,0.17578125,0,0
-2.41144971369067E-05,3.11247931676917E-05,0.17578125,0,0
-2.28634453378618E-05,3.70197049051058E-05,0.17578125,0,0
-2.43343638430815E-05,3.97635485569481E-05,0.17578125,0,0
-2.391314774286E-05,4.22062876168638E-05,0.17578125,0,0
-2.28102799155749E-05,3.61252059519757E-05,0.17578125,0,0
-2.15953041333705E-05,2.92221848212648E-05,0.17578125,0,0
-2.12827126233606E-05,2.19225894397823E-05,0.17578125,0,0
-2.35825627896702E-05,1.58340390044032E-05,0.17578125,0,0
-2.87654893327272E-05,8.2293863670202E-06,0.17578125,0,0
-2.40852841670858E-05,-4.21762433688855E-06,0.17578125,0,0
-3.0449979021796E-05,-1.02697204056312E-05,0.17578125,0,0
-1.71437877725111E-05,-2.09888912650058E-05,0.17578125,0,0
-2.28226144827204E-05,-1.6874084394658E-05,0.17578125,0,0
-1.90549762919545E-05,-1.67183975463558E-06,0.17578125,0,0
-2.39555465668673E-05,-2.75977708952269E-05,0.17578125,0,0
-2.11359420063673E-05,-4.98693734698463E-05,0.17578125,0,0
-2.10929865716025E-05,-3.52474053215701E-05,0.17578125,0,0
-1.88676167454105E-05,-3.30328475683928E-05,0.17578125,0,0
-1.83523407031316E-05,-2.67401792370947E-05,0.17578125,0,0
-1.92042716662399E-05,-4.40832764070365E-06,0.17578125,0,0
-2.00789654627442E-05,2.41426096181385E-06,0.17578125,0,0
-2.2247246306506E-05,3.17399735649815E-06,0.17578125,0,0
-2.04928182938602E-05,2.04261086764745E-05,0.17578125,0,0
-2.07928369491128E-05,2.83438530459534E-05,0.17578125,0,0
-1.89683578355471E-05,1.85559383680811E-05,0.17578125,0,0
-2.12855829886394E-05,1.303179669776E-05,0.17578125,0,0
-2.13855510082794E-05,2.07396005862392E-05,0.17578125,0,0
-2.27519522013608E-05,3.0469347620965E-05,0.17578125,0,0
-2.08061537705362E-05,3.52783972630277E-05,0.17578125,0,0
-2.04320476768771E-05,3.5657241824083E-05,0.17578125,0,0
-1.86488523468142E-05,3.40698279615026E-05,0.17578125,0,0
-1.93582618521759E-05,3.63440522050951E-05,0.17578125,0,0
-1.98890829778975E-05,4.266045652912E-05,0.17578125,0,0
-2.16746648220578E-05,4.82812683912925E-05,0.17578125,0,0
-2.2306227037916E-05,4.97723813168705E-05,0.17578125,0,0
-2.22823982767295E-05,4.81478418805636E-05,0.17578125,0,0
-1.92320439964533E-05,3.50349582731724E-05,0.17578125,0,0
-2.8038191885571E-05,5.27810661878902E-05,0.17578125,0,0
-2.26105948968325E-05,3.23508938890882E-05,0.17578125,0,0
-2.81769534922205E-05,3.90609675378073E-05,0.17578125,0,0
-2.59212338278303E-05,4.01389370381366E-05,0.17578125,0,0
-3.07443006022368E-05,1.54263052536407E-05,0.17578125,0,0
-3.15844226861373E-05,-1.36847420435515E-05,0.17578125,0,0
-3.53900286427233E-05,-4.70923214379582E-06,0.17578125,0,0
-3.48657376889605E-05,-1.44448031278444E-05,0.17578125,0,0
-3.26058216160163E-05,-2.19913927139714E-05,0.17578125,0,0
-3.10708019242156E-05,-1.38194291139371E-05,0.17578125,0,0
-2.96982670988655E-05,-2.16984062717529E-05,0.17578125,0,0
-2.98431241390063E-05,-2.97261522064218E-05,0.17578125,0,0
-2.86151371255983E-05,-1.87116602319293E-05,0.17578125,0,0
-2.96575162792578E-05,-6.52471544526634E-06,0.17578125,0,0
-2.79150190181099E-05,-1.35982700157911E-05,0.17578125,0,0
-2.75864749710308E-05,-1.68814112839755E-05,0.17578125,0,0
-2.61371478700312E-05,-1.24424213936436E-05,0.17578125,0,0
-2.79276300716447E-05,2.04193455033419E-07,0.17578125,0,0
-2.8551692594192E-05,5.16607406098046E-06,0.17578125,0,0
-3.09343959088437E-05,8.36875551613048E-06,0.17578125,0,0
-3.16417099384125E-05,1.37980186991626E-05,0.17578125,0,0
-3.14333665301092E-05,2.68762505584164E-05,0.17578125,0,0
-2.84860470856074E-05,3.59275400114711E-05,0.17578125,0,0
-2.59051466855453E-05,4.17965165979695E-05,0.17578125,0,0
-2.39039436564781E-05,4.43652825197205E-05,0.17578125,0,0
-2.46252839133376E-05,4.33329878433142E-05,0.17578125,0,0
-2.11007045436418E-05,3.43309511663392E-05,0.17578125,0,0
-2.84182333416538E-05,5.54512153030373E-05,0.17578125,0,0
-1.96838518604636E-05,4.74279149784707E-05,0.17578125,0,0
-2.64307527686469E-05,6.63019163766876E-05,0.17578125,0,0
-2.34510098380269E-05,7.63261341489851E-05,0.17578125,0,0
-2.64882364717778E-05,5.66099370189477E-05,0.17578125,0,0
-2.34738126891898E-05,2.76919363386696E-05,0.17578125,0,0
-2.37291587836808E-05,3.13094169541728E-05,0.17578125,0,0
-2.32923721341649E-05,1.62117885338375E-05,0.17578125,0,0
-2.49249333137413E-05,5.28224472873262E-06,0.17578125,0,0
-2.68038347712718E-05,9.8794707810157E-06,0.17578125,0,0
-2.78860570688266E-05,-2.02643559532589E-06,0.17578125,0,0
-2.96271955448901E-05,-1.35001746457419E-05,0.17578125,0,0
-2.74853427981725E-05,-5.92176502323127E-06,0.17578125,0,0
-2.70449127128813E-05,-2.44773832491774E-06,0.17578125,0,0
-2.5534072847222E-05,-2.42311307374621E-05,0.17578125,0,0
-2.69247557298513E-05,-4.09575040976051E-05,0.17578125,0,0
-2.53084872383624E-05,-4.69548322143964E-05,0.17578125,0,0
-2.44926177401794E-05,-4.31195257988293E-05,0.17578125,0,0
-2.15979416680057E-05,-4.16861548728775E-05,0.17578125,0,0
-2.28493117901962E-05,-3.57231328962371E-05,0.17578125,0,0
-2.41744110098807E-05,-2.82134660665179E-05,0.17578125,0,0
-2.57738865911961E-05,-1.94603853742592E-05,0.17578125,0,0
-2.49844215431949E-05,-1.77435758814681E-05,0.17578125,0,0
-2.42028199863853E-05,-1.46019501698902E-05,0.17578125,0,0
-2.42705827986356E-05,-6.54932546240161E-06,0.17578125,0,0
-2.55388931691414E-05,2.35095126299711E-06,0.17578125,0,0
-2.08401706913719E-05,1.30558910313994E-05,0.17578125,0,0
-2.77560029644519E-05,3.3774776966311E-05,0.17578125,0,0
-1.8639786503627E-05,3.74206392734777E-05,0.17578125,0,0
-2.23918996198336E-05,4.58443246316165E-05,0.17578125,0,0
-1.65287765412359E-05,5.96558929828461E-05,0.17578125,0,0
-2.0123485228396E-05,3.63527578883804E-05,0.17578125,0,0
-1.81215145858005E-05,1.78838290594285E-05,0.17578125,0,0
-1.91239087143913E-05,3.12129195663147E-05,0.17578125,0,0
-1.79963335540378E-05,2.76695936918259E-05,0.17578125,0,0
-1.6673004211043E-05,2.39709625020623E-05,0.17578125,0,0
-1.59050468937494E-05,3.77709584427066E-05,0.17578125,0,0
-1.69322320289211E-05,3.79392186005134E-05,0.17578125,0,0
-2.09598802030087E-05,3.38319878210314E-05,0.17578125,0,0
-2.18216409848537E-05,4.43923527200241E-05,0.17578125,0,0
-2.38669581449358E-05,4.52456151833758E-05,0.17578125,0,0
-2.26748779823538E-05,2.36338692047866E-05,0.17578125,0,0
-2.246650547022E-05,3.46320416610979E-06,0.17578125,0,0
-1.94186122826068E-05,-2.32462230087549E-06,0.17578125,0,0
-2.01519505935721E-05,-2.20222409552662E-06,0.17578125,0,0
-2.0159572159173E-05,-6.66392043058295E-06,0.17578125,0,0
-2.10641446756199E-05,-1.60280123964185E-05,0.17578125,0,0
-1.94382610061439E-05,-2.42380301642697E-05,0.17578125,0,0
-1.8651808204595E-05,-2.90926727757324E-05,0.17578125,0,0
-1.72264572029235E-05,-3.15592842525803E-05,0.17578125,0,0
-1.77238089236198E-05,-2.84668458334636E-05,0.17578125,0,0
-1.72509699041257E-05,-2.35234838328324E-05,0.17578125,0,0
-1.66690369951539E-05,-2.16894859477179E-05,0.17578125,0,0
-1.48735753100482E-05,-1.55994111992186E-05,0.17578125,0,0
-2.15844138438115E-05,-1.25754968394176E-05,0.17578125,0,0
-1.8266866391059E-05,1.20269561421082E-07,0.17578125,0,0
-2.28927456191741E-05,1.0915418897639E-05,0.17578125,0,0
-1.87700916285394E-05,3.79464145225938E-05,0.17578125,0,0
-2.0540137484204E-05,1.71562132891268E-05,0.17578125,0,0
-2.02830124180764E-05,8.62570777826477E-06,0.17578125,0,0
-2.23763036046876E-05,3.18294914904982E-05,0.17578125,0,0
-2.35883526329417E-05,3.6346260458231E-05,0.17578125,0,0
-2.44132843363332E-05,3.36406628775876E-05,0.17578125,0,0
-2.37038802879397E-05,4.4591746700462E-05,0.17578125,0,0
-2.27833988901693E-05,4.27012564614415E-05,0.17578125,0,0
-2.39950932154898E-05,3.44078507623635E-05,0.17578125,0,0
-2.30365058087045E-05,4.74454500363208E-05,0.17578125,0,0
-2.26981846935814E-05,5.73423567402642E-05,0.17578125,0,0
-2.14288684219355E-05,5.22033806191757E-05,0.17578125,0,0
-2.30862515309127E-05,3.87707805202808E-05,0.17578125,0,0
-2.43625036091544E-05,3.30323928210419E-05,0.17578125,0,0
-2.72126635536551E-05,3.04069199046353E-05,0.17578125,0,0
-2.63242272922071E-05,2.93844168481883E-05,0.17578125,0,0
-2.5110262868111E-05,2.54540900641587E-05,0.17578125,0,0
-2.44764505623607E-05,2.34770559472963E-05,0.17578125,0,0
-2.5634712073952E-05,1.79916878551012E-05,0.17578125,0,0
-2.49040731432615E-05,7.71137547417311E-06,0.17578125,0,0
-2.37965869018808E-05,-2.17273100133752E-06,0.17578125,0,0
-2.38247466768371E-05,-6.83194002704113E-06,0.17578125,0,0
-2.5003051632666E-05,-1.04416976682842E-05,0.17578125,0,0
-2.06850600079633E-05,-1.18908974400256E-05,0.17578125,0,0
-2.92922195512801E-05,-1.23138015624136E-05,0.17578125,0,0
-2.29775050684111E-05,-1.08252825157251E-05,0.17578125,0,0
-2.93811262963573E-05,-9.76927640294889E-06,0.17578125,0,0
-2.56614966929192E-05,6.77497337164823E-06,0.17578125,0,0
-2.87242619378958E-05,-1.74569795490243E-05,0.17578125,0,0
-2.55041013588198E-05,-3.37934397975914E-05,0.17578125,0,0
-2.58697327808477E-05,-1.99968108063331E-05,0.17578125,0,0
-2.49830482061952E-05,-1.8689175703912E-05,0.17578125,0,0
-2.6053005058202E-05,-1.52726788655855E-05,0.17578125,0,0
-2.65317539742682E-05,2.16042849388032E-06,0.17578125,0,0
-2.50909597525606E-05,4.1766384129005E-06,0.17578125,0,0
-2.55414961429778E-05,1.25443068554887E-06,0.17578125,0,0
-2.43399917962961E-05,2.22421094804304E-05,0.17578125,0,0
-2.55389259109506E-05,3.73511429643258E-05,0.17578125,0,0
-2.4251792638097E-05,3.17571430059616E-05,0.17578125,0,0
-2.54655969911255E-05,2.03975669137435E-05,0.17578125,0,0
-2.43194972426863E-05,1.81714367499808E-05,0.17578125,0,0
-2.5159597498714E-05,1.92899697140092E-05,0.17578125,0,0
-2.54940114245983E-05,2.55307877523592E-05,0.17578125,0,0
-2.95930258289445E-05,3.477418795228E-05,0.17578125,0,0
-3.08962553390302E-05,4.35781803389546E-05,0.17578125,0,0
-3.02288335660705E-05,4.4773994886782E-05,0.17578125,0,0
-2.78026145679178E-05,3.94864473491907E-05,0.17578125,0,0
-2.6124724172405E-05,3.29581271216739E-05,0.17578125,0,0
-2.47377374762436E-05,2.90464904537657E-05,0.17578125,0,0
-2.47256175498478E-05,2.6390978746349E-05,0.17578125,0,0
-2.16631542571122E-05,1.61053558258573E-05,0.17578125,0,0
-3.21985280606896E-05,2.33907612710027E-05,0.17578125,0,0
-2.59475255006691E-05,9.22761955735041E-06,0.17578125,0,0
-3.13857090077363E-05,1.22142537293257E-05,0.17578125,0,0
-2.70587970589986E-05,1.80568422365468E-05,0.17578125,0,0
-2.9678954888368E-05,-4.76492368761683E-06,0.17578125,0,0
-2.73508940153988E-05,-2.72664274234558E-05,0.17578125,0,0
-2.78420484391972E-05,-1.41403543238994E-05,0.17578125,0,0
-2.62529010797152E-05,-2.14778774534352E-05,0.17578125,0,0
-2.57359879469732E-05,-2.76889059023233E-05,0.17578125,0,0
-2.64588452409953E-05,-1.84979799087159E-05,0.17578125,0,0
-2.6481255190447E-05,-2.49569948209682E-05,0.17578125,0,0
-2.7114385375171E-05,-2.9285169148352E-05,0.17578125,0,0
-2.51588244282175E-05,-9.42250790103571E-06,0.17578125,0,0
-2.47255447902717E-05,5.50229424334248E-06,0.17578125,0,0
-2.1641715648002E-05,-3.50799973602989E-06,0.17578125,0,0
-2.08869987545768E-05,-8.00207726570079E-06,0.17578125,0,0
-1.82302028406411E-05,1.43011050113273E-06,0.17578125,0,0
-1.79191829374759E-05,1.68998303706758E-05,0.17578125,0,0
-1.5077846001077E-05,2.35510124184657E-05,0.17578125,0,0
-1.34662122945883E-05,2.66860843112227E-05,0.17578125,0,0
-1.32721224872512E-05,3.11948497255798E-05,0.17578125,0,0
-1.67611069628038E-05,3.76317075279076E-05,0.17578125,0,0
-1.86688412213698E-05,3.95953029510565E-05,0.17578125,0,0
-1.97091703739716E-05,4.10447973990813E-05,0.17578125,0,0
-1.98907910089474E-05,4.23677010985557E-05,0.17578125,0,0
-1.94006133824587E-05,4.57910318800714E-05,0.17578125,0,0
-1.54107929120073E-05,4.28670100518502E-05,0.17578125,0,0
-2.23672395804897E-05,6.95202325005084E-05,0.17578125,0,0
-1.88470221473835E-05,5.2906329074176E-05,0.17578125,0,0
-2.3273107217392E-05,6.23554878984578E-05,0.17578125,0,0
-2.03376675926847E-05,6.1763625126332E-05,0.17578125,0,0
-2.34159906540299E-05,3.64128827641252E-05,0.17578125,0,0
-2.13839812204242E-05,5.29609678778797E-06,0.17578125,0,0
-2.18534933082992E-05,1.20229724416276E-05,0.17578125,0,0
-2.17560918827076E-05,1.34712149701954E-06,0.17578125,0,0
-2.2139300199342E-05,-6.94823438607273E-06,0.17578125,0,0
-2.2222955522011E-05,1.66815311786195E-06,0.17578125,0,0
-2.21327591134468E-05,-5.78500930714654E-06,0.17578125,0,0
-2.34751078096451E-05,-1.3246911294118E-05,0.17578125,0,0
-2.33940227190033E-05,-6.35293599771103E-06,0.17578125,0,0
-2.41794314206345E-05,-8.45256272441475E-06,0.17578125,0,0
-2.30208861466963E-05,-3.61184029316064E-05,0.17578125,0,0
-2.41896505031036E-05,-5.38256535946857E-05,0.17578125,0,0
-2.35438110394171E-05,-5.74309378862381E-05,0.17578125,0,0
-2.36260566452984E-05,-4.83171825180762E-05,0.17578125,0,0
-2.1111496607773E-05,-4.21999829995912E-05,0.17578125,0,0
-2.05364594876301E-05,-3.67011125490535E-05,0.17578125,0,0
-2.06923359655775E-05,-3.35557888320182E-05,0.17578125,0,0
-2.26884712901665E-05,-2.28039625653764E-05,0.17578125,0,0
-2.34201943385415E-05,-1.33934454424889E-05,0.17578125,0,0
-2.29914367082529E-05,-8.40311986394227E-06,0.17578125,0,0
-2.23196748265764E-05,-5.59218005946605E-06,0.17578125,0,0
-2.3186112230178E-05,2.47330746105945E-07,0.17578125,0,0
-1.89237434824463E-05,8.13481892691925E-06,0.17578125,0,0
-2.65048201981699E-05,2.02549690584419E-05,0.17578125,0,0
-2.10666476050392E-05,1.7735696019372E-05,0.17578125,0,0
-2.84672369161854E-05,2.33865957852686E-05,0.17578125,0,0
-2.52478839684045E-05,4.13789239246398E-05,0.17578125,0,0
-2.5738159820321E-05,2.54568003583699E-05,0.17578125,0,0
-2.08989076782018E-05,1.26324348457274E-05,0.17578125,0,0
-2.27227192226565E-05,2.69707052211743E-05,0.17578125,0,0
-2.46915478783194E-05,2.16323132917751E-05,0.17578125,0,0
-2.65293929260224E-05,1.74195556610357E-05,0.17578125,0,0
-2.80686235782923E-05,2.75379170489032E-05,0.17578125,0,0
-2.92980748781702E-05,1.89812380995136E-05,0.17578125,0,0
-3.16894438583404E-05,6.89104717821465E-06,0.17578125,0,0
-2.99378789350158E-05,1.6100580978673E-05,0.17578125,0,0
-2.92519052891294E-05,2.01982657017652E-05,0.17578125,0,0
-2.75142447208054E-05,1.38062898713542E-06,0.17578125,0,0
-2.88571500277612E-05,-1.92707429960137E-05,0.17578125,0,0
-2.76558839686913E-05,-2.62742451013764E-05,0.17578125,0,0
-2.79469004453858E-05,-2.49327931669541E-05,0.17578125,0,0
-2.73736786766676E-05,-2.52220070251497E-05,0.17578125,0,0
-2.94674318865873E-05,-2.62546363956062E-05,0.17578125,0,0
-2.94967303489102E-05,-2.53946072916733E-05,0.17578125,0,0
-2.77180115517695E-05,-2.51307883445406E-05,0.17578125,0,0
-2.47463340201648E-05,-2.68971216428326E-05,0.17578125,0,0
-2.52319696301129E-05,-2.65770486294059E-05,0.17578125,0,0
-2.69594311248511E-05,-2.28069256991148E-05,0.17578125,0,0
-2.82254441117402E-05,-1.88110952876741E-05,0.17578125,0,0
-2.23237584577873E-05,-8.79945218912326E-06,0.17578125,0,0
-2.97686710837297E-05,4.60281717096223E-06,0.17578125,0,0
-1.89159163710428E-05,2.45686915150145E-05,0.17578125,0,0
-2.25810763367917E-05,3.66661697626114E-05,0.17578125,0,0
-1.77297351910966E-05,5.94529192312621E-05,0.17578125,0,0
-2.31854046433E-05,4.38702118117362E-05,0.17578125,0,0
-2.2855274437461E-05,4.12374756706413E-05,0.17578125,0,0
-2.50006542046322E-05,6.06137582508381E-05,0.17578125,0,0
-2.42965106735937E-05,5.55521364731248E-05,0.17578125,0,0
-2.43540744122583E-05,4.60732189822011E-05,0.17578125,0,0
-2.4171680706786E-05,5.30287834408227E-05,0.17578125,0,0
-2.20048204937484E-05,4.9838734412333E-05,0.17578125,0,0
-2.09997178899357E-05,4.8541263822699E-05,0.17578125,0,0
-1.93054456758546E-05,7.11429456714541E-05,0.17578125,0,0
-2.2010448446963E-05,8.04664814495482E-05,0.17578125,0,0
-2.18479362956714E-05,6.60920923110098E-05,0.17578125,0,0
-2.22233684326056E-05,4.87054057884961E-05,0.17578125,0,0
-2.0283943740651E-05,4.21555305365473E-05,0.17578125,0,0
-2.20613637793576E-05,3.41188970196527E-05,0.17578125,0,0
-2.12243667192524E-05,2.50725897785742E-05,0.17578125,0,0
-1.99095848074649E-05,1.6449012036901E-05,0.17578125,0,0
-1.69627837749431E-05,8.71280917635886E-06,0.17578125,0,0
-1.74412507476518E-05,-1.80467498012149E-06,0.17578125,0,0
-1.83016836672323E-05,-7.3159599196515E-06,0.17578125,0,0
-1.91202161659021E-05,-9.09479786059819E-06,0.17578125,0,0
-1.82924995897338E-05,-1.44189461934729E-05,0.17578125,0,0
-1.85395874723326E-05,-2.24536852329038E-05,0.17578125,0,0
-1.69238974194741E-05,-1.85125991265522E-05,0.17578125,0,0
-2.44781385845272E-05,-1.75098175532185E-05,0.17578125,0,0
-1.83374486368848E-05,-1.5494577382924E-05,0.17578125,0,0
-2.13372568396153E-05,-2.33005430345656E-05,0.17578125,0,0
-1.93082923942711E-05,3.09316135371773E-07,0.17578125,0,0
-2.51682195084868E-05,-1.42872058859211E-05,0.17578125,0,0
-2.55444774666103E-05,-1.90647187991999E-05,0.17578125,0,0
-2.64163081737934E-05,1.91785284187063E-06,0.17578125,0,0
-2.61371988017345E-05,5.26871781403315E-06,0.17578125,0,0
-2.64485279330984E-05,4.10401207773248E-06,0.17578125,0,0
-2.76118062174646E-05,1.59620522026671E-05,0.17578125,0,0
-2.81367701973068E-05,1.77084384631598E-05,0.17578125,0,0
-2.87976672552759E-05,1.86138076969655E-05,0.17578125,0,0
-2.76508671959164E-05,4.20956639572978E-05,0.17578125,0,0
-2.93934917863226E-05,5.30894176336005E-05,0.17578125,0,0
-2.92251352220774E-05,4.18075542256702E-05,0.17578125,0,0
-2.91703599941684E-05,2.52014888246777E-05,0.17578125,0,0
-2.68305630015675E-05,2.36147407122189E-05,0.17578125,0,0
-2.69358424702659E-05,2.74078774964437E-05,0.17578125,0,0
-2.57992323895451E-05,3.40949263772927E-05,0.17578125,0,0
-2.51154506258899E-05,3.63685103366151E-05,0.17578125,0,0
-2.32520269491943E-05,3.70852321793791E-05,0.17578125,0,0
-2.34574308706215E-05,3.56077507603914E-05,0.17578125,0,0
-2.36704181588721E-05,3.35610238835216E-05,0.17578125,0,0
-2.30988298426382E-05,2.90693260467378E-05,0.17578125,0,0
-2.1138059310033E-05,2.2349648133968E-05,0.17578125,0,0
-1.94796266441699E-05,1.60979470820166E-05,0.17578125,0,0
-1.5527590221609E-05,1.13330752355978E-05,0.17578125,0,0
-2.1922614905634E-05,2.12251434277277E-05,0.17578125,0,0
-1.65026558534009E-05,1.20086324386648E-05,0.17578125,0,0
-1.9855175196426E-05,1.48631170304725E-05,0.17578125,0,0
-1.58842867676867E-05,2.34492854360724E-05,0.17578125,0,0
-1.85279168363195E-05,-2.15587465390854E-06,0.17578125,0,0
-1.74354427144863E-05,-2.54070328082889E-05,0.17578125,0,0
-1.93682008102769E-05,-1.38518998937798E-05,0.17578125,0,0
-2.03925665118732E-05,-2.16551070479909E-05,0.17578125,0,0
-2.0726865841425E-05,-3.10276991513092E-05,0.17578125,0,0
-2.08372803172097E-05,-1.83996089617722E-05,0.17578125,0,0
-2.11634032893926E-05,-1.22075998660875E-05,0.17578125,0,0
-2.28572444029851E-05,-9.59325006988365E-06,0.17578125,0,0
-2.23848128371174E-05,6.79015556670493E-06,0.17578125,0,0
-2.33558421314228E-05,1.75571331055835E-05,0.17578125,0,0
-2.12550439755432E-05,1.41434256875073E-05,0.17578125,0,0
-1.91555300261825E-05,1.26985696624615E-05,0.17578125,0,0
-1.58411403390346E-05,1.6114261597977E-05,0.17578125,0,0
-1.5582685591653E-05,2.4381068215007E-05,0.17578125,0,0
-1.51256326716975E-05,3.18913844239432E-05,0.17578125,0,0
-1.60691524797585E-05,3.47631284967065E-05,0.17578125,0,0
-1.62935957632726E-05,3.33201242028736E-05,0.17578125,0,0
-1.74550532392459E-05,3.22314299410209E-05,0.17578125,0,0
-1.74452743522124E-05,3.06846923194826E-05,0.17578125,0,0
-1.84251493919874E-05,2.86229642370017E-05,0.17578125,0,0
-2.01672573894029E-05,2.82198743661866E-05,0.17578125,0,0
-2.15794498217292E-05,3.36860721290577E-05,0.17578125,0,0
-1.75685927388258E-05,2.94896999548655E-05,0.17578125,0,0
-2.61429904639954E-05,4.44139441242442E-05,0.17578125,0,0
-2.16322205233155E-05,2.85544429061702E-05,0.17578125,0,0
-2.61066270468291E-05,3.79889534087852E-05,0.17578125,0,0
-2.36257055803435E-05,4.23729361500591E-05,0.17578125,0,0
-2.91724409180461E-05,1.93599244084908E-05,0.17578125,0,0
-2.97509632218862E-05,-6.05691775490413E-06,0.17578125,0,0
-3.22965315717738E-05,5.28113150721765E-06,0.17578125,0,0
-3.35527620336507E-05,-3.62790797225898E-06,0.17578125,0,0
-3.48627509083599E-05,-1.28396923173568E-05,0.17578125,0,0
-3.43961000908166E-05,-7.57247016736073E-06,0.17578125,0,0
-3.20897379424423E-05,-1.88381836778717E-05,0.17578125,0,0
-3.10194300254807E-05,-2.96739726763917E-05,0.52734375,0,0
-2.95483787340345E-05,-2.19638604903594E-05,0.52734375,0,0
-3.22888481605332E-05,-2.13111925404519E-05,0.52734375,0,0
-3.38820900651626E-05,-4.63128890260123E-05,0.52734375,0,0
-3.45687767548952E-05,-6.27121917204931E-05,0.52734375,0,0
-3.09430070046801E-05,-5.88541879551485E-05,0.52734375,0,0
-2.97375645459397E-05,-3.95085735362954E-05,0.52734375,0,0
-2.87473867501831E-05,-2.6867865017266E-05,0.52734375,0,0
-2.95875670417445E-05,-2.03051058633719E-05,0.52734375,0,0
-2.88403261947678E-05,-1.61805037350859E-05,0.52734375,0,0
-2.92127388092922E-05,-6.85915938447579E-06,0.52734375,0,0
-2.87794500763994E-05,4.60314652173111E-07,0.52734375,0,0
-2.69822648988338E-05,9.6763806141098E-06,0.52734375,0,0
-2.54054939432535E-05,1.88417743629543E-05,0.52734375,0,0
-2.76382997981273E-05,2.43979811784811E-05,0.52734375,0,0
-2.36814848904032E-05,2.15355157706654E-05,0.52734375,0,0
-3.15744582621846E-05,3.33118041453417E-05,0.52734375,0,0
-1.94399763131514E-05,2.16422413359396E-05,0.52734375,0,0
-2.31349167734152E-05,3.31165829265956E-05,0.52734375,0,0
-1.87827517947881E-05,4.82139985251706E-05,0.52734375,0,0
-2.47404241235927E-05,3.48361281794496E-05,0.52734375,0,0
-2.40978370129596E-05,1.92363459063927E-05,0.52734375,0,0
-2.61835775745567E-05,3.29133254126646E-05,0.52734375,0,0
-2.58610052696895E-05,2.38308966800105E-05,0.52734375,0,0
-2.62187495536637E-05,1.46822330862051E-05,0.52734375,0,0
-2.61872373812366E-05,2.12274680961855E-05,0.52734375,0,0
-2.55627728620311E-05,1.3115293768351E-05,0.52734375,0,0
-2.66138576989761E-05,1.73810258274898E-06,0.52734375,0,0
-2.32043148571393E-05,6.88241470925277E-06,0.52734375,0,0
-2.09843256016029E-05,9.50108278630069E-06,0.52734375,0,0
-1.76769553945633E-05,-8.91755371412728E-06,0.52734375,0,0
-1.81778013939038E-05,-2.65245671471348E-05,0.52734375,0,0
-1.54115859913873E-05,-3.32775998685975E-05,0.52734375,0,0
-1.31691158458125E-05,-2.66467195615405E-05,0.52734375,0,0
-7.81998369348003E-06,-2.06994936888805E-05,0.52734375,0,0
-6.06289404458948E-06,-1.93196228792658E-05,0.52734375,0,0
-5.72014050703729E-06,-2.27118489419809E-05,0.52734375,0,0
-9.5100685939542E-06,-1.95115371752763E-05,0.52734375,0,0
-1.30657244881149E-05,-7.05183174432023E-06,0.52734375,0,0
-1.57302383740898E-05,1.27944613268482E-05,0.52734375,0,0
-1.65520668815589E-05,2.33139744523214E-05,0.52734375,0,0
-1.75098266481655E-05,2.37692893279018E-05,0.52734375,0,0
-1.67913440236589E-05,2.27328710025176E-05,0.52734375,0,0
-2.612217758724E-05,4.27109807787929E-05,0.52734375,0,0
-2.11184997169767E-05,3.88169391953852E-05,0.52734375,0,0
-2.35038060054649E-05,5.06573196616955E-05,0.52734375,0,0
-2.18135173781775E-05,6.50674119242467E-05,0.52734375,0,0
-2.6738287488115E-05,4.91523496748414E-05,0.52734375,0,0
-2.64496338786557E-05,2.56768271356123E-05,0.52734375,0,0
-2.5036610168172E-05,3.30460716213565E-05,0.52734375,0,0
-2.1423786165542E-05,3.03257802443113E-05,0.52734375,0,0
-2.14035408134805E-05,3.67234861187171E-05,0.52734375,0,0
-2.43186241277726E-05,5.90263189224061E-05,0.52734375,0,0
-2.61418226727983E-05,6.05972527409904E-05,0.52734375,0,0
-2.76258906524163E-05,5.47753988939803E-05,0.52734375,0,0
-2.69625888904557E-05,6.35818942100741E-05,0.52734375,0,0
-2.81019383692183E-05,6.6197149863001E-05,0.52734375,0,0
-2.78267252724618E-05,4.33911991422065E-05,0.52734375,0,0
-2.86620070255594E-05,1.8330372768105E-05,0.52734375,0,0
-2.77211747743422E-05,3.88831858799676E-06,0.52734375,0,0
-2.86952326860046E-05,-4.84390568544768E-07,0.52734375,0,0
-2.85861697193468E-05,-7.40061841497663E-06,0.52734375,0,0
-2.90462630800903E-05,-1.64539669640362E-05,0.52734375,0,0
-2.7744355975301E-05,-2.61006898654159E-05,0.52734375,0,0
-2.81277407339076E-05,-3.11543153657112E-05,0.52734375,0,0
-2.98708400805481E-05,-3.65567466360517E-05,0.52734375,0,0
-3.13905147777405E-05,-4.02731056965422E-05,0.52734375,0,0
-3.08579983538948E-05,-3.96864270442165E-05,0.52734375,0,0
-3.14607787004206E-05,-3.57061217073351E-05,0.52734375,0,0
-2.61177119682543E-05,-2.78093939414248E-05,0.52734375,0,0
-3.65200830856338E-05,-3.91123103327118E-05,0.52734375,0,0
-2.86068079731194E-05,-3.53862014890183E-05,0.52734375,0,0
-3.90786990465131E-05,-3.43108622473665E-05,0.52734375,0,0
-3.44338441209402E-05,-5.96513473283267E-06,0.52734375,0,0
-3.58537399733905E-05,-2.29443685384467E-05,0.52734375,0,0
-3.11610783683136E-05,-2.7273816158413E-05,0.52734375,0,0
-3.16803270834498E-05,-5.66949393032701E-06,0.52734375,0,0
-2.98849536193302E-05,5.34993489509361E-07,0.52734375,0,0
-2.91476389975287E-05,5.03811725138803E-06,0.52734375,0,0
-3.01207073789556E-05,2.60373180935858E-05,0.52734375,0,0
-3.06859401462134E-05,3.04847799270647E-05,0.52734375,0,0
-3.14536082441919E-05,2.43232789216563E-05,0.52734375,0,0
-2.93091834464576E-05,3.7276724469848E-05,0.52734375,0,0
-3.1374776881421E-05,4.0255174099002E-05,0.52734375,0,0
-3.13082637148909E-05,2.94636520266067E-05,0.52734375,0,0
-3.22787600453012E-05,2.06703316507628E-05,0.52734375,0,0
-2.86198883259203E-05,2.68417370534735E-05,0.52734375,0,0
-2.77720191661501E-05,3.10103496303782E-05,0.52734375,0,0
-2.53118560067378E-05,3.48684116033837E-05,0.52734375,0,0
-2.52090885624057E-05,3.51096896338277E-05,0.52734375,0,0
-2.32839265663642E-05,3.76964999304619E-05,0.52734375,0,0
-2.3318989406107E-05,3.81604477297515E-05,0.52734375,0,0
-2.33381069847383E-05,3.50985901604872E-05,0.52734375,0,0
-2.53597372648073E-05,2.6851845177589E-05,0.52734375,0,0
-2.68272615358001E-05,2.12832655961392E-05,0.52734375,0,0
-2.75721195066581E-05,1.78336977114668E-05,0.52734375,0,0
-2.34372619161149E-05,1.06384932223591E-05,0.52734375,0,0
-3.20784674840979E-05,1.632763814996E-05,0.52734375,0,0
-2.01314796868246E-05,1.0970773473673E-05,0.52734375,0,0
-2.22489707084605E-05,2.71736662398325E-05,0.52734375,0,0
-1.66587651619921E-05,4.21911900048144E-05,0.52734375,0,0
-2.15203635889338E-05,1.76649755303515E-05,0.52734375,0,0
-1.98475736397086E-05,-1.01378191175172E-05,0.52734375,0,0
-2.05302458198275E-05,-6.19418005953776E-06,0.52734375,0,0
-2.05551677936455E-05,-1.68706483236747E-05,0.52734375,0,0
-2.06948225240922E-05,-2.1017731341999E-05,0.52734375,0,0
-2.03092531592119E-05,-3.2115481189976E-06,0.52734375,0,0
-1.86376837518765E-05,8.57202621773467E-07,0.52734375,0,0
-1.8450407878845E-05,-2.36018263422011E-06,0.52734375,0,0
-1.5713178072474E-05,1.13452651930857E-05,0.52734375,0,0
-1.57775684783701E-05,2.16184398595942E-05,0.52734375,0,0
-1.52145821630256E-05,1.10954879346536E-05,0.52734375,0,0
-1.69773720699595E-05,1.65608275892737E-06,0.52734375,0,0
-1.51792637552717E-05,3.55747738467471E-06,0.52734375,0,0
-1.59461469593225E-05,1.22753972391365E-05,0.52734375,0,0
-1.59405226440867E-05,1.70048679137835E-05,0.52734375,0,0
-1.69367958733346E-05,1.71715328178834E-05,0.52734375,0,0
-1.38459372465149E-05,1.43882316478994E-05,0.52734375,0,0
-1.16941828309791E-05,1.26125505630625E-05,0.52734375,0,0
-1.08104359242134E-05,1.12913021439454E-05,0.52734375,0,0
-1.18678335638833E-05,1.29097425087821E-05,0.52734375,0,0
-1.28544870676706E-05,1.40983538585715E-05,0.52734375,0,0
-1.39744161060662E-05,1.70636049006134E-05,0.52734375,0,0
-1.3250052688818E-05,2.09605768759502E-05,0.52734375,0,0
-2.00408121600049E-05,3.33503121510148E-05,0.52734375,0,0
-1.70198163687019E-05,1.14238318928983E-05,0.52734375,0,0
-1.89348902495112E-05,4.74891430712887E-06,0.52734375,0,0
-1.27628118207213E-05,9.92838249658234E-06,0.52734375,0,0
-1.2475688890845E-05,-1.10927212517709E-05,0.52734375,0,0
-1.28972569655161E-05,-3.37134006258566E-05,0.52734375,0,0
-1.72845120687271E-05,-2.48529540840536E-05,0.52734375,0,0
-2.00684189621825E-05,-3.72476642951369E-05,0.52734375,0,0
-2.03577546926681E-05,-5.26234034623485E-05,0.52734375,0,0
-1.97716653929092E-05,-5.71872878936119E-05,0.52734375,0,0
-1.98706529772608E-05,-7.91066195233725E-05,0.52734375,0,0
-2.16004591493402E-05,-9.00672312127426E-05,0.52734375,0,0
-2.10288471862441E-05,-6.87347856000997E-05,0.52734375,0,0
-2.17331107705832E-05,-5.24915594724007E-05,0.52734375,0,0
-2.27059499593452E-05,-6.46773987682536E-05,0.52734375,0,0
-2.53066027653404E-05,-7.42378979339264E-05,0.52734375,0,0
-2.43317008425947E-05,-6.63637038087472E-05,0.52734375,0,0
-2.3505226636189E-05,-4.63780197605956E-05,0.52734375,0,0
-2.31545964197721E-05,-2.96273883577669E-05,0.52734375,0,0
-2.41936049860669E-05,-1.77281781361671E-05,0.52734375,0,0
-2.30512432608521E-05,-1.14223257696722E-05,0.52734375,0,0
-2.35429943131749E-05,-6.68807479087263E-06,0.52734375,0,0
-2.60022134170868E-05,-2.78249763141503E-06,0.52734375,0,0
-2.82675591734005E-05,2.73448927146092E-06,0.52734375,0,0
-2.84507113974541E-05,9.33420869841939E-06,0.52734375,0,0
-2.79751347989077E-05,1.64368357218336E-05,0.52734375,0,0
-2.27150321734371E-05,2.27559339691652E-05,0.52734375,0,0
-3.15490069624502E-05,4.01813376811333E-05,0.52734375,0,0
-2.3212400265038E-05,2.8900443794555E-05,0.52734375,0,0
-2.92793301923666E-05,3.60309350071475E-05,0.52734375,0,0
-2.48239484790247E-05,5.16966501891147E-05,0.52734375,0,0
-2.8862134058727E-05,3.67072243534494E-05,0.52734375,0,0
-2.65770104306284E-05,1.55016259668628E-05,0.52734375,0,0
-2.8366001060931E-05,2.34414492297219E-05,0.52734375,0,0
-2.72889465122717E-05,1.33648700284539E-05,0.52734375,0,0
-2.43244776356732E-05,2.05343394554802E-06,0.52734375,0,0
-2.19727571675321E-05,3.64249626727542E-06,0.52734375,0,0
-2.19965659198351E-05,-1.31294336824794E-05,0.52734375,0,0
-2.40997269429499E-05,-3.22682753903791E-05,0.52734375,0,0
-2.25025287363678E-05,-2.64967602561228E-05,0.52734375,0,0
-2.30406712944387E-05,-2.06213499041041E-05,1.93359375,0,0
-2.27424188778969E-05,-3.63412145816255E-05,1.93359375,0,0
-2.58905402006349E-05,-4.88142868562136E-05,1.93359375,0,0
-2.47346306423424E-05,-4.73401487397496E-05,1.93359375,0,0
-2.39268320001429E-05,-3.80124401999637E-05,1.93359375,0,0
-2.18878976738779E-05,-3.45477237715386E-05,1.93359375,0,0
-2.37481435760856E-05,-3.4392905945424E-05,1.93359375,0,0
-2.51497694989666E-05,-3.32368435920216E-05,1.93359375,0,0
-2.86617014353396E-05,-2.4056387701421E-05,1.93359375,0,0
-3.02037933579413E-05,-1.50443347592955E-05,1.93359375,0,0
-3.09342685795855E-05,-1.1255576282565E-05,1.93359375,0,0
-3.18645579682197E-05,-8.58508428791538E-06,1.93359375,0,0
-3.27625712088775E-05,4.07869265472982E-06,1.93359375,0,0
-2.54631158895791E-05,2.05946598725859E-05,1.93359375,0,0
-3.50003865605686E-05,4.39070354332216E-05,1.93359375,0,0
-2.47269726969535E-05,4.20488868257962E-05,1.93359375,0,0
-2.89729778160108E-05,5.14768908033147E-05,1.93359375,0,0
-2.20705478568561E-05,7.02685210853815E-05,1.93359375,0,0
-2.79573305306258E-05,5.98101723880973E-05,1.93359375,0,0
-2.78934257949004E-05,4.64836048195139E-05,1.93359375,0,0
-3.02553326037014E-05,6.28329362371005E-05,1.93359375,0,0
-2.84118304989534E-05,6.29880087217316E-05,1.93359375,0,0
-2.62635094259167E-05,6.24467429588549E-05,1.93359375,0,0
-2.46502549998695E-05,8.43468951643445E-05,1.93359375,0,0
-2.49060267378809E-05,9.36858341447078E-05,1.93359375,0,0
-2.82680921372958E-05,8.92856842256151E-05,1.93359375,0,0
-2.68097974185366E-05,9.0056455519516E-05,1.93359375,0,0
-2.69847932941047E-05,8.04806404630654E-05,1.93359375,0,0
-2.56276434811298E-05,5.34028076799586E-05,1.93359375,0,0
-2.7767619030783E-05,3.38639074470848E-05,1.93359375,0,0
-2.61832337855594E-05,3.0613380658906E-05,1.93359375,0,0
-2.62728844973026E-05,3.56897944584489E-05,1.93359375,0,0
-2.38353786699008E-05,3.55919000867289E-05,1.93359375,0,0
-2.42788410105277E-05,2.91133910650387E-05,1.93359375,0,0
-2.37995755014708E-05,1.87844143511029E-05,1.93359375,0,0
-2.42610640270868E-05,1.1366093531251E-05,1.93359375,0,0
-2.34873277804581E-05,1.12806274046306E-05,1.93359375,0,0
-2.23949009523494E-05,1.39501271405607E-05,1.93359375,0,0
-1.85804310603999E-05,8.10321580502205E-06,1.93359375,0,0
-1.77024721779162E-05,-5.01906811223307E-07,1.93359375,0,0
-1.67941398103721E-05,-3.64010520570446E-06,1.93359375,0,0
-2.51998189924052E-05,2.66651824176734E-07,1.93359375,0,0
-2.10488742595771E-05,1.27717964915064E-06,1.93359375,0,0
-2.56771309068426E-05,9.5559807959944E-06,1.93359375,0,0
-2.24813193199225E-05,3.86729298043065E-05,1.93359375,0,0
-2.3197804694064E-05,3.41758786817081E-05,1.93359375,0,0
-1.98663601622684E-05,3.11246949422639E-05,1.93359375,0,0
-1.93588566617109E-05,5.9875201259274E-05,1.93359375,0,0
-1.86775978363585E-05,7.52047926653177E-05,1.93359375,0,0
-1.99637925106799E-05,8.01771457190625E-05,1.93359375,0,0
-2.13674684346188E-05,8.78756763995625E-05,1.93359375,0,0
-2.22578619286651E-05,7.74687869125046E-05,1.93359375,0,0
-2.48726282734424E-05,6.48841087240726E-05,1.93359375,0,0
-2.63155525317416E-05,7.06750870449468E-05,1.93359375,0,0
-2.85508085653419E-05,6.8875408032909E-05,1.93359375,0,0
-2.70064247160917E-05,5.23177695868071E-05,1.93359375,0,0
-2.62622688751435E-05,3.99262135033496E-05,1.93359375,0,0
-2.43774102273164E-05,4.22412085754331E-05,1.93359375,0,0
-2.58768050116487E-05,4.9411512009101E-05,1.93359375,0,0
-2.73814803222194E-05,5.19181630806997E-05,1.93359375,0,0
-2.94984256470343E-05,4.41391603089869E-05,1.93359375,0,0
-3.05585126625374E-05,3.21072766382713E-05,1.93359375,0,0
-3.26835106534418E-05,2.1313793695299E-05,1.93359375,0,0
-3.16969890263863E-05,1.47271957757766E-05,1.93359375,0,0
-2.84340512735071E-05,9.33864885155344E-06,1.93359375,0,0
-2.33774753723992E-05,6.88252939085032E-08,1.93359375,0,0
-2.04143798328005E-05,-8.3965178419021E-06,1.93359375,0,0
-1.71614392456831E-05,-6.39197742202668E-06,1.93359375,0,0
-2.42437454289757E-05,-5.94884841120802E-06,1.93359375,0,0
-1.84009550139308E-05,-1.22100436783512E-05,1.93359375,0,0
-2.37020321947057E-05,-1.95132579392521E-05,1.93359375,0,0
-2.03834897547495E-05,-1.60583113029134E-05,1.93359375,0,0
-2.14687606785446E-05,-4.81005663459655E-05,1.93359375,0,0
-1.72162181115709E-05,-6.35046671959572E-05,1.93359375,0,0
-1.68734386534197E-05,-4.2975225369446E-05,1.93359375,0,0
-1.86370634764899E-05,-3.68492619600147E-05,1.93359375,0,0
-2.1067669877084E-05,-3.2223997550318E-05,1.93359375,0,0
-2.0997185856686E-05,-1.16140172394807E-05,1.93359375,0,0
-1.91984599950956E-05,-6.92807816449204E-06,1.93359375,0,0
-2.03277177206473E-05,-1.08034455479356E-05,1.93359375,0,0
-2.04765347007196E-05,1.98316570276802E-06,1.93359375,0,0
-2.1577388906735E-05,9.23154675547266E-06,1.93359375,0,0
-1.98865254787961E-05,3.00576789413753E-06,1.93359375,0,0
-1.97760782612022E-05,3.66917618066509E-07,1.93359375,0,0
-1.88619778782595E-05,9.86416216619546E-06,1.93359375,0,0
-2.02775245270459E-05,1.94813146663364E-05,1.93359375,0,0
-1.93029827642022E-05,2.69104184553726E-05,1.93359375,0,0
-1.88422091014218E-05,3.13350865326356E-05,1.93359375,0,0
-1.89068996405695E-05,3.72721588064451E-05,1.93359375,0,0
-2.00724771275418E-05,4.53104257758241E-05,1.93359375,0,0
-1.92485476873117E-05,5.35034050699323E-05,1.93359375,0,0
-1.94520980585366E-05,5.75881385884713E-05,1.93359375,0,0
-2.07454995688749E-05,4.67264508188237E-05,1.93359375,0,0
-2.27650452870876E-05,2.41320140048629E-05,1.93359375,0,0
-2.08397705137031E-05,1.2597605746123E-05,1.93359375,0,0
-2.98594659398077E-05,2.91116029984551E-05,1.93359375,0,0
-2.25808944378514E-05,3.06909350911155E-05,1.93359375,0,0
-2.70790333161131E-05,3.91347821278032E-05,1.93359375,0,0
-2.3038062863634E-05,4.94386549689807E-05,1.93359375,0,0
-2.73501700576162E-05,2.78804000117816E-05,1.93359375,0,0
-2.66201659542276E-05,8.57800023368327E-06,1.93359375,0,0
-2.81597876892192E-05,1.8841592464014E-05,1.93359375,0,0
-2.66419792751549E-05,9.81227276497521E-06,1.93359375,0,0
-2.53446887654718E-05,5.25975565324188E-06,1.93359375,0,0
-2.43721988226753E-05,1.88330395758385E-05,1.93359375,0,0
-2.31981903198175E-05,1.52132770381286E-05,1.93359375,0,0
-2.4133501938195E-05,4.63899777969345E-06,1.93359375,0,0
-2.40704630414257E-05,1.36473008751636E-05,1.93359375,0,0
-2.78105435427278E-05,2.32397633226356E-05,1.93359375,0,0
-2.96002854156541E-05,1.78253230842529E-05,1.93359375,0,0
-3.11758049065247E-05,1.37543484015623E-05,1.93359375,0,0
-2.83270146610448E-05,1.7090449546231E-05,1.93359375,0,0
-2.8162874514237E-05,2.44048551394371E-05,1.93359375,0,0
-2.77078743238235E-05,3.27895431837533E-05,1.93359375,0,0
-2.78963743767235E-05,4.98176559631247E-05,1.93359375,0,0
-2.55594823102001E-05,7.04923077137209E-05,1.93359375,0,0
-2.65663857135223E-05,7.85472948336974E-05,1.93359375,0,0
-2.86938720819307E-05,7.13026529410854E-05,1.93359375,0,0
-2.9698625439778E-05,6.44522515358403E-05,1.93359375,0,0
-2.73648511210922E-05,6.24995591351762E-05,1.93359375,0,0
-2.59588869084837E-05,6.14971504546702E-05,1.93359375,0,0
-2.12513841688633E-05,4.88015393784735E-05,1.93359375,0,0
-3.03075103147421E-05,7.79655165388249E-05,1.93359375,0,0
-2.33377595577622E-05,6.12901712884195E-05,1.93359375,0,0
-2.78724364761729E-05,7.30715328245424E-05,1.93359375,0,0
-2.23205133806914E-05,7.18462179065682E-05,1.93359375,0,0
-2.55459872278152E-05,5.043721102993E-05,1.93359375,0,0
-2.40370627579978E-05,2.04674142878503E-05,1.93359375,0,0
-2.66084207396489E-05,2.89525123662315E-05,1.93359375,0,0
-2.73504720098572E-05,1.19739379442763E-05,1.93359375,0,0
-2.76065056823427E-05,-5.05954903928796E-06,1.93359375,0,0
-2.75029233307578E-05,-4.81395136375795E-06,1.93359375,0,0
-2.62406356341671E-05,-1.71504925674526E-05,1.93359375,0,0
-2.50477805820992E-05,-2.31762151088333E-05,1.93359375,0,0
-2.1787840523757E-05,-6.5955914578808E-06,1.93359375,0,0
-2.24397208512528E-05,9.8389446065994E-06,1.93359375,0,0
-2.18544664676301E-05,-8.35751234262716E-06,1.93359375,0,0
-2.4049571948126E-05,-2.99010680464562E-05,1.93359375,0,0
-2.42653823079308E-05,-4.26273072662298E-05,1.93359375,0,0
-2.59605858445866E-05,-4.04369311581831E-05,1.93359375,0,0
-2.42073147092015E-05,-3.96804716729093E-05,1.93359375,0,0
-2.32026159210363E-05,-3.267232386861E-05,1.93359375,0,0
-2.06984441319946E-05,-2.76372666121461E-05,1.93359375,0,0
-2.00125814444618E-05,-2.19631310756085E-05,1.93359375,0,0
-2.0146031602053E-05,-2.2129144781502E-05,1.93359375,0,0
-2.2286358216661E-05,-2.29326451517409E-05,1.93359375,0,0
-2.1903935703449E-05,-2.18507630052045E-05,1.93359375,0,0
-2.11076367122587E-05,-1.68165133800358E-05,1.93359375,0,0
-1.86689539987128E-05,-8.68640472617699E-06,1.93359375,0,0
-2.74144604190951E-05,-5.90332774663693E-06,1.93359375,0,0
-2.16866428672802E-05,7.50502010760101E-07,1.93359375,0,0
-2.5398328943993E-05,1.17547469926649E-05,1.93359375,0,0
-2.0520439647953E-05,3.53247960447334E-05,1.93359375,0,0
-2.23286606342299E-05,5.74552404941642E-06,1.93359375,0,0
-1.94773947441718E-05,-2.60172164416872E-05,1.93359375,0,0
-1.94400745385792E-05,-2.12458235182567E-05,1.93359375,0,0
-1.88501235243166E-05,-1.72231502801878E-05,1.93359375,0,0
-1.96516775758937E-05,-1.3929540727986E-05,1.93359375,0,0
-2.0360264898045E-05,-1.00606291653094E-06,1.93359375,0,0
-2.04664411285194E-05,-5.82545317229233E-06,1.93359375,0,0
-2.15185846172972E-05,-1.41644568429911E-05,1.93359375,0,0
-1.98369816644117E-05,-1.93570849660318E-06,1.93359375,0,0
-1.98928082681959E-05,2.23546408051334E-06,1.93359375,0,0
-1.83456268132431E-05,-1.40415495479829E-05,1.93359375,0,0
-1.94049844139954E-05,-3.38604586431757E-05,1.93359375,0,0
-1.92204515769845E-05,-3.82780999643728E-05,1.93359375,0,0
-2.04354037123267E-05,-3.44099935318809E-05,1.93359375,0,0
-1.83800584636629E-05,-3.15087345370557E-05,1.93359375,0,0
-1.69426057254896E-05,-3.63572944479529E-05,1.93359375,0,0
-1.59987957886187E-05,-3.98090887756553E-05,3.69140625,0,0
-1.85302505997242E-05,-3.94744893128518E-05,3.69140625,0,0
-2.14098781725625E-05,-3.83221158699598E-05,3.69140625,0,0
-2.35370935115498E-05,-4.07816150982399E-05,3.69140625,0,0
-2.43519261857728E-05,-4.95356835017446E-05,3.69140625,0,0
-2.54779733950272E-05,-5.8132271078648E-05,3.69140625,0,0
-2.08417350222589E-05,-3.89967535738833E-05,3.69140625,0,0
-3.07811424136162E-05,-3.60206176992506E-05,3.69140625,0,0
-2.41661746258615E-05,-5.84540293857572E-06,3.69140625,0,0
-2.85111582343234E-05,-1.90740252037358E-06,3.69140625,0,0
-2.35564421018353E-05,3.55809243046679E-05,3.69140625,0,0
-2.63852998614311E-05,1.98879879462766E-05,3.69140625,0,0
-2.44158345594769E-05,1.62658798217308E-05,3.69140625,0,0
-2.59777098108316E-05,3.20964863931295E-05,3.69140625,0,0
-2.68470575974789E-05,3.08704329654574E-05,3.69140625,0,0
-2.69875908998074E-05,2.49654076469596E-05,3.69140625,0,0
-2.57013689406449E-05,3.94447306462098E-05,3.69140625,0,0
-2.39332275668858E-05,4.56902671430726E-05,3.69140625,0,0
-2.54242186201736E-05,4.2900053813355E-05,3.69140625,0,0
-2.51599394687219E-05,6.19959537289105E-05,3.69140625,0,0
-2.57588708336698E-05,6.91672175889835E-05,3.69140625,0,0
-2.38194115809165E-05,5.83696855755989E-05,3.69140625,0,0
-2.47850257437676E-05,3.89874949178193E-05,3.69140625,0,0
-2.41806792473653E-05,3.76189636881463E-05,3.69140625,0,0
-2.44593029492535E-05,4.28787534474395E-05,3.69140625,0,0
-2.27172149607213E-05,5.2162453357596E-05,3.69140625,0,0
-2.38056527450681E-05,4.60104274679907E-05,3.69140625,0,0
-2.49289878411219E-05,3.79332814191002E-05,3.69140625,0,0
-2.68477688223356E-05,2.9339755201363E-05,3.69140625,0,0
-2.6696507120505E-05,2.13166731555248E-05,3.69140625,0,0
-2.53291509579867E-05,1.18720954560558E-05,3.69140625,0,0
-2.35226452787174E-05,2.17852539208252E-06,3.69140625,0,0
-2.31360081670573E-05,-8.29948567115935E-06,3.69140625,0,0
-1.97587087313877E-05,-1.19674768939149E-05,3.69140625,0,0
-2.77776944130892E-05,-1.38165178213967E-05,3.69140625,0,0
-1.86197885341244E-05,-1.63519034686033E-05,3.69140625,0,0
-2.04079424293013E-05,-1.87647146958625E-05,3.69140625,0,0
-1.51683007061365E-05,-1.19779190299596E-06,3.69140625,0,0
-1.93282812688267E-05,-1.95353859453462E-05,3.69140625,0,0
-1.92728693946265E-05,-2.99916391668376E-05,3.69140625,0,0
-2.06645490834489E-05,-1.36210428536288E-05,3.69140625,0,0
-2.03073086595396E-05,-1.37445686050341E-05,3.69140625,0,0
-1.99262030946556E-05,-4.56105044577271E-06,3.69140625,0,0
-1.94300664588809E-05,3.04611567116808E-05,3.69140625,0,0
-1.98105663002934E-05,4.84173797303811E-05,3.69140625,0,0
-2.25875010073651E-05,4.77724570373539E-05,3.69140625,0,0
-2.14361461985391E-05,6.00361308897845E-05,3.69140625,0,0
-2.1397223463282E-05,6.38599522062577E-05,3.69140625,0,0
-2.07852026505861E-05,5.28431810380425E-05,3.69140625,0,0
-2.29805136768846E-05,4.25284306402318E-05,3.69140625,0,0
-2.21453228732571E-05,4.271071520634E-05,3.69140625,0,0
-2.28538356168428E-05,4.14922942582052E-05,3.69140625,0,0
-2.26919109991286E-05,3.68996770703234E-05,3.69140625,0,0
-2.44520142587135E-05,2.9004891985096E-05,3.69140625,0,0
-2.54395981755806E-05,2.1767069483758E-05,3.69140625,0,0
-2.65558519458864E-05,1.8383629139862E-05,3.69140625,0,0
-2.63553138211137E-05,1.91937760973815E-05,3.69140625,0,0
-2.76430291705765E-05,2.02423143491615E-05,3.69140625,0,0
-2.94492638204247E-05,1.67417692864547E-05,3.69140625,0,0
-2.92801541945664E-05,7.92760420154082E-06,3.69140625,0,0
-2.19236826524138E-05,-3.4544746085885E-06,3.69140625,0,0
-2.98374670819612E-05,-8.59942520037293E-06,3.69140625,0,0
-2.17134456761414E-05,-3.21794868796133E-05,3.69140625,0,0
-2.92039621854201E-05,-4.86071112391073E-05,3.69140625,0,0
-2.6384821467218E-05,-3.36176562996116E-05,3.69140625,0,0
-3.05800167552661E-05,-4.62670541310217E-05,3.69140625,0,0
-2.72132565442007E-05,-6.06487519689836E-05,3.69140625,0,0
-2.74985395662952E-05,-5.02874318044633E-05,3.69140625,0,0
-2.77172766800504E-05,-5.83712062507402E-05,3.69140625,0,0
-2.73670539172599E-05,-6.70216613798402E-05,3.69140625,0,0
-2.6045450795209E-05,-6.02164582232945E-05,3.69140625,0,0
-2.49984368565492E-05,-6.17098266957328E-05,3.69140625,0,0
-2.569074058556E-05,-5.75750746065751E-05,3.69140625,0,0
-2.27638902288163E-05,-3.13898563035764E-05,3.69140625,0,0
-2.27539694606094E-05,-1.79706003109459E-05,3.69140625,0,0
-2.16874686884694E-05,-2.73292953352211E-05,3.69140625,0,0
-2.27092932618689E-05,-3.46771303156856E-05,3.69140625,0,0
-2.13758103200234E-05,-2.84782727248967E-05,3.69140625,0,0
-2.30549831030658E-05,-1.68332790053682E-05,3.69140625,0,0
-2.26632382691605E-05,-2.00579097509035E-06,3.69140625,0,0
-2.39690762100508E-05,1.05837334558601E-05,3.69140625,0,0
-2.47084426518995E-05,7.93530307419132E-06,3.69140625,0,0
-2.64979771600338E-05,-6.07048741585459E-06,3.69140625,0,0
-2.60389369941549E-05,-8.58070416143164E-06,3.69140625,0,0
-2.46739018621156E-05,1.88231729225663E-06,3.69140625,0,0
-2.31623762374511E-05,1.21538651001174E-05,3.69140625,0,0
-2.29645756917307E-05,1.92188072105637E-05,3.69140625,0,0
-1.89469810720766E-05,2.50169432547409E-05,3.69140625,0,0
-2.68757521553198E-05,4.94440573675092E-05,3.69140625,0,0
-2.10298276215326E-05,4.74073785881046E-05,3.69140625,0,0
-2.73437854048098E-05,5.86548376304563E-05,3.69140625,0,0
-2.55196428042836E-05,6.82560421410017E-05,3.69140625,0,0
-2.96341568173375E-05,4.5602999307448E-05,3.69140625,0,0
-2.92229688056977E-05,2.14002266147872E-05,3.69140625,0,0
-3.20932595059276E-05,2.94521651085233E-05,3.69140625,0,0
-3.18843231070787E-05,1.78124937519897E-05,3.69140625,0,0
-3.03654014714994E-05,8.23301525088027E-06,3.69140625,0,0
-2.70914533757605E-05,1.89264937944245E-05,3.69140625,0,0
-2.39845485339174E-05,1.45048525155289E-05,3.69140625,0,0
-2.40391655097483E-05,3.24409893437405E-06,3.69140625,0,0
-2.2637232177658E-05,1.04974315036088E-05,3.69140625,0,0
-2.28771605179645E-05,2.49689601332648E-05,3.69140625,0,0
-2.17171473195776E-05,2.54337337537436E-05,3.69140625,0,0
-2.3743827114231E-05,1.76338107849006E-05,3.69140625,0,0
-2.30934801948024E-05,5.93258801018237E-06,3.69140625,0,0
-2.35820880334359E-05,2.41686188928725E-06,3.69140625,0,0
-2.2873389752931E-05,6.93362426318345E-06,3.69140625,0,0
-2.36454870901071E-05,1.46591837619781E-05,3.69140625,0,0
-2.24741470447043E-05,1.59146384248743E-05,3.69140625,0,0
-2.1811500118929E-05,1.66788304341026E-05,3.69140625,0,0
-2.02085848286515E-05,2.34240051213419E-05,3.69140625,0,0
-2.0311354091973E-05,3.69143454008736E-05,3.69140625,0,0
-1.98736706806812E-05,4.47035563411191E-05,3.69140625,0,0
-1.95579250430455E-05,4.31027074228041E-05,3.69140625,0,0
-1.5264937246684E-05,3.25147266266868E-05,3.69140625,0,0
-2.12640206882497E-05,5.57482089789119E-05,3.69140625,0,0
-1.72253858181648E-05,4.76928544230759E-05,3.69140625,0,0
-2.33218906942056E-05,6.0103560826974E-05,3.69140625,0,0
-2.0985304217902E-05,6.95637063472532E-05,3.69140625,0,0
-2.34727594943251E-05,5.53249010408763E-05,3.69140625,0,0
-2.19573939830298E-05,3.52348688466009E-05,3.69140625,0,0
-2.31313842959935E-05,5.30686338606756E-05,3.69140625,0,0
-2.45279898081208E-05,5.57563980692066E-05,3.69140625,0,0
-2.6664098186302E-05,5.38857166247908E-05,3.69140625,0,0
-2.64514128502924E-05,5.78153558308259E-05,3.69140625,0,0
-2.50800767389592E-05,4.15544855059125E-05,3.69140625,0,0
-2.51330893661361E-05,2.47492898779456E-05,3.69140625,0,0
-2.40991630562348E-05,2.70517321041552E-05,3.69140625,0,0
-2.57312985922908E-05,2.5834498956101E-05,3.69140625,0,0
-2.62701032625046E-05,5.65678760722221E-07,3.69140625,0,0
-2.78089028142858E-05,-2.22158614633372E-05,3.69140625,0,0
-2.76518203463638E-05,-3.53329451172613E-05,3.69140625,0,0
-2.90874540951336E-05,-3.78245604224503E-05,3.69140625,0,0
-2.74928315775469E-05,-3.90303939639125E-05,3.69140625,0,0
-2.67798386630602E-05,-3.42714520229492E-05,3.69140625,0,0
-2.54088827205123E-05,-3.22863998007961E-05,3.69140625,0,0
-2.51489927904913E-05,-3.34998330799863E-05,3.69140625,0,0
-2.44551902142121E-05,-3.85770072170999E-05,3.69140625,0,0
-2.39359578699805E-05,-3.98349911847617E-05,3.69140625,0,0
-2.44059356191428E-05,-3.59122532245237E-05,3.69140625,0,0
-2.67858085862827E-05,-3.00021274597384E-05,3.69140625,0,0
-2.19100729736965E-05,-2.01405855477788E-05,3.69140625,0,0
-3.02451953757554E-05,-2.92483491648454E-05,3.69140625,0,0
-2.24000395974144E-05,-3.46057095157448E-05,3.69140625,0,0
-2.76669306913391E-05,-3.07369737129193E-05,3.69140625,0,0
-2.20834135689074E-05,1.0440966434544E-05,3.69140625,0,0
-2.45636801992077E-05,4.51855430583237E-06,3.69140625,0,0
-2.01008388103219E-05,9.71251878922885E-08,3.69140625,0,0
-2.15755262615858E-05,1.45238918776158E-05,3.69140625,0,0
-2.31392277783016E-05,1.397786581947E-05,3.69140625,0,0
-2.50166103796801E-05,1.25939459394431E-05,3.69140625,0,0
-2.51314104389166E-05,2.93496159429196E-05,3.69140625,0,0
-2.21291611524066E-05,3.3933774830075E-05,3.69140625,0,0
-2.13180865102913E-05,2.92851073027123E-05,3.69140625,0,0
-1.99831702047959E-05,4.20387623307761E-05,3.69140625,0,0
-2.28594963118667E-05,4.58254071418196E-05,3.69140625,0,0
-2.37672793446109E-05,3.7152465665713E-05,3.69140625,0,0
-2.50933117058594E-05,3.10636023641564E-05,3.69140625,0,0
-2.30226778512588E-05,3.60352714778855E-05,3.69140625,0,0
-2.49737458943855E-05,3.60947669832967E-05,3.69140625,0,0
-2.54492897511227E-05,3.39297039317898E-05,3.69140625,0,0
-2.59874577750452E-05,2.60531996900681E-05,3.69140625,0,0
-2.38754328165669E-05,1.64109387696953E-05,3.69140625,0,0
-2.33578412007773E-05,3.65253754353034E-06,3.69140625,0,0
-2.30238892982015E-05,-8.565497410018E-06,3.69140625,0,0
-2.29905417654663E-05,-2.78431962215109E-05,3.69140625,0,0
-2.0608029444702E-05,-4.20290416514035E-05,3.69140625,0,0
-1.86807301361114E-05,-3.86149586120155E-05,4.74609375,0,0
-1.51464737427887E-05,-1.97095487237675E-05,4.74609375,0,0
-2.3025040718494E-05,-1.3101469448884E-05,4.74609375,0,0
-1.99587666429579E-05,7.8589175700472E-07,4.74609375,0,0
-2.40319841395831E-05,-1.66384150901422E-08,4.74609375,0,0
-2.1051348085166E-05,2.43393133132486E-05,4.74609375,0,0
-2.36702035181224E-05,5.49443666386651E-06,4.74609375,0,0
-2.28911831072764E-05,-3.33692401000008E-06,4.74609375,0,0
-2.32903366850223E-05,1.24425405374495E-05,4.74609375,0,0
-2.15295058296761E-05,1.74049600900617E-05,4.74609375,0,0
-2.0998826585128E-05,2.67685754806735E-05,4.74609375,0,0
-2.11626083910232E-05,5.10424324602354E-05,4.74609375,0,0
-2.11895458051004E-05,5.66335620533209E-05,4.74609375,0,0
-2.2799822545494E-05,4.85969394503627E-05,4.74609375,0,0
-2.28156786761247E-05,5.77612518100068E-05,4.74609375,0,0
-2.35723127843812E-05,6.1294726037886E-05,4.74609375,0,0
-2.20968177018221E-05,5.45488255738746E-05,4.74609375,0,0
-2.24873365368694E-05,4.69171318400186E-05,4.74609375,0,0
-2.15357013075845E-05,5.38611820957158E-05,4.74609375,0,0
-2.13981329579838E-05,6.23633459326811E-05,4.74609375,0,0
-1.90963037312031E-05,7.10271633579396E-05,4.74609375,0,0
-1.88775502465433E-05,7.61594928917475E-05,4.74609375,0,0
-1.94206095329719E-05,7.88534816820174E-05,4.74609375,0,0
-2.09453428396955E-05,7.50087274354883E-05,4.74609375,0,0
-2.20291622099467E-05,7.67154924687929E-05,4.74609375,0,0
-2.3102615159587E-05,8.07900869403966E-05,4.74609375,0,0
-2.35689640248893E-05,7.46590449125506E-05,4.74609375,0,0
-2.3861117369961E-05,6.00277708144858E-05,4.74609375,0,0
-1.85131557373097E-05,3.54822113877162E-05,4.74609375,0,0
-2.5664065105957E-05,4.94491505378392E-05,4.74609375,0,0
-1.8973649275722E-05,2.43247104663169E-05,4.74609375,0,0
-2.34264116443228E-05,2.83623339782935E-05,4.74609375,0,0
-1.88856320164632E-05,2.51423643931048E-05,4.74609375,0,0
-2.14511510421289E-05,3.30412967741722E-06,4.74609375,0,0
-1.96470209630206E-05,-2.11333644983824E-05,4.74609375,0,0
-2.20588026422774E-05,-9.85126916930312E-06,4.74609375,0,0
-2.2810334485257E-05,-2.19369958358584E-05,4.74609375,0,0
-2.41049729083898E-05,-3.23088825098239E-05,4.74609375,0,0
-2.55312024819432E-05,-2.46714662353043E-05,4.74609375,0,0
-2.54187543760054E-05,-2.91373435175046E-05,4.74609375,0,0
-2.53609268838773E-05,-3.16236619255506E-05,4.74609375,0,0
-2.30797031690599E-05,-1.66001409525052E-05,4.74609375,0,0
-2.38609154621372E-05,-3.02857006317936E-06,4.74609375,0,0
-2.35795541811967E-05,-8.82756285136566E-06,4.74609375,0,0
-2.44561015279032E-05,-8.9243876573164E-06,4.74609375,0,0
-2.14673345908523E-05,-4.44530996901449E-06,4.74609375,0,0
-2.10151174542261E-05,3.66701647180889E-06,4.74609375,0,0
-2.12762988667237E-05,3.88889384339564E-06,4.74609375,0,0
-2.41355119214859E-05,5.66175140193081E-06,4.74609375,0,0
-2.48478809226071E-05,4.75721890325076E-06,4.74609375,0,0
-2.60270244325511E-05,3.78867616745993E-06,4.74609375,0,0
-2.68431031145155E-05,-1.72586953794962E-06,4.74609375,0,0
-2.78463267022744E-05,-3.04575473819568E-06,4.74609375,0,0
-2.8230973839527E-05,1.20946215247386E-05,4.74609375,0,0
-2.84328962152358E-05,3.45560038113035E-05,4.74609375,0,0
-2.06917411560426E-05,2.91605683742091E-05,4.74609375,0,0
-2.75778220384382E-05,3.83640835934784E-05,4.74609375,0,0
-1.91073613677872E-05,1.55521265696734E-05,4.74609375,0,0
-2.37780277529964E-05,1.91995713976212E-05,4.74609375,0,0
-1.81600280484417E-05,2.06007152883103E-05,4.74609375,0,0
-2.32667916861828E-05,-1.11144072434399E-06,4.74609375,0,0
-2.40670779021457E-05,-2.67927443928784E-05,4.74609375,0,0
-2.73154582828283E-05,-1.6913187209866E-05,4.74609375,0,0
-2.84760353679303E-05,-2.94515739369672E-05,4.74609375,0,0
-3.03620436170604E-05,-4.18423478549812E-05,4.74609375,0,0
-3.08883027173579E-05,-3.80386154574808E-05,4.74609375,0,0
-2.90527877950808E-05,-4.7825749788899E-05,4.74609375,0,0
-2.92089225695236E-05,-5.65772097615991E-05,4.74609375,0,0
-2.91956512228353E-05,-5.05243842781056E-05,4.74609375,0,0
-3.27751440636348E-05,-4.98247718496714E-05,4.74609375,0,0
-3.2919389923336E-05,-6.83910475345328E-05,4.74609375,0,0
-3.34174292220268E-05,-7.60758412070572E-05,4.74609375,0,0
-3.15272518491838E-05,-7.15277492417954E-05,4.74609375,0,0
-3.29697249981109E-05,-5.84733497817069E-05,4.74609375,0,0
-3.20685903716367E-05,-4.99974375998136E-05,4.74609375,0,0
-3.1300416594604E-05,-3.83481092285365E-05,4.74609375,0,0
-2.84794969047653E-05,-2.78250481642317E-05,4.74609375,0,0
-2.62690173258306E-05,-1.78487207449507E-05,4.74609375,0,0
-2.24973282456631E-05,-1.27031389638432E-05,4.74609375,0,0
-2.07174198294524E-05,-7.09331561665749E-06,4.74609375,0,0
-2.10178932320559E-05,-2.85611531580798E-06,4.74609375,0,0
-2.22480430238647E-05,-1.40493705202971E-06,4.74609375,0,0
-1.77197016455466E-05,7.68841402987164E-07,4.74609375,0,0
-2.57955798588227E-05,8.37655807117699E-06,4.74609375,0,0
-2.24228169827256E-05,1.25861697597429E-05,4.74609375,0,0
-2.89663767034654E-05,2.40626541199163E-05,4.74609375,0,0
-2.59044008998899E-05,4.51208288723137E-05,4.74609375,0,0
-3.0443483410636E-05,2.15487016248517E-05,4.74609375,0,0
-2.92510867438978E-05,-7.85696011007531E-06,4.74609375,0,0
-2.83556746580871E-05,-6.13161716955801E-07,4.74609375,0,0
-2.64361806330271E-05,9.72748011918156E-07,4.74609375,0,0
-2.64850423263852E-05,-1.51360404743173E-06,4.74609375,0,0
-2.69982465397334E-05,4.76036393592949E-06,4.74609375,0,0
-2.59520220424747E-05,-3.6388316857483E-06,4.74609375,0,0
-2.54017249972094E-05,-1.00114930319251E-05,4.74609375,0,0
-2.39240544033237E-05,1.12672717023088E-06,4.74609375,0,0
-2.56777348113246E-05,-1.15758530228049E-06,4.74609375,0,0
-2.53813468589215E-05,-2.41358047787799E-05,4.74609375,0,0
-2.5685809305287E-05,-4.09353124268819E-05,4.74609375,0,0
-2.37251224461943E-05,-3.92129695683252E-05,4.74609375,0,0
-2.46472500293748E-05,-3.12420415866654E-05,4.74609375,0,0
-2.41213201661594E-05,-2.66424867731985E-05,4.74609375,0,0
-2.21620575757697E-05,-2.8012156690238E-05,4.74609375,0,0
-1.5802359484951E-05,-2.95756399282254E-05,4.74609375,0,0
-1.10027613118291E-05,-2.27904056373518E-05,4.74609375,0,0
-8.42830741021317E-06,-7.61816909289337E-06,4.74609375,0,0
-7.9014353104867E-06,3.41726195074443E-06,4.74609375,0,0
-6.85091572449892E-06,4.93825928060687E-06,4.74609375,0,0
-4.93111383548239E-06,3.77455830857798E-06,4.74609375,0,0
-3.45346393260115E-06,1.29456029753783E-05,4.74609375,0,0
-5.0506710067566E-06,3.46742963301949E-05,4.74609375,0,0
-4.37150902143912E-06,3.79514567612205E-05,4.74609375,0,0
-5.70469728700118E-06,4.58496106148232E-05,4.74609375,0,0
-5.01110798722948E-06,6.31605435046367E-05,4.74609375,0,0
-6.10084043728421E-06,4.72415304102469E-05,4.74609375,0,0
-9.63284492172534E-06,3.4131055144826E-05,4.74609375,0,0
-1.37070983328158E-05,4.86575554532465E-05,4.74609375,0,0
-1.65520104928873E-05,4.59977818536572E-05,4.74609375,0,0
-1.91273666132474E-05,4.48570535809267E-05,4.74609375,0,0
-2.16937132790918E-05,5.95818783040158E-05,4.74609375,0,0
-2.35202132898849E-05,5.77530117880087E-05,4.74609375,0,0
-2.44104467128636E-05,4.84756928926799E-05,4.74609375,0,0
-2.4756702259765E-05,5.46888259123079E-05,4.74609375,0,0
-2.6234951292281E-05,5.38582571607549E-05,4.74609375,0,0
-2.70263735728804E-05,3.54281874024309E-05,4.74609375,0,0
-2.7124568077852E-05,1.84860837180167E-05,4.74609375,0,0
-2.74414633167908E-05,6.43779912934406E-06,4.74609375,0,0
-2.92200766125461E-05,-8.82746189745376E-06,4.74609375,0,0
-3.0508752388414E-05,-1.99579080799595E-05,4.74609375,0,0
-3.01574746117694E-05,-1.82715375558473E-05,4.74609375,0,0
-2.8735743399011E-05,-1.31311817312962E-05,4.74609375,0,0
-2.85713595076231E-05,-1.11141889647115E-05,4.74609375,0,0
-2.92155800707405E-05,-1.23244781207177E-05,4.74609375,0,0
-3.04707700706786E-05,-1.38936757139163E-05,4.74609375,0,0
-3.05093853967264E-05,-1.33453168018605E-05,4.74609375,0,0
-2.87835337076103E-05,-8.87581791175762E-06,4.74609375,0,0
-2.14561241591582E-05,-2.42211535805836E-06,4.74609375,0,0
-3.11592702928465E-05,4.51060168416006E-06,4.74609375,0,0
-2.60326069110306E-05,7.36944048185251E-06,4.74609375,0,0
-3.25597720802762E-05,1.45350359161966E-05,4.74609375,0,0
-2.69945521722548E-05,3.43005704053212E-05,4.74609375,0,0
-3.03234883176629E-05,1.44281002576463E-05,4.74609375,0,0
-2.80096701317234E-05,5.11989901497145E-06,4.74609375,0,0
-2.97121423500357E-05,3.0623355996795E-05,4.74609375,0,0
-2.89789222733816E-05,3.87137588404585E-05,4.74609375,0,0
-2.84368743450614E-05,4.41010342910886E-05,4.74609375,0,0
-2.74585509032477E-05,6.16597244516015E-05,4.74609375,0,0
-2.71844073722605E-05,6.15535318502225E-05,4.74609375,0,0
-2.88354931399226E-05,5.42220768693369E-05,4.74609375,0,0
-2.61626755673205E-05,6.49050998617895E-05,4.74609375,0,0
-2.5406370696146E-05,7.14899142622016E-05,4.74609375,0,0
-2.37565909628756E-05,6.32936571491882E-05,4.74609375,0,0
-2.50094435614301E-05,5.34475002496038E-05,4.74609375,0,0
-2.34585477301152E-05,5.13958584633656E-05,4.74609375,0,0
-2.40719982684823E-05,5.23601556778885E-05,4.74609375,0,0
-2.2764452296542E-05,5.41098306712229E-05,4.74609375,0,0
-2.34079689107602E-05,5.41949593753088E-05,4.74609375,0,0
-2.17048691411037E-05,5.30634206370451E-05,4.74609375,0,0
-2.1816242224304E-05,4.73730542580597E-05,4.74609375,0,0
-2.30856476264307E-05,4.03041012759786E-05,4.74609375,0,0
-2.43843514908804E-05,3.94491253246088E-05,4.74609375,0,0
-2.20516321860487E-05,3.87828767998144E-05,4.74609375,0,0
-1.9949693523813E-05,3.01554446195951E-05,4.74609375,0,0
-1.69062132044928E-05,1.27247139971587E-05,4.74609375,0,0
-2.51546443905681E-05,1.60346535267308E-05,5.80078125,0,0
-2.1043766537332E-05,4.08150162911625E-06,5.80078125,0,0
-2.60828055616003E-05,1.34380816234625E-05,5.80078125,0,0
-2.34411563724279E-05,2.40155677602161E-05,5.80078125,0,0
-2.6591274945531E-05,3.25609425999573E-06,5.80078125,0,0
-2.42950754909543E-05,-1.3942846635473E-05,5.80078125,0,0
-2.41397028730717E-05,1.50253690662794E-05,5.80078125,0,0
-2.38114225794561E-05,2.61231634794967E-05,5.80078125,0,0
-2.41734687733697E-05,2.34771905525122E-05,5.80078125,0,0
-2.46714462264208E-05,2.83291101368377E-05,5.80078125,0,0
-2.39924265770242E-05,1.82462372322334E-05,5.80078125,0,0
-2.38311658904422E-05,1.23454174172366E-05,5.80078125,0,0
-2.14623960346216E-05,2.94231031148229E-05,5.80078125,0,0
-2.24312952923356E-05,4.33095483458601E-05,5.80078125,0,0
-2.31155499932356E-05,3.51929083990399E-05,5.80078125,0,0
-2.55687045864761E-05,2.69689080596436E-05,5.80078125,0,0
-2.58476302406052E-05,2.59798562183278E-05,5.80078125,0,0
-2.68395560851786E-05,2.85662063106429E-05,5.80078125,0,0
-2.58096606557956E-05,2.67009218077874E-05,5.80078125,0,0
-2.56086041190429E-05,2.42741461988771E-05,5.80078125,0,0
-2.50826342380606E-05,2.4558461518609E-05,5.80078125,0,0
-2.70501568593318E-05,2.97008355119033E-05,5.80078125,0,0
-2.90132866211934E-05,3.48077519447543E-05,5.80078125,0,0
-2.99160255963216E-05,3.60054400516674E-05,5.80078125,0,0
-2.93324683298124E-05,3.18166239594575E-05,5.80078125,0,0
-3.01066756946966E-05,2.68565436272183E-05,5.80078125,0,0
-2.55816539720399E-05,1.64519587997347E-05,5.80078125,0,0
-3.49473557434976E-05,2.30470559472451E-05,5.80078125,0,0
-2.42245441768318E-05,9.7777965493151E-06,5.80078125,0,0
-2.98296290566213E-05,1.77149631781504E-05,5.80078125,0,0
-2.27848868235014E-05,2.94915262202267E-05,5.80078125,0,0
-2.60823435382918E-05,1.01897421700414E-05,5.80078125,0,0
-2.53423022513743E-05,-1.16894598249928E-05,5.80078125,0,0
-2.83787539956393E-05,-1.33240916966315E-06,5.80078125,0,0
-2.57760457316181E-05,-1.3556135854742E-05,5.80078125,0,0
-2.19858993659727E-05,-2.89070521830581E-05,5.80078125,0,0
-2.11058231798233E-05,-2.92093791358639E-05,5.80078125,0,0
-2.25044113904005E-05,-3.98341653635725E-05,5.80078125,0,0
-2.55816921708174E-05,-5.10257159476168E-05,5.80078125,0,0
-2.410427077848E-05,-4.64872719021514E-05,5.80078125,0,0
-2.40682384173851E-05,-4.46680678578559E-05,5.80078125,0,0
-2.20672372961417E-05,-5.58913270651829E-05,5.80078125,0,0
-2.50079610850662E-05,-5.97695870965254E-05,5.80078125,0,0
-2.55171999015147E-05,-5.43168498552404E-05,5.80078125,0,0
-2.59379994531628E-05,-4.06907347496599E-05,5.80078125,0,0
-2.14577012229711E-05,-2.80392177955946E-05,5.80078125,0,0
-1.96689998119837E-05,-1.34401088871527E-05,5.80078125,0,0
-1.82544736162527E-05,8.34847924124915E-06,5.80078125,0,0
-1.87472542165779E-05,3.63954895874485E-05,5.80078125,0,0
-1.83437277883058E-05,4.80574490211438E-05,5.80078125,0,0
-1.91500203072792E-05,4.01225006498862E-05,5.80078125,0,0
-1.9056664314121E-05,2.86377035081387E-05,5.80078125,0,0
-1.94364183698781E-05,2.92914264719002E-05,5.80078125,0,0
-1.84188174898736E-05,3.14437020279001E-05,5.80078125,0,0
-2.73982204817003E-05,5.43053974979557E-05,5.80078125,0,0
-2.14826122828526E-05,4.36993504990824E-05,5.80078125,0,0
-2.70098280452657E-05,5.19126479048282E-05,5.80078125,0,0
-2.48780925176106E-05,5.76264064875431E-05,5.80078125,0,0
-2.62428548012394E-05,4.08953819714952E-05,5.80078125,0,0
-2.40671342908172E-05,2.56983112194575E-05,5.80078125,0,0
-2.5719489713083E-05,3.95761635445524E-05,5.80078125,0,0
-2.77606541203568E-05,2.7515477995621E-05,5.80078125,0,0
