biceps_emg, triceps_emg, subject_position, position_estimate, brace_position
-2.0347941244836E-05,1.35711741222622E-06,-0.703125,0,0
-1.97979315998964E-05,-2.82928772321611E-06,-0.703125,0,0
-1.62105025083292E-05,-5.56813256480382E-06,-0.703125,0,0
-2.2360849470715E-05,-9.13211260922253E-06,-0.703125,0,0
-1.54685185407288E-05,-7.49713308323408E-06,-0.703125,0,0
-1.90245373232756E-05,-7.90511239756597E-06,-0.703125,0,0
-1.64540761034004E-05,-7.83234645496123E-06,-0.703125,0,0
-2.00817921722773E-05,-9.52428308664821E-06,-0.703125,0,0
-1.90969876712188E-05,-7.24821529729525E-06,-0.703125,0,0
-1.97383997146972E-05,-4.70294571641716E-06,-0.703125,0,0
-1.83112533704843E-05,-3.30350508193078E-06,-0.703125,0,0
-1.71322353708092E-05,-3.85503471989068E-06,-0.703125,0,0
-1.71441151906038E-05,-6.9098482526897E-06,-0.703125,0,0
-1.83079391717911E-05,-1.08218755485723E-05,-0.703125,0,0
-2.09718691621674E-05,-1.15444536277209E-05,-0.703125,0,0
-2.09567388083087E-05,-1.0063703484775E-05,-0.703125,0,0
-2.16695170820458E-05,-1.02138428701437E-05,-0.703125,0,0
-1.97143526747823E-05,-1.12913139673765E-05,-0.703125,0,0
-1.91182316484628E-05,-1.25857850434841E-05,-0.703125,0,0
-1.74619162862655E-05,-1.14549284262466E-05,-0.703125,0,0
-1.78666941792471E-05,-9.60371926339576E-06,-0.703125,0,0
-1.70708317455137E-05,-9.71366534940898E-06,-0.703125,0,0
-1.8606237063068E-05,-1.16265546239447E-05,-0.703125,0,0
-1.96642358787358E-05,-1.03183447208721E-05,-0.703125,0,0
-2.12937356991461E-05,-9.41433700063499E-06,-0.703125,0,0
-2.08976580324816E-05,-9.84696089290082E-06,-0.703125,0,0
-1.99659043573774E-05,-8.32702880870784E-06,-0.703125,0,0
-1.90977534657577E-05,-5.1522665671655E-06,-0.703125,0,0
-1.91281505976804E-05,-4.18344279751182E-06,-0.703125,0,0
-1.71608608070528E-05,-3.13775262839044E-06,-0.703125,0,0
-2.51642140938202E-05,-5.23432572663296E-06,-0.703125,0,0
-1.89783440873725E-05,-3.27666248267633E-06,-0.703125,0,0
-2.21603258978575E-05,-1.40929307690385E-06,-0.703125,0,0
-1.80414554051822E-05,-1.29915736124531E-06,-0.703125,0,0
-1.99164678633679E-05,-4.04277716370416E-06,-0.703125,0,0
-1.82759322342463E-05,-4.91337186758756E-06,-0.703125,0,0
-1.88982376130298E-05,-3.94841254092171E-06,-0.703125,0,0
-1.864679143182E-05,-1.69713601394506E-07,-0.703125,0,0
-1.92845182027668E-05,2.086611402774E-06,-0.703125,0,0
-1.95078901015222E-05,-1.65630254400639E-07,-0.703125,0,0
-1.79900398507016E-05,-1.53437224525987E-06,-0.703125,0,0
-1.76958146766992E-05,3.10166433337145E-06,-0.703125,0,0
-1.65355086210184E-05,9.05226806935389E-06,-0.703125,0,0
-1.76509893208276E-05,9.38938592298655E-06,-0.703125,0,0
-1.699158201518E-05,8.28183692647144E-06,-0.703125,0,0
-1.78488880919758E-05,1.01786172308493E-05,-0.703125,0,0
-1.79076469066786E-05,1.34900446937536E-05,-0.703125,0,0
-1.95350803551264E-05,1.32594032038469E-05,-0.703125,0,0
-1.80605966306757E-05,1.01681844171253E-05,-0.703125,0,0
-1.60242416313849E-05,7.70261249272153E-06,-0.703125,0,0
-1.30146281662746E-05,7.61440333008068E-06,-0.703125,0,0
-1.36853568619699E-05,7.65182539907983E-06,-0.703125,0,0
-1.45871517815976E-05,6.73632393954904E-06,-0.703125,0,0
-1.49156994666555E-05,6.64151502860477E-06,-0.703125,0,0
-1.5004217857495E-05,8.90204137249384E-06,-0.703125,0,0
-1.51539070429862E-05,8.91076706466265E-06,-0.703125,0,0
-1.30815542433993E-05,1.87350224223337E-06,-0.703125,0,0
-1.84336240636185E-05,-1.72634406681027E-06,-0.703125,0,0
-1.36013204610208E-05,-5.09469055032241E-06,-0.703125,0,0
-1.67737780429889E-05,-2.82133373730176E-06,-0.703125,0,0
-1.37108554554288E-05,-5.01481963510741E-06,-0.703125,0,0
-1.50880650835461E-05,-8.1833723015734E-06,-0.703125,0,0
-1.50634550664108E-05,-1.16852406790713E-05,-0.703125,0,0
-1.76012163137784E-05,-8.75231762620388E-06,-0.703125,0,0
-1.77861074917018E-05,-6.13098563917447E-06,-0.703125,0,0
-1.7373855371261E-05,-7.60872217142605E-06,-0.703125,0,0
-1.672809048614E-05,-1.03008324003895E-05,-0.703125,0,0
-1.59680403157836E-05,-9.94140464172233E-06,-0.703125,0,0
-1.7394562746631E-05,-7.57005591367488E-06,-0.703125,0,0
-1.84566069947323E-05,-7.31431509848335E-06,-0.703125,0,0
-1.96173532458488E-05,-7.25884547136957E-06,-0.703125,0,0
-1.789885936887E-05,-7.02264196661417E-06,-0.703125,0,0
-1.7584563465789E-05,-5.86344822295359E-06,-0.703125,0,0
-1.76668090716703E-05,-5.48872094441322E-06,-0.703125,0,0
-1.99120459001279E-05,-4.63531569039333E-06,-0.703125,0,0
-2.03553645405918E-05,-3.96152472603717E-06,-0.703125,0,0
-1.99224177777069E-05,-1.76978153376695E-06,-0.703125,0,0
-1.7464415577706E-05,3.65780664424165E-07,-0.703125,0,0
-1.70842085935874E-05,2.14253691410704E-06,-0.703125,0,0
-1.81946415978018E-05,2.47141520048899E-06,-0.703125,0,0
-2.03737636184087E-05,2.01209604711039E-06,-0.703125,0,0
-1.97764638869558E-05,2.91550168185495E-06,-0.703125,0,0
-1.88982030522311E-05,4.73700674774591E-06,-0.703125,0,0
-1.53871751535917E-05,4.76884724776028E-06,-0.703125,0,0
-2.21281989070121E-05,5.58387546334416E-06,-0.703125,0,0
-1.79353755811462E-05,5.40928567716037E-07,-0.703125,0,0
-2.22420603677165E-05,1.23521814998639E-07,-0.703125,0,0
-1.79487869900186E-05,2.31846186693474E-07,-0.703125,0,0
-1.89623951882822E-05,7.86398800300958E-07,-0.703125,0,0
-1.69385766639607E-05,-4.25643634116568E-07,-0.703125,0,0
-1.81217346835183E-05,-1.2112346325921E-07,-0.703125,0,0
-1.77388519659871E-05,1.06903678442904E-06,-0.703125,0,0
-1.81129980774131E-05,2.79840514849639E-06,-0.703125,0,0
-1.88279391295509E-05,4.71590237793862E-06,-0.703125,0,0
-1.87703226401936E-05,6.15040198681527E-06,-0.703125,0,0
-1.94926215044688E-05,4.9007985580829E-06,-0.703125,0,0
-1.8515649571782E-05,9.28218241824652E-07,-0.703125,0,0
-1.92659954336705E-05,-5.29563919826614E-07,-0.703125,0,0
-1.89243364729919E-05,3.96865715401873E-07,-0.703125,0,0
-2.02197752514621E-05,1.41667015896019E-07,-0.703125,0,0
-1.89607944776071E-05,-4.75055185233941E-06,-0.703125,0,0
-1.84261298272759E-05,-7.35366938897641E-06,-0.703125,0,0
-1.66553963936167E-05,-4.88982550450601E-06,-0.703125,0,0
-1.66591198649257E-05,-1.48838432778575E-06,-0.703125,0,0
-1.5799389075255E-05,-1.19986509616865E-06,-0.703125,0,0
-1.61994139489252E-05,-2.39851192418428E-06,-0.703125,0,0
-1.49038114614086E-05,-4.56527959613595E-06,-0.703125,0,0
-1.40815373015357E-05,-7.51550123823108E-06,-0.703125,0,0
-1.5055168660183E-05,-9.99886106001213E-06,-0.703125,0,0
-1.70526509464253E-05,-9.54732513491763E-06,-0.703125,0,0
-1.43014567584032E-05,-6.23964297119528E-06,-0.703125,0,0
-1.97872159333201E-05,-7.47729018257814E-06,-0.703125,0,0
-1.44754421853577E-05,-4.03148396799224E-06,-0.703125,0,0
-1.87803052540403E-05,-6.23731284576934E-06,-0.703125,0,0
-1.6811822206364E-05,-2.63948618339782E-06,-0.703125,0,0
-2.03354939003475E-05,-2.65096264939757E-08,-0.703125,0,0
-1.96152341231937E-05,2.10834105018876E-06,-0.703125,0,0
-1.96810506167822E-05,1.87759576419921E-06,-0.703125,0,0
-1.84508644451853E-05,1.27007274386415E-06,-0.703125,0,0
-1.87741097761318E-05,1.02972967397363E-06,-0.703125,0,0
-2.02171577257104E-05,7.78419121161278E-07,-0.703125,0,0
-2.02923438337166E-05,-7.11184270585363E-07,-0.703125,0,0
-2.08091169042746E-05,-2.18099580706621E-06,-0.703125,0,0
-1.98956549866125E-05,-6.89741625592433E-07,-0.703125,0,0
-2.04984498850536E-05,-2.4111150409567E-08,-0.703125,0,0
-1.96662822418148E-05,-1.33557261960959E-06,-0.703125,0,0
-1.96025684999768E-05,-5.27276688444545E-06,-0.703125,0,0
-1.76798366737785E-05,-8.37486004456878E-06,-0.703125,0,0
-1.78182617673883E-05,-9.40430072660092E-06,-0.703125,0,0
-1.78909176611342E-05,-7.3534047260182E-06,-0.703125,0,0
-1.92922288988484E-05,-5.65859409107361E-06,-0.703125,0,0
-1.8555649148766E-05,-4.33476225225604E-06,-0.703125,0,0
-1.77521142177284E-05,-3.28680084749067E-06,-0.703125,0,0
-1.76446646946715E-05,-2.87919704078377E-07,-0.703125,0,0
-1.97162135009421E-05,1.33314222239278E-06,-0.703125,0,0
-2.16324260691181E-05,-2.009944182646E-06,-0.703125,0,0
-2.20883302972652E-05,-4.10755319535383E-06,-0.703125,0,0
-1.70208932104288E-05,-9.66446577876923E-07,-0.703125,0,0
-2.31348240049556E-05,1.81500024609704E-06,-0.703125,0,0
-1.74179531313712E-05,4.80051812701277E-06,-0.703125,0,0
-2.28655680984957E-05,3.11606572722667E-06,-0.703125,0,0
-1.93471514648991E-05,1.11156111870514E-06,-0.703125,0,0
-2.25655367103172E-05,-2.71039561994257E-06,-0.703125,0,0
-2.11764618143206E-05,-4.75808565170155E-06,-0.703125,0,0
-2.25914463953814E-05,-4.9018522076949E-06,-0.703125,0,0
-2.24929190153489E-05,-6.51783921057358E-06,-0.703125,0,0
-2.295170816069E-05,-8.57681243360275E-06,-0.703125,0,0
-2.29650540859438E-05,-7.04233389114961E-06,-0.703125,0,0
-2.10638918360928E-05,-4.16003013015143E-06,-0.703125,0,0
-2.05947890208336E-05,-3.75814875042124E-06,-0.703125,0,0
-1.89796028280398E-05,-5.38846506970003E-06,-0.703125,0,0
-1.95388565771282E-05,-8.01035002950812E-06,-0.703125,0,0
-1.86244851647643E-05,-9.71042754827067E-06,-0.703125,0,0
-1.95706816157326E-05,-9.25215681490954E-06,-0.703125,0,0
-1.86180932360003E-05,-7.30621968614287E-06,-0.703125,0,0
-2.01450820895843E-05,-5.4116112551128E-06,-0.703125,0,0
-2.07588400371606E-05,-2.67104405793361E-06,-0.703125,0,0
-2.21490336116403E-05,-4.30546066354509E-07,-0.703125,0,0
-2.08056189876515E-05,1.17555248380086E-06,-0.703125,0,0
-1.97568570001749E-05,1.724730850583E-06,-0.703125,0,0
-1.89257334568538E-05,2.21110690290516E-06,-0.703125,0,0
-1.93178548215656E-05,-5.80427638396941E-07,-0.703125,0,0
-1.953168430191E-05,-3.71924170394777E-06,-0.703125,0,0
-2.02759256353602E-05,-2.04167395168042E-06,-0.703125,0,0
-1.69023733178619E-05,2.81357557696538E-07,-0.703125,0,0
-2.3712067559245E-05,1.1356453200051E-07,-0.703125,0,0
-1.76747707882896E-05,-4.54984103726019E-07,-0.703125,0,0
-2.17023825825891E-05,2.18709431010211E-07,-0.703125,0,0
-1.71038918779232E-05,1.0908242984442E-06,-0.703125,0,0
-1.8807872038451E-05,-1.935232063488E-07,-0.703125,0,0
-1.85745921044145E-05,-3.32535842062498E-06,-0.703125,0,0
-2.14658284676261E-05,-6.92003004587605E-06,-0.703125,0,0
-2.19275061681401E-05,-7.74817453930154E-06,-0.703125,0,0
-2.21868976950645E-05,-5.8159462241747E-06,-0.703125,0,0
-2.17465039895615E-05,-4.01336183131207E-06,-0.703125,0,0
-1.96727905859007E-05,-1.36564460717636E-06,-0.703125,0,0
-1.85913631867152E-05,8.26530026643013E-07,-0.703125,0,0
-1.6995571058942E-05,2.42111806159073E-08,-0.703125,0,0
-1.90642658708384E-05,-1.9881297248503E-06,-0.703125,0,0
-1.93813884834526E-05,-2.86440308627789E-06,-0.703125,0,0
-1.94875119632343E-05,-2.84236921288539E-06,-0.703125,0,0
-1.74062352016335E-05,-2.45912929131009E-06,-0.703125,0,0
-1.79433718585642E-05,-1.44743330565689E-06,-0.703125,0,0
-1.77049951162189E-05,-9.44801627156266E-07,-0.703125,0,0
-1.9246994270361E-05,-1.61770742579392E-07,-0.703125,0,0
-1.90407354239142E-05,2.48247192757844E-06,-0.703125,0,0
-1.91813942365116E-05,3.42648968398862E-06,-0.703125,0,0
-1.90821920114104E-05,-2.88067184328611E-07,-0.703125,0,0
-1.99564929062035E-05,-2.81663733403548E-06,-0.703125,0,0
-1.99909882212523E-05,-1.43226907312055E-06,-0.703125,0,0
-1.94772073882632E-05,1.55775421717408E-06,-0.703125,0,0
-1.56684436660726E-05,3.80034612135205E-06,-0.703125,0,0
-2.25059338845313E-05,6.74496959618409E-06,-0.703125,0,0
-1.65945966728032E-05,5.52116080143605E-06,-0.703125,0,0
-1.94194089999655E-05,3.34327069140272E-06,-0.703125,0,0
-1.64588673214894E-05,4.89149158511282E-07,-0.703125,0,0
-2.03028776013525E-05,7.34911736799404E-07,-0.703125,0,0
-1.93755513464566E-05,-8.21994092348177E-07,-0.703125,0,0
-1.95363409147831E-05,-1.28502745155856E-06,-0.703125,0,0
-1.84883447218454E-05,-1.10103462702682E-06,-0.703125,0,0
-1.79178114194656E-05,-3.17414855999232E-06,-0.703125,0,0
-1.79105481947772E-05,-7.40471159588196E-06,-0.703125,0,0
-1.7162714357255E-05,-1.0839899914572E-05,-0.703125,0,0
-1.76442863448756E-05,-1.17861345643178E-05,-0.703125,0,0
-1.71792144101346E-05,-1.23499512483249E-05,-0.703125,0,0
-1.83597712748451E-05,-1.26882314361865E-05,-0.703125,0,0
-1.72576837940142E-05,-1.40712090797024E-05,-0.703125,0,0
-1.7701655451674E-05,-1.40125430334592E-05,-0.703125,0,0
-1.76223602466052E-05,-1.166847141576E-05,-0.703125,0,0
-1.92458956007613E-05,-8.76476133271353E-06,-0.703125,0,0
-1.82361982297152E-05,-9.66819334280444E-06,-0.703125,0,0
-1.69085724337492E-05,-1.18698389997007E-05,-0.703125,0,0
-1.48317913044593E-05,-9.80056665866869E-06,-0.703125,0,0
-1.51140538946493E-05,-5.07719914821791E-06,-0.703125,0,0
-1.54853296407964E-05,-1.18294121875806E-06,-0.703125,0,0
-1.56713340402348E-05,1.48252217968547E-06,-0.703125,0,0
-1.54244789882796E-05,-4.91443529426761E-07,-0.703125,0,0
-1.52744232764235E-05,-3.51282051269664E-06,-0.703125,0,0
-1.26775084936526E-05,-1.47840671615995E-06,-0.703125,0,0
-1.85070712177549E-05,6.13831105056306E-07,-0.703125,0,0
-1.44954819916165E-05,2.02465434995247E-06,-0.703125,0,0
-1.72931358974893E-05,-1.03574143395235E-06,-0.703125,0,0
-1.50483874676866E-05,-7.00098112815795E-08,-0.703125,0,0
-1.75410204974469E-05,2.27449686462933E-06,-0.703125,0,0
-1.700448228803E-05,4.70363875137991E-06,-0.703125,0,0
-1.80160895979498E-05,3.12122779178026E-06,-0.703125,0,0
-1.6709844203433E-05,-2.28124761747495E-07,-0.703125,0,0
-1.58406201080652E-05,-2.11365727409429E-06,-0.703125,0,0
-1.57658232637914E-05,-7.87219278208795E-07,-0.703125,0,0
-1.55337602336658E-05,1.23979248201067E-06,-0.703125,0,0
-1.62447504408192E-05,2.36943765230535E-06,-0.703125,0,0
-1.54715653479798E-05,3.9233482311829E-06,-0.703125,0,0
-1.6290392522933E-05,5.96196468904964E-06,-0.703125,0,0
-1.65030669450061E-05,8.43723591970047E-06,-0.703125,0,0
-1.7768226825865E-05,8.39299900690094E-06,-0.703125,0,0
-1.66001482284628E-05,7.58287615099107E-06,-0.703125,0,0
-1.65786186698824E-05,5.62913874091464E-06,-0.703125,0,0
-1.60220806719735E-05,3.28684859596251E-06,-0.703125,0,0
-1.63933545991313E-05,3.31857199853403E-06,-0.703125,0,0
-1.58644597831881E-05,6.78607693771482E-06,-0.703125,0,0
-1.70163402799517E-05,6.17108526057564E-06,-0.703125,0,0
-1.72817890415899E-05,-2.55874806498468E-06,-0.703125,0,0
-1.52048687596107E-05,-1.31477845570771E-05,-0.703125,0,0
-1.23720019473694E-05,-1.68683764059097E-05,-0.703125,0,0
-1.15329630716587E-05,-1.40373567774077E-05,-0.703125,0,0
-1.03635575214867E-05,-5.55588258066564E-06,-0.703125,0,0
-1.58737184392521E-05,-5.86127953283722E-06,-0.703125,0,0
-1.37033666760544E-05,-4.98304871143773E-06,-0.703125,0,0
-1.69013419508701E-05,-1.00067900348222E-05,-0.703125,0,0
-1.61025436682394E-05,-9.26512166188331E-06,-0.703125,0,0
-1.85200242412975E-05,-1.1839612852782E-05,-0.703125,0,0
-1.76448611455271E-05,-1.22147257570759E-05,-0.703125,0,0
-1.78489408426685E-05,-1.25541255329154E-05,-0.703125,0,0
-1.67918715305859E-05,-1.0396633115306E-05,-0.703125,0,0
-1.56425630848389E-05,-7.68772497394821E-06,-0.703125,0,0
-1.45232115755789E-05,-3.62593164027203E-06,-0.703125,0,0
-1.33143039420247E-05,6.43863700133807E-07,-0.703125,0,0
-1.31950637296541E-05,1.69597433341551E-06,-0.703125,0,0
-1.19007136163418E-05,-1.23078109481867E-07,-0.703125,0,0
-1.24581792988465E-05,-4.60190767626045E-06,-0.703125,0,0
-1.3259854313219E-05,-6.48210198050947E-06,-0.703125,0,0
-1.47962564369664E-05,-6.8223071139073E-06,-0.703125,0,0
-1.44704526974238E-05,-5.38120912096929E-06,-0.703125,0,0
-1.46095226227771E-05,-3.16502246278105E-06,-0.703125,0,0
-1.37444731080905E-05,-5.73201873521612E-07,-0.703125,0,0
-1.48385770444293E-05,-6.94104414833419E-07,-0.703125,0,0
-1.65975525305839E-05,6.36314098301227E-07,-0.703125,0,0
-1.81136565515772E-05,2.2102185539552E-06,-0.703125,0,0
-1.75687218870735E-05,3.20819890475832E-06,-0.703125,0,0
-1.70374623849057E-05,1.10837879674364E-06,-0.703125,0,0
-1.72947638930054E-05,-3.21838388117612E-06,-0.703125,0,0
-1.84533819265198E-05,-5.10050494995085E-06,-0.703125,0,0
-1.59202700160677E-05,-1.50239532104024E-06,-0.703125,0,0
-2.30445330089424E-05,2.41055772676191E-07,-0.703125,0,0
-1.82001149369171E-05,2.31863077715389E-06,-0.703125,0,0
-2.23807383008534E-05,8.23465086341457E-07,-0.703125,0,0
-1.8954988263431E-05,1.80924894266354E-06,-0.703125,0,0
-2.18506247620098E-05,3.11209737446916E-06,-0.703125,0,0
-2.08952751563629E-05,4.91858509121812E-06,-0.703125,0,0
-2.1592259145109E-05,6.98722260494833E-06,-0.703125,0,0
-1.98577363335062E-05,1.00495335573214E-05,-0.703125,0,0
-1.90107457456179E-05,1.00069764812361E-05,-0.703125,0,0
-1.97068129637046E-05,6.96340066497214E-06,-0.703125,0,0
-2.06523054657737E-05,3.44671661878238E-06,-0.703125,0,0
-2.27572963922285E-05,1.1147164968861E-06,-0.703125,0,0
-2.24734321818687E-05,1.64025823323755E-06,-0.703125,0,0
-2.36962569033494E-05,2.27472241931537E-06,-0.703125,0,0
-2.33979426411679E-05,1.01986222489359E-06,-0.703125,0,0
-2.41920606640633E-05,-1.2595085081557E-06,-0.703125,0,0
-2.24687209993135E-05,2.67922018792888E-07,-0.703125,0,0
-2.26166121137794E-05,3.99902819481213E-06,-0.703125,0,0
-2.18729674088536E-05,5.94898983763414E-06,-0.703125,0,0
-2.22886192204896E-05,5.88593229622347E-06,-0.703125,0,0
-2.13887378777144E-05,5.91906245972496E-06,-0.703125,0,0
-2.10597572731785E-05,4.25790130975656E-06,-0.703125,0,0
-2.02044611796737E-05,1.69304416886007E-06,-0.703125,0,0
-1.99322075786768E-05,1.04540913525852E-06,-0.703125,0,0
-2.01887469302164E-05,1.20051106478059E-06,-0.703125,0,0
-2.02249575522728E-05,1.21688628951233E-07,-0.703125,0,0
-1.60743620654102E-05,-4.51855976280058E-06,-0.703125,0,0
-2.25623916776385E-05,-7.93254548625555E-06,-0.703125,0,0
-1.74111719388748E-05,-3.14383828481368E-06,-0.703125,0,0
-2.26483352889773E-05,2.34811659538536E-06,-0.703125,0,0
-2.01074417418567E-05,4.52502399639343E-06,-0.703125,0,0
-2.26612919504987E-05,6.26049313723342E-07,-0.703125,0,0
-2.04618063435191E-05,-3.61579668606282E-06,-0.703125,0,0
-2.02088231162634E-05,-2.83603799289267E-06,-0.703125,0,0
-1.8932811144623E-05,6.28758868970181E-07,-0.703125,0,0
-1.85653116204776E-05,3.44621616932272E-06,-0.703125,0,0
-1.88019766937941E-05,2.19852790905861E-06,-0.703125,0,0
-1.88657777471235E-05,-2.76693754130974E-07,-0.703125,0,0
-1.92016796063399E-05,-7.99268320861302E-07,-0.703125,0,0
-1.80276620085351E-05,9.14252154871065E-07,-0.703125,0,0
-1.95249540411169E-05,1.79963342361589E-06,-0.703125,0,0
-1.9033666831092E-05,6.65657580611878E-07,-0.703125,0,0
-1.91177077795146E-05,-2.07659240913927E-06,-0.703125,0,0
-1.74072647496359E-05,-3.51616563420976E-06,-0.703125,0,0
-1.79444341483759E-05,-4.34578396379948E-06,-0.703125,0,0
-1.76615922100609E-05,-7.09640107743326E-06,-0.703125,0,0
-1.91336293937638E-05,-8.88584327185526E-06,-0.703125,0,0
-1.90065256902017E-05,-5.6211670198536E-06,-0.703125,0,0
-1.89831644092919E-05,-5.72612691485119E-07,-0.703125,0,0
-1.75916247826535E-05,3.63276427606252E-07,-0.703125,0,0
-1.73781845660415E-05,-3.20860772262677E-06,-0.703125,0,0
-1.81027407961665E-05,-6.30562544756685E-06,-0.703125,0,0
-1.93055548152188E-05,-6.7325854615774E-06,-0.703125,0,0
-1.64816883625463E-05,-4.60451656181249E-06,-0.703125,0,0
-2.2485581212095E-05,-5.55389260625816E-06,-0.703125,0,0
-1.65203637152445E-05,-2.32130923905061E-06,-0.703125,0,0
-2.11538226722041E-05,-1.0653992603693E-06,-0.703125,0,0
-1.70480598171707E-05,4.99055147429317E-07,-0.703125,0,0
-1.8832257410395E-05,-2.92317213279603E-06,-0.703125,0,0
-1.6191921531572E-05,-3.3904811971297E-06,-0.703125,0,0
-1.66440058819717E-05,-2.81850611827394E-06,-0.703125,0,0
-1.67805628734641E-05,-5.85201632929966E-07,-0.703125,0,0
-1.77797883225139E-05,-8.26980397050647E-07,-0.703125,0,0
-1.92284769582329E-05,-3.08511721414106E-06,-0.703125,0,0
-1.99720871023601E-05,-5.50417689737515E-06,-0.703125,0,0
-2.13902440009406E-05,-7.40836412660428E-06,-0.703125,0,0
-2.06001132028177E-05,-6.91803461450036E-06,-0.703125,0,0
-2.19460343942046E-05,-6.66809683025349E-06,-0.703125,0,0
-2.15014279092429E-05,-5.94099174122675E-06,-0.703125,0,0
-2.23420229303883E-05,-3.75426384380262E-06,-0.703125,0,0
-2.12385111808544E-05,-5.76368449856091E-07,-0.703125,0,0
-2.17978413274977E-05,-1.38693246753974E-06,-0.703125,0,0
-2.01050916075474E-05,-4.00515364162857E-06,-0.703125,0,0
-1.92786392290145E-05,-6.85788927512476E-06,-0.703125,0,0
-1.84172695298912E-05,-7.37264599592891E-06,-0.703125,0,0
-1.91637882380746E-05,-6.82765312376432E-06,-0.703125,0,0
-1.89777147170389E-05,-5.57391467737034E-06,-0.703125,0,0
-1.90401206054958E-05,-4.23460869569681E-06,-0.703125,0,0
-1.86031084012939E-05,-2.92229128717736E-06,-0.703125,0,0
-1.81668365257792E-05,-2.63797141997202E-06,-0.703125,0,0
-1.43130764627131E-05,-1.3724273628668E-07,-0.703125,0,0
-2.05652922886657E-05,3.48908679370652E-06,-0.703125,0,0
-1.65165511134546E-05,4.69054612040054E-06,-0.703125,0,0
-2.06258628168143E-05,-6.30810234270029E-07,-0.703125,0,0
-1.72473828570219E-05,-2.34630124396062E-06,-0.703125,0,0
-1.88948179129511E-05,-4.07592892770481E-08,-0.703125,0,0
-1.74021515704226E-05,2.73136402029195E-06,-0.703125,0,0
-1.80654114956269E-05,1.21515392947913E-06,-0.703125,0,0
-1.68255028256681E-05,-2.96922007692046E-06,-0.703125,0,0
-1.62591095431708E-05,-4.67404515802627E-06,-0.703125,0,0
-1.66607678693254E-05,-1.63689742294082E-06,-0.703125,0,0
-1.64954872161616E-05,1.75341051544819E-06,-0.703125,0,0
-1.66921490745153E-05,1.15018087853969E-06,-0.703125,0,0
-1.52297752720187E-05,-1.60635079282656E-06,-0.703125,0,0
-1.6067275282694E-05,-3.95649294659961E-06,-0.703125,0,0
-1.56301175593399E-05,-4.10403617934207E-06,-0.703125,0,0
-1.70745806826744E-05,-3.17612420985824E-06,-0.703125,0,0
-1.73294956766767E-05,-1.6576208281549E-06,-0.703125,0,0
-1.878076363937E-05,-8.53353810725821E-07,-0.703125,0,0
-1.76234188984381E-05,-1.01714249467477E-06,-0.703125,0,0
-1.62942778842989E-05,-7.55719611333916E-07,-0.703125,0,0
-1.47151504279464E-05,-2.49030961185781E-07,-0.703125,0,0
-1.53537112055346E-05,-1.0872767006731E-06,-0.703125,0,0
-1.62240776262479E-05,-1.04024593383656E-06,-0.703125,0,0
-1.62395845109131E-05,-1.98643510884722E-06,-0.703125,0,0
-1.5626192180207E-05,-5.27779275216744E-06,-0.703125,0,0
-1.63081549544586E-05,-5.59896807317273E-06,-0.703125,0,0
-1.43067654789775E-05,-4.08297097465038E-07,-0.703125,0,0
-2.18864024645882E-05,2.70477517005929E-06,-0.703125,0,0
-1.80398255906766E-05,4.71289922643336E-06,-0.703125,0,0
-2.04702737391926E-05,2.31953293905462E-07,-0.703125,0,0
-1.64583980222233E-05,-4.7188163989631E-06,-0.703125,0,0
-1.78200007212581E-05,-6.13805877947016E-06,-0.703125,0,0
-1.70768289535772E-05,-3.07740356220165E-06,-0.703125,0,0
-1.89256206795108E-05,-2.57914962276118E-06,-0.703125,0,0
-1.92601455637487E-05,-3.2136406389327E-06,-0.703125,0,0
-1.94315798580647E-05,-3.66757080882962E-06,-0.703125,0,0
-1.87492096301867E-05,-4.54685732620419E-06,-0.703125,0,0
-1.72924756043358E-05,-5.93456206843257E-06,-0.703125,0,0
-1.72782565641683E-05,-9.82148230832536E-06,-0.703125,0,0
-1.67918915394694E-05,-1.2596431588463E-05,-0.703125,0,0
-1.87022978934692E-05,-9.91439264907967E-06,-0.703125,0,0
-1.90077862498583E-05,-3.80702726943127E-06,-0.703125,0,0
-1.91356884897687E-05,-1.56699593389931E-06,-0.703125,0,0
-1.71952888194937E-05,-3.97440544475103E-06,-0.703125,0,0
-1.76801695488393E-05,-6.37282073512324E-06,-0.703125,0,0
-1.80845909198979E-05,-7.26277903595474E-06,-0.703125,0,0
-1.92621373571455E-05,-8.91809031600133E-06,-0.703125,0,0
-1.79227245098446E-05,-8.40384564071428E-06,-0.703125,0,0
-1.6779706129455E-05,-6.09572907706024E-06,-0.703125,0,0
-1.7007858332363E-05,-3.21503898703668E-06,-0.703125,0,0
-1.83499778358964E-05,-4.72438870247061E-07,-0.703125,0,0
-1.85689950740198E-05,-7.07396623056411E-07,-0.703125,0,0
-1.83530082722427E-05,-1.24501730169868E-06,-0.703125,0,0
-1.48476156027755E-05,-1.22861433737853E-06,-0.703125,0,0
-2.16115367948078E-05,-2.00038698494609E-06,-0.703125,0,0
-1.68472943187226E-05,1.84073101650029E-07,-0.703125,0,0
-1.9752160369535E-05,4.16266266256571E-06,-0.703125,0,0
-1.56287514982978E-05,5.88721104577417E-06,-0.703125,0,0
-1.72402014868567E-05,3.38262634613784E-06,-0.703125,0,0
-1.67696434800746E-05,1.63250021500971E-07,-0.703125,0,0
-1.90107894013636E-05,-1.16241335490486E-06,-0.703125,0,0
-1.85342360055074E-05,1.8920678712675E-06,-0.703125,0,0
-1.83156880666502E-05,6.39774680166738E-06,-0.703125,0,0
-1.84763011930045E-05,7.64205469749868E-06,-0.703125,0,0
-1.85030858119717E-05,4.99264842801495E-06,-0.703125,0,0
-2.05721025849925E-05,1.67469909229112E-06,-0.703125,0,0
-2.12043632927816E-05,-1.18434593332495E-06,-0.703125,0,0
-2.24607301788637E-05,-3.68052724297741E-06,-0.703125,0,0
-2.15616946661612E-05,-3.8125408536871E-06,-0.703125,0,0
-2.19021130760666E-05,-3.35670461026893E-06,-0.703125,0,0
-2.08879537240136E-05,-3.91519233744475E-06,-0.703125,0,0
-2.17471078940434E-05,-5.31531850356259E-06,-0.703125,0,0
-2.10171056096442E-05,-5.91191883358988E-06,-0.703125,0,0
-2.14551528188167E-05,-5.30015586264199E-06,-0.703125,0,0
-2.11996011785232E-05,-5.09831352246692E-06,-0.703125,0,0
-2.13340827031061E-05,-5.4699889915355E-06,-0.703125,0,0
-2.09297431865707E-05,-3.28885562339565E-06,-0.703125,0,0
-2.15984400711022E-05,-7.60349223583034E-08,-0.703125,0,0
-2.12091090361355E-05,9.7421934697195E-07,-0.703125,0,0
-2.03242125280667E-05,-1.19322021419066E-06,-0.703125,0,0
-1.62040032591904E-05,-3.39517737302231E-06,-0.703125,0,0
-2.27626878768206E-05,-6.03019680056605E-06,-0.703125,0,0
-1.72987092810217E-05,-5.90238596487325E-06,-0.703125,0,0
-2.17325759876985E-05,-6.57950977256405E-06,-0.703125,0,0
-1.88344911293825E-05,-4.4353128032526E-06,-0.703125,0,0
-2.23429524339736E-05,-3.22215737469378E-06,-0.703125,0,0
-2.11424157896545E-05,-2.57872920883528E-06,-0.703125,0,0
-2.18625682464335E-05,-1.91503590940556E-06,-0.703125,0,0
-2.07883131224662E-05,-3.38781683240086E-06,-0.703125,0,0
-2.03813233383698E-05,-7.14483121555531E-06,-0.703125,0,0
-2.06061613425845E-05,-8.83973007148597E-06,-0.703125,0,0
-2.02459068532335E-05,-9.01963630894898E-06,-0.703125,0,0
-2.08827186725102E-05,-9.36325886868872E-06,-0.703125,0,0
-1.95923694263911E-05,-8.7696680566296E-06,-0.703125,0,0
-1.97716180991847E-05,-7.21924607205438E-06,-0.703125,0,0
-1.81764153239783E-05,-4.95318545290502E-06,-0.703125,0,0
-1.8629149053595E-05,-3.742339231394E-06,-0.703125,0,0
-1.71066385519225E-05,-3.74135879610549E-06,-0.703125,0,0
-1.64932207553647E-05,-4.72959845865262E-06,-0.703125,0,0
-1.47396722240956E-05,-4.36704749517958E-06,-0.703125,0,0
-1.55527777678799E-05,-1.39142889565846E-06,-0.703125,0,0
-1.56525620695902E-05,2.18770446736016E-06,-0.703125,0,0
-1.71572773979278E-05,1.51461665609531E-06,-0.703125,0,0
-1.80849401658634E-05,-7.69474979733786E-07,-0.703125,0,0
-1.77452675416134E-05,-2.70276530045521E-07,-0.703125,0,0
-1.56574642460328E-05,1.09160953343235E-06,-0.703125,0,0
-1.47876953633386E-05,3.54368893340506E-07,-0.703125,0,0
-1.36317303258693E-05,1.09114148472145E-06,-0.703125,0,0
-2.02536957658594E-05,2.99103498946351E-06,-0.703125,0,0
-1.61040934472112E-05,8.80006268744182E-07,-0.703125,0,0
-1.93876621779054E-05,-2.90226103061286E-06,-0.703125,0,0
-1.6784808394732E-05,-4.64135155198164E-06,-0.703125,0,0
-1.8296426787856E-05,-4.93104471388506E-06,-0.703125,0,0
-1.68552633112995E-05,-3.70853490494483E-06,-0.703125,0,0
-1.79525923158508E-05,-4.89973081130302E-06,-0.703125,0,0
-1.84979144250974E-05,-8.40639859234216E-06,-0.703125,0,0
-1.93792875506915E-05,-1.03695147117833E-05,-0.703125,0,0
-1.97347217181232E-05,-8.08715685707284E-06,-0.703125,0,0
-1.83806932909647E-05,-3.81222457690455E-06,-0.703125,0,0
-1.82644162123324E-05,4.1095606206909E-07,-0.703125,0,0
-1.81904106284492E-05,2.10544408218993E-06,-0.703125,0,0
-2.03595827770187E-05,1.84508351708246E-07,-0.703125,0,0
-2.08310757443542E-05,-2.95991026177944E-06,-0.703125,0,0
-2.11130809475435E-05,-4.55987628811272E-06,-0.703125,0,0
-1.92948300536955E-05,-2.10029361369379E-06,-0.703125,0,0
-1.9637471268652E-05,1.47916159676242E-06,-0.703125,0,0
-1.93182604562026E-05,3.33404204866383E-06,-0.703125,0,0
-1.93201703950763E-05,4.13817679145723E-06,-0.703125,0,0
-1.81802133738529E-05,4.54412929684622E-06,-0.703125,0,0
-1.82819603651296E-05,4.37770904682111E-06,-0.703125,0,0
-1.84797318070196E-05,5.59001455258112E-06,-0.703125,0,0
-1.83961547008948E-05,7.05263255440514E-06,-0.703125,0,0
-1.80836595973233E-05,6.56603333482053E-06,-0.703125,0,0
-1.81349751073867E-05,4.15063095715595E-06,-0.703125,0,0
-1.59373812493868E-05,2.03324066205823E-06,-0.703125,0,0
-2.34204217122169E-05,4.09637686971109E-06,-0.703125,0,0
-1.84125819941983E-05,4.80505696032196E-06,-0.703125,0,0
-2.2123118469608E-05,3.97581561628613E-06,-0.703125,0,0
-1.87610858120024E-05,2.3223583411891E-06,-0.703125,0,0
-2.04253919946495E-05,4.09252243116498E-06,-0.703125,0,0
-1.77090078068431E-05,3.68507176062849E-06,-0.703125,0,0
-1.74326651176671E-05,3.35056881795026E-07,-0.703125,0,0
-1.64824268722441E-05,-3.91581124858931E-06,-0.703125,0,0
-1.6097024854389E-05,-5.08675202581799E-06,-0.703125,0,0
-1.55322650243761E-05,-3.54345957020996E-06,-0.703125,0,0
-1.45349476952106E-05,-3.16842351821833E-06,-0.703125,0,0
-1.56972218974261E-05,-3.21829156746389E-06,-0.703125,0,0
-1.55771995196119E-05,-3.60394324161462E-06,-0.703125,0,0
-1.65049859788269E-05,-4.42143891632441E-06,-0.703125,0,0
-1.5251189324772E-05,-5.60073840460973E-06,-0.703125,0,0
-1.60108193085762E-05,-6.81004257785389E-06,-0.703125,0,0
-1.58523707796121E-05,-8.48775653139455E-06,-0.703125,0,0
-1.76093126356136E-05,-9.52009395405184E-06,-0.703125,0,0
-1.81423947651638E-05,-9.81865196081344E-06,-0.703125,0,0
-1.91809122043196E-05,-8.07411379355472E-06,-0.703125,0,0
-1.81405266630463E-05,-6.48946343062562E-06,-0.703125,0,0
-1.80870774784125E-05,-6.77818161420873E-06,-0.703125,0,0
-1.8184595319326E-05,-5.56633403903106E-06,-0.703125,0,0
-1.92781189980451E-05,-2.90162233795854E-06,-0.703125,0,0
-2.03117560886312E-05,-2.57720671470452E-06,-0.703125,0,0
-2.07249831873924E-05,-5.74646992390626E-06,-0.703125,0,0
-1.56513524416368E-05,-8.8368715296383E-06,-0.703125,0,0
-2.01565981114982E-05,-1.27188368423958E-05,-0.703125,0,0
-1.33942485263105E-05,-5.34321225131862E-06,-0.703125,0,0
-1.82106796273729E-05,-9.89043996924011E-07,-0.703125,0,0
-1.45743151733768E-05,2.69707766165084E-06,-0.703125,0,0
-1.68471033248352E-05,6.56363283724204E-07,-0.703125,0,0
-1.60612380568637E-05,1.10285145638045E-06,-0.703125,0,0
-1.8788665329339E-05,1.83955671673175E-06,-0.703125,0,0
-1.94283420569263E-05,2.79459527519066E-06,-0.703125,0,0
-1.97660174308112E-05,1.78246125415171E-06,-0.703125,0,0
-1.94668264157372E-05,-9.58923124017019E-07,-0.703125,0,0
-1.82509575097356E-05,-3.20678532261809E-06,-0.703125,0,0
-1.79783473868156E-05,-3.85987732443027E-06,-0.703125,0,0
-1.6587311620242E-05,-1.66495669873257E-06,-0.703125,0,0
-1.79098879016237E-05,-1.06302763924759E-06,-0.703125,0,0
-1.77173060365021E-05,-1.76541436758271E-06,-0.703125,0,0
-1.95207776414463E-05,-3.9073179323168E-06,-0.703125,0,0
-1.99956630240195E-05,-3.7710562992288E-06,-0.703125,0,0
-2.18018758459948E-05,-1.35128277634067E-06,-0.703125,0,0
-2.03309518838068E-05,1.88164290193527E-06,-0.703125,0,0
-1.93769756151596E-05,1.78083428181708E-06,-0.703125,0,0
-1.76188004843425E-05,1.86920090072817E-06,-0.703125,0,0
-1.70833554875571E-05,2.49934237217531E-06,-0.703125,0,0
-1.61745338118635E-05,3.11295843857806E-06,-0.703125,0,0
-1.62111755344085E-05,2.61732498074707E-06,-0.703125,0,0
-1.64470857271226E-05,2.52532663580496E-06,-0.703125,0,0
-1.7457965441281E-05,4.01482157030841E-06,-0.703125,0,0
-1.45792928378796E-05,5.28403552380041E-06,-0.703125,0,0
-2.09579666261561E-05,7.04395597495022E-06,-0.703125,0,0
-1.68064088938991E-05,3.45016269420739E-06,-0.703125,0,0
-2.06330932996934E-05,3.05079623785787E-07,-0.703125,0,0
-1.68797614605865E-05,-5.30501574758091E-06,-0.703125,0,0
-1.89398797374452E-05,-4.76774448543438E-06,-0.703125,0,0
-1.80056540557416E-05,-3.73961165678338E-06,-0.703125,0,0
-1.90435930562671E-05,-2.643091875143E-06,-0.703125,0,0
-1.85872613656102E-05,-4.97921064379625E-06,-0.703125,0,0
-1.90463524631923E-05,-7.89729347161483E-06,-0.703125,0,0
-1.93124269571854E-05,-7.09131154508214E-06,-0.703125,0,0
-1.8517592252465E-05,-3.95835513700149E-06,-0.703125,0,0
-1.89794427569723E-05,-8.38121422930271E-07,-0.703125,0,0
-1.82424246304436E-05,4.94651715143846E-07,-0.703125,0,0
-1.93020241567865E-05,1.43805136687547E-08,-0.703125,0,0
-1.89994989341358E-05,-3.12145812131348E-06,-0.703125,0,0
-2.00335744011682E-05,-4.61707622889662E-06,-0.703125,0,0
-1.91682720469544E-05,-2.75001093541505E-06,-0.703125,0,0
-1.97026420210022E-05,-3.07944225674817E-09,-0.703125,0,0
-1.91084800462704E-05,-3.73223679162038E-06,-0.703125,0,0
-1.93748874153243E-05,-9.46062027651351E-06,-0.703125,0,0
-1.78622067323886E-05,-1.08222702692728E-05,-0.703125,0,0
-1.6949274140643E-05,-7.35987396183191E-06,-0.703125,0,0
-1.68433834915049E-05,-4.15537942899391E-06,-0.703125,0,0
-1.82807143573882E-05,-3.65907089872053E-06,-0.703125,0,0
-1.94635467778426E-05,-4.25045163865434E-06,-0.703125,0,0
-2.01894563360838E-05,-3.12603833663161E-06,-0.703125,0,0
-1.53928704094142E-05,-1.02765653764436E-07,-0.703125,0,0
-2.04127682081889E-05,8.22384379262076E-07,-0.703125,0,0
-1.43211018439615E-05,1.54369274696364E-06,-0.703125,0,0
-1.87127152457833E-05,2.01579450731515E-06,-0.703125,0,0
-1.46480615512701E-05,3.02411763186683E-06,-0.703125,0,0
-1.70323764905334E-05,3.34383315703235E-07,-0.703125,0,0
-1.59474930114811E-05,-3.49794868270692E-06,-0.703125,0,0
-1.68233382282779E-05,-5.85046473133843E-06,-0.703125,0,0
-1.62548458320089E-05,-5.97275493419147E-06,-0.703125,0,0
-1.60126273840433E-05,-5.79350444240845E-06,-0.703125,0,0
-1.66695026564412E-05,-4.92798289997154E-06,-0.703125,0,0
-1.65884212037781E-05,-2.28977614824544E-06,-0.703125,0,0
-1.75215427589137E-05,5.80582650400174E-07,-0.703125,0,0
-1.76442936208332E-05,2.39566293203097E-06,-0.703125,0,0
-1.95094089576742E-05,4.04361890105065E-06,-0.703125,0,0
-1.93539181054803E-05,5.07701543028816E-06,-0.703125,0,0
-1.97418721654685E-05,4.9318618948746E-06,-0.703125,0,0
-1.77597448782763E-05,5.48287744095433E-06,-0.703125,0,0
-1.81108953256626E-05,6.45252021058695E-06,-0.703125,0,0
-1.80647330125794E-05,6.14259943176876E-06,-0.703125,0,0
-1.95649463421432E-05,3.92653009839705E-06,-0.703125,0,0
-1.93276373465778E-05,1.15405225642462E-06,-0.703125,0,0
-1.88324884220492E-05,-3.7458340784724E-07,-0.703125,0,0
-1.66255631484091E-05,-1.22125015877828E-07,-0.703125,0,0
-1.57103640958667E-05,8.84116900579102E-07,-0.703125,0,0
-1.65669371199328E-05,7.65777713240823E-07,-0.703125,0,0
-1.78190621227259E-05,1.1277000444565E-09,-0.703125,0,0
-1.56663536472479E-05,1.21013101761491E-07,-0.703125,0,0
-2.29012948693708E-05,-1.36972948894254E-06,-0.703125,0,0
-1.72940053744242E-05,-2.66322740571923E-06,-0.703125,0,0
-1.96917735593161E-05,-4.11687040013931E-07,-0.703125,0,0
-1.62484757311177E-05,1.73995488239598E-06,-0.703125,0,0
-1.99402875296073E-05,1.34889512537484E-06,-0.703125,0,0
-2.04427542485064E-05,-4.88434636736201E-07,-0.703125,0,0
-2.1427162209875E-05,-5.19120760600345E-07,-0.703125,0,0
-1.94668918993557E-05,1.53960320403712E-06,-0.703125,0,0
-1.87223067769082E-05,3.67574875781429E-06,-0.703125,0,0
-1.8986869690707E-05,3.68309588338889E-06,-0.703125,0,0
-1.86092784133507E-05,1.59922217335406E-06,-0.703125,0,0
-1.87666555575561E-05,3.24413889529751E-07,-0.703125,0,0
-1.77085639734287E-05,1.05923174942291E-06,-0.703125,0,0
-1.94954118342139E-05,1.05645460735104E-06,-0.703125,0,0
-2.00291378860129E-05,-4.87042825625394E-07,-0.703125,0,0
-2.08472065423848E-05,-1.13694788694829E-07,-0.703125,0,0
-1.92007901205216E-05,2.55828376793943E-06,-0.703125,0,0
-1.98598609131295E-05,3.30893112732156E-06,-0.703125,0,0
-1.98701964109205E-05,2.28161511017788E-07,-0.703125,0,0
-2.07455977943027E-05,-1.59425678702974E-06,-0.703125,0,0
-2.03215240617283E-05,-6.7619691890286E-07,-0.703125,0,0
-2.1093317627674E-05,-8.84599103301298E-07,-0.703125,0,0
-2.15897089219652E-05,-1.91629123946768E-06,-0.703125,0,0
-2.17902179429075E-05,-1.62398850989121E-06,-0.703125,0,0
-2.12120794458315E-05,-1.78796665295522E-06,-0.703125,0,0
-2.06198219530052E-05,-4.71675230073743E-06,-0.703125,0,0
-1.60770232469076E-05,-3.37569599651033E-06,-0.703125,0,0
-2.177026544814E-05,-2.10671987588285E-06,-0.703125,0,0
-1.42446306199417E-05,-1.29234570067638E-06,-0.703125,0,0
-1.66630579769844E-05,-6.96439883540734E-06,-0.703125,0,0
-1.23755326058017E-05,-6.57761165712145E-06,-0.703125,0,0
-1.47865303006256E-05,-5.32691774424165E-06,-0.703125,0,0
-1.50345495057991E-05,-4.25281905336306E-06,-0.703125,0,0
-1.76434605236864E-05,-6.17059959040489E-06,-0.703125,0,0
-1.67779162438819E-05,-5.70749762118794E-06,-0.703125,0,0
-1.61118077812716E-05,-4.58738304587314E-06,-0.703125,0,0
-1.63768818310928E-05,-4.44080114903045E-06,-0.703125,0,0
-1.73218468262348E-05,-4.10557458963012E-06,-0.703125,0,0
-1.9467970560072E-05,-5.42628367838915E-06,-0.703125,0,0
-1.92783099919325E-05,-9.4558981800219E-06,-0.703125,0,0
-2.04582556762034E-05,-1.39683024826809E-05,-0.703125,0,0
-1.97774261323502E-05,-1.41658974825987E-05,-0.703125,0,0
-2.06047279789345E-05,-1.2488037100411E-05,-0.703125,0,0
-1.9810226149275E-05,-1.02409949249704E-05,-0.703125,0,0
-2.09405261557549E-05,-9.46845102589577E-06,-0.703125,0,0
-2.0338917238405E-05,-9.93788216874236E-06,-0.703125,0,0
-2.05108408408705E-05,-1.13059932118631E-05,-0.703125,0,0
-1.95783795788884E-05,-9.7898027888732E-06,-0.703125,0,0
-2.04691514227306E-05,-7.98810106061865E-06,-0.703125,0,0
-1.98183915927075E-05,-7.31492900740705E-06,-0.703125,0,0
-1.85777953447541E-05,-6.05327204539208E-06,-0.703125,0,0
-1.79452526936075E-05,-2.00998078980774E-06,-0.703125,0,0
-1.80859187821625E-05,2.76666514764656E-06,-0.703125,0,0
-1.51260746861226E-05,1.73335297404265E-06,-0.703125,0,0
-2.13339644687949E-05,-7.56314904037936E-08,-0.703125,0,0
-1.65753372129984E-05,-3.58483657691977E-06,-0.703125,0,0
-2.07782122743083E-05,-3.87228010367835E-06,-0.703125,0,0
-1.64531847985927E-05,-6.08246273259283E-06,-0.703125,0,0
-1.74094857356977E-05,-6.97884252076619E-06,-0.703125,0,0
-1.62317646754673E-05,-6.89498847350478E-06,-0.703125,0,0
-1.84113214345416E-05,-4.76905097457347E-06,-0.703125,0,0
-1.84777672984637E-05,-5.95209212406189E-06,-0.703125,0,0
-1.76227349584224E-05,-7.65051481721457E-06,-0.703125,0,0
-1.69591203302844E-05,-5.52336769032991E-06,-0.703125,0,0
-1.70411258295644E-05,-2.50552920988412E-06,-0.703125,0,0
-1.95926113519818E-05,-7.93126844200742E-07,-0.703125,0,0
-1.9751150830416E-05,-5.14346368163388E-07,-0.703125,0,0
-1.98818179342197E-05,7.42119752317194E-08,-0.703125,0,0
-1.72636482602684E-05,6.46113733182574E-07,-0.703125,0,0
-1.62598989845719E-05,1.4663120282421E-06,-0.703125,0,0
-1.56362239067676E-05,1.54600661517179E-06,-0.703125,0,0
-1.81092418642947E-05,6.65058337290247E-07,-0.703125,0,0
-1.90036626008805E-05,-1.71577482888097E-06,-0.703125,0,0
-2.05847354664002E-05,-3.81028257834259E-06,-0.703125,0,0
-1.99707083083922E-05,-5.43237047168077E-06,-0.703125,0,0
-1.9032157069887E-05,-6.67071844873135E-06,-0.703125,0,0
-1.80885799636599E-05,-5.36209699930623E-06,-0.703125,0,0
-1.92136030818801E-05,-2.96206303573854E-06,-0.703125,0,0
-2.03123963729013E-05,-4.26996484748088E-06,-0.703125,0,0
-1.99811656784732E-05,-6.24095173407113E-06,-0.703125,0,0
-1.62038322741864E-05,-4.05086211685557E-06,-0.703125,0,0
-2.22359794861404E-05,-2.81431834991963E-06,-0.703125,0,0
-1.55243033077568E-05,2.14910073736974E-06,-0.703125,0,0
-2.01084294531029E-05,3.1788088108442E-06,-0.703125,0,0
-1.79923281393712E-05,5.03827186548733E-06,-0.703125,0,0
-2.0099374523852E-05,2.72683178081934E-06,-0.703125,0,0
-1.8377539163339E-05,2.61132890955196E-06,-0.703125,0,0
-2.01778202608693E-05,7.69596454119892E-07,-0.703125,0,0
-1.96134478755994E-05,3.51741363147084E-07,-0.703125,0,0
-1.95907541638007E-05,2.04389436930796E-07,-0.703125,0,0
-2.0008674255223E-05,-8.89091097633354E-07,-0.703125,0,0
-1.90245755220531E-05,-1.72287639088609E-06,-0.703125,0,0
-1.86165289051132E-05,-2.7903588488698E-06,-0.703125,0,0
-1.73716762219556E-05,-4.36429718320142E-06,-0.703125,0,0
-1.82403091457672E-05,-8.03366310719866E-06,-0.703125,0,0
-1.78234786289977E-05,-1.02382964541903E-05,-0.703125,0,0
-2.00287522602594E-05,-1.08349659058149E-05,-0.703125,0,0
-2.00938702619169E-05,-9.41858979786048E-06,-0.703125,0,0
-2.02372793864924E-05,-8.40352640807396E-06,-0.703125,0,0
-1.82256644620793E-05,-6.924674835318E-06,-0.703125,0,0
-1.87756959348917E-05,-5.19651348440675E-06,-0.703125,0,0
-1.87173263839213E-05,-2.39591713580012E-06,-0.703125,0,0
-1.88109170267126E-05,-1.79631229002553E-06,-0.703125,0,0
-1.7633114111959E-05,-3.13899249704264E-06,-0.703125,0,0
-1.77152833202854E-05,-5.74896057514707E-06,-0.703125,0,0
-1.885978053906E-05,-6.72837950332905E-06,-0.703125,0,0
-1.96176588360686E-05,-4.16201373809599E-06,-0.703125,0,0
-1.64841057994636E-05,-9.71555550677294E-07,-0.703125,0,0
-2.3666807464906E-05,-2.38968323174049E-06,-0.703125,0,0
-1.79872076842003E-05,-6.76295996981935E-07,-0.703125,0,0
-2.16371590795461E-05,4.24598874815274E-06,-0.703125,0,0
-1.8449078197591E-05,5.80461573918001E-06,-0.703125,0,0
-2.15716663660714E-05,3.07740515381738E-06,-0.703125,0,0
-2.07338180189254E-05,7.96837412053719E-07,-0.703125,0,0
-2.15390318771824E-05,5.13084557951515E-07,-0.703125,0,0
-1.99381738639204E-05,2.27023474508314E-06,-0.703125,0,0
-1.84831624210346E-05,2.42427381635935E-06,-0.703125,0,0
-1.74135057022795E-05,-5.93389586356352E-08,-0.703125,0,0
-1.65140136232367E-05,-1.99402370526514E-06,-0.703125,0,0
-1.74312681338051E-05,-2.38311713474104E-06,-0.703125,0,0
-1.79174512595637E-05,-2.52180211646191E-06,-0.703125,0,0
-2.03210220206529E-05,-3.61448223884508E-06,-0.703125,0,0
-2.01564143935684E-05,-5.22432765137637E-06,-0.703125,0,0
-2.05117503355723E-05,-6.83438338455744E-06,-0.703125,0,0
-1.89104030141607E-05,-6.98622397976578E-06,-0.703125,0,0
-1.91905110114021E-05,-5.69143730899668E-06,-0.703125,0,0
-1.78256359504303E-05,-5.10313202539692E-06,-0.703125,0,0
-1.7805161405704E-05,-5.34363789483905E-06,-0.703125,0,0
-1.67853595485212E-05,-6.10959932600963E-06,-0.703125,0,0
-1.73551743500866E-05,-6.50817401037784E-06,-0.703125,0,0
-1.77189667738276E-05,-5.56354689251748E-06,-0.703125,0,0
-1.87246951099951E-05,-4.42432792624459E-06,-0.703125,0,0
-1.94765816559084E-05,-4.81229744764278E-06,-0.703125,0,0
-1.91381095646648E-05,-7.43508735467913E-06,-0.703125,0,0
-1.40365973493317E-05,-6.79495951771969E-06,-0.703125,0,0
-1.96563341887668E-05,-7.583737897221E-06,-0.703125,0,0
-1.54542140080594E-05,-1.39855774250464E-06,-0.703125,0,0
-1.97845147340558E-05,-2.45502474172099E-06,-0.703125,0,0
-1.67414982570335E-05,-1.98342968360521E-06,-0.703125,0,0
-1.8397800886305E-05,-6.24447409336426E-07,-0.703125,0,0
-1.61237840075046E-05,2.85527175947209E-06,-0.703125,0,0
-1.62448031915119E-05,2.07491052606201E-06,-0.703125,0,0
-1.49811558003421E-05,8.33210606288048E-07,-0.703125,0,0
-1.47928913065698E-05,3.53245752648945E-08,-0.703125,0,0
-1.53978689922951E-05,3.18114501851596E-07,-0.703125,0,0
-1.50815230881562E-05,3.56711723270564E-07,-0.703125,0,0
-1.53133787534898E-05,-6.80234279570868E-07,-0.703125,0,0
-1.41488708322868E-05,-5.00408646075812E-07,-0.703125,0,0
-1.51669200931792E-05,-9.36076560265064E-07,-0.703125,0,0
-1.49724683069508E-05,-2.55305621976731E-06,-0.703125,0,0
-1.61140869749943E-05,-4.07577090300038E-06,-0.703125,0,0
-1.56646347022615E-05,-8.48003992359736E-07,-0.703125,0,0
-1.68775059137261E-05,3.56829104930512E-06,-0.703125,0,0
-1.70123112184228E-05,5.75542935621343E-06,-0.703125,0,0
-1.77518759301165E-05,3.17564399665571E-06,-0.703125,0,0
-1.66816789715085E-05,5.10528138875088E-07,-0.87890625,0,0
-1.6466163287987E-05,-2.22507355829293E-06,-0.87890625,0,0
-1.62314245244488E-05,-3.22756409332214E-06,-0.87890625,0,0
-1.7063368431991E-05,-1.2528572597148E-06,-0.87890625,0,0
-1.81752384378342E-05,3.08872654386505E-06,-0.87890625,0,0
-1.89548009075224E-05,8.04930823505856E-06,-0.87890625,0,0
-1.55303041537991E-05,9.90059561445378E-06,-0.87890625,0,0
-2.13929670280777E-05,1.25836459119455E-05,-0.87890625,0,0
-1.51108033605851E-05,5.78722529098741E-06,-0.87890625,0,0
-1.84295477083651E-05,1.01007590274094E-05,-0.87890625,0,0
-1.49404149851762E-05,1.18333555292338E-05,-0.87890625,0,0
-1.8143446141039E-05,1.11441577246296E-05,-0.87890625,0,0
-1.81697887455812E-05,6.52117569188704E-06,-0.87890625,0,0
-1.98929192265496E-05,5.23107883054763E-06,-0.87890625,0,0
-1.9121112927678E-05,5.94314815316466E-06,-0.87890625,0,0
-1.93396081158426E-05,9.00156555871945E-06,-0.87890625,0,0
-2.03110557777109E-05,1.00716288216063E-05,-0.87890625,0,0
-1.99862115550786E-05,8.99674614629475E-06,-0.87890625,0,0
-2.03922936634626E-05,7.85150859883288E-06,-0.87890625,0,0
-1.91448652913095E-05,5.03501632920234E-06,-0.87890625,0,0
-2.03691197384615E-05,3.94512608181685E-06,-0.87890625,0,0
-2.0183304513921E-05,4.71725707029691E-06,-0.87890625,0,0
-2.08052206289722E-05,7.10615404386772E-06,-0.87890625,0,0
-1.93435007531662E-05,5.70079919270938E-06,-0.87890625,0,0
-1.99081496248255E-05,3.32104036715464E-06,-0.87890625,0,0
-1.97236295207404E-05,4.63159182118034E-07,-0.87890625,0,0
-2.10327289096313E-05,1.06221648366045E-06,-0.87890625,0,0
-2.0697418221971E-05,4.35690344602335E-06,-0.87890625,0,0
-2.05040541914059E-05,6.65487732476322E-06,-0.87890625,0,0
-2.01722141355276E-05,5.5162317948998E-06,-0.87890625,0,0
-2.04094922082732E-05,3.60020248990622E-06,-0.87890625,0,0
-2.04265888896771E-05,3.25461968486707E-07,-0.87890625,0,0
-2.06315307877958E-05,-2.81101370092074E-06,-0.87890625,0,0
-1.67539528774796E-05,-3.35641448145907E-06,-0.87890625,0,0
-2.32682104979176E-05,-1.20074162168748E-06,-0.87890625,0,0
-1.73859298229218E-05,2.83781605503464E-06,-0.87890625,0,0
-2.28236549446592E-05,-1.04357741292915E-06,-0.87890625,0,0
-2.06041659112088E-05,-3.05950698020752E-06,-0.87890625,0,0
-2.35058832913637E-05,-4.51609002993791E-06,-0.87890625,0,0
-2.1378147721407E-05,-4.03452941100113E-06,-0.87890625,0,0
-2.12456161534647E-05,-4.56420502814581E-06,-0.87890625,0,0
-2.00190625037067E-05,-3.46801311934541E-06,-0.87890625,0,0
-1.98463330889354E-05,-4.11158316637739E-06,-0.87890625,0,0
-1.92857423826354E-05,-5.66702237847494E-06,-0.87890625,0,0
-1.76708726939978E-05,-6.5072817960754E-06,-0.87890625,0,0
-1.72856598510407E-05,-6.51348409519414E-06,-0.87890625,0,0
-1.5874889868428E-05,-5.37711048309575E-06,-0.87890625,0,0
-1.62490341608645E-05,-7.08712286723312E-06,-0.87890625,0,0
-1.48254539453774E-05,-9.60171109909425E-06,-0.87890625,0,0
-1.5824536603759E-05,-1.1006472959707E-05,-0.87890625,0,0
-1.56852420332143E-05,-9.3810522230342E-06,-0.87890625,0,0
-1.76675512193469E-05,-8.30712451715954E-06,-0.87890625,0,0
-1.70958101080032E-05,-7.79354286351008E-06,-0.87890625,0,0
-1.69148297572974E-05,-7.14252291800221E-06,-0.87890625,0,0
-1.61932257469743E-05,-5.62975310458569E-06,-0.87890625,0,0
-1.66731533681741E-05,-5.3871126510785E-06,-0.87890625,0,0
-1.6453763237223E-05,-4.35054244007915E-06,-0.87890625,0,0
-1.66773570526857E-05,-4.4658113438345E-06,-0.87890625,0,0
-1.61659881996457E-05,-6.96637107466813E-06,-0.87890625,0,0
-1.64809698617319E-05,-9.93662615655921E-06,-0.87890625,0,0
-1.48594035636052E-05,-1.02057083495311E-05,-0.87890625,0,0
-2.12034574360587E-05,-1.22798446682282E-05,-0.87890625,0,0
-1.56567966769217E-05,-4.78124502478749E-06,-0.87890625,0,0
-1.85870867426274E-05,-6.20535183770699E-06,-0.87890625,0,0
-1.51801150423125E-05,-5.75462536289706E-06,-0.87890625,0,0
-1.72295476659201E-05,-8.20833156467415E-06,-0.87890625,0,0
-1.70959574461449E-05,-5.89711953580263E-06,-0.87890625,0,0
-1.93173327716067E-05,-5.75167632632656E-06,-0.87890625,0,0
-1.8988763258676E-05,-6.19111460764543E-06,-0.87890625,0,0
-1.78083755599801E-05,-7.50446497477242E-06,-0.87890625,0,0
-1.6554487956455E-05,-7.20179696145351E-06,-0.87890625,0,0
-1.52045868162531E-05,-3.79588755095028E-06,-0.87890625,0,0
-1.53306446009083E-05,-3.21476545650512E-06,-0.87890625,0,0
-1.55192174133845E-05,-4.84014799440047E-06,-0.87890625,0,0
-1.8047503544949E-05,-7.21603373676771E-06,-0.87890625,0,0
-1.85551980393939E-05,-8.29503187560476E-06,-0.87890625,0,0
-1.94736712728627E-05,-1.34126530610956E-05,-0.87890625,0,0
-1.8141909094993E-05,-1.67299131135223E-05,-0.87890625,0,0
-1.87886143976357E-05,-1.62864071171498E-05,-0.87890625,0,0
-1.89944457815727E-05,-1.37845700010075E-05,-0.87890625,0,0
-1.96537039300893E-05,-1.29681902762968E-05,-0.87890625,0,0
-1.80646293301834E-05,-1.12186407932313E-05,-0.87890625,0,0
-1.77785568666877E-05,-1.10536984720966E-05,-0.87890625,0,0
-1.77382335095899E-05,-9.67174401012016E-06,-0.87890625,0,0
-1.9299091945868E-05,-6.87592500980827E-06,-0.87890625,0,0
-1.97502595256083E-05,-6.6105440055253E-06,-0.87890625,0,0
-1.89247002708726E-05,-7.0740566116001E-06,-0.87890625,0,0
-1.56590322148986E-05,-2.87782722807606E-06,-0.87890625,0,0
-2.22513426706428E-05,-2.73307750831009E-06,-0.87890625,0,0
-1.58258881128859E-05,-9.48202625750127E-07,-0.87890625,0,0
-1.89246475201799E-05,8.24110202302109E-07,-0.87890625,0,0
-1.65443343576044E-05,5.33542561242939E-06,-0.87890625,0,0
-2.03532763407566E-05,7.28010218153941E-06,-0.87890625,0,0
-1.94708900380647E-05,9.62760805123253E-06,-0.87890625,0,0
-1.99287351279054E-05,6.41510132481926E-06,-0.87890625,0,0
-1.91871295101009E-05,2.69019324150577E-06,-0.87890625,0,0
-1.95007141883252E-05,1.45318108479842E-06,-0.87890625,0,0
-2.0733090423164E-05,1.86516831490735E-06,-0.87890625,0,0
-2.08441160793882E-05,4.35491392636322E-06,-0.87890625,0,0
-2.1907952032052E-05,6.69846303935628E-06,-0.87890625,0,0
-2.09269346669316E-05,7.62956005928572E-06,-0.87890625,0,0
-2.10058242373634E-05,7.22712820788729E-06,-0.87890625,0,0
-2.02423525479389E-05,8.33654303278308E-06,-0.87890625,0,0
-2.12505347008118E-05,9.27358814806212E-06,-0.87890625,0,0
-2.02566570806084E-05,9.01414841791848E-06,-0.87890625,0,0
-2.07035536732292E-05,6.77062871545786E-06,-0.87890625,0,0
-1.99301521206507E-05,5.09546225657687E-06,-0.87890625,0,0
-2.05084124900168E-05,3.39595476361865E-06,-0.87890625,0,0
-2.0028344806633E-05,3.95604683944839E-06,-0.87890625,0,0
-1.97574099729536E-05,5.63717094337335E-06,-0.87890625,0,0
-1.89955462701619E-05,5.1318252189958E-06,-0.87890625,0,0
-1.8770391761791E-05,3.18434490509389E-06,-0.87890625,0,0
-1.88372960110428E-05,3.01692739412829E-06,-0.87890625,0,0
-1.87407167686615E-05,3.03659612654883E-06,-0.87890625,0,0
-1.48515136970673E-05,1.18314190444835E-07,-0.87890625,0,0
-2.06865915970411E-05,-1.89141724149522E-06,-0.87890625,0,0
-1.53894688992295E-05,-3.17928402182588E-06,-0.87890625,0,0
-2.00891299755313E-05,-2.57079909715685E-06,-0.87890625,0,0
-1.8731618183665E-05,-3.65375717592542E-06,-0.87890625,0,0
-2.2377464119927E-05,-3.05639946418523E-06,-0.87890625,0,0
-2.11603073694278E-05,-2.08726146411209E-06,-0.87890625,0,0
-2.13306557270698E-05,-2.63343417827855E-06,-0.87890625,0,0
-2.00219583348371E-05,-5.12746191816404E-06,-0.87890625,0,0
-1.9730321582756E-05,-7.35446838007192E-06,-0.87890625,0,0
-1.97509416466346E-05,-8.76110607350711E-06,-0.87890625,0,0
-1.8589442333905E-05,-9.09471509658033E-06,-0.87890625,0,0
-1.8517619537306E-05,-8.25040842755698E-06,-0.87890625,0,0
-1.73249627550831E-05,-6.60416662867647E-06,-0.87890625,0,0
-1.83012562047224E-05,-4.32970819019829E-06,-0.87890625,0,0
-1.76244520844193E-05,-3.8271609810181E-06,-0.87890625,0,0
-1.75568857230246E-05,-5.50136610399932E-06,-0.87890625,0,0
-1.55361976794666E-05,-6.41164115222637E-06,-0.87890625,0,0
-1.58036600623745E-05,-3.58779789166874E-06,-0.87890625,0,0
-1.57560825755354E-05,1.77337710738357E-06,-0.87890625,0,0
-1.67812268045964E-05,5.57403336642892E-06,-0.87890625,0,0
-1.60055878950516E-05,4.00817225454375E-06,-0.87890625,0,0
-1.57222311827354E-05,-8.50376352445892E-07,-0.87890625,0,0
-1.50963633132051E-05,-4.13795896747615E-06,-0.87890625,0,0
-1.56035039253766E-05,-3.80632400265313E-06,-0.87890625,0,0
-1.60056897584582E-05,-2.75722368314746E-06,-0.87890625,0,0
-1.66100780916167E-05,-3.82202097171103E-06,-0.87890625,0,0
-1.47134178405395E-05,-4.1936177694879E-06,-0.87890625,0,0
-2.10207617783453E-05,-4.18388117395807E-06,-0.87890625,0,0
-1.67633497767383E-05,-2.12867303162056E-06,-0.87890625,0,0
-2.15159871004289E-05,-4.11475230066571E-06,-0.87890625,0,0
-1.83948450285243E-05,3.75826573417726E-07,-0.87890625,0,0
-1.9173003238393E-05,3.53646782969008E-06,-0.87890625,0,0
-1.65947694767965E-05,3.03008778246294E-06,-0.87890625,0,0
-1.65697747434024E-05,-1.42379860790243E-06,-0.87890625,0,0
-1.56888272613287E-05,-3.08966514239728E-06,-0.87890625,0,0
-1.6134779798449E-05,-2.388867414993E-06,-0.87890625,0,0
-1.65203382493928E-05,-1.56021985731059E-06,-0.87890625,0,0
-1.6597985450062E-05,-1.87210434887675E-06,-0.87890625,0,0
-1.80872084456496E-05,-5.05915159010328E-06,-0.87890625,0,0
-1.84028231160482E-05,-7.93138769950019E-06,-0.87890625,0,0
-1.98686266230652E-05,-7.56727786210831E-06,-0.87890625,0,0
-1.86415927601047E-05,-3.78924369215383E-06,-0.87890625,0,0
-1.86212855624035E-05,-2.84569614450447E-06,-0.87890625,0,0
-1.74687029357301E-05,-3.92928950532223E-06,-0.87890625,0,0
-1.76795074366964E-05,-4.7641638047935E-06,-0.87890625,0,0
-1.64118519023759E-05,-4.60891351394821E-06,-0.87890625,0,0
-1.77046622411581E-05,-5.39659095011302E-06,-0.87890625,0,0
-1.83894462679746E-05,-6.12550047662808E-06,-0.87890625,0,0
-1.88451449503191E-05,-7.17086368240416E-06,-0.87890625,0,0
-1.87833211384714E-05,-8.03856892162003E-06,-0.87890625,0,0
-1.99182341020787E-05,-8.60836553329136E-06,-0.87890625,0,0
-1.99156056623906E-05,-7.8439761637128E-06,-0.87890625,0,0
-1.80538554559462E-05,-8.79478830029257E-06,-0.87890625,0,0
-1.30818270918098E-05,-8.57695795275504E-06,-0.87890625,0,0
-1.86978104466107E-05,-1.00857141660526E-05,-0.87890625,0,0
-1.43602555908728E-05,-2.19184130401118E-06,-0.87890625,0,0
-1.8371616533841E-05,7.58794556077191E-07,-0.87890625,0,0
-1.64588473126059E-05,3.65472192243033E-06,-0.87890625,0,0
-1.80486495082732E-05,3.95552319787384E-07,-0.87890625,0,0
-1.66904610523488E-05,2.46324225372518E-06,-0.87890625,0,0
-1.78093996510142E-05,4.93288371217204E-06,-0.87890625,0,0
-1.67480775417062E-05,7.48078946344322E-06,-0.87890625,0,0
-1.56274199980544E-05,7.68691825214773E-06,-0.87890625,0,0
-1.56143560161581E-05,5.1180745685997E-06,-0.87890625,0,0
-1.63422992045525E-05,2.31829199037747E-06,-0.87890625,0,0
-1.82489056896884E-05,5.60035118724045E-07,-0.87890625,0,0
-1.75229451997438E-05,2.357381845286E-06,-0.87890625,0,0
-1.75268505699933E-05,3.65957453141164E-06,-0.87890625,0,0
-1.67183170560747E-05,4.38021061199834E-06,-0.87890625,0,0
-1.77269957930548E-05,1.7530539935251E-06,-0.87890625,0,0
-1.73038097273093E-05,-6.21993308413948E-07,-0.87890625,0,0
-1.78198624780634E-05,-2.85792043541733E-06,-0.87890625,0,0
-1.71863212017342E-05,-2.42738883571292E-06,-0.87890625,0,0
-1.81128889380489E-05,-2.92534423351754E-06,-0.87890625,0,0
-1.84946384251816E-05,-2.07900643545145E-06,-0.87890625,0,0
-1.90800201380625E-05,9.35876869334606E-08,-0.87890625,0,0
-1.90129430848174E-05,1.44721320793906E-06,-0.87890625,0,0
-1.99679543584352E-05,1.68616475093586E-06,-0.87890625,0,0
-2.09037843887927E-05,1.1768557897085E-06,-0.87890625,0,0
-2.05704545805929E-05,8.86705663560861E-07,-0.87890625,0,0
-1.61998013936682E-05,7.97704899468954E-07,-0.87890625,0,0
-2.31616395467427E-05,2.62771141024132E-06,-0.87890625,0,0
-1.76136454683729E-05,2.71091403192258E-06,-0.87890625,0,0
-2.05945798370522E-05,-8.87425130713382E-07,-0.87890625,0,0
-1.67403086379636E-05,-3.70617703993048E-06,-0.87890625,0,0
-2.0523581042653E-05,-1.71281419625302E-06,-0.87890625,0,0
-2.06533622986171E-05,-6.87598003423773E-07,-0.87890625,0,0
-2.26585507334676E-05,-3.49128004017984E-06,-0.87890625,0,0
-2.17525357584236E-05,-6.73881550028455E-06,-0.87890625,0,0
-2.10553516808432E-05,-6.54277164358064E-06,-0.87890625,0,0
-2.08094552363036E-05,-3.38592985826836E-06,-0.87890625,0,0
-2.02793562493753E-05,-1.80366669155774E-06,-0.87890625,0,0
-2.07703214982757E-05,-2.51455685429391E-06,-0.87890625,0,0
-1.98856232600519E-05,-3.54479448105849E-06,-0.87890625,0,0
-2.07627763302298E-05,-6.55953817840782E-06,-0.87890625,0,0
-2.00928807316814E-05,-1.10205255623441E-05,-0.87890625,0,0
-2.11263231904013E-05,-1.27613611766719E-05,-0.87890625,0,0
-1.95283919310896E-05,-9.84413691185182E-06,-0.87890625,0,0
-1.95073280337965E-05,-5.17507987751742E-06,-0.87890625,0,0
-1.8298238501302E-05,-2.00149474949285E-06,-0.87890625,0,0
-1.85529770533321E-05,-1.11811118586047E-06,-0.87890625,0,0
-1.74878805410117E-05,-2.75405818683794E-06,-0.87890625,0,0
-1.79808412212878E-05,-5.8380865084473E-06,-0.87890625,0,0
-1.91875878954306E-05,-6.94674463375122E-06,-0.87890625,0,0
-2.06032345886342E-05,-5.88770808462868E-06,-0.87890625,0,0
-2.0027646314702E-05,-4.56515635960386E-06,-0.87890625,0,0
-1.90041209862102E-05,-1.53054395468644E-06,-0.87890625,0,0
-1.47119089888292E-05,1.23048778277735E-06,-0.87890625,0,0
-2.03655363293365E-05,1.73479668319487E-06,-0.87890625,0,0
-1.51733665916254E-05,1.84174928108405E-06,-0.87890625,0,0
-1.93413470697124E-05,2.15451905205555E-06,-0.87890625,0,0
-1.63279873959254E-05,-9.12650477857824E-07,-0.87890625,0,0
-1.90979317267193E-05,-3.62819628207944E-06,-0.87890625,0,0
-1.86829893209506E-05,-5.06267087985179E-06,-0.87890625,0,0
-1.97983954421943E-05,-6.24402628091048E-06,-0.87890625,0,0
-1.82761887117522E-05,-6.13801466897712E-06,-0.87890625,0,0
-1.68760161614046E-05,-4.86580574943218E-06,-0.87890625,0,0
-1.61867847054964E-05,-3.78508434550895E-06,-0.87890625,0,0
-1.5902809536783E-05,-2.69261659013864E-06,-0.87890625,0,0
-1.74321758095175E-05,1.55876719531989E-07,-0.87890625,0,0
-1.73669741343474E-05,1.39112682973064E-06,-0.87890625,0,0
-1.8241831639898E-05,1.13867999473882E-08,-0.87890625,0,0
-1.69754312082659E-05,-6.9690162263214E-07,-0.87890625,0,0
-1.75928998942254E-05,-8.79282026744477E-07,-0.87890625,0,0
-1.72030631802045E-05,-3.5247799132776E-06,-0.87890625,0,0
-1.76821231434587E-05,-4.59412694908679E-06,-0.87890625,0,0
-1.64119355758885E-05,-8.18575074390537E-07,-0.87890625,0,0
-1.77025376615347E-05,2.87884608951572E-06,-0.87890625,0,0
-1.85448934644228E-05,1.99661053557065E-06,-0.87890625,0,0
-1.94343847397249E-05,-1.48503988839366E-06,-0.87890625,0,0
-1.86788820428774E-05,-2.96199254989915E-06,-0.87890625,0,0
-1.85860699275509E-05,-1.47123273563921E-06,-0.87890625,0,0
-1.8837801690097E-05,-1.52666927988321E-06,-0.87890625,0,0
-1.85915232577827E-05,-5.66839480597992E-06,-0.87890625,0,0
-1.44312853080919E-05,-7.46921432437375E-06,-0.87890625,0,0
-2.18300338019617E-05,-1.09241445898078E-05,-0.87890625,0,0
-1.94365948118502E-05,-6.45242334940122E-06,-0.87890625,0,0
-2.37924068642315E-05,-5.69329904465121E-06,-0.87890625,0,0
-2.00507092813496E-05,-1.80151619133539E-06,-0.87890625,0,0
-2.10348825930851E-05,-3.33736011270958E-07,-0.87890625,0,0
-1.80755741894245E-05,3.29667528831123E-07,-0.87890625,0,0
-1.92312472790945E-05,-3.62313016921689E-07,-0.87890625,0,0
-1.94396416191012E-05,6.01041108438949E-07,-0.87890625,0,0
-1.88281064765761E-05,2.41594148064905E-06,-0.87890625,0,0
-1.78460159077076E-05,3.95734014091431E-06,-0.87890625,0,0
-1.73236257978715E-05,5.25152381669614E-06,-0.87890625,0,0
-1.89416387001984E-05,6.93405581841944E-06,-0.87890625,0,0
-1.9096654796158E-05,7.85719385021366E-06,-0.87890625,0,0
-2.01079401449533E-05,6.98322673997609E-06,-0.87890625,0,0
-1.8680651919567E-05,7.11295024302672E-06,-0.87890625,0,0
-1.88553240150213E-05,5.3158064474701E-06,-0.87890625,0,0
-1.73850530700292E-05,3.47369154951593E-06,-0.87890625,0,0
-1.6946105461102E-05,3.12064094032394E-06,-0.87890625,0,0
-1.60775689437287E-05,4.3505169742275E-06,-0.87890625,0,0
-1.78849149961025E-05,5.44223848919501E-06,-0.87890625,0,0
-1.81928025995148E-05,7.65084223530721E-06,-0.87890625,0,0
-1.80041552084731E-05,7.61665160098346E-06,-0.87890625,0,0
-1.79254111571936E-05,4.31539274359238E-06,-0.87890625,0,0
-1.89330403372878E-05,-1.20162474104291E-06,-0.87890625,0,0
-1.89509573829127E-05,-4.33589366366505E-06,-0.87890625,0,0
-1.79071539605502E-05,-5.41606686965679E-06,-0.87890625,0,0
-1.44417772389716E-05,-5.18074557476211E-06,-0.87890625,0,0
-2.03699055418838E-05,-7.08263723936398E-06,-0.87890625,0,0
-1.45690055433079E-05,-5.61094702788978E-06,-0.87890625,0,0
-1.73701992025599E-05,-7.71949908084935E-06,-0.87890625,0,0
-1.48495737448684E-05,-7.5942052717437E-06,-0.87890625,0,0
-1.76608282345114E-05,-8.25766892376123E-06,-0.87890625,0,0
-1.63941640494158E-05,-7.94038533058483E-06,-0.87890625,0,0
-1.77667698153527E-05,-9.74927206698339E-06,-0.87890625,0,0
-1.7836438928498E-05,-1.00805273177684E-05,-0.87890625,0,0
-1.84164655365748E-05,-9.26988832361531E-06,-0.87890625,0,0
-1.95549419004237E-05,-6.79485356158693E-06,-0.87890625,0,0
-1.884989978862E-05,-4.47563115812954E-06,-0.87890625,0,0
-1.85953358595725E-05,-2.03896320272179E-06,-0.87890625,0,0
-1.74139313457999E-05,3.57345015800092E-07,-0.87890625,0,0
-1.84462260222062E-05,-7.18486717232736E-07,-0.87890625,0,0
-1.78771188075189E-05,-3.3961089229706E-06,-0.87890625,0,0
-1.79178296093596E-05,-6.46091393718962E-06,-0.87890625,0,0
-1.6161257008207E-05,-6.49515823170077E-06,-0.87890625,0,0
-1.66483150678687E-05,-6.65103698338498E-06,-0.87890625,0,0
-1.71904139278922E-05,-6.47650131213595E-06,-0.87890625,0,0
-2.00105878320755E-05,-5.81932954446529E-06,-0.87890625,0,0
-2.19099147216184E-05,-4.47683169113589E-06,-0.87890625,0,0
-2.19975499931024E-05,-4.57442001788877E-06,-0.87890625,0,0
-1.99296155187767E-05,-4.48281844001031E-06,-0.87890625,0,0
-1.95903303392697E-05,-4.29558485848247E-06,-0.87890625,0,0
-2.03450090339174E-05,-3.41499435307924E-06,-0.87890625,0,0
-2.06995973712765E-05,-4.03789863412385E-06,-0.87890625,0,0
-1.70266193890711E-05,-6.27089366389555E-06,-0.87890625,0,0
-2.4048864361248E-05,-8.23214850242948E-06,-0.87890625,0,0
-1.67362341016997E-05,-4.07371999244788E-06,-0.87890625,0,0
-1.99177356989821E-05,-4.43029512098292E-06,-0.87890625,0,0
-1.77531182998791E-05,-2.77034541795729E-06,-0.87890625,0,0
-2.21082791540539E-05,-3.38129962074163E-06,-0.87890625,0,0
-2.10706311918329E-05,-4.97225073559093E-06,-0.87890625,0,0
-2.06435652216896E-05,-5.47035324416356E-06,-0.87890625,0,0
-1.89633246918675E-05,-3.31153387378436E-06,-0.87890625,0,0
-1.88612011697842E-05,-4.18490253650816E-06,-0.87890625,0,0
-1.90502541954629E-05,-5.48331217942177E-06,-0.87890625,0,0
-1.83635620487621E-05,-5.1593738135125E-06,-0.87890625,0,0
-1.9031034753425E-05,-5.80023151997011E-06,-0.87890625,0,0
-1.87928053492215E-05,-6.48641116640647E-06,-0.87890625,0,0
-1.94820240722038E-05,-7.16095064490219E-06,-0.87890625,0,0
-1.75884597410914E-05,-5.97772987021017E-06,-0.87890625,0,0
-1.72771487996215E-05,-4.50123252448975E-06,-0.87890625,0,0
-1.62678334163502E-05,-2.53483676715405E-06,-0.87890625,0,0
-1.78151622094447E-05,-2.40673625739873E-06,-0.87890625,0,0
-1.76828052644851E-05,-3.1624545044906E-06,-0.87890625,0,0
-1.88204139703885E-05,-4.04896672989707E-06,-0.87890625,0,0
-1.91265335161006E-05,-2.33097421187267E-06,-0.87890625,0,0
-1.94881176867057E-05,2.60977515154082E-07,-0.87890625,0,0
-1.78398895513965E-05,2.68293638328032E-06,-0.87890625,0,0
-1.81258419615915E-05,2.26812676373811E-06,-0.87890625,0,0
-1.89351612789324E-05,1.41124087349453E-06,-0.87890625,0,0
-1.89592392416671E-05,4.57325813840725E-06,-0.87890625,0,0
-1.53953969856957E-05,7.17705461283913E-06,-0.87890625,0,0
-2.18559653148986E-05,1.04249993455596E-05,-0.87890625,0,0
-1.68042679433711E-05,5.06222022522707E-06,-0.87890625,0,0
-2.08005676540779E-05,3.14459066430572E-06,-0.87890625,0,0
-1.72678010130767E-05,1.20625134059082E-06,-0.87890625,0,0
-2.02606825041585E-05,1.08909023310844E-06,-0.87890625,0,0
-2.00809517991729E-05,-2.92547815661237E-06,-0.87890625,0,0
-2.08929614018416E-05,-5.44562954019057E-06,-0.87890625,0,0
-1.87227542483015E-05,-5.33292313775746E-06,-0.87890625,0,0
-1.63569529831875E-05,-2.48946503234038E-06,-0.87890625,0,0
-1.46769662023871E-05,-1.55242616983742E-06,-0.87890625,0,0
-1.39177345772623E-05,-1.96071550817578E-06,-0.87890625,0,0
-1.57925078383414E-05,-1.84835835170816E-06,-0.87890625,0,0
-1.53088039951399E-05,-3.77241144633444E-06,-0.87890625,0,0
-1.59460469149053E-05,-6.23298910795711E-06,-0.87890625,0,0
-1.56632650032407E-05,-7.75404441810679E-06,-0.87890625,0,0
-1.78686041181209E-05,-6.52104426990263E-06,-0.87890625,0,0
-1.89230850082822E-05,-6.07185847911751E-06,-0.87890625,0,0
-2.15224845305784E-05,-6.14931923337281E-06,-0.87890625,0,0
-2.18318255065242E-05,-7.87332646723371E-06,-0.87890625,0,0
-2.20262882066891E-05,-8.62316210259451E-06,-0.87890625,0,0
-2.07605589821469E-05,-8.99809401744278E-06,-0.87890625,0,0
-2.03003182832617E-05,-8.45875456434442E-06,-0.87890625,0,0
-1.93111845874228E-05,-6.07050969847478E-06,-0.87890625,0,0
-1.9155437257723E-05,2.52763072694506E-08,-0.87890625,0,0
-1.96012297237758E-05,4.06361414206913E-06,-0.87890625,0,0
-1.94887925317744E-05,2.80734411717276E-06,-0.87890625,0,0
-1.63450386025943E-05,1.78675372808357E-06,-0.87890625,0,0
-2.30816804105416E-05,4.47111915491405E-06,-0.87890625,0,0
-1.71377505466808E-05,5.30353418071172E-06,-0.87890625,0,0
-2.0210782167851E-05,5.73626766708912E-06,-0.87890625,0,0
-1.54972585733049E-05,5.00330952490913E-06,-0.87890625,0,0
-1.73534353962168E-05,3.0120199880912E-06,-0.87890625,0,0
-1.57408012455562E-05,4.08315236199996E-06,-0.87890625,0,0
-1.66164118127199E-05,6.66237156110583E-06,-0.87890625,0,0
-1.55772922880715E-05,7.46538262319518E-06,-0.87890625,0,0
-1.5274385077646E-05,7.11469419911737E-06,-0.87890625,0,0
-1.60038562171394E-05,5.21091760674608E-06,-0.87890625,0,0
-1.62293872563168E-05,3.16839987135609E-06,-0.87890625,0,0
-1.67104044521693E-05,2.99341013487719E-06,-0.87890625,0,0
-1.49236693687271E-05,2.65566131929518E-06,-0.87890625,0,0
-1.53653818415478E-05,9.62223793976591E-07,-0.87890625,0,0
-1.50603100337321E-05,5.73060319197793E-08,-0.87890625,0,0
-1.70249986695126E-05,2.24398166714934E-10,-0.87890625,0,0
-1.71057836269028E-05,-7.68161385167332E-07,-0.87890625,0,0
-1.84682103281375E-05,-1.58740908773325E-06,-0.87890625,0,0
-1.7706068319967E-05,-1.28931276321964E-06,-0.87890625,0,0
-1.78516147570917E-05,-1.4356269275595E-06,-0.87890625,0,0
-1.72624822880607E-05,-2.94430242320232E-06,-0.87890625,0,0
-1.85183853318449E-05,-3.87452610084438E-06,-0.87890625,0,0
-1.93269006558694E-05,-4.42603277406306E-06,-0.87890625,0,0
-1.96774071810069E-05,-6.22159359409125E-06,-0.87890625,0,0
-1.91319777513854E-05,-8.88994691194966E-06,-0.87890625,0,0
-1.85060016519856E-05,-8.0215231719194E-06,-0.87890625,0,0
-1.49900461110519E-05,-3.11870167024608E-06,-0.87890625,0,0
-2.21935497393133E-05,-2.62334651779383E-06,-0.87890625,0,0
-1.84588643605821E-05,5.31512434065462E-08,-0.87890625,0,0
-2.19431203731801E-05,-8.85891438429098E-07,-0.87890625,0,0
-1.78858026629314E-05,1.8080285144606E-06,-0.87890625,0,0
-1.98594061657786E-05,2.59038847616466E-06,-0.87890625,0,0
-1.83880692929961E-05,1.52860741309269E-06,-0.87890625,0,0
-1.91843737411546E-05,-5.16356863045075E-07,-0.87890625,0,0
-1.81049672391964E-05,-1.10341056824836E-06,-0.87890625,0,0
-1.70507337315939E-05,-6.02016996253951E-07,-0.87890625,0,0
-1.67968082678271E-05,8.47776675527712E-07,-0.87890625,0,0
-1.71494357346091E-05,3.72444310414721E-06,-0.87890625,0,0
-1.85093413165305E-05,6.16313036516658E-06,-0.87890625,0,0
-1.70637449627975E-05,7.9067704064073E-06,-0.87890625,0,0
-1.68836068041855E-05,8.85159897734411E-06,-0.87890625,0,0
-1.51799677041708E-05,7.89679506851826E-06,-0.87890625,0,0
-1.54722310981015E-05,4.28237717642332E-06,-0.87890625,0,0
-1.55779343913309E-05,1.81274776878126E-06,-0.87890625,0,0
-1.80666283995379E-05,1.1758118034777E-06,-0.87890625,0,0
-1.83709435077617E-05,7.3794871013888E-07,-0.87890625,0,0
-1.92908082681242E-05,-3.15139629947225E-07,-0.87890625,0,0
-1.90709197340766E-05,-3.25996495575964E-07,-0.87890625,0,0
-1.95750581042375E-05,-2.05047354029375E-06,-0.87890625,0,0
-1.96560340555152E-05,-4.36369327871944E-06,-0.87890625,0,0
-1.93065188796027E-05,-4.45293699158356E-06,-0.87890625,0,0
-1.95486773009179E-05,-2.34808544519183E-06,-0.87890625,0,0
-2.05733704206068E-05,-8.49945479330927E-07,-0.87890625,0,0
-1.70209423231427E-05,2.69494904614476E-07,-0.87890625,0,0
-2.40549943555379E-05,-1.32250750084495E-06,-0.87890625,0,0
-1.76156991074095E-05,-5.09444043927942E-06,-0.87890625,0,0
-2.13657767744735E-05,-6.16563056610175E-06,-0.87890625,0,0
-1.81805389729561E-05,-5.20601815878763E-06,-0.87890625,0,0
-2.12339691643137E-05,-4.71252542411094E-06,-0.87890625,0,0
-1.94191015907563E-05,-5.43546320841415E-06,-0.87890625,0,0
-1.97200934053399E-05,-8.11978588899365E-06,-0.87890625,0,0
-1.74435335793532E-05,-9.31076647248119E-06,-0.87890625,0,0
-1.60181862156605E-05,-7.16356089469627E-06,-0.87890625,0,0
-1.67950256582117E-05,-4.07576590077952E-06,-0.87890625,0,0
-1.73051212186692E-05,-3.49887272932392E-06,-0.87890625,0,0
-1.84303480637027E-05,-4.21645700043882E-06,-0.87890625,0,0
-1.78993923327653E-05,-3.25937685374811E-06,-0.87890625,0,0
-1.94823751371587E-05,-1.39501503326755E-06,-0.87890625,0,0
-1.90341925190296E-05,-8.91018260062992E-07,-0.87890625,0,0
-1.97228928300319E-05,-3.50837308360497E-06,-0.87890625,0,0
-1.89041529665701E-05,-7.80699974711752E-06,-0.87890625,0,0
-2.07473876798758E-05,-1.02542690001428E-05,-0.87890625,0,0
-2.19641951844096E-05,-1.0055981874757E-05,-0.87890625,0,0
-2.38538086705375E-05,-8.76642207003897E-06,-0.87890625,0,0
-2.23467068281025E-05,-7.5912016654911E-06,-0.87890625,0,0
-2.07698212761898E-05,-6.57536202197662E-06,-0.87890625,0,0
-1.95535922102863E-05,-4.43722638010513E-06,-0.87890625,0,0
-2.07575940294191E-05,-2.97247470371076E-06,-0.87890625,0,0
-2.17703818634618E-05,-3.95773849959369E-06,-0.87890625,0,0
-2.10818252526224E-05,-3.7919310216239E-06,-0.87890625,0,0
-1.57987706188578E-05,-9.49923560256138E-07,-0.87890625,0,0
-2.15220825339202E-05,-7.01568353633775E-07,-0.87890625,0,0
-1.57772647071397E-05,-1.21143841624871E-06,-0.87890625,0,0
-2.08502478926675E-05,-4.66943674837239E-06,-0.87890625,0,0
-1.82400381163461E-05,-5.9725380197051E-06,-0.87890625,0,0
-2.0498082449194E-05,-4.24031168222427E-06,-0.87890625,0,0
-1.79482904059114E-05,4.91362527554884E-07,-0.87890625,0,0
-1.68118276633322E-05,4.09545782531495E-06,-0.87890625,0,0
-1.43068464240059E-05,4.95288895763224E-06,-0.87890625,0,0
-1.4563765944331E-05,5.04229183206917E-06,-0.87890625,0,0
-1.57279864652082E-05,5.55439555682824E-06,-0.87890625,0,0
-1.5920442820061E-05,5.73555098526413E-06,-0.87890625,0,0
-1.61909283633577E-05,4.74740181743982E-06,-0.87890625,0,0
-1.47815044329036E-05,1.91076492228603E-06,-0.87890625,0,0
-1.57565355038969E-05,-1.34432116283278E-06,-0.87890625,0,0
-1.50167843457893E-05,-2.7714656880562E-06,-0.87890625,0,0
-1.55223860929254E-05,-4.48374294137466E-06,-0.87890625,0,0
-1.3992598724144E-05,-5.96232302996214E-06,-0.87890625,0,0
-1.45287604027544E-05,-6.17327395957545E-06,-0.87890625,0,0
-1.43502174978494E-05,-5.58263536731829E-06,-0.87890625,0,0
-1.56016994878883E-05,-5.64490983379073E-06,-0.87890625,0,0
-1.52790616994025E-05,-6.32510636933148E-06,-0.87890625,0,0
-1.58576967805857E-05,-6.80853008816484E-06,-0.87890625,0,0
-1.45280500873923E-05,-5.58694591745734E-06,-0.87890625,0,0
-1.44411687870161E-05,-2.1748098788521E-06,-0.87890625,0,0
-1.56253227032721E-05,-9.40544452987524E-07,-0.87890625,0,0
-1.67581565619912E-05,-1.06088464235654E-06,-0.87890625,0,0
-1.43044362630462E-05,3.99686541641131E-07,-0.87890625,0,0
-2.10994294320699E-05,-2.43850286096858E-06,-0.87890625,0,0
-1.7652198948781E-05,-6.10130427958211E-06,-0.87890625,0,0
-2.32554484682623E-05,-3.91465891880216E-06,-0.87890625,0,0
-2.18253371713217E-05,-1.41329269354173E-06,-0.87890625,0,0
-2.36446776398225E-05,-1.78757795765705E-06,-0.87890625,0,0
-2.11296774068614E-05,-2.91243372885219E-06,-0.87890625,0,0
-2.00470130948815E-05,-2.99807970804977E-06,-0.87890625,0,0
-1.81208888534456E-05,-2.23695928980305E-06,-0.87890625,0,0
-1.81009236257523E-05,-2.20088600144663E-06,-0.87890625,0,0
-1.89207075891318E-05,-3.1435242817679E-06,-0.87890625,0,0
-1.86990891961614E-05,-3.95614233639208E-06,-0.87890625,0,0
-1.93688374565681E-05,-4.86141516375938E-06,-0.87890625,0,0
-1.91283761523664E-05,-6.22518018644769E-06,-0.87890625,0,0
-2.06028798857005E-05,-5.26537178302533E-06,-0.87890625,0,0
-2.05063643079484E-05,-1.34883907776384E-06,-0.87890625,0,0
-2.23260412894888E-05,1.68340773143427E-06,-0.87890625,0,0
-2.29121633310569E-05,1.26974634895305E-06,-0.87890625,0,0
-2.35196675930638E-05,-1.25023814234737E-06,-0.87890625,0,0
-2.23095830733655E-05,-5.18362503498793E-06,-0.87890625,0,0
-2.24361683649477E-05,-8.09766152087832E-06,-0.87890625,0,0
-2.12732356885681E-05,-8.08705863164505E-06,-0.87890625,0,0
-2.05586638912791E-05,-6.28773659627768E-06,-0.87890625,0,0
-2.02279188670218E-05,-2.68197982222773E-06,-0.87890625,0,0
-2.12027553061489E-05,-2.31807703698905E-07,-0.87890625,0,0
-2.16520475078141E-05,-4.02852856495883E-06,-0.87890625,0,0
-2.23645656660665E-05,-7.62388117436785E-06,-0.87890625,0,0
-1.87861132872058E-05,-6.38791470919386E-06,-0.87890625,0,0
-2.61806981143309E-05,-8.44717305881204E-06,-0.87890625,0,0
-1.79438538907561E-05,-4.95735002914444E-06,-0.87890625,0,0
-2.08261371881235E-05,-6.98436042512185E-06,-0.87890625,0,0
-1.66066183737712E-05,-7.30761985323625E-06,-0.87890625,0,0
-1.94995791389374E-05,-7.10663744030171E-06,-0.87890625,0,0
-1.71824067365378E-05,-3.67416487279115E-06,-0.87890625,0,0
-1.81066770892357E-05,-2.71529961537453E-06,-0.87890625,0,0
-1.79488470166689E-05,-2.07943207897188E-06,-0.87890625,0,0
-1.88080011866987E-05,-4.10931534133852E-06,-0.87890625,0,0
-1.89273268915713E-05,-6.40928192296997E-06,-0.87890625,0,0
-1.69536215253174E-05,-5.48012485523941E-06,-0.87890625,0,0
-1.57220365508692E-05,-3.94323251384776E-06,-0.87890625,0,0
-1.32594304886879E-05,-2.66729898612539E-06,-0.87890625,0,0
-1.37819115479942E-05,-3.43805004376918E-06,-0.87890625,0,0
-1.25546484923689E-05,-2.61671834778099E-06,-0.87890625,0,0
-1.32807572299498E-05,-3.64844510158946E-07,-0.87890625,0,0
-1.25214619401959E-05,2.68247367785079E-06,-0.87890625,0,0
-1.40758475026814E-05,4.20760716224322E-06,-0.87890625,0,0
-1.36845046654344E-05,5.02530656376621E-06,-0.87890625,0,0
-1.46327611219021E-05,3.71528108189523E-06,-0.87890625,0,0
-1.36413327709306E-05,2.7697740279109E-06,-0.87890625,0,0
-1.27188413898693E-05,6.53474444334279E-07,-0.87890625,0,0
-1.15133962026448E-05,-3.18855839509524E-08,-0.87890625,0,0
-1.2998878446524E-05,1.99302235159848E-06,-0.87890625,0,0
-1.55327270476846E-05,3.81117956749222E-06,-0.87890625,0,0
-1.78692243935075E-05,5.10238396600471E-06,-0.87890625,0,0
-1.64917582878843E-05,3.64541824637854E-06,-0.87890625,0,0
-2.39218770730076E-05,4.20426158598275E-06,-0.87890625,0,0
-1.8376944353804E-05,1.9478358481706E-08,-0.87890625,0,0
-2.16859552892856E-05,-1.738189439493E-06,-0.87890625,0,0
-1.93781033885898E-05,-4.99663110531401E-06,-0.87890625,0,0
-2.49422027991386E-05,-6.30534304946195E-06,-0.87890625,0,0
-2.6560799597064E-05,-6.82984227751149E-06,-0.87890625,0,0
-2.85518017335562E-05,-6.21894923824584E-06,-0.87890625,0,0
-2.75341517408378E-05,-5.87359954806743E-06,-0.87890625,0,0
-2.74114336207276E-05,-4.58779595646774E-06,-0.87890625,0,0
-2.65874077740591E-05,-3.10976656692219E-06,-0.87890625,0,0
-2.40415138250683E-05,-2.56291673395026E-06,-0.87890625,0,0
-2.27070322580403E-05,-2.6050008727907E-06,-0.87890625,0,0
-2.10284488275647E-05,-2.93126890937856E-06,-0.87890625,0,0
-2.23643946810625E-05,-2.24169730245194E-06,-0.87890625,0,0
-2.14920091821114E-05,-1.57172507897485E-06,-0.87890625,0,0
-2.09136687772116E-05,-2.45762475969968E-06,-0.87890625,0,0
-1.7706248399918E-05,-5.51221364730736E-06,-0.87890625,0,0
-1.69460327015258E-05,-6.2770523072686E-06,-0.87890625,0,0
-1.56978094310034E-05,-4.58707154393778E-06,-0.87890625,0,0
-1.52235606947215E-05,-2.64292111751274E-06,-0.87890625,0,0
-1.27627008623676E-05,-2.22010203287937E-06,-0.87890625,0,0
-1.10886321635917E-05,-3.28382566294749E-06,-0.87890625,0,0
-9.03898489923449E-06,-4.28240628025378E-06,-0.87890625,0,0
-8.83947177499067E-06,-2.28939757107582E-06,-0.87890625,0,0
-9.83767313300632E-06,-1.57697695613024E-06,-0.87890625,0,0
-1.11111648948281E-05,-3.25313362736779E-06,-0.87890625,0,0
-9.14654447115026E-06,-3.80167375624296E-06,-0.87890625,0,0
-1.21519851745688E-05,-8.58640760270646E-06,-0.87890625,0,0
-8.25420556793688E-06,-9.33028240979183E-06,-0.87890625,0,0
-1.09885113488417E-05,-7.50585695641348E-06,-0.87890625,0,0
-9.69336815614952E-06,-2.85583359982411E-06,-0.87890625,0,0
-1.14644035420497E-05,-1.51360580957771E-07,-0.87890625,0,0
-1.19317937787855E-05,-2.62147267449109E-07,-0.87890625,0,0
-1.40335941978265E-05,-2.20814877138764E-06,-0.87890625,0,0
-1.38216382765677E-05,-3.83355836675037E-06,-0.87890625,0,0
-1.26979703054531E-05,-4.403198545333E-06,-0.87890625,0,0
-1.13194237201242E-05,-4.84678957946016E-06,-0.87890625,0,0
-1.02041112768347E-05,-5.58416923013283E-06,-0.87890625,0,0
-1.12517964225844E-05,-3.47331456396205E-06,-0.87890625,0,0
-1.19879150588531E-05,1.19685273602954E-06,-0.87890625,0,0
-1.33076300699031E-05,3.06028891827737E-06,-0.87890625,0,0
-1.28799092635745E-05,-6.45380680452945E-07,-0.87890625,0,0
-1.34067540784599E-05,-5.55136375623988E-06,-0.87890625,0,0
-1.39308904181235E-05,-6.51069149171235E-06,-0.87890625,0,0
-1.58169677888509E-05,-4.08262667406234E-06,-0.87890625,0,0
-1.58970724442042E-05,-5.91633444457784E-08,-0.87890625,0,0
-1.68225269590039E-05,2.83843519355287E-06,-0.87890625,0,0
-1.86993602255825E-05,2.86964996121242E-06,-0.87890625,0,0
-2.13708663068246E-05,4.63427653585313E-07,-0.87890625,0,0
-2.23308543354506E-05,-6.01185661253112E-07,-0.87890625,0,0
-2.27028995141154E-05,6.41590986560914E-07,-0.87890625,0,0
-2.33967948588543E-05,1.80005122274451E-06,-0.87890625,0,0
-2.32646580116125E-05,3.96427640225738E-06,-0.87890625,0,0
-1.86369252332952E-05,5.28021155332681E-06,-0.87890625,0,0
-2.62629346252652E-05,6.26119253865909E-06,-0.87890625,0,0
-1.85455501195975E-05,-4.87315901409602E-07,-0.87890625,0,0
-2.29772304010112E-05,-7.28433315089205E-06,-0.87890625,0,0
-2.04278803721536E-05,-1.37765227918862E-05,-0.87890625,0,0
-2.41726411331911E-05,-1.08405283754109E-05,-0.87890625,0,0
-2.31675749091664E-05,-6.22315837972565E-06,-0.87890625,0,0
-2.43116646743147E-05,-2.35462971431843E-06,-0.87890625,0,0
-2.27861182793276E-05,-1.62717446983152E-06,-0.87890625,0,0
-2.23279002966592E-05,-6.10914071330626E-07,-0.87890625,0,0
-2.29797042266E-05,1.84240263934043E-06,-0.87890625,0,0
-2.275851147715E-05,4.00541148337652E-06,-0.52734375,0,0
-2.27974433073541E-05,5.01536169394967E-06,-0.52734375,0,0
-2.06201948458329E-05,3.48919706993911E-06,-0.52734375,0,0
-2.0423356545507E-05,1.30958227373412E-07,-0.52734375,0,0
-1.875654925243E-05,-4.78173842566321E-06,-0.52734375,0,0
-1.98361958609894E-05,-6.59032230032608E-06,-0.52734375,0,0
-1.96776436496293E-05,-5.81765971219284E-06,-0.52734375,0,0
-2.17547785723582E-05,-2.54722112913441E-06,-0.52734375,0,0
-2.24208233703393E-05,2.69327671276187E-07,-0.52734375,0,0
-2.42742298723897E-05,1.87304908649821E-06,-0.52734375,0,0
-2.37488111451967E-05,2.0601803498721E-06,-0.52734375,0,0
-2.3285760107683E-05,2.32822139878408E-06,-0.52734375,0,0
-2.29823599511292E-05,2.56745124715962E-06,-0.52734375,0,0
-2.45905030169524E-05,3.72818885807646E-06,-0.52734375,0,0
-2.47152365773218E-05,3.4458701065887E-06,-0.52734375,0,0
-2.37090989685385E-05,2.99763740940762E-07,-0.52734375,0,0
-1.93403102457523E-05,-2.0189634142298E-06,-0.52734375,0,0
-2.73391615337459E-05,-2.93234961645794E-07,-0.52734375,0,0
-1.96229302673601E-05,4.6598747758253E-06,-0.52734375,0,0
-2.39688633882906E-05,5.72597491554916E-06,-0.52734375,0,0
-2.13056391658029E-05,8.29762939247303E-06,-0.52734375,0,0
-2.45818337134551E-05,8.33464036986697E-06,-0.52734375,0,0
-2.14396641240455E-05,5.36086145075387E-06,-0.52734375,0,0
-2.18023706111126E-05,2.87168768409174E-06,-0.52734375,0,0
-2.12025624932721E-05,1.35839081849554E-06,-0.52734375,0,0
-2.14036590477917E-05,6.48388436275127E-07,-0.52734375,0,0
-2.22655926336301E-05,8.26673840492731E-07,-0.52734375,0,0
-2.29286815738305E-05,2.51846540777478E-06,-0.52734375,0,0
-2.51159181061666E-05,5.21001902598073E-06,-0.52734375,0,0
-2.40688932535704E-05,6.76842319080606E-06,-0.52734375,0,0
-2.40201152337249E-05,5.72903354623122E-06,-0.52734375,0,0
-2.20951824303484E-05,3.33556749865238E-06,-0.52734375,0,0
-2.30932764679892E-05,-5.48273192180204E-07,-0.52734375,0,0
-2.24065315705957E-05,-4.57537862530444E-06,-0.52734375,0,0
-2.3271079044207E-05,-7.45140141589218E-06,-0.52734375,0,0
-2.21707850869279E-05,-9.04029184312094E-06,-0.52734375,0,0
-2.26905995077686E-05,-9.3940798251424E-06,-0.52734375,0,0
-2.18220266106073E-05,-8.6627105702064E-06,-0.52734375,0,0
-2.13418024941348E-05,-9.48812066781102E-06,-0.52734375,0,0
-2.00197591766482E-05,-1.00606393971248E-05,-0.52734375,0,0
-2.02598730538739E-05,-8.41587188915582E-06,-0.52734375,0,0
-2.06745316972956E-05,-7.7816484918003E-06,-0.52734375,0,0
-2.0286810467951E-05,-8.26889754534932E-06,-0.52734375,0,0
-1.55289653775981E-05,-5.15973079018295E-06,-0.52734375,0,0
-2.0606483303709E-05,-6.18533431406831E-06,-0.52734375,0,0
-1.40886486406089E-05,-2.98477198157343E-06,-0.52734375,0,0
-1.8209395420854E-05,-3.23080780617602E-06,-0.52734375,0,0
-1.50934629346011E-05,-2.23964843826252E-06,-0.52734375,0,0
-1.765711203916E-05,-4.53567781733E-06,-0.52734375,0,0
-1.55085672304267E-05,-4.06865092372755E-06,-0.52734375,0,0
-1.58776238095015E-05,-3.02104081129073E-06,-0.52734375,0,0
-1.53189339471282E-05,1.17224892903778E-07,-0.52734375,0,0
-1.57635604409734E-05,2.30091200137394E-06,-0.52734375,0,0
-1.66562567756046E-05,2.14101191886584E-06,-0.52734375,0,0
-1.70774110301863E-05,-1.47053196997149E-06,-0.52734375,0,0
-1.8090415323968E-05,-7.09963569534011E-06,-0.52734375,0,0
-1.63495078595588E-05,-1.01086716313148E-05,-0.52734375,0,0
-1.52942593558691E-05,-9.05111664906144E-06,-0.52734375,0,0
-1.32921304611955E-05,-5.39356460649287E-06,-0.52734375,0,0
-1.46696511365008E-05,-5.37767800778965E-06,-0.52734375,0,0
-1.44039877341129E-05,-7.75369608163601E-06,-0.52734375,0,0
-1.50162859426928E-05,-1.04545606518514E-05,-0.52734375,0,0
-1.44032583193621E-05,-1.05342687675147E-05,-0.52734375,0,0
-1.56280129885999E-05,-8.79076469573192E-06,-0.52734375,0,0
-1.56789537868463E-05,-4.30922955274582E-06,-0.52734375,0,0
-1.69950926647289E-05,-2.58963314081484E-06,-0.52734375,0,0
-1.82333824341185E-05,-6.21001117906417E-06,-0.52734375,0,0
-1.89705860975664E-05,-1.0951740478049E-05,-0.52734375,0,0
-1.75709392351564E-05,-1.02023086583358E-05,-0.52734375,0,0
-1.68792794283945E-05,-4.8921810957836E-06,-0.52734375,0,0
-1.43118622872862E-05,5.28052623849362E-07,-0.52734375,0,0
-1.95122775039636E-05,9.19810076993599E-07,-0.52734375,0,0
-1.36005101012415E-05,-2.01514649234014E-06,-0.52734375,0,0
-1.67407943081344E-05,-4.83456551592099E-06,-0.52734375,0,0
-1.38978057293571E-05,-2.75223510470823E-06,-0.52734375,0,0
-1.70987623278052E-05,8.98344154620645E-08,-0.52734375,0,0
-1.71847841556882E-05,-4.92755987124838E-07,-0.52734375,0,0
-1.95851625903742E-05,-3.541198111634E-06,-0.52734375,0,0
-2.0129926269874E-05,-5.37509185960516E-06,-0.52734375,0,0
-2.02323499252088E-05,-3.65203231922351E-06,-0.52734375,0,0
-1.98902162082959E-05,-6.45732541215693E-07,-0.52734375,0,0
-1.86823363037547E-05,-4.16890593157859E-08,-0.52734375,0,0
-1.88289377547335E-05,-3.75558283849387E-06,-0.52734375,0,0
-1.79070138983661E-05,-7.62006447985186E-06,-0.52734375,0,0
-1.88325702765724E-05,-6.9205202635203E-06,-0.52734375,0,0
-1.8340095266467E-05,-4.20830792791094E-06,-0.52734375,0,0
-1.90718383237254E-05,-2.42675969275297E-06,-0.52734375,0,0
-1.73566313605988E-05,-1.96450650946645E-06,-0.52734375,0,0
-1.6907755707507E-05,-3.09622373606544E-06,-0.52734375,0,0
-1.6138164937729E-05,-3.82924599762191E-06,-0.52734375,0,0
-1.73273019754561E-05,-2.1482640022441E-06,-0.52734375,0,0
-1.7490419850219E-05,3.60545413968794E-07,-0.52734375,0,0
-1.75512795976829E-05,1.01597265711462E-06,-0.52734375,0,0
-1.65206674864748E-05,1.35902132569754E-06,-0.52734375,0,0
-1.62704418471549E-05,3.75415493181208E-06,-0.52734375,0,0
-1.54942172230221E-05,5.59401314603747E-06,-0.52734375,0,0
-1.46218008012511E-05,6.8330023168528E-06,-0.52734375,0,0
-1.15878874566988E-05,6.92908452037955E-06,-0.52734375,0,0
-1.64337980095297E-05,1.0146206477657E-05,-0.52734375,0,0
-1.28039955598069E-05,8.14360100775957E-06,-0.52734375,0,0
-1.59682931553107E-05,9.56581152422586E-06,-0.52734375,0,0
-1.39346766445669E-05,7.63833304517902E-06,-0.52734375,0,0
-1.62105770868948E-05,8.68772622197866E-06,-0.52734375,0,0
-1.42949320434127E-05,7.06703849573387E-06,-0.52734375,0,0
-1.3513312296709E-05,6.25079383098637E-06,-0.52734375,0,0
-1.31331516968203E-05,6.69810106046498E-06,-0.52734375,0,0
-1.45159483508905E-05,9.26861775951693E-06,-0.52734375,0,0
-1.63034619617974E-05,1.26761879073456E-05,-0.52734375,0,0
-1.70783732755808E-05,1.37212309709867E-05,-0.52734375,0,0
-1.85733952093869E-05,1.0231871783617E-05,-0.52734375,0,0
-1.89046204468468E-05,4.70365876026335E-06,-0.52734375,0,0
-1.94894728338113E-05,1.74020442500478E-06,-0.52734375,0,0
-1.84097443707287E-05,-1.1830459243356E-06,-0.52734375,0,0
-1.79594262590399E-05,-2.87051102532132E-06,-0.52734375,0,0
-1.56659571075579E-05,-3.6893725336995E-06,-0.52734375,0,0
-1.51300546349376E-05,-2.65302060142858E-06,-0.52734375,0,0
-1.46219463204034E-05,-2.53405050898436E-06,-0.52734375,0,0
-1.58912371261977E-05,-2.98734403259004E-06,-0.52734375,0,0
-1.64318225870375E-05,-4.39435962107382E-06,-0.52734375,0,0
-1.74789875018178E-05,-3.22116238749004E-06,-0.52734375,0,0
-1.8231383364764E-05,3.25924418120849E-07,-0.52734375,0,0
-1.89467227755813E-05,5.67791039429721E-06,-0.52734375,0,0
-1.86729503184324E-05,9.1892461568932E-06,-0.52734375,0,0
-1.82770763785811E-05,9.85216865956318E-06,-0.52734375,0,0
-1.5382831406896E-05,3.92878564525745E-06,-0.52734375,0,0
-2.16044063563459E-05,1.16386195259111E-06,-0.52734375,0,0
-1.64123266586103E-05,-3.25022097058536E-06,-0.52734375,0,0
-2.111723915732E-05,-1.73761884525447E-06,-0.52734375,0,0
-1.89940110431053E-05,-4.56425641459646E-06,-0.52734375,0,0
-2.2339605493471E-05,-5.20780713486602E-06,-0.52734375,0,0
-2.10616417462006E-05,-7.38553217161098E-06,-0.52734375,0,0
-2.23785755224526E-05,-5.35146182301105E-06,-0.52734375,0,0
-2.28410226554843E-05,-4.19939487983356E-06,-0.52734375,0,0
-2.43694066739408E-05,-5.65803566132672E-06,-0.52734375,0,0
-2.63009114860324E-05,-8.31789748190204E-06,-0.52734375,0,0
-2.65329399553593E-05,-1.04626533357077E-05,-0.52734375,0,0
-2.71802400675369E-05,-1.01293226180132E-05,-0.52734375,0,0
-2.61711629718775E-05,-8.06074513093336E-06,-0.52734375,0,0
-2.71188437181991E-05,-4.65963557871873E-06,-0.52734375,0,0
-2.6018964490504E-05,-4.44737906946102E-06,-0.52734375,0,0
-2.57246938417666E-05,-5.72644603380468E-06,-0.52734375,0,0
-2.21789596253075E-05,-8.53059646033216E-06,-0.52734375,0,0
-1.8846974853659E-05,-1.03004840639187E-05,-0.52734375,0,0
-1.48538856592495E-05,-1.02212334240903E-05,-0.52734375,0,0
-1.3126952580933E-05,-6.1139949139033E-06,-0.52734375,0,0
-1.03062375274021E-05,-3.27417501466698E-06,-0.52734375,0,0
-8.13199585536495E-06,-4.43929866378312E-06,-0.52734375,0,0
-7.0174223765207E-06,-8.62211345520336E-06,-0.52734375,0,0
-8.17545060272096E-06,-1.07757923615281E-05,-0.52734375,0,0
-8.27861003926955E-06,-1.07295245470596E-05,-0.52734375,0,0
-7.84646090323804E-06,-9.12956056708936E-06,-0.52734375,0,0
-6.97641826263862E-06,-6.10297092862311E-06,-0.52734375,0,0
-1.11520794234821E-05,-7.28350732970284E-06,-0.52734375,0,0
-1.06004272311111E-05,-2.49291133513907E-06,-0.52734375,0,0
-1.43515671879868E-05,-4.22070206695935E-06,-0.52734375,0,0
-1.61792268045247E-05,-4.44909437646857E-06,-0.52734375,0,0
-1.8632186765899E-05,-5.78966228204081E-06,-0.52734375,0,0
-1.83094070962397E-05,-7.13528925189166E-06,-0.52734375,0,0
-1.91949420695892E-05,-1.00343131634872E-05,-0.52734375,0,0
-1.96657274500467E-05,-1.0703430234571E-05,-0.52734375,0,0
-1.95068860193715E-05,-1.01881632872391E-05,-0.52734375,0,0
-1.83993033715524E-05,-9.31370504986262E-06,-0.52734375,0,0
-1.71730443980778E-05,-8.09745233709691E-06,-0.52734375,0,0
-1.69462746271165E-05,-6.70338113195612E-06,-0.52734375,0,0
-1.65243745868793E-05,-5.46264845979749E-06,0.3515625,0,0
-1.73492480826098E-05,-4.83523263028474E-06,0.3515625,0,0
-1.81438845174853E-05,-3.72484169020026E-06,0.3515625,0,0
-1.99881524167722E-05,-4.39335508417571E-06,0.3515625,0,0
-2.1078041754663E-05,-4.73269892609096E-06,0.3515625,0,0
-2.21537120523863E-05,-4.17719866163679E-06,0.3515625,0,0
-2.19168414332671E-05,-1.74740694092179E-06,0.3515625,0,0
-2.15824020415312E-05,-5.11880955400557E-07,0.3515625,0,0
-2.05096057470655E-05,1.06081949979853E-06,0.3515625,0,0
-2.01059119717684E-05,3.78700178771396E-07,0.3515625,0,0
-2.02307037397986E-05,-4.52873928225017E-06,0.3515625,0,0
-2.0463090550038E-05,-8.50942524266429E-06,0.3515625,0,0
-1.97610661416547E-05,-6.77716661812156E-06,0.3515625,0,0
-1.80396236828528E-05,-4.561403329717E-06,0.3515625,0,0
-1.34682913994766E-05,-2.86203385257977E-06,0.3515625,0,0
-1.92999632417923E-05,-3.00862234325905E-06,0.3515625,0,0
-1.51615631693858E-05,-4.34736165288996E-07,0.3515625,0,0
-1.87788518815069E-05,1.37456353854759E-07,0.3515625,0,0
-1.56630430865334E-05,1.68047620263678E-06,0.3515625,0,0
-1.72909694811096E-05,2.75231195701053E-06,0.3515625,0,0
-1.56872338266112E-05,5.29050157638267E-06,0.3515625,0,0
-1.62197666213615E-05,4.4223602344573E-06,0.3515625,0,0
-1.56228179548634E-05,2.04747448151466E-06,0.3515625,0,0
-1.7061141988961E-05,1.81263783360919E-06,0.3515625,0,0
-1.87545392691391E-05,4.09874928664067E-06,0.3515625,0,0
-1.88037174666533E-05,5.13853365191608E-06,0.3515625,0,0
-1.87507157534128E-05,2.9789334803354E-06,0.3515625,0,0
-1.67961170518538E-05,1.59788260134519E-06,0.3515625,0,0
-1.58886014105519E-05,3.46597653333447E-06,0.3515625,0,0
-1.33121393446345E-05,7.03012710800976E-06,0.3515625,0,0
-1.2937107385369E-05,6.15804128756281E-06,0.3515625,0,0
-1.20029162644641E-05,1.3410951851256E-06,0.3515625,0,0
-1.22311821542098E-05,-3.71444161828549E-06,0.3515625,0,0
-1.03863194453879E-05,-5.04761419506394E-06,0.3515625,0,0
-1.0033530088549E-05,-3.72466342923872E-06,0.3515625,0,0
-1.06651305031846E-05,-2.59692546933366E-06,0.3515625,0,0
-1.38946234073956E-05,-4.57795385955251E-06,0.3515625,0,0
-1.61718562594615E-05,-6.18524563833489E-06,0.3515625,0,0
-1.74086453625932E-05,-3.93422533306875E-06,0.3515625,0,0
-1.82296171260532E-05,-4.58178590179159E-07,0.3515625,0,0
-1.95103893929627E-05,1.11357780951948E-06,0.3515625,0,0
-1.75691602635197E-05,2.54631316920495E-07,0.3515625,0,0
-2.52180325333029E-05,-1.04145476598205E-06,0.3515625,0,0
-1.91649742191657E-05,-2.07561538445589E-06,0.3515625,0,0
-2.34715480473824E-05,-1.64060111274011E-06,0.3515625,0,0
-2.02570408873726E-05,-1.53910400513269E-06,0.3515625,0,0
-2.36636769841425E-05,-5.45645150396012E-07,0.3515625,0,0
-2.26157771976432E-05,-1.32332195335039E-06,0.3515625,0,0
-2.29552661039634E-05,-1.21309733458475E-06,0.3515625,0,0
-2.14099127333611E-05,4.11655065590821E-07,0.3515625,0,0
-2.07907014555531E-05,1.00518411727535E-06,0.3515625,0,0
-2.07720349862939E-05,-6.34171613000944E-07,0.3515625,0,0
-2.00679060071707E-05,-2.41213911067462E-06,0.3515625,0,0
-2.07124576263595E-05,-2.6280856673111E-06,0.3515625,0,0
-1.97892659343779E-05,-2.95021163765341E-06,0.3515625,0,0
-2.028611197602E-05,-2.93919515570451E-06,0.3515625,0,0
-1.87894311238779E-05,-2.56193516179337E-06,0.3515625,0,0
-1.98579364223406E-05,-2.5960250695789E-06,0.3515625,0,0
-1.95672109839506E-05,-3.83901488021365E-06,0.3515625,0,0
-2.01322345674271E-05,-4.2956753532053E-06,0.3515625,0,0
-1.83136835403275E-05,-3.12440215566312E-06,0.3515625,0,0
-1.89521288120886E-05,-1.87148623354005E-06,0.3515625,0,0
-2.04696934815729E-05,-1.42833653171692E-06,0.3515625,0,0
-2.34228755289223E-05,-1.5689006716002E-07,0.3515625,0,0
-2.40135541389463E-05,-9.74589511315571E-07,0.3515625,0,0
-2.33584050874924E-05,-2.88671867565427E-06,0.3515625,0,0
-2.2233733034227E-05,-2.05058404390002E-06,0.3515625,0,0
-2.17601664189715E-05,1.02834121662454E-07,0.3515625,0,0
-1.81132672878448E-05,-1.5768996775023E-07,0.3515625,0,0
-2.67839841399109E-05,-4.38042252426385E-06,0.3515625,0,0
-2.21607097046217E-05,-5.76936508878134E-06,0.3515625,0,0
-2.76047121587908E-05,-1.1673323569994E-06,0.3515625,0,0
-2.37142976402538E-05,8.00474708739785E-07,0.3515625,0,0
-2.62273497355636E-05,1.29353770716989E-06,0.3515625,0,0
-2.47348216362298E-05,-1.81979203262017E-06,0.3515625,0,0
-2.50600078288699E-05,-4.38200413555023E-06,0.3515625,0,0
-2.31298618018627E-05,-4.15303566114744E-06,0.3515625,0,0
-2.23510560317663E-05,-2.48734295382747E-06,0.3515625,0,0
-2.27649634325644E-05,-1.0083900860991E-06,0.3515625,0,0
-2.17183351196582E-05,2.57788855151375E-07,0.3515625,0,0
-2.22257458517561E-05,2.32040861192218E-06,0.3515625,0,0
-2.11027490877314E-05,3.58224247065664E-06,0.3515625,0,0
-2.10089583561057E-05,3.54802318724978E-06,0.3515625,0,0
-1.88665253517684E-05,2.43245267483871E-06,0.3515625,0,0
-1.86158031283412E-05,1.82932296866056E-06,0.3515625,0,0
-1.70078710652888E-05,2.15002705772349E-06,0.3515625,0,0
-1.74758406501496E-05,3.59519117409945E-06,0.3515625,0,0
-1.61830175784417E-05,2.1287662548275E-06,0.3515625,0,0
-1.62690703291446E-05,-1.87697355613636E-06,0.3515625,0,0
-1.59566388902022E-05,-4.09757876695949E-06,0.3515625,0,0
-1.67240505106747E-05,-3.58320312443539E-06,0.3515625,0,0
-1.65055462275632E-05,-3.65695154869172E-06,0.3515625,0,0
-1.74960950971581E-05,-4.69086580778821E-06,0.3515625,0,0
-1.90479386219522E-05,-3.15398597194871E-06,0.3515625,0,0
-1.97660519916099E-05,1.39778023822146E-06,0.3515625,0,0
-1.52547545440029E-05,2.58557270171877E-06,0.3515625,0,0
-2.03529216378229E-05,-2.69405319386351E-07,0.3515625,0,0
-1.49949501064839E-05,-6.21080744167557E-06,0.3515625,0,0
-2.07175762625411E-05,-5.67188635614002E-06,0.3515625,0,0
-1.90877763088793E-05,-5.34737682755804E-06,0.3515625,0,0
-2.25431522267172E-05,-4.43922908743843E-06,0.3515625,0,0
-2.10732996492879E-05,-4.95118001708761E-06,0.3515625,0,0
-2.23220740735997E-05,-5.83874452786404E-06,0.3515625,0,0
-2.11707465496147E-05,-6.91200739311171E-06,0.3515625,0,0
-2.07058455998776E-05,-9.07582762010861E-06,0.3515625,0,0
-2.18309396586847E-05,-1.13240093924105E-05,0.3515625,0,0
-2.21811533265281E-05,-1.18588905024808E-05,0.3515625,0,0
-2.23619699681876E-05,-1.2226067156007E-05,0.3515625,0,0
-2.05047854251461E-05,-1.27165476442315E-05,0.3515625,0,0
-2.16289809031878E-05,-1.07263431345928E-05,0.3515625,0,0
-2.21672617044533E-05,-7.40142559152446E-06,0.3515625,0,0
-2.46222389250761E-05,-4.17127057517064E-06,0.3515625,0,0
-2.42729402089026E-05,-2.88894170807907E-06,0.3515625,0,0
-2.36792202485958E-05,-2.18761169890058E-06,0.3515625,0,0
-2.06884906219784E-05,-1.26501993236161E-06,0.3515625,0,0
-2.05829546757741E-05,1.09260508907028E-06,0.3515625,0,0
-2.12806389754405E-05,2.87831403511518E-06,0.3515625,0,0
-2.15375275729457E-05,3.05713274428854E-06,0.3515625,0,0
-1.88033900485607E-05,1.32116656459402E-06,0.3515625,0,0
-1.6887728634174E-05,-1.05095045910275E-06,0.3515625,0,0
-1.73286171047948E-05,-4.03365675083478E-06,0.3515625,0,0
-1.93079467862844E-05,-6.12423764323466E-06,0.3515625,0,0
-1.55299585458124E-05,-1.86865213436249E-06,0.3515625,0,0
-2.02105493372073E-05,2.11673113881261E-06,0.3515625,0,0
-1.28850642795442E-05,6.05031891609542E-06,0.3515625,0,0
-1.73009248101152E-05,1.76865125922632E-06,0.3515625,0,0
-1.52368902490707E-05,-4.13998861859E-07,0.3515625,0,0
-1.85584794962779E-05,-1.24882342333876E-06,0.3515625,0,0
-1.70663879544009E-05,8.26352334115654E-07,0.3515625,0,0
-1.81531195266871E-05,1.47467255828815E-06,0.3515625,0,0
-1.80718179763062E-05,3.87170393878478E-06,0.3515625,0,0
-1.71252540894784E-05,6.8652202571684E-06,0.3515625,0,0
-1.57325357577065E-05,7.53093854655162E-06,0.3515625,0,0
-1.52944903675234E-05,4.79435084344004E-06,0.3515625,0,0
-1.71210576809244E-05,1.11174131234293E-06,0.3515625,0,0
-1.65792989719193E-05,-8.44024725665804E-07,0.3515625,0,0
-1.70707953657256E-05,-2.36296614275489E-06,0.3515625,0,0
-1.65287110576173E-05,-2.94369419862051E-06,0.3515625,0,0
-1.86349316209089E-05,-4.15010163123952E-06,0.3515625,0,0
-1.93583509826567E-05,-5.19441073265625E-06,0.3515625,0,0
-2.0488012523856E-05,-6.17540626990376E-06,0.3515625,0,0
-1.79059370566392E-05,-5.61105662200134E-06,0.3515625,0,0
-1.57227459567366E-05,-4.40013354818802E-06,0.3515625,0,0
-1.33616267703474E-05,8.73652140853665E-07,0.3515625,0,0
-1.31811520986957E-05,6.64415392748197E-06,0.3515625,0,0
-1.34857900775387E-05,7.30238389223814E-06,0.3515625,0,0
-1.43503457366023E-05,3.99595137423603E-06,0.3515625,0,0
-1.47474020195659E-05,1.55529289713741E-06,0.3515625,0,0
-1.54991339513799E-05,1.17874981242494E-06,0.3515625,0,0
-1.29496766021475E-05,6.69653957174887E-07,0.3515625,0,0
-1.82367039087694E-05,-5.99583358962263E-07,0.3515625,0,0
-1.3962580851512E-05,-4.98021381645231E-06,0.3515625,0,0
-1.70998409885215E-05,-8.14879058452789E-06,0.3515625,0,0
-1.42553535624756E-05,-8.04627779871225E-06,0.3515625,0,0
-1.68419028341305E-05,-5.99740315010422E-06,0.3515625,0,0
-1.70767489180435E-05,-4.04406728193862E-06,0.3515625,0,0
-1.84979489858961E-05,-2.41941097556264E-06,0.3515625,0,0
-1.74627803062322E-05,-2.91126707452349E-06,0.3515625,0,0
-1.77341062226333E-05,-4.20184551330749E-06,0.3515625,0,0
-1.82805470103631E-05,-5.49628703083727E-06,0.3515625,0,0
-1.78972150024492E-05,-5.57642260901048E-06,0.3515625,0,0
-1.78060818143422E-05,-5.22544542036485E-06,0.3515625,0,0
-1.64637312991545E-05,-5.57632756681414E-06,0.3515625,0,0
-1.77147776412312E-05,-5.30653596797492E-06,0.3515625,0,0
-1.82217063411372E-05,-5.62692366656847E-06,0.3515625,0,0
-1.89651727851015E-05,-6.95131802785909E-06,0.3515625,0,0
-1.73862299561733E-05,-7.35435332899215E-06,0.3515625,0,0
-1.78038899321109E-05,-5.25449240740272E-06,0.3515625,0,0
-1.71821920957882E-05,-3.65428445547877E-06,0.3515625,0,0
-1.6966114344541E-05,-3.68465885003388E-06,0.3515625,0,0
-1.54404806380626E-05,-3.19002401738544E-06,0.3515625,0,0
-1.5392044588225E-05,-1.52503628214617E-06,0.3515625,0,0
-1.52135689859279E-05,9.20638228762982E-07,0.3515625,0,0
-1.54797344293911E-05,3.71059923054418E-06,0.3515625,0,0
-1.5591605915688E-05,5.75047806705697E-06,0.3515625,0,0
-1.55967591126682E-05,6.71576617605751E-06,0.3515625,0,0
-1.3354086149775E-05,6.2586063904746E-06,0.3515625,0,0
-1.97409353859257E-05,6.93029869580641E-06,0.3515625,0,0
-1.52325847011525E-05,2.6575573883747E-06,0.3515625,0,0
-1.78250593307894E-05,4.55067129223607E-06,0.3515625,0,0
-1.43851884786272E-05,3.08668336401752E-06,0.3515625,0,0
-1.51979820657289E-05,1.19388437269663E-06,0.3515625,0,0
-1.38933355628978E-05,-3.61270190296636E-06,0.3515625,0,0
-1.48132830872783E-05,-4.46103558715549E-06,0.3515625,0,0
-1.48993322000024E-05,-3.07250275000115E-06,0.3515625,0,0
-1.52561487993808E-05,-8.81671212482615E-07,0.3515625,0,0
-1.45472740769037E-05,-1.4160083594561E-07,0.3515625,0,0
-1.28491956274956E-05,-1.80936240212759E-06,0.3515625,0,0
-1.31134447656223E-05,-3.29237309415475E-06,0.3515625,0,0
-1.28338651848026E-05,-4.1043331293622E-06,0.3515625,0,0
-1.3865326764062E-05,-3.2004427339416E-06,0.3515625,0,0
-1.40588872454828E-05,-3.45213334185246E-06,0.3515625,0,0
-1.59575429279357E-05,-3.54581516148755E-06,0.3515625,0,0
-1.6316058463417E-05,-4.66012170363683E-06,0.3515625,0,0
-1.71978354046587E-05,-4.32093156632618E-06,0.3515625,0,0
-1.64737648447044E-05,-4.65260927740019E-06,0.3515625,0,0
-1.77929960045731E-05,-5.31017622051877E-06,0.3515625,0,0
-1.91600502148503E-05,-5.42045381735079E-06,0.3515625,0,0
-2.01571074285312E-05,-3.75216563952563E-06,0.3515625,0,0
-2.0336983652669E-05,-2.95294171337446E-06,0.3515625,0,0
-2.16651969822124E-05,-3.14434896608873E-06,0.3515625,0,0
-2.2761991203879E-05,-5.07536060467828E-06,0.3515625,0,0
-2.30037076107692E-05,-7.55744031266659E-06,0.3515625,0,0
-1.89173169928836E-05,-8.81895448401337E-06,0.3515625,0,0
-2.69048778136494E-05,-1.44478017318761E-05,0.3515625,0,0
-2.0875293557765E-05,-1.04616665339563E-05,0.3515625,0,0
-2.64526115643093E-05,-8.25413826532895E-06,0.3515625,0,0
-2.27110340347281E-05,-6.39417476122617E-06,0.3515625,0,0
-2.50445227720775E-05,-1.02818912637304E-05,0.3515625,0,0
-2.25390285777394E-05,-1.09643951873295E-05,0.3515625,0,0
-2.3284412236535E-05,-1.14788072096417E-05,0.3515625,0,0
-2.19973953790031E-05,-9.42341466725338E-06,0.3515625,0,0
-2.12786671909271E-05,-5.81496851737029E-06,0.3515625,0,0
-2.08572510018712E-05,-4.11562723456882E-06,0.3515625,0,0
-1.98625602934044E-05,-5.92438209423563E-06,0.3515625,0,0
-2.00601225515129E-05,-8.1089901868836E-06,0.3515625,0,0
-1.74014239746612E-05,-6.76018862577621E-06,0.3515625,0,0
-1.62164178618696E-05,-4.92051321998588E-06,0.3515625,0,0
-1.36276648845524E-05,-3.40416295330215E-06,0.3515625,0,0
-1.38933110065409E-05,-3.42674888997863E-06,0.3515625,0,0
-1.22198271128582E-05,-3.2171647035284E-06,0.3515625,0,0
-1.21833945740946E-05,-4.68447842649766E-06,0.3515625,0,0
-1.06815286926576E-05,-5.59492173124454E-06,0.3515625,0,0
-1.23109093692619E-05,-5.40360133527429E-06,0.3515625,0,0
-1.34554456963087E-05,-1.89554123153357E-06,0.3515625,0,0
-1.50200621646945E-05,1.52613540649327E-06,0.3515625,0,0
-1.61894477059832E-05,2.87326702164137E-06,0.3515625,0,0
-1.71291667356854E-05,9.64252990343084E-07,0.3515625,0,0
-1.70742077898467E-05,-3.48327262145176E-07,0.3515625,0,0
-1.81570849235868E-05,-2.09440804610495E-06,0.3515625,0,0
-1.64993780344957E-05,-5.59688942303183E-06,0.3515625,0,0
-2.37823714996921E-05,-8.44146961753722E-06,0.3515625,0,0
-1.87004134204471E-05,-6.07283982390072E-06,0.3515625,0,0
-2.34972903854214E-05,-5.27012525708415E-06,0.3515625,0,0
-2.10943326237611E-05,-9.52408072407707E-07,0.3515625,0,0
-2.39924502238864E-05,1.53325606788712E-06,0.3515625,0,0
-2.24506347876741E-05,3.05833555103163E-06,0.3515625,0,0
-2.32082784350496E-05,3.84267968911445E-06,0.3515625,0,0
-2.22464295802638E-05,4.83868871015147E-06,0.3515625,0,0
-2.14114024856826E-05,2.65912149188807E-06,0.3515625,0,0
-2.09370118682273E-05,-2.26980955631007E-06,0.3515625,0,0
-1.88367230293807E-05,-5.30595161762903E-06,0.3515625,0,0
-1.80290389835136E-05,-4.6807022044959E-06,0.3515625,0,0
-1.75080276676454E-05,-2.05307696887758E-06,0.3515625,0,0
-1.9942481230828E-05,-1.09237362266867E-06,0.3515625,0,0
-2.02996579901082E-05,-9.3585373406313E-07,0.3515625,0,0
-2.124782622559E-05,-2.07215816772077E-06,0.3515625,0,0
-1.9948156477767E-05,-2.67605832959816E-06,0.3515625,0,0
-2.03469262487488E-05,-3.05552975987666E-06,0.3515625,0,0
-1.95688717212761E-05,-1.78109610260435E-06,0.3515625,0,0
-1.97974895854713E-05,2.12963072954153E-06,0.3515625,0,0
-1.85189910553163E-05,6.82486097502988E-06,0.3515625,0,0
-1.76016619661823E-05,6.95570633979514E-06,1.58203125,0,0
-1.63142995006638E-05,5.20119283464737E-06,1.58203125,0,0
-1.61608859343687E-05,4.57545183962793E-06,1.58203125,0,0
-1.55734123836737E-05,4.61943182017421E-06,1.58203125,0,0
-1.45582389450283E-05,4.33028935731272E-06,1.58203125,0,0
-1.118859017879E-05,1.86812758329324E-06,1.58203125,0,0
-1.4922837181075E-05,1.56530006734101E-06,1.58203125,0,0
-9.51720903685782E-06,8.13077917882765E-07,1.58203125,0,0
-1.14878084787051E-05,3.47363743458118E-06,1.58203125,0,0
-9.68529457168188E-06,4.28992416345864E-06,1.58203125,0,0
-1.39027233672095E-05,4.44921306552715E-06,1.58203125,0,0
-1.63899294420844E-05,2.42625696955656E-06,1.58203125,0,0
-1.89075617527124E-05,1.75774880517565E-06,1.58203125,0,0
-1.84861783054657E-05,1.85352939752192E-06,1.58203125,0,0
-1.79537619260373E-05,2.94930191557796E-06,1.58203125,0,0
-1.72467043739744E-05,4.43374938186025E-06,1.58203125,0,0
-1.56336500367615E-05,5.34157697984483E-06,1.58203125,0,0
-1.5625042578904E-05,4.37476955994498E-06,1.58203125,0,0
-1.53527253132779E-05,2.43378394770843E-06,1.58203125,0,0
-1.63841796165798E-05,2.75372690339282E-06,1.58203125,0,0
-1.59679129865253E-05,2.7785063139163E-06,1.58203125,0,0
-1.68036567629315E-05,5.95060498653766E-07,1.58203125,0,0
-1.68446913448861E-05,-1.8038600728687E-06,1.58203125,0,0
-1.83141401066678E-05,-1.40098302381375E-06,1.58203125,0,0
-1.93788873730227E-05,-5.53518646029261E-07,1.58203125,0,0
-2.10364269150887E-05,2.03926802555543E-07,1.58203125,0,0
-2.05802643904462E-05,1.03375491278257E-07,1.58203125,0,0
-2.10176476684865E-05,-8.4284386048239E-07,1.58203125,0,0
-2.27794789680047E-05,-1.61808941356867E-06,1.58203125,0,0
-2.47829484578688E-05,-2.89371712369757E-07,1.58203125,0,0
-2.48628712142818E-05,-2.26274067927079E-07,1.58203125,0,0
-2.40539993683342E-05,-2.65806761490239E-06,1.58203125,0,0
-1.83646097866585E-05,-1.75498234966653E-06,1.58203125,0,0
-2.60097313002916E-05,-2.27002328756498E-06,1.58203125,0,0
-1.97026238311082E-05,-4.04753245675238E-06,1.58203125,0,0
-2.45302271650871E-05,-7.3367077675357E-06,1.58203125,0,0
-2.02237788471393E-05,-4.35739593740436E-06,1.58203125,0,0
-2.31964186241385E-05,-1.81769200935378E-06,1.58203125,0,0
-2.20906840695534E-05,-1.53201949615323E-06,1.58203125,0,0
-2.24882460315712E-05,-2.53835810326564E-06,1.58203125,0,0
-1.98999769054353E-05,-3.5427999591775E-06,1.58203125,0,0
-1.82086296263151E-05,-2.86904059976223E-06,1.58203125,0,0
-1.79969229066046E-05,-8.20292029857228E-07,1.58203125,0,0
-1.85342632903485E-05,-5.60043702080293E-07,1.58203125,0,0
-2.00065824174089E-05,-1.21651885365281E-06,1.58203125,0,0
-1.81171217263909E-05,1.52271994124931E-07,1.58203125,0,0
-1.84725649887696E-05,2.21136451727943E-06,1.58203125,0,0
-1.84112614078913E-05,2.23701249524311E-06,1.58203125,0,0
-2.04382431547856E-05,-3.66324343303859E-07,1.58203125,0,0
-1.94433105207281E-05,-2.56886755778396E-06,1.58203125,0,0
-1.89664624485886E-05,-2.64252753368055E-06,1.58203125,0,0
-1.70673501997953E-05,-3.66707723742365E-07,1.58203125,0,0
-1.88239446288208E-05,1.48576737046824E-06,1.58203125,0,0
-2.08392866625218E-05,1.52736856762203E-06,1.58203125,0,0
-2.41841462411685E-05,-1.12447150968364E-06,1.58203125,0,0
-2.64342270384077E-05,-3.3287424230366E-06,1.58203125,0,0
-2.81370994343888E-05,-1.66334314144478E-06,1.58203125,0,0
-2.9280048693181E-05,8.87372664237773E-07,1.58203125,0,0
-3.03054512187373E-05,3.64368730743081E-07,1.58203125,0,0
-2.35407987929648E-05,-6.84604117395793E-07,1.58203125,0,0
-3.13869713863824E-05,1.40575855311909E-06,1.58203125,0,0
-2.05507694772678E-05,7.11905977368588E-06,1.58203125,0,0
-2.55742070294218E-05,9.48279921431094E-06,1.58203125,0,0
-1.93917221622542E-05,7.60284046918969E-06,1.58203125,0,0
-2.14464198506903E-05,6.03215812589042E-06,1.58203125,0,0
-1.67114521900658E-05,6.56284782962757E-06,1.58203125,0,0
-1.65902547450969E-05,6.72148917146842E-06,1.58203125,0,0
-1.59106693899957E-05,4.56228963230387E-06,1.58203125,0,0
-1.58304337674053E-05,-2.20024389818718E-08,1.58203125,0,0
-1.47643904711003E-05,-4.97150813316694E-06,1.58203125,0,0
-1.26957684187801E-05,-7.62383569963276E-06,1.58203125,0,0
-1.44929181260522E-05,-7.63181469665142E-06,1.58203125,0,0
-1.46062002386316E-05,-5.44925569556654E-06,1.58203125,0,0
-1.58457860379713E-05,-3.18519005304552E-06,1.58203125,0,0
-1.36953576657106E-05,-3.58667648470146E-06,1.58203125,0,0
-1.38227997013018E-05,-6.50665060675237E-06,1.58203125,0,0
-1.11889321487979E-05,-8.79567141964799E-06,1.58203125,0,0
-1.08677668322343E-05,-1.07286932689021E-05,1.58203125,0,0
-8.9951790869236E-06,-1.55480502144201E-05,1.58203125,0,0
-1.0141949132958E-05,-1.98455400095554E-05,1.58203125,0,0
-1.03642651083646E-05,-1.82821077032713E-05,1.58203125,0,0
-1.18224606922013E-05,-1.43437337101204E-05,1.58203125,0,0
-1.17094195957179E-05,-1.19829155664775E-05,1.58203125,0,0
-1.18158486657194E-05,-1.06512616184773E-05,1.58203125,0,0
-1.2430401511665E-05,-9.99694384518079E-06,1.58203125,0,0
-1.35566078824922E-05,-1.13122550828848E-05,1.58203125,0,0
-1.12108391476795E-05,-8.95741140993778E-06,1.58203125,0,0
-1.52950760821113E-05,-1.09602215161431E-05,1.58203125,0,0
-1.20098184197559E-05,-5.38760696144891E-06,1.58203125,0,0
-1.71749943547184E-05,-6.38125675322954E-06,1.58203125,0,0
-1.74200940818992E-05,-2.61581249105802E-06,1.58203125,0,0
-1.97422596102115E-05,-2.53858570431476E-06,1.58203125,0,0
-1.74993801920209E-05,-1.04747039131325E-06,1.58203125,0,0
-1.76356570591452E-05,-3.20608501169772E-06,1.58203125,0,0
-1.82956518983701E-05,-4.26433052780339E-06,1.58203125,0,0
-2.00410340767121E-05,-5.27779366166214E-06,1.58203125,0,0
-2.15280215343228E-05,-6.41900896880543E-06,1.58203125,0,0
-2.11617043532897E-05,-6.22344850853551E-06,1.58203125,0,0
-2.12072336580604E-05,-7.03800651535857E-06,1.58203125,0,0
-2.0403442249517E-05,-8.26195173431188E-06,1.58203125,0,0
-2.14625233638799E-05,-1.12021843960974E-05,1.58203125,0,0
-2.15584950638004E-05,-9.99219537334284E-06,1.58203125,0,0
-2.23951519728871E-05,-7.31693944544531E-06,1.58203125,0,0
-2.1059777282062E-05,-4.18904846810619E-06,1.58203125,0,0
-2.09939935302828E-05,-2.79174923889514E-06,1.58203125,0,0
-2.13310468097916E-05,-2.00462227439857E-06,1.58203125,0,0
-2.26563715841621E-05,-4.37159087596228E-06,1.58203125,0,0
-2.16440239455551E-05,-5.40752171218628E-06,1.58203125,0,0
-2.02907849597977E-05,-4.73729323857697E-06,1.58203125,0,0
-1.88135054486338E-05,-2.32926049648086E-06,1.58203125,0,0
-1.86958459380548E-05,1.01368448213179E-06,1.58203125,0,0
-1.95439515664475E-05,2.45130127041193E-06,1.58203125,0,0
-1.98371526494157E-05,1.39773385399167E-06,1.58203125,0,0
-1.62008382176282E-05,7.96444396655716E-07,1.58203125,0,0
-2.27653908950742E-05,2.75952424999559E-06,1.58203125,0,0
-1.6790267181932E-05,4.29435385740362E-06,1.58203125,0,0
-2.15874570130836E-05,4.37275957665406E-06,1.58203125,0,0
-1.9857248844346E-05,1.76144055785699E-06,1.58203125,0,0
-2.28295430133585E-05,-7.44304827549058E-07,1.58203125,0,0
-2.07028151635313E-05,-2.22081825995701E-06,1.58203125,0,0
-2.09899535548175E-05,-4.70757004222833E-06,1.58203125,0,0
-1.98523139260942E-05,-7.22804361430462E-06,1.58203125,0,0
-2.03928775590612E-05,-6.27734289082582E-06,1.58203125,0,0
-2.16514763451414E-05,-2.12016902878531E-06,1.58203125,0,0
-2.10993930522818E-05,-2.23718092939862E-08,1.58203125,0,0
-2.08262645173818E-05,-2.80039074596061E-07,1.58203125,0,0
-1.91708168131299E-05,-4.810437985725E-07,1.58203125,0,0
-2.00151898752665E-05,4.36068376075127E-07,1.58203125,0,0
-1.95689535757992E-05,1.17678598599014E-06,1.58203125,0,0
-2.06384065677412E-05,8.86352609086316E-07,1.58203125,0,0
-2.00427293748362E-05,-4.67083765443022E-07,1.58203125,0,0
-2.12052473216318E-05,-2.66825190919917E-06,1.58203125,0,0
-2.0664350813604E-05,-2.69430256594205E-06,1.58203125,0,0
-2.11779497476527E-05,4.84093618524639E-07,1.58203125,0,0
-2.05231772270054E-05,3.29727868120244E-06,1.58203125,0,0
-2.10308953683125E-05,2.01772672880907E-06,1.58203125,0,0
-2.07050743483705E-05,-6.51479808766453E-07,1.58203125,0,0
-2.13096391235013E-05,-1.72030934209033E-06,1.58203125,0,0
-2.23119131987914E-05,-2.39469022744743E-06,1.58203125,0,0
-2.27499149332289E-05,-4.25203279519337E-06,1.58203125,0,0
-1.86502293217927E-05,-3.93207756133052E-06,1.58203125,0,0
-2.59868284047116E-05,-7.20816342436592E-06,1.58203125,0,0
-1.86826509889215E-05,-9.20558250072645E-06,1.58203125,0,0
-2.19621470023412E-05,-9.28008648770629E-06,1.58203125,0,0
-1.565051934449E-05,-3.11582539325173E-06,1.58203125,0,0
-1.64063276315574E-05,-1.56254122885002E-06,1.58203125,0,0
-1.35425871121697E-05,-9.78451794253488E-07,1.58203125,0,0
-1.44077012009802E-05,-8.26212385618419E-07,1.58203125,0,0
-1.37808219733415E-05,-8.63688853769418E-07,1.58203125,0,0
-1.28631418192526E-05,-4.39392124462756E-07,1.58203125,0,0
-1.15618813651963E-05,1.55764325882046E-07,1.58203125,0,0
-1.0160265446757E-05,-4.16207370790289E-07,1.58203125,0,0
-1.11943973024609E-05,-1.97506051335949E-06,1.58203125,0,0
-1.12136222014669E-05,-2.55069585364254E-06,1.58203125,0,0
-1.2394875739119E-05,-2.17281740333419E-06,1.58203125,0,0
-1.13221731226076E-05,1.22424216897343E-06,1.58203125,0,0
-1.33877902044333E-05,5.43309533895808E-06,1.58203125,0,0
-1.38247614813736E-05,7.45105671740021E-06,1.58203125,0,0
-1.4570847270079E-05,5.8586037994246E-06,1.58203125,0,0
-1.25228052638704E-05,4.30514774052426E-06,1.58203125,0,0
-1.3218241292634E-05,5.16504587722011E-06,1.58203125,0,0
-1.32557997858385E-05,8.99478982319124E-06,1.58203125,0,0
-1.4471729627985E-05,1.00826655398123E-05,1.58203125,0,0
-1.44425757753197E-05,7.29300973034697E-06,1.58203125,0,0
-1.44909727168852E-05,3.5108143947582E-06,1.58203125,0,0
-1.39154835778754E-05,2.38566599364276E-06,1.58203125,0,0
-1.31628366943914E-05,3.81660174753051E-06,1.58203125,0,0
-1.1183616152266E-05,2.5725569230417E-06,1.58203125,0,0
-1.6374151527998E-05,1.19202286441578E-06,1.58203125,0,0
-1.2751208487316E-05,-1.72309603385656E-06,1.58203125,0,0
-1.4715746146976E-05,9.12794519081217E-07,1.58203125,0,0
-1.2508528016042E-05,3.54606549990422E-06,1.58203125,0,0
-1.54416811710689E-05,4.66545679955743E-06,1.58203125,0,0
-1.53606160893105E-05,8.87556780071463E-07,1.58203125,0,0
-1.56546921061818E-05,-3.21276775139268E-06,1.58203125,0,0
-1.50872037920635E-05,-6.61966305415262E-06,1.58203125,0,0
-1.54478530021152E-05,-5.7011934586626E-06,1.58203125,0,0
-1.61659172590589E-05,-2.88079240817751E-06,1.58203125,0,0
-1.68362621479901E-05,-1.5611493608958E-06,1.58203125,0,0
-1.81039304152364E-05,-2.18477293856267E-06,1.58203125,0,0
-1.81977538886713E-05,-3.51098742612521E-06,1.58203125,0,0
-1.95860775420442E-05,-3.0379028430616E-06,1.58203125,0,0
-1.99173991859425E-05,-2.88137107418152E-06,1.58203125,0,0
-2.1629608454532E-05,-4.32718843512703E-06,1.58203125,0,0
-2.25102157855872E-05,-7.39607776267803E-06,1.58203125,0,0
-2.48858632403426E-05,-8.11685004009632E-06,1.58203125,0,0
-2.55684772128006E-05,-6.97788391335052E-06,1.58203125,0,0
-2.5721234123921E-05,-4.7749376790307E-06,1.58203125,0,0
-2.46572908508824E-05,-4.10421671404038E-06,1.58203125,0,0
-2.43365229835035E-05,-3.42311568601872E-06,1.58203125,0,0
-2.35544266615761E-05,-2.88426326733315E-06,1.58203125,0,0
-2.37297626881627E-05,-4.78693436889444E-06,1.58203125,0,0
-2.35569295909954E-05,-8.11978407000424E-06,1.58203125,0,0
-2.23892711801454E-05,-9.66090556175914E-06,1.58203125,0,0
-1.7821595974965E-05,-5.53807285541552E-06,1.58203125,0,0
-2.37844105868135E-05,-3.50813024851959E-06,1.58203125,0,0
-1.52488673847984E-05,1.37330937377556E-06,1.58203125,0,0
-1.81616269401275E-05,-3.34348260366824E-06,1.58203125,0,0
-1.30884254758712E-05,-2.83070221485104E-06,1.58203125,0,0
-1.56486694322666E-05,-1.60984643571283E-06,1.58203125,0,0
-1.40079073389643E-05,1.64034361205267E-06,1.58203125,0,0
-1.46605025292956E-05,-1.41388500196626E-06,1.58203125,0,0
-1.31684109874186E-05,-5.78427716391161E-06,1.58203125,0,0
-1.24757107187179E-05,-6.65972766000777E-06,1.58203125,0,0
-1.35041291287052E-05,-4.75673687105882E-06,1.58203125,0,0
-1.53517103171907E-05,-4.53344000561628E-06,1.58203125,0,0
-1.8230517525808E-05,-7.65163622418186E-06,1.58203125,0,0
-1.85059743671445E-05,-9.56150324782357E-06,1.58203125,0,0
-2.0098865206819E-05,-9.04721309780143E-06,1.58203125,0,0
-1.91139642993221E-05,-5.09045867147506E-06,1.58203125,0,0
-1.97602112166351E-05,-2.56561065725691E-06,1.58203125,0,0
-1.87144069059286E-05,-2.34063236348447E-06,1.58203125,0,0
-1.97196532099042E-05,-3.74444812223373E-06,1.58203125,0,0
-1.90165119420271E-05,-2.35155584960012E-06,1.58203125,0,0
-1.99210717255482E-05,-2.12911731978238E-06,1.58203125,0,0
-1.95297470781952E-05,-2.57060719377478E-06,1.58203125,0,0
-2.03857343876734E-05,-1.93196660802641E-06,1.58203125,0,0
-2.00596314243739E-05,9.90193939287565E-07,1.58203125,0,0
-1.99354453798151E-05,3.69093390872877E-06,1.58203125,0,0
-2.06106542464113E-05,4.67846120955073E-06,1.58203125,0,0
-2.21264108404284E-05,5.47156014363281E-06,1.58203125,0,0
-1.8247452317155E-05,4.86097451357637E-06,1.58203125,0,0
-2.52696954703424E-05,6.87643250785186E-06,1.58203125,0,0
-1.89396123460028E-05,5.07736376675894E-06,1.58203125,0,0
-2.51291075983318E-05,5.04173021909082E-06,1.58203125,0,0
-2.26605206989916E-05,1.06611469163909E-06,1.58203125,0,0
-2.51082128670532E-05,6.14445582414191E-07,1.58203125,0,0
-2.2090078346082E-05,-8.75256034760241E-07,1.58203125,0,0
-2.22814942389959E-05,-1.06497179785947E-06,1.58203125,0,0
-2.14827305171639E-05,2.91030374910406E-07,1.58203125,0,0
-2.20792717300355E-05,1.20161053018819E-06,1.58203125,0,0
-2.19335888687056E-05,1.65882099167902E-07,1.58203125,0,0
-2.08601341000758E-05,-1.59890544182417E-06,1.58203125,0,0
-2.19985722651472E-05,-2.07199741453223E-06,1.58203125,0,0
-2.12467020901386E-05,-2.58895488514099E-06,1.58203125,0,0
-2.19164303416619E-05,-3.30718330587843E-06,1.58203125,0,0
-2.0471803509281E-05,-5.31564410266583E-06,1.58203125,0,0
-2.13618295674678E-05,-7.30368401491432E-06,1.58203125,0,0
-2.04048283194425E-05,-9.47360331338132E-06,1.58203125,0,0
-2.21332666114904E-05,-9.92710283753695E-06,1.58203125,0,0
-2.27129476115806E-05,-9.48825618252158E-06,1.58203125,0,0
-2.37690819631098E-05,-8.15558814792894E-06,1.58203125,0,0
-2.24447539949324E-05,-7.21144851922872E-06,1.58203125,0,0
-2.24990944843739E-05,-7.5397765613161E-06,1.58203125,0,0
-2.23101433221018E-05,-8.61956050357549E-06,1.58203125,0,0
-2.19436187762767E-05,-5.61040997126838E-06,1.58203125,0,0
-2.00660688278731E-05,-2.52837571679265E-06,1.58203125,0,0
-1.79238322743913E-05,-4.44605620941729E-06,1.58203125,0,0
-1.40441861731233E-05,-6.10148345003836E-06,2.98828125,0,0
-2.03055114980089E-05,-9.3900789579493E-06,2.98828125,0,0
-1.61642547027441E-05,-5.4168676797417E-06,2.98828125,0,0
-1.96614928427152E-05,-3.88206990464823E-06,2.98828125,0,0
-1.62593642016873E-05,-1.53438429606467E-06,2.98828125,0,0
-1.76517951331334E-05,-3.37809524353361E-06,2.98828125,0,0
-1.63575114129344E-05,-7.71358736528782E-06,2.98828125,0,0
-1.75853656401159E-05,-1.25205096992431E-05,2.98828125,0,0
-1.68611913977657E-05,-1.16372129923548E-05,2.98828125,0,0
-1.6729938579374E-05,-8.96252095117234E-06,2.98828125,0,0
-1.63622662512353E-05,-6.2681756389793E-06,2.98828125,0,0
-1.48235931192175E-05,-1.54412953179417E-06,2.98828125,0,0
-1.54776644194499E-05,9.04219419339825E-08,2.98828125,0,0
-1.63198565132916E-05,-2.48790365731111E-06,2.98828125,0,0
-1.8723649191088E-05,-6.53670485917246E-06,2.98828125,0,0
-1.86926681635669E-05,-7.26901862435625E-06,2.98828125,0,0
-2.00039248738904E-05,-6.21647131993086E-06,2.98828125,0,0
-2.04236603167374E-05,-4.50587685918435E-06,2.98828125,0,0
-2.26898682740284E-05,-3.4099734875781E-06,2.98828125,0,0
-2.30402602028335E-05,-2.34026515499863E-06,2.98828125,0,0
-2.22779526666272E-05,-2.2789840841142E-06,2.98828125,0,0
-1.957855783985E-05,-3.28002784044656E-06,2.98828125,0,0
-1.98299530893564E-05,-6.28322459306219E-06,2.98828125,0,0
-2.14155370485969E-05,-9.01851581147639E-06,2.98828125,0,0
-2.21282407437684E-05,-8.93134529178496E-06,2.98828125,0,0
-2.17704782699002E-05,-5.86596843277221E-06,2.98828125,0,0
-2.21238897211151E-05,-2.43895192397758E-06,2.98828125,0,0
-1.85198205144843E-05,-9.64770606515231E-07,2.98828125,0,0
-2.65767030214192E-05,-1.21141192721552E-06,2.98828125,0,0
-2.03184790734667E-05,1.8045785736831E-06,2.98828125,0,0
-2.45873361564009E-05,5.75164176552789E-06,2.98828125,0,0
-1.95375359908212E-05,6.27581948720035E-06,2.98828125,0,0
-2.07409375434509E-05,6.10150891589001E-06,2.98828125,0,0
-1.70711227838183E-05,9.32175862544682E-06,2.98828125,0,0
-1.60845065693138E-05,9.89675299933879E-06,2.98828125,0,0
-1.44902005558833E-05,5.95872415942722E-06,2.98828125,0,0
-1.31561419038917E-05,2.93308539767168E-06,2.98828125,0,0
-1.1747012649721E-05,4.0916870602814E-06,2.98828125,0,0
-9.3377011580742E-06,6.42828945274232E-06,2.98828125,0,0
-7.97368466010084E-06,5.56351369596086E-06,2.98828125,0,0
-5.64057563678944E-06,3.54343387698464E-06,2.98828125,0,0
-7.18006049282849E-06,3.71984060620889E-06,2.98828125,0,0
-8.22167294245446E-06,4.11673954658909E-06,2.98828125,0,0
-1.01467203421635E-05,2.61156401393237E-06,2.98828125,0,0
-9.13867825147463E-06,2.98473446491698E-06,2.98828125,0,0
-1.04122345874202E-05,5.98909900872968E-06,2.98828125,0,0
-1.11031258711591E-05,6.9876173256489E-06,2.98828125,0,0
-1.32526520246756E-05,5.11537427883013E-06,2.98828125,0,0
-1.46388538269093E-05,4.48969376520836E-06,2.98828125,0,0
-1.79340331669664E-05,4.96414122608257E-06,2.98828125,0,0
-1.9120972865494E-05,5.10541258336161E-06,2.98828125,0,0
-1.98849284060998E-05,4.80051403428661E-06,2.98828125,0,0
-2.10878424695693E-05,1.87834029929945E-06,2.98828125,0,0
-2.22041344386525E-05,-1.27393832372036E-07,2.98828125,0,0
-1.89326783583965E-05,1.22216533782193E-06,2.98828125,0,0
-2.78106545010814E-05,9.53678636506083E-07,2.98828125,0,0
