biceps_emg, triceps_emg, subject_position, position_estimate, brace_position
-1.03605209744728E-07,-1.37429033202352E-05,-0.3515625,0,0
6.69100188588345E-07,-1.37427623485564E-05,-0.3515625,0,0
1.6370712501157E-06,-1.25543292597285E-05,-0.3515625,0,0
2.05481615012104E-06,-1.88251287909225E-05,-0.3515625,0,0
1.1402364634705E-06,-1.50003106682561E-05,-0.3515625,0,0
1.7633209381529E-06,-1.8597749658511E-05,-0.3515625,0,0
2.86672320726211E-06,-1.69283939612797E-05,-0.3515625,0,0
3.43339866049064E-06,-1.82556068466511E-05,-0.3515625,0,0
1.84654936674633E-06,-1.8314154658583E-05,-0.3515625,0,0
1.549129592604E-06,-2.02256360353203E-05,-0.3515625,0,0
1.59906778662844E-06,-1.96552318811882E-05,-0.3515625,0,0
1.57911654241616E-06,-1.82931471499614E-05,-0.3515625,0,0
2.04957359528635E-06,-1.69707745953929E-05,-0.3515625,0,0
2.50311632044031E-06,-1.45021394928335E-05,-0.3515625,0,0
2.24733162212942E-06,-1.31988799694227E-05,-0.3515625,0,0
1.87059947620583E-06,-1.30187245304114E-05,-0.3515625,0,0
1.93485016097839E-06,-1.58585153258173E-05,-0.3515625,0,0
9.01412192888529E-07,-1.82323474291479E-05,-0.3515625,0,0
-4.3021405105037E-08,-2.02759420062648E-05,-0.3515625,0,0
4.3492207169038E-07,-1.9176924979547E-05,-0.3515625,0,0
1.54726592427323E-06,-1.91547460417496E-05,-0.3515625,0,0
8.69117002366693E-07,-1.81301693373825E-05,-0.3515625,0,0
-8.29262262413977E-07,-1.77051333594136E-05,-0.3515625,0,0
-9.34531215079915E-07,-1.7078067685361E-05,-0.3515625,0,0
1.90215394013649E-06,-1.75225013663294E-05,-0.3515625,0,0
3.52762276634166E-06,-1.77022884599864E-05,-0.3515625,0,0
2.89944750875293E-06,-1.83323027158622E-05,-0.3515625,0,0
3.06554670714831E-06,-1.68861843121704E-05,-0.3515625,0,0
4.47140473625041E-06,-1.4297876987257E-05,-0.3515625,0,0
3.40400129061891E-06,-1.18428870337084E-05,-0.3515625,0,0
4.04886941396398E-06,-1.86789511644747E-05,-0.3515625,0,0
2.03553804567491E-06,-1.71466508618323E-05,-0.3515625,0,0
3.54424537363229E-06,-1.95511565834749E-05,-0.3515625,0,0
4.76838704344118E-06,-1.57868471433176E-05,-0.3515625,0,0
5.97570033278316E-06,-1.74715733010089E-05,-0.3515625,0,0
4.72444162369356E-06,-1.67357466125395E-05,-0.3515625,0,0
5.127028998686E-06,-1.74684064404573E-05,-0.3515625,0,0
5.17733315064106E-06,-1.59219180204673E-05,-0.3515625,0,0
5.18318347531022E-06,-1.45599178722478E-05,-0.3515625,0,0
5.86134501645574E-06,-1.34370120576932E-05,-0.3515625,0,0
6.16342231296585E-06,-1.19640926641296E-05,-0.3515625,0,0
5.96534664509818E-06,-1.15441735033528E-05,-0.3515625,0,0
5.82589655095944E-06,-1.08176009234739E-05,-0.3515625,0,0
6.37462653685361E-06,-1.21925304483739E-05,-0.3515625,0,0
6.08792515777168E-06,-1.23584522953024E-05,-0.3515625,0,0
5.72306953472435E-06,-1.32510349430959E-05,-0.3515625,0,0
4.60337469121441E-06,-1.2972254808119E-05,-0.3515625,0,0
3.87173122362583E-06,-1.43963197842822E-05,-0.3515625,0,0
3.42763541993918E-06,-1.4345424460771E-05,-0.3515625,0,0
4.01340275857365E-06,-1.54662302520592E-05,-0.3515625,0,0
3.8590428630414E-06,-1.65790279424982E-05,-0.3515625,0,0
4.06375102102174E-06,-1.73158205143409E-05,-0.3515625,0,0
5.30169563717209E-06,-1.62742308020825E-05,-0.3515625,0,0
7.3079813773802E-06,-1.62990836543031E-05,-0.3515625,0,0
8.33430931379553E-06,-1.66698828252265E-05,-0.3515625,0,0
7.68867357692216E-06,-1.75931709236465E-05,-0.3515625,0,0
5.16968702868326E-06,-1.53812561620725E-05,-0.3515625,0,0
6.43672683509067E-06,-2.12116046895972E-05,-0.3515625,0,0
4.64480081063812E-06,-1.34335314214695E-05,-0.3515625,0,0
6.49615640213597E-06,-1.66004083439475E-05,-0.3515625,0,0
4.2991632653866E-06,-1.77291185536888E-05,-0.3515625,0,0
4.28334851676482E-06,-2.43393078562804E-05,-0.3515625,0,0
2.68398571279249E-06,-2.41973739321111E-05,-0.3515625,0,0
2.48142214331892E-06,-2.53653779509477E-05,-0.3515625,0,0
3.01977843264467E-06,-2.42996757151559E-05,-0.3515625,0,0
3.89196975447703E-06,-2.16297448787373E-05,-0.3515625,0,0
4.62097341369372E-06,-1.85807311936514E-05,-0.3515625,0,0
4.28014618591988E-06,-1.82451112777926E-05,-0.3515625,0,0
3.6003054901812E-06,-2.22239195863949E-05,-0.3515625,0,0
2.16985222323274E-06,-2.37172625929816E-05,-0.3515625,0,0
4.65862257215122E-07,-2.16417538467795E-05,-0.3515625,0,0
-1.21120888252335E-06,-1.47183291119291E-05,-0.3515625,0,0
8.84527295852422E-08,-1.09734974103048E-05,-0.3515625,0,0
1.19847277346707E-06,-8.7479693320347E-06,-0.3515625,0,0
1.40194219966361E-06,-1.01676541817142E-05,-0.3515625,0,0
3.93531706777139E-07,-1.0198928976024E-05,-0.3515625,0,0
3.05893593122164E-07,-1.01245368568925E-05,-0.3515625,0,0
-2.42464750499494E-07,-9.09288064576685E-06,-0.3515625,0,0
-3.55189229139796E-07,-9.80607001110911E-06,-0.3515625,0,0
2.53176693831847E-07,-9.48125853028614E-06,-0.3515625,0,0
1.8722006416283E-06,-1.05823291960405E-05,-0.3515625,0,0
3.58180363946303E-06,-1.36174712679349E-05,-0.3515625,0,0
4.36792743130354E-06,-1.71281826624181E-05,-0.3515625,0,0
2.59147782344371E-06,-1.56642636284232E-05,-0.3515625,0,0
3.14710018756159E-06,-2.17193828575546E-05,-0.3515625,0,0
2.04155071514833E-06,-1.51954054672387E-05,-0.3515625,0,0
2.88693991024047E-06,-1.86287215910852E-05,-0.3515625,0,0
2.00817771656148E-06,-1.45332787724328E-05,-0.3515625,0,0
1.23284098663135E-06,-1.67980670084944E-05,-0.3515625,0,0
-2.78175008361359E-07,-1.72341024153866E-05,-0.3515625,0,0
7.82411234467872E-07,-1.9837456420646E-05,-0.3515625,0,0
1.39482574468275E-06,-2.03945601242594E-05,-0.3515625,0,0
-4.04436484302551E-09,-1.91867129615275E-05,-0.3515625,0,0
-1.95613893083646E-06,-1.67857706401264E-05,-0.3515625,0,0
-3.41229906553053E-06,-1.44848363561323E-05,-0.3515625,0,0
-2.57522606261773E-06,-1.4922785339877E-05,-0.3515625,0,0
-1.21185763646281E-07,-1.51846252265386E-05,-0.3515625,0,0
1.96073324332247E-06,-1.71041720022913E-05,-0.3515625,0,0
2.49147478825762E-06,-1.62242849910399E-05,-0.3515625,0,0
2.54262977250619E-06,-1.55546022142516E-05,-0.3515625,0,0
2.27437271860254E-06,-1.34035453811521E-05,-0.3515625,0,0
3.54965595761314E-06,-1.42089784276322E-05,-0.3515625,0,0
4.9348136599292E-06,-1.42618846439291E-05,-0.3515625,0,0
5.02463126395014E-06,-1.42358239827445E-05,-0.3515625,0,0
3.8464745557576E-06,-1.30931366584264E-05,-0.3515625,0,0
3.44782370120811E-06,-1.43751776704448E-05,-0.3515625,0,0
3.16701562041999E-06,-1.5833429642953E-05,-0.3515625,0,0
3.63779940926179E-06,-1.79273720277706E-05,-0.3515625,0,0
4.67983272756101E-06,-1.91451454156777E-05,-0.3515625,0,0
4.86338331029401E-06,-1.77597285073716E-05,-0.3515625,0,0
4.35385527453036E-06,-1.32224904518807E-05,-0.3515625,0,0
6.32583351034555E-06,-1.95441516552819E-05,-0.3515625,0,0
5.03616593050538E-06,-1.71119227161398E-05,-0.3515625,0,0
6.33458557786071E-06,-2.16298794839531E-05,-0.3515625,0,0
6.68037955620093E-06,-1.9546027033357E-05,-0.3515625,0,0
8.19432079879334E-06,-2.20103247556835E-05,-0.3515625,0,0
6.66989444653154E-06,-1.89594538824167E-05,-0.3515625,0,0
6.02354748480138E-06,-1.7369036868331E-05,-0.3515625,0,0
5.76804313823232E-06,-1.59527207870269E-05,-0.3515625,0,0
6.22838479102938E-06,-1.66321024153149E-05,-0.3515625,0,0
6.45338332105894E-06,-1.76743596966844E-05,-0.3515625,0,0
5.61060596737661E-06,-1.66934387380024E-05,-0.3515625,0,0
5.16808631800814E-06,-1.64495013450505E-05,-0.3515625,0,0
4.73912496090634E-06,-1.62978503794875E-05,-0.3515625,0,0
4.47425145466696E-06,-1.79756370926043E-05,-0.3515625,0,0
2.75805587079958E-06,-1.69071026903111E-05,-0.3515625,0,0
1.45545902796584E-06,-1.6549489373574E-05,-0.3515625,0,0
1.01872672075842E-06,-1.47391092468752E-05,-0.3515625,0,0
3.16077216666599E-06,-1.49267843880807E-05,-0.3515625,0,0
4.91592800244689E-06,-1.47874934555148E-05,-0.3515625,0,0
4.86175213154638E-06,-1.52660068124533E-05,-0.3515625,0,0
2.65547168964986E-06,-1.45009580592159E-05,-0.3515625,0,0
4.84384202081856E-07,-1.53504788613645E-05,-0.3515625,0,0
1.07412446936905E-07,-1.72061318153283E-05,-0.3515625,0,0
1.84689088200685E-06,-2.0436293198145E-05,-0.3515625,0,0
3.53164637090231E-06,-2.22298913286068E-05,-0.3515625,0,0
3.36597349814838E-06,-2.01398579520173E-05,-0.3515625,0,0
1.78090806457476E-06,-1.44462219395791E-05,-0.3515625,0,0
1.18899617973511E-06,-2.19453449972207E-05,-0.3515625,0,0
-6.12044459558092E-07,-1.77461279236013E-05,-0.3515625,0,0
1.76345139379919E-07,-1.9759949282161E-05,-0.3515625,0,0
6.55129042570479E-07,-1.63870045071235E-05,-0.3515625,0,0
1.50954917899071E-06,-1.94212316273479E-05,-0.3515625,0,0
4.60206081243086E-07,-1.90139198821271E-05,-0.3515625,0,0
-4.43567159891245E-07,-2.07325683732051E-05,-0.3515625,0,0
-7.76003389546531E-07,-2.21023638005136E-05,-0.3515625,0,0
-4.81590006984334E-07,-2.3556796804769E-05,-0.3515625,0,0
4.14469596421441E-08,-2.28498483920703E-05,-0.3515625,0,0
2.2028277157915E-07,-1.94232088688295E-05,-0.3515625,0,0
-1.06527631160702E-08,-1.70795337908203E-05,-0.3515625,0,0
-5.3871394811722E-07,-1.60770778165897E-05,-0.3515625,0,0
-1.38851419251296E-07,-1.78946320374962E-05,-0.3515625,0,0
4.00220898200132E-07,-1.71680130733876E-05,-0.3515625,0,0
1.04699665826047E-06,-1.72410200320883E-05,-0.3515625,0,0
2.39788960243459E-06,-1.67752532433951E-05,-0.3515625,0,0
4.18658601120114E-06,-1.8288808860234E-05,-0.3515625,0,0
3.79491393687204E-06,-1.86027737072436E-05,-0.3515625,0,0
2.37976905737014E-06,-1.92014431377174E-05,-0.3515625,0,0
1.28007332023117E-06,-1.83573065442033E-05,-0.3515625,0,0
1.73608646036882E-06,-1.83181582542602E-05,-0.3515625,0,0
2.63362699115532E-06,-1.68594251590548E-05,-0.3515625,0,0
3.74250066670356E-06,-1.50432424561586E-05,-0.3515625,0,0
4.19836078435765E-06,-1.31864244394819E-05,-0.3515625,0,0
3.14950125357427E-06,-1.31315773614915E-05,-0.3515625,0,0
1.08707820345444E-06,-1.28191177282133E-05,-0.3515625,0,0
1.41999453262542E-06,-1.81662690010853E-05,-0.3515625,0,0
1.4908301864125E-06,-1.26246386571438E-05,-0.3515625,0,0
3.90069362765644E-06,-1.52221009557252E-05,-0.3515625,0,0
4.8155434342334E-06,-1.59089649969246E-05,-0.3515625,0,0
4.94269897899358E-06,-2.1083869796712E-05,-0.3515625,0,0
5.50810045751859E-06,-1.90098362509161E-05,-0.3515625,0,0
5.81719041292672E-06,-1.75028471858241E-05,-0.3515625,0,0
5.11182679474587E-06,-1.61621646839194E-05,-0.3515625,0,0
3.72854674424161E-06,-1.60270556079922E-05,-0.3515625,0,0
2.85474766315019E-06,-1.74387387232855E-05,-0.3515625,0,0
2.81604843621608E-06,-1.7652406313573E-05,-0.3515625,0,0
3.82503640139475E-06,-1.71471619978547E-05,-0.3515625,0,0
4.22740095018526E-06,-1.54856079461752E-05,-0.3515625,0,0
3.55651059180673E-06,-1.67369380505988E-05,-0.3515625,0,0
2.35365337175608E-06,-1.8816792362486E-05,-0.3515625,0,0
1.35346090246458E-06,-2.26373776968103E-05,-0.3515625,0,0
1.94541757991828E-06,-2.21517839236185E-05,-0.3515625,0,0
2.9147067834856E-06,-2.00127869902644E-05,-0.3515625,0,0
2.08763844966597E-06,-1.75369114003843E-05,-0.3515625,0,0
8.86100053776318E-07,-1.82499861693941E-05,-0.3515625,0,0
1.22670417113113E-06,-1.88390058610821E-05,-0.3515625,0,0
3.10870859721035E-06,-2.01260445464868E-05,-0.3515625,0,0
4.25941470894031E-06,-2.07494194910396E-05,-0.3515625,0,0
4.17792216467205E-06,-2.00295999093214E-05,-0.3515625,0,0
4.47763068223139E-06,-1.83612974069547E-05,-0.3515625,0,0
3.9832934817241E-06,-1.76186695171054E-05,-0.3515625,0,0
1.21179743928224E-06,-1.34779638756299E-05,-0.3515625,0,0
4.41579288690264E-07,-1.78438876901055E-05,-0.3515625,0,0
1.62138590553695E-07,-1.24385232993518E-05,-0.3515625,0,0
1.42334897645924E-06,-1.7515427316539E-05,-0.3515625,0,0
8.81756321291505E-08,-1.70628700288944E-05,-0.3515625,0,0
2.21985317239159E-07,-2.02108803932788E-05,-0.3515625,0,0
7.27027952507342E-07,-1.76878056663554E-05,-0.3515625,0,0
2.42620876633737E-06,-1.83697266038507E-05,-0.3515625,0,0
2.64671689365059E-06,-1.92114894161932E-05,-0.3515625,0,0
1.93747177945625E-06,-2.13205566979013E-05,-0.3515625,0,0
2.30165983339248E-06,-2.28247045015451E-05,-0.3515625,0,0
3.8279563341348E-06,-2.06402128242189E-05,-0.3515625,0,0
5.28270857103053E-06,-1.75627628777875E-05,-0.3515625,0,0
6.51824211672647E-06,-1.35784002850414E-05,-0.3515625,0,0
7.67345227359328E-06,-1.31320421132841E-05,-0.3515625,0,0
7.3514584073564E-06,-1.34809451992624E-05,-0.3515625,0,0
7.03738123775111E-06,-1.59614319272805E-05,-0.3515625,0,0
6.89657008479116E-06,-1.4930107681721E-05,-0.3515625,0,0
6.71210364089347E-06,-1.40393804031191E-05,-0.3515625,0,0
5.61554816158605E-06,-1.24272064567776E-05,-0.3515625,0,0
4.61786930827657E-06,-1.23604486361728E-05,-0.3515625,0,0
3.32931358570931E-06,-1.24619027701556E-05,-0.3515625,0,0
3.67631287190306E-06,-1.37222268676851E-05,-0.3515625,0,0
5.1179254114686E-06,-1.35132540890481E-05,-0.3515625,0,0
5.56397890250082E-06,-1.36978014779743E-05,-0.3515625,0,0
5.2622035582317E-06,-1.42853905344964E-05,-0.3515625,0,0
5.89651835980476E-06,-1.60068175318884E-05,-0.3515625,0,0
5.71161035622936E-06,-1.5533671103185E-05,-0.3515625,0,0
7.73841293266742E-06,-2.2703483409714E-05,-0.3515625,0,0
4.73209047413548E-06,-1.87965542863822E-05,-0.3515625,0,0
5.8221812651027E-06,-2.40198078245157E-05,-0.3515625,0,0
5.34391028850223E-06,-2.2056217858335E-05,-0.3515625,0,0
5.87842760069179E-06,-2.54394908552058E-05,-0.3515625,0,0
3.8049511204008E-06,-2.26962620217819E-05,-0.3515625,0,0
3.61086108568998E-06,-2.0099789253436E-05,-0.3515625,0,0
3.12849874717358E-06,-1.85772532859119E-05,-0.3515625,0,0
1.86216766451253E-06,-1.94360181922093E-05,-0.3515625,0,0
1.57376905463025E-06,-1.97161843971116E-05,-0.3515625,0,0
2.65811627286894E-06,-1.94219646800775E-05,-0.3515625,0,0
3.82793177777785E-06,-2.07354987651343E-05,-0.3515625,0,0
2.9048690066702E-06,-1.95314933080226E-05,-0.3515625,0,0
2.68651365331607E-06,-1.78976424649591E-05,-0.3515625,0,0
3.49500805896241E-06,-1.37283122967347E-05,-0.3515625,0,0
5.31681598658906E-06,-1.29237214423483E-05,-0.3515625,0,0
5.40908422408393E-06,-1.25284614114207E-05,-0.3515625,0,0
4.93904190079775E-06,-1.36160269903485E-05,-0.3515625,0,0
4.26395217800746E-06,-1.31423566926969E-05,-0.3515625,0,0
4.49331400886877E-06,-1.35640821099514E-05,-0.3515625,0,0
3.81389372705598E-06,-1.31106298795203E-05,-0.3515625,0,0
3.89761180485948E-06,-1.46776274050353E-05,-0.3515625,0,0
4.70603845315054E-06,-1.48991020978428E-05,-0.3515625,0,0
4.82189761896734E-06,-1.49439147207886E-05,-0.3515625,0,0
3.22072378367011E-06,-1.49751467688475E-05,-0.3515625,0,0
2.99546195492439E-06,-1.50243586176657E-05,-0.3515625,0,0
4.50434072263306E-06,-1.13101114038727E-05,-0.3515625,0,0
6.89868465997279E-06,-1.61856951308437E-05,-0.3515625,0,0
4.88596970171784E-06,-1.40829561132705E-05,-0.3515625,0,0
5.87496151638334E-06,-1.88074227480683E-05,-0.3515625,0,0
5.19355535288923E-06,-1.54408844537102E-05,-0.3515625,0,0
3.36336347572797E-06,-1.47201853906154E-05,-0.3515625,0,0
1.55769021148444E-06,-1.20466493171989E-05,-0.3515625,0,0
2.63399374489381E-06,-1.23229001474101E-05,-0.3515625,0,0
3.24004463436722E-06,-1.14099129859824E-05,-0.3515625,0,0
2.20474726120301E-06,-1.12858151624096E-05,-0.3515625,0,0
3.32536416181028E-07,-1.25189035315998E-05,-0.3515625,0,0
-1.02985677585821E-06,-1.50178830153891E-05,-0.3515625,0,0
2.4131676923389E-07,-1.95599968719762E-05,-0.3515625,0,0
1.82734186182643E-06,-2.17561919271247E-05,-0.3515625,0,0
2.61290711023321E-06,-2.14695974136703E-05,-0.3515625,0,0
2.42575492848118E-06,-1.72345171449706E-05,-0.3515625,0,0
2.38107008954103E-06,-1.52525835801498E-05,-0.3515625,0,0
1.29543423099676E-06,-1.45856729432126E-05,-0.3515625,0,0
-5.80832715257884E-09,-1.64907905855216E-05,-0.3515625,0,0
-1.00008662684559E-06,-1.71068404597463E-05,-0.3515625,0,0
-4.72762565095763E-07,-1.76743888005149E-05,-0.3515625,0,0
7.25949291791039E-07,-1.66212648764485E-05,-0.3515625,0,0
9.45256374507153E-07,-1.57734484673711E-05,-0.3515625,0,0
-1.13384658106952E-06,-1.51963949974743E-05,-0.3515625,0,0
-3.53961740984232E-06,-1.57014019350754E-05,-0.3515625,0,0
-4.19272782892222E-06,-1.61802181537496E-05,-0.3515625,0,0
-3.01786076306598E-06,-1.63363074534573E-05,-0.3515625,0,0
-3.87848189120632E-07,-1.32129425765015E-05,-0.3515625,0,0
7.12905830368982E-07,-1.81058312591631E-05,-0.3515625,0,0
3.13326245304779E-06,-1.42462577059632E-05,-0.3515625,0,0
4.34931553172646E-06,-2.0070625396329E-05,-0.3515625,0,0
5.18207843924756E-06,-1.75682471308392E-05,-0.3515625,0,0
4.14781061408576E-06,-1.83642023330322E-05,-0.3515625,0,0
2.32490492635407E-06,-1.66574482136639E-05,-0.3515625,0,0
1.5030332178867E-06,-1.70936600625282E-05,-0.3515625,0,0
1.84351631560276E-06,-1.70752082340186E-05,-0.3515625,0,0
2.00900262825598E-06,-1.836442243075E-05,-0.3515625,0,0
1.41094733407954E-06,-1.95691118278774E-05,-0.3515625,0,0
4.1114617488347E-07,-1.93243085959693E-05,-0.3515625,0,0
5.32630281213642E-07,-1.92976967809955E-05,-0.3515625,0,0
1.4632023521699E-06,-1.84307427844033E-05,-0.3515625,0,0
1.8302823718841E-06,-1.9852835976053E-05,-0.3515625,0,0
1.56003284246253E-06,-1.97911631403258E-05,-0.3515625,0,0
9.64671812653251E-07,-1.98676480067661E-05,-0.3515625,0,0
1.19387277663918E-06,-1.82222120201914E-05,-0.3515625,0,0
2.30281625590578E-06,-1.96190048882272E-05,-0.3515625,0,0
3.56437863047177E-06,-2.16149328480242E-05,-0.3515625,0,0
4.30408545071259E-06,-2.48615106102079E-05,-0.3515625,0,0
4.56606630905299E-06,-2.62557168753119E-05,-0.3515625,0,0
5.27114207216073E-06,-2.73890636890428E-05,-0.3515625,0,0
6.4878868215601E-06,-2.63222846115241E-05,-0.3515625,0,0
6.65580637360108E-06,-2.25092899199808E-05,-0.3515625,0,0
7.19845229468774E-06,-1.65520377777284E-05,-0.3515625,0,0
9.02091051102616E-06,-1.29012332763523E-05,-0.3515625,0,0
9.65006984188221E-06,-9.41066991799744E-06,-0.3515625,0,0
1.4148083209875E-05,-1.37315546453465E-05,-0.3515625,0,0
8.88143040356226E-06,-1.25352926261257E-05,-0.3515625,0,0
9.07213416212471E-06,-1.62300202646293E-05,-0.3515625,0,0
8.34128604765283E-06,-1.40817455758224E-05,-0.3515625,0,0
1.02379271993414E-05,-1.53451219375711E-05,-0.3515625,0,0
9.00316899787867E-06,-1.40560432555503E-05,-0.3515625,0,0
1.02743888419354E-05,-1.47768387250835E-05,-0.3515625,0,0
9.96050766843837E-06,-1.4619190551457E-05,-0.3515625,0,0
9.11576535145286E-06,-1.50148607644951E-05,-0.3515625,0,0
8.23134723759722E-06,-1.54145709529985E-05,-0.3515625,0,0
6.46775788482046E-06,-1.45843741847784E-05,-0.3515625,0,0
5.68502855458064E-06,-1.41984346555546E-05,-0.3515625,0,0
4.40342455476639E-06,-1.3897873031965E-05,-0.3515625,0,0
3.92564243156812E-06,-1.53974197019124E-05,-0.3515625,0,0
2.56013436228386E-06,-1.57128233695403E-05,-0.3515625,0,0
1.92291918210685E-06,-1.81089126272127E-05,-0.3515625,0,0
1.08481901861524E-06,-1.99193000298692E-05,-0.3515625,0,0
2.1853902580915E-06,-2.11602673516609E-05,-0.3515625,0,0
2.80133963315166E-06,-1.97301487787627E-05,-0.3515625,0,0
3.76318507733231E-06,-1.9290991986054E-05,-0.3515625,0,0
3.00187161883514E-06,-1.84409072971903E-05,-0.3515625,0,0
1.94958761312591E-06,-1.76831672433764E-05,-0.3515625,0,0
1.03631737147225E-06,-1.61801217473112E-05,-0.3515625,0,0
1.89657362170692E-06,-1.47358960020938E-05,-0.3515625,0,0
3.12549263981055E-06,-1.45017584145535E-05,-0.3515625,0,0
4.11470546168857E-06,-1.45152162076556E-05,-0.3515625,0,0
3.1471408874495E-06,-1.07559308162308E-05,-0.3515625,0,0
4.17281171394279E-06,-1.38406658152235E-05,-0.3515625,0,0
1.88564513337042E-06,-9.67933920037467E-06,-0.3515625,0,0
6.33226363788708E-07,-1.40146148623899E-05,-0.3515625,0,0
-5.51233313217381E-07,-1.1747979442589E-05,-0.3515625,0,0
1.00343083886401E-06,-1.21039774967358E-05,-0.3515625,0,0
2.16108128370252E-06,-9.83421614364488E-06,-0.3515625,0,0
3.109286808467E-06,-1.12411835289095E-05,-0.3515625,0,0
2.07752032110875E-06,-1.37001406983472E-05,-0.3515625,0,0
1.28073020277952E-06,-1.66172922035912E-05,-0.3515625,0,0
1.9211586277379E-06,-1.72560230566887E-05,-0.3515625,0,0
2.96023813461943E-06,-1.59630271809874E-05,-0.3515625,0,0
3.2981549793476E-06,-1.72771633515367E-05,-0.3515625,0,0
1.91594222087588E-06,-1.83614083653083E-05,-0.3515625,0,0
3.41558461514069E-08,-1.83051688509295E-05,-0.3515625,0,0
-1.86969054993824E-06,-1.60019717441173E-05,-0.3515625,0,0
-2.03775425688946E-06,-1.64514567586593E-05,-0.3515625,0,0
-1.39048427172384E-06,-1.65682122315047E-05,-0.3515625,0,0
2.30818230306795E-07,-1.74957749550231E-05,-0.3515625,0,0
2.03461195269483E-06,-1.6272475477308E-05,-0.3515625,0,0
4.0953009374789E-06,-1.54637764353538E-05,-0.3515625,0,0
4.98908639201545E-06,-1.46376069096732E-05,-0.3515625,0,0
4.19889784097904E-06,-1.43292772918358E-05,-0.3515625,0,0
1.31943465930817E-06,-1.32451232275344E-05,-0.3515625,0,0
-1.064190996658E-06,-1.34451001940761E-05,-0.3515625,0,0
-1.16844046260667E-06,-1.3797111932945E-05,-0.3515625,0,0
1.53731591012729E-07,-1.44570094562368E-05,-0.3515625,0,0
1.50600737924833E-06,-1.34858109959168E-05,-0.3515625,0,0
2.90885236609029E-06,-2.05961459869286E-05,-0.3515625,0,0
2.52350741902774E-06,-1.69632730830926E-05,-0.3515625,0,0
1.68177928117075E-06,-2.05546366487397E-05,-0.3515625,0,0
1.67184180099866E-06,-1.8325121345697E-05,-0.3515625,0,0
2.51515621130238E-06,-1.93193882296328E-05,-0.3515625,0,0
2.01492571250128E-06,-1.69195136550115E-05,-0.3515625,0,0
1.64295011018112E-06,-1.71549454535125E-05,-0.3515625,0,0
1.50304367707577E-06,-1.78723330463981E-05,-0.3515625,0,0
1.5952542753439E-06,-1.97234439838212E-05,-0.3515625,0,0
2.13225371226144E-06,-2.14397496165475E-05,-0.3515625,0,0
2.83254780697462E-06,-2.10223461181158E-05,-0.3515625,0,0
2.91244259642554E-06,-2.02319588424871E-05,-0.3515625,0,0
2.69939255304052E-06,-1.90406572073698E-05,-0.3515625,0,0
3.83656470148708E-06,-2.08104956982424E-05,-0.3515625,0,0
5.02038028571405E-06,-2.17513279494597E-05,-0.3515625,0,0
5.15318924954045E-06,-2.25374260480748E-05,-0.3515625,0,0
4.1219541344617E-06,-2.01711118279491E-05,-0.3515625,0,0
1.87571242804552E-06,-1.79713479155907E-05,-0.3515625,0,0
-5.86914779887593E-07,-1.51797466969583E-05,-0.3515625,0,0
-8.2748374552466E-07,-1.47691080201184E-05,-0.3515625,0,0
7.99289750830212E-07,-1.4704752175021E-05,-0.3515625,0,0
2.81734105556097E-06,-1.50433897943003E-05,-0.3515625,0,0
2.67214568339114E-06,-1.44480045491946E-05,-0.3515625,0,0
1.24311884519557E-06,-1.5261155567714E-05,-0.3515625,0,0
1.2621163705262E-06,-1.72391701198649E-05,-0.3515625,0,0
3.18885986416717E-06,-1.84971831913572E-05,-0.3515625,0,0
3.66405242857581E-06,-1.32042396217003E-05,-0.3515625,0,0
4.97412156619248E-06,-1.68018395925174E-05,-0.3515625,0,0
2.57590477303893E-06,-1.14389222289901E-05,-0.3515625,0,0
2.18833042708866E-06,-1.54440695041558E-05,-0.3515625,0,0
2.64818413597823E-06,-1.12959760372178E-05,-0.3515625,0,0
6.18690592091298E-06,-1.29862091853283E-05,-0.3515625,0,0
6.72728174322401E-06,-1.16329374577617E-05,-0.3515625,0,0
6.12214444117853E-06,-1.2875007087132E-05,-0.3515625,0,0
5.64560059501673E-06,-1.29664704218158E-05,-0.3515625,0,0
6.28466568741715E-06,-1.42982380566536E-05,-0.3515625,0,0
7.26310281606857E-06,-1.68224341905443E-05,-0.3515625,0,0
7.05149523128057E-06,-1.78452701220522E-05,-0.3515625,0,0
4.57926307717571E-06,-1.85802928172052E-05,-0.3515625,0,0
2.30703813031141E-06,-1.75776549440343E-05,-0.3515625,0,0
3.32353192789014E-06,-1.79630333150271E-05,-0.3515625,0,0
5.79690322410897E-06,-1.59739811351756E-05,-0.3515625,0,0
7.93383969721617E-06,-1.55848701979266E-05,-0.3515625,0,0
7.83539235271746E-06,-1.44152145367116E-05,-0.3515625,0,0
7.94629522715695E-06,-1.4753888535779E-05,-0.3515625,0,0
7.75053376855794E-06,-1.43697079693084E-05,-0.3515625,0,0
7.28236818758887E-06,-1.60173221956939E-05,-0.3515625,0,0
6.05966852162965E-06,-1.55887246364728E-05,-0.3515625,0,0
6.57767395750852E-06,-1.56315563799581E-05,-0.3515625,0,0
8.3723580246442E-06,-1.77826368599199E-05,-0.3515625,0,0
8.43029829411535E-06,-2.0988152755308E-05,-0.3515625,0,0
7.06273021933157E-06,-2.10822836379521E-05,-0.3515625,0,0
6.14015789324185E-06,-1.98265788640128E-05,-0.3515625,0,0
5.03819273944828E-06,-1.4701150576002E-05,-0.3515625,0,0
7.4210674938513E-06,-1.84039054147433E-05,-0.3515625,0,0
7.10738095222041E-06,-1.07809928522329E-05,-0.3515625,0,0
9.33862338570179E-06,-1.77570309460862E-05,-0.3515625,0,0
7.28943496142165E-06,-2.26537940761773E-05,-0.3515625,0,0
6.72206624585669E-06,-3.20795879815705E-05,-0.3515625,0,0
5.26152507518418E-06,-3.20202707371209E-05,-0.3515625,0,0
4.47692036686931E-06,-2.93787488772068E-05,-0.3515625,0,0
2.99539851766895E-06,-2.32987422350561E-05,-0.3515625,0,0
3.10979453388427E-06,-1.95275533769745E-05,-0.3515625,0,0
4.59940065411502E-06,-1.90721784747439E-05,-0.3515625,0,0
3.95434699385078E-06,-1.95243446796667E-05,-0.3515625,0,0
2.5056228878384E-06,-2.06661807169439E-05,-0.3515625,0,0
2.42528403759934E-06,-1.9906394300051E-05,-0.3515625,0,0
4.10543816542486E-06,-2.02756236831192E-05,-0.3515625,0,0
4.24132258558529E-06,-1.86735778697766E-05,-0.3515625,0,0
3.4291999781999E-06,-1.9364964828128E-05,-0.3515625,0,0
1.68622716500977E-06,-1.82882922672434E-05,-0.3515625,0,0
1.43727584145381E-06,-1.80452825588873E-05,-0.3515625,0,0
1.85395492735552E-06,-1.62364212883404E-05,-0.3515625,0,0
2.71097997028846E-06,-1.56900587171549E-05,-0.3515625,0,0
9.84825987870863E-07,-1.44369514600839E-05,-0.3515625,0,0
-1.88692456504214E-06,-1.53684122778941E-05,-0.3515625,0,0
-2.07310472433164E-06,-1.55756279127672E-05,-0.3515625,0,0
5.69957023799361E-07,-1.46987968037138E-05,-0.3515625,0,0
1.73948524206935E-06,-1.36018325065379E-05,-0.3515625,0,0
2.82821730479554E-07,-1.32604909595102E-05,-0.3515625,0,0
-9.31598037823278E-07,-1.03649053926347E-05,-0.3515625,0,0
-8.49673597258516E-07,-1.52163229358848E-05,-0.3515625,0,0
3.84065714342796E-07,-1.42662129292148E-05,-0.3515625,0,0
3.59541388661455E-07,-1.99971091205953E-05,-0.3515625,0,0
8.29057967166591E-07,-1.71085630427115E-05,-0.3515625,0,0
1.69531631399877E-06,-1.54150638991268E-05,-0.3515625,0,0
2.85082683149085E-06,-1.28095216496149E-05,-0.3515625,0,0
1.87052262390353E-06,-1.3339682482183E-05,-0.3515625,0,0
2.22876739286448E-08,-1.31156639326946E-05,-0.3515625,0,0
-4.06658813290051E-07,-1.30229764181422E-05,-0.3515625,0,0
7.95268420006323E-07,-1.35871250677155E-05,-0.3515625,0,0
2.69236215899582E-06,-1.33275552798295E-05,-0.3515625,0,0
3.75337003788445E-06,-1.3339139513846E-05,-0.3515625,0,0
2.96020539281017E-06,-1.30192729557166E-05,-0.3515625,0,0
1.4838103652437E-06,-1.40913180075586E-05,-0.3515625,0,0
1.79655876308971E-06,-1.36033822855097E-05,-0.3515625,0,0
3.10947621073865E-06,-1.40835027195862E-05,-0.3515625,0,0
3.97977328248089E-06,-1.38292380142957E-05,-0.3515625,0,0
3.88487751479261E-06,-1.49510487972293E-05,-0.3515625,0,0
2.97291376227804E-06,-1.53899236465804E-05,-0.3515625,0,0
2.01611169359239E-06,-1.59448663907824E-05,-0.3515625,0,0
2.54947531175276E-06,-1.51609119711793E-05,-0.3515625,0,0
3.26307281284244E-06,-1.41771279231762E-05,-0.3515625,0,0
3.71320925296459E-06,-1.33719995574211E-05,-0.3515625,0,0
4.30595719080884E-06,-1.32656050482183E-05,-0.3515625,0,0
4.18531544710277E-06,-1.15447801363189E-05,-0.3515625,0,0
3.16271984956984E-06,-1.08323447420844E-05,-0.3515625,0,0
2.31103285841527E-06,-1.05003391581704E-05,-0.3515625,0,0
2.50299990511849E-06,-1.55395464389585E-05,-0.3515625,0,0
1.1078726629421E-06,-1.22040901260334E-05,-0.3515625,0,0
2.57385113400233E-06,-1.46763331940747E-05,-0.3515625,0,0
2.73028877018078E-06,-1.23309091577539E-05,-0.3515625,0,0
2.26888323595631E-06,-1.29719483084045E-05,-0.3515625,0,0
1.36880589707289E-06,-1.21012408271781E-05,-0.3515625,0,0
1.83513907359156E-06,-1.30131229525432E-05,-0.3515625,0,0
1.99184569282806E-06,-1.34418805828318E-05,-0.3515625,0,0
2.66160122919246E-06,-1.44796395034064E-05,-0.3515625,0,0
2.97726342068927E-06,-1.61016578203999E-05,-0.3515625,0,0
3.67913526133634E-06,-1.7782407667255E-05,-0.3515625,0,0
5.63464891456533E-06,-2.01763377845054E-05,-0.3515625,0,0
5.88009334023809E-06,-2.02604296646314E-05,-0.3515625,0,0
4.52865151601145E-06,-1.78191185113974E-05,-0.3515625,0,0
3.00813985631976E-06,-1.35047575895442E-05,-0.3515625,0,0
3.48182697962329E-06,-1.42092349051381E-05,-0.3515625,0,0
4.68572761747055E-06,-1.74207943928195E-05,-0.3515625,0,0
5.51389348402154E-06,-2.00089398276759E-05,-0.3515625,0,0
5.4147926675796E-06,-1.80490533239208E-05,-0.3515625,0,0
6.14924192632316E-06,-1.63279510161374E-05,-0.3515625,0,0
5.95714527662494E-06,-1.55239285959397E-05,-0.3515625,0,0
4.52520816907054E-06,-1.6591025996604E-05,-0.3515625,0,0
3.61558727490774E-06,-1.76982084667543E-05,-0.3515625,0,0
4.13790075981524E-06,-1.90801838471089E-05,-0.3515625,0,0
4.63239575765328E-06,-1.99798942048801E-05,-0.3515625,0,0
3.55798965756549E-06,-2.01021612156183E-05,-0.3515625,0,0
5.43233852567937E-07,-1.56389596668305E-05,-0.3515625,0,0
6.46398575554485E-07,-2.10885737033095E-05,-0.3515625,0,0
6.46252885871945E-07,-1.3074818525638E-05,-0.3515625,0,0
-1.240626801291E-07,-1.5359108147095E-05,-0.3515625,0,0
-4.7545321990583E-07,-1.34891806737869E-05,-0.3515625,0,0
1.27609564515296E-06,-1.73983025888447E-05,-0.3515625,0,0
1.54250130890432E-06,-1.46193597174715E-05,-0.3515625,0,0
9.26438133319607E-07,-1.43928855322883E-05,-0.3515625,0,0
-8.36111553326191E-07,-1.33233033920988E-05,-0.3515625,0,0
-6.18177182332147E-07,-1.40361016747192E-05,-0.3515625,0,0
1.37940821787197E-06,-1.49998459164635E-05,-0.3515625,0,0
2.1557018499152E-06,-1.39719022627105E-05,-0.3515625,0,0
1.59378578246105E-06,-1.35147283799597E-05,-0.3515625,0,0
1.17890886031091E-06,-1.28733945530257E-05,-0.3515625,0,0
1.7441921045247E-06,-1.52197262650589E-05,-0.3515625,0,0
1.53993823914789E-06,-1.58749426191207E-05,-0.3515625,0,0
9.29197256027692E-07,-1.88311332749436E-05,-0.3515625,0,0
1.26667794120294E-06,-1.98650650418131E-05,-0.3515625,0,0
2.80015660791832E-06,-2.0699229935417E-05,-0.3515625,0,0
3.67398342859815E-06,-1.81179220817285E-05,-0.3515625,0,0
3.68257587979315E-06,-1.64052707987139E-05,-0.3515625,0,0
2.86465797216806E-06,-1.43762154038996E-05,-0.3515625,0,0
2.39479390984343E-06,-1.3298844351084E-05,-0.3515625,0,0
1.96794098883402E-06,-1.28841293189907E-05,-0.3515625,0,0
2.0609229522961E-06,-1.5136966794671E-05,-0.3515625,0,0
3.64885022463568E-06,-1.76878766069422E-05,-0.3515625,0,0
5.51621315025841E-06,-1.93308642337797E-05,-0.3515625,0,0
5.43403257324826E-06,-1.58119601110229E-05,-0.3515625,0,0
7.62029549150611E-06,-2.25601434067357E-05,-0.3515625,0,0
5.44526483281516E-06,-1.84574273589533E-05,-0.3515625,0,0
7.06861419530469E-06,-2.6283127226634E-05,-0.3515625,0,0
5.77502487431047E-06,-2.7666366804624E-05,-0.3515625,0,0
5.50995810044697E-06,-3.08305898215622E-05,-0.3515625,0,0
5.57009525437024E-06,-2.56632738455664E-05,-0.3515625,0,0
8.56682072480908E-06,-2.27672499022447E-05,-0.3515625,0,0
1.03777156255092E-05,-2.05907545023365E-05,-0.3515625,0,0
9.98157520371024E-06,-2.01325565285515E-05,-0.3515625,0,0
7.85779502621153E-06,-2.0525258150883E-05,-0.3515625,0,0
4.8063566282508E-06,-2.1553976694122E-05,-0.3515625,0,0
2.98412032861961E-06,-2.57091469393345E-05,-0.3515625,0,0
2.67745917881257E-06,-2.82530836557271E-05,-0.3515625,0,0
3.84540408049361E-06,-2.97412752843229E-05,-0.3515625,0,0
4.48289301857585E-06,-2.69144802587107E-05,-0.3515625,0,0
4.46464810011094E-06,-2.54143105848925E-05,-0.3515625,0,0
2.26511406253849E-06,-2.23779570660554E-05,-0.3515625,0,0
7.16615488727257E-07,-2.08543424378149E-05,-0.3515625,0,0
1.31990134377702E-06,-1.89476359082619E-05,-0.3515625,0,0
4.23148685513297E-06,-1.92960796994157E-05,-0.3515625,0,0
5.83926976105431E-06,-1.89421607501572E-05,-0.3515625,0,0
6.6984212026E-06,-1.87094483408146E-05,-0.3515625,0,0
7.17896045898669E-06,-1.72753116203239E-05,-0.3515625,0,0
7.85582233220339E-06,-1.62622673087753E-05,-0.3515625,0,0
7.59549584472552E-06,-1.44280948006781E-05,-0.3515625,0,0
7.20978960089269E-06,-1.35044620037661E-05,-0.3515625,0,0
5.30886745764292E-06,-1.04990331237786E-05,-0.3515625,0,0
7.81193375587463E-06,-1.51499261846766E-05,-0.3515625,0,0
6.25772781859268E-06,-1.42810913530411E-05,-0.3515625,0,0
7.4082436185563E-06,-2.07488283194834E-05,-0.3515625,0,0
5.87721160627552E-06,-2.03908912226325E-05,-0.3515625,0,0
5.28527016285807E-06,-2.34683720918838E-05,-0.3515625,0,0
3.15961278829491E-06,-2.31204994634027E-05,-0.3515625,0,0
3.65802338819776E-06,-2.18393615796231E-05,-0.3515625,0,0
3.95777533412911E-06,-1.86305514944252E-05,-0.3515625,0,0
3.07289201373351E-06,-1.7361315258313E-05,-0.3515625,0,0
2.11496035262826E-06,-1.77004367287736E-05,-0.3515625,0,0
2.41338307205297E-06,-1.74236338352785E-05,-0.3515625,0,0
3.61981233254483E-06,-1.7174388631247E-05,-0.3515625,0,0
2.93998141387419E-06,-1.50807172758505E-05,-0.3515625,0,0
2.25141411647201E-06,-1.40891243063379E-05,-0.3515625,0,0
2.31144031204167E-06,-1.27830398923834E-05,-0.3515625,0,0
3.15695888275513E-06,-1.26697705127299E-05,-0.3515625,0,0
3.24635243487137E-06,-1.10048395072226E-05,-0.3515625,0,0
4.24247218688834E-06,-1.08661979538738E-05,-0.3515625,0,0
3.70405336980184E-06,-1.11115305116982E-05,-0.3515625,0,0
2.16409512177052E-06,-1.22276069305371E-05,-0.3515625,0,0
4.27712677719683E-07,-1.04739337984938E-05,-0.3515625,0,0
1.17932174248381E-07,-8.4008315752726E-06,-0.3515625,0,0
4.31247428878123E-07,-7.77326113166055E-06,-0.3515625,0,0
6.25789823516243E-07,-9.38658195082098E-06,-0.3515625,0,0
-2.44159394924282E-07,-1.20824670375441E-05,-0.3515625,0,0
-8.66388973008725E-07,-1.47503405969474E-05,-0.3515625,0,0
-1.21303219202673E-06,-1.3620014215121E-05,-0.3515625,0,0
-1.35812331336638E-06,-1.98710586118978E-05,-0.3515625,0,0
6.46841613161087E-07,-1.56462920131162E-05,-0.3515625,0,0
2.07839093491202E-06,-1.91381714103045E-05,-0.3515625,0,0
3.02990815725934E-06,-1.67303842317779E-05,-0.3515625,0,0
2.83789131572121E-06,-1.86774523172062E-05,-0.3515625,0,0
3.31218302562775E-06,-1.73413645825349E-05,-0.3515625,0,0
3.05160392599646E-06,-1.90977025340544E-05,-0.3515625,0,0
1.73311968865164E-06,-1.99308542505605E-05,-0.3515625,0,0
1.63152299137437E-06,-2.03493909793906E-05,-0.3515625,0,0
2.72523902822286E-06,-1.97730914806016E-05,-0.3515625,0,0
3.62376204066095E-06,-1.8043185264105E-05,-0.3515625,0,0
4.14504665968707E-06,-1.71027168107685E-05,-0.3515625,0,0
4.48271794084576E-06,-1.48600092870765E-05,-0.3515625,0,0
4.14687156080618E-06,-1.44882233144017E-05,-0.3515625,0,0
3.34576839122747E-06,-1.32373488668236E-05,-0.3515625,0,0
1.76466528500896E-06,-1.30504886328708E-05,-0.3515625,0,0
8.77825186762493E-07,-1.01138048194116E-05,-0.3515625,0,0
2.07229663828912E-06,-9.93130015558563E-06,-0.3515625,0,0
4.22422544943402E-06,-1.18025945994304E-05,-0.3515625,0,0
4.78380843560444E-06,-1.46459951793076E-05,-0.3515625,0,0
3.25992573380063E-06,-1.47483133332571E-05,-0.3515625,0,0
1.62421576987981E-06,-1.56002661242383E-05,-0.3515625,0,0
1.21595667224028E-06,-1.61477473739069E-05,-0.3515625,0,0
1.06991376469523E-06,-1.62981614266755E-05,-0.3515625,0,0
3.57769692982401E-07,-1.71136198332533E-05,-0.3515625,0,0
-1.46416562074592E-06,-1.9926565073547E-05,-0.3515625,0,0
-1.90438902336609E-06,-1.71468982443912E-05,-0.3515625,0,0
-1.52698055444489E-06,-2.39967503148364E-05,-0.3515625,0,0
-9.30201338178449E-08,-1.80022834683768E-05,-0.3515625,0,0
-6.02188265474979E-07,-2.24478499148972E-05,-0.3515625,0,0
9.40027291562728E-07,-1.94423846551217E-05,-0.3515625,0,0
1.58049829224183E-06,-2.24205596168758E-05,-0.3515625,0,0
2.47174443757103E-06,-1.93658270291053E-05,-0.3515625,0,0
2.67403493126039E-06,-1.87984533113195E-05,-0.3515625,0,0
3.07602545035479E-06,-1.68003425642382E-05,-0.3515625,0,0
3.20929643748968E-06,-1.7586222384125E-05,-0.3515625,0,0
2.97461292575463E-06,-1.91629987966735E-05,-0.3515625,0,0
2.90372440758802E-06,-1.87842015293427E-05,-0.3515625,0,0
2.33451805797813E-06,-1.9549637727323E-05,-0.3515625,0,0
1.28016802136699E-06,-1.92481766134733E-05,-0.3515625,0,0
7.38106052722287E-07,-2.00757513084682E-05,-0.3515625,0,0
2.08951178137795E-06,-1.75320583366556E-05,-0.3515625,0,0
3.42961789101537E-06,-1.73277767316904E-05,-0.3515625,0,0
4.6429704525508E-06,-1.56175537995296E-05,-0.3515625,0,0
4.69636324851308E-06,-1.57774775288999E-05,-0.3515625,0,0
4.43389899373869E-06,-1.46376223710831E-05,-0.3515625,0,0
4.97821793032927E-06,-1.47983510032645E-05,-0.3515625,0,0
7.58897249397705E-06,-1.3847016816726E-05,-0.3515625,0,0
9.00884788279654E-06,-1.4986499081715E-05,-0.3515625,0,0
7.57589668864966E-06,-1.65664132509846E-05,-0.3515625,0,0
6.29014994046884E-06,-1.85659318958642E-05,-0.3515625,0,0
6.58864337310661E-06,-1.86075685633114E-05,-0.3515625,0,0
6.51948585073114E-06,-1.69739250850398E-05,-0.3515625,0,0
3.2480993468198E-06,-1.24097996376804E-05,-0.3515625,0,0
2.5607691895857E-06,-1.89064103324199E-05,-0.3515625,0,0
-1.05358549262746E-06,-1.81306513695745E-05,-0.3515625,0,0
-9.62412627814047E-07,-2.42828100454062E-05,-0.3515625,0,0
-2.46733839048829E-06,-2.25889816647395E-05,-0.3515625,0,0
-1.57775366460555E-06,-2.39367655012757E-05,-0.3515625,0,0
-3.26552964224902E-07,-2.10935722861905E-05,-0.3515625,0,0
2.13109660762711E-06,-1.98343404917978E-05,-0.3515625,0,0
2.37018571169756E-06,-1.84786440513562E-05,-0.3515625,0,0
2.31850367526931E-06,-1.79526850843104E-05,-0.3515625,0,0
3.12311317429703E-06,-1.75126751855714E-05,-0.3515625,0,0
3.76556045011966E-06,-1.581273136253E-05,-0.3515625,0,0
4.3821646613651E-06,-1.52287357195746E-05,-0.3515625,0,0
4.31634043707163E-06,-1.42488188430434E-05,-0.3515625,0,0
4.52000449513434E-06,-1.44018367791432E-05,-0.3515625,0,0
3.96481846109964E-06,-1.39292033054517E-05,-0.3515625,0,0
4.09030508308206E-06,-1.57012345880503E-05,-0.3515625,0,0
4.12100780522451E-06,-1.58645434567006E-05,-0.3515625,0,0
4.41962492914172E-06,-1.65422134159599E-05,-0.3515625,0,0
4.08066125601181E-06,-1.59711762535153E-05,-0.3515625,0,0
4.28323301093769E-06,-1.6310599676217E-05,-0.3515625,0,0
5.08646917296574E-06,-1.66432564583374E-05,-0.3515625,0,0
6.99949077898054E-06,-1.79740127350669E-05,-0.3515625,0,0
8.40126449475065E-06,-1.70131897903048E-05,-0.3515625,0,0
9.15535838430515E-06,-1.63317745318636E-05,-0.3515625,0,0
8.86940142663661E-06,-1.7221573216375E-05,-0.3515625,0,0
7.12186101736734E-06,-1.77670881384984E-05,-0.3515625,0,0
4.22041148340213E-06,-1.42927883644006E-05,-0.3515625,0,0
4.55228519058437E-06,-2.11114711419214E-05,-0.3515625,0,0
1.46067054629384E-06,-1.75135228346335E-05,-0.3515625,0,0
2.41213797380624E-06,-2.18639306694968E-05,-0.3515625,0,0
6.28032353233721E-07,-1.86327197297942E-05,-0.3515625,0,0
-5.14209936852694E-08,-1.87610694410978E-05,-0.3515625,0,0
-1.37359137397652E-07,-1.58602961164434E-05,-0.3515625,0,0
1.72592956459994E-06,-1.74741780938348E-05,-0.3515625,0,0
2.1671146441804E-06,-1.71584888448706E-05,-0.3515625,0,0
3.24656781458543E-07,-1.53867822518805E-05,-0.3515625,0,0
-3.11899634652946E-06,-1.40436341098393E-05,-0.3515625,0,0
-5.04763102071593E-06,-1.3433484127745E-05,-0.3515625,0,0
-3.70325983567454E-06,-1.40041383929201E-05,-0.3515625,0,0
-1.34659057948738E-06,-1.38016939672525E-05,-0.3515625,0,0
3.76724671014017E-07,-1.57659324031556E-05,-0.3515625,0,0
-1.22795043466795E-07,-1.63800905284006E-05,-0.3515625,0,0
7.06285163687426E-08,-1.85018652700819E-05,-0.3515625,0,0
1.2521007874966E-06,-1.78872305696132E-05,-0.3515625,0,0
3.57349631485704E-06,-1.69525519595481E-05,-0.3515625,0,0
3.86273268304649E-06,-1.39751164169866E-05,-0.3515625,0,0
4.14758551414707E-06,-1.28888686958817E-05,-0.3515625,0,0
5.15529109179624E-06,-1.21613966257428E-05,-0.3515625,0,0
5.53613836018485E-06,-1.17073386718403E-05,-0.3515625,0,0
4.21859840571415E-06,-1.03034781204769E-05,-0.3515625,0,0
3.20588969771052E-06,-1.06083816717728E-05,-0.3515625,0,0
3.15982310894469E-06,-1.31230708575458E-05,-0.3515625,0,0
2.90893103738199E-06,-1.46865904753213E-05,-0.3515625,0,0
1.36483606638649E-06,-9.96227481664391E-06,-0.3515625,0,0
1.93280220628367E-06,-1.19990818348015E-05,-0.3515625,0,0
3.7541769870586E-06,-8.36847902974114E-06,-0.3515625,0,0
6.56621796224499E-06,-1.54485642269719E-05,-0.3515625,0,0
5.8782507039723E-06,-1.58438906510128E-05,-0.3515625,0,0
5.72812405152945E-06,-1.70620860444615E-05,-0.3515625,0,0
6.42589020571904E-06,-1.63023250934202E-05,-0.3515625,0,0
8.1071402746602E-06,-1.88413014257094E-05,-0.3515625,0,0
7.79239599069115E-06,-2.03705913008889E-05,-0.3515625,0,0
6.03345233685104E-06,-1.94467229448492E-05,-0.3515625,0,0
5.0486441978137E-06,-1.61381612997502E-05,-0.3515625,0,0
4.90559341415064E-06,-1.32416007545544E-05,-0.3515625,0,0
5.24252209288534E-06,-1.49241068356787E-05,-0.3515625,0,0
5.45222019354696E-06,-1.68935403053183E-05,-0.3515625,0,0
5.83189648750704E-06,-1.94722397282021E-05,-0.3515625,0,0
5.75031617700006E-06,-2.02279043151066E-05,-0.3515625,0,0
5.38440599484602E-06,-2.11476144613698E-05,-0.3515625,0,0
4.22465382143855E-06,-2.0408571799635E-05,-0.3515625,0,0
3.59461046173237E-06,-2.07649027288426E-05,-0.3515625,0,0
3.62674995812995E-06,-1.98301604541484E-05,-0.3515625,0,0
4.25896860178909E-06,-1.87865571206203E-05,-0.3515625,0,0
4.50550396635663E-06,-1.65941964951344E-05,-0.3515625,0,0
4.75462275062455E-06,-1.50462774399784E-05,-0.3515625,0,0
5.67408778806566E-06,-1.43382667374681E-05,-0.3515625,0,0
5.67396864425973E-06,-1.54251629282953E-05,-0.3515625,0,0
3.61218076250225E-06,-1.65240071510198E-05,-0.3515625,0,0
1.80758252099622E-06,-1.60725230671233E-05,-0.3515625,0,0
1.78043137566419E-06,-1.33492567329085E-05,-0.3515625,0,0
3.68822520613321E-06,-1.94827607629122E-05,-0.3515625,0,0
4.15250906371512E-06,-1.48461131175281E-05,-0.3515625,0,0
4.35682932220516E-06,-1.69225477293367E-05,-0.3515625,0,0
4.79295840705163E-06,-1.23866711874143E-05,-0.3515625,0,0
6.15368799117277E-06,-1.2678626262641E-05,-0.3515625,0,0
6.46348780719563E-06,-1.17012505143066E-05,-0.3515625,0,0
7.37212258172804E-06,-1.27517005239497E-05,-0.3515625,0,0
7.87610679253703E-06,-1.13962232717313E-05,-0.3515625,0,0
6.81606070429552E-06,-1.11272656795336E-05,-0.3515625,0,0
5.88607963436516E-06,-1.37342694870313E-05,-0.3515625,0,0
4.93089009978576E-06,-1.76642679434735E-05,-0.3515625,0,0
3.78181471205608E-06,-2.11639744520653E-05,-0.3515625,0,0
2.35625520872418E-06,-2.26570355152944E-05,-0.3515625,0,0
8.31560726055613E-07,-2.59091011685086E-05,-0.3515625,0,0
-5.73761212763202E-07,-2.88776573142968E-05,-0.3515625,0,0
-3.72110037005768E-07,-3.29991162288934E-05,-0.3515625,0,0
1.8921127775684E-06,-3.23818312608637E-05,-0.3515625,0,0
4.9623354243522E-06,-2.99473049381049E-05,-0.3515625,0,0
6.17869272900862E-06,-2.60621163761243E-05,-0.3515625,0,0
5.9437847994559E-06,-2.46103518293239E-05,-0.3515625,0,0
5.3705175560026E-06,-2.34573308262043E-05,-0.3515625,0,0
4.68664757136139E-06,-2.33824503084179E-05,-0.3515625,0,0
5.87500653637107E-06,-2.25707390200114E-05,-0.3515625,0,0
7.95337928138906E-06,-2.21992086153477E-05,-0.3515625,0,0
7.78793673816836E-06,-2.1863530491828E-05,-0.3515625,0,0
4.98643930768594E-06,-2.2206813810044E-05,-0.3515625,0,0
9.53063249653496E-07,-1.82338717422681E-05,-0.3515625,0,0
1.88325054750749E-06,-2.39665514527587E-05,-0.3515625,0,0
2.80334620583744E-06,-1.43633151310496E-05,-0.3515625,0,0
3.39993562192831E-06,-1.80994939000811E-05,-0.3515625,0,0
3.0245012112573E-06,-1.4878070942359E-05,-0.3515625,0,0
3.42513794748811E-06,-1.75422646861989E-05,-0.3515625,0,0
3.9189603739942E-06,-1.57129834406078E-05,-0.3515625,0,0
4.38751976616913E-06,-1.72894997376716E-05,-0.3515625,0,0
3.61905199497414E-06,-1.63991171575617E-05,-0.3515625,0,0
2.9213881589385E-06,-1.61979369295295E-05,-0.3515625,0,0
2.74371018349484E-06,-1.72149466379778E-05,-0.3515625,0,0
3.44818704434147E-06,-1.73740154423285E-05,-0.3515625,0,0
3.41456643582205E-06,-1.87475307029672E-05,-0.3515625,0,0
2.1222515442787E-06,-1.87696659850189E-05,-0.3515625,0,0
1.48956758039276E-06,-1.96142518689157E-05,-0.3515625,0,0
2.32155048252025E-06,-1.7030553863151E-05,-0.3515625,0,0
3.25932296618703E-06,-1.58265083882725E-05,-0.3515625,0,0
2.61315108218696E-06,-1.28564961414668E-05,-0.3515625,0,0
1.36165795083798E-06,-1.29882555484073E-05,-0.3515625,0,0
5.21947072229523E-07,-1.22234678201494E-05,-0.3515625,0,0
1.97644430954824E-06,-1.1957385140704E-05,-0.3515625,0,0
4.33964305557311E-06,-1.06238594526076E-05,-0.3515625,0,0
4.95274798595347E-06,-1.28168048831867E-05,-0.3515625,0,0
3.35388676830917E-06,-1.57058948389022E-05,-0.3515625,0,0
2.73449882115528E-06,-1.76934390765382E-05,-0.3515625,0,0
2.94647793452896E-06,-1.72355448739836E-05,-0.3515625,0,0
2.78232801065315E-06,-1.63940349011682E-05,-0.3515625,0,0
1.21121991014661E-06,-1.46030088217231E-05,-0.3515625,0,0
1.36269443373749E-06,-2.35629740927834E-05,-0.3515625,0,0
1.37107542741433E-06,-1.96369801415131E-05,-0.3515625,0,0
2.04108982870821E-06,-2.13664116017753E-05,-0.3515625,0,0
6.00853582000127E-07,-1.93665637198137E-05,-0.3515625,0,0
-6.41597978301434E-07,-2.16700300370576E-05,-0.3515625,0,0
-2.29549550567754E-06,-2.1438701878651E-05,-0.3515625,0,0
-2.86327031062683E-06,-2.25783678615699E-05,-0.3515625,0,0
-3.83481574317557E-06,-2.00414324353915E-05,-0.3515625,0,0
-3.9398414628522E-06,-1.78586451511364E-05,-0.3515625,0,0
-2.52148424806364E-06,-1.68274218594888E-05,-0.3515625,0,0
-7.88312263466651E-07,-1.49011530083953E-05,-0.3515625,0,0
2.72091341457781E-07,-1.32182494780864E-05,-0.3515625,0,0
3.80352531692552E-07,-1.13613141365931E-05,-0.3515625,0,0
7.24545429875434E-07,-1.16576002255897E-05,-0.3515625,0,0
1.33499258936354E-06,-1.08881167761865E-05,-0.3515625,0,0
1.90088746876427E-06,-1.26488039313699E-05,-0.3515625,0,0
1.79276048584143E-06,-1.42935050462256E-05,-0.3515625,0,0
2.07938433050003E-06,-1.73200842255028E-05,-0.3515625,0,0
2.66411302618508E-06,-1.61108819156652E-05,-0.3515625,0,0
3.59031810148736E-06,-1.20877011795528E-05,-0.3515625,0,0
3.55673819285585E-06,-8.34304682939546E-06,-0.3515625,0,0
2.31574927056499E-06,-9.57011980062816E-06,-0.3515625,0,0
1.05346327927691E-06,-1.28857882373268E-05,-0.3515625,0,0
2.28146677727636E-06,-1.5870891729719E-05,-0.3515625,0,0
4.09446420235327E-06,-1.63519453053596E-05,-0.3515625,0,0
3.97854228140204E-06,-1.63465665536933E-05,-0.3515625,0,0
1.21903110539279E-06,-1.37539818751975E-05,-0.3515625,0,0
3.94747559084863E-08,-1.96731652977178E-05,-0.3515625,0,0
-1.41510486173502E-06,-1.44580681080697E-05,-0.3515625,0,0
6.7232684841656E-07,-1.61657790158642E-05,-0.3515625,0,0
1.01721707324032E-06,-1.1721389455488E-05,-0.3515625,0,0
1.01517923667416E-06,-1.317109035881E-05,-0.3515625,0,0
8.8159714550784E-07,-1.21281600513612E-05,-0.3515625,0,0
1.0539309869273E-06,-1.3180477253627E-05,-0.3515625,0,0
1.0833596206794E-06,-1.25019787446945E-05,-0.3515625,0,0
1.45490230352152E-06,-1.25688684420311E-05,-0.3515625,0,0
1.96746418623661E-06,-1.28247638713219E-05,-0.3515625,0,0
2.72096576736658E-06,-1.24326097648009E-05,-0.3515625,0,0
4.16834109273623E-06,-1.30505959532456E-05,-0.3515625,0,0
5.54862663193489E-06,-1.25697188195772E-05,-0.3515625,0,0
6.48309924144996E-06,-1.22496312542353E-05,-0.3515625,0,0
6.25876418780535E-06,-8.76824560691603E-06,-0.3515625,0,0
5.94289213040611E-06,-7.15084206603933E-06,-0.3515625,0,0
5.91460275245481E-06,-5.79120023758151E-06,-0.3515625,0,0
6.06129879088257E-06,-6.86064959154464E-06,-0.3515625,0,0
5.31683781446191E-06,-6.77429761708481E-06,-0.3515625,0,0
4.53258280685986E-06,-7.54141137804254E-06,-0.3515625,0,0
4.23196115661995E-06,-7.55690462028724E-06,-0.3515625,0,0
4.61482795799384E-06,-9.38743505685125E-06,-0.3515625,0,0
5.29887211087043E-06,-1.18940406537149E-05,-0.3515625,0,0
6.56609608995495E-06,-1.49394290929195E-05,-0.3515625,0,0
8.14522809378104E-06,-1.62078504217789E-05,-0.3515625,0,0
9.17967099667294E-06,-1.63096356118331E-05,-0.3515625,0,0
6.92708044880419E-06,-1.34917490868247E-05,-0.3515625,0,0
7.51788093111827E-06,-2.09864774660673E-05,-0.3515625,0,0
2.04696584660269E-06,-1.84242344403174E-05,-0.3515625,0,0
3.41881923304754E-06,-2.25662006414495E-05,-0.3515625,0,0
2.34700087275996E-06,-2.10031503229402E-05,-0.3515625,0,0
4.48442460765364E-06,-2.35811694437871E-05,-0.3515625,0,0
4.22906214225804E-06,-2.1879031919525E-05,-0.3515625,0,0
4.96848588227294E-06,-2.14677511394257E-05,-0.3515625,0,0
4.26515043727704E-06,-2.04224088520277E-05,-0.3515625,0,0
2.27925011131447E-06,-2.02455703401938E-05,-0.3515625,0,0
1.69059524068871E-06,-2.08214732992928E-05,-0.3515625,0,0
3.74648038814485E-06,-2.10785547096748E-05,-0.3515625,0,0
7.01389853929868E-06,-2.17154520214535E-05,-0.3515625,0,0
6.44032343188883E-06,-2.08976562134922E-05,-0.3515625,0,0
4.92589970235713E-06,-2.17815813812194E-05,-0.3515625,0,0
4.14108490076615E-06,-2.09480640478432E-05,-0.3515625,0,0
5.68156474400894E-06,-2.045170913334E-05,-0.3515625,0,0
5.4671686484653E-06,-1.84640848601703E-05,-0.3515625,0,0
3.9606429709238E-06,-1.85904318641406E-05,-0.3515625,0,0
1.27162297758332E-06,-1.82219464477384E-05,-0.3515625,0,0
-1.41347783255696E-07,-1.76165503944503E-05,-0.3515625,0,0
-3.05962714719499E-07,-1.56516616698354E-05,-0.3515625,0,0
1.79251912868494E-06,-1.52312159116264E-05,-0.3515625,0,0
3.78699655811943E-06,-1.53894525283249E-05,-0.3515625,0,0
3.98743031837512E-06,-1.57795166160213E-05,-0.3515625,0,0
3.17621856993355E-06,-1.57590820890618E-05,-0.3515625,0,0
3.47592708749289E-06,-1.72489199030679E-05,-0.3515625,0,0
3.15025295094529E-06,-1.44348978210473E-05,-0.3515625,0,0
4.16900957134203E-06,-1.98523575818399E-05,-0.3515625,0,0
2.52269069278555E-06,-1.34162228278001E-05,-0.3515625,0,0
3.63681510862079E-06,-1.56082205649E-05,-0.3515625,0,0
3.61583329322457E-06,-1.28410401885048E-05,-0.3515625,0,0
4.09514041166403E-06,-1.62522701430134E-05,-0.3515625,0,0
4.28878684033407E-06,-1.54407862282824E-05,-0.3515625,0,0
4.89370950162993E-06,-1.66636127687525E-05,-0.3515625,0,0
5.4317729336617E-06,-1.50663563545095E-05,-0.3515625,0,0
6.25198254056158E-06,-1.45942440212821E-05,-0.3515625,0,0
6.94984055371606E-06,-1.5619318219251E-05,-0.3515625,0,0
7.22814365872182E-06,-1.50626055983594E-05,-0.3515625,0,0
7.70672977523645E-06,-1.52211005115532E-05,-0.3515625,0,0
7.14652287570061E-06,-1.52962347783614E-05,-0.3515625,0,0
5.84783219892415E-06,-1.84555974556133E-05,-0.3515625,0,0
3.58499119101907E-06,-2.00797130673891E-05,-0.3515625,0,0
1.64269431479624E-06,-2.27887921937509E-05,-0.3515625,0,0
3.65329725582342E-07,-2.34439303312683E-05,-0.3515625,0,0
7.68134100326279E-07,-2.44465209107148E-05,-0.3515625,0,0
2.63557467405917E-06,-2.36339910770766E-05,-0.3515625,0,0
4.96869688504376E-06,-2.56034327321686E-05,-0.3515625,0,0
5.59806403543917E-06,-2.73806690529455E-05,-0.3515625,0,0
5.26979101778124E-06,-2.83789267996326E-05,-0.3515625,0,0
5.37752976015327E-06,-2.73339392151684E-05,-0.3515625,0,0
6.98245048624813E-06,-2.59255175478756E-05,-0.3515625,0,0
8.63156037667068E-06,-2.45227038249141E-05,-0.3515625,0,0
8.35386254038895E-06,-2.37154636124615E-05,-0.3515625,0,0
5.30065335624386E-06,-1.83754109457368E-05,-0.3515625,0,0
6.63666060063406E-06,-2.44190287048696E-05,-0.3515625,0,0
3.01324621432286E-06,-1.72997060872149E-05,-0.3515625,0,0
3.3185981465067E-06,-2.36222294915933E-05,-0.3515625,0,0
1.90193543403439E-06,-1.83068550541066E-05,-0.3515625,0,0
1.46710624449042E-06,-1.73399475897895E-05,-0.3515625,0,0
-5.20814182891627E-07,-1.24152820717427E-05,-0.3515625,0,0
-3.24189443290379E-07,-1.03368520285585E-05,-0.3515625,0,0
-5.89987394050695E-07,-7.11453958501806E-06,-0.3515625,0,0
6.01286785695265E-07,-7.21826836524997E-06,-0.3515625,0,0
1.97673580260016E-06,-9.71534609561786E-06,-0.3515625,0,0
2.2129638637125E-06,-1.14838403533213E-05,-0.3515625,0,0
2.52140148404578E-06,-1.39531684908434E-05,-0.3515625,0,0
1.87499620096787E-06,-1.44386312967981E-05,-0.3515625,0,0
2.54413475886395E-06,-1.59851060743677E-05,-0.3515625,0,0
3.47484342455573E-06,-1.53168111864943E-05,-0.3515625,0,0
4.66785468233866E-06,-1.75539225892862E-05,-0.3515625,0,0
3.59531509275257E-06,-1.7275970094488E-05,-0.3515625,0,0
1.39828102874162E-06,-1.84229375008726E-05,-0.3515625,0,0
-1.03696515907359E-06,-1.8970895325765E-05,-0.3515625,0,0
-1.45765159231814E-06,-2.13536241062684E-05,-0.3515625,0,0
-1.822866238399E-06,-2.13989460462471E-05,-0.3515625,0,0
-2.08771461984725E-06,-2.17458200495457E-05,-0.3515625,0,0
-2.33161176765861E-06,-2.05633787118131E-05,-0.3515625,0,0
-2.79295704785909E-06,-1.8142945918953E-05,-0.3515625,0,0
-3.71552346223325E-06,-1.52951433847193E-05,-0.3515625,0,0
-4.4344396883389E-06,-1.41707696457161E-05,-0.3515625,0,0
-2.96166945190635E-06,-1.11960516733234E-05,-0.3515625,0,0
-2.18664013118541E-06,-1.63626245921478E-05,-0.3515625,0,0
1.10696782940067E-06,-1.42802155096433E-05,-0.3515625,0,0
5.77952334879228E-07,-1.86704419320449E-05,-0.3515625,0,0
2.04137631953927E-06,-1.69484646903584E-05,-0.3515625,0,0
2.28995531870169E-06,-1.86281868082006E-05,-0.3515625,0,0
3.40552992383891E-06,-1.71037008840358E-05,-0.3515625,0,0
3.14522162625508E-06,-1.61569605552359E-05,-0.3515625,0,0
2.55388067671447E-06,-1.38774803417618E-05,-0.3515625,0,0
2.05708238354418E-06,-1.37382021421217E-05,-0.3515625,0,0
2.70143823399849E-06,-1.51553304021945E-05,-0.3515625,0,0
4.7102998905757E-06,-1.47365335578797E-05,-0.3515625,0,0
6.69092651151004E-06,-1.40676584123867E-05,-0.3515625,0,0
6.33154240858858E-06,-1.38922187034041E-05,-0.3515625,0,0
3.71366718354693E-06,-1.64422199304681E-05,-0.3515625,0,0
2.54785186371009E-06,-1.67813886946533E-05,-0.3515625,0,0
2.54210772254737E-06,-1.61109001055593E-05,-0.3515625,0,0
2.93024163511291E-06,-1.28023630168173E-05,-0.3515625,0,0
2.239712557639E-06,-1.152655477199E-05,-0.3515625,0,0
2.94702886094456E-06,-1.1640438970062E-05,-0.3515625,0,0
4.96539132655016E-06,-1.37106144393329E-05,-0.3515625,0,0
6.17427849647356E-06,-1.58725179062458E-05,-0.3515625,0,0
4.99582392876619E-06,-1.99835594685283E-05,-0.3515625,0,0
4.14832811657107E-06,-2.30201912927441E-05,-0.3515625,0,0
4.76963396067731E-06,-2.29674551519565E-05,-0.3515625,0,0
6.81475876262994E-06,-2.0067993318662E-05,-0.3515625,0,0
9.17936449695844E-06,-1.71884785231669E-05,-0.3515625,0,0
9.07896446733503E-06,-1.17103027150733E-05,-0.3515625,0,0
1.15604971142602E-05,-1.55900725076208E-05,-0.3515625,0,0
6.60398472973611E-06,-1.25481174109154E-05,-0.3515625,0,0
9.35559819481568E-06,-1.88528865692206E-05,-0.3515625,0,0
7.97270604380174E-06,-1.76953453774331E-05,-0.3515625,0,0
9.26713983062655E-06,-1.84015843842644E-05,-0.3515625,0,0
7.2884104156401E-06,-1.4787257896387E-05,-0.3515625,0,0
6.65620973450132E-06,-1.34264237203752E-05,-0.3515625,0,0
5.4621641538688E-06,-1.22349611046957E-05,-0.3515625,0,0
5.14906469106791E-06,-1.35534901346546E-05,-0.3515625,0,0
6.28173665973009E-06,-1.3813296391163E-05,-0.3515625,0,0
7.31119689589832E-06,-1.23382187666721E-05,-0.3515625,0,0
7.63853859098163E-06,-1.36871121867443E-05,-0.3515625,0,0
6.15011140325805E-06,-1.51567273860564E-05,-0.3515625,0,0
5.971870450594E-06,-1.62404903676361E-05,-0.3515625,0,0
5.01496106153354E-06,-1.53039654833265E-05,-0.3515625,0,0
4.4447497202782E-06,-1.72420623130165E-05,-0.3515625,0,0
2.73066734735039E-06,-1.7913229385158E-05,-0.3515625,0,0
2.25564508582465E-06,-1.87313708011061E-05,-0.3515625,0,0
1.6904388076E-06,-1.82235562533606E-05,-0.3515625,0,0
2.38854977396841E-06,-1.8458800695953E-05,-0.3515625,0,0
1.98116640603985E-06,-1.7564563677297E-05,-0.3515625,0,0
1.14876047518919E-06,-1.84093332791235E-05,-0.3515625,0,0
-5.747991735916E-07,-1.85539374797372E-05,-0.3515625,0,0
-1.60022537443183E-07,-1.84607324626995E-05,-0.3515625,0,0
1.14541137463675E-06,-1.65911242220318E-05,-0.3515625,0,0
2.0736199530802E-06,-1.55585221364163E-05,-0.3515625,0,0
2.60929505202512E-06,-1.38878085635952E-05,-0.3515625,0,0
3.78498953068629E-06,-1.94734420801979E-05,-0.3515625,0,0
3.90248169424012E-06,-1.42857470564195E-05,-0.3515625,0,0
5.90680792811327E-06,-1.84632663149387E-05,-0.3515625,0,0
5.95706569583854E-06,-1.63920158229303E-05,-0.3515625,0,0
6.22828201812808E-06,-1.77601559698815E-05,-0.3515625,0,0
5.63247522222809E-06,-1.62220130732749E-05,-0.3515625,0,0
5.54660846319166E-06,-1.73300140886568E-05,-0.3515625,0,0
4.9829823183245E-06,-1.6213138223975E-05,-0.3515625,0,0
2.98172085422266E-06,-1.53398268594174E-05,-0.3515625,0,0
4.66110918750928E-07,-1.52544816955924E-05,-0.3515625,0,0
4.4896438566866E-08,-1.55254801939009E-05,-0.3515625,0,0
3.10988343699137E-06,-1.69042159541277E-05,-0.3515625,0,0
5.17206444783369E-06,-1.63788736244896E-05,-0.3515625,0,0
4.6099321480142E-06,-1.58515649673063E-05,-0.3515625,0,0
2.91389460471692E-06,-1.31155848066555E-05,-0.3515625,0,0
3.01930799651018E-06,-1.30219541460974E-05,-0.3515625,0,0
4.04848378821043E-06,-1.30519929371076E-05,-0.3515625,0,0
4.81016968478798E-06,-1.64989287441131E-05,-0.3515625,0,0
4.28751172876218E-06,-2.0149660485913E-05,-0.3515625,0,0
3.32749209519534E-06,-2.30878686124925E-05,-0.3515625,0,0
2.2792942218075E-06,-2.19866178667871E-05,-0.3515625,0,0
2.34795174947067E-06,-2.05575615837006E-05,-0.3515625,0,0
2.73724799626507E-06,-1.99066525965463E-05,-0.3515625,0,0
1.80770643964934E-06,-2.21566006075591E-05,-0.3515625,0,0
1.76418993191874E-07,-2.41812904278049E-05,-0.3515625,0,0
-1.48370972397061E-07,-2.41358629864408E-05,-0.3515625,0,0
6.84894132518821E-07,-1.75565746758366E-05,-0.3515625,0,0
8.31687827940186E-07,-2.24716186494334E-05,-0.3515625,0,0
1.05726235233305E-06,-1.47600876516663E-05,-0.3515625,0,0
1.76094033577101E-06,-2.0142249923083E-05,-0.3515625,0,0
1.46696402225643E-06,-1.64136581588537E-05,-0.3515625,0,0
2.11768019653391E-06,-1.85439057531767E-05,-0.3515625,0,0
2.49858362622035E-06,-1.53232558659511E-05,-0.3515625,0,0
2.48790252044273E-06,-1.59066894411808E-05,-0.3515625,0,0
2.45316414293484E-06,-1.52825232362375E-05,-0.3515625,0,0
1.21607990877237E-06,-1.73117969097802E-05,-0.3515625,0,0
4.10410905260505E-08,-2.06775766855571E-05,-0.3515625,0,0
8.33791631293934E-08,-2.073032737826E-05,-0.3515625,0,0
7.22571485312073E-07,-1.93757969100261E-05,-0.3515625,0,0
1.02088688436197E-06,-1.60853978741216E-05,-0.3515625,0,0
3.33996581503015E-07,-1.58893617481226E-05,-0.3515625,0,0
-8.58401335790404E-07,-1.45329431688879E-05,-0.3515625,0,0
-1.69935935900867E-06,-1.52716584125301E-05,-0.3515625,0,0
-2.38339407587773E-06,-1.31168944790261E-05,-0.3515625,0,0
-2.90062598651275E-06,-1.33412768263952E-05,-0.3515625,0,0
-3.20264348374621E-06,-1.28396959553356E-05,-0.3515625,0,0
-3.03472711493669E-06,-1.4700528481626E-05,-0.3515625,0,0
-2.65637049778888E-06,-1.571132997924E-05,-0.3515625,0,0
-2.65149219558225E-06,-1.67193265951937E-05,-0.3515625,0,0
-2.14282272281707E-06,-1.59863793669501E-05,-0.3515625,0,0
-4.97489111239702E-07,-1.67968082678271E-05,-0.3515625,0,0
5.92407786825788E-07,-1.79258640855551E-05,-0.3515625,0,0
8.79653384799894E-07,-1.83964984898921E-05,-0.3515625,0,0
6.86059820509399E-07,-1.54024965013377E-05,-0.3515625,0,0
9.62105332291685E-07,-2.13221155718202E-05,-0.3515625,0,0
7.42913641715859E-07,-1.56694695760962E-05,-0.3515625,0,0
1.39852545544272E-06,-1.90195351024158E-05,-0.3515625,0,0
2.4630976440676E-06,-1.44638515848783E-05,-0.3515625,0,0
3.18784600494837E-06,-1.59824576257961E-05,-0.3515625,0,0
2.6044897367683E-06,-1.4339136214403E-05,-0.3515625,0,0
2.32243087339157E-06,-1.5365698345704E-05,-0.3515625,0,0
2.66670826931659E-06,-1.54942990775453E-05,-0.3515625,0,0
3.57898784386634E-06,-1.57237427629298E-05,-0.3515625,0,0
4.77074172522407E-06,-1.42318931466434E-05,-0.3515625,0,0
5.50272716282052E-06,-1.09382199298125E-05,-0.3515625,0,0
5.60227454116102E-06,-1.08882932181587E-05,-0.3515625,0,0
5.24777033206192E-06,-1.1393159184081E-05,-0.3515625,0,0
6.24529911874561E-06,-1.32753275465802E-05,-0.3515625,0,0
7.1815557021182E-06,-1.3911224414187E-05,-0.3515625,0,0
6.24391759629361E-06,-1.74297856574412E-05,-0.3515625,0,0
5.09915844304487E-06,-1.8421704226057E-05,-0.3515625,0,0
5.7265847317467E-06,-1.93408141058171E-05,-0.3515625,0,0
7.25110385246808E-06,-1.88839840120636E-05,-0.3515625,0,0
7.5782991189044E-06,-2.07986959139816E-05,-0.3515625,0,0
6.04145770921605E-06,-2.27886630455032E-05,-0.3515625,0,0
4.5556071199826E-06,-2.45414103119401E-05,-0.3515625,0,0
4.30205545853823E-06,-2.42764199356316E-05,-0.3515625,0,0
5.04482522956096E-06,-2.49588174483506E-05,-0.3515625,0,0
5.00362421007594E-06,-2.45381834247382E-05,-0.3515625,0,0
4.45916839453275E-06,-2.32514357776381E-05,-0.3515625,0,0
3.66459380529705E-06,-1.75644036062295E-05,-0.3515625,0,0
5.76325510337483E-06,-2.44371822191169E-05,-0.3515625,0,0
5.49207607036806E-06,-1.78822501766263E-05,-0.3515625,0,0
6.21469052930479E-06,-2.19112589547876E-05,-0.3515625,0,0
5.09267420056858E-06,-1.72073923749849E-05,-0.3515625,0,0
5.64399852009956E-06,-1.90538248716621E-05,-0.3515625,0,0
3.77838136955688E-06,-1.65323526744032E-05,-0.3515625,0,0
2.87805869447766E-06,-1.77069196070079E-05,-0.3515625,0,0
2.482935315129E-06,-1.79452908923849E-05,-0.3515625,0,0
1.86809450042347E-06,-1.87550322152674E-05,-0.3515625,0,0
9.17153272439464E-07,-2.00917620531982E-05,-0.3515625,0,0
5.2129502137177E-07,-1.98004672711249E-05,-0.3515625,0,0
8.35216098948877E-07,-1.96308919839794E-05,-0.3515625,0,0
5.24474785379425E-07,-1.71262508956715E-05,-0.3515625,0,0
6.49672074359842E-07,-1.69840259331977E-05,-0.3515625,0,0
1.37623817408894E-06,-1.64038410730427E-05,-0.3515625,0,0
3.13344798996695E-06,-1.80276274477365E-05,-0.3515625,0,0
4.14532769354992E-06,-1.64216016855789E-05,-0.3515625,0,0
5.32082867721329E-06,-1.65810397447785E-05,-0.3515625,0,0
5.32274452780257E-06,-1.61058578669326E-05,-0.3515625,0,0
4.97539986099582E-06,-1.75040931935655E-05,-0.3515625,0,0
5.05090793012641E-06,-1.70489583979361E-05,-0.3515625,0,0
6.38355413684621E-06,-1.5496596461162E-05,-0.3515625,0,0
7.04648709870526E-06,-1.42291592055699E-05,-0.3515625,0,0
6.94302707415773E-06,-1.52078928294941E-05,-0.3515625,0,0
6.04364504397381E-06,-1.50102541738306E-05,-0.3515625,0,0
5.58537203687592E-06,-1.42490689540864E-05,-0.3515625,0,0
5.16733598487917E-06,-1.15929651656188E-05,-0.3515625,0,0
6.56944985166774E-06,-1.64283010235522E-05,-0.3515625,0,0
3.44344971381361E-06,-1.15442653623177E-05,-0.3515625,0,0
3.47737727679487E-06,-1.32261384351295E-05,-0.3515625,0,0
5.52350854832184E-07,-1.08846370494575E-05,-0.3515625,0,0
3.79796375682417E-07,-1.26289041872951E-05,-0.3515625,0,0
-5.79764538599647E-08,-1.15570674097398E-05,-0.3515625,0,0
-3.46294825703808E-07,-1.20567710837349E-05,-0.3515625,0,0
-7.31929219455196E-07,-1.18288025987567E-05,-0.3515625,0,0
6.21028789282718E-07,-1.3739418136538E-05,-0.3515625,0,0
2.81793472822756E-06,-1.5816201994312E-05,-0.3515625,0,0
3.78935351363907E-06,-1.58989678311627E-05,-0.3515625,0,0
3.9644382923143E-06,-1.59856608661357E-05,-0.3515625,0,0
4.01797478843946E-06,-1.44330651892233E-05,-0.3515625,0,0
4.66255369246937E-06,-1.43628667501616E-05,-0.3515625,0,0
3.97010489905369E-06,-1.49948373291409E-05,-0.3515625,0,0
3.31431465383503E-06,-1.7640290025156E-05,-0.3515625,0,0
2.50105745180917E-06,-1.78942918864777E-05,-0.3515625,0,0
2.56080147664761E-06,-1.82063140528044E-05,-0.3515625,0,0
2.08783308153215E-06,-1.72666022990597E-05,-0.3515625,0,0
2.08698497772275E-06,-1.65333603945328E-05,-0.3515625,0,0
1.11457018192596E-06,-1.46456850416143E-05,-0.3515625,0,0
2.63163940417144E-07,-1.4642447240476E-05,-0.3515625,0,0
9.72711632130085E-07,-1.53008095367113E-05,-0.3515625,0,0
3.42076896231447E-06,-1.66709887707839E-05,-0.3515625,0,0
3.36555990543275E-06,-1.67442412930541E-05,-0.3515625,0,0
1.69822737916547E-06,-1.64911907631904E-05,-0.3515625,0,0
2.05320611712523E-06,-1.53874079842353E-05,-0.3515625,0,0
4.46934882347705E-06,-2.42304504354252E-05,-0.3515625,0,0
5.020456683269E-06,-2.03596246137749E-05,-0.3515625,0,0
4.32271963290987E-06,-2.35705756495008E-05,-0.3515625,0,0
2.71459316536493E-06,-2.06118147616507E-05,-0.3515625,0,0
3.21222614729777E-06,-2.33182381634833E-05,-0.3515625,0,0
3.4965535178344E-06,-2.30373570957454E-05,-0.3515625,0,0
2.26030397243449E-06,-2.28853532462381E-05,-0.3515625,0,0
1.26502584407717E-06,-2.02893152163597E-05,-0.3515625,0,0
1.07872267562925E-06,-1.84389718924649E-05,-0.3515625,0,0
1.11853603357304E-06,-1.83113879757002E-05,-0.3515625,0,0
1.29655484215618E-06,-1.86117940756958E-05,-0.3515625,0,0
3.1622766982764E-06,-1.98678044398548E-05,-0.3515625,0,0
5.82328357268125E-06,-1.91461585927755E-05,-0.3515625,0,0
7.619161351613E-06,-1.86814922926715E-05,-0.3515625,0,0
8.07016022008611E-06,-1.58177117555169E-05,-0.3515625,0,0
7.93099025031552E-06,-1.51878502947511E-05,-0.3515625,0,0
7.85266092862003E-06,-1.43891647894634E-05,-0.3515625,0,0
8.10161054687342E-06,-1.53367072925903E-05,-0.3515625,0,0
8.08057484391611E-06,-1.57438225869555E-05,-0.3515625,0,0
6.73311114951503E-06,-1.81990744749783E-05,-0.3515625,0,0
5.26608937434503E-06,-1.93831056094496E-05,-0.3515625,0,0
5.64721085538622E-06,-1.89324364328058E-05,-0.3515625,0,0
6.60300383970025E-06,-1.5526900824625E-05,-0.3515625,0,0
7.67030724091455E-06,-1.22186593216611E-05,-0.3515625,0,0
8.15160638012458E-06,-1.00680908872164E-05,-0.3515625,0,0
7.08735524312942E-06,-8.85288682184182E-06,-0.3515625,0,0
4.07671541324817E-06,-7.36602078177384E-06,-0.3515625,0,0
4.8934921323962E-06,-1.16200471893535E-05,-0.3515625,0,0
2.57329793384997E-06,-1.1086575796071E-05,-0.3515625,0,0
4.07821653425344E-06,-1.38110935949953E-05,-0.3515625,0,0
4.40358826381271E-06,-1.29548416225589E-05,-0.3515625,0,0
7.03710156813031E-06,-1.47014925460098E-05,-0.3515625,0,0
7.30614146959852E-06,-1.46964193845633E-05,-0.3515625,0,0
6.09238759352593E-06,-1.57867325469851E-05,-0.3515625,0,0
4.41701286035823E-06,-1.63882905326318E-05,-0.3515625,0,0
3.1971362659533E-06,-1.78087248059455E-05,-0.3515625,0,0
1.82353403488378E-06,-1.86489724001149E-05,-0.3515625,0,0
1.4286441682998E-06,-1.74366432474926E-05,-0.3515625,0,0
2.2516678654938E-06,-1.57618742377963E-05,-0.3515625,0,0
2.40376311921864E-06,-1.43553743328084E-05,-0.3515625,0,0
2.63858805737982E-06,-1.48907583934488E-05,-0.3515625,0,0
2.45637306761637E-06,-1.49541619975935E-05,-0.3515625,0,0
2.63105607700709E-06,-1.51402709889226E-05,-0.3515625,0,0
2.20172341869329E-06,-1.44326550071128E-05,-0.3515625,0,0
2.16403168451507E-06,-1.59345327119809E-05,-0.3515625,0,0
8.23409493477811E-07,-1.77531783265295E-05,-0.3515625,0,0
2.20891095636944E-07,-1.98198958969442E-05,-0.3515625,0,0
8.99813983323838E-07,-2.07538760150783E-05,-0.3515625,0,0
1.73165278738452E-06,-2.22100734390551E-05,-0.3515625,0,0
1.00811803349643E-06,-2.14414048969047E-05,-0.3515625,0,0
-8.81920755091414E-07,-1.81627765414305E-05,-0.3515625,0,0
-1.98374914361921E-06,-1.6766958651715E-05,-0.3515625,0,0
-1.30159367017768E-06,-1.75330624188064E-05,-0.3515625,0,0
4.23391185222499E-07,-1.50966925502871E-05,-0.3515625,0,0
1.35339610096707E-06,-2.17574724956648E-05,-0.3515625,0,0
8.45250610836956E-07,-1.74995820998447E-05,-0.3515625,0,0
-4.27877608899507E-07,-2.25488456635503E-05,-0.3515625,0,0
-4.5503594492402E-07,-2.04103707801551E-05,-0.3515625,0,0
6.84548297158472E-07,-2.1648296751664E-05,-0.3515625,0,0
2.06070171770989E-06,-1.701436303847E-05,-0.3515625,0,0
2.10303710446169E-06,-1.64765788213117E-05,-0.3515625,0,0
1.85176986633451E-06,-1.53653490997385E-05,-0.3515625,0,0
1.07937034954375E-06,-1.56291989696911E-05,-0.3515625,0,0
1.02806700397196E-06,-1.77677593455883E-05,-0.3515625,0,0
1.66708377946634E-06,-1.90579867194174E-05,-0.3515625,0,0
2.86216959466401E-06,-1.984555638046E-05,-0.3515625,0,0
3.99031432607444E-06,-1.73603402799927E-05,-0.3515625,0,0
3.94068638343015E-06,-1.68096703418996E-05,-0.3515625,0,0
2.25987491830892E-06,-1.59408991748933E-05,-0.3515625,0,0
-4.36504080880695E-07,-1.78760710696224E-05,-0.3515625,0,0
-2.0971046978957E-06,-1.74907345353859E-05,-0.3515625,0,0
-3.20445678880787E-06,-1.67547532328172E-05,-0.3515625,0,0
-3.94085964217084E-06,-1.41587988764513E-05,-0.3515625,0,0
-3.37935375682719E-06,-1.39230878630769E-05,-0.3515625,0,0
-2.04942512027628E-06,-1.38760015033768E-05,-0.3515625,0,0
-1.34504728066531E-06,-1.523391892988E-05,-0.3515625,0,0
-9.19878971217258E-07,-1.63896474987268E-05,-0.3515625,0,0
-1.50891719385982E-06,-1.76402645593043E-05,-0.3515625,0,0
-2.46477247856092E-06,-1.66746140166651E-05,-0.3515625,0,0
-2.85695477941772E-06,-1.57875510922167E-05,-0.3515625,0,0
-2.99549355986528E-06,-1.32136992760934E-05,-0.3515625,0,0
-5.44012300451868E-06,-1.81059476744849E-05,-0.3515625,0,0
-4.07786410505651E-06,-1.29799091155292E-05,-0.3515625,0,0
-2.97225324175088E-06,-1.66068912221817E-05,-0.3515625,0,0
-1.74713034084562E-06,-1.47884265970788E-05,-0.3515625,0,0
-1.39853500513709E-06,-1.74198357854038E-05,-0.3515625,0,0
-3.91160561719062E-08,-1.60376730491407E-05,-0.3515625,0,0
2.20508036363753E-06,-1.73520584212383E-05,-0.3515625,0,0
4.23904066337855E-06,-1.73959124367684E-05,-0.3515625,0,0
5.53412746739923E-06,-1.77551410160959E-05,-0.3515625,0,0
6.9100788095966E-06,-1.79727649083361E-05,-0.3515625,0,0
8.50032938615186E-06,-1.71015999512747E-05,-0.3515625,0,0
9.80649656412425E-06,-1.72229647432687E-05,-0.3515625,0,0
1.06122706711176E-05,-1.66058216564124E-05,-0.3515625,0,0
1.04701457530609E-05,-1.74312772287522E-05,-0.3515625,0,0
1.08130498119863E-05,-1.64091525221011E-05,-0.3515625,0,0
1.12812458610279E-05,-1.79244325408945E-05,-0.3515625,0,0
1.11187446236727E-05,-1.80105380422901E-05,-0.3515625,0,0
1.06432426036918E-05,-1.8754804841592E-05,-0.3515625,0,0
1.06613551906776E-05,-1.83713018486742E-05,-0.3515625,0,0
9.64094670052873E-06,-1.91835515579442E-05,-0.3515625,0,0
7.95147207099944E-06,-1.83752563316375E-05,-0.3515625,0,0
5.88052262173733E-06,-1.75087297975551E-05,-0.3515625,0,0
3.13130453832855E-06,-1.57684262376279E-05,-0.3515625,0,0
1.71903479895263E-06,-1.47973141793045E-05,-0.3515625,0,0
2.45769092543924E-06,-1.48630315379705E-05,-0.3515625,0,0
3.16648811349296E-06,-1.6011530533433E-05,-0.3515625,0,0
2.43857812165516E-06,-1.41591290230281E-05,-0.3515625,0,0
3.36400262312964E-06,-2.15730960917426E-05,-0.3515625,0,0
3.21113498102932E-06,-1.87022360478295E-05,-0.3515625,0,0
5.26978283232893E-06,-2.29931883950485E-05,-0.3515625,0,0
3.73932311958924E-06,-1.97249446500791E-05,-0.3515625,0,0
1.40811130222573E-06,-2.05076339625521E-05,-0.3515625,0,0
3.18850538860715E-07,-1.73212101799436E-05,-0.3515625,0,0
2.34919616559637E-06,-1.71059291460551E-05,-0.3515625,0,0
4.99750649396447E-06,-1.71284063981147E-05,-0.3515625,0,0
6.34712159808259E-06,-1.73031567101134E-05,-0.3515625,0,0
6.30475233265315E-06,-1.73702119354857E-05,-0.3515625,0,0
6.5621438807284E-06,-1.7107911844505E-05,-0.3515625,0,0
7.82046208769316E-06,-1.8094273400493E-05,-0.3515625,0,0
7.68211248214357E-06,-1.74679589690641E-05,-0.3515625,0,0
7.17098055247334E-06,-1.72684285644209E-05,-0.3515625,0,0
7.58848818804836E-06,-1.57616377691738E-05,-0.3515625,0,0
8.17508589534555E-06,-1.7454287444707E-05,-0.3515625,0,0
8.10043638921343E-06,-1.72873187693767E-05,-0.3515625,0,0
9.21671562537085E-06,-1.5787669326528E-05,-0.3515625,0,0
1.02816511571291E-05,-1.30902108139708E-05,-0.3515625,0,0
9.46794534684159E-06,-1.34391266328748E-05,-0.3515625,0,0
7.045228358038E-06,-1.320585670328E-05,-0.3515625,0,0
6.51155096420553E-06,-1.30269545479678E-05,-0.3515625,0,0
8.4903458628105E-06,-1.25217356981011E-05,-0.3515625,0,0
1.10377832243103E-05,-1.28041328935069E-05,-0.3515625,0,0
1.1061126315326E-05,-1.44129453474307E-05,-0.3515625,0,0
8.10930760053452E-06,-1.63654258358292E-05,-0.3515625,0,0
3.94093513023108E-06,-1.33492812892655E-05,-0.3515625,0,0
5.09438768858672E-06,-1.96162072825246E-05,-0.3515625,0,0
4.01066017730045E-06,-1.66784830071265E-05,-0.3515625,0,0
5.7316651691508E-06,-2.12298582482617E-05,-0.3515625,0,0
4.3055028982053E-06,-1.90087193914223E-05,-0.3515625,0,0
4.6645923248434E-06,-2.11718506761827E-05,-0.3515625,0,0
4.08731693823938E-06,-1.95284737856127E-05,-0.3515625,0,0
4.2779033719853E-06,-2.00712365767686E-05,-0.3515625,0,0
3.59689056494972E-06,-2.02810970222345E-05,-0.3515625,0,0
2.29459692491218E-06,-2.11060851142975E-05,-0.3515625,0,0
1.37702238589554E-06,-2.04862062673783E-05,-0.3515625,0,0
7.55608994040813E-07,-1.88999038073234E-05,-0.3515625,0,0
3.18007806754395E-07,-1.89352522284025E-05,-0.3515625,0,0
-8.03203136001684E-07,-1.78582813532557E-05,-0.3515625,0,0
-1.17950810363254E-06,-1.75464683707105E-05,-0.3515625,0,0
-1.68777808084997E-06,-1.61525858857203E-05,-0.3515625,0,0
-1.61649109031714E-06,-1.70729272213066E-05,-0.3515625,0,0
-2.25026815314777E-06,-1.66598019859521E-05,-0.3515625,0,0
-2.65509584096435E-06,-1.7196151020471E-05,-0.3515625,0,0
-2.46332228925894E-06,-1.59129758685594E-05,-0.3515625,0,0
-1.25984990972938E-06,-1.57056965690572E-05,-0.3515625,0,0
-1.70726707438007E-06,-1.44759378599701E-05,-0.3515625,0,0
-2.74421790891211E-06,-1.3320484868018E-05,-0.3515625,0,0
-3.058794163735E-06,-1.26006480059004E-05,-0.3515625,0,0
-3.69301710634318E-06,-1.41768168759882E-05,-0.3515625,0,0
-4.23536812377279E-06,-1.58302773343166E-05,-0.3515625,0,0
-3.2838163406268E-06,-1.69034447026206E-05,-0.3515625,0,0
-1.07238982138824E-07,-1.48514009197243E-05,-0.3515625,0,0
2.40622330238693E-06,-2.05533542612102E-05,-0.3515625,0,0
5.34581567990244E-06,-1.53284781845286E-05,-0.3515625,0,0
6.32735873296042E-06,-2.03662184503628E-05,-0.3515625,0,0
7.62119771025027E-06,-1.82655858225189E-05,-0.3515625,0,0
8.85870304045966E-06,-2.06291824724758E-05,-0.3515625,0,0
1.20446184155298E-05,-1.93602099898271E-05,-0.3515625,0,0
1.37591005113791E-05,-1.91692379303277E-05,-0.3515625,0,0
1.4121017557045E-05,-1.60884956130758E-05,0.87890625,0,0
1.39881685754517E-05,-1.42521366797155E-05,0.87890625,0,0
1.4629431461799E-05,-1.48359968079603E-05,0.87890625,0,0
1.51403501149616E-05,-1.46765978570329E-05,0.87890625,0,0
1.46059892358608E-05,-1.41034643093008E-05,0.87890625,0,0
1.29470145111554E-05,-1.28707151816343E-05,0.87890625,0,0
9.57820793701103E-06,-1.4779606317461E-05,0.87890625,0,0
5.84619829169242E-06,-1.38364930535317E-05,0.87890625,0,0
2.92813797386771E-06,-1.25231399579206E-05,0.87890625,0,0
1.82154724370776E-06,-1.03871680039447E-05,0.87890625,0,0
3.96331643059966E-07,-1.18562447823933E-05,0.87890625,0,0
-2.06525783141842E-06,-1.35138361656573E-05,0.87890625,0,0
-4.33800323662581E-06,-1.7418777133571E-05,0.87890625,0,0
-4.76763352708076E-06,-1.89439069799846E-05,0.87890625,0,0
-4.0363361222262E-06,-1.90201299119508E-05,0.87890625,0,0
-3.76083971787011E-06,-2.04448588192463E-05,0.87890625,0,0
-4.33473178418353E-06,-2.36445757764159E-05,0.87890625,0,0
-4.8166953092732E-06,-2.33491955441423E-05,0.87890625,0,0
-4.45794012193801E-06,-2.22351918637287E-05,0.87890625,0,0
-2.458686594764E-06,-1.81044524651952E-05,0.87890625,0,0
-3.34385777023272E-06,-2.54777114605531E-05,0.87890625,0,0
-3.48392791238439E-06,-1.84718646778492E-05,0.87890625,0,0
-4.65624543721788E-06,-2.10445741686272E-05,0.87890625,0,0
-2.80115000350634E-06,-1.53382097778376E-05,0.87890625,0,0
-1.00508975720004E-06,-1.76278226717841E-05,0.87890625,0,0
8.16929059510585E-07,-1.75097266037483E-05,0.87890625,0,0
-3.04209123669352E-07,-2.0945570213371E-05,0.87890625,0,0
-1.64364985266729E-06,-2.01934526558034E-05,0.87890625,0,0
-1.91386948245054E-06,-1.88107278518146E-05,0.87890625,0,0
-1.94770882444573E-06,-1.77787478605751E-05,0.87890625,0,0
-3.28631062984641E-06,-1.70471193996491E-05,0.87890625,0,0
-5.14782004756853E-06,-1.74982887983788E-05,0.87890625,0,0
-5.11769167133025E-06,-1.6063069779193E-05,0.87890625,0,0
-3.32900549437909E-06,-1.69651520991465E-05,0.87890625,0,0
-4.16900519439878E-07,-1.56236219481798E-05,0.87890625,0,0
3.93041375446046E-07,-1.55921898112865E-05,0.87890625,0,0
8.68380780616462E-08,-1.32074410430505E-05,0.87890625,0,0
2.4089811745398E-07,-1.35571708597126E-05,0.87890625,0,0
8.32698219710437E-07,-1.33514704430127E-05,0.87890625,0,0
-2.88709713913704E-07,-1.48466651808121E-05,0.87890625,0,0
-1.53798180235754E-06,-1.4518310308631E-05,0.87890625,0,0
-2.30413593271805E-06,-1.44722507684492E-05,0.87890625,0,0
-2.03642707674589E-06,-1.33717303469894E-05,0.87890625,0,0
-1.84431348770886E-06,-1.30549960886128E-05,0.87890625,0,0
-1.88787316801609E-06,-1.25131373351905E-05,0.87890625,0,0
-3.21313422091407E-07,-1.40903075589449E-05,0.87890625,0,0
2.02915384761582E-06,-1.4461522368947E-05,0.87890625,0,0
3.17728859045019E-06,-2.14009833143791E-05,0.87890625,0,0
1.31861804675282E-06,-1.73829448613105E-05,0.87890625,0,0
1.41880389037397E-06,-2.06761269510025E-05,0.87890625,0,0
3.53288601218082E-06,-1.77476485987427E-05,0.87890625,0,0
5.38576796316192E-06,-1.92700044863159E-05,0.87890625,0,0
4.82122868561419E-06,-1.8029662896879E-05,0.87890625,0,0
4.00241651732358E-06,-1.99983242055168E-05,0.87890625,0,0
4.44020906797959E-06,-1.9556908227969E-05,0.87890625,0,0
6.10907727605081E-06,-1.95842094399268E-05,0.87890625,0,0
7.51052357372828E-06,-2.010020398302E-05,0.87890625,0,0
7.89057685324224E-06,-1.96802757272962E-05,0.87890625,0,0
6.89834359945962E-06,-2.00261129066348E-05,0.87890625,0,0
5.71019199924194E-06,-1.77763595274882E-05,0.87890625,0,0
6.16290253674379E-06,-1.62020351126557E-05,0.87890625,0,0
7.28184613763005E-06,-1.44800251291599E-05,0.87890625,0,0
8.2027099779225E-06,-1.62126307259314E-05,0.87890625,0,0
9.41094276640797E-06,-1.62518026627367E-05,0.87890625,0,0
1.19771493700682E-05,-1.76926878339145E-05,0.87890625,0,0
1.43546621984569E-05,-1.86612051038537E-05,0.87890625,0,0
1.53872024384327E-05,-2.00161593966186E-05,0.87890625,0,0
1.53596029122127E-05,-1.74519736901857E-05,0.87890625,0,0
1.42130547828856E-05,-1.39676612889161E-05,0.87890625,0,0
1.09110724224593E-05,-1.1532227290445E-05,0.87890625,0,0
8.18867829366354E-06,-1.13660998977139E-05,0.87890625,0,0
6.8377494244487E-06,-1.22392139019212E-05,0.87890625,0,0
6.31493776381831E-06,-1.41690770760761E-05,0.87890625,0,0
5.7072693380178E-06,-1.29463269331609E-05,0.87890625,0,0
7.47963076719316E-06,-1.86341621883912E-05,0.87890625,0,0
4.72597685075016E-06,-1.38999075716129E-05,0.87890625,0,0
6.57801138004288E-06,-1.72158961504465E-05,0.87890625,0,0
4.31587386628962E-06,-1.57871272676857E-05,0.87890625,0,0
2.43174372371868E-06,-1.83637257578084E-05,0.87890625,0,0
-2.35940930792822E-07,-1.73243734025164E-05,0.87890625,0,0
-3.28543052319219E-07,-1.7135596863227E-05,0.87890625,0,0
4.61187028122367E-07,-1.51448748511029E-05,0.87890625,0,0
2.51056547995177E-07,-1.43530587592977E-05,0.87890625,0,0
-2.95346467282798E-07,-1.40826896313229E-05,0.87890625,0,0
-3.51980446566813E-07,-1.33399998958339E-05,0.87890625,0,0
1.03383194982598E-06,-1.47368282341631E-05,0.87890625,0,0
2.01921261577809E-06,-1.54611643665703E-05,0.87890625,0,0
2.16268949770893E-06,-1.66206446010619E-05,0.87890625,0,0
1.26557529256388E-06,-1.64279699674807E-05,0.87890625,0,0
8.65532115312817E-07,-1.82352559932042E-05,0.87890625,0,0
-7.36405525003647E-07,-1.83179690793622E-05,0.87890625,0,0
-1.49639083701913E-06,-1.87770710908808E-05,0.87890625,0,0
-8.84816017787671E-07,-1.7675583876553E-05,0.87890625,0,0
9.69966549746459E-07,-1.7066338841687E-05,0.87890625,0,0
1.39194253279129E-06,-1.54549670696724E-05,0.87890625,0,0
1.13083092401212E-06,-1.52310540215694E-05,0.87890625,0,0
3.97991328782155E-07,-1.53085584315704E-05,0.87890625,0,0
4.8532308483118E-07,-1.61349107656861E-05,0.87890625,0,0
1.02174760741036E-06,-1.5841849744902E-05,0.87890625,0,0
1.43388547257928E-06,-1.59958453878062E-05,0.87890625,0,0
4.12989805909092E-07,-1.27870289361454E-05,0.87890625,0,0
-3.435238795646E-07,-1.64924276759848E-05,0.87890625,0,0
-1.27063503896352E-06,-1.03584497992415E-05,0.87890625,0,0
-8.22553943180537E-07,-1.42981525641517E-05,0.87890625,0,0
-6.86971546315363E-08,-1.29994705275749E-05,0.87890625,0,0
1.81736288595857E-06,-1.82093172043096E-05,0.87890625,0,0
2.73653608928726E-06,-1.9629889720818E-05,0.87890625,0,0
3.03227398035233E-06,-2.04889547603671E-05,0.87890625,0,0
3.62005062015669E-06,-1.92838506336557E-05,0.87890625,0,0
4.5804872570443E-06,-1.86982524610357E-05,0.87890625,0,0
6.12613939665607E-06,-1.829293796618E-05,0.87890625,0,0
6.38501978755812E-06,-1.68567603395786E-05,0.87890625,0,0
5.19188461112208E-06,-1.62495853146538E-05,0.87890625,0,0
4.07506195188034E-06,-1.38392588269198E-05,0.87890625,0,0
3.90548848372418E-06,-1.2780958059011E-05,0.87890625,0,0
4.22902303398587E-06,-1.17249346658355E-05,0.87890625,0,0
3.88224998459918E-06,-1.39269750434323E-05,0.87890625,0,0
2.45521528086101E-06,-1.50887244672049E-05,0.87890625,0,0
1.66384586464119E-06,-1.67204871104332E-05,0.87890625,0,0
2.5992815153586E-06,-1.66785011970205E-05,0.87890625,0,0
3.71703117707511E-06,-1.7075371943065E-05,0.87890625,0,0
3.37725896315533E-06,-1.66199442901416E-05,0.87890625,0,0
3.27102316077799E-06,-1.81898649316281E-05,0.87890625,0,0
4.86438102598186E-06,-1.89966831385391E-05,0.87890625,0,0
6.57395457892562E-06,-1.83150659722742E-05,0.87890625,0,0
7.51776451579644E-06,-1.72465606738115E-05,0.87890625,0,0
8.47323371999664E-06,-1.74404576682718E-05,0.87890625,0,0
6.6540451371111E-06,-1.6203293853323E-05,0.87890625,0,0
7.65784625400556E-06,-2.38136490224861E-05,0.87890625,0,0
3.27356156049063E-06,-1.8448587070452E-05,0.87890625,0,0
5.51273888049764E-06,-2.21185528062051E-05,0.87890625,0,0
3.39192115461628E-06,-1.92305960808881E-05,0.87890625,0,0
1.54504391502996E-06,-2.13826751860324E-05,0.87890625,0,0
-5.80573100705806E-07,-1.92279931070516E-05,0.87890625,0,0
2.05272897346731E-07,-1.99622463696869E-05,0.87890625,0,0
2.7366468202672E-07,-1.96302444237517E-05,0.87890625,0,0
1.51958181504597E-06,-1.96531873370986E-05,0.87890625,0,0
3.94100152334431E-06,-2.00024096557172E-05,0.87890625,0,0
5.59276622880134E-06,-1.88784961210331E-05,0.87890625,0,0
6.06001231062692E-06,-1.77222627826268E-05,0.87890625,0,0
5.14725252287462E-06,-1.58916973305168E-05,0.87890625,0,0
5.43165697308723E-06,-1.74850993062137E-05,0.87890625,0,0
5.81044287173427E-06,-1.83735646714922E-05,0.87890625,0,0
7.31824275135295E-06,-2.01995007955702E-05,0.87890625,0,0
7.17127340976731E-06,-1.88274625543272E-05,0.87890625,0,0
6.34169236946036E-06,-1.76638241100591E-05,0.87890625,0,0
5.01829981658375E-06,-1.52088814502349E-05,0.87890625,0,0
6.43546854917076E-06,-1.54851368279196E-05,0.87890625,0,0
8.35787250252906E-06,-1.64811317517888E-05,0.87890625,0,0
8.81663981999736E-06,-1.96926303033251E-05,0.87890625,0,0
7.19154559192248E-06,-2.19398316403385E-05,0.87890625,0,0
6.52678090773406E-06,-2.16917378565995E-05,0.87890625,0,0
7.35737876311759E-06,-1.87389086931944E-05,0.87890625,0,0
7.69514554121997E-06,-1.671949030424E-05,0.87890625,0,0
4.63666083305725E-06,-1.34972633532016E-05,0.87890625,0,0
5.38905851499294E-06,-1.9533352315193E-05,0.87890625,0,0
2.29058832701412E-06,-1.45604244607966E-05,0.87890625,0,0
2.16450189327588E-06,-1.72980562638259E-05,0.87890625,0,0
-2.15557648175491E-07,-1.41173077281564E-05,0.87890625,0,0
9.68894823927258E-07,-1.50588293763576E-05,0.87890625,0,0
1.5394515457956E-06,-1.43432416734868E-05,0.87890625,0,0
2.02332421395113E-06,-1.59424689627485E-05,0.87890625,0,0
1.79845096681674E-06,-1.61268926603952E-05,0.87890625,0,0
2.19839603232685E-06,-1.79116304934723E-05,0.87890625,0,0
3.28997612086823E-06,-1.91644776350586E-05,0.87890625,0,0
4.18650051869918E-06,-1.71551946550608E-05,0.87890625,0,0
4.66478286398342E-06,-1.41640002766508E-05,0.87890625,0,0
3.87846876037656E-06,-1.06886564026354E-05,0.87890625,0,0
3.40967835654737E-06,-9.54405913944356E-06,0.87890625,0,0
2.96590860671131E-06,-6.53465667710407E-06,0.87890625,0,0
3.51543667420628E-06,-6.62306001686375E-06,0.87890625,0,0
3.1073850550456E-06,-8.4446364780888E-06,0.87890625,0,0
3.5855557598552E-06,-1.22754890981014E-05,0.87890625,0,0
4.32791784987785E-06,-1.36352728077327E-05,0.87890625,0,0
4.99107181894942E-06,-1.4953571735532E-05,0.87890625,0,0
4.82643054056098E-06,-1.42975941344048E-05,0.87890625,0,0
4.15187832913944E-06,-1.41685441121808E-05,0.87890625,0,0
2.01497982743604E-06,-1.48598455780302E-05,0.87890625,0,0
5.98340136548359E-07,-1.58200527948793E-05,0.87890625,0,0
1.02265676105162E-06,-1.61287734954385E-05,0.87890625,0,0
2.7716600925487E-06,-1.68191509146709E-05,0.87890625,0,0
3.68204564438201E-06,-1.52543607327971E-05,0.87890625,0,0
5.08654966324684E-06,-2.20605925278505E-05,0.87890625,0,0
3.16600085170649E-06,-1.78596583282342E-05,0.87890625,0,0
3.9777269194019E-06,-2.2982683731243E-05,0.87890625,0,0
3.70199563803908E-06,-2.03723830054514E-05,0.87890625,0,0
3.43395186064299E-06,-2.23086408368545E-05,0.87890625,0,0
1.99635701392253E-06,-2.04025327548152E-05,0.87890625,0,0
2.21572827285854E-06,-2.16118514799746E-05,0.87890625,0,0
3.61359070666367E-06,-2.19084104173817E-05,0.87890625,0,0
5.32446256329422E-06,-2.05121359613258E-05,0.87890625,0,0
5.30722991243238E-06,-1.82092680915957E-05,0.87890625,0,0
4.0434147194901E-06,-1.76401754288236E-05,0.87890625,0,0
3.15443958243122E-06,-2.07094144570874E-05,0.87890625,0,0
1.78526863692241E-06,-2.18633667827817E-05,0.87890625,0,0
1.18925129299896E-06,-2.28125500143506E-05,0.87890625,0,0
1.4217123407434E-06,-2.20761285163462E-05,0.87890625,0,0
2.1440946511575E-06,-2.36653886531712E-05,0.87890625,0,0
1.53945904912689E-06,-2.21533136937069E-05,0.87890625,0,0
1.0648974466676E-06,-2.03525905817514E-05,0.87890625,0,0
1.12705561150506E-06,-1.83003285201266E-05,0.87890625,0,0
2.63746483142313E-06,-1.95935153897153E-05,0.87890625,0,0
3.88588432542747E-06,-1.96948858501855E-05,0.87890625,0,0
3.86747979064239E-06,-1.86779489013134E-05,0.87890625,0,0
3.26990243593173E-06,-1.67737089213915E-05,0.87890625,0,0
3.88456510336255E-06,-1.55998332047602E-05,0.87890625,0,0
5.12942642671987E-06,-1.37351598823443E-05,0.87890625,0,0
5.85181669521262E-06,-1.27054490803857E-05,0.87890625,0,0
3.67042480320379E-06,-1.21407638289384E-05,0.87890625,0,0
3.91639878216665E-06,-1.90387672773795E-05,0.87890625,0,0
1.56013959440315E-06,-1.63307013281155E-05,0.87890625,0,0
3.92663696402451E-06,-1.94078420463484E-05,0.87890625,0,0
4.3485679270816E-06,-1.8255863324157E-05,0.87890625,0,0
4.21521417592885E-06,-2.00715003302321E-05,0.87890625,0,0
3.0398250601138E-06,-1.77563160832506E-05,0.87890625,0,0
4.15169188272557E-06,-1.85873250302393E-05,0.87890625,0,0
4.9198306442122E-06,-2.00937029148918E-05,0.87890625,0,0
4.4647854338109E-06,-2.02904775505885E-05,0.87890625,0,0
2.65364883489383E-06,-1.90653354366077E-05,0.87890625,0,0
1.7381921679771E-06,-1.65000819833949E-05,0.87890625,0,0
2.90863226837246E-06,-1.53123964992119E-05,0.87890625,0,0
3.18775914820435E-06,-1.4607281627832E-05,0.87890625,0,0
2.82513383353944E-06,-1.59517585416324E-05,0.87890625,0,0
2.43761428464495E-06,-1.63384265761124E-05,0.87890625,0,0
3.47938998856989E-06,-1.75438672158634E-05,0.87890625,0,0
3.1529777970718E-06,-1.59355913638137E-05,0.87890625,0,0
1.60608794885775E-06,-1.30391317725298E-05,0.87890625,0,0
7.12929946189433E-08,-9.35625939746387E-06,0.87890625,0,0
2.59372257005452E-08,-8.40879238239722E-06,0.87890625,0,0
-1.08642971952122E-07,-8.58762177813333E-06,0.87890625,0,0
3.77820981611876E-07,-1.02430249171448E-05,0.87890625,0,0
8.29467637686321E-07,-1.10749670056975E-05,0.87890625,0,0
9.87250132311601E-07,-1.20281256386079E-05,0.87890625,0,0
8.44875444272475E-07,-1.21043394756271E-05,0.87890625,0,0
3.79872972189332E-07,-1.12997859105235E-05,0.87890625,0,0
1.24079360830365E-06,-8.17784075479722E-06,0.87890625,0,0
1.98739553525229E-06,-1.01557343441527E-05,0.87890625,0,0
1.72755142102687E-06,-5.23937706020661E-06,0.87890625,0,0
2.54030851465359E-06,-7.58224678065744E-06,0.87890625,0,0
3.76756975128956E-06,-8.97960217116633E-06,0.87890625,0,0
4.53215898232884E-06,-1.34167539727059E-05,0.87890625,0,0
3.20660274155671E-06,-1.56374153448269E-05,0.87890625,0,0
1.78863274413743E-06,-2.06518943741685E-05,0.87890625,0,0
9.7644874585967E-07,-2.45166302192956E-05,0.87890625,0,0
3.2094402513394E-07,-2.68021394731477E-05,0.87890625,0,0
1.00919123724452E-06,-2.588485222077E-05,0.87890625,0,0
1.31814454107371E-06,-2.22748130909167E-05,0.87890625,0,0
1.04647892840148E-06,-1.92821189557435E-05,0.87890625,0,0
8.17916884443548E-07,-1.70479852386052E-05,4.39453125,0,0
1.05498179436836E-06,-1.65723031386733E-05,4.39453125,0,0
1.80108565928094E-06,-1.53275141201448E-05,4.39453125,0,0
3.15921852234169E-06,-1.53892178786919E-05,4.39453125,0,0
4.14528904002509E-06,-1.42788185257814E-05,4.39453125,0,0
3.91779485653387E-06,-1.49302059071488E-05,4.39453125,0,0
3.11819712806027E-06,-1.68722053786041E-05,4.39453125,0,0
3.69310623682395E-06,-2.02174833248137E-05,4.39453125,0,0
5.75268268221407E-06,-2.24124814849347E-05,4.39453125,0,0
6.21396793576423E-06,-2.41294674196979E-05,4.39453125,0,0
4.67330619358108E-06,-2.2711818019161E-05,4.39453125,0,0
4.54910741609638E-06,-1.92428433365421E-05,4.39453125,0,0
6.01907549935277E-06,-1.63241238624323E-05,4.39453125,0,0
7.54846087147598E-06,-1.47371465573087E-05,4.39453125,0,0
5.69928351978888E-06,-1.10270902951015E-05,4.39453125,0,0
5.51654557057191E-06,-1.71236315509304E-05,4.39453125,0,0
4.60412621805517E-07,-1.46752317959908E-05,4.39453125,0,0
2.63186279880756E-06,-1.64940192917129E-05,4.39453125,0,0
3.14937074108457E-06,-1.50674168253317E-05,4.39453125,0,0
4.69101541966666E-06,-2.02022529265378E-05,4.39453125,0,0
3.5401851619099E-06,-2.12138929782668E-05,4.39453125,0,0
3.86050123779569E-06,-2.10989437618991E-05,4.39453125,0,0
2.95167706099164E-06,-1.84144228114747E-05,4.39453125,0,0
2.44740044763603E-06,-1.68198657775065E-05,4.39453125,0,0
2.80842436950479E-06,-1.71008232427994E-05,4.39453125,0,0
2.22275502892444E-06,-1.76816356542986E-05,4.39453125,0,0
1.69971383456868E-06,-1.91474009625381E-05,4.39453125,0,0
9.28890017348749E-07,-1.97166027646745E-05,4.39453125,0,0
1.25763119740441E-06,-2.06948971026577E-05,4.39453125,0,0
4.39946745700581E-07,-2.01478651433717E-05,4.39453125,0,0
-2.65734456661448E-07,-2.09656864171848E-05,4.39453125,0,0
-5.73684928895091E-07,-1.98451070900774E-05,4.39453125,0,0
1.33963965254225E-06,-1.79810303961858E-05,4.39453125,0,0
2.53939629146771E-06,-1.45749299917952E-05,4.39453125,0,0
2.31562580665923E-06,-1.28446572489338E-05,4.39453125,0,0
5.23465246260457E-07,-1.18169473353191E-05,4.39453125,0,0
5.06963658608584E-07,-1.31320011860225E-05,4.39453125,0,0
7.16532895239652E-07,-1.43569150168332E-05,4.39453125,0,0
9.32969385303295E-07,-1.52948923641816E-05,4.39453125,0,0
8.71883344188973E-07,-1.68835358635988E-05,4.39453125,0,0
5.68779974230438E-08,-1.99643454834586E-05,4.39453125,0,0
1.54702661347983E-07,-1.8643793737283E-05,4.39453125,0,0
7.00700752531702E-07,-2.66494625975611E-05,4.39453125,0,0
2.06852951123437E-06,-1.97596691577928E-05,4.39453125,0,0
3.31254068441922E-06,-2.32669972319854E-05,4.39453125,0,0
3.57063868250407E-06,-1.70350394910201E-05,4.39453125,0,0
2.81678944702435E-06,-1.74676133610774E-05,4.39453125,0,0
1.72076272519917E-06,-1.60768304340309E-05,4.39453125,0,0
1.39532221510308E-06,-1.98138423002092E-05,4.39453125,0,0
8.88454792402626E-07,-2.08269084396306E-05,4.39453125,0,0
-1.27903831526055E-07,-2.06487711693626E-05,4.39453125,0,0
-1.12267642293773E-07,-2.10936050279997E-05,4.39453125,0,0
8.61625210291095E-07,-1.98007310245885E-05,4.39453125,0,0
3.25520818478253E-06,-1.89642414625268E-05,4.39453125,0,0
4.77015873912023E-06,-1.65884302987251E-05,4.39453125,0,0
4.1275689000031E-06,-1.6523079466424E-05,4.39453125,0,0
2.9105151497788E-06,-1.60970175784314E-05,4.39453125,0,0
2.63366564468015E-06,-1.92189272638643E-05,4.39453125,0,0
3.24871939483273E-06,-1.90838745766087E-05,4.39453125,0,0
3.62512128049275E-06,-1.84939526661765E-05,4.39453125,0,0
3.99435975850793E-06,-1.63689546752721E-05,4.39453125,0,0
4.59867078461684E-06,-1.66091431310633E-05,4.39453125,0,0
5.4469542192237E-06,-1.62886899488512E-05,4.39453125,0,0
7.35869707568781E-06,-1.70623843587236E-05,4.39453125,0,0
8.85617737367284E-06,-1.6738566046115E-05,4.39453125,0,0
8.32309069664916E-06,-1.69703835126711E-05,4.39453125,0,0
7.12566907168366E-06,-1.7076634321711E-05,4.39453125,0,0
5.79763309360715E-06,-1.63740260177292E-05,4.39453125,0,0
3.52511756318563E-06,-1.07689347714768E-05,4.39453125,0,0
4.52111544291256E-06,-1.39620433401433E-05,4.39453125,0,0
3.56117720912152E-06,-9.24483811104437E-06,4.39453125,0,0
5.55200313101523E-06,-1.23662894111476E-05,4.39453125,0,0
4.9726945690054E-06,-1.13811729534063E-05,4.39453125,0,0
6.19213642494287E-06,-1.5581279512844E-05,4.39453125,0,0
6.31937609796296E-06,-1.56738697114633E-05,4.39453125,0,0
6.41531869405298E-06,-1.63077711476944E-05,4.39453125,0,0
5.20792900715605E-06,-1.58549155457877E-05,4.39453125,0,0
3.25941255141515E-06,-1.56322512339102E-05,4.39453125,0,0
2.63109677689499E-06,-1.49621037053294E-05,4.39453125,0,0
3.13677128360723E-06,-1.47657437992166E-05,4.39453125,0,0
3.67474535778456E-06,-1.66054978762986E-05,4.39453125,0,0
4.52527046945761E-06,-1.6918231267482E-05,4.39453125,0,0
6.53709594189422E-06,-1.76128924067598E-05,4.39453125,0,0
6.60370278637856E-06,-1.6431577023468E-05,4.39453125,0,0
5.32752164872363E-06,-1.69042068591807E-05,4.39453125,0,0
4.31332364314585E-06,-1.62499309226405E-05,4.39453125,0,0
4.43137423644657E-06,-1.65406581800198E-05,4.39453125,0,0
3.7568454445136E-06,-1.60981744556921E-05,4.39453125,0,0
3.68205428458168E-06,-1.66914614965208E-05,4.39453125,0,0
3.84476697945502E-06,-1.70108123711543E-05,4.39453125,0,0
3.427017645663E-06,-1.8951828678837E-05,4.39453125,0,0
2.20134666051308E-06,-1.93197356566088E-05,4.39453125,0,0
2.69422866949753E-06,-1.6938956832746E-05,4.39453125,0,0
3.39851590069884E-06,-1.47152386489324E-05,4.39453125,0,0
4.50660627393518E-06,-1.52311758938595E-05,4.39453125,0,0
4.75306524094776E-06,-1.29324407680542E-05,4.39453125,0,0
6.25907250650926E-06,-1.65435048984364E-05,4.39453125,0,0
3.50109735336446E-06,-1.14661434054142E-05,4.39453125,0,0
4.63858123112004E-06,-1.73526859725825E-05,4.39453125,0,0
5.36533207196044E-06,-1.61717289302032E-05,4.39453125,0,0
7.39198321753065E-06,-1.91476774489274E-05,4.39453125,0,0
6.22485549683915E-06,-1.77354631887283E-05,4.39453125,0,0
4.99264297104673E-06,-1.71409574249992E-05,4.39453125,0,0
3.8866201066412E-06,-1.57724844029872E-05,4.39453125,0,0
4.16013426729478E-06,-1.60874460561899E-05,4.39453125,0,0
4.41168685938464E-06,-1.70975836226717E-05,4.39453125,0,0
4.19793195760576E-06,-1.7078180462704E-05,4.39453125,0,0
3.54682902070635E-06,-1.82726034836378E-05,4.39453125,0,0
2.38998768509191E-06,-1.86309316632105E-05,4.39453125,0,0
3.37668734573526E-06,-2.04029547603568E-05,4.39453125,0,0
4.48565106125898E-06,-1.9838569642161E-05,4.39453125,0,0
5.12073347636033E-06,-2.09295412787469E-05,4.39453125,0,0
4.07978950534016E-06,-2.10949056054233E-05,4.39453125,0,0
3.65817481906561E-06,-2.19102803384885E-05,4.39453125,0,0
4.08594723921851E-06,-1.98601992451586E-05,4.39453125,0,0
5.40120208825101E-06,-1.88983340194682E-05,4.39453125,0,0
4.38471306551946E-06,-1.81199175131042E-05,4.39453125,0,0
2.18001287066727E-06,-1.79544240381802E-05,4.39453125,0,0
2.21993673221732E-06,-1.69801660376834E-05,4.39453125,0,0
4.66762321593706E-06,-1.5786348740221E-05,4.39453125,0,0
5.77428545511793E-06,-1.43481647683075E-05,4.39453125,0,0
5.19761806572205E-06,-1.34294632516685E-05,4.39453125,0,0
1.77388574229553E-06,-1.13129553938052E-05,4.39453125,0,0
-1.17238435848321E-07,-1.77590936800698E-05,4.39453125,0,0
-1.89811532891326E-06,-1.58732636919012E-05,4.39453125,0,0
2.304851250301E-06,-1.97222234419314E-05,4.39453125,0,0
3.80651431441947E-06,-1.82310159289045E-05,4.39453125,0,0
2.28513840738742E-06,-1.98395428014919E-05,4.39453125,0,0
-5.18549029493443E-07,-1.92527240869822E-05,4.39453125,0,0
-3.4447543839633E-07,-1.97378103621304E-05,4.39453125,0,0
1.29918612401525E-06,-1.86066536116414E-05,4.39453125,0,0
3.31576643475273E-06,-1.71466472238535E-05,4.39453125,0,0
4.09694939662586E-06,-1.46263955684844E-05,4.39453125,0,0
2.79644541478774E-06,-1.27757684822427E-05,4.39453125,0,0
1.76593584910734E-06,-1.45743188113556E-05,4.39453125,0,0
1.85602516467043E-06,-1.63420281751314E-05,4.39453125,0,0
2.78570837508596E-06,-1.79964099515928E-05,4.39453125,0,0
2.99821840599179E-06,-1.72375130205182E-05,4.39453125,0,0
3.7080833408254E-06,-1.72220497915987E-05,4.39453125,0,0
4.3969403122901E-06,-1.59316841745749E-05,4.39453125,0,0
4.10150641982909E-06,-1.58992443175521E-05,4.39453125,0,0
2.48892115450872E-06,-1.5160229850153E-05,4.39453125,0,0
2.4880407636374E-06,-1.50113301060628E-05,4.39453125,0,0
3.82709686164162E-06,-1.43107881740434E-05,4.39453125,0,0
5.0442322390154E-06,-1.4531728993461E-05,4.39453125,0,0
4.52409403806087E-06,-1.55416564666666E-05,4.39453125,0,0
3.46605179402104E-06,-1.78257196239429E-05,4.39453125,0,0
3.96385667045251E-06,-1.86480519914767E-05,4.39453125,0,0
5.11811458636657E-06,-1.77039491973119E-05,4.39453125,0,0
4.48965283794678E-06,-1.33346811708179E-05,4.39453125,0,0
7.04721242072992E-06,-1.88416452147067E-05,4.39453125,0,0
6.32362525720964E-06,-1.46334614328225E-05,4.39453125,0,0
6.83703683534986E-06,-1.86595643754117E-05,4.39453125,0,0
4.26231054007076E-06,-1.60526524268789E-05,4.39453125,0,0
3.15299962494464E-06,-1.69220384123037E-05,4.39453125,0,0
1.86961312920175E-06,-1.38665291160578E-05,4.39453125,0,0
2.26109227696725E-06,-1.46471320476849E-05,4.39453125,0,0
2.02517344405351E-06,-1.42220706038643E-05,4.39453125,0,0
2.73774367087753E-06,-1.35765803861432E-05,4.39453125,0,0
4.05753826271393E-06,-1.39988478622399E-05,4.39453125,0,0
4.76690047435113E-06,-1.53780529217329E-05,4.39453125,0,0
5.32044396095444E-06,-1.71485535247484E-05,4.39453125,0,0
4.79342133985483E-06,-1.63449039973784E-05,4.39453125,0,0
4.53831717095454E-06,-1.6568046703469E-05,4.39453125,0,0
3.46180399901641E-06,-1.72188720171107E-05,4.39453125,0,0
2.25629059968924E-06,-2.12275863304967E-05,4.39453125,0,0
1.68435713021609E-06,-2.23907463805517E-05,4.39453125,0,0
3.33560092258267E-06,-2.20012607314857E-05,4.39453125,0,0
3.59124874194094E-06,-1.92402367247269E-05,4.39453125,0,0
2.71783824246086E-06,-1.86445922736311E-05,8.0859375,0,0
1.58114733039838E-06,-1.78406207851367E-05,8.0859375,0,0
7.57105681259418E-07,-1.94601361727109E-05,8.0859375,0,0
-9.59825342761178E-07,-2.11291953746695E-05,8.0859375,0,0
-2.4158873657143E-06,-2.19577304960694E-05,8.0859375,0,0
-3.11967733068741E-06,-2.19405810639728E-05,8.0859375,0,0
-3.99387681682128E-06,-2.06641689146636E-05,8.0859375,0,0
-4.48123091700836E-06,-1.55172474478604E-05,8.0859375,0,0
-6.9223128775775E-06,-2.16692769754445E-05,8.0859375,0,0
-4.10311258747242E-06,-1.49731504279771E-05,8.0859375,0,0
-2.21520144805254E-06,-1.71371957549127E-05,8.0859375,0,0
-1.11511695877198E-07,-1.25638989629806E-05,8.0859375,0,0
-9.4167882025431E-07,-1.48290728247957E-05,8.0859375,0,0
-3.81034965357685E-07,-1.45181957122986E-05,8.0859375,0,0
1.14535941975191E-06,-1.65120836754795E-05,8.0859375,0,0
3.10044651996577E-06,-1.55678553710459E-05,8.0859375,0,0
3.87757927455823E-06,-1.45230087582604E-05,8.0859375,0,0
4.36349773735856E-06,-1.56003879965283E-05,8.0859375,0,0
5.23069047630997E-06,-1.70056191564072E-05,8.0859375,0,0
6.34597836324247E-06,-1.82516287168255E-05,8.0859375,0,0
6.14092505202279E-06,-1.68753995239967E-05,8.0859375,0,0
3.64517450179846E-06,-1.70118637470296E-05,8.0859375,0,0
2.38262077800755E-06,-1.61126645252807E-05,8.0859375,0,0
2.82107475868543E-06,-1.71031806530664E-05,8.0859375,0,0
4.43896897195373E-06,-1.5709991203039E-05,8.0859375,0,0
4.32585966336774E-06,-1.60605632117949E-05,8.0859375,0,0
2.58324394053489E-06,-1.61931766342605E-05,8.0859375,0,0
-4.02343090399881E-07,-1.68715705513023E-05,8.0859375,0,0
-1.74479509951198E-06,-1.52810262079583E-05,8.0859375,0,0
-1.52810218878585E-06,-1.59100763994502E-05,8.0859375,0,0
-1.52244666651313E-07,-1.73325133800972E-05,8.0859375,0,0
9.36796027417586E-07,-1.72480740729952E-05,8.0859375,0,0
9.05161357422912E-07,-1.59602859639563E-05,8.0859375,0,0
7.91565923918824E-07,-1.59000755957095E-05,8.0859375,0,0
9.40873121635377E-07,-1.26736895253998E-05,8.0859375,0,0
5.07749930989121E-08,-1.75906789081637E-05,8.0859375,0,0
-1.64563311955135E-06,-1.4040957466932E-05,8.0859375,0,0
-2.42407509176701E-07,-1.76903286046581E-05,8.0859375,0,0
1.43501222282794E-06,-1.30428315969766E-05,8.0859375,0,0
2.73152068075433E-06,-1.393789989379E-05,8.0859375,0,0
3.12919769385189E-06,-1.44349969559698E-05,8.0859375,0,0
3.92220545109012E-06,-1.73117750819074E-05,8.0859375,0,0
3.63800700142747E-06,-1.74189335666597E-05,8.0859375,0,0
3.0204475933715E-06,-1.76950998138636E-05,8.0859375,0,0
3.68937548955728E-06,-1.86343677341938E-05,8.0859375,0,0
5.13597933604615E-06,-1.95684497157345E-05,8.0859375,0,0
7.25688232705579E-06,-2.02509909286164E-05,8.0859375,0,0
8.9071008915198E-06,-1.79630569618894E-05,8.0859375,0,0
1.06222187241656E-05,-1.7481057511759E-05,8.0859375,0,0
1.21991470223293E-05,-1.74907690961845E-05,8.0859375,0,0
1.25124897749629E-05,-1.96283872355707E-05,8.0859375,0,0
1.1315801202727E-05,-2.01693765120581E-05,8.0859375,0,0
1.05148883449147E-05,-2.2261012418312E-05,8.0859375,0,0
1.00761062640231E-05,-2.211994069512E-05,8.0859375,0,0
9.76724913925864E-06,-2.17350298044039E-05,8.0859375,0,0
1.01871173683321E-05,-2.0768515241798E-05,8.0859375,0,0
1.03218499134528E-05,-2.03020026674494E-05,8.0859375,0,0
8.44864280225011E-06,-1.85503267857712E-05,8.0859375,0,0
5.98955875830143E-06,-1.89150505320868E-05,8.0859375,0,0
5.06992955706664E-06,-1.9574163161451E-05,8.0859375,0,0
5.89674255024875E-06,-1.84706932486733E-05,8.0859375,0,0
5.43661553820129E-06,-1.34826641442487E-05,8.0859375,0,0
6.56541942589683E-06,-1.88917056220816E-05,8.0859375,0,0
3.41515510626778E-06,-1.34629353851778E-05,8.0859375,0,0
4.62664183942252E-06,-1.60127528943121E-05,8.0859375,0,0
2.97275573757361E-06,-1.30637745314743E-05,8.0859375,0,0
3.57878707291093E-06,-1.62380383699201E-05,8.0859375,0,0
2.85535270450055E-06,-1.59511655510869E-05,8.0859375,0,0
3.03210890706396E-06,-1.62690212164307E-05,8.0859375,0,0
2.90823345494573E-06,-1.52776301547419E-05,8.0859375,0,0
3.27758152707247E-06,-1.64235443662619E-05,8.0859375,0,0
4.38838696936728E-06,-1.80355491465889E-05,8.0859375,0,0
5.35362141818041E-06,-1.75984405359486E-05,8.0859375,0,0
5.54992402612697E-06,-1.74211090779863E-05,8.0859375,0,0
4.22209086536895E-06,-1.54540393850766E-05,8.0859375,0,0
3.5359510093258E-06,-1.53896726260427E-05,8.0859375,0,0
3.0669107218273E-06,-1.51494659803575E-05,8.0859375,0,0
4.30471254730946E-06,-1.65999663295224E-05,8.0859375,0,0
4.45651721747709E-06,-1.57819486048538E-05,8.0859375,0,0
4.22300627178629E-06,-1.6101654182421E-05,8.0859375,0,0
3.7397003325168E-06,-1.67335074365838E-05,8.0859375,0,0
3.60160333912063E-06,-1.94925487448927E-05,8.0859375,0,0
2.77211756838369E-06,-1.93927935470128E-05,8.0859375,0,0
2.34874414672959E-06,-1.82875173777575E-05,8.0859375,0,0
2.01609418581938E-06,-1.72290092450567E-05,8.0859375,0,0
1.79794290033897E-06,-1.66123681992758E-05,8.0859375,0,0
-3.08186933750676E-08,-1.59811097546481E-05,8.0859375,0,0
-1.33894627651898E-06,-1.52970824274234E-05,8.0859375,0,0
5.73768659251073E-07,-1.28046858662856E-05,8.0859375,0,0
3.11117719320464E-06,-1.77875863300869E-05,8.0859375,0,0
4.94129244543728E-06,-1.35539385155425E-05,8.0859375,0,0
3.75023159904231E-06,-1.89965212484822E-05,8.0859375,0,0
1.39439555368881E-06,-1.88718586286996E-05,8.0859375,0,0
-4.34772545077067E-07,-2.15407508221688E-05,8.0859375,0,0
9.9923818197567E-07,-1.86927882168675E-05,8.0859375,0,0
3.06940160044178E-06,-1.55695197463501E-05,8.0859375,0,0
4.31350918006501E-06,-1.19957021524897E-05,8.0859375,0,0
3.97400026486139E-06,-1.24780408441438E-05,8.0859375,0,0
2.71238582172373E-06,-1.4701427971886E-05,8.0859375,0,0
1.77216145402781E-06,-1.46837655847776E-05,8.0859375,0,0
1.49401978433161E-06,-1.46085249070893E-05,8.0859375,0,0
1.10725488866592E-06,-1.32355053210631E-05,8.0859375,0,0
-5.62072330012597E-07,-1.35229693114525E-05,8.0859375,0,0
-2.34226672546356E-06,-1.39876547109452E-05,8.0859375,0,0
-2.23517690756125E-06,-1.67410835274495E-05,8.0859375,0,0
-2.85711905689823E-07,-1.58795592142269E-05,8.0859375,0,0
8.1710493304854E-07,-1.44927735163947E-05,8.0859375,0,0
-3.72992388975035E-07,-1.32563045553979E-05,8.0859375,0,0
-2.8791323529731E-06,-1.34788015202503E-05,8.0859375,0,0
-4.14741816712194E-06,-1.24621346913045E-05,8.0859375,0,0
-3.98396878154017E-06,-1.31689794216072E-05,8.0859375,0,0
-2.57088436228514E-06,-1.27463854369125E-05,8.0859375,0,0
-1.40091719913471E-06,-1.18777579700691E-05,8.0859375,0,0
-4.40545306901186E-07,-1.14012127596652E-05,8.0859375,0,0
7.89373302723106E-07,-1.18413981908816E-05,8.0859375,0,0
9.53099061007379E-07,-1.17182580652297E-05,8.0859375,0,0
1.61790296715481E-06,-1.75518198375357E-05,8.0859375,0,0
2.1728330921178E-06,-1.40321435537771E-05,8.0859375,0,0
3.68905057257507E-06,-1.63382937898859E-05,8.0859375,0,0
3.39159009854484E-06,-1.39633375511039E-05,8.0859375,0,0
2.67377254203893E-06,-1.56293936015572E-05,8.0859375,0,0
4.11437076763832E-06,-1.58696420839988E-05,8.0859375,0,0
6.12679923506221E-06,-1.84448981599417E-05,8.0859375,0,0
6.1208447732497E-06,-1.79343314812286E-05,8.0859375,0,0
5.31797331859707E-06,-1.74635042640148E-05,8.0859375,0,0
4.15825115851476E-06,-1.80462975549744E-05,8.0859375,0,0
2.93197422251978E-06,-1.89754828170408E-05,8.0859375,0,0
2.6670081751945E-06,-2.10375383176142E-05,8.0859375,0,0
3.21486345455924E-06,-2.06739041459514E-05,8.0859375,0,0
3.67391453437449E-06,-1.98617126443423E-05,8.0859375,0,0
3.58825673174579E-06,-1.84930431714747E-05,8.0859375,0,0
3.35556501340761E-06,-2.0649273210438E-05,8.0859375,0,0
3.558944172255E-06,-2.23571078095119E-05,8.0859375,0,0
3.71654050468351E-06,-2.46773288381519E-05,8.0859375,0,0
2.88111095869681E-06,-2.46546951530036E-05,8.0859375,0,0
2.05810806619411E-06,-2.43480517383432E-05,8.0859375,0,0
2.60799538409628E-06,-2.29771358135622E-05,8.0859375,0,0
4.57578107670997E-06,-2.21229838643922E-05,8.0859375,0,0
5.67093320569256E-06,-2.19696030399064E-05,8.0859375,0,0
5.6132894314942E-06,-2.15011787076946E-05,8.0859375,0,0
4.43170438302332E-06,-1.99631394934841E-05,8.0859375,0,0
2.66924689640291E-06,-2.01004659174941E-05,8.0859375,0,0
2.72691977443174E-06,-1.6473451978527E-05,8.0859375,0,0
5.70654810871929E-06,-2.34157269005664E-05,8.0859375,0,0
5.5007681112329E-06,-1.68333954206901E-05,8.0859375,0,0
4.48141327069607E-06,-1.99762725969777E-05,8.0859375,0,0
4.07229708798695E-06,-1.72548261616612E-05,8.0859375,0,0
4.8703786887927E-06,-2.01749953703256E-05,8.0859375,0,0
4.5763317757519E-06,-1.78868394868914E-05,8.0859375,0,0
4.24984318669885E-06,-1.82433814188698E-05,8.0859375,0,0
4.09248468713486E-06,-1.66928602993721E-05,8.0859375,0,0
4.48640412287205E-06,-1.64557204698212E-05,8.0859375,0,0
4.29186911787838E-06,-1.83281827048631E-05,8.0859375,0,0
3.23945937452663E-06,-1.99093083210755E-05,8.0859375,0,0
2.49956292464049E-06,-2.07002558454406E-05,8.0859375,0,0
1.85214526027266E-06,-1.75982204382308E-05,8.0859375,0,0
1.36945061512961E-06,-1.63692748174071E-05,8.0859375,0,0
1.26839097447373E-06,-1.49442321344395E-05,8.0859375,0,0
2.07916741601366E-06,-1.5808318494237E-05,8.0859375,0,0
2.16780676964845E-06,-1.50853402374196E-05,8.0859375,0,0
1.2501050150604E-06,-1.7387170373695E-05,8.0859375,0,0
2.61698687609169E-07,-1.80757178895874E-05,8.0859375,0,0
8.18790454104601E-07,-1.78434856934473E-05,8.0859375,0,0
2.10811708711844E-06,-1.56457299453905E-05,8.0859375,0,0
2.84162547359301E-06,-1.36002026920323E-05,8.0859375,0,0
4.03525018555229E-06,-1.08509448182303E-05,8.0859375,0,0
5.1123561206623E-06,-1.04360779005219E-05,8.0859375,0,0
4.79655273011304E-06,-1.18358493637061E-05,11.42578125,0,0
4.46800686404458E-06,-1.44780906339292E-05,11.42578125,0,0
5.185561349208E-06,-1.32242612380651E-05,11.42578125,0,0
9.57565134740435E-06,-1.83578322321409E-05,11.42578125,0,0
9.87617022474296E-06,-1.21075090646627E-05,11.42578125,0,0
1.15028324216837E-05,-1.35515238071093E-05,11.42578125,0,0
1.09934680949664E-05,-1.00097922768327E-05,11.42578125,0,0
1.08600515886792E-05,-1.25401884361054E-05,11.42578125,0,0
8.95559333002893E-06,-1.41266027640086E-05,11.42578125,0,0
7.23258608559263E-06,-1.82300209417008E-05,11.42578125,0,0
6.11837685937644E-06,-1.99956448341254E-05,11.42578125,0,0
5.74915202378179E-06,-1.99622081709094E-05,11.42578125,0,0
6.19173533777939E-06,-1.83799074875424E-05,11.42578125,0,0
6.73490285407752E-06,-1.62881533469772E-05,11.42578125,0,0
6.44568490315578E-06,-1.6550886357436E-05,11.42578125,0,0
5.30796341990936E-06,-1.62815485964529E-05,11.42578125,0,0
5.95730534769245E-06,-1.65081692102831E-05,11.42578125,0,0
7.47492322261678E-06,-1.49978250192362E-05,11.42578125,0,0
9.50239700614475E-06,-1.52664251800161E-05,11.42578125,0,0
1.05433755379636E-05,-1.39168123496347E-05,11.42578125,0,0
1.06393636087887E-05,-1.37368670038995E-05,11.42578125,0,0
9.50706362345954E-06,-1.35127547764569E-05,11.42578125,0,0
9.31525210035034E-06,-1.43116258186637E-05,11.42578125,0,0
9.2211530500208E-06,-1.39925923576811E-05,11.42578125,0,0
7.75354237703141E-06,-1.57422437041532E-05,11.42578125,0,0
5.37478808837477E-06,-1.8338247173233E-05,11.42578125,0,0
3.29911017615814E-06,-2.0584851881722E-05,11.42578125,0,0
2.0531545033009E-06,-2.15967738768086E-05,11.42578125,0,0
2.41869906858483E-06,-2.30065325013129E-05,11.42578125,0,0
2.04723210117663E-06,-1.89171423699008E-05,11.42578125,0,0
1.71402666637732E-06,-2.6248595531797E-05,11.42578125,0,0
-2.59558078141708E-07,-2.00453723664396E-05,11.42578125,0,0
7.5464163273864E-07,-2.66238876065472E-05,11.42578125,0,0
-2.66621270839096E-07,-2.21392929233843E-05,11.42578125,0,0
-3.21294123750704E-06,-2.26587271754397E-05,11.42578125,0,0
-6.42813665763242E-06,-2.13476032513427E-05,11.42578125,0,0
-7.02084435033612E-06,-2.50675275310641E-05,11.42578125,0,0
-7.33748038328486E-06,-2.53553716902388E-05,11.42578125,0,0
-8.14852865005378E-06,-2.57405554293655E-05,11.42578125,0,0
-8.88183967617806E-06,-2.632708492456E-05,11.42578125,0,0
-8.96347046364099E-06,-2.54432288784301E-05,11.42578125,0,0
-7.73006013332633E-06,-2.49191816692473E-05,11.42578125,0,0
-6.45760792394867E-06,-2.21120735659497E-05,11.42578125,0,0
-5.71479768041172E-06,-2.01919792743865E-05,11.42578125,0,0
-6.41369069853681E-06,-1.65799792739563E-05,11.42578125,0,0
-7.45068018659367E-06,-1.72171276062727E-05,11.42578125,0,0
-8.31399302114733E-06,-1.6066418538685E-05,11.42578125,0,0
-8.21026151243132E-06,-1.57697650138289E-05,11.42578125,0,0
-7.43888494980638E-06,-1.37867327794083E-05,11.42578125,0,0
-5.08977154822787E-06,-1.41150658237166E-05,11.42578125,0,0
-1.78953405338689E-06,-1.35063728521345E-05,11.42578125,0,0
1.60224988121627E-06,-1.44902069223463E-05,11.42578125,0,0
4.51668529422022E-06,-1.60074487212114E-05,11.42578125,0,0
7.29296607460128E-06,-1.77018991962541E-05,11.42578125,0,0
9.10746894078329E-06,-1.69409067893866E-05,11.42578125,0,0
1.03662550827721E-05,-1.63204458658583E-05,11.42578125,0,0
1.01953855846659E-05,-1.35105101435329E-05,11.42578125,0,0
1.43958532135002E-05,-1.88619014807045E-05,11.42578125,0,0
9.97329152596649E-06,-1.42530607263325E-05,11.42578125,0,0
1.15794600787922E-05,-1.74777323991293E-05,11.42578125,0,0
9.10523613129044E-06,-1.38656560011441E-05,11.42578125,0,0
1.02889389381744E-05,-1.47488372022053E-05,11.42578125,0,0
7.97196480561979E-06,-1.24828902698937E-05,11.42578125,0,0
6.51182608635281E-06,-1.27191296996898E-05,11.42578125,0,0
5.22271375302807E-06,-1.2628279364435E-05,11.42578125,0,0
5.36920742888469E-06,-1.33535450004274E-05,11.42578125,0,0
5.23007292940747E-06,-1.40169913720456E-05,11.42578125,0,0
4.24899189965799E-06,-1.45837339005084E-05,11.42578125,0,0
4.58974272987689E-06,-1.56376045197248E-05,11.42578125,0,0
4.97338533023139E-06,-1.41455384436995E-05,11.42578125,0,0
7.58693431635038E-06,-1.41294667628244E-05,11.42578125,0,0
9.03744694369379E-06,-1.31695460368064E-05,11.42578125,0,0
9.84896087175002E-06,-1.41161672218004E-05,11.42578125,0,0
8.58536350278882E-06,-1.35359641717514E-05,11.42578125,0,0
8.72777854965534E-06,-1.38743043862632E-05,11.42578125,0,0
8.0963191066985E-06,-1.18243660836015E-05,11.42578125,0,0
7.65568802307826E-06,-1.0977257261402E-05,11.42578125,0,0
5.70634119867464E-06,-9.98471841739956E-06,11.42578125,0,0
4.94104642712045E-06,-9.64340779319173E-06,11.42578125,0,0
5.72152612221544E-06,-9.80092227109708E-06,11.42578125,0,0
7.26402231521206E-06,-1.06093284557573E-05,11.42578125,0,0
7.1401063905796E-06,-1.06038169178646E-05,11.42578125,0,0
6.21357457930571E-06,-1.0967568414344E-05,11.42578125,0,0
3.00089232041501E-06,-1.11887529783417E-05,11.42578125,0,0
3.06809454286849E-07,-1.64982920978218E-05,11.42578125,0,0
-4.88049317937111E-06,-1.25715459944331E-05,11.42578125,0,0
-3.31500677930308E-06,-1.59901956067188E-05,11.42578125,0,0
-1.55913164689991E-06,-1.53230012074346E-05,11.42578125,0,0
4.74779454862073E-07,-1.65967467182782E-05,11.42578125,0,0
-1.50474409110757E-06,-1.55775596795138E-05,11.42578125,0,0
-2.60218826042546E-06,-1.67502348631388E-05,11.42578125,0,0
-2.47296520683449E-06,-1.71488991327351E-05,11.42578125,0,0
-1.35318350658054E-06,-1.70239309227327E-05,11.42578125,0,0
-3.34374703925278E-07,-1.68398764799349E-05,11.42578125,0,0
6.4466240701222E-07,-1.59105293278117E-05,11.42578125,0,0
2.09498853109835E-06,-1.62467677000677E-05,11.42578125,0,0
2.02410478777892E-06,-1.55933357746108E-05,11.42578125,0,0
1.57008435053285E-06,-1.52293550854665E-05,11.42578125,0,0
1.11392876078753E-06,-1.44187251862604E-05,11.42578125,0,0
2.17490037357493E-06,-1.57759386638645E-05,11.42578125,0,0
2.84470570477424E-06,-1.63745171448682E-05,11.42578125,0,0
3.19472405863053E-06,-1.7142489014077E-05,11.42578125,0,0
2.32771049013536E-06,-1.64433713507606E-05,11.42578125,0,0
2.79603500530357E-06,-1.705199611024E-05,11.42578125,0,0
4.51148571301019E-06,-1.69020840985468E-05,11.42578125,0,0
6.20024184172507E-06,-1.61188836500514E-05,11.42578125,0,0
5.28587406734005E-06,-1.4190723959473E-05,11.42578125,0,0
2.3888146643003E-06,-1.26765453387634E-05,11.42578125,0,0
9.23876257274969E-07,-1.36473036036477E-05,11.42578125,0,0
2.84425391328114E-06,-1.44376544994884E-05,11.42578125,0,0
4.22576840719557E-06,-1.10349410533672E-05,11.42578125,0,0
4.94005325890612E-06,-1.72469208337134E-05,11.42578125,0,0
2.69406058350796E-07,-1.76584890141385E-05,11.42578125,0,0
-3.94660759184262E-07,-2.43076992774149E-05,11.42578125,0,0
1.03980745791432E-07,-2.19084267882863E-05,11.42578125,0,0
3.60321109837969E-06,-2.0539591787383E-05,11.42578125,0,0
5.59227100893622E-06,-1.62890519277425E-05,11.42578125,0,0
5.33287675352767E-06,-1.50905998452799E-05,11.42578125,0,0
5.01905378769152E-06,-1.40910024128971E-05,11.42578125,0,0
7.77188233769266E-06,-1.40105030368431E-05,11.42578125,0,0
1.25041315186536E-05,-1.54233603097964E-05,11.42578125,0,0
1.49492816490238E-05,-1.52390994117013E-05,11.42578125,0,0
1.36260268845945E-05,-1.45761796375155E-05,11.42578125,0,0
1.04513446785859E-05,-1.32555769596365E-05,11.42578125,0,0
1.00629540611408E-05,-1.39047169795958E-05,11.42578125,0,0
1.03369129647035E-05,-1.34004158098833E-05,11.42578125,0,0
9.46190812101122E-06,-1.37810193336918E-05,11.42578125,0,0
6.47607839709963E-06,-1.47397367982194E-05,11.42578125,0,0
3.83199039788451E-06,-1.82559288077755E-05,11.42578125,0,0
3.00302576761169E-06,-1.96014771063346E-05,11.42578125,0,0
3.36908919962298E-06,-1.96230303117773E-05,11.42578125,0,0
2.86960607809306E-06,-1.79446942638606E-05,11.42578125,0,0
1.55129976064927E-06,-1.71790488820989E-05,11.42578125,0,0
6.43753480744635E-07,-1.75170353031717E-05,11.42578125,0,0
1.83647773610573E-06,-1.68882143043447E-05,11.42578125,0,0
3.54179928763187E-06,-1.38618179335026E-05,11.42578125,0,0
3.35693607667054E-06,-1.24642629089067E-05,11.42578125,0,0
2.75611853339797E-07,-1.26707054732833E-05,11.42578125,0,0
-2.70608694563634E-07,-2.06163786060642E-05,11.42578125,0,0
1.48926858400955E-06,-1.86844899872085E-05,11.42578125,0,0
6.1093292060832E-06,-2.32123384193983E-05,11.42578125,0,0
8.06067146186251E-06,-2.28137432713993E-05,11.42578125,0,0
7.20682828614372E-06,-2.42031910602236E-05,11.42578125,0,0
5.08619405081845E-06,-2.22146627493203E-05,11.42578125,0,0
4.01229590352159E-06,-2.21223199332599E-05,11.42578125,0,0
2.98774034490634E-06,-2.09775480470853E-05,11.42578125,0,0
1.19895400985115E-06,-2.08410128834657E-05,11.42578125,0,0
-3.06637446101377E-07,-2.15889576793415E-05,11.42578125,0,0
-1.82330850861945E-07,-2.07781286007958E-05,11.42578125,0,0
9.63094180406188E-07,-2.04845564439893E-05,11.42578125,0,0
1.51272570292349E-06,-2.0358547772048E-05,11.42578125,0,0
1.04631192243687E-06,-2.19233479583636E-05,11.42578125,0,0
3.07582695313613E-07,-2.22819908231031E-05,11.42578125,0,0
-9.10526296138414E-07,-2.39079945458798E-05,11.42578125,0,0
-3.3034900752682E-06,-2.39574328588787E-05,11.42578125,0,0
-4.89676585857524E-06,-2.37725344049977E-05,11.42578125,0,0
-5.34382843397907E-06,-2.15326163015561E-05,11.42578125,0,0
-4.70162103738403E-06,-1.97160970856203E-05,11.42578125,0,0
-3.74581168216537E-06,-1.73939224623609E-05,11.42578125,0,0
-3.67176585314155E-06,-1.71299343492137E-05,11.42578125,0,0
-3.83862197850249E-06,-1.77447418536758E-05,11.42578125,0,0
-3.43306760441919E-06,-1.73213102243608E-05,11.42578125,0,0
-2.34807816923421E-06,-1.56190490088193E-05,11.42578125,0,0
-1.89972058706189E-06,-1.39406238304218E-05,11.42578125,0,0
-1.21276855225005E-06,-1.07639334601117E-05,14.23828125,0,0
-5.71288637729594E-07,-1.68582246260485E-05,14.23828125,0,0
1.03655395378155E-06,-1.45814210554818E-05,14.23828125,0,0
1.7191860024468E-06,-1.63877375598531E-05,14.23828125,0,0
3.1447436867893E-06,-1.42021362989908E-05,14.23828125,0,0
2.28432122639788E-06,-1.57803515321575E-05,14.23828125,0,0
1.70232715390739E-06,-1.36757043947E-05,14.23828125,0,0
2.06907475330809E-06,-1.36854987431434E-05,14.23828125,0,0
4.25582356911036E-06,-1.34411138787982E-05,14.23828125,0,0
6.70904501021141E-06,-1.40433303386089E-05,14.23828125,0,0
7.58421037971857E-06,-1.47274668051978E-05,14.23828125,0,0
6.06061030339333E-06,-1.41178452395252E-05,14.23828125,0,0
4.67970812678686E-06,-1.34283645820688E-05,14.23828125,0,0
4.86504950458766E-06,-1.32822469822713E-05,14.23828125,0,0
4.8067704483401E-06,-1.52511020132806E-05,14.23828125,0,0
3.78906133846613E-06,-1.52608608914306E-05,14.23828125,0,0
2.21674122258264E-06,-1.55639281729236E-05,14.23828125,0,0
1.59806825195119E-06,-1.43366178235738E-05,14.23828125,0,0
6.82609311297711E-07,-1.4110810298007E-05,14.23828125,0,0
-9.8461434561159E-08,-1.38173363666283E-05,14.23828125,0,0
9.16918736493244E-07,-1.46009142554249E-05,14.23828125,0,0
3.31804176312289E-06,-1.37948918563779E-05,14.23828125,0,0
2.7925236736337E-06,-1.45579033414833E-05,14.23828125,0,0
6.52552557767194E-07,-1.62950564117637E-05,14.23828125,0,0
1.82913396429285E-07,-1.82984913408291E-05,14.23828125,0,0
1.45364742820675E-06,-1.93168962141499E-05,14.23828125,0,0
2.45558544520463E-06,-1.83819920493988E-05,14.23828125,0,0
2.16540252040431E-06,-1.25207243399927E-05,14.23828125,0,0
3.24112875205174E-06,-1.68888363987207E-05,14.23828125,0,0
3.54961844095669E-06,-1.20995737233898E-05,14.23828125,0,0
5.33800584889832E-06,-1.74819324456621E-05,14.23828125,0,0
3.486128662189E-06,-1.72434138221433E-05,14.23828125,0,0
6.12070095939998E-07,-1.77353686012793E-05,14.23828125,0,0
-1.37467975491745E-06,-1.30220114442636E-05,14.23828125,0,0
8.06462423952325E-07,-1.26467211885029E-05,14.23828125,0,0
4.09196172768134E-06,-1.27298108054674E-05,14.23828125,0,0
4.73872614747961E-06,-1.41725176945329E-05,14.23828125,0,0
3.41168129125435E-06,-1.53843247971963E-05,14.23828125,0,0
1.64845152994531E-06,-1.42966191560845E-05,14.23828125,0,0
-3.34318372097187E-07,-1.34295742100221E-05,14.23828125,0,0
-2.46121567215596E-06,-1.23986865219194E-05,14.23828125,0,0
-2.99305952466966E-06,-1.28776882775128E-05,14.23828125,0,0
-2.80142398878525E-06,-1.18329990073107E-05,14.23828125,0,0
-1.68715030213207E-06,-1.34419396999874E-05,14.23828125,0,0
2.76574041890854E-07,-1.45076755870832E-05,14.23828125,0,0
2.22265930460708E-06,-1.707895535219E-05,14.23828125,0,0
3.32178001372085E-06,-1.83169777301373E-05,14.23828125,0,0
4.48166565547581E-06,-1.97363206098089E-05,14.23828125,0,0
5.8316486502008E-06,-1.98782872757874E-05,14.23828125,0,0
8.21182493382366E-06,-1.92005354620051E-05,14.23828125,0,0
1.09770726339775E-05,-1.56497499119723E-05,14.23828125,0,0
1.24911621242063E-05,-1.40943357109791E-05,14.23828125,0,0
1.28776200654102E-05,-1.55773614096688E-05,14.23828125,0,0
1.35495374706807E-05,-1.85886110557476E-05,14.23828125,0,0
1.11463450593874E-05,-1.7287991795456E-05,14.23828125,0,0
1.53596683958313E-05,-2.45777300733607E-05,14.23828125,0,0
1.08076674223412E-05,-1.8731099771685E-05,14.23828125,0,0
1.23796025945921E-05,-2.4164279238903E-05,14.23828125,0,0
8.23764366941759E-06,-2.06683744181646E-05,14.23828125,0,0
7.90576996223535E-06,-2.24836912821047E-05,14.23828125,0,0
4.4440607780416E-06,-2.16401149373269E-05,14.23828125,0,0
3.51123549080512E-06,-2.24513114517322E-05,14.23828125,0,0
1.92887387129304E-06,-2.03782765311189E-05,14.23828125,0,0
2.2189499304659E-06,-1.9630173483165E-05,14.23828125,0,0
2.48250967160857E-06,-1.92565694305813E-05,14.23828125,0,0
1.061781745193E-06,-1.78653936018236E-05,14.23828125,0,0
2.19630294395756E-07,-1.86008892342215E-05,14.23828125,0,0
-6.68296991079842E-07,-1.77985511982115E-05,14.23828125,0,0
6.17241710187955E-07,-1.72501186170848E-05,14.23828125,0,0
