biceps_emg, triceps_emg, subject_position, position_estimate, brace_position
-2.06513796001673E-05,1.127138875745E-05,4.74609375,0,0
-1.97644694708288E-05,1.09910079117981E-05,4.74609375,0,0
-2.05045944312587E-05,1.19857231766218E-05,4.74609375,0,0
-1.9747567421291E-05,1.15592729343916E-05,4.74609375,0,0
-2.19609610212501E-05,1.11579738586443E-05,4.74609375,0,0
-2.28847384278197E-05,1.01628584161517E-05,4.74609375,0,0
-2.53902217082214E-05,1.09897400761838E-05,4.74609375,0,0
-2.4936885893112E-05,1.12984116640291E-05,4.74609375,0,0
-2.47077587118838E-05,1.09138400148368E-05,4.74609375,0,0
-2.27268064918462E-05,8.48201307235286E-06,4.74609375,0,0
-2.26059109991184E-05,7.06224409441347E-06,4.74609375,0,0
-2.2950040147407E-05,7.26065127309994E-06,4.74609375,0,0
-2.42314108618302E-05,8.71399606694467E-06,4.74609375,0,0
-2.38102111325134E-05,9.75598413788248E-06,4.74609375,0,0
-2.30645873671165E-05,1.07458199636312E-05,4.74609375,0,0
-1.96137152670417E-05,1.02121875897865E-05,4.74609375,0,0
-2.81196626019664E-05,1.42475746542914E-05,4.74609375,0,0
-2.06180102395592E-05,9.41915459407028E-06,4.74609375,0,0
-2.60666056419723E-05,1.15771363198292E-05,4.74609375,0,0
-2.50414232141338E-05,1.07664491224568E-05,4.74609375,0,0
-2.84047491732053E-05,1.30106200231239E-05,4.74609375,0,0
-2.49804743361892E-05,1.23238196465536E-05,4.74609375,0,0
-2.4137942091329E-05,1.31738142954418E-05,4.74609375,0,0
-2.17016367969336E-05,1.33269822981674E-05,4.74609375,0,0
-2.0713221601909E-05,1.41143636938068E-05,4.74609375,0,0
-2.04149346245686E-05,1.47560958794202E-05,4.74609375,0,0
-2.05390424525831E-05,1.4394076060853E-05,4.74609375,0,0
-2.27811306103831E-05,1.5456105757039E-05,4.74609375,0,0
-2.29472552746302E-05,1.65290821314557E-05,4.74609375,0,0
-2.50114244408906E-05,1.80796450877097E-05,4.74609375,0,0
-2.53735743172001E-05,1.62269861903042E-05,4.74609375,0,0
-2.76325936283683E-05,1.37308798002778E-05,4.74609375,0,0
-2.7595986466622E-05,1.05291073850822E-05,4.74609375,0,0
-2.85546466329833E-05,9.52644131757552E-06,4.74609375,0,0
-2.68683434114791E-05,8.90958563104505E-06,4.74609375,0,0
-2.70625132543501E-05,9.89086402114481E-06,4.74609375,0,0
-2.66244023805484E-05,9.8192986115464E-06,4.74609375,0,0
-2.73793521046173E-05,9.37368804443395E-06,4.74609375,0,0
-2.69197589659598E-05,9.12338691705372E-06,4.74609375,0,0
-2.61454788414994E-05,1.02591984614264E-05,4.74609375,0,0
-2.48437518166611E-05,1.01639925560448E-05,4.74609375,0,0
-2.44985258177621E-05,8.9335671873414E-06,4.74609375,0,0
-1.90680566447554E-05,7.49916534914519E-06,4.74609375,0,0
-2.68226758635137E-05,9.71020381257404E-06,4.74609375,0,0
-2.06518216145923E-05,5.90369290875969E-06,4.74609375,0,0
-2.62062330875779E-05,6.9848970269959E-06,4.74609375,0,0
-2.23244787775911E-05,5.14876182933222E-06,4.74609375,0,0
-2.53032449109014E-05,7.28065606381278E-06,4.74609375,0,0
-2.36201649386203E-05,7.84696021582931E-06,4.74609375,0,0
-2.41444613493513E-05,8.65818492457038E-06,4.74609375,0,0
-2.18562527152244E-05,8.30367935122922E-06,4.74609375,0,0
-2.02279352379264E-05,8.29139116831357E-06,4.74609375,0,0
-1.98296456801472E-05,7.78866160544567E-06,4.74609375,0,0
-2.07009688892867E-05,6.89180296831182E-06,4.74609375,0,0
-2.2776965124649E-05,8.13885708339512E-06,4.74609375,0,0
-2.09651352633955E-05,9.01550538401352E-06,4.74609375,0,0
-2.06063632504083E-05,9.26393113331869E-06,4.74609375,0,0
-1.88525173143717E-05,8.44774967845296E-06,4.74609375,0,0
-1.94058156921528E-05,9.44990460993722E-06,4.74609375,0,0
-1.8641670976649E-05,1.11770159492153E-05,4.74609375,0,0
-2.12928152905079E-05,1.35899217639235E-05,4.74609375,0,0
-2.24588384298841E-05,1.25553606267204E-05,4.74609375,0,0
-2.403421967756E-05,1.0860841939575E-05,4.74609375,0,0
-2.31024951062864E-05,1.0552843377809E-05,4.74609375,0,0
-2.34067993005738E-05,1.18031466627144E-05,4.74609375,0,0
-2.33480623137439E-05,1.1858151992783E-05,4.74609375,0,0
-2.2598327632295E-05,1.28988049254986E-05,4.74609375,0,0
-2.07063421839848E-05,1.41814280141261E-05,4.74609375,0,0
-2.01056682271883E-05,1.40221036417643E-05,4.74609375,0,0
-1.55358484335011E-05,1.1026713764295E-05,4.74609375,0,0
-2.20470847125398E-05,1.48859144246671E-05,4.74609375,0,0
-1.83444426511414E-05,9.28354347706772E-06,4.74609375,0,0
-2.43958784267306E-05,1.12207389975083E-05,4.74609375,0,0
-2.17246051761322E-05,9.45684587350115E-06,4.74609375,0,0
-2.44720959017286E-05,1.16186693048803E-05,4.74609375,0,0
-2.32876664085779E-05,1.03337906693923E-05,4.74609375,0,0
-2.43469294218812E-05,9.96183825918706E-06,4.74609375,0,0
-2.36925625358708E-05,9.00223949429346E-06,4.74609375,0,0
-2.33139253396075E-05,1.01464829640463E-05,4.74609375,0,0
-2.33589707931969E-05,1.10088494693628E-05,4.74609375,0,0
-2.28638782573398E-05,9.2617310656351E-06,4.74609375,0,0
-2.42172445723554E-05,8.73641602083808E-06,4.74609375,0,0
-2.45427490881411E-05,8.12353300716495E-06,4.74609375,0,0
-2.61028872046154E-05,7.94317384134047E-06,4.74609375,0,0
-2.63393503701082E-05,6.74638749842416E-06,4.74609375,0,0
-2.84592897514813E-05,8.78843002283247E-06,4.74609375,0,0
-2.77917952189455E-05,1.02022295322968E-05,4.74609375,0,0
-2.75118818535702E-05,1.04921527963597E-05,4.74609375,0,0
-2.60168599197641E-05,8.28813608677592E-06,4.74609375,0,0
-2.64845493802568E-05,7.04793592376518E-06,4.74609375,0,0
-2.62732719420455E-05,7.46881778468378E-06,4.74609375,0,0
-2.73508303507697E-05,1.08820950117661E-05,4.74609375,0,0
-2.73608184215846E-05,1.31657889141934E-05,4.74609375,0,0
-2.61205823335331E-05,1.44898331200238E-05,4.74609375,0,0
-2.52457430178765E-05,1.49026373037486E-05,4.74609375,0,0
-2.61321929428959E-05,1.52369757415727E-05,4.74609375,0,0
-2.09644422284327E-05,1.02084040918271E-05,4.74609375,0,0
-2.96725829684874E-05,1.22832934721373E-05,4.74609375,0,0
-2.25193307414884E-05,7.55652808948071E-06,4.74609375,0,0
-2.81252923741704E-05,1.24328571473598E-05,4.74609375,0,0
-2.38563588936813E-05,1.08496824395843E-05,4.74609375,0,0
-2.78665647783782E-05,1.23581539810402E-05,4.74609375,0,0
-2.75679358310299E-05,1.18914840641082E-05,4.74609375,0,0
-2.95732734230114E-05,1.3668613974005E-05,4.74609375,0,0
-2.78558254649397E-05,1.45795565913431E-05,4.74609375,0,0
-2.66982297034701E-05,1.49886227518436E-05,4.74609375,0,0
-2.60028245975263E-05,1.37657898449106E-05,4.74609375,0,0
-2.45146948145702E-05,1.11141789602698E-05,4.74609375,0,0
-2.51749661401846E-05,1.04245236798306E-05,4.74609375,0,0
-2.40476219914854E-05,9.85324186331127E-06,4.74609375,0,0
-2.4692451916053E-05,1.0404861313873E-05,4.74609375,0,0
-2.27013151743449E-05,9.67599953582976E-06,4.74609375,0,0
-2.36113501159707E-05,1.0508955710975E-05,4.74609375,0,0
-2.31966841965914E-05,1.06507295640768E-05,4.74609375,0,0
-2.45109295065049E-05,1.23360787256388E-05,4.74609375,0,0
-2.30556543101557E-05,1.3273757758725E-05,4.74609375,0,0
-2.40721565205604E-05,1.44877167258528E-05,4.74609375,0,0
-2.4714921892155E-05,1.36389608087484E-05,4.74609375,0,0
-2.55323393503204E-05,1.18524249046459E-05,4.74609375,0,0
-2.4761529857642E-05,9.55589985096594E-06,4.74609375,0,0
-2.4208718969021E-05,9.00458962860284E-06,4.74609375,0,0
-2.39171022258233E-05,9.79980904958211E-06,4.74609375,0,0
-2.46197359956568E-05,1.0559241673036E-05,4.74609375,0,0
-2.1394987925305E-05,8.58875864651054E-06,4.74609375,0,0
-3.10178038489539E-05,1.1916839866899E-05,4.74609375,0,0
-2.45123865170171E-05,9.17464149097214E-06,4.74609375,0,0
-3.04788300127257E-05,1.1632168025244E-05,4.74609375,0,0
-2.56400289799785E-05,9.43673239817144E-06,4.74609375,0,0
-2.7243895601714E-05,9.80018830887275E-06,4.74609375,0,0
-2.44373550231103E-05,7.72424937167671E-06,4.74609375,0,0
-2.56160456046928E-05,7.88709257903975E-06,4.74609375,0,0
-2.53435391641688E-05,7.19701256457483E-06,4.74609375,0,0
-2.59446533164009E-05,6.78642072671209E-06,4.74609375,0,0
-2.71018107014243E-05,7.72985185903963E-06,4.74609375,0,0
-2.62732646660879E-05,9.02447845874121E-06,4.74609375,0,0
-2.63948895735666E-05,1.0321821719117E-05,4.74609375,0,0
-2.45150968112284E-05,8.87421356310369E-06,4.74609375,0,0
-2.50494722422445E-05,8.5290766946855E-06,4.74609375,0,0
-2.33733262575697E-05,9.01065322977956E-06,4.74609375,0,0
-2.39983073697658E-05,1.09268503365456E-05,4.74609375,0,0
-2.30806272156769E-05,1.02715548564447E-05,4.74609375,0,0
-2.49791319220094E-05,9.04797161638271E-06,4.74609375,0,0
-2.53013586188899E-05,7.80155914981151E-06,4.74609375,0,0
-2.64060363406315E-05,8.40457050799159E-06,4.74609375,0,0
-2.59773005382158E-05,8.56427595863352E-06,4.74609375,0,0
-2.6982279450749E-05,9.44549719861243E-06,4.74609375,0,0
-2.74169506155886E-05,1.06954512375523E-05,4.74609375,0,0
-2.83562440017704E-05,1.28406509247725E-05,4.74609375,0,0
-2.81078482657904E-05,1.41911914397497E-05,4.74609375,0,0
-2.79217038041679E-05,1.34159690787783E-05,4.74609375,0,0
-2.31503145187162E-05,1.13073620013893E-05,4.74609375,0,0
-3.3287131373072E-05,1.6973997844616E-05,4.74609375,0,0
-2.5397224817425E-05,1.23212739708833E-05,4.74609375,0,0
-3.10342402372044E-05,1.13534788397374E-05,4.74609375,0,0
-2.47810567088891E-05,6.3113443502516E-06,4.74609375,0,0
-2.53886464633979E-05,7.98521341494052E-06,4.74609375,0,0
-2.24792602239177E-05,8.59126339491922E-06,4.74609375,0,0
-2.4062526790658E-05,1.00459665191011E-05,4.74609375,0,0
-2.25975109060528E-05,9.23122297535883E-06,4.74609375,0,0
-2.22259659494739E-05,8.45314389152918E-06,4.74609375,0,0
-2.24437499127816E-05,8.61980879562907E-06,4.74609375,0,0
-2.14644569496159E-05,8.29388318379642E-06,4.74609375,0,0
-2.16733642446343E-05,8.76253125170479E-06,4.74609375,0,0
-1.92196039279224E-05,9.05435990716796E-06,4.74609375,0,0
-2.02931005333085E-05,1.06354182207724E-05,4.74609375,0,0
-2.0485213099164E-05,1.18050202218001E-05,4.74609375,0,0
-2.29959423450055E-05,1.4565476703865E-05,4.74609375,0,0
-2.23209117393708E-05,1.48181852637208E-05,4.74609375,0,0
-2.36870273511158E-05,1.44207888297387E-05,4.74609375,0,0
-2.22223079617834E-05,1.2526810678537E-05,4.74609375,0,0
-2.15619365917519E-05,1.23418303701328E-05,4.74609375,0,0
-2.0313400455052E-05,1.34291367430706E-05,4.74609375,0,0
-2.21836653508944E-05,1.45140265885857E-05,4.74609375,0,0
-2.36696960200788E-05,1.27094790514093E-05,4.74609375,0,0
-2.37073854805203E-05,1.06144343590131E-05,4.74609375,0,0
-2.30100795306498E-05,9.94662877928931E-06,4.74609375,0,0
-2.44223610934569E-05,1.20764434541343E-05,4.74609375,0,0
-2.04358857445186E-05,1.18509688036283E-05,4.74609375,0,0
-2.74348840321181E-05,1.68285459949402E-05,4.74609375,0,0
-1.83289357664762E-05,1.05617855297169E-05,4.74609375,0,0
-2.34620456467383E-05,1.06246452560299E-05,4.74609375,0,0
-1.89658658200642E-05,7.40953009881196E-06,4.74609375,0,0
-2.13976618397282E-05,9.55512405198533E-06,4.74609375,0,0
-2.00210979528492E-05,8.78191713127308E-06,4.74609375,0,0
-2.15321997529827E-05,9.62737067311537E-06,4.74609375,0,0
-1.96331075130729E-05,1.16782857730868E-05,4.74609375,0,0
-1.86369907169137E-05,1.31407414301066E-05,4.74609375,0,0
-1.91020626516547E-05,1.20382819659426E-05,4.74609375,0,0
-1.83931388164638E-05,1.0057890904136E-05,4.74609375,0,0
-1.8743328837445E-05,1.01063724287087E-05,4.74609375,0,0
-1.73204225575319E-05,1.06069301182288E-05,4.74609375,0,0
-1.88494068424916E-05,1.22163364721928E-05,4.74609375,0,0
-1.82822586793918E-05,1.19648893814883E-05,4.74609375,0,0
-2.00687481992645E-05,1.25337764984579E-05,4.74609375,0,0
-2.03612107725348E-05,1.20392423923477E-05,4.74609375,0,0
-2.22027410927694E-05,1.27881176013034E-05,4.74609375,0,0
-2.18487584788818E-05,1.22778374134214E-05,4.74609375,0,0
-2.35556344705401E-05,1.08519898276427E-05,4.74609375,0,0
-2.3903492547106E-05,7.7864187915111E-06,4.74609375,0,0
-2.60788274317747E-05,8.29353302833624E-06,4.74609375,0,0
-2.81862394331256E-05,1.18007228593342E-05,4.74609375,0,0
-2.94172023131978E-05,1.45109797813348E-05,4.74609375,0,0
-2.89979489025427E-05,1.25334672702593E-05,4.74609375,0,0
-2.79820196738001E-05,9.91918022918981E-06,4.74609375,0,0
-2.13810089917388E-05,7.7683107519988E-06,4.74609375,0,0
-3.03773831547005E-05,1.23386425912031E-05,4.74609375,0,0
-2.3918268198031E-05,1.22193559946027E-05,4.74609375,0,0
-2.97090791718801E-05,1.63661698024953E-05,4.74609375,0,0
-2.53973084909376E-05,1.57672475324944E-05,4.74609375,0,0
-2.86507347482257E-05,1.63077274919488E-05,4.74609375,0,0
-2.49506811087485E-05,1.44191308208974E-05,4.74609375,0,0
-2.53057678492041E-05,1.4369309610629E-05,4.74609375,0,0
-2.39170676650247E-05,1.36787102746894E-05,4.74609375,0,0
-2.35613788390765E-05,1.21483062685002E-05,4.74609375,0,0
-2.37722888414282E-05,1.13248079287587E-05,4.74609375,0,0
-2.25118619709974E-05,1.10219343696372E-05,4.74609375,0,0
-2.17681299545802E-05,1.16421088023344E-05,4.74609375,0,0
-1.92582101590233E-05,1.17768349809921E-05,4.74609375,0,0
-2.07069060706999E-05,1.2242075172253E-05,4.74609375,0,0
-2.0842668163823E-05,1.08468666439876E-05,4.74609375,0,0
-2.36499981838278E-05,9.70032033364987E-06,4.74609375,0,0
-2.35230982070789E-05,8.86935777089093E-06,4.74609375,0,0
-2.47496718657203E-05,9.43697432376212E-06,4.74609375,0,0
-2.34250856010476E-05,8.93535161594627E-06,4.74609375,0,0
-2.35638799495064E-05,9.26904795051087E-06,4.74609375,0,0
-2.22129547182703E-05,1.03373940874008E-05,4.74609375,0,0
-2.25799849431496E-05,1.20178374345414E-05,4.74609375,0,0
-2.24369432544336E-05,1.25207088785828E-05,4.74609375,0,0
-2.24514951696619E-05,1.13262240120093E-05,4.74609375,0,0
-2.18931454583071E-05,8.19031447463203E-06,4.74609375,0,0
-2.1121557438164E-05,6.8846347858198E-06,4.74609375,0,0
-1.59562969201943E-05,7.35789853933966E-06,4.74609375,0,0
-2.23519291466801E-05,1.32057002701913E-05,4.74609375,0,0
-1.84181826625718E-05,1.34965039251256E-05,4.74609375,0,0
-2.37836084124865E-05,1.51964795804815E-05,4.74609375,0,0
-1.92562274605734E-05,1.39975809361204E-05,4.74609375,0,0
-1.95658230950357E-05,1.41244099722826E-05,4.74609375,0,0
-1.63479180628201E-05,1.21248149298481E-05,4.74609375,0,0
-1.80984134203754E-05,1.10333457996603E-05,4.74609375,0,0
-1.89121747098397E-05,7.86043165135197E-06,4.74609375,0,0
-1.86770630534738E-05,5.36302923137555E-06,4.74609375,0,0
-1.80348706635414E-05,3.81581321562408E-06,4.74609375,0,0
-1.82950188900577E-05,2.14799479181238E-06,4.74609375,0,0
-2.13382845686283E-05,1.66110237387329E-06,4.74609375,0,0
-2.22507787839277E-05,2.33214768741163E-06,4.74609375,0,0
-2.3202979718917E-05,5.3279422900232E-06,4.74609375,0,0
-2.18675322685158E-05,7.64669948694063E-06,4.74609375,0,0
-2.26002994168084E-05,9.38615721679525E-06,4.74609375,0,0
-2.09736899705604E-05,9.29374982661102E-06,4.74609375,0,0
-2.06698168767616E-05,9.90942407952389E-06,4.74609375,0,0
-1.99309943127446E-05,1.14757312985603E-05,4.74609375,0,0
-2.18637214857154E-05,1.38888726723962E-05,4.74609375,0,0
-2.27346008614404E-05,1.32106642922736E-05,4.74609375,0,0
-2.34923427342437E-05,1.01978803286329E-05,4.74609375,0,0
-2.28055323532317E-05,5.62909963264246E-06,4.74609375,0,0
-2.25354015128687E-05,1.54473241309461E-06,4.74609375,0,0
-2.28493099712068E-05,1.11103281597025E-06,4.74609375,0,0
-2.36681644310011E-05,4.48611399406218E-06,4.74609375,0,0
-1.92064435395878E-05,7.23078755981987E-06,4.74609375,0,0
-2.74074627668597E-05,1.27384719235124E-05,4.74609375,0,0
-2.11228398256935E-05,1.13340765892644E-05,4.74609375,0,0
-2.59715470747324E-05,1.06695561044035E-05,4.74609375,0,0
-2.24463783524698E-05,8.62846809468465E-06,4.74609375,0,0
-2.5934930818039E-05,1.09984321170487E-05,4.74609375,0,0
-2.34130329772597E-05,1.20071135825128E-05,4.74609375,0,0
-2.44067559833638E-05,1.16701221486437E-05,4.74609375,0,0
-2.49523254751693E-05,9.94194761005929E-06,4.74609375,0,0
-2.61803033936303E-05,9.42278620641446E-06,4.74609375,0,0
-2.6431298465468E-05,1.13310106826248E-05,4.74609375,0,0
-2.46283361775568E-05,1.33190442284103E-05,4.74609375,0,0
-2.48016476689372E-05,1.2800689546566E-05,4.74609375,0,0
-2.41800262301695E-05,7.98173277871683E-06,4.74609375,0,0
-2.59635853581131E-05,4.35169886259246E-06,4.74609375,0,0
-2.56140847341158E-05,4.92746221425477E-06,4.74609375,0,0
-2.76181053777691E-05,9.22631988942157E-06,4.74609375,0,0
-2.77138533419929E-05,1.14014274004148E-05,4.74609375,0,0
-2.92160093522398E-05,1.00620345619973E-05,4.74609375,0,0
-2.86445374513278E-05,6.81523079038016E-06,4.74609375,0,0
-2.90486132143997E-05,6.97033874530462E-06,4.74609375,0,0
-2.71395765594207E-05,9.85819315246772E-06,4.74609375,0,0
-2.62128432950703E-05,1.14190615931875E-05,4.74609375,0,0
-2.55255999945803E-05,9.9059443527949E-06,4.74609375,0,0
-2.55983723036479E-05,8.74490069691092E-06,4.74609375,0,0
-2.53676244028611E-05,8.57088889461011E-06,4.74609375,0,0
-2.58802356256638E-05,8.53924666444073E-06,4.74609375,0,0
-2.19255525735207E-05,7.89913246990182E-06,4.74609375,0,0
-3.16757541440893E-05,1.2141082152084E-05,4.74609375,0,0
-2.52748850471107E-05,8.24918606667779E-06,4.74609375,0,0
-3.10382747557014E-05,7.66129051044118E-06,4.74609375,0,0
-2.59383577940753E-05,6.63109676679596E-06,4.74609375,0,0
-2.85784080915619E-05,9.65090930549195E-06,4.74609375,0,0
-2.65262297034496E-05,9.0998810264864E-06,4.74609375,0,0
-2.90787229459966E-05,7.97980374045437E-06,4.74609375,0,0
-2.85957485175459E-05,8.03010334493592E-06,4.74609375,0,0
-2.76840728474781E-05,1.00374863905017E-05,4.74609375,0,0
-2.68475032498827E-05,1.16493229143089E-05,4.74609375,0,0
-2.54183614742942E-05,1.10254395622178E-05,4.74609375,0,0
-2.65124763245694E-05,1.03547872640775E-05,4.74609375,0,0
-2.63323890976608E-05,9.91697743302211E-06,4.74609375,0,0
-2.83584504359169E-05,1.14633648991003E-05,4.74609375,0,0
-2.610564843053E-05,1.25166070574778E-05,4.74609375,0,0
-2.49848344537895E-05,1.34216261358233E-05,4.74609375,0,0
-2.29656998271821E-05,1.34157826323644E-05,4.74609375,0,0
-2.3816299290047E-05,1.49284351209644E-05,4.74609375,0,0
-2.1813857529196E-05,1.61844927788479E-05,4.74609375,0,0
-2.24315517698415E-05,1.61611114890547E-05,4.74609375,0,0
-2.33031023526564E-05,1.4489491150016E-05,4.74609375,0,0
-2.45900973823154E-05,1.33513922264683E-05,4.74609375,0,0
-2.37877447943902E-05,1.28155570564559E-05,4.74609375,0,0
-2.38140637520701E-05,1.36781945911935E-05,4.74609375,0,0
-2.35948937188368E-05,1.39624899020419E-05,4.74609375,0,0
-2.36714167840546E-05,1.32955574372318E-05,4.74609375,0,0
-1.93581727216952E-05,9.92989316728199E-06,4.74609375,0,0
-2.70588661805959E-05,1.41368254844565E-05,4.74609375,0,0
-2.06496042665094E-05,1.10086248241714E-05,4.74609375,0,0
-2.60929882642813E-05,1.45193916978315E-05,4.74609375,0,0
-2.09729441849049E-05,1.44367686516489E-05,4.74609375,0,0
-2.15186373679899E-05,1.74026827153284E-05,4.74609375,0,0
-1.83451647899346E-05,1.55428388097789E-05,4.74609375,0,0
-2.03303388843779E-05,1.46840011439053E-05,4.74609375,0,0
-2.22335984290112E-05,1.2948004041391E-05,4.74609375,0,0
-2.42351652559591E-05,1.19765118142823E-05,4.74609375,0,0
-2.42828446062049E-05,1.19684900710126E-05,4.74609375,0,0
-2.2716023522662E-05,1.14828080768348E-05,4.74609375,0,0
-2.28118551603984E-05,1.20228423838853E-05,4.74609375,0,0
-2.14043866435532E-05,1.27030561998254E-05,4.74609375,0,0
-2.20984784391476E-05,1.45135245475103E-05,4.74609375,0,0
-2.01979146368103E-05,1.4613923667639E-05,4.74609375,0,0
-2.0638730347855E-05,1.54188219312346E-05,4.74609375,0,0
-2.01338807528373E-05,1.50242558447644E-05,4.74609375,0,0
-2.1705654944526E-05,1.52737011376303E-05,4.74609375,0,0
-2.01844977709698E-05,1.37710403578239E-05,4.74609375,0,0
-2.00947779376293E-05,1.21009370559477E-05,4.74609375,0,0
-2.06498771149199E-05,1.02487329058931E-05,4.74609375,0,0
-2.31614285439719E-05,1.14153399408679E-05,4.74609375,0,0
-2.35156021517469E-05,1.28801275423029E-05,4.74609375,0,0
-2.34188864851603E-05,1.23934432849637E-05,4.74609375,0,0
-2.31639241974335E-05,1.0196629773418E-05,4.74609375,0,0
-2.34167509916006E-05,8.60914042277727E-06,4.74609375,0,0
-1.85252611117903E-05,7.50137314753374E-06,4.74609375,0,0
-2.48624201049097E-05,1.16813498607371E-05,4.74609375,0,0
-1.65757810464129E-05,1.00328197731869E-05,4.74609375,0,0
-2.17222550418228E-05,1.26974991871975E-05,4.74609375,0,0
-2.01819839276141E-05,1.13475998659851E-05,4.74609375,0,0
-2.51365217991406E-05,1.15920947791892E-05,4.74609375,0,0
-2.3486763893743E-05,1.11921690404415E-05,4.74609375,0,0
-2.48497090069577E-05,1.11924255179474E-05,4.74609375,0,0
-2.57673273154069E-05,1.01024716059328E-05,4.74609375,0,0
-2.6724435883807E-05,9.65553044807166E-06,4.74609375,0,0
-2.67578107013833E-05,1.17652634799015E-05,4.74609375,0,0
-2.49783770414069E-05,1.4315363841888E-05,4.74609375,0,0
-2.5271230697399E-05,1.54470289999153E-05,4.74609375,0,0
-2.42338428506628E-05,1.40060283229104E-05,4.74609375,0,0
-2.4201146516134E-05,1.25477936308016E-05,4.74609375,0,0
-2.20615002035629E-05,1.11174767880584E-05,4.74609375,0,0
-2.27984710363671E-05,1.17049476102693E-05,4.74609375,0,0
-2.17290762520861E-05,1.21872553791036E-05,4.74609375,0,0
-2.23888255277416E-05,1.29879081214312E-05,4.74609375,0,0
-2.22347207454732E-05,1.3412886801234E-05,4.74609375,0,0
-2.4321276214323E-05,1.36747503347578E-05,4.74609375,0,0
-2.54194292210741E-05,1.31752813103958E-05,4.74609375,0,0
-2.63716319750529E-05,1.31696033349726E-05,4.74609375,0,0
-2.5020864995895E-05,1.22573419503169E-05,4.74609375,0,0
-2.51205146923894E-05,1.15618686322705E-05,4.74609375,0,0
-2.66796159849036E-05,1.11883136924007E-05,4.74609375,0,0
-2.91872893285472E-05,9.64017817750573E-06,4.74609375,0,0
-2.46319705183851E-05,5.71800546822487E-06,4.74609375,0,0
-3.293191184639E-05,8.12990401755087E-06,4.74609375,0,0
-2.02162591449451E-05,7.3294245339639E-06,4.74609375,0,0
-2.51393339567585E-05,1.01422283478314E-05,4.74609375,0,0
-2.14803840208333E-05,9.15122745936969E-06,4.74609375,0,0
-2.61411023529945E-05,9.35129264689749E-06,4.74609375,0,0
-2.47193147515645E-05,8.62184515426634E-06,4.74609375,0,0
-2.73328205366852E-05,1.01181267382344E-05,4.74609375,0,0
-2.63263773376821E-05,9.75982220552396E-06,4.74609375,0,0
-2.56168550549774E-05,8.9056102297036E-06,4.74609375,0,0
-2.58965046668891E-05,7.91537968325429E-06,4.74609375,0,0
-2.53231883107219E-05,7.91484217188554E-06,4.74609375,0,0
-2.53295020229416E-05,9.57907741394592E-06,4.74609375,0,0
-2.27498130698223E-05,1.06936995507567E-05,4.74609375,0,0
-2.43945469264872E-05,1.20532431537868E-05,4.74609375,0,0
-2.47255757130915E-05,1.15993798317504E-05,4.74609375,0,0
-2.76529026450589E-05,1.09516904558404E-05,4.74609375,0,0
-2.71598146355245E-05,9.11397000891156E-06,4.74609375,0,0
-2.75471757049672E-05,8.13238693808671E-06,4.74609375,0,0
-2.49226723099127E-05,7.65118056733627E-06,4.74609375,0,0
-2.48233463935321E-05,8.66555728862295E-06,4.74609375,0,0
-2.41579455177998E-05,9.07832691154908E-06,4.74609375,0,0
-2.58354339166544E-05,1.03876172943274E-05,4.74609375,0,0
-2.63478450506227E-05,1.17997606139397E-05,4.74609375,0,0
-2.70581240329193E-05,1.1852668649226E-05,4.74609375,0,0
-2.65790167759405E-05,1.03680986285326E-05,4.74609375,0,0
-2.64187056018272E-05,9.22852632356808E-06,4.74609375,0,0
-2.13926650758367E-05,7.75957960286178E-06,4.74609375,0,0
-2.89172021439299E-05,1.05039644040517E-05,4.74609375,0,0
-2.05683591048E-05,6.88557838657289E-06,4.74609375,0,0
-2.79813666566042E-05,8.97398331289878E-06,4.74609375,0,0
-2.44643524638377E-05,9.03509408090031E-06,4.74609375,0,0
-2.59162079601083E-05,1.12921525214915E-05,4.74609375,0,0
-2.18940622289665E-05,1.07675568870036E-05,4.74609375,0,0
-2.32688307733042E-05,1.14764907266363E-05,4.74609375,0,0
-2.48320211539976E-05,1.0181683137489E-05,4.74609375,0,0
-2.67005689238431E-05,7.75299758970505E-06,4.74609375,0,0
-2.7649337425828E-05,5.62927607461461E-06,4.74609375,0,0
-2.6613293812261E-05,5.05616662849206E-06,4.74609375,0,0
-2.71919489023276E-05,6.33334366284544E-06,4.74609375,0,0
-2.61277546087513E-05,6.38609662928502E-06,4.74609375,0,0
-2.66153274424141E-05,5.52449000679189E-06,4.74609375,0,0
-2.38594984693918E-05,3.61998809239594E-06,4.74609375,0,0
-2.3697499273112E-05,4.60502451460343E-06,4.74609375,0,0
-2.26029460463906E-05,6.39440077065956E-06,4.74609375,0,0
-2.53137768595479E-05,8.46976490720408E-06,4.74609375,0,0
-2.67266532318899E-05,7.68898553360486E-06,4.74609375,0,0
-2.818201755872E-05,7.73979718360351E-06,4.74609375,0,0
-2.64066256931983E-05,9.43571831157897E-06,4.74609375,0,0
-2.51260862569325E-05,1.19201513371081E-05,4.74609375,0,0
-2.48318119702162E-05,1.23640747915488E-05,4.74609375,0,0
-2.64662085101008E-05,1.1973429536738E-05,4.74609375,0,0
-2.68368585238932E-05,1.19344658742193E-05,4.74609375,0,0
-2.57813444477506E-05,1.26338964037132E-05,4.74609375,0,0
-1.92193783732364E-05,1.02036156022223E-05,4.74609375,0,0
-2.58165600826032E-05,1.37318920678808E-05,4.74609375,0,0
-1.85918597708223E-05,1.05422814158374E-05,4.74609375,0,0
-2.49994409387E-05,1.49125635289238E-05,4.74609375,0,0
-2.16078151424881E-05,1.30506805362529E-05,4.74609375,0,0
-2.36102077906253E-05,1.37711485876935E-05,4.74609375,0,0
-2.09039590117754E-05,1.21499497254263E-05,4.74609375,0,0
-2.17241886275588E-05,1.15542543426272E-05,4.74609375,0,0
-2.0375153326313E-05,8.61765329318587E-06,4.74609375,0,0
-2.07983266591327E-05,7.58281703383545E-06,4.74609375,0,0
-2.28000644710846E-05,8.12299913377501E-06,4.74609375,0,0
-2.41299439949216E-05,8.28023985377513E-06,4.74609375,0,0
-2.59659482253483E-05,8.96462552191224E-06,4.74609375,0,0
-2.52962090598885E-05,8.89104831003351E-06,4.74609375,0,0
-2.70271575573133E-05,1.02612584669259E-05,4.74609375,0,0
-2.63062211161014E-05,1.04884265965666E-05,4.74609375,0,0
-2.66643310169457E-05,1.10936971395859E-05,4.74609375,0,0
-2.47550051426515E-05,9.64181617746362E-06,4.74609375,0,0
-2.48185442615068E-05,1.00814113466186E-05,4.74609375,0,0
-2.29070319619495E-05,1.03766424217611E-05,4.74609375,0,0
-2.36344712902792E-05,1.23444197015488E-05,4.74609375,0,0
-2.40671161009232E-05,1.41151358548086E-05,4.74609375,0,0
-2.44968268816592E-05,1.50782352648093E-05,4.74609375,0,0
-2.30834575631889E-05,1.37854649437941E-05,4.74609375,0,0
-2.33531645790208E-05,1.25967289932305E-05,4.74609375,0,0
-2.33754017244792E-05,1.2544651326607E-05,4.74609375,0,0
-2.35470306506613E-05,1.39408748509595E-05,4.74609375,0,0
-1.83887950697681E-05,1.23946674648323E-05,4.74609375,0,0
-2.5328052288387E-05,1.57609702000627E-05,4.74609375,0,0
-1.85188018804183E-05,1.00000888778595E-05,4.74609375,0,0
-2.42317528318381E-05,1.4801652469032E-05,4.74609375,0,0
-2.01065176952397E-05,1.43323131851503E-05,4.74609375,0,0
-2.20642741624033E-05,1.67011912708404E-05,4.74609375,0,0
-2.1294605176081E-05,1.46601851156447E-05,4.74609375,0,0
-2.32496295211604E-05,1.54160243255319E-05,4.74609375,0,0
-2.25542189582484E-05,1.52091652125819E-05,4.74609375,0,0
-2.24108189286198E-05,1.47385890159057E-05,4.74609375,0,0
-2.30721379921306E-05,1.36486651172163E-05,4.74609375,0,0
-2.33965492952848E-05,1.13223131847917E-05,4.74609375,0,0
-2.46167819568655E-05,1.08933509181952E-05,4.74609375,0,0
-2.33842602028744E-05,1.09287011582637E-05,4.74609375,0,0
-2.42325804720167E-05,1.31945771499886E-05,4.74609375,0,0
-2.37581080000382E-05,1.3314751413418E-05,4.74609375,0,0
-2.59479420492426E-05,1.29703321363195E-05,4.74609375,0,0
-2.61867407971295E-05,9.87015300779603E-06,4.74609375,0,0
-2.71531480393605E-05,9.32558032218367E-06,4.74609375,0,0
-2.53357793553732E-05,9.30823262024205E-06,4.74609375,0,0
-2.47174812102458E-05,1.04479840956628E-05,4.74609375,0,0
-2.42755013459828E-05,1.03720149127184E-05,4.74609375,0,0
-2.58155359915691E-05,1.16521896416089E-05,4.74609375,0,0
-2.57682240771828E-05,1.44303858178318E-05,4.74609375,0,0
-2.48363376158522E-05,1.6766476619523E-05,4.74609375,0,0
-2.40187528106617E-05,1.47680129884975E-05,4.74609375,0,0
-2.48414307861822E-05,1.16085875561112E-05,4.74609375,0,0
-2.11074020626256E-05,8.59723604662577E-06,4.74609375,0,0
-3.02530024782754E-05,1.30927501231781E-05,4.74609375,0,0
-2.17289725696901E-05,9.12745053938124E-06,4.74609375,0,0
-2.50290195253911E-05,7.90487774793291E-06,4.74609375,0,0
-2.06229251489276E-05,4.75497927254764E-06,4.74609375,0,0
-2.40245080931345E-05,6.56333577353507E-06,4.74609375,0,0
-2.12487575481646E-05,5.50537697563414E-06,4.74609375,0,0
-2.14279552892549E-05,4.17335149904829E-06,4.74609375,0,0
-2.05741216632305E-05,4.6568738980568E-06,4.74609375,0,0
-2.13924195122672E-05,7.04597732692491E-06,4.74609375,0,0
-2.21013269765535E-05,9.21429182199063E-06,4.74609375,0,0
-2.09106365218759E-05,9.94213132798905E-06,4.74609375,0,0
-2.1397232558229E-05,1.04754053609213E-05,4.74609375,0,0
-2.02703395189019E-05,9.58858981903177E-06,4.74609375,0,0
-2.09170593734598E-05,8.51227014209144E-06,4.74609375,0,0
-1.87416371772997E-05,7.27623364582541E-06,4.74609375,0,0
-1.94611639017239E-05,7.99253393779509E-06,4.74609375,0,0
-1.95758075278718E-05,8.29889359010849E-06,4.74609375,0,0
-2.21019763557706E-05,9.06440254766494E-06,4.74609375,0,0
-2.17271790461382E-05,9.33591763896402E-06,4.74609375,0,0
-2.24423383770045E-05,1.01205541795935E-05,4.74609375,0,0
-2.13578878174303E-05,1.03585680335527E-05,4.74609375,0,0
-2.08834953809856E-05,1.13917885755654E-05,4.74609375,0,0
-1.99000605789479E-05,1.36410790219088E-05,4.74609375,0,0
-1.98182369786082E-05,1.59766477736412E-05,4.74609375,0,0
-2.10868165595457E-05,1.6108217096189E-05,4.74609375,0,0
-2.35419011005433E-05,1.43146498885471E-05,4.74609375,0,0
-2.13857256312622E-05,9.3984399427427E-06,4.74609375,0,0
-3.08954950014595E-05,1.22966239359812E-05,4.74609375,0,0
-2.30471323448E-05,9.41257076192414E-06,4.74609375,0,0
-2.65077578660566E-05,1.27186531244661E-05,4.74609375,0,0
-2.12983413803158E-05,1.03025195130613E-05,4.74609375,0,0
-2.38383308897028E-05,1.32754912556265E-05,4.74609375,0,0
-2.14252413570648E-05,1.43599481816636E-05,4.74609375,0,0
-2.30398145504296E-05,1.63358927238733E-05,4.74609375,0,0
-2.23856113734655E-05,1.66776426340221E-05,4.74609375,0,0
-2.26883239520248E-05,1.60098952619592E-05,4.74609375,0,0
-2.37953881878639E-05,1.39626281452365E-05,4.74609375,0,0
-2.4095170374494E-05,1.15611710498342E-05,4.74609375,0,0
-2.53618418355472E-05,1.13033347588498E-05,4.74609375,0,0
-2.34750823437935E-05,1.11841127363732E-05,4.74609375,0,0
-2.37023050431162E-05,1.210042682942E-05,4.74609375,0,0
-2.28829812840559E-05,1.11382914838032E-05,4.74609375,0,0
-2.48635005846154E-05,1.06309380498715E-05,4.74609375,0,0
-2.35908628383186E-05,9.51829952100525E-06,4.74609375,0,0
-2.42283258558018E-05,1.00905363069614E-05,4.74609375,0,0
-2.44048205786385E-05,9.13698477233993E-06,4.74609375,0,0
-2.7151621907251E-05,8.01311853138031E-06,4.74609375,0,0
-2.75432830676436E-05,6.38344545222935E-06,4.74609375,0,0
-2.78839834209066E-05,7.24232950233272E-06,4.74609375,0,0
-2.7090283765574E-05,9.06902278074995E-06,4.74609375,0,0
-2.62465582636651E-05,1.01625391835114E-05,4.74609375,0,0
-2.44389557337854E-05,8.60932141222293E-06,4.74609375,0,0
-2.37624899455113E-05,6.11267205385957E-06,4.74609375,0,0
-2.00306185433874E-05,4.92986828248831E-06,4.74609375,0,0
-2.86919548670994E-05,9.43678514886415E-06,4.74609375,0,0
-2.18276381929172E-05,9.59625413088361E-06,4.74609375,0,0
-2.62837111222325E-05,1.08584863482974E-05,4.74609375,0,0
-2.15109921555268E-05,1.23446025099838E-05,4.74609375,0,0
-2.3701582904323E-05,1.44906671266654E-05,4.74609375,0,0
-2.10978651011828E-05,1.36290955197182E-05,4.74609375,0,0
-2.25575568038039E-05,1.22140208986821E-05,4.74609375,0,0
-2.28052213060437E-05,1.07657979242504E-05,4.74609375,0,0
-2.25144049181836E-05,1.05421386251692E-05,4.74609375,0,0
-2.21282462007366E-05,1.14423628474469E-05,4.74609375,0,0
-2.0955441868864E-05,1.1826392437797E-05,4.74609375,0,0
-2.11293263419066E-05,1.24074203995406E-05,4.74609375,0,0
-1.99440437427256E-05,1.18565931188641E-05,4.74609375,0,0
-2.15687578020152E-05,1.09911543404451E-05,4.74609375,0,0
-2.08547116926638E-05,1.06049710666412E-05,4.74609375,0,0
-2.14276406040881E-05,1.08700987766497E-05,4.74609375,0,0
-1.99938658624887E-05,1.04761111288099E-05,4.74609375,0,0
-2.06689346669009E-05,1.06874113043887E-05,4.74609375,0,0
-2.00409722310724E-05,1.13007899926743E-05,4.74609375,0,0
-2.13193052331917E-05,1.16620594781125E-05,4.74609375,0,0
-2.09807712963084E-05,1.06876050267601E-05,4.74609375,0,0
-2.19185803871369E-05,1.04791261037462E-05,4.74609375,0,0
-2.24409686779836E-05,1.05941253423225E-05,4.74609375,0,0
-2.36450905504171E-05,1.01174446172081E-05,4.74609375,0,0
-2.39085147768492E-05,1.06231009340263E-05,4.74609375,0,0
-2.41797351918649E-05,1.23194904517732E-05,4.74609375,0,0
-2.05662963708164E-05,1.100439021684E-05,4.74609375,0,0
-2.75010661425767E-05,1.49085790326353E-05,4.74609375,0,0
-1.79032194864703E-05,1.0146941349376E-05,4.74609375,0,0
-2.39032597164623E-05,1.1469212040538E-05,4.74609375,0,0
-2.3120672267396E-05,6.25849907009979E-06,4.74609375,0,0
-2.8084254154237E-05,6.5684021137713E-06,4.74609375,0,0
-2.53011749009602E-05,5.80384858039906E-06,4.74609375,0,0
-2.54672886512708E-05,7.04906369719538E-06,4.74609375,0,0
-2.42155765590724E-05,6.58415956422687E-06,4.74609375,0,0
-2.40738499996951E-05,6.86436305841198E-06,4.74609375,0,0
-2.49632357736118E-05,8.16366900835419E-06,4.74609375,0,0
-2.58460859186016E-05,9.01150542631513E-06,4.74609375,0,0
-2.83991103060544E-05,1.03860247691046E-05,4.74609375,0,0
-2.84708967228653E-05,1.0271794963046E-05,4.74609375,0,0
-3.02771713904804E-05,9.84025609795935E-06,4.74609375,0,0
-2.84136294794735E-05,7.02815304975957E-06,4.74609375,0,0
-2.78699135378702E-05,6.9156435529294E-06,4.74609375,0,0
-2.58490290434565E-05,7.99438203102909E-06,4.74609375,0,0
-2.7034169761464E-05,1.09645989141427E-05,4.74609375,0,0
-2.64494919974823E-05,1.10714254333288E-05,4.74609375,0,0
-2.60415163211292E-05,1.05157660073019E-05,4.74609375,0,0
-2.36308187595569E-05,1.0012691745942E-05,4.74609375,0,0
-2.39602886722423E-05,1.04406781247235E-05,4.74609375,0,0
-2.4420811314485E-05,1.03577340269112E-05,4.74609375,0,0
-2.43683971348219E-05,1.14461918201414E-05,4.74609375,0,0
-2.27447599172592E-05,1.33811672640149E-05,4.74609375,0,0
-2.16487533180043E-05,1.52311968122376E-05,4.74609375,0,0
-1.73107018781593E-05,1.23966865430702E-05,4.74609375,0,0
-2.48201940848958E-05,1.60234922077507E-05,4.74609375,0,0
-1.96371838683262E-05,1.01278355941758E-05,4.74609375,0,0
-2.55671075137798E-05,1.29039135572384E-05,4.74609375,0,0
-2.37245312746381E-05,9.6118965302594E-06,4.74609375,0,0
-2.62552057392895E-05,1.17816880447208E-05,4.74609375,0,0
-2.44716356974095E-05,1.10268392745638E-05,4.74609375,0,0
-2.65123780991416E-05,1.00036113508395E-05,4.74609375,0,0
-2.64951977442252E-05,6.38365827398957E-06,4.74609375,0,0
-2.61671248154016E-05,5.28840746483183E-06,4.74609375,0,0
-2.59488970186794E-05,6.95867083777557E-06,4.74609375,0,0
-2.56138428085251E-05,7.98266137280734E-06,4.74609375,0,0
-2.74185113084968E-05,8.25543156679487E-06,4.74609375,0,0
-2.82908640656387E-05,6.2397816691373E-06,4.74609375,0,0
-2.9900147637818E-05,5.88403509027557E-06,4.74609375,0,0
-2.77443268714705E-05,5.02534021507017E-06,4.74609375,0,0
-2.68747899099253E-05,6.8705257945112E-06,4.74609375,0,0
-2.55023915087804E-05,8.29763757792534E-06,4.74609375,0,0
-2.70875152637018E-05,1.02726553450339E-05,4.74609375,0,0
-2.69955799012678E-05,1.0051224307972E-05,4.74609375,0,0
-2.74192916549509E-05,1.11959343485069E-05,4.74609375,0,0
-2.58082309301244E-05,1.23835916383541E-05,4.74609375,0,0
-2.50889988819836E-05,1.3638476957567E-05,4.74609375,0,0
-2.47212537942687E-05,1.35453483380843E-05,4.74609375,0,0
-2.54867918556556E-05,1.43420365930069E-05,4.74609375,0,0
-2.620576924528E-05,1.36830703922897E-05,4.74609375,0,0
-2.65807702817256E-05,1.23022364277858E-05,4.74609375,0,0
-2.04220996238291E-05,1.00933993962826E-05,4.74609375,0,0
-2.81072843790753E-05,1.58804814418545E-05,4.74609375,0,0
-2.12925169762457E-05,1.38538780447561E-05,4.74609375,0,0
-2.8216225473443E-05,1.41240325319814E-05,4.74609375,0,0
-2.35451097978512E-05,8.81740288605215E-06,4.74609375,0,0
-2.57166393566877E-05,8.70121129992185E-06,4.74609375,0,0
-2.41820416704286E-05,7.50954814066063E-06,4.74609375,0,0
-2.63614638242871E-05,7.89659588917857E-06,4.74609375,0,0
-2.57469127973309E-05,7.5562957135844E-06,4.74609375,0,0
-2.48414999077795E-05,7.79915626480943E-06,4.74609375,0,0
-2.44016537180869E-05,8.34287857287563E-06,4.74609375,0,0
-2.33750761253759E-05,8.07732249086257E-06,4.74609375,0,0
-2.30615642067278E-05,7.93816798250191E-06,4.74609375,0,0
-1.99578898900654E-05,7.45877377994475E-06,4.74609375,0,0
-2.04493953788187E-05,7.87646422395483E-06,4.74609375,0,0
-2.11961360037094E-05,6.9167203946563E-06,4.74609375,0,0
-2.37944532273104E-05,7.3493038144079E-06,4.74609375,0,0
-2.21255340875359E-05,7.38241487852065E-06,4.74609375,0,0
-2.15971285797423E-05,9.42555925576016E-06,4.74609375,0,0
-1.99441747099627E-05,1.16890787467128E-05,4.74609375,0,0
-2.07002540264511E-05,1.48927101690788E-05,4.74609375,0,0
-1.95451921172207E-05,1.61592306540115E-05,4.74609375,0,0
-1.91177678061649E-05,1.52398324644309E-05,4.74609375,0,0
-1.88943231478333E-05,1.28461333588348E-05,4.74609375,0,0
-2.03435211005853E-05,1.19422657007817E-05,4.74609375,0,0
-2.10249672818463E-05,1.11844128696248E-05,4.74609375,0,0
-2.20925830944907E-05,9.63472029980039E-06,4.74609375,0,0
-1.92117240658263E-05,6.68676329951268E-06,4.74609375,0,0
-2.66118167928653E-05,9.86165832728148E-06,4.74609375,0,0
-1.89729435078334E-05,8.95285120350309E-06,4.74609375,0,0
-2.37984058912843E-05,1.28297751871287E-05,4.74609375,0,0
-2.05251981242327E-05,1.39295634653536E-05,4.74609375,0,0
-2.41797388298437E-05,1.5739777154522E-05,4.74609375,0,0
-2.30681780521991E-05,1.30202442960581E-05,4.74609375,0,0
-2.38101019931491E-05,1.08163449112908E-05,4.74609375,0,0
-2.23108309000963E-05,1.02218446045299E-05,4.74609375,0,0
-2.16305452340748E-05,1.12323887151433E-05,4.74609375,0,0
-2.22143225983018E-05,1.12395728137926E-05,4.74609375,0,0
-2.34841954807052E-05,1.06549096017261E-05,4.74609375,0,0
-2.62091070908355E-05,1.16463261292665E-05,4.74609375,0,0
-2.68289222731255E-05,1.11540293801227E-05,4.74609375,0,0
-2.88381106656743E-05,1.06567094917409E-05,4.74609375,0,0
-2.78294992313022E-05,1.01017822089489E-05,4.74609375,0,0
-2.82230412267381E-05,1.0530431609368E-05,4.74609375,0,0
-2.65817088802578E-05,9.98178256850224E-06,4.74609375,0,0
-2.76106729870662E-05,1.0609292985464E-05,4.74609375,0,0
-2.7449199478724E-05,1.20766535474104E-05,4.74609375,0,0
-2.86536669591442E-05,1.35891077661654E-05,4.74609375,0,0
-2.82547025562963E-05,1.22553028631955E-05,4.74609375,0,0
-2.89638228423428E-05,1.05674098449526E-05,4.74609375,0,0
-2.78039351542247E-05,1.04024829852278E-05,4.74609375,0,0
-2.67239392996999E-05,1.25486940305564E-05,4.74609375,0,0
-2.63197089225287E-05,1.45621843330446E-05,4.74609375,0,0
-2.54483165917918E-05,1.35830050567165E-05,4.74609375,0,0
-2.08385354198981E-05,8.30160024634097E-06,4.74609375,0,0
-2.99928396998439E-05,1.10207010948216E-05,4.74609375,0,0
-2.22632024815539E-05,1.0249196748191E-05,4.74609375,0,0
-2.59912685578456E-05,1.71710180438822E-05,4.74609375,0,0
-2.03501294890884E-05,1.72750387719134E-05,4.74609375,0,0
-2.27778764383402E-05,1.72850468516117E-05,4.74609375,0,0
-2.15711261262186E-05,1.49607622006442E-05,4.74609375,0,0
-2.25096246140311E-05,1.6185746062547E-05,4.74609375,0,0
-2.03656727535417E-05,1.6775162293925E-05,4.74609375,0,0
-1.88778212759644E-05,1.7034975826391E-05,4.74609375,0,0
-1.78289574250812E-05,1.55552552314475E-05,4.74609375,0,0
-1.65599049068987E-05,1.32542782012024E-05,4.74609375,0,0
-1.78884711203864E-05,1.28120045701507E-05,4.74609375,0,0
-1.74269771378022E-05,1.2617657375813E-05,4.74609375,0,0
-1.85175740625709E-05,1.37195329443784E-05,4.74609375,0,0
-1.78880873136222E-05,1.37282040668651E-05,4.74609375,0,0
-2.01242764887866E-05,1.46242891787551E-05,4.74609375,0,0
-2.02048813662259E-05,1.38405493999016E-05,4.74609375,0,0
-2.18929744733032E-05,1.39350677272887E-05,4.74609375,0,0
-2.06493477890035E-05,1.3850688446837E-05,4.74609375,0,0
-2.03893359866925E-05,1.48206372614368E-05,4.74609375,0,0
-1.90153768926393E-05,1.44818450280582E-05,4.74609375,0,0
-1.95207376236795E-05,1.32621053126059E-05,4.74609375,0,0
-2.01863094844157E-05,1.11180934254662E-05,4.74609375,0,0
-2.18435925489757E-05,1.02327494460042E-05,4.74609375,0,0
-2.3366606910713E-05,1.02408912425744E-05,4.74609375,0,0
-2.32702004723251E-05,1.00687357189599E-05,4.74609375,0,0
-1.78454265551409E-05,8.18880289443769E-06,4.74609375,0,0
-2.62621106230654E-05,1.22477340482874E-05,4.74609375,0,0
-2.20567999349441E-05,1.10900082290755E-05,4.74609375,0,0
-2.69232568825828E-05,1.5330300811911E-05,4.74609375,0,0
-2.23242695938097E-05,1.50048726936802E-05,4.74609375,0,0
-2.58590171142714E-05,1.42054723255569E-05,4.74609375,0,0
-2.58517284237314E-05,9.98887844616547E-06,4.74609375,0,0
-2.79308806057088E-05,9.72050020209281E-06,4.74609375,0,0
-2.72881788987434E-05,1.07270607259125E-05,4.74609375,0,0
-2.66118113358971E-05,1.25586711874348E-05,4.74609375,0,0
-2.70346408797195E-05,1.33723015096621E-05,4.74609375,0,0
-2.65147773461649E-05,1.13542173494352E-05,4.74609375,0,0
-2.67239520326257E-05,1.08151216409169E-05,4.74609375,0,0
-2.53887719736667E-05,1.03317379398504E-05,4.74609375,0,0
-2.64584177784855E-05,9.95537720882567E-06,4.74609375,0,0
-2.57615101872943E-05,7.55556766307564E-06,4.74609375,0,0
-2.70875552814687E-05,7.10706581230625E-06,4.74609375,0,0
-2.69281881628558E-05,7.40432369639166E-06,4.74609375,0,0
-2.78728784905979E-05,7.89833302405896E-06,4.74609375,0,0
-2.58485088124871E-05,7.19060108167469E-06,4.74609375,0,0
-2.47784537350526E-05,7.99786812422099E-06,4.74609375,0,0
-2.33010705414927E-05,9.39239453146001E-06,4.74609375,0,0
-2.34725921473E-05,1.0508550076338E-05,4.74609375,0,0
-2.32779093494173E-05,9.97373354039155E-06,4.74609375,0,0
-2.37296990235336E-05,9.85868973657489E-06,4.74609375,0,0
-2.42693804466398E-05,1.03281126939692E-05,4.74609375,0,0
-2.43568701989716E-05,1.10423725345754E-05,4.74609375,0,0
-2.04289699468063E-05,9.93639696389437E-06,4.74609375,0,0
-3.00717310892651E-05,1.42607696034247E-05,4.74609375,0,0
-2.44175917032408E-05,9.94232414086582E-06,4.74609375,0,0
-3.03452725347597E-05,1.26530439956696E-05,4.74609375,0,0
-2.5718989490997E-05,1.22248366096755E-05,4.74609375,0,0
-2.71916615020018E-05,1.42694771056995E-05,4.74609375,0,0
-2.55304075835738E-05,1.37236384034622E-05,4.74609375,0,0
-2.80143285635859E-05,1.36722192110028E-05,4.74609375,0,0
-2.84742873191135E-05,1.22982928587589E-05,4.74609375,0,0
-2.91829728666926E-05,1.17775143735344E-05,4.74609375,0,0
-3.01211857731687E-05,1.18649031719542E-05,4.74609375,0,0
-3.07712289213669E-05,1.06881307146978E-05,4.74609375,0,0
-3.23466083500534E-05,9.02559077076148E-06,4.74609375,0,0
-3.07420741592068E-05,6.91246850692551E-06,4.74609375,0,0
-3.04113800666528E-05,7.11609618520015E-06,4.74609375,0,0
-2.83922272501513E-05,7.42634028938483E-06,4.74609375,0,0
-2.85003916360438E-05,9.05754313862417E-06,4.74609375,0,0
-2.56333587458357E-05,9.6701696747914E-06,4.74609375,0,0
-2.52092777373036E-05,9.42892165767262E-06,4.74609375,0,0
-2.41688067035284E-05,7.14620455255499E-06,4.74609375,0,0
-2.48384440055816E-05,6.75383762427373E-06,4.74609375,0,0
-2.33339687838452E-05,7.90335980127566E-06,4.74609375,0,0
-2.13483235711465E-05,9.80696404440096E-06,4.74609375,0,0
-1.85919816431124E-05,9.71580357145285E-06,4.74609375,0,0
-1.83847987500485E-05,8.86350426299032E-06,4.74609375,0,0
-1.91574454220245E-05,8.193275789381E-06,4.74609375,0,0
-2.08629335247679E-05,8.52462108014151E-06,4.74609375,0,0
-1.75720033439575E-05,7.91227648733184E-06,4.74609375,0,0
-2.36390224017669E-05,1.08119520518812E-05,4.74609375,0,0
-1.66208119480871E-05,6.86133398630773E-06,4.74609375,0,0
-2.15415293496335E-05,8.72497275850037E-06,4.74609375,0,0
-1.80284714588197E-05,8.35129321785644E-06,4.74609375,0,0
-2.07560642593307E-05,9.48119213717291E-06,4.74609375,0,0
-1.94415642909007E-05,8.13347833172884E-06,4.74609375,0,0
-2.14508199860575E-05,8.16703959571896E-06,4.74609375,0,0
-2.06026197702158E-05,7.82829647505423E-06,4.74609375,0,0
-1.9367209461052E-05,8.49941079650307E-06,4.74609375,0,0
-1.96179025806487E-05,9.89069758361438E-06,4.74609375,0,0
-2.12023496715119E-05,9.20959064387716E-06,4.74609375,0,0
-2.4668990590726E-05,7.31300178813399E-06,4.74609375,0,0
-2.52362951869145E-05,6.75703631713986E-06,4.74609375,0,0
-2.64572772721294E-05,9.80506774794776E-06,4.74609375,0,0
-2.50418106588768E-05,1.18200341603369E-05,4.74609375,0,0
-2.49702297878684E-05,1.31080005303374E-05,4.74609375,0,0
-2.22252110688714E-05,1.24479929581867E-05,4.74609375,0,0
-2.10356520256028E-05,1.23189001897117E-05,4.74609375,0,0
-1.91481831279816E-05,1.25121032397146E-05,4.74609375,0,0
-2.01840193767566E-05,1.38953628265881E-05,4.74609375,0,0
-1.95616212295135E-05,1.53273740579607E-05,4.74609375,0,0
-1.8578430172056E-05,1.59756964421831E-05,4.74609375,0,0
-1.63137428899063E-05,1.45151352626272E-05,4.74609375,0,0
-1.49934321598266E-05,1.40243564601406E-05,4.74609375,0,0
-1.54602803377202E-05,1.39319781737868E-05,4.74609375,0,0
-1.6585463527008E-05,1.27204111777246E-05,4.74609375,0,0
-1.25440938063548E-05,9.40707559493603E-06,4.74609375,0,0
-1.68652968568495E-05,1.39974472403992E-05,4.74609375,0,0
-1.21227330964757E-05,1.21555085570435E-05,4.74609375,0,0
-1.56373480422189E-05,1.57642134581693E-05,4.74609375,0,0
-1.3768173630524E-05,1.38599834826891E-05,4.74609375,0,0
-1.64245448104339E-05,1.35595128085697E-05,4.74609375,0,0
-1.51263047882821E-05,1.05766939668683E-05,4.74609375,0,0
-1.5724794138805E-05,9.14212068892084E-06,4.74609375,0,0
-1.51130243466469E-05,8.19059005152667E-06,4.74609375,0,0
-1.59242827066919E-05,9.87147541309241E-06,4.74609375,0,0
-1.67712369147921E-05,1.26266277220566E-05,4.74609375,0,0
-1.80209008249221E-05,1.37745082611218E-05,4.74609375,0,0
-2.17949509533355E-05,1.40737920446554E-05,4.74609375,0,0
-2.50670473178616E-05,1.29396876218379E-05,4.74609375,0,0
-2.97176538879285E-05,1.19247051770799E-05,4.74609375,0,0
-3.27965426549781E-05,9.18856221687747E-06,4.74609375,0,0
-3.79142438760027E-05,8.17638101580087E-06,4.74609375,0,0
-4.16647235397249E-05,7.92802893556654E-06,4.74609375,0,0
-4.51164087280631E-05,8.84258406586014E-06,4.74609375,0,0
-4.4884789531352E-05,7.59998010835261E-06,4.74609375,0,0
-4.38592905993573E-05,6.82930567563744E-06,4.74609375,0,0
-4.04075835831463E-05,7.2831512625271E-06,4.74609375,0,0
-3.68406726920512E-05,1.04557720987941E-05,4.74609375,0,0
-3.24080137943383E-05,1.29820482470677E-05,4.74609375,0,0
-2.9417302357615E-05,1.34408574012923E-05,4.74609375,0,0
-2.74211342912167E-05,1.14330696305842E-05,4.74609375,0,0
-2.60878714470891E-05,9.14136671781307E-06,4.74609375,0,0
-2.00015310838353E-05,7.359306437138E-06,4.74609375,0,0
-2.62225348706124E-05,1.05732606243691E-05,4.74609375,0,0
-1.74133856489789E-05,7.91069851402426E-06,4.74609375,0,0
-2.28187473112484E-05,8.70548592502018E-06,4.74609375,0,0
-1.77553920366336E-05,6.47551314614248E-06,4.74609375,0,0
-1.94063904928043E-05,8.07905598776415E-06,4.74609375,0,0
-1.56311962200562E-05,7.75826902099652E-06,4.74609375,0,0
-1.57517824845854E-05,7.07356548446114E-06,4.74609375,0,0
-1.53319651872152E-05,5.29576209373772E-06,4.74609375,0,0
-1.61148800543742E-05,5.20584126206813E-06,4.74609375,0,0
-1.58210332301678E-05,6.34542857369524E-06,4.74609375,0,0
-1.38811419674312E-05,7.15871010470437E-06,4.74609375,0,0
-1.36283051688224E-05,8.42867848405149E-06,4.74609375,0,0
-1.24623502415488E-05,9.83303743851138E-06,4.74609375,0,0
-1.48224507938721E-05,1.23483114293776E-05,4.74609375,0,0
-1.48420704135788E-05,1.22684041343746E-05,4.74609375,0,0
-1.7073560229619E-05,1.1126886420243E-05,4.74609375,0,0
-1.86331180884736E-05,9.62450212682597E-06,4.74609375,0,0
-2.35377792705549E-05,1.07693003883469E-05,4.74609375,0,0
-2.53981907007983E-05,1.26719978652545E-05,4.74609375,0,0
-2.7149309971719E-05,1.41748587338952E-05,4.74609375,0,0
-2.68845778919058E-05,1.30520775201148E-05,4.74609375,0,0
-2.76509617833653E-05,1.23579156934284E-05,4.74609375,0,0
-2.75244274234865E-05,1.29399350043968E-05,4.74609375,0,0
-2.81207558145979E-05,1.35335185404983E-05,4.74609375,0,0
-2.80010099231731E-05,1.20316553875455E-05,4.74609375,0,0
-2.80066760751652E-05,1.06138068076689E-05,4.74609375,0,0
-2.27463151531992E-05,8.30817134556128E-06,4.74609375,0,0
-3.16491277772002E-05,1.15382845251588E-05,4.74609375,0,0
-2.35605566558661E-05,9.75705825112527E-06,4.74609375,0,0
-3.01957061310532E-05,1.3200788089307E-05,4.74609375,0,0
-2.58846030192217E-05,9.1321999207139E-06,4.74609375,0,0
-2.83475910691777E-05,6.45307545710239E-06,4.74609375,0,0
-2.63615020230645E-05,5.36590550836991E-06,4.74609375,0,0
-3.02654334518593E-05,8.6956442828523E-06,4.74609375,0,0
-3.09681345243007E-05,9.44538533076411E-06,4.74609375,0,0
-3.02031512546819E-05,8.2308251876384E-06,4.74609375,0,0
-2.83912268059794E-05,7.19684976502322E-06,4.74609375,0,0
-2.68161766143749E-05,7.21736796549521E-06,4.74609375,0,0
-2.93033408524934E-05,9.46381533140084E-06,4.74609375,0,0
-3.029833715118E-05,1.13853302536882E-05,4.74609375,0,0
-3.232758899685E-05,1.18305079013226E-05,4.74609375,0,0
-2.99126040772535E-05,9.23061634239275E-06,4.74609375,0,0
-2.94533874694025E-05,8.24801190901781E-06,4.74609375,0,0
-2.77506223937962E-05,7.45676516089588E-06,4.74609375,0,0
-2.95774025289575E-05,7.86865984991891E-06,4.74609375,0,0
-2.96584075840656E-05,7.08081824996043E-06,4.74609375,0,0
-3.12607844534796E-05,7.2211587394122E-06,4.74609375,0,0
-3.12091251544189E-05,7.54125267121708E-06,4.74609375,0,0
-3.29092981701251E-05,9.14918564376421E-06,4.74609375,0,0
-3.3423460990889E-05,1.10578430394526E-05,4.74609375,0,0
-3.33319185301661E-05,1.24455382319866E-05,4.74609375,0,0
-3.16655605274718E-05,1.17060408229008E-05,4.74609375,0,0
-2.96294401778141E-05,1.02751564554637E-05,4.74609375,0,0
-2.31664853345137E-05,9.67383311945014E-06,4.74609375,0,0
-3.4323336876696E-05,1.53082783072023E-05,4.74609375,0,0
-2.8078227842343E-05,1.22667879622895E-05,4.74609375,0,0
-3.2093666959554E-05,1.2851079191023E-05,4.74609375,0,0
-2.42321948462632E-05,9.63878937909612E-06,4.74609375,0,0
-2.60389679169748E-05,1.07372225102154E-05,4.74609375,0,0
-2.44619877776131E-05,1.13522328319959E-05,4.74609375,0,0
-2.69728898274479E-05,1.26693648780929E-05,4.74609375,0,0
-2.47239477175754E-05,1.22530209409888E-05,4.74609375,0,0
-2.18526074604597E-05,1.18166753964033E-05,4.74609375,0,0
-1.9669492758112E-05,1.21561015475891E-05,4.74609375,0,0
-1.74537562998012E-05,1.21432676678523E-05,4.74609375,0,0
-1.77463298314251E-05,1.33347994051292E-05,4.74609375,0,0
-1.65882865985623E-05,1.41770515256212E-05,4.74609375,0,0
-1.80548377102241E-05,1.49551415233873E-05,4.74609375,0,0
-1.74627766682534E-05,1.27906123452703E-05,4.74609375,0,0
-2.01555976673262E-05,1.15640914373216E-05,4.74609375,0,0
-2.04304105864139E-05,1.17284544103313E-05,4.74609375,0,0
-2.20364236156456E-05,1.39018338813912E-05,4.74609375,0,0
-2.06885433726711E-05,1.50418400153285E-05,4.74609375,0,0
-2.13528437598143E-05,1.49320894706761E-05,4.74609375,0,0
-2.08009496418526E-05,1.24632460938301E-05,4.74609375,0,0
-2.1858806576347E-05,1.07765963548445E-05,4.74609375,0,0
-2.17248762055533E-05,1.10210576167447E-05,4.74609375,0,0
-2.11829392355867E-05,1.29173313325737E-05,4.74609375,0,0
-2.07571720238775E-05,1.33861485664966E-05,4.74609375,0,0
-2.15525578823872E-05,1.28438841784373E-05,4.74609375,0,0
-1.64947068697074E-05,1.10233650048031E-05,4.74609375,0,0
-2.1554193153861E-05,1.69950126291951E-05,4.74609375,0,0
-1.36744565679692E-05,1.53681230585789E-05,4.74609375,0,0
-1.74708475242369E-05,1.88805170182604E-05,4.74609375,0,0
-1.3983702956466E-05,1.66483096109005E-05,4.74609375,0,0
-1.68064216268249E-05,1.80979950528126E-05,4.74609375,0,0
-1.59577266458655E-05,1.59486226039007E-05,4.74609375,0,0
-1.85784447239712E-05,1.44112909765681E-05,4.74609375,0,0
-2.06641780096106E-05,1.24882744785282E-05,4.74609375,0,0
-2.32748643611558E-05,1.3089673302602E-05,4.74609375,0,0
-2.49247896135785E-05,1.27762104966678E-05,4.74609375,0,0
-2.50047287408961E-05,1.05293556771358E-05,4.74609375,0,0
-2.70789951173356E-05,1.03029906313168E-05,4.74609375,0,0
-2.80476233456284E-05,1.06785100797424E-05,4.74609375,0,0
-3.00260890071513E-05,1.15826023829868E-05,4.74609375,0,0
-2.89830404653912E-05,9.76036881183973E-06,4.74609375,0,0
-2.83064618997741E-05,9.43904433370335E-06,4.74609375,0,0
-2.47818661591737E-05,8.62323304318124E-06,4.74609375,0,0
-2.32092424994335E-05,8.37875541037647E-06,4.74609375,0,0
-2.17241595237283E-05,7.11088023308548E-06,4.74609375,0,0
-2.24427894863766E-05,6.59851411910495E-06,4.74609375,0,0
-2.14493411476724E-05,4.70810527986032E-06,4.74609375,0,0
-2.14070369111141E-05,4.29338706453564E-06,4.74609375,0,0
-2.09286972676637E-05,4.11055407312233E-06,4.74609375,0,0
-2.1118568838574E-05,4.19272964791162E-06,4.74609375,0,0
-2.22541748371441E-05,5.1247225201223E-06,4.74609375,0,0
-2.39831115322886E-05,7.02923443895997E-06,4.74609375,0,0
-2.08328892767895E-05,6.41594715489191E-06,4.74609375,0,0
-2.9604143492179E-05,8.02550857770257E-06,4.74609375,0,0
-2.16847693081945E-05,5.67601728107547E-06,4.74609375,0,0
-2.59119842667133E-05,7.30341525922995E-06,4.74609375,0,0
-2.18730656342814E-05,5.57585326532717E-06,4.74609375,0,0
-2.62808407569537E-05,8.3792856457876E-06,4.74609375,0,0
-2.46732179220999E-05,1.04001946965582E-05,4.74609375,0,0
-2.44056809606263E-05,1.31683418658213E-05,4.74609375,0,0
-2.20634719880763E-05,1.25861033666297E-05,4.74609375,0,0
-2.15610052691773E-05,1.10643204607186E-05,4.74609375,0,0
-2.27818381972611E-05,1.17297950055217E-05,4.74609375,0,0
-2.329723611183E-05,1.34421779875993E-05,4.74609375,0,0
-2.41653779085027E-05,1.41821737997816E-05,4.74609375,0,0
-2.25201838475186E-05,1.22029960039072E-05,4.74609375,0,0
-2.32241509365849E-05,1.14843405754073E-05,4.74609375,0,0
-2.23965707846219E-05,1.10121018224163E-05,4.74609375,0,0
-2.47952411882579E-05,1.14120066427859E-05,4.74609375,0,0
-2.5498477043584E-05,1.12366478788317E-05,4.74609375,0,0
-2.69932152150432E-05,1.18998450489016E-05,4.74609375,0,0
-2.58836626017001E-05,1.0323523383704E-05,4.74609375,0,0
-2.76447735814145E-05,9.79804008238716E-06,4.74609375,0,0
-2.84086636384018E-05,1.0604129784042E-05,4.74609375,0,0
-2.84320212813327E-05,1.03797465271782E-05,4.74609375,0,0
-2.63735855696723E-05,8.94517143024132E-06,4.74609375,0,0
-2.56216244451934E-05,9.99085841613123E-06,4.74609375,0,0
-2.5259651010856E-05,1.04330019894405E-05,4.74609375,0,0
-2.46237432293128E-05,9.77169929683441E-06,4.74609375,0,0
-1.94859603652731E-05,9.25703261600574E-06,4.74609375,0,0
-2.85767964669503E-05,1.30266871565254E-05,4.74609375,0,0
-2.38346183323301E-05,9.84083999355789E-06,4.74609375,0,0
-2.99685034406139E-05,1.26944414660102E-05,4.74609375,0,0
-2.56277635344304E-05,1.11150584416464E-05,4.74609375,0,0
-2.81096308754059E-05,1.15694483611151E-05,4.74609375,0,0
-2.72840588877443E-05,9.8954797067563E-06,4.74609375,0,0
-2.90198986476753E-05,1.04938653748832E-05,4.74609375,0,0
-2.68944259005366E-05,9.93877711152891E-06,4.74609375,0,0
-2.43104423134355E-05,9.87614657788072E-06,4.74609375,0,0
-2.26749471039511E-05,9.8457703643362E-06,4.74609375,0,0
-2.08866567845689E-05,8.73133558343397E-06,4.74609375,0,0
-2.00194135686615E-05,7.98375549493358E-06,4.74609375,0,0
-1.67397556651849E-05,7.25465952200466E-06,4.74609375,0,0
-1.65231140272226E-05,8.60243108036229E-06,4.74609375,0,0
-1.62093201652169E-05,9.082184988074E-06,4.74609375,0,0
-1.83316005859524E-05,1.00347178886295E-05,4.74609375,0,0
-1.80096885742387E-05,9.60778197622858E-06,4.74609375,0,0
-1.97761310118949E-05,1.12337229438708E-05,4.74609375,0,0
-2.04998395929579E-05,1.28081637740252E-05,4.74609375,0,0
-2.29185152420541E-05,1.37802817334887E-05,4.74609375,0,0
-2.29840097745182E-05,1.27900384541135E-05,4.74609375,0,0
-2.2336625988828E-05,1.27299572341144E-05,4.74609375,0,0
-2.08402088901494E-05,1.28406727526453E-05,4.74609375,0,0
-2.08858509722631E-05,1.31532851810334E-05,4.74609375,0,0
-2.06285239983117E-05,1.33082139655016E-05,4.74609375,0,0
-2.04663083422929E-05,1.4540493793902E-05,4.74609375,0,0
-1.71753108588746E-05,1.34774900288903E-05,4.74609375,0,0
-2.48876021942124E-05,1.98156303667929E-05,4.74609375,0,0
-1.97480785573134E-05,1.53034161485266E-05,4.74609375,0,0
-2.46400759351673E-05,1.75732202478684E-05,4.74609375,0,0
-2.11982787732268E-05,1.42201706694323E-05,4.74609375,0,0
-2.32184956985293E-05,1.65327273862204E-05,4.74609375,0,0
-2.18375298572937E-05,1.54716271936195E-05,4.74609375,0,0
-2.4260203645099E-05,1.60982144734589E-05,4.74609375,0,0
-2.53294911090052E-05,1.48272110891412E-05,4.74609375,0,0
-2.55773229582701E-05,1.3222022971604E-05,4.74609375,0,0
-2.58145373663865E-05,1.17210765893105E-05,4.74609375,0,0
-2.55273043876514E-05,9.71117879089434E-06,4.74609375,0,0
-2.68643452727702E-05,1.02556095953332E-05,4.74609375,0,0
-2.6659892682801E-05,1.13562955448288E-05,4.74609375,0,0
-2.79731630143942E-05,1.39190569825587E-05,4.74609375,0,0
-2.77397703030147E-05,1.32026070787106E-05,4.74609375,0,0
-2.91918986476958E-05,1.23108975458308E-05,4.74609375,0,0
-2.91212581942091E-05,1.06224497358198E-05,4.74609375,0,0
-3.10205250571016E-05,1.21166249300586E-05,4.74609375,0,0
-3.13877608277835E-05,1.2873436389782E-05,4.74609375,0,0
-3.305792415631E-05,1.39386620503501E-05,4.74609375,0,0
-3.48992325598374E-05,1.35908912852756E-05,4.74609375,0,0
-3.95443021261599E-05,1.28561359815649E-05,4.74609375,0,0
-4.23299898102414E-05,1.18533662316622E-05,4.74609375,0,0
-4.16837065131404E-05,1.19478982014698E-05,4.74609375,0,0
-3.78879340132698E-05,1.18769685286679E-05,4.74609375,0,0
-3.31633054884151E-05,1.1326215826557E-05,4.74609375,0,0
-2.34013405133737E-05,8.59351712279022E-06,4.74609375,0,0
-3.05392859445419E-05,1.15176808321849E-05,4.74609375,0,0
-2.07111315830844E-05,6.96136567057692E-06,4.74609375,0,0
-2.77454619208584E-05,7.14752877684077E-06,4.74609375,0,0
-2.13581588468514E-05,4.03296098738792E-06,4.74609375,0,0
-2.20385336433537E-05,4.58622616861248E-06,4.74609375,0,0
-1.77504061866784E-05,3.16305545311479E-06,4.74609375,0,0
-1.93764553841902E-05,3.63778849532537E-06,4.74609375,0,0
-1.75851891981438E-05,4.63312107967795E-06,4.74609375,0,0
-1.58938328240765E-05,7.41113444746588E-06,4.74609375,0,0
-1.51220519910567E-05,9.75579678197391E-06,4.74609375,0,0
-1.46262118505547E-05,9.57206339080585E-06,4.74609375,0,0
-1.62052110681543E-05,8.98033613339067E-06,4.74609375,0,0
-1.50146161104203E-05,7.85378870205022E-06,5.625,0,0
-1.70674811670324E-05,7.9349847510457E-06,5.625,0,0
-1.65514629770769E-05,7.03378827893175E-06,5.625,0,0
-1.78849913936574E-05,7.45160150472657E-06,5.625,0,0
-1.6411708202213E-05,7.66444100008812E-06,5.625,0,0
-1.82135627255775E-05,8.78101036505541E-06,5.625,0,0
-1.85245207831031E-05,8.12738107924815E-06,5.625,0,0
-2.1252870283206E-05,7.90340982348425E-06,5.625,0,0
-2.13503335544374E-05,7.8750153988949E-06,5.625,0,0
-2.07704342756188E-05,8.38683536130702E-06,5.625,0,0
-1.82954536285251E-05,7.28960731066763E-06,5.625,0,0
-1.76894118339987E-05,6.60792466078419E-06,5.625,0,0
-1.68895476235775E-05,7.68639347370481E-06,5.625,0,0
-1.53087003127439E-05,9.07480898604263E-06,5.625,0,0
-1.05299131973879E-05,9.67525556916371E-06,5.625,0,0
-1.30134330902365E-05,1.50436635522055E-05,5.625,0,0
-8.22316087578656E-06,1.11274966911878E-05,5.625,0,0
-1.11198914964916E-05,1.11751232907409E-05,5.625,0,0
-8.60893851495348E-06,9.39114033826627E-06,5.625,0,0
-9.81535504251951E-06,1.2137413250457E-05,5.625,0,0
-9.13720396056306E-06,1.42867766044219E-05,5.625,0,0
-1.13531223178143E-05,1.71318461070769E-05,5.625,0,0
-1.15984803414904E-05,1.72772561199963E-05,5.625,0,0
-1.10620112536708E-05,1.68060323630925E-05,5.625,0,0
-1.16344253910938E-05,1.56611331476597E-05,5.625,0,0
-1.38021232487517E-05,1.43495462907595E-05,5.625,0,0
-1.61858442879748E-05,1.47775008372264E-05,5.625,0,0
-1.55463712872006E-05,1.57726444740547E-05,5.625,0,0
-1.5089834050741E-05,1.75328750628978E-05,5.625,0,0
-1.27093435366987E-05,1.63714612426702E-05,5.625,0,0
-1.10332020994974E-05,1.54185545397922E-05,5.625,0,0
-8.71264182933373E-06,1.35441114252899E-05,5.625,0,0
-9.6184639915009E-06,1.25513752209372E-05,5.625,0,0
-1.17730405690963E-05,1.16454166345648E-05,5.625,0,0
-1.66828631336102E-05,1.18402540465468E-05,5.625,0,0
-2.11672740988433E-05,1.20379700092599E-05,5.625,0,0
-2.48982578341383E-05,1.36244725581491E-05,5.625,0,0
-2.65076141658938E-05,1.39865824166918E-05,5.625,0,0
-2.9000348149566E-05,1.31867618620163E-05,5.625,0,0
-3.13656164507847E-05,1.13533988042036E-05,5.625,0,0
-3.28705245919991E-05,9.35249954636674E-06,5.625,0,0
-2.91100623144303E-05,6.13134761806577E-06,5.625,0,0
-4.31450971518643E-05,8.83677512319991E-06,5.625,0,0
-3.52885363099631E-05,7.4618778853619E-06,5.625,0,0
-4.36245063610841E-05,8.86826092028059E-06,5.625,0,0
-3.89475244446658E-05,7.21778678780538E-06,5.625,0,0
-4.32084380008746E-05,9.04241096577607E-06,5.625,0,0
-3.94089256587904E-05,8.86783072928665E-06,5.625,0,0
-4.02427322114818E-05,9.79067681328161E-06,5.625,0,0
-3.73237162420992E-05,1.02717604022473E-05,5.625,0,0
-3.62894134013914E-05,1.11031786218518E-05,5.625,0,0
-3.71146998077165E-05,1.22122683023917E-05,5.625,0,0
-3.67652828572318E-05,1.21407947517582E-05,5.625,0,0
-3.68293403880671E-05,1.06195111584384E-05,5.625,0,0
-3.3702039218042E-05,7.57105090087862E-06,5.625,0,0
-3.49023466696963E-05,6.24913536739768E-06,5.625,0,0
-3.46123415511101E-05,5.97171128902119E-06,5.625,0,0
-3.70745510736015E-05,7.6566357165575E-06,5.625,0,0
-3.52830065821763E-05,8.12178132036934E-06,5.625,0,0
-3.64171755791176E-05,9.24921732803341E-06,5.625,0,0
-3.50826157955453E-05,1.15762104542227E-05,5.625,0,0
-3.56994023604784E-05,1.42938470162335E-05,5.625,0,0
-3.37106612278149E-05,1.37694323711912E-05,5.625,0,0
-3.35415315930732E-05,1.27189814520534E-05,5.625,0,0
-3.34222240780946E-05,1.27032117234194E-05,5.625,0,0
-3.43167703249492E-05,1.20041377158486E-05,5.625,0,0
-3.44086292898282E-05,1.06696033981279E-05,5.625,0,0
-3.47964196407702E-05,1.12268344309996E-05,5.625,0,0
-2.73864698101534E-05,1.17098416012595E-05,5.625,0,0
-3.75601084670052E-05,1.86119450518163E-05,5.625,0,0
-2.6998781322618E-05,1.54248646140331E-05,5.625,0,0
-3.41279010172002E-05,1.67479811352678E-05,5.625,0,0
-2.82536220765905E-05,1.40919919431326E-05,5.625,0,0
-3.14307653752621E-05,1.48030694617773E-05,5.625,0,0
-2.79828364000423E-05,1.15397888293955E-05,5.625,0,0
-3.10997675114777E-05,9.97899678623071E-06,5.625,0,0
-3.15864490403328E-05,9.04486751096556E-06,5.625,0,0
-2.98918021144345E-05,9.04591706785141E-06,5.625,0,0
-2.67506184172817E-05,8.55762573337415E-06,5.625,0,0
-2.31989106396213E-05,7.62274157750653E-06,5.625,0,0
-2.35906245507067E-05,7.48456704968703E-06,5.625,0,0
-2.14474275708199E-05,7.53465292291367E-06,5.625,0,0
-2.12528557312908E-05,9.8474620244815E-06,5.625,0,0
-1.79773705895059E-05,9.86824852589052E-06,5.625,0,0
-1.92684328794712E-05,9.76631326921051E-06,5.625,0,0
-1.92619208974065E-05,8.34795719129033E-06,5.625,0,0
-2.13214716495713E-05,8.17383352114121E-06,5.625,0,0
-1.91494746104581E-05,7.72319526731735E-06,5.625,0,0
-1.88058602361707E-05,8.79190611158265E-06,5.625,0,0
-1.73805801750859E-05,1.01401692518266E-05,5.625,0,0
-1.82207568286685E-05,1.20117892947746E-05,5.625,0,0
-1.73152948264033E-05,1.07070118247066E-05,5.625,0,0
-1.67039961525006E-05,9.89586624200456E-06,5.625,0,0
-1.64743996720063E-05,1.09182037704159E-05,5.625,0,0
-1.68169917742489E-05,1.17784929898335E-05,5.625,0,0
-1.51613749039825E-05,1.07604846562026E-05,5.625,0,0
-2.18243167182663E-05,1.52814773173304E-05,5.625,0,0
-1.56022924784338E-05,1.03934598882915E-05,5.625,0,0
-1.91892722796183E-05,1.12726866063895E-05,5.625,0,0
-1.74630040419288E-05,8.19037722976645E-06,5.625,0,0
-1.79083381226519E-05,9.05423621588852E-06,5.625,0,0
-1.61241841851734E-05,7.24593155609909E-06,5.625,0,0
-1.91908147826325E-05,7.37666687200544E-06,5.625,0,0
-2.13169278140413E-05,7.3617184170871E-06,5.625,0,0
-2.23066435864894E-05,7.52742789700278E-06,5.625,0,0
-2.25583444262156E-05,6.62206639390206E-06,5.625,0,0
-2.31411977438256E-05,4.52008862339426E-06,5.625,0,0
-2.51266956183827E-05,3.84971963285352E-06,5.625,0,0
-2.49056374741485E-05,4.10883421864128E-06,5.625,0,0
-2.54990827670554E-05,6.71836460242048E-06,5.625,0,0
-2.43841022893321E-05,7.68844984122552E-06,5.625,0,0
-2.46199415414594E-05,8.51982440508436E-06,5.625,0,0
-2.35543066082755E-05,8.202714525396E-06,5.625,0,0
-2.40910248976434E-05,9.30587975744857E-06,5.625,0,0
-2.38504489971092E-05,9.16555654839613E-06,5.625,0,0
-2.47358075284865E-05,1.01705618362757E-05,5.625,0,0
-2.36335145018529E-05,1.12439702206757E-05,5.625,0,0
-2.26001811824972E-05,1.26570648717461E-05,5.625,0,0
-2.15235177165596E-05,1.28138726722682E-05,5.625,0,0
-2.11117021535756E-05,1.3562085769081E-05,5.625,0,0
-1.97408971871482E-05,1.42618182508158E-05,5.625,0,0
-1.84809359780047E-05,1.42518510983791E-05,5.625,0,0
-1.5392693967442E-05,1.07528812804958E-05,5.625,0,0
-2.33059527090518E-05,1.42387752930517E-05,5.625,0,0
-1.85201006388525E-05,1.03744923762861E-05,5.625,0,0
-2.11584410862997E-05,1.36850285343826E-05,5.625,0,0
-1.87334389920579E-05,1.1064297723351E-05,5.625,0,0
-2.24249743041582E-05,1.28329475046485E-05,5.625,0,0
-2.18883087654831E-05,1.23378913485794E-05,5.625,0,0
-2.32951115322066E-05,1.43337856570724E-05,5.625,0,0
-2.37449567066506E-05,1.44331515912199E-05,5.625,0,0
-2.5239331080229E-05,1.4023193216417E-05,5.625,0,0
-2.63973124674521E-05,1.31849292301922E-05,5.625,0,0
-2.53368198173121E-05,1.17197205327102E-05,5.625,0,0
-2.44110688072396E-05,1.15843286039308E-05,5.625,0,0
-2.27215041377349E-05,1.21723933261819E-05,5.625,0,0
-2.36495143326465E-05,1.48851086123614E-05,5.625,0,0
-2.39877135754796E-05,1.55065681610722E-05,5.625,0,0
-2.60530450759688E-05,1.63139047799632E-05,5.625,0,0
-2.55896047747228E-05,1.47843311424367E-05,5.625,0,0
-2.62899666267913E-05,1.41448945214506E-05,5.625,0,0
-2.57743286056211E-05,1.26851573440945E-05,5.625,0,0
-2.62939156527864E-05,1.26084278235794E-05,5.625,0,0
-2.64550908468664E-05,1.27153480207198E-05,5.625,0,0
-2.8251388357603E-05,1.36958033181145E-05,5.625,0,0
-2.92995009658625E-05,1.18013567771413E-05,5.625,0,0
-2.77506096608704E-05,9.32154944166541E-06,5.625,0,0
-2.42637979681604E-05,8.28804877528455E-06,5.625,0,0
-2.3759770556353E-05,8.74590205057757E-06,5.625,0,0
-2.06853164854692E-05,8.45715112518519E-06,5.625,0,0
-2.96854814223479E-05,1.29015179481939E-05,5.625,0,0
-2.24132654693676E-05,9.99158146441914E-06,5.625,0,0
-2.76445534836967E-05,1.14161748570041E-05,5.625,0,0
-2.30499044846511E-05,1.02196290754364E-05,5.625,0,0
-2.49671975325327E-05,1.23560512292897E-05,5.625,0,0
-2.30051882681437E-05,1.26896184156067E-05,5.625,0,0
-2.50037046498619E-05,1.20848690130515E-05,5.625,0,0
-2.43120211962378E-05,9.09725258679828E-06,5.625,0,0
-2.3053667973727E-05,6.48416789772455E-06,5.625,0,0
-2.30526911764173E-05,6.58560384181328E-06,5.625,0,0
-2.41383222601144E-05,8.40502161736367E-06,5.625,0,0
-2.63682941294974E-05,1.05376202554908E-05,5.625,0,0
-2.43208232859615E-05,1.12139005068457E-05,5.625,0,0
-2.25280182348797E-05,1.20707400128595E-05,5.625,0,0
-1.96695709746564E-05,1.07445548565011E-05,5.625,0,0
-2.07728498935467E-05,9.7438887678436E-06,5.625,0,0
-2.05343840207206E-05,8.88890463102143E-06,5.625,0,0
-2.20821475522825E-05,9.03670115803834E-06,5.625,0,0
-2.13127732422436E-05,8.34998354548588E-06,5.625,0,0
-2.22365870286012E-05,8.89820603333646E-06,8.0859375,0,0
-2.20208585233195E-05,9.97118604573188E-06,8.0859375,0,0
-2.2559072021977E-05,1.13075402623508E-05,8.0859375,0,0
-2.23778279178077E-05,1.17288955152617E-05,8.0859375,0,0
-2.42979695030954E-05,1.18697616926511E-05,8.0859375,0,0
-2.69269330601674E-05,1.14738677439163E-05,8.0859375,0,0
-2.78107509075198E-05,1.09034663182683E-05,8.0859375,0,0
-2.13808216358302E-05,7.34442164684879E-06,8.0859375,0,0
-3.01137042697519E-05,9.27559995034244E-06,8.0859375,0,0
-2.32848578889389E-05,5.98287806496955E-06,8.0859375,0,0
-3.00020965369185E-05,9.17131274036365E-06,8.0859375,0,0
-2.541044523241E-05,9.3699209173792E-06,8.0859375,0,0
-2.76853861578275E-05,1.15188113340992E-05,8.0859375,0,0
-2.49036183959106E-05,9.85446513368515E-06,8.0859375,0,0
-2.51315577770583E-05,1.00593742899946E-05,8.0859375,0,0
-2.28012468141969E-05,1.03602433227934E-05,8.0859375,0,0
-2.21080263145268E-05,1.03410657175118E-05,8.0859375,0,0
-2.35032348427922E-05,1.03404609035351E-05,8.0859375,0,0
-2.40863882936537E-05,1.07361529444461E-05,8.0859375,0,0
-2.52150348387659E-05,1.17821455205558E-05,8.0859375,0,0
-2.27831169468118E-05,1.13663400043151E-05,8.0859375,0,0
-2.18787736230297E-05,1.16696301120101E-05,8.0859375,0,0
-1.90324117284035E-05,1.0795780326589E-05,8.0859375,0,0
-1.90639384527458E-05,1.07969071905245E-05,8.0859375,0,0
-1.72440995811485E-05,9.96650123852305E-06,8.0859375,0,0
-1.66367535712197E-05,9.31287013372639E-06,8.0859375,0,0
-1.27563771457062E-05,8.58995281305397E-06,8.0859375,0,0
-1.08075664684293E-05,1.00003971965634E-05,8.0859375,0,0
-9.03650834516156E-06,1.17970657811384E-05,8.0859375,0,0
-9.20736965781543E-06,1.2694695215032E-05,8.0859375,0,0
-9.12729046831373E-06,1.05761273516691E-05,8.0859375,0,0
-1.0384446795797E-05,9.08053243620088E-06,8.0859375,0,0
-1.16321652967599E-05,1.02608555607731E-05,8.0859375,0,0
-1.28379251691513E-05,1.1994795386272E-05,8.0859375,0,0
-1.21620159916347E-05,9.66582319961162E-06,8.0859375,0,0
-2.00711656361818E-05,1.18986836241675E-05,8.0859375,0,0
-2.09125191759085E-05,7.29369003238389E-06,8.0859375,0,0
-2.7546670025913E-05,1.16396540761343E-05,8.0859375,0,0
-2.76757746178191E-05,1.15717639346258E-05,8.0859375,0,0
-3.11908734147437E-05,1.38530749609345E-05,8.0859375,0,0
-3.1160656362772E-05,1.26074919535313E-05,8.0859375,0,0
-3.14901444653515E-05,1.25413343994296E-05,8.0859375,0,0
-3.18691272696014E-05,1.05304552562302E-05,8.0859375,0,0
-3.21855441143271E-05,8.26352243166184E-06,8.0859375,0,0
-3.09657370962668E-05,7.56591907702386E-06,8.0859375,0,0
-2.81701122730738E-05,8.29266718938015E-06,8.0859375,0,0
-2.70422260655323E-05,9.08779838937335E-06,8.0859375,0,0
-2.70236378128175E-05,7.76923843659461E-06,8.0859375,0,0
-2.96852576866513E-05,7.97978646005504E-06,8.0859375,0,0
-3.04141303786309E-05,7.70580300013535E-06,8.0859375,0,0
-2.9501570679713E-05,8.95124230737565E-06,8.0859375,0,0
-2.59053158515599E-05,9.49004243011586E-06,8.0859375,0,0
-2.41349698626436E-05,1.06946918094764E-05,8.0859375,0,0
-2.37894528254401E-05,1.03088677860796E-05,8.0859375,0,0
-2.55035538430093E-05,1.04340269899694E-05,8.0859375,0,0
-2.5702216589707E-05,9.21189985092497E-06,8.0859375,0,0
-2.63998244918184E-05,8.13283077150118E-06,8.0859375,0,0
-2.67641880782321E-05,7.18494311513496E-06,8.0859375,0,0
-2.7507066988619E-05,8.55645703268237E-06,8.0859375,0,0
-2.85345249722013E-05,1.05468980109436E-05,8.0859375,0,0
-2.91093056148384E-05,1.20649783639237E-05,8.0859375,0,0
-2.27030650421511E-05,1.03500260593137E-05,8.0859375,0,0
-3.10364048345946E-05,1.40464908326976E-05,8.0859375,0,0
-2.29407596634701E-05,8.73963108460885E-06,8.0859375,0,0
-2.96922389679821E-05,1.10580676846439E-05,8.0859375,0,0
-2.44807051785756E-05,1.08396052382886E-05,8.0859375,0,0
-2.7013236831408E-05,1.38785208037007E-05,8.0859375,0,0
-2.15565360122127E-05,1.30033931782236E-05,8.0859375,0,0
-1.96771397895645E-05,1.28347510326421E-05,8.0859375,0,0
-1.71011051861569E-05,1.32977675093571E-05,8.0859375,0,0
-1.64349658007268E-05,1.51745061884867E-05,8.0859375,0,0
-1.59317987709073E-05,1.56066853378434E-05,8.0859375,0,0
-1.48357430589385E-05,1.3964090612717E-05,8.0859375,0,0
-1.62061023729621E-05,1.27437569972244E-05,8.0859375,0,0
-1.58443926920881E-05,1.24814932860318E-05,8.0859375,0,0
-1.79968592419755E-05,1.38420646180748E-05,8.0859375,0,0
-1.76433895830996E-05,1.27312823678949E-05,8.0859375,0,0
-1.98667366930749E-05,1.17346498882398E-05,8.0859375,0,0
-1.94315834960435E-05,1.00325396488188E-05,8.0859375,0,0
-2.09806621569442E-05,1.00967054095236E-05,8.0859375,0,0
-1.98896232177503E-05,9.49420791584998E-06,8.0859375,0,0
-2.20473521039821E-05,9.68426684266888E-06,8.0859375,0,0
-2.35437310038833E-05,9.1705733211711E-06,8.0859375,0,0
-2.56709226960083E-05,9.70093515206827E-06,8.0859375,0,0
-2.63585588982096E-05,9.95063328446122E-06,8.0859375,0,0
-2.72629895334831E-05,9.84168036666233E-06,8.0859375,0,0
-2.72265879175393E-05,8.29716282169102E-06,8.0859375,0,0
-2.78602619800949E-05,6.3585907810193E-06,8.0859375,0,0
-2.30175155593315E-05,5.05766092828708E-06,8.0859375,0,0
-3.24319771607406E-05,8.84945347934263E-06,8.0859375,0,0
-2.43001395574538E-05,9.35002663027262E-06,8.0859375,0,0
-2.98533796012634E-05,9.94561560219154E-06,8.0859375,0,0
-2.48632222792367E-05,7.46942987461807E-06,8.0859375,0,0
-2.77333056146745E-05,8.24597827886464E-06,8.0859375,0,0
-2.39438359130872E-05,9.61689784162445E-06,8.0859375,0,0
-2.43889808189124E-05,1.15907178042107E-05,8.0859375,0,0
-2.31072026508627E-05,1.15002203529002E-05,8.0859375,0,0
-2.25071489694528E-05,1.11907611426432E-05,8.0859375,0,0
-2.21030950342538E-05,1.18510242828052E-05,8.0859375,0,0
-2.06844688364072E-05,1.18413699965458E-05,8.0859375,0,0
-2.16198604903184E-05,1.16828014142811E-05,8.0859375,0,0
-2.07403190870536E-05,1.30233547679381E-05,8.0859375,0,0
-2.28191183850868E-05,1.62750966410385E-05,8.0859375,0,0
-2.2627811631537E-05,1.70550247275969E-05,8.0859375,0,0
-2.46674189838814E-05,1.55712332343683E-05,8.0859375,0,0
-2.41576890402939E-05,1.29532400023891E-05,8.0859375,0,0
-2.60153228737181E-05,1.22353976621525E-05,8.0859375,0,0
-2.53776142926654E-05,1.1997894034721E-05,8.0859375,0,0
-2.57684641837841E-05,1.23777645057999E-05,8.0859375,0,0
-2.48253545578336E-05,1.23058825920452E-05,8.0859375,0,0
-2.52672452916158E-05,1.25596443467657E-05,8.0859375,0,0
-2.40434692386771E-05,1.36054659378715E-05,8.0859375,0,0
-2.47873467742465E-05,1.46123220474692E-05,8.0859375,0,0
-2.69315023615491E-05,1.5242546396621E-05,8.0859375,0,0
-2.89844338112744E-05,1.55905509018339E-05,8.0859375,0,0
-2.38324191741413E-05,1.01825389720034E-05,8.0859375,0,0
-3.28066089423373E-05,1.13876649265876E-05,8.0859375,0,0
-2.3783759388607E-05,6.19701131654438E-06,8.0859375,0,0
-2.99250896205194E-05,1.21346356536378E-05,8.0859375,0,0
-2.53587404586142E-05,1.1260611245234E-05,8.0859375,0,0
-3.03862143482547E-05,1.14421300168033E-05,8.0859375,0,0
-2.92232707579387E-05,7.85267911851406E-06,8.0859375,0,0
-3.06094807456248E-05,7.97781012806809E-06,8.0859375,0,0
-2.91589731205022E-05,7.53723634261405E-06,8.0859375,0,0
-2.94191904686159E-05,7.86225064075552E-06,8.0859375,0,0
-2.98402264888864E-05,9.8698792498908E-06,8.0859375,0,0
-2.76046575891087E-05,1.15447910502553E-05,8.0859375,0,0
-2.59470780292759E-05,1.13933983811876E-05,8.0859375,0,0
-2.25694275286514E-05,8.13282076705946E-06,8.0859375,0,0
-2.32687361858552E-05,6.96803999744589E-06,8.0859375,0,0
-2.25372532440815E-05,5.87964132137131E-06,8.0859375,0,0
-2.49860295298276E-05,6.25160873823916E-06,8.0859375,0,0
-2.55777813435998E-05,5.06323112858809E-06,8.0859375,0,0
-2.81159773294348E-05,5.72406088394928E-06,8.0859375,0,0
-2.6891682864516E-05,6.44273404759588E-06,8.0859375,0,0
-2.80310559901409E-05,9.12437280931044E-06,8.0859375,0,0
-2.9092198019498E-05,1.14601180030149E-05,8.0859375,0,0
-3.08754461002536E-05,1.29120271594729E-05,8.0859375,0,0
-2.99268158414634E-05,1.17002955448697E-05,8.0859375,0,0
-2.99849561997689E-05,1.01833893495495E-05,8.0859375,0,0
-3.03333654301241E-05,1.02461626738659E-05,8.0859375,0,0
-3.08122798742261E-05,1.1699224160111E-05,8.0859375,0,0
-2.53359175985679E-05,9.13504391064635E-06,8.0859375,0,0
-3.65072628483176E-05,1.37430397444405E-05,8.0859375,0,0
-2.83353310805978E-05,1.30614926092676E-05,8.0859375,0,0
-3.35860459017567E-05,1.68158621818293E-05,8.0859375,0,0
-2.6128109311685E-05,1.46826323543792E-05,8.0859375,0,0
-2.80011972790817E-05,1.63572240126086E-05,8.0859375,0,0
-2.46426207013428E-05,1.69921459018951E-05,8.0859375,0,0
-2.55690811172826E-05,1.90744121937314E-05,8.0859375,0,0
-2.40385434153723E-05,1.85424269147916E-05,8.0859375,0,0
-2.35539173445432E-05,1.69709364854498E-05,8.0859375,0,0
-2.28414755838457E-05,1.54741028381977E-05,8.0859375,0,0
-2.06773693207651E-05,1.5434437955264E-05,8.0859375,0,0
-2.09148565772921E-05,1.71865358424839E-05,8.0859375,0,0
-1.92679744941415E-05,1.7186419427162E-05,8.0859375,0,0
-2.01423172256909E-05,1.61784064403037E-05,8.0859375,0,0
-1.88695667020511E-05,1.3323699022294E-05,8.0859375,0,0
-2.13795556192053E-05,1.21548937386251E-05,8.0859375,0,0
-2.06426975637442E-05,1.09151524156914E-05,8.0859375,0,0
-2.06412132683909E-05,1.16157916636439E-05,8.0859375,0,0
-1.78674836206483E-05,1.19415672088508E-05,8.0859375,0,0
-1.78489735844778E-05,1.32005870909779E-05,8.0859375,0,0
-1.77112851815764E-05,1.37502256620792E-05,8.0859375,0,0
-2.0843799575232E-05,1.44874120451277E-05,8.0859375,0,0
-2.29621509788558E-05,1.35585387397441E-05,8.0859375,0,0
-2.62248013314093E-05,1.24085054267198E-05,8.0859375,0,0
-2.95381778414594E-05,1.15780940177501E-05,11.953125,0,0
-3.09880269924179E-05,1.02269941635313E-05,11.953125,0,0
-2.51986257353565E-05,7.49591754356516E-06,11.953125,0,0
-3.53940158674959E-05,1.11617346192361E-05,11.953125,0,0
-2.58389409282245E-05,9.38883022172377E-06,11.953125,0,0
-3.16955192829482E-05,1.18083444249351E-05,11.953125,0,0
-2.73543846560642E-05,8.73878343554679E-06,11.953125,0,0
-3.19702157867141E-05,5.83311248192331E-06,11.953125,0,0
-2.98367740469985E-05,2.6794634777616E-06,11.953125,0,0
-3.13644704874605E-05,2.686796733542E-06,11.953125,0,0
-3.07596310449298E-05,3.22204368785606E-06,11.953125,0,0
-3.23016211041249E-05,5.18456818099367E-06,11.953125,0,0
-3.38055251631886E-05,6.50119773126789E-06,11.953125,0,0
-3.27979832945857E-05,5.7484398894303E-06,11.953125,0,0
-3.15359175147023E-05,4.60555384051986E-06,11.953125,0,0
-2.65444323304109E-05,4.0503368836653E-06,11.953125,0,0
-2.44961593125481E-05,6.16342822468141E-06,11.953125,0,0
-2.1273406673572E-05,6.69176779410918E-06,11.953125,0,0
-2.12995255424175E-05,6.17334808339365E-06,11.953125,0,0
-1.761999737937E-05,4.93506968268775E-06,11.953125,0,0
-1.55612178787123E-05,5.23887229064712E-06,11.953125,0,0
-1.03041338661569E-05,4.61913350591203E-06,11.953125,0,0
-6.40299867882277E-06,4.82433324577869E-06,11.953125,0,0
-1.5236388435369E-06,6.69281371301622E-06,11.953125,0,0
1.10096550542949E-06,9.52994560066145E-06,11.953125,0,0
4.38277720604674E-06,1.14834583655465E-05,11.953125,0,0
5.39371740160277E-06,1.39149915412418E-05,11.953125,0,0
5.69045687370817E-06,1.55338311742526E-05,11.953125,0,0
4.73458567284979E-06,1.59517803695053E-05,11.953125,0,0
3.152836143272E-07,1.22432975331321E-05,11.953125,0,0
-3.79654079551983E-06,1.71643205248984E-05,11.953125,0,0
-1.04422451840946E-05,1.3766532902082E-05,11.953125,0,0
-1.40247248054948E-05,1.85266926564509E-05,11.953125,0,0
-1.74265987880062E-05,1.69280901900493E-05,11.953125,0,0
-1.7895437849802E-05,1.98123834707076E-05,11.953125,0,0
-1.97547633433715E-05,1.86124452739023E-05,11.953125,0,0
-2.21529007831123E-05,1.90004211617634E-05,11.953125,0,0
-2.5888462914736E-05,1.83531028596917E-05,11.953125,0,0
-2.79085488728015E-05,1.67666512425058E-05,11.953125,0,0
-2.70859145530267E-05,1.43090092024067E-05,11.953125,0,0
-2.59084245044505E-05,1.20332297228742E-05,11.953125,0,0
-2.47504376602592E-05,1.15598231786862E-05,11.953125,0,0
-2.34561121033039E-05,1.03057882370194E-05,11.953125,0,0
-2.19508001464419E-05,1.03895208667382E-05,11.953125,0,0
-2.14300362131326E-05,9.70118162513245E-06,11.953125,0,0
-2.07078155654017E-05,1.13174774014624E-05,11.953125,0,0
-2.02337560040178E-05,1.15673365144175E-05,11.953125,0,0
-2.1126375941094E-05,1.1868170076923E-05,11.953125,0,0
-2.36306277656695E-05,9.83172594715143E-06,11.953125,0,0
-2.50178072747076E-05,8.36793515190948E-06,11.953125,0,0
-2.55477389146108E-05,7.36193351258407E-06,11.953125,0,0
-2.65005310211563E-05,9.28170084080193E-06,11.953125,0,0
-2.82576074823737E-05,1.07041441879119E-05,11.953125,0,0
-2.96951602649642E-05,1.05230701592518E-05,11.953125,0,0
-3.07317786791828E-05,8.38675350678386E-06,11.953125,0,0
-3.18978163704742E-05,6.87528017806471E-06,11.953125,0,0
-2.67536361207021E-05,5.19345121574588E-06,11.953125,0,0
-3.88471089536324E-05,7.33431716071209E-06,11.953125,0,0
-2.98178074444877E-05,4.73706086268066E-06,11.953125,0,0
-3.67885841114912E-05,5.39596567250555E-06,11.953125,0,0
-3.14521130349021E-05,5.21123638463905E-06,11.953125,0,0
-3.4699696698226E-05,5.66391918255249E-06,11.953125,0,0
-3.08236376440618E-05,4.83671783513273E-06,11.953125,0,0
-3.08334419969469E-05,6.62450702293427E-06,11.953125,0,0
-2.81546144833555E-05,9.15366490517044E-06,11.953125,0,0
-2.78103616437875E-05,1.21380116979708E-05,11.953125,0,0
-2.77268572972389E-05,1.3243135981611E-05,11.953125,0,0
-2.57188057730673E-05,1.21749872050714E-05,11.953125,0,0
-2.5484936486464E-05,1.02320309451898E-05,11.953125,0,0
-2.32357433560537E-05,8.07717697171029E-06,11.953125,0,0
-2.31399881158723E-05,8.13042333902558E-06,11.953125,0,0
-1.93921932805097E-05,8.77676211530343E-06,11.953125,0,0
-1.9723560399143E-05,1.06692214103532E-05,11.953125,0,0
-2.03044164663879E-05,1.21269495139131E-05,11.953125,0,0
-2.4687935365364E-05,1.33478406496579E-05,11.953125,0,0
-2.53062662523007E-05,1.31821916511399E-05,11.953125,0,0
-2.70448599621886E-05,1.33262001327239E-05,11.953125,0,0
-2.65700873569585E-05,1.30854659801116E-05,11.953125,0,0
-2.7031303034164E-05,1.26019504023134E-05,11.953125,0,0
-2.64777336269617E-05,1.18331281555584E-05,11.953125,0,0
-2.7171639885637E-05,1.11488307084073E-05,11.953125,0,0
-2.73245113930898E-05,9.3718163043377E-06,11.953125,0,0
-2.82251312455628E-05,7.61766068535508E-06,11.953125,0,0
-2.35734514717478E-05,8.04123737907503E-06,11.953125,0,0
-3.37206256517675E-05,1.37738525154418E-05,11.953125,0,0
-2.71833559963852E-05,1.16434084702632E-05,11.953125,0,0
-3.42897292284761E-05,1.13027854240499E-05,11.953125,0,0
-2.88847113552038E-05,9.29781072045444E-06,11.953125,0,0
-3.06645779346582E-05,9.99691383185564E-06,11.953125,0,0
-2.60637134488206E-05,8.46096463646973E-06,11.953125,0,0
-2.662262886588E-05,7.56009376345901E-06,11.953125,0,0
-2.58574400504585E-05,7.67483015806647E-06,11.953125,0,0
-2.59059252130101E-05,9.08051060832804E-06,11.953125,0,0
-2.59905737038935E-05,9.99546773527982E-06,11.953125,0,0
-2.44533275690628E-05,1.01153327705106E-05,11.953125,0,0
-2.44748316617915E-05,1.10876608232502E-05,11.953125,0,0
-2.22413837036584E-05,1.1274633834546E-05,11.953125,0,0
-2.30977766477736E-05,1.08973117676214E-05,11.953125,0,0
-2.17214746953687E-05,9.39401979849208E-06,11.953125,0,0
-2.33444134210004E-05,8.96546953299548E-06,11.953125,0,0
-2.28480166697409E-05,8.61173066368792E-06,11.953125,0,0
-2.47993175435113E-05,9.00849499885226E-06,11.953125,0,0
-2.40436529566068E-05,8.21935554995434E-06,11.953125,0,0
-2.42054629779886E-05,9.02848842088133E-06,11.953125,0,0
-2.23087845370173E-05,1.02212370620691E-05,11.953125,0,0
-2.16401676880196E-05,1.00317602118594E-05,11.953125,0,0
-2.12423710763687E-05,9.13690564630087E-06,11.953125,0,0
-2.38104294112418E-05,1.05654389699339E-05,11.953125,0,0
-2.59198604908306E-05,1.31155229610158E-05,11.953125,0,0
-2.60425822489196E-05,1.20334016173729E-05,11.953125,0,0
-1.81181294465205E-05,6.66861069475999E-06,11.953125,0,0
-2.38896518567344E-05,1.04078335425584E-05,11.953125,0,0
-1.78331829374656E-05,1.12134248411166E-05,11.953125,0,0
-2.46106028498616E-05,1.53498112922534E-05,11.953125,0,0
-2.04242642212193E-05,1.40321053549997E-05,11.953125,0,0
-2.40487242990639E-05,1.43616352943354E-05,11.953125,0,0
-2.38566153711872E-05,1.28038482216652E-05,11.953125,0,0
-2.55430713878013E-05,1.29977524920832E-05,11.953125,0,0
-2.46257241087733E-05,1.18116831799853E-05,11.953125,0,0
-2.42537571466528E-05,1.04347645901726E-05,11.953125,0,0
-2.44659986492479E-05,9.64105856837705E-06,11.953125,0,0
-2.45013943640515E-05,8.92342541192193E-06,11.953125,0,0
-2.62199773715111E-05,9.29463021748234E-06,11.953125,0,0
-2.73712539637927E-05,9.70647852227557E-06,11.953125,0,0
-3.09867173200473E-05,1.12183697638102E-05,11.953125,0,0
-3.10540053760633E-05,1.15963857751922E-05,11.953125,0,0
-3.1206538551487E-05,1.16693945528823E-05,11.953125,0,0
-2.82506389339687E-05,1.00022152764723E-05,11.953125,0,0
-2.78892584901769E-05,9.7690744951251E-06,11.953125,0,0
-2.72931811196031E-05,1.13253554445691E-05,11.953125,0,0
-2.87336624751333E-05,1.37868364618043E-05,11.953125,0,0
-2.83978079096414E-05,1.30879479911528E-05,11.953125,0,0
-2.86119302472798E-05,1.17015952127986E-05,11.953125,0,0
-2.72654688160401E-05,9.84501093626022E-06,11.953125,0,0
-2.57822503044736E-05,8.11178506410215E-06,11.953125,0,0
-2.39729961322155E-05,8.93606284080306E-06,11.953125,0,0
-2.23445695155533E-05,1.10904229586595E-05,11.953125,0,0
-1.60791732923826E-05,9.25241056393133E-06,11.953125,0,0
-2.19016801565886E-05,1.44812174767139E-05,11.953125,0,0
-1.62054584507132E-05,1.20561207950232E-05,11.953125,0,0
-2.09142199310008E-05,1.36937032948481E-05,11.953125,0,0
-1.70315288414713E-05,1.21763123388519E-05,11.953125,0,0
-1.83804368134588E-05,1.53584751387825E-05,11.953125,0,0
-1.61003626999445E-05,1.53192504512845E-05,11.953125,0,0
-1.82176663656719E-05,1.40847450893489E-05,11.953125,0,0
-1.84961972991005E-05,1.11468580143992E-05,11.953125,0,0
-1.76139110408258E-05,9.03316413314315E-06,11.953125,0,0
-1.69625163835008E-05,8.2629376265686E-06,11.953125,0,0
-1.67969719768735E-05,7.60859984438866E-06,11.953125,0,0
-1.8780547179631E-05,9.16766566660954E-06,11.953125,0,0
-1.94275617104722E-05,1.05812196125044E-05,11.953125,0,0
-2.10275247809477E-05,1.1199987056898E-05,11.953125,0,0
-2.02132287085988E-05,1.00841589301126E-05,11.953125,0,0
-2.2286227249424E-05,1.18332191050285E-05,11.953125,0,0
-2.39027012867155E-05,1.4487902262772E-05,11.953125,0,0
-2.68120129476301E-05,1.70524799614213E-05,11.953125,0,0
-2.69577649305575E-05,1.70468192663975E-05,11.953125,0,0
-2.78289735433646E-05,1.61335246957606E-05,11.953125,0,0
-2.85081696347333E-05,1.43008373925113E-05,11.953125,0,0
-3.00375304504996E-05,1.3229354408395E-05,11.953125,0,0
-2.9521985197789E-05,1.37688984978013E-05,11.953125,0,0
-2.91242995444918E-05,1.56041223817738E-05,11.953125,0,0
-2.83736590063199E-05,1.49786137626506E-05,11.953125,0,0
-2.81709526461782E-05,1.2206747669552E-05,11.953125,0,0
-2.17770175368059E-05,8.99119459063513E-06,16.875,0,0
-2.83388217212632E-05,1.31609303934965E-05,16.875,0,0
-1.91419821931049E-05,1.14513541120687E-05,16.875,0,0
-2.78693660220597E-05,1.47438186104409E-05,16.875,0,0
-2.61763343587518E-05,1.23827512652497E-05,16.875,0,0
-3.05983667203691E-05,1.25160222523846E-05,16.875,0,0
-2.91142459900584E-05,1.12672914838186E-05,16.875,0,0
-3.14596945827361E-05,1.16037499537924E-05,16.875,0,0
-3.18109450745396E-05,9.47991247812752E-06,16.875,0,0
-3.26369336107746E-05,7.73644660512218E-06,16.875,0,0
-3.17669546348043E-05,7.33178922018851E-06,16.875,0,0
-2.80577442026697E-05,7.04153171682265E-06,16.875,0,0
-2.61953064182308E-05,7.51209472582559E-06,16.875,0,0
-2.35225452343002E-05,6.78613378113369E-06,16.875,0,0
-2.31122958211927E-05,6.6824427449319E-06,16.875,0,0
-1.94077128981007E-05,5.82940083404537E-06,16.875,0,0
-1.74295710166916E-05,5.9156759562029E-06,16.875,0,0
-1.2490687367972E-05,4.73798672828707E-06,16.875,0,0
-9.9192793641123E-06,4.83839357912075E-06,16.875,0,0
-7.04822787156445E-06,5.25027780895471E-06,16.875,0,0
-8.22521178633906E-06,6.94438904247363E-06,16.875,0,0
-8.21094909042586E-06,7.66372431826312E-06,16.875,0,0
-8.88111480890075E-06,7.86206965130987E-06,16.875,0,0
-9.14722022571368E-06,6.62381444271887E-06,16.875,0,0
-1.28479314298602E-05,6.88000682202983E-06,16.875,0,0
-1.63877375598531E-05,7.83290943218162E-06,16.875,0,0
-1.79442522494355E-05,7.91395632404601E-06,16.875,0,0
-1.7050968381227E-05,6.95927838023636E-06,16.875,0,0
-2.70487034867983E-05,1.07735886558658E-05,16.875,0,0
-2.46940271608764E-05,9.50697176449467E-06,16.875,0,0
-2.91063679469517E-05,1.20674912977847E-05,16.875,0,0
-2.45009578065947E-05,1.18240332085406E-05,16.875,0,0
-2.4379256501561E-05,1.33363273562281E-05,16.875,0,0
-2.07481498364359E-05,1.23323688967503E-05,16.875,0,0
-2.03032141143922E-05,1.0691643183236E-05,16.875,0,0
-1.84406799235148E-05,8.45439535623882E-06,16.875,0,0
-1.70371786225587E-05,8.95494122232776E-06,16.875,0,0
-1.62827491294593E-05,1.08351896415115E-05,16.875,0,0
-1.62032320076833E-05,1.078528657672E-05,16.875,0,0
-1.9048640751862E-05,1.01792629720876E-05,16.875,0,0
-2.03038871404715E-05,9.96614926407347E-06,16.875,0,0
-2.17545129999053E-05,1.17251138362917E-05,16.875,0,0
-2.17292435991112E-05,1.22690698844963E-05,16.875,0,0
-2.49479708145373E-05,1.18943007691996E-05,16.875,0,0
-2.6462688765605E-05,1.04784330687835E-05,16.875,0,0
-2.77819708571769E-05,1.066393997462E-05,16.875,0,0
-2.48800733970711E-05,1.00900833786E-05,16.875,0,0
-2.06076310860226E-05,8.89619150257204E-06,16.875,0,0
-1.6246827726718E-05,8.15173916635104E-06,16.875,0,0
-1.64476314239437E-05,9.85933183983434E-06,16.875,0,0
-1.70096045621904E-05,1.15668799480773E-05,16.875,0,0
-1.61980296979891E-05,1.21386274258839E-05,16.875,0,0
-1.58545062731719E-05,1.14560561996768E-05,16.875,0,0
-1.7173077139887E-05,1.15120637929067E-05,16.875,0,0
-1.51306612679036E-05,1.03347001640941E-05,16.875,0,0
-2.25135227083229E-05,1.47194168675924E-05,16.875,0,0
-1.88026497198734E-05,1.08177637230256E-05,16.875,0,0
-2.3971704649739E-05,1.376200998493E-05,16.875,0,0
-2.29359447985189E-05,1.28901856442099E-05,16.875,0,0
-2.81050706689712E-05,1.57959748321446E-05,16.875,0,0
-3.01602794934297E-05,1.48501012517954E-05,16.875,0,0
-3.29128342855256E-05,1.48596727740369E-05,16.875,0,0
-3.23154927173164E-05,1.47704231494572E-05,16.875,0,0
-3.07531336147804E-05,1.41524096761714E-05,16.875,0,0
-3.09061615553219E-05,1.26498753161286E-05,16.875,0,0
-3.20468534482643E-05,1.12129946501227E-05,16.875,0,0
-3.33333264279645E-05,1.2471791706048E-05,16.875,0,0
-3.20814979204442E-05,1.42297330967267E-05,16.875,0,0
-3.27792549796868E-05,1.61873977049254E-05,16.875,0,0
-3.29734539263882E-05,1.50330806718557E-05,16.875,0,0
-3.4417043934809E-05,1.34590291054337E-05,16.875,0,0
-3.34909236698877E-05,1.02975009212969E-05,16.875,0,0
-3.48054163623601E-05,8.13085807749303E-06,16.875,0,0
-3.62938953912817E-05,5.81714857617044E-06,16.875,0,0
-3.81391255359631E-05,6.06883804721292E-06,16.875,0,0
-3.69894187315367E-05,6.74008333589882E-06,16.875,0,0
-3.54399089701474E-05,8.24892413220368E-06,16.875,0,0
-3.36573575623333E-05,8.98965026863152E-06,16.875,0,0
-3.31946721416898E-05,8.67549715621863E-06,16.875,0,0
-3.36206867359579E-05,9.03678756003501E-06,16.875,0,0
-3.39495745720342E-05,1.04103564808611E-05,16.875,0,0
-2.76175214821706E-05,8.02969771029893E-06,16.875,0,0
-3.90398599847686E-05,9.57945849222597E-06,16.875,0,0
-2.92875793093117E-05,5.01423801324563E-06,16.875,0,0
-3.73356051568408E-05,6.98516078045941E-06,16.875,0,0
-3.35261756845284E-05,5.31221076016664E-06,16.875,0,0
-3.73416878574062E-05,7.25412473912002E-06,16.875,0,0
-3.12139236484654E-05,6.54359382679104E-06,16.875,0,0
-2.96106481982861E-05,7.36878610041458E-06,16.875,0,0
-2.63034326053457E-05,8.03255898063071E-06,16.875,0,0
-2.45413630182156E-05,9.82708843366709E-06,16.875,0,0
-2.41411562456051E-05,1.22093442769255E-05,16.875,0,0
-2.43081176449778E-05,1.31671804410871E-05,16.875,0,0
-2.77967901638476E-05,1.32028990265098E-05,16.875,0,0
-2.84645866486244E-05,1.11655845103087E-05,16.875,0,0
-2.98460054182215E-05,1.03112861324917E-05,16.875,0,0
-2.5630533855292E-05,9.7862639449886E-06,16.875,0,0
-2.32960992434528E-05,1.100751615013E-05,16.875,0,0
-1.84573545993771E-05,1.08123440440977E-05,16.875,0,0
-1.687755502644E-05,1.08232588900137E-05,16.875,0,0
-1.28197170852218E-05,1.01986834124546E-05,16.875,0,0
-1.1157492735947E-05,1.00683328128071E-05,16.875,0,0
-8.10070105217164E-06,9.68505719356472E-06,16.875,0,0
-7.59842578190728E-06,1.11281669887831E-05,16.875,0,0
-6.51248319627484E-06,1.17003119157744E-05,16.875,0,0
-6.45668160359492E-06,1.15063166958862E-05,16.875,0,0
-7.29111025066231E-06,1.04626478787395E-05,16.875,0,0
-9.487083843851E-06,8.70379517436959E-06,16.875,0,0
-1.06868392322212E-05,6.81967458149302E-06,16.875,0,0
-1.8313559849048E-05,9.92600689642131E-06,16.875,0,0
-1.98865491256583E-05,9.1610809249687E-06,16.875,0,0
-2.631760071381E-05,1.27554803839303E-05,16.875,0,0
-2.81333595921751E-05,1.1482337868074E-05,16.875,0,0
-3.10455397993792E-05,1.1588859706535E-05,16.875,0,0
-3.04665827570716E-05,1.07206524262438E-05,16.875,0,0
-3.09847309836186E-05,9.942415090336E-06,16.875,0,0
-3.07384398183785E-05,7.34158766135806E-06,16.875,0,0
-3.05819012282882E-05,6.52072867524112E-06,16.875,0,0
-2.987614061567E-05,7.067361366353E-06,16.875,0,0
-2.80383119388716E-05,7.50959134165896E-06,16.875,0,0
-2.60358028754126E-05,8.50847118272213E-06,16.875,0,0
-2.2936103050597E-05,9.55909672484268E-06,16.875,0,0
-2.26953634410165E-05,1.20068816613639E-05,16.875,0,0
-2.36212381423684E-05,1.33851572172716E-05,16.875,0,0
-2.46891722781584E-05,1.45135718412348E-05,16.875,0,0
-2.19272787944647E-05,1.42972339745029E-05,16.875,0,0
-1.88437425094889E-05,1.45360727401567E-05,16.875,0,0
-1.66343179444084E-05,1.34811552925385E-05,16.875,0,0
-1.79534890776267E-05,1.306799640588E-05,16.875,0,0
-1.98413217731286E-05,1.31711785797961E-05,16.875,0,0
-2.03480794880306E-05,1.50080941239139E-05,16.875,0,0
-1.8974866179633E-05,1.60674262588145E-05,16.875,0,0
-1.92373790923739E-05,1.50034029502422E-05,16.875,0,0
-2.04618718271377E-05,1.33263783936854E-05,16.875,0,0
-2.06183649424929E-05,1.28935907923733E-05,16.875,0,0
-1.60631261678645E-05,9.38444372877711E-06,16.875,0,0
-2.32321435760241E-05,1.31008409880451E-05,16.875,0,0
-1.80995521077421E-05,1.10480814328184E-05,16.875,0,0
-2.26689317059936E-05,1.70607399923028E-05,16.875,0,0
-2.0022638636874E-05,1.72503932844847E-05,16.875,0,0
-2.2570331566385E-05,1.77266028913436E-05,16.875,0,0
-2.16651224036468E-05,1.462945874664E-05,16.875,0,0
-2.39957353187492E-05,1.46036318255938E-05,16.875,0,0
-2.35030784097034E-05,1.57610265887342E-05,16.875,0,0
-2.22120415855898E-05,1.66249974427046E-05,16.875,0,0
-2.13311777770286E-05,1.56665500981035E-05,16.875,0,0
-1.96774999494664E-05,1.326965593762E-05,16.875,0,0
-1.99722981051309E-05,1.23062654893147E-05,16.875,0,0
-1.99203423107974E-05,1.21080411190633E-05,16.875,0,0
-2.07704797503538E-05,1.27660432553967E-05,16.875,0,0
-1.88227222679416E-05,1.16412702482194E-05,16.875,0,0
-1.87767582247034E-05,1.13563792183413E-05,16.875,0,0
-1.77998881554231E-05,9.38154244067846E-06,16.875,0,0
-1.89468937605852E-05,8.89592502062442E-06,16.875,0,0
-1.92934912774945E-05,8.80950938153546E-06,16.875,0,0
-2.07677658181638E-05,8.98557482287288E-06,16.875,0,0
-2.11408278119052E-05,8.07009291747818E-06,16.875,0,0
-2.2320587959257E-05,7.12863857188495E-06,16.875,0,0
-2.31345384236192E-05,5.28935424881638E-06,16.875,0,0
-2.51315195782809E-05,5.21040146850282E-06,16.875,0,0
-2.70518994511804E-05,6.18472176938667E-06,16.875,0,0
-2.86086979031097E-05,6.80986886436585E-06,16.875,0,0
-2.49121094384464E-05,4.63489777757786E-06,16.875,0,0
-3.6729692510562E-05,4.99628549732734E-06,16.875,0,0
-2.88990995613858E-05,3.6145552257949E-06,16.875,0,0
-3.39994185196701E-05,7.46109071769752E-06,16.875,0,0
-2.78925344900927E-05,7.97008397057652E-06,16.875,0,0
-3.21457300742622E-05,9.12120412976947E-06,16.875,0,0
-3.11634939862415E-05,7.37919071980286E-06,16.875,0,0
-3.34008946083486E-05,7.52251344238175E-06,16.875,0,0
-3.29284739564173E-05,8.03509101388045E-06,16.875,0,0
-3.20124781865161E-05,8.00801626610337E-06,16.875,0,0
-3.09067327179946E-05,8.54625614010729E-06,16.875,0,0
-2.86484792013653E-05,1.00617062344099E-05,16.875,0,0
-2.89532617898658E-05,1.09777092802688E-05,16.875,0,0
-2.75706170214107E-05,1.02824415080249E-05,16.875,0,0
-2.85209735011449E-05,9.68142558122054E-06,16.875,0,0
-2.63690199062694E-05,7.72208022681298E-06,16.875,0,0
-2.68805415544193E-05,7.17614511813736E-06,16.875,0,0
-2.49355816777097E-05,7.23289713278064E-06,16.875,0,0
-2.40480731008574E-05,8.51619006425608E-06,16.875,0,0
-1.99670885194791E-05,9.68824315350503E-06,16.875,0,0
-1.78268073796062E-05,1.08507492768695E-05,16.875,0,0
-1.42550679811393E-05,1.11928284241003E-05,16.875,0,0
-1.1692789485096E-05,1.21553612189018E-05,16.875,0,0
-8.3774875747622E-06,1.29273994389223E-05,16.875,0,0
-6.55677922622999E-06,1.32825061882613E-05,16.875,0,0
-6.17439491179539E-06,1.22875499073416E-05,16.875,0,0
-6.93279253027868E-06,1.16103283289704E-05,16.875,0,0
-6.72765463605174E-06,8.30189947009785E-06,16.875,0,0
-1.04779428511392E-05,1.12829475256149E-05,16.875,0,0
-1.0200871656707E-05,8.73385852173669E-06,16.875,0,0
-1.37954884849023E-05,1.20891281767399E-05,16.875,0,0
-1.46418242366053E-05,1.14469521577121E-05,16.875,0,0
-1.7818796550273E-05,1.41287891892716E-05,16.875,0,0
-1.96295986825135E-05,1.33962139443611E-05,16.875,0,0
-2.22383569052909E-05,1.33393496071221E-05,16.875,0,0
-2.60675406025257E-05,1.28501069411868E-05,16.875,0,0
-3.07657464873046E-05,1.32619534269907E-05,16.875,0,0
-3.40976293955464E-05,1.39838730319752E-05,16.875,0,0
-3.48610228684265E-05,1.44971272675321E-05,16.875,0,0
-3.5311073588673E-05,1.50403529914911E-05,16.875,0,0
-3.54384501406457E-05,1.23266727314331E-05,16.875,0,0
-3.60456688213162E-05,1.0138823199668E-05,16.875,0,0
-3.50805676134769E-05,9.63906859396957E-06,16.875,0,0
-3.49132023984566E-05,1.1312708920741E-05,16.875,0,0
-3.54101866832934E-05,1.06107954707113E-05,16.875,0,0
-3.73991279047914E-05,9.49226068769349E-06,16.875,0,0
-3.88584958272986E-05,7.60212196837529E-06,16.875,0,0
-3.89988745155279E-05,7.37259506422561E-06,16.875,0,0
-3.65680898539722E-05,7.99176086729858E-06,16.875,0,0
-3.49976871802937E-05,9.66341576713603E-06,16.875,0,0
-3.58635952579789E-05,1.02570857052342E-05,16.875,0,0
-3.68392975360621E-05,9.76253522821935E-06,16.875,0,0
-3.45499502145685E-05,8.56292354001198E-06,16.875,0,0
-3.01102245430229E-05,7.34705326976837E-06,16.875,0,0
-1.99687983695185E-05,5.04997478856239E-06,16.875,0,0
-2.63905531028286E-05,7.80625578045147E-06,16.875,0,0
-1.75652348843869E-05,8.31965462566586E-06,16.875,0,0
-2.07006469281623E-05,1.10908340502647E-05,16.875,0,0
-1.34212668854161E-05,1.00862544059055E-05,16.875,0,0
-1.5882462321315E-05,1.13667611003621E-05,16.875,0,0
-1.26519953482784E-05,1.15016709969495E-05,16.875,0,0
-1.3757819942839E-05,1.31642145788646E-05,16.875,0,0
-1.2884887837572E-05,1.44984169310192E-05,16.875,0,0
-1.17458394015557E-05,1.46240663525532E-05,16.875,0,0
-1.1197717867617E-05,1.39820394906565E-05,16.875,0,0
-1.20975710160565E-05,1.37107826958527E-05,16.875,0,0
-1.49701281770831E-05,1.44161058415193E-05,16.875,0,0
-1.41819800774101E-05,1.30503576656338E-05,16.875,0,0
-1.55380530486582E-05,1.09463844637503E-05,16.875,0,0
-1.68666028912412E-05,9.36235210247105E-06,16.875,0,0
-2.16715397982625E-05,1.04876417026389E-05,16.875,0,0
-2.21531154238619E-05,1.11070039565675E-05,16.875,0,0
-2.2332505977829E-05,1.06206216514693E-05,16.875,0,0
-2.00426657102071E-05,9.05538763618097E-06,16.875,0,0
-2.01156199182151E-05,8.91355375642888E-06,16.875,0,0
-1.89519341802225E-05,9.83744939730968E-06,16.875,0,0
-1.9202847397537E-05,1.06453908301773E-05,16.875,0,0
-1.86111174116377E-05,1.06278484963696E-05,16.875,0,0
-1.89392139873235E-05,1.14327176561346E-05,16.875,0,0
-2.04067055165069E-05,1.24972630146658E-05,16.875,0,0
-2.25773419515463E-05,1.26491095215897E-05,16.875,0,0
-1.81279683602043E-05,9.11276674742112E-06,16.875,0,0
-2.51913279498694E-05,1.21867087727878E-05,16.875,0,0
-1.89986876648618E-05,9.73800615611253E-06,16.875,0,0
-2.52020909101702E-05,1.41360351335607E-05,16.875,0,0
-2.41666784859262E-05,1.10408755062963E-05,16.875,0,0
-3.03780925605679E-05,8.84324799699243E-06,16.875,0,0
-3.13352647935972E-05,6.35791911918204E-06,16.875,0,0
-3.39668113156222E-05,8.05145282356534E-06,16.875,0,0
-3.43819883710239E-05,8.40977008920163E-06,16.875,0,0
-3.44784129993059E-05,1.02844396678847E-05,21.796875,0,0
-3.38619720423594E-05,1.31565493575181E-05,21.796875,0,0
-3.14638200507034E-05,1.36007092805812E-05,21.796875,0,0
-3.01547624985687E-05,1.25659662444377E-05,21.796875,0,0
-2.75638230959885E-05,1.14193908302695E-05,21.796875,0,0
-2.77360795735149E-05,1.3034309631621E-05,21.796875,0,0
-2.67705363512505E-05,1.2574531865539E-05,21.796875,0,0
-2.81462198472582E-05,1.13809292088263E-05,21.796875,0,0
-2.71218596026301E-05,1.0066924005514E-05,21.796875,0,0
-2.75581751338905E-05,1.16555938802776E-05,21.796875,0,0
-2.66374481725506E-05,1.18500202006544E-05,21.796875,0,0
-2.72667857643683E-05,1.1586511391215E-05,21.796875,0,0
-2.70047694357345E-05,1.10648234112887E-05,21.796875,0,0
-2.70573091256665E-05,1.22043111332459E-05,21.796875,0,0
-2.55939503404079E-05,1.35338050313294E-05,21.796875,0,0
-2.63802266999846E-05,1.49510087794624E-05,21.796875,0,0
-2.95430763799232E-05,1.52086713569588E-05,21.796875,0,0
-3.30808688886464E-05,1.45597741720849E-05,21.796875,0,0
-2.77580147667322E-05,9.11852930585155E-06,21.796875,0,0
-3.88356638723053E-05,1.08668218672392E-05,21.796875,0,0
-2.8864604246337E-05,7.8333068813663E-06,21.796875,0,0
-3.65826163033489E-05,1.28776637211558E-05,21.796875,0,0
-3.05291105178185E-05,1.07650603240472E-05,21.796875,0,0
-3.37028868671041E-05,1.19752721730038E-05,21.796875,0,0
-3.09973620460369E-05,1.20961312859436E-05,21.796875,0,0
-3.31987939716782E-05,1.52653574332362E-05,21.796875,0,0
-3.21929765050299E-05,1.62994710990461E-05,21.796875,0,0
-3.1507748644799E-05,1.54742556333076E-05,21.796875,0,0
-3.07211084873416E-05,1.34676120069344E-05,21.796875,0,0
-3.01199670502683E-05,1.21183384180767E-05,21.796875,0,0
-3.20930121233687E-05,1.26864697449491E-05,21.796875,0,0
-3.09949427901302E-05,1.12056641228264E-05,21.796875,0,0
-3.20987528539263E-05,9.91431807051413E-06,21.796875,0,0
-2.90544503513956E-05,8.6361869762186E-06,21.796875,0,0
-2.86338545265608E-05,1.01446075859712E-05,21.796875,0,0
-2.63159363385057E-05,1.02920821518637E-05,21.796875,0,0
-2.71200678980676E-05,1.06475745269563E-05,21.796875,0,0
-2.42696951318067E-05,9.68895710684592E-06,21.796875,0,0
-2.40710724028759E-05,1.0004600881075E-05,21.796875,0,0
-2.29761808441253E-05,9.90444368653698E-06,21.796875,0,0
-2.33762002608273E-05,9.17911074793665E-06,21.796875,0,0
-2.14715328183956E-05,6.47399110675906E-06,21.796875,0,0
-1.90764076251071E-05,5.67438064535963E-06,21.796875,0,0
-1.63646163855447E-05,7.63695425121114E-06,21.796875,0,0
-1.49645156852785E-05,1.03004449556465E-05,21.796875,0,0
-1.44920986713259E-05,9.12636642169673E-06,21.796875,0,0
-2.30794667004375E-05,1.24350672194851E-05,21.796875,0,0
-1.91356830328004E-05,9.1226065705996E-06,21.796875,0,0
-2.08550591196399E-05,1.26685354189249E-05,21.796875,0,0
-1.71286610566312E-05,1.33250141516328E-05,21.796875,0,0
-1.7605392713449E-05,1.66060162882786E-05,21.796875,0,0
-1.56494261318585E-05,1.44831010402413E-05,21.796875,0,0
-1.50095011122175E-05,1.33662661028211E-05,21.796875,0,0
-1.39114572448307E-05,1.28009160107467E-05,21.796875,0,0
-1.36554344862816E-05,1.27900539155235E-05,21.796875,0,0
-1.50968717207434E-05,1.20142240120913E-05,21.796875,0,0
-1.66015943250386E-05,1.0857377674256E-05,21.796875,0,0
-1.93257601495134E-05,1.20128197522718E-05,21.796875,0,0
-2.11222122743493E-05,1.25336528071784E-05,21.796875,0,0
-2.40136287175119E-05,1.30305415950716E-05,21.796875,0,0
-2.49910863203695E-05,1.0917395229626E-05,21.796875,0,0
-2.67282848653849E-05,8.68586903379764E-06,21.796875,0,0
-2.63320198428119E-05,6.67363883621874E-06,21.796875,0,0
-2.52880417974666E-05,8.15299517853418E-06,21.796875,0,0
-2.23045244638342E-05,8.96907658898272E-06,21.796875,0,0
-2.02681330847554E-05,8.32688601803966E-06,21.796875,0,0
-1.75876321009127E-05,6.26314385954174E-06,21.796875,0,0
-1.51971289596986E-05,6.66210962663172E-06,21.796875,0,0
-1.35030250021373E-05,8.51984896144131E-06,21.796875,0,0
-1.3353967005969E-05,9.98498489934718E-06,21.796875,0,0
-1.36237204060308E-05,9.61238947638776E-06,21.796875,0,0
-1.50323157868115E-05,8.31995748740155E-06,21.796875,0,0
-1.37578181238496E-05,5.86418082093587E-06,21.796875,0,0
-1.88795511348872E-05,8.83861048350809E-06,21.796875,0,0
-1.33180119519238E-05,8.75785099196946E-06,21.796875,0,0
-1.73266143974615E-05,1.20325003081234E-05,21.796875,0,0
-1.369211167912E-05,1.17934077934478E-05,21.796875,0,0
-1.08548238131334E-05,1.33638213810627E-05,21.796875,0,0
-3.09090250993904E-06,1.20953973237192E-05,21.796875,0,0
-6.16064781411296E-08,1.17697072710143E-05,21.796875,0,0
4.13613861383055E-07,1.19608666864224E-05,21.796875,0,0
-1.52381835505366E-06,1.3325528925634E-05,21.796875,0,0
-4.63840206066379E-06,1.53619475895539E-05,21.796875,0,0
-8.25127153802896E-06,1.68005863088183E-05,21.796875,0,0
-1.37838924274547E-05,1.78066566149937E-05,21.796875,0,0
-1.72514246514766E-05,1.63623317348538E-05,21.796875,0,0
-2.0873869289062E-05,1.46832517202711E-05,21.796875,0,0
-2.28920398512855E-05,1.25742863019696E-05,21.796875,0,0
-2.62905414274428E-05,1.15485099740908E-05,21.796875,0,0
-2.77535236818949E-05,1.01602900031139E-05,21.796875,0,0
-3.1004074116936E-05,9.95653135760222E-06,21.796875,0,0
-3.38348181685433E-05,1.02487374533666E-05,21.796875,0,0
-3.75352065020707E-05,1.10046212284942E-05,21.796875,0,0
-3.93754926335532E-05,1.19129326776601E-05,21.796875,0,0
-3.99150194425602E-05,1.34027777676238E-05,21.796875,0,0
-3.82008547603618E-05,1.37673832796281E-05,21.796875,0,0
-3.63776453013998E-05,1.3609917004942E-05,21.796875,0,0
-3.62717655661982E-05,1.38460482048686E-05,21.796875,0,0
-3.7704059650423E-05,1.51707627082942E-05,21.796875,0,0
-3.06024885503575E-05,1.12884981717798E-05,21.796875,0,0
-4.3834912503371E-05,1.3181175745558E-05,21.796875,0,0
-3.23972635669634E-05,5.75180547457421E-06,21.796875,0,0
-3.86016108677723E-05,8.92397929419531E-06,21.796875,0,0
-3.14611970679834E-05,7.94337483966956E-06,21.796875,0,0
-3.57507342414465E-05,9.78066600509919E-06,21.796875,0,0
-3.17386875394732E-05,7.16126805855311E-06,21.796875,0,0
-3.1749968911754E-05,6.66373080093763E-06,21.796875,0,0
-2.88416940747993E-05,5.42024281457998E-06,21.796875,0,0
-2.68441090156557E-05,5.71956479689106E-06,21.796875,0,0
-2.61801997112343E-05,5.77001355850371E-06,21.796875,0,0
-2.57032770605292E-05,4.94407731821411E-06,21.796875,0,0
-2.79322503047297E-05,6.12017129242304E-06,21.796875,0,0
-2.67757204710506E-05,6.41970973447314E-06,21.796875,0,0
-2.71270637313137E-05,6.67243375573889E-06,21.796875,0,0
-2.28250755753834E-05,4.78184210805921E-06,21.796875,0,0
-2.18340392166283E-05,6.62163392917137E-06,21.796875,0,0
-1.86465258593671E-05,9.7396796263638E-06,21.796875,0,0
-1.92302341019968E-05,1.26380136862281E-05,21.796875,0,0
-1.77160709426971E-05,1.13177638922934E-05,21.796875,0,0
-1.9105385945295E-05,1.00442794064293E-05,21.796875,0,0
-1.96835480892332E-05,8.2917176769115E-06,21.796875,0,0
-2.23952283704421E-05,7.87850876804441E-06,21.796875,0,0
-2.26414995267987E-05,8.43139514472568E-06,21.796875,0,0
-2.39554119616514E-05,9.52024038269883E-06,21.796875,0,0
-2.586908522062E-05,8.65057700139005E-06,21.796875,0,0
-2.69686515821377E-05,7.71383838582551E-06,21.796875,0,0
-2.19515222852351E-05,6.96798815624788E-06,21.796875,0,0
-3.03343986161053E-05,1.07649393612519E-05,21.796875,0,0
-2.16206008190056E-05,1.07808518805541E-05,21.796875,0,0
-2.65100843535038E-05,1.49173001773306E-05,21.796875,0,0
-2.25108196900692E-05,1.40260035550455E-05,21.796875,0,0
-2.68828753178241E-05,1.30604321384453E-05,21.796875,0,0
-2.52237041422632E-05,1.00355546237552E-05,21.796875,0,0
-2.53466350841336E-05,8.32256955618504E-06,21.796875,0,0
-2.35153620451456E-05,7.06870469002752E-06,21.796875,0,0
-2.38425491261296E-05,8.0644076660974E-06,21.796875,0,0
-2.38949050981319E-05,9.88307510851882E-06,21.796875,0,0
-2.17843080463354E-05,1.09393440652639E-05,21.796875,0,0
-2.05615488084732E-05,1.12937068479368E-05,21.796875,0,0
-1.74778397195041E-05,1.05314047686988E-05,21.796875,0,0
-1.68252081493847E-05,1.08989606815157E-05,21.796875,0,0
-1.41878626891412E-05,9.81000084721018E-06,21.796875,0,0
-1.43461093102815E-05,9.49578134168405E-06,21.796875,0,0
-1.28997735373559E-05,1.01639625427197E-05,21.796875,0,0
-1.45853373396676E-05,1.31109900394222E-05,21.796875,0,0
-1.42959652293939E-05,1.40618340083165E-05,21.796875,0,0
-1.57211488840403E-05,1.30772150441771E-05,21.796875,0,0
-1.58750608534319E-05,1.26575514514116E-05,21.796875,0,0
-1.8448334230925E-05,1.47835198731627E-05,21.796875,0,0
-2.01909388124477E-05,1.64780994964531E-05,21.796875,0,0
-2.13877920032246E-05,1.64738285093335E-05,21.796875,0,0
-2.18156346818432E-05,1.4063634807826E-05,21.796875,0,0
-2.25236435653642E-05,1.08289214040269E-05,21.796875,0,0
-2.08566398214316E-05,6.80768243910279E-06,21.796875,0,0
-3.23412823490798E-05,1.05983754110639E-05,21.796875,0,0
-2.79952910204884E-05,1.12373127194587E-05,21.796875,0,0
-3.23074928019196E-05,1.48560047819046E-05,21.796875,0,0
-2.7438101824373E-05,1.18960315376171E-05,21.796875,0,0
-3.15922952722758E-05,1.08604281194857E-05,21.796875,0,0
-3.17088051815517E-05,1.04157879832201E-05,21.796875,0,0
-3.43312858603895E-05,1.19530986921745E-05,21.796875,0,0
-3.41321938321926E-05,1.12133038783213E-05,21.796875,0,0
-3.30207149090711E-05,9.97713868855499E-06,21.796875,0,0
-3.26303088513669E-05,8.39707990962779E-06,21.796875,0,0
-3.22739506373182E-05,7.98824748926563E-06,21.796875,0,0
-3.32812996930443E-05,9.97359074972337E-06,21.796875,0,0
-3.20778526656795E-05,1.08064214145998E-05,21.796875,0,0
-3.2472686143592E-05,1.09926131699467E-05,21.796875,0,0
-2.98006980301579E-05,1.07318765003583E-05,21.796875,0,0
-2.78402694675606E-05,1.18573079816997E-05,21.796875,0,0
-2.30041478062049E-05,1.11847402877174E-05,21.796875,0,0
-2.07628418138484E-05,1.01196674222592E-05,21.796875,0,0
-1.78104764927411E-05,9.29927318793489E-06,21.796875,0,0
-1.80794468178647E-05,1.07603882497642E-05,21.796875,0,0
-1.95924421859672E-05,1.22760447993642E-05,21.796875,0,0
-2.24487757805036E-05,1.32542563733296E-05,21.796875,0,0
-2.41884954448324E-05,1.33612538775196E-05,21.796875,0,0
-2.61300774582196E-05,1.4863191609038E-05,21.796875,0,0
-2.69786050921539E-05,1.44620116770966E-05,21.796875,0,0
-2.82055661955383E-05,1.29036161524709E-05,21.796875,0,0
-2.35572915698867E-05,1.03395632322645E-05,21.796875,0,0
-3.28162204823457E-05,1.47148357427795E-05,21.796875,0,0
-2.36802570725558E-05,1.00627021311084E-05,21.796875,0,0
-2.82276469079079E-05,1.08043577711214E-05,21.796875,0,0
-2.05926644412102E-05,8.60328691487666E-06,21.796875,0,0
-2.04054358619032E-05,1.00428405858111E-05,21.796875,0,0
-1.6329729987774E-05,7.75236276240321E-06,21.796875,0,0
-1.92482184502296E-05,7.9497567639919E-06,21.796875,0,0
-2.03901545319241E-05,8.19730757939396E-06,21.796875,0,0
-2.11900551221333E-05,9.86684608506039E-06,21.796875,0,0
-2.00272170332028E-05,1.11260305857286E-05,21.796875,0,0
-1.76487210410414E-05,1.16429391709971E-05,21.796875,0,0
-1.91346589417662E-05,1.27251769299619E-05,21.796875,0,0
-1.99581936612958E-05,1.2123146916565E-05,21.796875,0,0
-2.2930247723707E-05,1.16990286187502E-05,21.796875,0,0
-2.11699007195421E-05,1.02962703749654E-05,21.796875,0,0
-2.12896302400623E-05,1.0849381396838E-05,21.796875,0,0
-1.99911992240231E-05,1.02115018307813E-05,21.796875,0,0
-2.13409548450727E-05,1.02273461379809E-05,21.796875,0,0
-1.98861962417141E-05,9.19635022000875E-06,21.796875,0,0
-2.11286005651345E-05,9.79359992925311E-06,21.796875,0,0
-2.24422947212588E-05,9.20105230761692E-06,21.796875,0,0
-2.52730842476012E-05,8.12439793662634E-06,21.796875,0,0
-2.5831632228801E-05,7.90900321590016E-06,21.796875,0,0
-2.63394322246313E-05,9.56253825279418E-06,21.796875,0,0
-2.81581396848196E-05,1.04602795545361E-05,21.796875,0,0
-3.11606017930899E-05,9.75198599917348E-06,21.796875,0,0
-2.75180882454151E-05,6.82175596011803E-06,21.796875,0,0
-3.94661474274471E-05,1.00563565865741E-05,21.796875,0,0
-3.05117973766755E-05,8.2133301475551E-06,21.796875,0,0
-3.66077474609483E-05,1.03580041468376E-05,21.796875,0,0
-2.99913026537979E-05,1.02722497103969E-05,21.796875,0,0
-3.42506718880031E-05,1.28657675304567E-05,21.796875,0,0
-3.18867132591549E-05,1.25138258226798E-05,21.796875,0,0
-3.26556255458854E-05,1.22537549032131E-05,21.796875,0,0
-2.9636034014402E-05,1.16908631753176E-05,21.796875,0,0
-2.63464553427184E-05,1.17112758744042E-05,21.796875,0,0
-2.3270042220247E-05,1.16875853564125E-05,21.796875,0,0
-2.05767792067491E-05,1.01105906651355E-05,21.796875,0,0
-2.05722462851554E-05,9.00703253137181E-06,21.796875,0,0
-1.75268705788767E-05,8.00974885351025E-06,21.796875,0,0
-1.73737098521087E-05,7.41211079002824E-06,21.796875,0,0
-1.67189064086415E-05,5.83095106776454E-06,21.796875,0,0
-2.23828064918052E-05,6.03190665060538E-06,21.796875,0,0
-2.56035928032361E-05,7.26045209376025E-06,21.796875,0,0
-2.83170284092193E-05,1.06459283415461E-05,21.796875,0,0
-2.72487413894851E-05,1.3869056601834E-05,21.796875,0,0
-3.01629424939165E-05,1.56644509843318E-05,21.796875,0,0
-3.10431823891122E-05,1.41925347634242E-05,21.796875,0,0
-3.16027144435793E-05,1.24657181004295E-05,21.796875,0,0
-2.98518552881433E-05,1.19695123430574E-05,21.796875,0,0
-2.8471071345848E-05,1.26323584481725E-05,21.796875,0,0
-2.6024585167761E-05,1.38258974402561E-05,21.796875,0,0
-2.38600496231811E-05,1.43024171848083E-05,21.796875,0,0
-1.71927295014029E-05,1.06075030998909E-05,21.796875,0,0
-2.32941656577168E-05,1.36598264361965E-05,21.796875,0,0
-1.59523897309555E-05,8.25363258627476E-06,21.796875,0,0
-1.93531086551957E-05,1.09857355710119E-05,21.796875,0,0
-1.42949975270312E-05,9.03606178326299E-06,21.796875,0,0
-1.52956708916463E-05,1.04299060694757E-05,21.796875,0,0
-1.24972220874042E-05,8.00505131337559E-06,21.796875,0,0
-1.14339645733708E-05,7.44909766581259E-06,21.796875,0,0
-8.1056550698122E-06,7.75490298110526E-06,21.796875,0,0
-4.72833789899596E-06,8.97036443348043E-06,21.796875,0,0
-7.32512546619546E-07,9.67253708950011E-06,21.796875,0,0
2.61671493717586E-06,9.33506998990197E-06,21.796875,0,0
1.36864593969221E-06,9.0525845735101E-06,21.796875,0,0
-3.79431043029399E-07,8.43977068143431E-06,21.796875,0,0
-4.37971948485938E-06,9.31186423258623E-06,26.54296875,0,0
-6.32114915788407E-06,9.29281031858409E-06,26.54296875,0,0
-1.01283831099863E-05,1.10579339889227E-05,26.54296875,0,0
-1.24956259242026E-05,1.2287957360968E-05,26.54296875,0,0
-1.64743214554619E-05,1.47471582749858E-05,26.54296875,0,0
-1.88542508112732E-05,1.54054559970973E-05,26.54296875,0,0
-2.21647169382777E-05,1.61322022904642E-05,26.54296875,0,0
-2.35267198149813E-05,1.4654295227956E-05,26.54296875,0,0
-2.63183919742005E-05,1.32784607558278E-05,26.54296875,0,0
-2.84084126178641E-05,1.23271374832257E-05,26.54296875,0,0
-2.94914789265022E-05,1.28270348795922E-05,26.54296875,0,0
-3.02703247143654E-05,1.28349356600665E-05,26.54296875,0,0
-3.28099449689034E-05,1.02991516541806E-05,26.54296875,0,0
-2.84343950625043E-05,5.86577516514808E-06,26.54296875,0,0
-3.98066331399605E-05,9.23164043342695E-06,26.54296875,0,0
-2.8840295271948E-05,1.05972876554006E-05,26.54296875,0,0
-3.61276033800095E-05,1.44881305459421E-05,26.54296875,0,0
-3.08404087263625E-05,1.21802495414158E-05,26.54296875,0,0
-3.6604302295018E-05,1.18360558190034E-05,26.54296875,0,0
-3.56852397089824E-05,1.1970132618444E-05,26.54296875,0,0
-3.76868374587502E-05,1.28930596474675E-05,26.54296875,0,0
-3.67773318430409E-05,1.20685144793242E-05,26.54296875,0,0
-3.77524411305785E-05,1.16526780402637E-05,26.54296875,0,0
-3.90700006391853E-05,1.05058070403174E-05,26.54296875,0,0
-3.81604550057091E-05,8.61906937643653E-06,26.54296875,0,0
-3.84851045964751E-05,8.64113553689094E-06,26.54296875,0,0
-3.60789090336766E-05,9.6309267973993E-06,26.54296875,0,0
-3.75270137737971E-05,1.07396435851115E-05,26.54296875,0,0
-3.67713546438608E-05,1.0403101441625E-05,26.54296875,0,0
-3.88896442018449E-05,1.07444593595574E-05,26.54296875,0,0
-3.78299555450212E-05,9.80475670075975E-06,26.54296875,0,0
-3.98658266931307E-05,8.37950574350543E-06,26.54296875,0,0
-3.88188054785132E-05,6.60897967463825E-06,26.54296875,0,0
-3.8186291931197E-05,6.43508383291191E-06,26.54296875,0,0
-3.48189605574589E-05,6.50875199426082E-06,26.54296875,0,0
-3.29022186633665E-05,7.16604517947417E-06,26.54296875,0,0
-3.01839554595063E-05,6.55671192362206E-06,26.54296875,0,0
-2.84410161839332E-05,6.21958133706357E-06,26.54296875,0,0
-2.54921542364173E-05,6.4510031734244E-06,26.54296875,0,0
-2.20394558709813E-05,7.49820219425601E-06,26.54296875,0,0
-1.51576514326734E-05,7.07936078470084E-06,26.54296875,0,0
-2.06472504942212E-05,1.0457565622346E-05,26.54296875,0,0
-1.52677966980264E-05,8.87455189513275E-06,26.54296875,0,0
-1.94399344763951E-05,1.03314550869982E-05,26.54296875,0,0
-1.68568058143137E-05,8.1392554420745E-06,26.54296875,0,0
-2.05003398150438E-05,9.54806273512077E-06,26.54296875,0,0
-2.04867174034007E-05,7.67844630900072E-06,26.54296875,0,0
-2.20632227865281E-05,6.61137255519861E-06,26.54296875,0,0
-2.0715146092698E-05,6.79294680594467E-06,26.54296875,0,0
-1.93066498468397E-05,7.55918063077843E-06,26.54296875,0,0
-1.81066588993417E-05,7.31054251446039E-06,26.54296875,0,0
-1.67354155564681E-05,6.3632323872298E-06,26.54296875,0,0
-1.72349627973745E-05,7.50564322515856E-06,26.54296875,0,0
-1.66051886481E-05,9.00902523426339E-06,26.54296875,0,0
-1.74259112100117E-05,1.1017457836715E-05,26.54296875,0,0
-1.5687539416831E-05,1.02633912320016E-05,26.54296875,0,0
-1.50881269291858E-05,8.93632659426657E-06,26.54296875,0,0
-1.36885219035321E-05,7.81610287958756E-06,26.54296875,0,0
-1.4987914255471E-05,8.72111195349135E-06,26.54296875,0,0
-1.5371733752545E-05,9.51664515014272E-06,26.54296875,0,0
-1.83152042154688E-05,1.03185138868866E-05,26.54296875,0,0
-2.24632949539227E-05,1.04241025837837E-05,26.54296875,0,0
-2.78918814728968E-05,1.25123415273265E-05,26.54296875,0,0
-3.22460837196559E-05,1.42055478136172E-05,26.54296875,0,0
-3.57882927346509E-05,1.30913131215493E-05,26.54296875,0,0
-3.64555526175536E-05,1.07796186057385E-05,26.54296875,0,0
-3.54671428794973E-05,1.03930296972976E-05,26.54296875,0,0
-2.77636045211693E-05,9.8000618891092E-06,26.54296875,0,0
-3.75134768546559E-05,1.47242490129429E-05,26.54296875,0,0
-2.39271375903627E-05,1.18892330647213E-05,26.54296875,0,0
-2.89696945401374E-05,1.35778955154819E-05,26.54296875,0,0
-2.45197879849002E-05,1.01968453236623E-05,26.54296875,0,0
-2.97548049275065E-05,1.03791908259154E-05,26.54296875,0,0
-2.68133990175556E-05,1.00344732345548E-05,26.54296875,0,0
-2.97433271043701E-05,1.23407253340702E-05,26.54296875,0,0
-2.93434823106509E-05,1.29045174617204E-05,26.54296875,0,0
-2.79412961390335E-05,1.26875929709058E-05,26.54296875,0,0
-2.66421993728727E-05,1.28619039969635E-05,26.54296875,0,0
-2.57934098044643E-05,1.36745047711884E-05,26.54296875,0,0
-2.81589454971254E-05,1.42117687573773E-05,26.54296875,0,0
-2.69947249762481E-05,1.20955191960093E-05,26.54296875,0,0
-2.74958165391581E-05,1.1162232112838E-05,26.54296875,0,0
-2.4140394089045E-05,1.10976798168849E-05,26.54296875,0,0
-2.37505591940135E-05,1.32658060465474E-05,26.54296875,0,0
-2.05983706109691E-05,1.34916417664499E-05,26.54296875,0,0
-2.04651241801912E-05,1.38990035338793E-05,26.54296875,0,0
-1.84514319698792E-05,1.36798216772149E-05,26.54296875,0,0
-1.89711918210378E-05,1.38144205266144E-05,26.54296875,0,0
-1.71850497281412E-05,1.29726913655759E-05,26.54296875,0,0
-1.67254820553353E-05,1.29078080135514E-05,26.54296875,0,0
-1.642800270929E-05,1.21367284009466E-05,26.54296875,0,0
-1.89594811672578E-05,1.12185216494254E-05,26.54296875,0,0
-2.00492486328585E-05,1.11571698653279E-05,26.54296875,0,0
-1.71795381902484E-05,1.15946277219336E-05,26.54296875,0,0
-9.17691886570537E-06,8.58102339407196E-06,26.54296875,0,0
-1.10724467958789E-05,1.15309412649367E-05,26.54296875,0,0
-6.24544600213994E-06,8.71941119839903E-06,26.54296875,0,0
-6.34183015790768E-06,1.16237233669381E-05,26.54296875,0,0
-5.21391598340415E-07,9.64024729910307E-06,26.54296875,0,0
-4.06693970944616E-07,1.06368233900866E-05,26.54296875,0,0
-1.76392472894804E-06,1.07672167359851E-05,26.54296875,0,0
-6.01094643570832E-06,1.41272566906991E-05,26.54296875,0,0
-6.83114194544032E-06,1.51058884512167E-05,26.54296875,0,0
-7.63636217016028E-06,1.41234831971815E-05,26.54296875,0,0
-9.97910046862671E-06,1.2978238373762E-05,26.54296875,0,0
-1.14513049993548E-05,1.25139513329486E-05,26.54296875,0,0
-1.31174429043313E-05,1.26615186673007E-05,26.54296875,0,0
-1.43056377055473E-05,1.17025319923414E-05,26.54296875,0,0
-1.75265085999854E-05,1.20105705718743E-05,26.54296875,0,0
-1.98035795619944E-05,1.13029045678559E-05,26.54296875,0,0
-2.25610619963845E-05,1.15219245344633E-05,26.54296875,0,0
-2.38467728195246E-05,1.07351170299808E-05,26.54296875,0,0
-2.5619747248129E-05,9.96322523860727E-06,26.54296875,0,0
-2.54139231401496E-05,7.470904620277E-06,26.54296875,0,0
-2.58132968156133E-05,7.17756483936682E-06,26.54296875,0,0
