biceps_emg, triceps_emg, subject_position, position_estimate, brace_position
-2.63572164840298E-05,9.39145593292778E-06,1.7578125,0,0
-2.70644213742344E-05,1.11726849354454E-05,1.7578125,0,0
-2.27213586185826E-05,1.0747998203442E-05,1.7578125,0,0
-3.39108846674208E-05,1.4242019460653E-05,1.7578125,0,0
-2.82971541309962E-05,9.10728977032704E-06,1.7578125,0,0
-3.55182783096097E-05,1.20424338092562E-05,1.7578125,0,0
-3.20940271194559E-05,9.33869705477264E-06,1.7578125,0,0
-3.50853042618837E-05,8.85707686393289E-06,1.7578125,0,0
-3.18730417347979E-05,6.71492762194248E-06,1.7578125,0,0
-3.31863266183063E-05,9.04390617506579E-06,1.7578125,0,0
-3.25426080962643E-05,1.1700017239491E-05,1.7578125,0,0
-3.16600817313883E-05,1.35568916448392E-05,1.7578125,0,0
-3.0135935958242E-05,1.31307988340268E-05,1.7578125,0,0
-2.83870576822665E-05,8.65200854605064E-06,1.7578125,0,0
-2.89644758595387E-05,3.87873615181888E-06,1.7578125,0,0
-2.80059521173825E-05,1.19773903861642E-06,1.7578125,0,0
-2.95358895527897E-05,3.56120358446788E-06,1.7578125,0,0
-2.7699312340701E-05,6.14929604125791E-06,1.7578125,0,0
-2.69664997176733E-05,9.18850491871126E-06,1.7578125,0,0
-2.37754666159162E-05,1.08802041722811E-05,1.7578125,0,0
-2.32125767070102E-05,1.39982594191679E-05,1.7578125,0,0
-2.05970227398211E-05,1.56934165715938E-05,1.7578125,0,0
-1.95827415154781E-05,1.60338950081496E-05,1.7578125,0,0
-1.89809688890819E-05,1.37215538416058E-05,1.7578125,0,0
-2.13319563044934E-05,1.27035928016994E-05,1.7578125,0,0
-2.20000620174687E-05,1.23457330118981E-05,1.7578125,0,0
-2.29897723329486E-05,1.13106789285666E-05,1.7578125,0,0
-2.23144525079988E-05,9.5283312475658E-06,1.7578125,0,0
-2.06415897991974E-05,9.56887197389733E-06,1.7578125,0,0
-1.62333853950258E-05,1.02274625533028E-05,1.7578125,0,0
-2.41805446421495E-05,1.68629994732328E-05,1.7578125,0,0
-2.06911008717725E-05,1.51484255184187E-05,1.7578125,0,0
-2.52409354288829E-05,1.62964988703607E-05,1.7578125,0,0
-2.1091573216836E-05,1.33760368044022E-05,1.7578125,0,0
-2.31612066272646E-05,1.40042284328956E-05,1.7578125,0,0
-2.2193300537765E-05,1.3188351658755E-05,1.7578125,0,0
-2.40452864090912E-05,1.43282441058545E-05,1.7578125,0,0
-2.46082418016158E-05,1.36053886308218E-05,1.7578125,0,0
-2.52050140261417E-05,1.23661366160377E-05,1.7578125,0,0
-2.54845781455515E-05,1.19257647384075E-05,1.7578125,0,0
-2.50798184424639E-05,1.20889371828525E-05,1.7578125,0,0
-2.73913246928714E-05,1.28728834170033E-05,1.7578125,0,0
-2.84999950963538E-05,1.26621662275284E-05,1.7578125,0,0
-3.02699027088238E-05,1.38645364131662E-05,1.7578125,0,0
-2.91870146611473E-05,1.42140488605946E-05,1.7578125,0,0
-2.87137299892493E-05,1.42537646752317E-05,1.7578125,0,0
-2.64958489424316E-05,1.25525084513356E-05,1.7578125,0,0
-2.68711683020229E-05,1.28816454889602E-05,1.7578125,0,0
-2.66821261902805E-05,1.28731717268238E-05,1.7578125,0,0
-2.69176252913894E-05,1.25953138194745E-05,1.7578125,0,0
-2.50439989031293E-05,1.0245924386254E-05,1.7578125,0,0
-2.49531349254539E-05,8.30306362331612E-06,1.7578125,0,0
-2.58886575466022E-05,7.41744270271738E-06,1.7578125,0,0
-2.66788720182376E-05,6.99017527949763E-06,1.7578125,0,0
-2.60861834249226E-05,6.56394422549056E-06,1.7578125,0,0
-2.5627950890339E-05,5.47469198863837E-06,1.7578125,0,0
-2.0961495465599E-05,3.15381271320803E-06,1.7578125,0,0
-2.99381208606064E-05,4.69179485662607E-06,1.7578125,0,0
-2.2645859644399E-05,6.07308311373345E-06,1.7578125,0,0
-2.81709235423477E-05,9.23300649446901E-06,1.7578125,0,0
-2.42176283791196E-05,7.94015340943588E-06,1.7578125,0,0
-2.64907084783772E-05,6.09288326813839E-06,1.7578125,0,0
-2.2964306481299E-05,4.74539137940155E-06,1.7578125,0,0
-2.33504470088519E-05,6.13705424257205E-06,1.7578125,0,0
-2.28673306992278E-05,7.10856238583801E-06,1.7578125,0,0
-2.34841609199066E-05,7.93686740507837E-06,1.7578125,0,0
-2.37292042584158E-05,8.79288108990295E-06,1.7578125,0,0
-2.29474462685175E-05,1.01476189229288E-05,1.7578125,0,0
-2.35068437177688E-05,1.22642868518597E-05,1.7578125,0,0
-2.19790454139002E-05,1.30013158923248E-05,1.7578125,0,0
-2.35524603340309E-05,1.20651075121714E-05,1.7578125,0,0
-2.38139928114833E-05,9.91590241028462E-06,1.7578125,0,0
-2.56659768638201E-05,1.01254499895731E-05,1.7578125,0,0
-2.40016670431942E-05,1.20663653433439E-05,1.7578125,0,0
-2.37546064454364E-05,1.39335679705255E-05,1.7578125,0,0
-2.25407093239482E-05,1.3124466931913E-05,1.7578125,0,0
-2.37123240367509E-05,1.14927961476496E-05,1.7578125,0,0
-2.24226532736793E-05,1.15926695798407E-05,1.7578125,0,0
-2.11587102967314E-05,1.43400702654617E-05,1.7578125,0,0
-1.96834080270492E-05,1.57292961375788E-05,1.7578125,0,0
-2.09190402529202E-05,1.47005448525306E-05,1.7578125,0,0
-2.17526776395971E-05,1.33743478727411E-05,1.7578125,0,0
-2.24227278522449E-05,1.4346650459629E-05,1.7578125,0,0
-1.83872652996797E-05,1.25070682770456E-05,1.7578125,0,0
-2.51969941018615E-05,1.76905505213654E-05,1.7578125,0,0
-1.79488215508172E-05,1.24739162856713E-05,1.7578125,0,0
-2.21784248424228E-05,1.48299241118366E-05,1.7578125,0,0
-1.7769489204511E-05,1.31008227981511E-05,1.7578125,0,0
-2.11208916880423E-05,1.61822244990617E-05,1.7578125,0,0
-2.10291418625275E-05,1.52925349539146E-05,1.7578125,0,0
-2.39143719227286E-05,1.66795089171501E-05,1.7578125,0,0
-2.33947976084892E-05,1.69050708791474E-05,1.7578125,0,0
-2.23992956307484E-05,1.69107242982136E-05,1.7578125,0,0
-2.18792974919779E-05,1.63799959409516E-05,1.7578125,0,0
-2.07811917789513E-05,1.59699429786997E-05,1.7578125,0,0
-2.10505168070085E-05,1.68893293448491E-05,1.7578125,0,0
-1.93607647815952E-05,1.64582124853041E-05,1.7578125,0,0
-2.04573334485758E-05,1.66707632160978E-05,1.7578125,0,0
-2.11864480661461E-05,1.55321449710755E-05,1.7578125,0,0
-2.43593749473803E-05,1.69058366736863E-05,1.7578125,0,0
-2.3615210011485E-05,1.60997187776957E-05,1.7578125,0,0
-2.31193625950255E-05,1.36802837005234E-05,1.7578125,0,0
-2.14918218262028E-05,9.54955794441048E-06,1.7578125,0,0
-2.26797856157646E-05,9.28555346035864E-06,1.7578125,0,0
-2.26658612518804E-05,1.02535759651801E-05,1.7578125,0,0
-2.27288965106709E-05,1.06512798083713E-05,1.7578125,0,0
-2.23015904339263E-05,9.07079811440781E-06,1.7578125,0,0
-2.25448784476612E-05,7.41586700314656E-06,1.7578125,0,0
-2.31138565141009E-05,7.34398872737074E-06,1.7578125,0,0
-2.34627095778706E-05,1.11096460386761E-05,1.7578125,0,0
-1.79862709046574E-05,1.13140213215956E-05,1.7578125,0,0
-2.48720098170452E-05,1.43365687108599E-05,1.7578125,0,0
-1.90342652786057E-05,8.63833520270418E-06,1.7578125,0,0
-2.48326250584796E-05,1.31539891299326E-05,1.7578125,0,0
-2.07849570870167E-05,1.40028087116661E-05,1.7578125,0,0
-2.32030924962601E-05,1.69490413099993E-05,1.7578125,0,0
-2.26540814765031E-05,1.47015534821548E-05,1.7578125,0,0
-2.54104288615054E-05,1.42683802550891E-05,1.7578125,0,0
-2.5490282496321E-05,1.39801686600549E-05,1.7578125,0,0
-2.4873437723727E-05,1.29572244986775E-05,1.7578125,0,0
-2.45272130996455E-05,1.0078271770908E-05,1.7578125,0,0
-2.42617188632721E-05,7.00693499311456E-06,1.7578125,0,0
-2.47272128035547E-05,6.85956274537602E-06,1.7578125,0,0
-2.29814977501519E-05,8.01907026470872E-06,1.7578125,0,0
-2.36678406508872E-05,1.14774757093983E-05,1.7578125,0,0
-2.21098653128138E-05,1.15867260319646E-05,1.7578125,0,0
-2.21986028918764E-05,8.46121565700741E-06,1.7578125,0,0
-2.12995837500785E-05,1.93211326404708E-06,1.7578125,0,0
-2.25325929932296E-05,-1.3856976011084E-06,1.7578125,0,0
-2.17935757973464E-05,-2.70469740826229E-06,1.7578125,0,0
-2.31860431085806E-05,-1.4185535519573E-06,1.7578125,0,0
-2.35215156862978E-05,1.11118049517245E-06,1.7578125,0,0
-2.33340870181564E-05,6.56731253911857E-06,1.7578125,0,0
-2.18956629396416E-05,1.04956816358026E-05,1.7578125,0,0
-2.21463978959946E-05,1.24004400277045E-05,1.7578125,0,0
-2.17165434150957E-05,1.39656467581517E-05,1.7578125,0,0
-2.12609720620094E-05,1.56696441990789E-05,1.7578125,0,0
-1.7166712495964E-05,1.21188295452157E-05,1.7578125,0,0
-2.42395963141462E-05,1.51171552715823E-05,1.7578125,0,0
-1.89102120202733E-05,7.66981429478619E-06,1.7578125,0,0
-2.42113801505184E-05,8.77768161444692E-06,1.7578125,0,0
-2.13170642382465E-05,5.45022749065538E-06,1.7578125,0,0
-2.41017678490607E-05,7.3698488449736E-06,1.7578125,0,0
-2.30126879614545E-05,6.96055622029235E-06,1.7578125,0,0
-2.51745841524098E-05,1.01978303064243E-05,1.7578125,0,0
-2.3783146389178E-05,1.16528863145504E-05,1.7578125,0,0
-2.2301021090243E-05,1.18481211757171E-05,1.7578125,0,0
-2.28194512601476E-05,1.06819561551674E-05,1.7578125,0,0
-2.30290279432666E-05,8.80576590134297E-06,1.7578125,0,0
-2.25072908506263E-05,9.17933630262269E-06,1.7578125,0,0
-2.03397576115094E-05,9.16547378437826E-06,1.7578125,0,0
-2.22389644477516E-05,1.0918639418378E-05,1.7578125,0,0
-2.21702139242552E-05,1.13638479888323E-05,1.7578125,0,0
-2.23524875764269E-05,1.19466958494741E-05,1.7578125,0,0
-2.03046438400634E-05,1.00083470897516E-05,1.7578125,0,0
-2.03326053451747E-05,9.87272142083384E-06,1.7578125,0,0
-2.02744322450599E-05,9.54302140598884E-06,1.7578125,0,0
-2.33750215556938E-05,1.12445886770729E-05,1.7578125,0,0
-2.39470227825223E-05,1.3277048310556E-05,1.7578125,0,0
-2.35508778132498E-05,1.59857518156059E-05,1.7578125,0,0
-2.29600518650841E-05,1.52845259435708E-05,1.7578125,0,0
-2.41906909650425E-05,1.18645411930629E-05,1.7578125,0,0
-2.6364425139036E-05,7.35165758669609E-06,1.7578125,0,0
-2.88408282358432E-05,4.84255178889725E-06,1.7578125,0,0
-2.24529630941106E-05,4.24556492362171E-06,1.7578125,0,0
-3.04965524264844E-05,7.02630131854676E-06,1.7578125,0,0
-2.23484257730888E-05,6.62916272631264E-06,1.7578125,0,0
-3.01830295938998E-05,8.47179489937844E-06,1.7578125,0,0
-2.68812618742231E-05,9.73889018496266E-06,1.7578125,0,0
-3.05774374282919E-05,1.17872441478539E-05,1.7578125,0,0
-2.80449985439191E-05,1.12791549327085E-05,1.7578125,0,0
-2.96074395009782E-05,1.07623991425498E-05,1.7578125,0,0
-2.88146038656123E-05,1.02977264759829E-05,1.7578125,0,0
-2.90757143375231E-05,9.36627202463569E-06,1.7578125,0,0
-2.90494735963875E-05,8.76362537383102E-06,1.7578125,0,0
-2.77521103271283E-05,8.32917430670932E-06,1.7578125,0,0
-2.87351595034124E-05,8.37770858197473E-06,1.7578125,0,0
-2.81742431980092E-05,8.51983350003138E-06,1.7578125,0,0
-3.00092342513381E-05,9.63646016316488E-06,1.7578125,0,0
-2.82493529084604E-05,1.14222393676755E-05,1.7578125,0,0
-2.7974356271443E-05,1.40543143061223E-05,1.7578125,0,0
-2.47303578362335E-05,1.5776995496708E-05,1.7578125,0,0
-2.40638892137213E-05,1.64905923156766E-05,1.7578125,0,0
-2.187206337112E-05,1.58255388669204E-05,1.7578125,0,0
-2.17962951865047E-05,1.5414843801409E-05,1.7578125,0,0
-2.00055601453641E-05,1.48923372762511E-05,1.7578125,0,0
-2.02483042812673E-05,1.40108077175682E-05,1.7578125,0,0
-2.10831276490353E-05,1.36577882585698E-05,1.7578125,0,0
-2.23520746658323E-05,1.45831882036873E-05,1.7578125,0,0
-2.29511697398266E-05,1.52601078298176E-05,1.7578125,0,0
-2.49150234594708E-05,1.34957726913854E-05,1.7578125,0,0
-2.13932125916472E-05,8.84129440237302E-06,1.7578125,0,0
-3.01002401101869E-05,1.31138385768281E-05,1.7578125,0,0
-2.22865710384212E-05,1.07198320620228E-05,1.7578125,0,0
-2.79930936812889E-05,1.33513995024259E-05,1.7578125,0,0
-2.42796431848546E-05,1.16911387522123E-05,1.7578125,0,0
-2.74664544122061E-05,1.26055056171026E-05,1.7578125,0,0
-2.52441277552862E-05,1.1533184988366E-05,1.7578125,0,0
-2.57577030424727E-05,1.17382560347323E-05,1.7578125,0,0
-2.43309677898651E-05,1.07235346149537E-05,1.7578125,0,0
-2.47355110332137E-05,9.56301209953381E-06,1.7578125,0,0
-2.57169413089287E-05,7.45971146898228E-06,1.7578125,0,0
-2.5844456104096E-05,5.2380928536877E-06,1.7578125,0,0
-2.79004543699557E-05,4.25888902100269E-06,1.7578125,0,0
-2.76769023912493E-05,2.31800777328317E-06,1.7578125,0,0
-2.94480214506621E-05,1.04077662399504E-06,1.7578125,0,0
-2.87083457806148E-05,7.80128857513773E-07,1.7578125,0,0
-2.95687605103012E-05,4.05691025662236E-06,1.7578125,0,0
-2.74169469776098E-05,7.21576861906215E-06,1.7578125,0,0
-2.6787631213665E-05,9.79881406237837E-06,1.7578125,0,0
-2.45624760282226E-05,9.42464430409018E-06,1.7578125,0,0
-2.41394864133326E-05,8.66975460667163E-06,1.7578125,0,0
-2.26912525249645E-05,7.93112212704727E-06,1.7578125,0,0
-2.34516737691592E-05,8.84278142621042E-06,1.7578125,0,0
-2.42236019403208E-05,8.49074785946868E-06,1.7578125,0,0
-2.5088103939197E-05,7.66808170737932E-06,1.7578125,0,0
-2.40025692619383E-05,7.74354975874303E-06,1.7578125,0,0
-2.30549067055108E-05,7.39355346013326E-06,1.7578125,0,0
-1.97716635739198E-05,6.00791554461466E-06,1.7578125,0,0
-2.85537425952498E-05,9.68004223977914E-06,1.7578125,0,0
-2.16758890019264E-05,1.01239093055483E-05,1.7578125,0,0
-2.67963187070563E-05,1.43020406540018E-05,1.7578125,0,0
-2.35796578635927E-05,1.51313915921492E-05,1.7578125,0,0
-2.59210664808052E-05,1.67523103300482E-05,1.7578125,0,0
-2.28756689466536E-05,1.54817917064065E-05,1.7578125,0,0
-2.29726720135659E-05,1.31594288177439E-05,1.7578125,0,0
-2.3092441551853E-05,1.10213686639327E-05,1.7578125,0,0
-2.39661894738674E-05,1.09179427454364E-05,1.7578125,0,0
-2.51073306571925E-05,1.18562757052132E-05,1.7578125,0,0
-2.55703307630029E-05,1.36124408527394E-05,1.7578125,0,0
-2.65806484094355E-05,1.64222856255947E-05,1.7578125,0,0
-2.45566661760677E-05,1.62997384904884E-05,1.7578125,0,0
-2.47598454734543E-05,1.35239333758364E-05,1.7578125,0,0
-2.40582994592842E-05,1.06831921584671E-05,1.7578125,0,0
-2.54838432738325E-05,1.23060362966498E-05,1.7578125,0,0
-2.43658669205615E-05,1.44683554026415E-05,1.7578125,0,0
-2.44582352024736E-05,1.48469725900213E-05,1.7578125,0,0
-2.26681495405501E-05,1.37728220579447E-05,1.7578125,0,0
-2.27492837439058E-05,1.3758908607997E-05,1.7578125,0,0
-2.27347591135185E-05,1.41911286846153E-05,1.7578125,0,0
-2.41040015680483E-05,1.56728438014397E-05,1.7578125,0,0
-2.38230659306282E-05,1.47906357597094E-05,1.7578125,0,0
-2.30117966566468E-05,1.06637698991108E-05,1.7578125,0,0
-2.14705414691707E-05,6.95634389558109E-06,1.7578125,0,0
-1.92202733160229E-05,4.72321517008822E-06,1.7578125,0,0
-1.3907537322666E-05,1.22871017538273E-06,1.7578125,0,0
-2.024564309977E-05,1.3467645203491E-06,1.7578125,0,0
-1.77226593223168E-05,2.27108375838725E-06,1.7578125,0,0
-2.37178228417179E-05,6.02163936491706E-06,1.7578125,0,0
-2.24112609430449E-05,9.26937627809821E-06,1.7578125,0,0
-2.52770314546069E-05,1.30807238747366E-05,1.7578125,0,0
-2.38202446780633E-05,1.57936574396444E-05,1.7578125,0,0
-2.44483580900123E-05,1.64315806614468E-05,1.7578125,0,0
-2.3296424842556E-05,1.53105447679991E-05,1.7578125,0,0
-2.21782356675249E-05,1.45273106681998E-05,1.7578125,0,0
-2.18945206142962E-05,1.30896514747292E-05,1.7578125,0,0
-2.18135683098808E-05,1.16834153232048E-05,1.7578125,0,0
-2.24216346396133E-05,1.05412227640045E-05,1.7578125,0,0
-2.08864257729147E-05,1.01098385130172E-05,1.7578125,0,0
-2.0946539734723E-05,1.04146092780866E-05,1.7578125,0,0
-2.04810512514086E-05,1.02692465588916E-05,1.7578125,0,0
-2.16284570342395E-05,9.88349711406045E-06,1.7578125,0,0
-2.09642057598103E-05,9.69784196058754E-06,1.7578125,0,0
-2.20647907553939E-05,1.06313000287628E-05,1.7578125,0,0
-2.19953271880513E-05,1.12074721982935E-05,1.7578125,0,0
-2.29970737564145E-05,1.04560658655828E-05,1.7578125,0,0
-2.28624994633719E-05,9.19956710276892E-06,1.7578125,0,0
-2.2160647858982E-05,1.01770565379411E-05,1.7578125,0,0
-2.07794237212511E-05,1.21491657409933E-05,1.7578125,0,0
-2.03374565899139E-05,1.33634357553092E-05,1.7578125,0,0
-1.88200374395819E-05,1.37621482281247E-05,1.7578125,0,0
-1.72583077073796E-05,1.34648980747443E-05,1.7578125,0,0
-1.34926467580954E-05,9.10686048882781E-06,1.7578125,0,0
-1.91437356988899E-05,1.04813016150729E-05,1.7578125,0,0
-1.43624456541147E-05,4.84985548609984E-06,1.7578125,0,0
-1.7783841030905E-05,8.1201196735492E-06,1.7578125,0,0
-1.56303631229093E-05,8.19562683318509E-06,1.7578125,0,0
-1.83633783308323E-05,1.25250644487096E-05,1.7578125,0,0
-1.86851630132878E-05,1.35469299493707E-05,1.7578125,0,0
-2.07016109925462E-05,1.4478853699984E-05,1.7578125,0,0
-1.98255638679257E-05,1.47519804158946E-05,1.7578125,0,0
-1.88682297448395E-05,1.74135948327603E-05,1.7578125,0,0
-1.87545174412662E-05,1.96689034055453E-05,1.7578125,0,0
-2.00608737941366E-05,1.7167947589769E-05,1.7578125,0,0
-2.27250366151566E-05,1.0844898497453E-05,1.7578125,0,0
-2.32603742915671E-05,3.58380134457548E-06,1.7578125,0,0
-2.45022310991772E-05,1.77930905920221E-06,1.7578125,0,0
-2.39564778894419E-05,3.3015901408362E-06,1.7578125,0,0
-2.44305665546563E-05,8.16337069409201E-06,1.7578125,0,0
-2.27872114919592E-05,1.2408821930876E-05,1.7578125,0,0
-2.19299599848455E-05,1.58095153892646E-05,1.7578125,0,0
-1.95737447938882E-05,1.45022668220918E-05,1.7578125,0,0
-1.94052736333106E-05,1.1453332263045E-05,1.7578125,0,0
-2.01143411686644E-05,7.57863926992286E-06,1.7578125,0,0
-2.27919954340905E-05,5.72376302443445E-06,1.7578125,0,0
-2.55126778938575E-05,4.51557525593671E-06,1.7578125,0,0
-2.73189561994514E-05,3.32135687131085E-06,1.7578125,0,0
-2.64480768237263E-05,2.48003038905154E-06,1.7578125,0,0
-2.56490384344943E-05,2.52572931458417E-06,1.7578125,0,0
-2.08198671316495E-05,4.52860967925517E-06,1.7578125,0,0
-3.00130086543504E-05,8.9778914116323E-06,1.7578125,0,0
-2.37607437156839E-05,1.03690090327291E-05,1.7578125,0,0
-2.98549930448644E-05,1.13453043013578E-05,1.7578125,0,0
-2.5622433895478E-05,1.06073948700214E-05,1.7578125,0,0
-2.82773162325611E-05,1.08973308670102E-05,1.7578125,0,0
-2.61017867160263E-05,9.56310213950928E-06,1.7578125,0,0
-2.81323555100244E-05,8.41252222016919E-06,1.7578125,0,0
-2.82829987554578E-05,7.27269070921466E-06,1.7578125,0,0
-2.78176685242215E-05,7.37279287932324E-06,1.7578125,0,0
-2.62667017523199E-05,1.02419207905768E-05,1.7578125,0,0
-2.4448825570289E-05,1.35347827381338E-05,1.7578125,0,0
-2.47052921622526E-05,1.48638519021915E-05,1.7578125,0,0
-2.25551029870985E-05,1.41610580612905E-05,1.7578125,0,0
-2.29109264182625E-05,1.40633401315426E-05,1.7578125,0,0
-2.2284906663117E-05,1.41534546855837E-05,1.7578125,0,0
-2.45648607233306E-05,1.48197959788376E-05,1.7578125,0,0
-2.39432374655735E-05,1.56984933710191E-05,1.7578125,0,0
-2.48127580562141E-05,1.65842884598533E-05,1.7578125,0,0
-2.44082475546747E-05,1.63665063155349E-05,1.7578125,0,0
-2.64582449744921E-05,1.56155565491645E-05,1.7578125,0,0
-2.57244173553772E-05,1.28137216961477E-05,1.7578125,0,0
-2.52004883805057E-05,7.89070327300578E-06,1.7578125,0,0
-2.49961467488902E-05,4.33105833508307E-06,1.7578125,0,0
-2.61423137999373E-05,5.39090115125873E-06,1.7578125,0,0
-2.78825227724155E-05,8.87706482899375E-06,1.7578125,0,0
-2.91535707219737E-05,1.27750863612164E-05,1.7578125,0,0
-2.19128596654627E-05,1.21070088425768E-05,1.7578125,0,0
-2.90598873107228E-05,1.72325471794466E-05,1.7578125,0,0
-2.03034614969511E-05,1.28643032439868E-05,1.7578125,0,0
-2.67245814029593E-05,1.62130854732823E-05,1.7578125,0,0
-2.24172090383945E-05,1.48873705256847E-05,1.7578125,0,0
-2.66429651674116E-05,1.83331521839136E-05,1.7578125,0,0
-2.50337143370416E-05,1.75213717739098E-05,1.7578125,0,0
-2.71620647254167E-05,1.67544003488729E-05,1.7578125,0,0
-2.64588597929105E-05,1.49527159010177E-05,1.7578125,0,0
-2.64538612100296E-05,1.42761646202416E-05,1.7578125,0,0
-2.64377176790731E-05,1.31163096739328E-05,1.7578125,0,0
-2.50997363764327E-05,1.03531911008758E-05,1.7578125,0,0
-2.49342683673603E-05,8.14057602838147E-06,1.7578125,0,0
-2.29177239816636E-05,4.55597682957887E-06,1.7578125,0,0
-2.43079794017831E-05,2.6560082915239E-06,1.7578125,0,0
-2.36779742408544E-05,1.35437971948704E-06,1.7578125,0,0
-2.57529536611401E-05,3.54337248609227E-06,1.7578125,0,0
-2.57090432569385E-05,4.36414302384947E-06,1.7578125,0,0
-2.73963887593709E-05,4.34284311268129E-06,1.7578125,0,0
-2.5439307137276E-05,2.94824803859228E-06,1.7578125,0,0
-2.57498504652176E-05,3.9989654396777E-06,1.7578125,0,0
-2.57319297816139E-05,5.09349638377898E-06,1.7578125,0,0
-2.68283511104528E-05,6.38019855614402E-06,1.7578125,0,0
-2.59302851191023E-05,7.5963043855154E-06,1.7578125,0,0
-2.6035362679977E-05,1.00237002698123E-05,1.7578125,0,0
-2.57476858678274E-05,1.12509551399853E-05,1.7578125,0,0
-2.3796159439371E-05,1.16623486974277E-05,1.7578125,0,0
-1.75893565028673E-05,1.06334082374815E-05,1.7578125,0,0
-2.53322377830045E-05,1.5868534319452E-05,1.7578125,0,0
-2.0762236090377E-05,1.25377891890821E-05,1.7578125,0,0
-2.5927367460099E-05,1.31925835376023E-05,1.7578125,0,0
-2.21401460294146E-05,8.00263751443708E-06,1.7578125,0,0
-2.4211991330958E-05,8.61667558638146E-06,1.7578125,0,0
-2.12925151572563E-05,9.14073552849004E-06,1.7578125,0,0
-2.19199082494015E-05,1.10243299786816E-05,1.7578125,0,0
-2.17442338907858E-05,1.27608118418721E-05,1.7578125,0,0
-2.27484251809074E-05,1.55356974573806E-05,1.7578125,0,0
-2.4445196686429E-05,1.65137735166354E-05,1.7578125,0,0
-2.51721485255985E-05,1.47379078043741E-05,1.7578125,0,0
-2.66666502284352E-05,1.34908104882925E-05,1.7578125,0,0
-2.64022946794285E-05,1.22248948173365E-05,1.7578125,0,0
-2.77132985502249E-05,1.30584548969637E-05,1.7578125,0,0
-2.63016008830164E-05,1.31146434796392E-05,1.7578125,0,0
-2.71754615823738E-05,1.3721516552323E-05,1.7578125,0,0
-2.7158022930962E-05,1.17275021693786E-05,1.7578125,0,0
-2.85734968201723E-05,1.04813934740378E-05,1.7578125,0,0
-2.71208427875536E-05,1.00400211522356E-05,1.7578125,0,0
-2.66916758846492E-05,1.10656865217607E-05,1.7578125,0,0
-2.54220467468258E-05,1.08461917989189E-05,1.7578125,0,0
-2.55304676102242E-05,1.05872823041864E-05,1.7578125,0,0
-2.51158198807389E-05,1.07254654722055E-05,1.7578125,0,0
-2.47096741077257E-05,1.26469285532949E-05,1.7578125,0,0
-2.4563289116486E-05,1.25317474157782E-05,1.7578125,0,0
-2.51675664912909E-05,9.77942636382068E-06,1.7578125,0,0
-2.04302505153464E-05,5.04070840179338E-06,1.7578125,0,0
-2.87558505078778E-05,6.76557829137892E-06,1.7578125,0,0
-2.18766435864381E-05,8.29839882499073E-06,1.7578125,0,0
-2.65676353592426E-05,1.44775221997406E-05,1.7578125,0,0
-2.1093042960274E-05,1.44497444125591E-05,1.7578125,0,0
-2.3583179427078E-05,1.50387049870915E-05,1.7578125,0,0
-2.23587649088586E-05,1.27495786728105E-05,1.7578125,0,0
-2.51519668381661E-05,1.11582103272667E-05,1.7578125,0,0
-2.38472166529391E-05,1.04334840216325E-05,1.7578125,0,0
-2.26498195843305E-05,1.0941091204586E-05,1.7578125,0,0
-2.35430870816344E-05,1.23618892757804E-05,1.7578125,0,0
-2.41299621848157E-05,1.35920272441581E-05,1.7578125,0,0
-2.49413606070448E-05,1.38434070322546E-05,1.7578125,0,0
-2.28911103477003E-05,1.27579569380032E-05,1.7578125,0,0
-2.28572898777202E-05,1.17362114906427E-05,1.7578125,0,0
-2.12037393794162E-05,9.57238989940379E-06,1.7578125,0,0
-2.31987105507869E-05,8.62996330397436E-06,1.7578125,0,0
-2.39481578319101E-05,7.66059929446783E-06,1.7578125,0,0
-2.64192967733834E-05,7.55641531213769E-06,1.7578125,0,0
-2.56067178270314E-05,7.16524482413661E-06,1.7578125,0,0
-2.52357967838179E-05,8.45932481752243E-06,1.7578125,0,0
-2.33232858590782E-05,1.05464914668119E-05,1.7578125,0,0
-2.25158655666746E-05,1.2061211236869E-05,1.7578125,0,0
-2.03403142222669E-05,1.23710442494485E-05,1.7578125,0,0
-2.05782198463567E-05,1.29199079310638E-05,1.7578125,0,0
-2.21738082473166E-05,1.26742170323269E-05,1.7578125,0,0
-2.2846723368275E-05,1.11700064735487E-05,1.7578125,0,0
-1.8672948499443E-05,6.9427069320227E-06,1.7578125,0,0
-2.57004703598795E-05,1.05297885966138E-05,1.7578125,0,0
-1.73118987731868E-05,1.01165405794745E-05,1.7578125,0,0
-2.0616891561076E-05,1.26913810163387E-05,1.7578125,0,0
-1.75191526068375E-05,1.02060539575177E-05,1.7578125,0,0
-2.13793391594663E-05,8.86815723788459E-06,1.7578125,0,0
-2.02753744815709E-05,5.25112363902736E-06,1.7578125,0,0
-2.22894414037E-05,5.64443962502992E-06,1.7578125,0,0
-2.21203790715663E-05,7.22355071047787E-06,1.7578125,0,0
-2.24329287448199E-05,8.53885558171896E-06,1.7578125,0,0
-2.31696267292136E-05,8.61677835928276E-06,1.7578125,0,0
-2.25615676754387E-05,8.18383887235541E-06,1.7578125,0,0
-2.3096976292436E-05,8.9973873400595E-06,1.7578125,0,0
-2.24519262701506E-05,1.00841452876921E-05,1.7578125,0,0
-2.32470301853027E-05,1.20912045531441E-05,1.7578125,0,0
-2.06184176931856E-05,1.28094316096394E-05,1.7578125,0,0
-2.03986746782903E-05,1.32538289108197E-05,1.7578125,0,0
-2.01265866053291E-05,1.19619144243188E-05,1.7578125,0,0
-2.29301022045547E-05,1.10128175947466E-05,1.7578125,0,0
-2.35468687606044E-05,9.60780562309083E-06,1.7578125,0,0
-2.4851418856997E-05,9.33476258069277E-06,1.7578125,0,0
-2.52155296038836E-05,8.66477421368472E-06,1.7578125,0,0
-2.66027127509005E-05,8.71406791702611E-06,1.7578125,0,0
-2.58785385085503E-05,1.03182055681827E-05,1.7578125,0,0
-2.40911776927533E-05,1.29147047118749E-05,1.7578125,0,0
-2.18060376937501E-05,1.32313543872442E-05,1.7578125,0,0
-2.16346870729467E-05,1.28157753351843E-05,1.7578125,0,0
-1.89373113244073E-05,1.10340215542237E-05,1.7578125,0,0
-2.76741866400698E-05,1.72462478076341E-05,1.7578125,0,0
-2.12802151509095E-05,1.47499404192786E-05,1.7578125,0,0
-2.57161027548136E-05,1.66867685038596E-05,1.7578125,0,0
-2.15782747545745E-05,1.45509575304459E-05,1.7578125,0,0
-2.39182481891476E-05,1.6437752492493E-05,1.7578125,0,0
-2.31299763981951E-05,1.49952493302408E-05,1.7578125,0,0
-2.50820976361865E-05,1.4695444406243E-05,1.7578125,0,0
-2.52965546678752E-05,1.29992649817723E-05,1.7578125,0,0
-2.63488782366039E-05,1.23631643873523E-05,1.7578125,0,0
-2.69451265921816E-05,1.15168923002784E-05,1.7578125,0,0
-2.54015449172584E-05,8.87888018041849E-06,1.7578125,0,0
-2.52306817856152E-05,7.33727210899815E-06,1.7578125,0,0
-2.40069930441678E-05,6.83945745549863E-06,1.7578125,0,0
-2.58146683336236E-05,8.16160354588646E-06,1.7578125,0,0
-2.66230927081779E-05,6.39765084997634E-06,1.7578125,0,0
-2.95007757813437E-05,3.6454362088989E-06,1.7578125,0,0
-2.94933433906408E-05,9.10859796476871E-07,1.7578125,0,0
-2.93393550236942E-05,3.86564670407097E-06,1.7578125,0,0
-2.68191579380073E-05,9.45515330386115E-06,1.7578125,0,0
-2.57773517660098E-05,1.47571608977159E-05,1.7578125,0,0
-2.41375837504165E-05,1.44961250043707E-05,1.7578125,0,0
-2.43871072598267E-05,9.31231988943182E-06,1.7578125,0,0
-2.47641091846162E-05,2.65837525148527E-06,1.7578125,0,0
-2.65974395006197E-05,2.02133946913818E-06,1.7578125,0,0
-2.77474664471811E-05,6.23008190814289E-06,1.7578125,0,0
-2.79142332146876E-05,9.16348199098138E-06,1.7578125,0,0
-2.24548330152174E-05,9.41492726269644E-06,1.7578125,0,0
-3.00980154861463E-05,1.56976730067981E-05,1.7578125,0,0
-2.02630890271394E-05,1.4520622244163E-05,1.7578125,0,0
-2.53979178523878E-05,1.55684210767504E-05,1.7578125,0,0
-1.91413691936759E-05,1.2746268112096E-05,1.7578125,0,0
-2.10440139198909E-05,1.41949449243839E-05,1.7578125,0,0
-1.86796405614587E-05,1.45253097798559E-05,1.7578125,0,0
-2.06782715395093E-05,1.64099692483433E-05,1.7578125,0,0
-1.93471496459097E-05,1.6494299416081E-05,1.7578125,0,0
-1.85529861482792E-05,1.3808346920996E-05,1.7578125,0,0
-1.88621816050727E-05,9.16151293495204E-06,1.7578125,0,0
-1.85027565748896E-05,5.36495235792245E-06,1.7578125,0,0
-2.01664406631608E-05,5.19462673764792E-06,1.7578125,0,0
-1.95694083231501E-05,6.09278458796325E-06,1.7578125,0,0
-2.11794522329001E-05,7.79381571192062E-06,1.7578125,0,0
-2.06147578865057E-05,7.90807098383084E-06,1.7578125,0,0
-2.37652384385001E-05,8.86079305928433E-06,1.7578125,0,0
-2.49656022788258E-05,8.95500306796748E-06,1.7578125,0,0
-2.6978668756783E-05,1.03587444755249E-05,1.7578125,0,0
-2.43063041125424E-05,1.18212237794069E-05,1.7578125,0,0
-2.28930348384893E-05,1.37666711452766E-05,1.7578125,0,0
-2.13001003430691E-05,1.40274696605047E-05,1.7578125,0,0
-2.15792297240114E-05,1.33587464006268E-05,1.7578125,0,0
-2.22833641601028E-05,1.18246507554431E-05,1.7578125,0,0
-2.47911266342271E-05,1.05660192275536E-05,1.7578125,0,0
-2.68166841124184E-05,9.3762791948393E-06,1.7578125,0,0
-2.74384838121478E-05,9.39522669796133E-06,1.7578125,0,0
-2.13912699109642E-05,8.3061286204611E-06,1.7578125,0,0
-3.04981622321066E-05,1.15400871436577E-05,1.7578125,0,0
-2.41200195887359E-05,8.36348772281781E-06,1.7578125,0,0
-2.98481318168342E-05,1.08845870272489E-05,1.7578125,0,0
-2.44250240939436E-05,9.30111491470598E-06,1.7578125,0,0
-2.63975780399051E-05,9.23103289096616E-06,1.7578125,0,0
-2.37354670389323E-05,7.16079875928699E-06,1.7578125,0,0
-2.55163977271877E-05,7.8076582212816E-06,1.7578125,0,0
-2.48999385803472E-05,7.57601719669765E-06,1.7578125,0,0
-2.42002388404217E-05,7.02625811754842E-06,1.7578125,0,0
-2.42352925852174E-05,7.43813370718271E-06,1.7578125,0,0
-2.46228300966322E-05,8.62200249684975E-06,1.7578125,0,0
-2.67817813437432E-05,1.11814124466036E-05,1.7578125,0,0
-2.62499652308179E-05,1.27326002257178E-05,1.7578125,0,0
-2.71235639957013E-05,1.44092955451924E-05,1.7578125,0,0
-2.56063467531931E-05,1.42513172249892E-05,1.7578125,0,0
-2.53590169450035E-05,1.43871175168897E-05,1.7578125,0,0
-2.22332528210245E-05,1.36347744046361E-05,1.7578125,0,0
-2.32239835895598E-05,1.39740723170689E-05,1.7578125,0,0
-2.34805775107816E-05,1.44127525345539E-05,1.7578125,0,0
-2.43033464357723E-05,1.55088328028796E-05,1.7578125,0,0
-2.27934615395498E-05,1.32249942907947E-05,1.7578125,0,0
-2.21619320655009E-05,7.64321885071695E-06,1.7578125,0,0
-2.02891442313557E-05,2.32098273045267E-06,1.7578125,0,0
-1.89922266145004E-05,1.66564677783754E-06,1.7578125,0,0
-1.88360627362272E-05,4.1711737139849E-06,1.7578125,0,0
-2.11049991776235E-05,6.43768453301163E-06,1.7578125,0,0
-1.93647319974843E-05,5.86728583584772E-06,1.7578125,0,0
-2.77080271189334E-05,1.01506157079712E-05,1.7578125,0,0
-2.06012900889618E-05,1.18083189590834E-05,1.7578125,0,0
-2.6051571694552E-05,1.59543105837656E-05,1.7578125,0,0
-2.50570265052374E-05,1.52809552673716E-05,1.7578125,0,0
-2.92800541501492E-05,1.49643274198752E-05,1.7578125,0,0
-2.6985948352376E-05,1.37889046527562E-05,1.7578125,0,0
-2.65821927314391E-05,1.42695080285193E-05,1.7578125,0,0
-2.46423260250594E-05,1.3463544746628E-05,1.7578125,0,0
-2.47977659455501E-05,1.22862329590134E-05,1.7578125,0,0
-2.63194833678426E-05,1.26894819914014E-05,1.7578125,0,0
-2.62452813331038E-05,1.3828261216986E-05,1.7578125,0,0
-2.68097974185366E-05,1.53346809383947E-05,1.7578125,0,0
-2.53387552220374E-05,1.46744914673036E-05,1.7578125,0,0
-2.61979384958977E-05,1.23197414723109E-05,1.7578125,0,0
-2.60063279711176E-05,1.0362141438236E-05,1.7578125,0,0
-2.80071599263465E-05,1.12888201329042E-05,1.7578125,0,0
-2.78000425169012E-05,1.24817879623151E-05,1.7578125,0,0
-2.87337679765187E-05,1.35150230562431E-05,1.7578125,0,0
-2.68590265477542E-05,1.41480095408042E-05,1.7578125,0,0
-2.55034701694967E-05,1.64429329743143E-05,1.7578125,0,0
-2.31536923820386E-05,1.81172599695856E-05,1.7578125,0,0
-2.34633753279923E-05,1.66504469234496E-05,1.7578125,0,0
-2.41972229559906E-05,1.22818892123178E-05,1.7578125,0,0
-2.4944863980636E-05,8.09578887128737E-06,1.7578125,0,0
-2.37875810853438E-05,5.54155349163921E-06,1.7578125,0,0
-2.24851592065534E-05,5.22221944265766E-06,1.7578125,0,0
-1.92112747754436E-05,6.14466034676298E-06,1.7578125,0,0
-2.95066492981277E-05,1.0266043318552E-05,1.7578125,0,0
-2.44345828832593E-05,9.07553567230934E-06,1.7578125,0,0
-2.71619792329147E-05,9.98242558125639E-06,1.7578125,0,0
-2.14877763937693E-05,9.35391744860681E-06,1.7578125,0,0
-2.48360647674417E-05,1.11177505459636E-05,1.7578125,0,0
-2.45395858655684E-05,1.17888030217728E-05,1.7578125,0,0
-2.60672950389562E-05,1.13431469799252E-05,1.7578125,0,0
-2.52816407737555E-05,9.86177019512979E-06,1.7578125,0,0
-2.43184986175038E-05,9.573163879395E-06,1.7578125,0,0
-2.40721237787511E-05,9.87151724984869E-06,1.7578125,0,0
-2.29864490393084E-05,9.5936829893617E-06,1.7578125,0,0
-2.26539541472448E-05,8.86900761543075E-06,1.7578125,0,0
-2.05014239327284E-05,8.6039735833765E-06,1.7578125,0,0
-2.14255778701045E-05,1.06332245195517E-05,1.7578125,0,0
-2.1262809241307E-05,1.23640866149799E-05,1.7578125,0,0
-2.24053146666847E-05,1.31322221932351E-05,1.7578125,0,0
-2.15947329706978E-05,1.23776853797608E-05,1.7578125,0,0
-2.31986268772744E-05,1.18121997729759E-05,1.7578125,0,0
-2.34758790611522E-05,1.1000937774952E-05,1.7578125,0,0
-2.40014451264869E-05,1.2223508747411E-05,1.7578125,0,0
-2.20234669541242E-05,1.47240170917939E-05,1.7578125,0,0
-2.07973716896959E-05,1.67828729900066E-05,1.7578125,0,0
-2.06518689083168E-05,1.56870555656496E-05,1.7578125,0,0
-2.25754411076196E-05,1.26467202790082E-05,1.7578125,0,0
-2.29735942411935E-05,9.73856640484883E-06,1.7578125,0,0
-2.14842038985807E-05,9.11851202545222E-06,1.7578125,0,0
-1.75798813870642E-05,8.02883369033225E-06,1.7578125,0,0
-2.56031435128534E-05,1.31316774059087E-05,1.7578125,0,0
-1.91128456208389E-05,1.1051162800868E-05,1.7578125,0,0
-2.26070042117499E-05,1.21104167192243E-05,1.7578125,0,0
-1.97214740182972E-05,1.13652995423763E-05,1.7578125,0,0
-2.34765957429772E-05,1.41022210300434E-05,1.7578125,0,0
-2.28799472097307E-05,1.34533038362861E-05,1.7578125,0,0
-2.35858205996919E-05,1.1341689969413E-05,1.7578125,0,0
-2.16066946450155E-05,8.0058271123562E-06,1.7578125,0,0
-2.01986622414552E-05,4.95744598083547E-06,1.7578125,0,0
-2.15992386074504E-05,1.75134834989876E-06,1.7578125,0,0
-2.32747297559399E-05,-6.74670388889353E-07,1.7578125,0,0
-2.48089709202759E-05,6.3620569790146E-07,1.7578125,0,0
-2.36324667639565E-05,3.31261298924801E-06,1.7578125,0,0
-2.43139747908572E-05,6.73955173624563E-06,1.7578125,0,0
-2.37091935559874E-05,9.10465496417601E-06,1.7578125,0,0
-2.41668003582163E-05,1.16643986984855E-05,1.7578125,0,0
-2.21800855797483E-05,1.17651070468128E-05,1.7578125,0,0
-2.20608035306213E-05,1.09060192698962E-05,1.7578125,0,0
-2.09041700145463E-05,9.59135832090396E-06,1.7578125,0,0
-2.09257341339253E-05,9.62272952165222E-06,1.7578125,0,0
-2.00061385839945E-05,1.00315837698872E-05,1.7578125,0,0
-2.13335570151685E-05,1.04665759863565E-05,1.7578125,0,0
-2.30799651035341E-05,9.58454438659828E-06,1.7578125,0,0
-2.35189327213448E-05,9.04964417713927E-06,1.7578125,0,0
-2.19326630030992E-05,1.04559994724696E-05,1.7578125,0,0
-2.12469567486551E-05,1.24445241453941E-05,1.7578125,0,0
-1.86613197001861E-05,1.00645920610987E-05,1.7578125,0,0
-2.7816291549243E-05,1.34103256641538E-05,1.7578125,0,0
-2.33912778639933E-05,1.10858691186877E-05,1.7578125,0,0
-2.87663624476409E-05,1.69968734553549E-05,1.7578125,0,0
-2.44064649450593E-05,1.4983736036811E-05,1.7578125,0,0
-2.62565881712362E-05,1.44529294630047E-05,1.7578125,0,0
-2.45105238718679E-05,1.19205460578087E-05,1.7578125,0,0
-2.71812295977725E-05,1.26356408145512E-05,1.7578125,0,0
-2.85517835436622E-05,1.31073311422369E-05,1.7578125,0,0
-2.80191852652933E-05,1.34036063172971E-05,1.7578125,0,0
-2.66733768512495E-05,1.22416086014709E-05,1.7578125,0,0
-2.55157938227057E-05,9.95342725218507E-06,1.7578125,0,0
-2.61124041571748E-05,9.78845491772518E-06,1.7578125,0,0
-2.41255474975333E-05,9.90174430626212E-06,1.7578125,0,0
-2.34532344620675E-05,1.11305080281454E-05,1.7578125,0,0
-2.2319050913211E-05,1.06902898551198E-05,1.7578125,0,0
-2.43703052547062E-05,1.02333178801928E-05,1.7578125,0,0
-2.40104709519073E-05,8.35699211165775E-06,1.7578125,0,0
-2.44787861447548E-05,8.93369269761024E-06,1.7578125,0,0
-2.32861166296061E-05,9.00911618373357E-06,1.7578125,0,0
-2.44967250182526E-05,9.63444472290576E-06,1.7578125,0,0
-2.4269565983559E-05,1.03475740615977E-05,1.7578125,0,0
-2.47832340392051E-05,1.24830175991519E-05,1.7578125,0,0
-2.49367676588008E-05,1.37943843583344E-05,1.7578125,0,0
-2.49392032856122E-05,1.44402865771553E-05,1.7578125,0,0
-2.39174951275345E-05,1.5200576854113E-05,1.7578125,0,0
-2.23951465159189E-05,1.7096710507758E-05,1.7578125,0,0
-1.81126215466065E-05,1.29244926938554E-05,1.7578125,0,0
-2.69157771981554E-05,1.57641406985931E-05,1.7578125,0,0
-2.24781651922967E-05,8.53834353620186E-06,1.7578125,0,0
-2.74568446911871E-05,1.21244556794409E-05,1.7578125,0,0
-2.46992112806765E-05,1.10332466647378E-05,1.7578125,0,0
-2.92777058348292E-05,1.56550759129459E-05,1.7578125,0,0
-2.6975774744642E-05,1.6536156181246E-05,1.7578125,0,0
-2.5636087229941E-05,1.8511886082706E-05,1.7578125,0,0
-2.45457194978371E-05,1.62875148816966E-05,1.7578125,0,0
-2.65564194705803E-05,1.33293488033814E-05,1.7578125,0,0
-2.85734058707021E-05,1.09094062281656E-05,1.7578125,0,0
-2.78542629530421E-05,8.89141028892482E-06,1.7578125,0,0
-2.79669566225493E-05,8.88876002136385E-06,1.7578125,0,0
-2.68878102360759E-05,9.03682939679129E-06,1.7578125,0,0
-2.71941535174847E-05,1.17358777060872E-05,1.7578125,0,0
-2.40157005464425E-05,1.22819237731164E-05,1.7578125,0,0
-2.21076825255295E-05,1.37693677970674E-05,1.7578125,0,0
-1.96762648556614E-05,1.36748130898923E-05,1.7578125,0,0
-2.10167454497423E-05,1.3505557035387E-05,1.7578125,0,0
-2.14931005757535E-05,1.03767752079875E-05,1.7578125,0,0
-2.29809229495004E-05,8.26507312012836E-06,1.7578125,0,0
-2.27606724365614E-05,5.55328506379738E-06,1.7578125,0,0
-2.31228095799452E-05,4.83679241369828E-06,1.7578125,0,0
-2.2537791664945E-05,5.15414103574585E-06,1.7578125,0,0
-2.24677387450356E-05,6.59524630464148E-06,1.7578125,0,0
-2.28626176976832E-05,5.94202674619737E-06,1.7578125,0,0
-2.3063124899636E-05,4.00145427192911E-06,1.7578125,0,0
-1.81172945303842E-05,2.62350908997178E-06,1.7578125,0,0
-2.52017598540988E-05,5.08783341501839E-06,1.7578125,0,0
-1.98745365196373E-05,7.33984552425682E-06,1.7578125,0,0
-2.5681189072202E-05,1.20897784654517E-05,1.7578125,0,0
-2.10040361707797E-05,1.49596316987299E-05,1.7578125,0,0
-2.20631791307824E-05,1.37188171720481E-05,1.7578125,0,0
-1.87016576091992E-05,1.02347903521149E-05,1.7578125,0,0
-1.97547069546999E-05,8.29095733934082E-06,1.7578125,0,0
-1.94441145140445E-05,6.11132691119565E-06,1.7578125,0,0
-1.93738105735974E-05,3.86255123885348E-06,1.7578125,0,0
-1.98826146515785E-05,2.6673312731873E-06,1.7578125,0,0
-1.99536880245432E-05,4.11747078032931E-06,1.7578125,0,0
-2.09370191441849E-05,8.30672615848016E-06,1.7578125,0,0
-1.98124434973579E-05,1.248944317922E-05,1.7578125,0,0
-2.14241554203909E-05,1.41128812174429E-05,1.7578125,0,0
-2.18061923078494E-05,1.16131741378922E-05,1.7578125,0,0
-2.38119973801076E-05,8.63141303852899E-06,1.7578125,0,0
-2.26259853661759E-05,8.17887303128373E-06,1.7578125,0,0
-2.27725540753454E-05,8.69991799845593E-06,1.7578125,0,0
-2.15071231650654E-05,6.58426188238082E-06,1.7578125,0,0
-2.2308498955681E-05,3.59240061698074E-06,1.7578125,0,0
-2.18789500650018E-05,1.1708868896676E-06,1.7578125,0,0
-2.23718816414475E-05,7.88612453561655E-07,1.7578125,0,0
-2.31763769988902E-05,4.12549798056716E-06,1.7578125,0,0
-2.56629482464632E-05,1.12660654849606E-05,1.7578125,0,0
-2.68935782514745E-05,1.67032758326968E-05,1.7578125,0,0
-2.58958880294813E-05,1.56666519615101E-05,1.7578125,0,0
-1.92044917639578E-05,9.09472146304324E-06,1.7578125,0,0
-2.79372961813351E-05,1.11531617221772E-05,1.7578125,0,0
-2.27667769649997E-05,8.44575333758257E-06,1.7578125,0,0
-2.94768888124963E-05,1.35755208248156E-05,1.7578125,0,0
-2.68847325060051E-05,1.23436630019569E-05,1.7578125,0,0
-2.99742787319701E-05,1.45892954606097E-05,1.7578125,0,0
-2.84424731944455E-05,1.37614078994375E-05,1.7578125,0,0
-2.92210443149088E-05,1.46554439197644E-05,1.7578125,0,0
-2.65875769400736E-05,1.31498363771243E-05,1.7578125,0,0
-2.53705693467055E-05,1.1697028639901E-05,1.7578125,0,0
-2.50963330472587E-05,1.22195342555642E-05,1.7578125,0,0
-2.3608647097717E-05,1.327459631284E-05,1.7578125,0,0
-2.4589549866505E-05,1.2542916010716E-05,1.7578125,0,0
-2.5227223886759E-05,8.747407264309E-06,1.7578125,0,0
-2.84111429209588E-05,7.74498221289832E-06,1.7578125,0,0
-2.79513988061808E-05,9.12643645278877E-06,1.7578125,0,0
-2.71504868578631E-05,1.23679210446426E-05,1.7578125,0,0
-2.32318288908573E-05,1.25374108392862E-05,1.7578125,0,0
-2.15770669456106E-05,1.26918248497532E-05,1.7578125,0,0
-2.06454187718919E-05,1.15511347758002E-05,1.7578125,0,0
-2.28783865168225E-05,1.16243900265545E-05,1.7578125,0,0
-2.29314700845862E-05,1.23222916954546E-05,1.7578125,0,0
-2.28971730393823E-05,1.56356654770207E-05,1.7578125,0,0
-2.31886751862476E-05,1.70252023963258E-05,1.7578125,0,0
-2.46111176238628E-05,1.64803368534194E-05,1.7578125,0,0
-2.36936066357885E-05,1.58591683430132E-05,1.7578125,0,0
-2.15145610127365E-05,1.62896467372775E-05,1.7578125,0,0
-1.64931389008416E-05,1.38802506626234E-05,1.7578125,0,0
-2.26068150368519E-05,1.82967341970652E-05,1.7578125,0,0
-1.59609153342899E-05,1.2435393728083E-05,1.7578125,0,0
-2.0407467673067E-05,1.63239838002482E-05,1.7578125,0,0
-1.8444769011694E-05,1.36695871333359E-05,1.7578125,0,0
-2.17585075006355E-05,1.61752523126779E-05,1.7578125,0,0
-1.99055357370526E-05,1.35959871840896E-05,1.7578125,0,0
-2.13511084439233E-05,1.16913361125626E-05,1.7578125,0,0
-2.20121255551931E-05,8.95738685358083E-06,1.7578125,0,0
-2.28937224164838E-05,9.07858793652849E-06,1.7578125,0,0
-2.32022575801238E-05,1.09782804429415E-05,1.7578125,0,0
-2.24182003876194E-05,1.27266839626827E-05,1.7578125,0,0
-2.37418462347705E-05,1.46782467709272E-05,1.7578125,0,0
-2.38686443481129E-05,1.36412327265134E-05,1.7578125,0,0
-2.46381550823571E-05,1.33641760839964E-05,1.7578125,0,0
-2.32858747040154E-05,1.25542683235835E-05,1.7578125,0,0
-2.44242201006273E-05,1.47223217936698E-05,1.7578125,0,0
-2.39160654018633E-05,1.4674587873742E-05,1.7578125,0,0
-2.4491881049471E-05,1.42299359140452E-05,1.7578125,0,0
-2.3591919671162E-05,1.09233433249756E-05,1.7578125,0,0
-2.51449400821002E-05,9.12467203306733E-06,1.7578125,0,0
-2.47151747316821E-05,8.35348782857182E-06,1.7578125,0,0
-2.33830287470482E-05,1.03986512840493E-05,1.7578125,0,0
-2.25597359531093E-05,1.12634606921347E-05,1.7578125,0,0
-2.32603088079486E-05,1.00522593129426E-05,1.7578125,0,0
-2.37969907175284E-05,8.33995272842003E-06,1.7578125,0,0
-2.47235784627264E-05,9.28990084503312E-06,1.7578125,0,0
-2.15138843486784E-05,8.87124588189181E-06,1.7578125,0,0
-3.09654642478563E-05,1.11086210381472E-05,1.7578125,0,0
-2.37552922044415E-05,5.10712834511651E-06,1.7578125,0,0
-2.96242360491306E-05,5.82662187298411E-06,1.7578125,0,0
-2.6324898499297E-05,4.33532159149763E-06,1.7578125,0,0
-2.93524080916541E-05,4.97196924698073E-06,1.7578125,0,0
-2.59973312495276E-05,2.29526312978123E-06,1.7578125,0,0
-2.59515036304947E-05,2.44351895162254E-06,1.7578125,0,0
-2.53857961070025E-05,4.46193780589965E-06,1.7578125,0,0
-2.69278443738585E-05,7.03011664882069E-06,1.7578125,0,0
-2.7963114916929E-05,8.08943423180608E-06,1.7578125,0,0
-2.6640609576134E-05,7.64446758694248E-06,1.7578125,0,0
-2.69899246632122E-05,7.75797525420785E-06,1.7578125,0,0
-2.60673405136913E-05,7.46262776374351E-06,1.7578125,0,0
-2.69725987891434E-05,8.72281361807836E-06,1.7578125,0,0
-2.55433733400423E-05,9.42182396101998E-06,1.7578125,0,0
-2.65312228293624E-05,9.97501956589986E-06,1.7578125,0,0
-2.53220059676096E-05,8.42861663841177E-06,1.7578125,0,0
-2.66928927885601E-05,8.76083777257008E-06,1.7578125,0,0
-2.69119500444504E-05,9.67875348578673E-06,1.7578125,0,0
-2.85871301457519E-05,1.10529808807769E-05,1.7578125,0,0
-2.8124281016062E-05,1.03158081401489E-05,1.7578125,0,0
-2.8694603315671E-05,9.23753214010503E-06,1.7578125,0,0
-2.69875527010299E-05,8.33200738270534E-06,1.7578125,0,0
-2.42183887166902E-05,9.00729537534062E-06,1.7578125,0,0
-2.20365745917661E-05,9.77862782747252E-06,1.7578125,0,0
-2.23482675210107E-05,8.19995148049202E-06,1.7578125,0,0
-2.00366648641648E-05,5.32467902303324E-06,1.7578125,0,0
-3.05268295051064E-05,8.18998069007648E-06,1.7578125,0,0
-2.47589941864135E-05,7.85936481406679E-06,1.7578125,0,0
-2.83880199276609E-05,1.03218981166719E-05,1.7578125,0,0
-2.35692587011727E-05,9.60939451033482E-06,1.7578125,0,0
-2.62172034126706E-05,9.81648645392852E-06,1.7578125,0,0
-2.58909367403248E-05,8.64615685713943E-06,1.7578125,0,0
-2.80568419839256E-05,9.25622316572117E-06,1.7578125,0,0
-2.74305130005814E-05,9.78106982074678E-06,1.7578125,0,0
-2.67220457317308E-05,1.00546294561354E-05,1.7578125,0,0
-2.61311652138829E-05,9.36052583710989E-06,1.7578125,0,0
-2.53219095611712E-05,6.80410266795661E-06,1.7578125,0,0
-2.64379268628545E-05,5.16086674906546E-06,1.7578125,0,0
-2.55584691331023E-05,6.01372039454873E-06,1.7578125,0,0
-2.60290798905771E-05,8.78101036505541E-06,1.7578125,0,0
-2.45228675339604E-05,1.02906842585071E-05,1.7578125,0,0
-2.49783061008202E-05,1.18438783829333E-05,1.7578125,0,0
-2.29833567573223E-05,1.19726200864534E-05,1.7578125,0,0
-2.33614409808069E-05,1.10595055957674E-05,1.7578125,0,0
-2.2673035346088E-05,9.30410533328541E-06,1.7578125,0,0
-2.30910663958639E-05,9.21388254937483E-06,1.7578125,0,0
-2.19278372242115E-05,9.60332636168459E-06,1.7578125,0,0
-2.170725929318E-05,1.02305275504477E-05,1.7578125,0,0
-2.1079258658574E-05,1.04938189906534E-05,1.7578125,0,0
-2.19040830415906E-05,1.22960454973509E-05,1.7578125,0,0
-2.25859694182873E-05,1.56585629156325E-05,1.7578125,0,0
-2.08982783078682E-05,1.64682442118647E-05,1.7578125,0,0
-1.55326761159813E-05,1.01884479590808E-05,1.7578125,0,0
-2.25754592975136E-05,1.16446981337504E-05,1.7578125,0,0
-1.82204803422792E-05,5.06605147165828E-06,1.7578125,0,0
-2.23395727516618E-05,8.34323964227224E-06,1.7578125,0,0
-1.84053023986053E-05,7.24328901924309E-06,1.7578125,0,0
-2.00128724827664E-05,9.10957896849141E-06,1.7578125,0,0
-1.86791166925104E-05,6.72163787385216E-06,1.7578125,0,0
-2.08573455893202E-05,7.23270932212472E-06,1.7578125,0,0
-2.23567822104087E-05,8.3419399743434E-06,1.7578125,0,0
-2.3141199562815E-05,9.9745784609695E-06,1.7578125,0,0
-2.27924792852718E-05,1.20989207061939E-05,1.7578125,0,0
-2.23777133214753E-05,1.46455913636601E-05,1.7578125,0,0
-2.36524338106392E-05,1.70888033608207E-05,1.7578125,0,0
-2.24184313992737E-05,1.62874421221204E-05,1.7578125,0,0
-2.13083767448552E-05,1.54138106154278E-05,1.7578125,0,0
-1.95459979295265E-05,1.33012736114324E-05,1.7578125,0,0
-2.11685510294046E-05,1.13894348032773E-05,1.7578125,0,0
-2.11444621527335E-05,7.54263692215318E-06,1.7578125,0,0
-2.17240321944701E-05,7.62380886953906E-06,1.7578125,0,0
-2.00922495423583E-05,1.02673247965868E-05,1.7578125,0,0
-1.95817210624227E-05,1.28745141410036E-05,1.7578125,0,0
-1.91680974239716E-05,1.13991300167982E-05,1.7578125,0,0
-2.08147703233408E-05,9.55113318923395E-06,1.7578125,0,0
-2.15299678529846E-05,9.12700579647208E-06,1.7578125,0,0
-2.16386069951113E-05,1.04868595371954E-05,1.7578125,0,0
-2.07603079616092E-05,1.09367174445651E-05,1.7578125,0,0
-2.05220003408613E-05,1.04192049548146E-05,1.7578125,0,0
-1.83847278094618E-05,8.1915823102463E-06,1.7578125,0,0
-2.71698681899579E-05,1.40878837555647E-05,1.7578125,0,0
-2.16992593777832E-05,1.54064709931845E-05,1.7578125,0,0
-2.64715781668201E-05,1.85454118764028E-05,1.7578125,0,0
-2.25620005949168E-05,1.5251829609042E-05,1.7578125,0,0
-2.44767452386441E-05,1.42363396662404E-05,1.7578125,0,0
-2.3513948690379E-05,1.39768271765206E-05,1.7578125,0,0
-2.61513760051457E-05,1.72908057720633E-05,1.7578125,0,0
-2.6644278477761E-05,1.83211959665641E-05,1.7578125,0,0
-2.65944199782098E-05,1.71070114447502E-05,1.7578125,0,0
-2.59442022070289E-05,1.54071913129883E-05,1.7578125,0,0
-2.47532188950572E-05,1.43433317134622E-05,1.7578125,0,0
-2.55783270404208E-05,1.52593092934694E-05,1.7578125,0,0
-2.50236225838307E-05,1.48288190757739E-05,1.7578125,0,0
-2.60296710621333E-05,1.37132501549786E-05,1.7578125,0,0
-2.47517073148629E-05,1.1890554560523E-05,1.7578125,0,0
-2.58119762293063E-05,1.21104203572031E-05,1.7578125,0,0
-2.62897319771582E-05,1.20482845886727E-05,1.7578125,0,0
-2.88130904664285E-05,1.22981246022391E-05,1.7578125,0,0
-2.77175313385669E-05,1.15089806058677E-05,1.7578125,0,0
-2.62836347246775E-05,1.12471971078776E-05,1.7578125,0,0
-2.43632675847039E-05,1.04664841273916E-05,1.7578125,0,0
-2.42186306422809E-05,1.01560472103301E-05,1.7578125,0,0
-2.3787446480128E-05,9.31049089558655E-06,1.7578125,0,0
-2.36483556363964E-05,9.14055544853909E-06,1.7578125,0,0
-2.33596165344352E-05,9.13278472580714E-06,1.7578125,0,0
-2.47571424552007E-05,8.54801237437641E-06,1.7578125,0,0
-2.32902348216157E-05,7.21884271115414E-06,1.7578125,0,0
-3.4920551115647E-05,1.07791493064724E-05,1.7578125,0,0
-2.74001249636058E-05,9.34289619181072E-06,1.7578125,0,0
-3.17489575536456E-05,1.30368398458813E-05,1.7578125,0,0
-2.71536500804359E-05,1.40847441798542E-05,1.7578125,0,0
-3.08177295664791E-05,1.64738466992276E-05,1.7578125,0,0
-2.92158274532994E-05,1.64319881150732E-05,1.7578125,0,0
-3.0184215574991E-05,1.59401879500365E-05,1.7578125,0,0
-2.78091993095586E-05,1.16453948066919E-05,1.7578125,0,0
-2.66834958893014E-05,6.66598316456657E-06,1.7578125,0,0
-2.75233232969185E-05,4.2861615838774E-06,1.7578125,0,0
-2.6705247364589E-05,5.80072628508788E-06,1.7578125,0,0
-2.66425831796369E-05,1.01976693258621E-05,1.7578125,0,0
-2.5188715881086E-05,1.2674125173362E-05,1.7578125,0,0
-2.61740260611987E-05,1.2672267985181E-05,1.7578125,0,0
-2.38150096265599E-05,1.10910259536467E-05,1.7578125,0,0
-2.27401942538563E-05,1.16260162030812E-05,1.7578125,0,0
-1.95528282347368E-05,1.14779577415902E-05,1.7578125,0,0
-2.01455550268292E-05,1.13459836939001E-05,1.7578125,0,0
-2.00860267796088E-05,1.12830066427705E-05,1.7578125,0,0
-2.03246199816931E-05,1.2338908163656E-05,1.7578125,0,0
-1.7393458620063E-05,1.16058272396913E-05,1.7578125,0,0
-1.71796509675914E-05,9.04236185306218E-06,1.7578125,0,0
-1.83275860763388E-05,6.16107126916177E-06,1.7578125,0,0
-1.98754605662543E-05,5.49928063264815E-06,1.7578125,0,0
-2.03794752451358E-05,4.41362317360472E-06,1.7578125,0,0
-2.1994248527335E-05,1.03386139471695E-06,1.7578125,0,0
-1.97577410290251E-05,-3.10549808091309E-06,1.7578125,0,0
-2.83054196188459E-05,-3.94706512452103E-06,1.7578125,0,0
-2.1152618501219E-05,1.94544145415421E-06,1.7578125,0,0
-2.59585067396984E-05,8.25378810986876E-06,1.7578125,0,0
-2.27237323997542E-05,1.25385677165468E-05,1.7578125,0,0
-2.55704417213565E-05,1.12525794975227E-05,1.7578125,0,0
-2.29184915951919E-05,1.01220039141481E-05,1.7578125,0,0
-2.3796903406037E-05,1.16752034955425E-05,1.7578125,0,0
-2.42723344854312E-05,1.28530818983563E-05,1.7578125,0,0
-2.49710756179411E-05,1.2446360415197E-05,1.7578125,0,0
-2.49648292083293E-05,1.33445410028799E-05,1.7578125,0,0
-2.44742204813519E-05,1.616399276827E-05,1.7578125,0,0
-2.58561540249502E-05,1.80237948370632E-05,1.7578125,0,0
-2.51791843766114E-05,1.79802973434562E-05,1.7578125,0,0
-2.54164770012721E-05,1.59966439241543E-05,1.7578125,0,0
-2.27665350394091E-05,1.43910283441073E-05,1.7578125,0,0
-2.27203436224954E-05,1.31016513478244E-05,1.7578125,0,0
-2.08677720365813E-05,1.1748827091651E-05,1.7578125,0,0
-2.05322648980655E-05,1.08599833765766E-05,1.7578125,0,0
-1.89994043466868E-05,1.08295198515407E-05,1.7578125,0,0
-2.10079433600185E-05,1.00996294349898E-05,1.7578125,0,0
-2.28056615014793E-05,8.60862201079726E-06,1.7578125,0,0
-2.41550696955528E-05,6.54792802379234E-06,1.7578125,0,0
-2.3733266061754E-05,5.65675054531312E-06,1.7578125,0,0
-2.39019973378163E-05,6.49105641059577E-06,1.7578125,0,0
-2.39912533288589E-05,7.31157524569426E-06,1.7578125,0,0
-2.42691767198266E-05,6.70533381708083E-06,1.7578125,0,0
-1.98841935343808E-05,5.70640349906171E-06,1.7578125,0,0
-2.82463988696691E-05,9.3219041445991E-06,1.7578125,0,0
-2.22994895011652E-05,8.15585190139245E-06,1.7578125,0,0
-2.82924502243986E-05,1.11452281998936E-05,1.7578125,0,0
-2.33374339586589E-05,1.28445426526014E-05,1.7578125,0,0
-2.51108285738155E-05,1.33201265271055E-05,1.7578125,0,0
-2.25557887461036E-05,1.14068880066043E-05,1.7578125,0,0
-2.29591441893717E-05,1.15680550152319E-05,1.7578125,0,0
-2.14874507946661E-05,1.16491755761672E-05,1.7578125,0,0
-2.06813674594741E-05,1.22814808491967E-05,1.7578125,0,0
-1.9500681446516E-05,1.36246326292166E-05,1.7578125,0,0
-1.71577175933635E-05,1.43511406349717E-05,1.7578125,0,0
-1.80916395038366E-05,1.45569083542796E-05,1.7578125,0,0
-1.94521344383247E-05,1.34387501020683E-05,1.7578125,0,0
-2.27940290642437E-05,1.24069047160447E-05,1.7578125,0,0
-2.18401910387911E-05,1.18063217087183E-05,1.7578125,0,0
-2.13511120819021E-05,1.30251137306914E-05,1.7578125,0,0
-1.92267125385115E-05,1.43198267323896E-05,1.7578125,0,0
-2.06265503948089E-05,1.54124190885341E-05,1.7578125,0,0
-2.14097944990499E-05,1.58222337631742E-05,1.7578125,0,0
-2.38607753999531E-05,1.68888491316466E-05,1.7578125,0,0
-2.32676829909906E-05,1.72943655343261E-05,1.7578125,0,0
-2.2588474166696E-05,1.66431764228037E-05,1.7578125,0,0
-2.20704787352588E-05,1.50200457937899E-05,1.7578125,0,0
-2.19533485505963E-05,1.36087865030277E-05,1.7578125,0,0
-2.10499729291769E-05,1.38692057589651E-05,1.7578125,0,0
-1.99924525077222E-05,1.57560571096838E-05,1.7578125,0,0
-1.59568608069094E-05,1.29265390569344E-05,1.7578125,0,0
-2.31390167755308E-05,1.89179208973655E-05,1.7578125,0,0
-2.00726535695139E-05,1.62852520588785E-05,1.7578125,0,0
-2.53114176302915E-05,2.17689103010343E-05,1.7578125,0,0
-2.1469168132171E-05,1.89091533684405E-05,1.7578125,0,0
-2.40741082961904E-05,1.80415590875782E-05,1.7578125,0,0
-2.28463595703943E-05,1.36841208586702E-05,1.7578125,0,0
-2.34409544646041E-05,1.26481199913542E-05,1.7578125,0,0
-2.20767105929554E-05,1.21851608128054E-05,1.7578125,0,0
-2.23988681682386E-05,1.29542677314021E-05,1.7578125,0,0
-2.31447338592261E-05,1.28907877297024E-05,1.7578125,0,0
-2.2337315385812E-05,1.06182014860678E-05,1.7578125,0,0
-2.2951613573241E-05,9.22026265470777E-06,1.7578125,0,0
-2.25220046559116E-05,8.00192174210679E-06,1.7578125,0,0
-2.33655500778696E-05,7.51524430597783E-06,1.7578125,0,0
-2.22236885747407E-05,4.16407328884816E-06,1.7578125,0,0
-2.35247589444043E-05,3.30272109749785E-06,1.7578125,0,0
-2.26169686357025E-05,3.97728763346095E-06,1.7578125,0,0
-2.26673946599476E-05,6.59277520753676E-06,1.7578125,0,0
-2.20409438043134E-05,7.08478319211281E-06,1.7578125,0,0
-2.42423975578276E-05,8.07992546469904E-06,1.7578125,0,0
-2.5482380806352E-05,7.79413767304504E-06,1.7578125,0,0
-2.64495938608889E-05,8.30616863822797E-06,1.7578125,0,0
-2.58526706602424E-05,8.31370107334806E-06,1.7578125,0,0
-2.63625297520775E-05,9.30927217268618E-06,1.7578125,0,0
-2.69263255177066E-05,9.8782938948716E-06,1.7578125,0,0
-2.60236120084301E-05,8.70854546519695E-06,1.7578125,0,0
-1.8512188034947E-05,6.14522650721483E-06,1.7578125,0,0
-2.54036531259771E-05,7.9000992627698E-06,1.7578125,0,0
-1.97268927877303E-05,2.97990800390835E-06,1.7578125,0,0
-2.6043990146718E-05,8.99143060451024E-07,1.7578125,0,0
-2.26788670261158E-05,-1.41724581226299E-06,1.7578125,0,0
-2.59933221968822E-05,1.18053037567734E-06,1.7578125,0,0
-2.33713726629503E-05,2.89225818050909E-06,1.7578125,0,0
-2.44613984250464E-05,4.06180970458081E-06,1.7578125,0,0
-2.40259723796044E-05,2.80078620562563E-06,1.7578125,0,0
-2.46565941779409E-05,1.56742021317768E-06,1.7578125,0,0
-2.53493399213767E-05,2.28319845518854E-06,1.7578125,0,0
-2.43931772274664E-05,4.57972373624216E-06,1.7578125,0,0
-2.38105913012987E-05,7.49552509660134E-06,1.7578125,0,0
-2.14251722354675E-05,8.56529004522599E-06,1.7578125,0,0
-2.27948803512845E-05,8.57311533764005E-06,1.7578125,0,0
-2.30610112339491E-05,7.91544516687281E-06,1.7578125,0,0
-2.55758823186625E-05,8.80649258760968E-06,1.7578125,0,0
-2.61767927440815E-05,9.36211563384859E-06,1.7578125,0,0
-2.85128953692038E-05,1.051566505339E-05,1.7578125,0,0
-2.7550262529985E-05,1.09351267383317E-05,1.7578125,0,0
-2.67467385128839E-05,1.1711218576238E-05,1.7578125,0,0
-2.52293393714353E-05,1.18351717901533E-05,1.7578125,0,0
-2.63189613178838E-05,1.20321092254017E-05,1.7578125,0,0
-2.61659843090456E-05,1.21044395200443E-05,1.7578125,0,0
-2.56040511885658E-05,1.16524579425459E-05,1.7578125,0,0
-2.48672113229986E-05,9.49208879319485E-06,1.7578125,0,0
-2.49266231548972E-05,8.71078736963682E-06,1.7578125,0,0
-2.15236577787437E-05,8.16523061075713E-06,1.7578125,0,0
-3.10874384013005E-05,1.26665081552346E-05,1.7578125,0,0
-2.28163244173629E-05,9.6135399871855E-06,1.7578125,0,0
-2.69748634309508E-05,1.096376854548E-05,1.7578125,0,0
-2.28878216148587E-05,1.06505540315993E-05,1.7578125,0,0
-2.56926050496986E-05,1.29692680275184E-05,1.7578125,0,0
-2.38199645536952E-05,1.29173413370154E-05,1.7578125,0,0
-2.58556920016417E-05,1.35990849230438E-05,1.7578125,0,0
-2.60134584095795E-05,1.45350577440695E-05,1.7578125,0,0
-2.63854035438271E-05,1.72237541846698E-05,1.7578125,0,0
-2.6923780751531E-05,2.06012700800784E-05,1.7578125,0,0
-2.78043680737028E-05,2.17959623114439E-05,1.7578125,0,0
-3.03911438095383E-05,2.0900355593767E-05,1.7578125,0,0
-2.95098398055416E-05,1.92347197298659E-05,1.7578125,0,0
-2.91690012090839E-05,1.96094897546573E-05,1.7578125,0,0
-2.67024861386744E-05,1.92117240658263E-05,1.7578125,0,0
-2.72800116363214E-05,1.88896738109179E-05,1.7578125,0,0
-2.53698071901454E-05,1.82380790647585E-05,1.7578125,0,0
-2.53222133324016E-05,1.96372948266799E-05,1.7578125,0,0
-2.37930980802048E-05,2.0955112631782E-05,1.7578125,0,0
-2.39793953369372E-05,2.12843588087708E-05,1.7578125,0,0
-2.28711214731447E-05,1.96575292648049E-05,1.7578125,0,0
-2.25468484131852E-05,1.62945379997836E-05,1.7578125,0,0
-2.15789223148022E-05,9.52797381614801E-06,1.7578125,0,0
-2.23837469093269E-05,2.46794024860719E-06,1.7578125,0,0
-2.29576326091774E-05,-1.15928639843332E-06,1.7578125,0,0
-2.32780039368663E-05,-1.50471146298514E-06,1.7578125,0,0
-1.96233741007745E-05,-9.25560811992909E-07,1.7578125,0,0
-2.86365411739098E-05,-4.61003168084062E-07,1.7578125,0,0
-2.35412480833475E-05,1.46838112868863E-06,1.7578125,0,0
-2.97427995974431E-05,3.62352693628054E-06,1.7578125,0,0
-2.53732105193194E-05,7.01877843312104E-06,1.7578125,0,0
-2.69528372882633E-05,7.32949183657183E-06,1.7578125,0,0
-2.46423387579853E-05,6.11488439972163E-06,1.7578125,0,0
-2.59608314081561E-05,5.2543769015756E-06,1.7578125,0,0
-2.52732606895734E-05,6.00408793616225E-06,1.7578125,0,0
-2.47860480158124E-05,7.05675847711973E-06,1.7578125,0,0
-2.49301301664673E-05,8.47986211738316E-06,1.7578125,0,0
-2.36506966757588E-05,1.07858541014139E-05,1.7578125,0,0
-2.3315302314586E-05,1.16439196062856E-05,1.7578125,0,0
-2.16176576941507E-05,1.12466532300459E-05,1.7578125,0,0
-2.20152469410095E-05,1.11347890197067E-05,1.7578125,0,0
-2.04175212275004E-05,1.17237887025112E-05,1.7578125,0,0
-2.20301972149173E-05,1.19951373562799E-05,1.7578125,0,0
-2.26288866542745E-05,1.22671335702762E-05,1.7578125,0,0
-2.36297637457028E-05,1.18746665975777E-05,1.7578125,0,0
-2.11501173907891E-05,1.08205385913607E-05,1.7578125,0,0
-2.06195527425734E-05,1.00158067652956E-05,1.7578125,0,0
-2.07214761758223E-05,1.00564648164436E-05,1.7578125,0,0
-2.30524565267842E-05,1.04752816696418E-05,1.7578125,0,0
-2.30855548579711E-05,1.06117104223813E-05,1.7578125,0,0
-2.16336266021244E-05,1.0301812835678E-05,1.7578125,0,0
-2.05406486202264E-05,1.09282709672698E-05,1.7578125,0,0
-2.14273750316352E-05,1.07565410871757E-05,1.7578125,0,0
-1.83906813617796E-05,8.83200482348911E-06,1.7578125,0,0
-2.74296144198161E-05,1.33838084366289E-05,1.7578125,0,0
-2.25879957724828E-05,1.07171645140625E-05,1.7578125,0,0
-2.77699164143996E-05,1.23590652947314E-05,1.7578125,0,0
-2.47168100031558E-05,1.07119149106438E-05,1.7578125,0,0
-2.80057902273256E-05,1.24974276332068E-05,1.7578125,0,0
-2.6226089175907E-05,1.12076822915697E-05,1.7578125,0,0
-2.55827508226503E-05,1.01642262961832E-05,1.7578125,0,0
-2.35370607697405E-05,8.69821997184772E-06,1.7578125,0,0
-2.4015720555326E-05,8.92516982275993E-06,1.7578125,0,0
-2.5614504920668E-05,9.25289805309149E-06,1.7578125,0,0
-2.48017076955875E-05,8.08663298812462E-06,1.7578125,0,0
-2.37923504755599E-05,7.79760102886939E-06,1.7578125,0,0
-2.28332664846675E-05,9.16260978556238E-06,1.7578125,0,0
-2.58330092037795E-05,1.23251156765036E-05,1.7578125,0,0
-2.69333977485076E-05,1.31389679154381E-05,1.7578125,0,0
-2.82594282907667E-05,1.35403670356027E-05,1.7578125,0,0
-2.58491036220221E-05,1.2536734175228E-05,1.7578125,0,0
-2.39302062254865E-05,1.27123530546669E-05,1.7578125,0,0
-2.05524593184236E-05,1.24028465506854E-05,1.7578125,0,0
-2.03301078727236E-05,1.27893736134865E-05,1.7578125,0,0
-2.01935981749557E-05,1.15872871901956E-05,1.7578125,0,0
-2.03475701709976E-05,9.66790867096279E-06,1.7578125,0,0
-1.90643531823298E-05,7.39245069780736E-06,1.7578125,0,0
-1.86210563697387E-05,8.18181524664396E-06,1.7578125,0,0
-1.8029437342193E-05,1.12856141640805E-05,1.7578125,0,0
-1.75713103089947E-05,1.25521819427377E-05,1.7578125,0,0
-1.55377929331735E-05,1.0476443094376E-05,1.7578125,0,0
-2.40155586652691E-05,1.49065090226941E-05,1.7578125,0,0
-1.94416079466464E-05,1.0845718861674E-05,1.7578125,0,0
-2.15659838431748E-05,1.21703014883678E-05,1.7578125,0,0
-1.86013785423711E-05,8.96389701665612E-06,1.7578125,0,0
-2.20241254282882E-05,9.72265570453601E-06,1.7578125,0,0
-2.19223002204672E-05,6.29884971203865E-06,1.7578125,0,0
-2.38669490499888E-05,4.87929037262802E-06,1.7578125,0,0
-2.50091525231255E-05,4.13872157878359E-06,1.7578125,0,0
-2.64810423686868E-05,5.23244898431585E-06,1.7578125,0,0
-2.70354084932478E-05,7.46265914131072E-06,1.7578125,0,0
-2.59203425230226E-05,8.81890900927829E-06,1.7578125,0,0
-2.52502231887775E-05,1.04842692962848E-05,1.7578125,0,0
-2.29261222557398E-05,1.10594364741701E-05,1.7578125,0,0
-2.25966632569907E-05,1.32892000692664E-05,1.7578125,0,0
-2.20812289626338E-05,1.45336962305009E-05,1.7578125,0,0
-2.45493192778667E-05,1.64779739861842E-05,1.7578125,0,0
-2.5675239157863E-05,1.47220453072805E-05,1.7578125,0,0
-2.63588663074188E-05,1.18768848551554E-05,1.7578125,0,0
-2.47893422056222E-05,8.88231716089649E-06,1.7578125,0,0
-2.50890461757081E-05,8.86743600858608E-06,1.7578125,0,0
-2.41945890593342E-05,9.39396613830468E-06,1.7578125,0,0
-2.34818180615548E-05,9.92726018012036E-06,1.7578125,0,0
-2.305234738742E-05,1.08587173599517E-05,1.7578125,0,0
-2.43841768678976E-05,1.1659206393233E-05,1.7578125,0,0
-2.60445121966768E-05,1.08928425106569E-05,1.7578125,0,0
-2.64170103037031E-05,1.04493565231678E-05,1.7578125,0,0
-2.08211640710942E-05,9.00360464584082E-06,1.7578125,0,0
-2.80381536867935E-05,1.36745038616937E-05,1.7578125,0,0
-1.90026748896344E-05,1.13411551865283E-05,1.7578125,0,0
-2.51394285442075E-05,1.30394382722443E-05,1.7578125,0,0
-2.2234922653297E-05,1.04491127785877E-05,1.7578125,0,0
-2.58821110037388E-05,1.19142086987267E-05,1.7578125,0,0
-2.40482549997978E-05,1.19655151138431E-05,1.7578125,0,0
-2.67164323304314E-05,1.08385538624134E-05,1.7578125,0,0
-2.8022293918184E-05,7.62922672947752E-06,1.7578125,0,0
-2.99884341075085E-05,7.47972535464214E-06,1.7578125,0,0
-3.15580145979766E-05,1.0056594874186E-05,1.7578125,0,0
-3.07824011542834E-05,1.06000143205165E-05,1.7578125,0,0
-3.15719553327654E-05,9.9658082035603E-06,1.7578125,0,0
-3.04847035295097E-05,8.74076431500725E-06,1.7578125,0,0
-3.17694066325203E-05,8.65543643158162E-06,1.7578125,0,0
-3.10427276417613E-05,7.88476518209791E-06,1.7578125,0,0
-3.22056330332998E-05,8.11270911071915E-06,1.7578125,0,0
-2.98368431685958E-05,8.1364833022235E-06,1.7578125,0,0
-2.89401086774888E-05,1.01766472653253E-05,1.7578125,0,0
-2.68625244643772E-05,1.17239451355999E-05,1.7578125,0,0
-2.74689118668903E-05,1.23812851597904E-05,1.7578125,0,0
-2.68177809630288E-05,1.17905774459359E-05,1.7578125,0,0
-2.64593472820707E-05,1.1962160897383E-05,1.7578125,0,0
-2.53257876465796E-05,1.14765352918766E-05,1.7578125,0,0
-2.56502626143629E-05,1.11276276584249E-05,1.7578125,0,0
-2.56938747043023E-05,1.21354751172476E-05,1.7578125,0,0
-2.48832275246968E-05,1.4411873962672E-05,1.7578125,0,0
-1.92045663425233E-05,1.18395655590575E-05,1.7578125,0,0
-2.70158361672657E-05,1.61842835950665E-05,1.7578125,0,0
-2.05465621547773E-05,1.14910944830626E-05,1.7578125,0,0
-2.56478397204774E-05,1.45420890476089E-05,1.7578125,0,0
-2.06865024665603E-05,1.21419780043652E-05,1.7578125,0,0
-2.2292686480796E-05,1.38125269586453E-05,1.7578125,0,0
-1.94852727872785E-05,1.25967899293755E-05,1.7578125,0,0
-2.0565257727867E-05,1.48136450661696E-05,1.7578125,0,0
-2.14597603189759E-05,1.50586120071239E-05,1.7578125,0,0
-2.29477227549069E-05,1.3545834008255E-05,1.7578125,0,0
-2.32026814046549E-05,1.25369524539565E-05,1.7578125,0,0
-2.21345162572106E-05,1.27668508866918E-05,1.7578125,0,0
-2.29214565479197E-05,1.3903969374951E-05,1.7578125,0,0
-2.19468947761925E-05,1.29634399854694E-05,1.7578125,0,0
-2.29520392167615E-05,1.34318306663772E-05,1.7578125,0,0
-2.27623240789399E-05,1.28155306811095E-05,1.7578125,0,0
-2.47066654992523E-05,1.34104157041293E-05,1.7578125,0,0
-2.39270502788713E-05,1.22330329759279E-05,1.7578125,0,0
-2.46882809733506E-05,1.18507978186244E-05,1.7578125,0,0
-2.28812859859318E-05,9.84899725153809E-06,1.7578125,0,0
-2.18009772652294E-05,8.06789375928929E-06,1.7578125,0,0
-1.99093210540013E-05,5.37800769961905E-06,1.7578125,0,0
-1.95547927432926E-05,3.6112451198278E-06,1.7578125,0,0
-1.90743212442612E-05,3.09458209812874E-06,1.7578125,0,0
-2.02574628929142E-05,5.28009331901558E-06,1.7578125,0,0
-2.16241842281306E-05,7.6702262958861E-06,1.7578125,0,0
-2.37190542975441E-05,8.33488957141526E-06,1.7578125,0,0
-2.11116475838935E-05,6.69825158183812E-06,1.7578125,0,0
-2.99845323752379E-05,9.71794634097023E-06,1.7578125,0,0
-2.22394955926575E-05,7.38251128495904E-06,1.7578125,0,0
-2.70142791123362E-05,8.52762786962558E-06,1.7578125,0,0
-2.25888488785131E-05,6.82478594171698E-06,1.7578125,0,0
-2.48164469667245E-05,7.10668427927885E-06,1.7578125,0,0
-2.1393554561655E-05,6.49154981147149E-06,1.7578125,0,0
-2.17452015931485E-05,7.66456651035696E-06,1.7578125,0,0
-1.99276182684116E-05,8.35740502225235E-06,1.7578125,0,0
-1.9064227672061E-05,9.08062975213397E-06,1.7578125,0,0
-1.87373771041166E-05,1.04426899270038E-05,1.7578125,0,0
-1.69511822605273E-05,1.15618049676414E-05,1.7578125,0,0
-1.67626931215636E-05,1.19944115795079E-05,1.7578125,0,0
-1.44110590554192E-05,1.21317789307795E-05,1.7578125,0,0
-1.47651717270492E-05,1.41976197483018E-05,1.7578125,0,0
-1.40336496770033E-05,1.54977733473061E-05,1.7578125,0,0
-1.56408950715559E-05,1.68750848388299E-05,1.7578125,0,0
-1.41969385367702E-05,1.73097778315423E-05,1.7578125,0,0
-1.53856199176516E-05,1.78064128704136E-05,1.7578125,0,0
-1.64803968800697E-05,1.68005844898289E-05,1.7578125,0,0
-1.98364687093999E-05,1.69465001818025E-05,1.7578125,0,0
-2.06122513191076E-05,1.84178625204368E-05,1.7578125,0,0
-2.09682802960742E-05,1.96109249372967E-05,1.7578125,0,0
-2.10896032513119E-05,1.90401715371991E-05,1.7578125,0,0
-2.39497658185428E-05,1.92795541806845E-05,1.7578125,0,0
-2.74127705779392E-05,1.98532816284569E-05,1.7578125,0,0
-2.8770933568012E-05,1.85682856681524E-05,1.7578125,0,0
-2.35657280427404E-05,1.25092001326266E-05,1.7578125,0,0
-3.37280907842796E-05,1.67691505339462E-05,1.7578125,0,0
-2.59107855526963E-05,1.24030893857707E-05,1.7578125,0,0
-3.19244900310878E-05,1.77335496118758E-05,1.7578125,0,0
-2.68480507656932E-05,1.62832875503227E-05,1.7578125,0,0
-2.96282159979455E-05,1.67791149578989E-05,1.7578125,0,0
-2.79357591352891E-05,1.14741178549593E-05,2.109375,0,0
-3.07123264065012E-05,9.90738772088662E-06,2.109375,0,0
-2.9102213375154E-05,8.77775255503366E-06,2.109375,0,0
-2.63602978520794E-05,6.99670181347756E-06,2.109375,0,0
-2.53395774052478E-05,6.15420140093192E-06,2.109375,0,0
-2.56639814324444E-05,6.98513986208127E-06,2.109375,0,0
-2.77948711300269E-05,8.59464489622042E-06,2.109375,0,0
-2.59255357377697E-05,7.70473525335547E-06,2.109375,0,0
-2.55193208431592E-05,7.91692855273141E-06,2.109375,0,0
-2.40523986576591E-05,7.55155815568287E-06,2.109375,0,0
-2.61041313933674E-05,9.32319744606502E-06,2.109375,0,0
-2.55187678703805E-05,9.73710575635778E-06,2.109375,0,0
-2.71201170107815E-05,1.09561378849321E-05,2.109375,0,0
-2.59879052464385E-05,1.03045731520979E-05,2.109375,0,0
-2.6517463993514E-05,9.63952697929926E-06,2.109375,0,0
-2.63311412709299E-05,8.00797533884179E-06,2.109375,0,0
-2.77783274214016E-05,8.14524992165389E-06,2.109375,0,0
-2.79133419098798E-05,8.42778081278084E-06,2.109375,0,0
-2.84679281321587E-05,9.11448751139687E-06,2.109375,0,0
-2.74137328233337E-05,8.95575522008585E-06,2.109375,0,0
-2.53309826803161E-05,9.71125336945988E-06,2.109375,0,0
-2.03075978788547E-05,9.82428355200682E-06,2.109375,0,0
-2.98637278319802E-05,1.56202640937408E-05,2.109375,0,0
-2.36512805713573E-05,1.28698457046994E-05,2.109375,0,0
-2.66544157057069E-05,1.33086177811492E-05,2.109375,0,0
-1.98516790987924E-05,1.01482337413472E-05,2.109375,0,0
-2.03330218937481E-05,1.10409346234519E-05,2.109375,0,0
-1.75500717887189E-05,1.04921446109074E-05,2.109375,0,0
-2.0438141291379E-05,1.1290791007923E-05,2.109375,0,0
-2.14656865864526E-05,1.17861191029078E-05,2.109375,0,0
-2.26803440455114E-05,1.2795499060303E-05,2.109375,0,0
-2.27968903345754E-05,1.32966661112732E-05,2.109375,0,0
-2.12752438528696E-05,1.1051602086809E-05,2.109375,0,0
-2.18531095015351E-05,6.96589131621295E-06,2.109375,0,0
-2.18941295315744E-05,2.032353904724E-06,2.109375,0,0
-2.39787059399532E-05,-2.01966258828179E-07,2.109375,0,0
-2.24797586270142E-05,-1.28055091863644E-06,2.109375,0,0
-2.28886983677512E-05,-5.19915488439437E-07,2.109375,0,0
-2.16385215026094E-05,-1.09155124050631E-07,2.109375,0,0
-2.29621982725803E-05,2.07974039767578E-06,2.109375,0,0
-2.21905211219564E-05,3.27402676703059E-06,2.109375,0,0
-2.23993847612292E-05,4.13123416365124E-06,2.109375,0,0
-2.08229121199111E-05,4.72491274194908E-06,2.109375,0,0
-2.12997147173155E-05,6.60724799672607E-06,2.109375,0,0
-2.21256232180167E-05,7.38954122425639E-06,2.109375,0,0
-2.27160362555878E-05,6.70620602249983E-06,2.109375,0,0
-2.20925085159251E-05,6.54299037705641E-06,2.109375,0,0
-2.27545951929642E-05,8.16888314147945E-06,2.109375,0,0
-1.93428095371928E-05,8.58662315295078E-06,2.109375,0,0
-2.64161626546411E-05,1.32330451378948E-05,2.109375,0,0
-1.87954719876871E-05,1.20953873192775E-05,2.109375,0,0
-2.33076880249428E-05,1.53675773617579E-05,2.109375,0,0
-1.88038011401659E-05,1.40519414344453E-05,2.109375,0,0
-2.18167751881992E-05,1.48090484799468E-05,2.109375,0,0
-1.94347157957964E-05,1.28793572002905E-05,2.109375,0,0
-2.01553739316296E-05,1.23643621918745E-05,2.109375,0,0
-1.89320162462536E-05,1.26254471979337E-05,2.109375,0,0
-1.78501049958868E-05,1.42955987030291E-05,2.109375,0,0
-1.73712960531702E-05,1.47998152897344E-05,2.109375,0,0
-1.62208725669188E-05,1.3263093023852E-05,2.109375,0,0
-1.67014004546218E-05,1.22587252917583E-05,2.109375,0,0
-1.59829705808079E-05,1.06946599771618E-05,2.109375,0,0
-1.89402326213894E-05,1.01550822364516E-05,2.109375,0,0
-2.0086514268769E-05,9.60376019065734E-06,2.109375,0,0
-2.24452069232939E-05,1.13559144665487E-05,2.109375,0,0
-2.2073360014474E-05,1.20158156278194E-05,2.109375,0,0
-2.36813593801344E-05,1.17623731057392E-05,2.109375,0,0
-2.42451842495939E-05,1.00178449429222E-05,2.109375,0,0
-2.64265254372731E-05,9.49322202359326E-06,2.109375,0,0
-2.61660588876111E-05,9.19933881959878E-06,2.109375,0,0
-2.52490226557711E-05,8.76469857757911E-06,2.109375,0,0
-2.24145605898229E-05,7.93168055679416E-06,2.109375,0,0
-2.23119041038444E-05,7.14595716999611E-06,2.109375,0,0
-2.47879634116543E-05,5.20786807101103E-06,2.109375,0,0
-2.63364563579671E-05,3.98073188989656E-06,2.109375,0,0
-2.20680667553097E-05,3.9795954762667E-06,2.109375,0,0
-3.2520605600439E-05,7.28985332898446E-06,2.109375,0,0
-2.53701855399413E-05,7.16923477739329E-06,2.109375,0,0
-2.86345130007248E-05,9.0222647486371E-06,2.109375,0,0
-2.24133545998484E-05,1.07493724499363E-05,2.109375,0,0
-2.56567691394594E-05,1.12726720544742E-05,2.109375,0,0
-2.44320763158612E-05,9.88592728390358E-06,2.109375,0,0
-2.62148678302765E-05,9.88351075648097E-06,2.109375,0,0
-2.4699862478883E-05,1.02137855719775E-05,2.109375,0,0
-2.36794512602501E-05,1.02776530184201E-05,2.109375,0,0
-2.39333894569427E-05,1.0906385796261E-05,2.109375,0,0
-2.41839843511116E-05,1.02202275229502E-05,2.109375,0,0
-2.65924463747069E-05,8.43275029183133E-06,2.109375,0,0
-2.69812280748738E-05,7.90459671407007E-06,2.109375,0,0
-2.86164195131278E-05,8.96077290235553E-06,2.109375,0,0
-2.73190107691335E-05,8.75623300089501E-06,2.109375,0,0
-2.81688498944277E-05,8.09333960205549E-06,2.109375,0,0
-2.70311411441071E-05,7.96779931988567E-06,2.109375,0,0
-2.82896762655582E-05,8.65192760102218E-06,2.109375,0,0
-2.68565217993455E-05,9.3852577265352E-06,2.109375,0,0
-2.70036816800712E-05,1.02945568869472E-05,2.109375,0,0
-2.63414294749964E-05,1.05557410279289E-05,2.109375,0,0
-2.72760462394217E-05,1.07131627373747E-05,2.109375,0,0
-2.74309568339959E-05,1.14862859845744E-05,2.109375,0,0
-2.71409007837065E-05,1.28625388242654E-05,2.109375,0,0
-2.60175929724937E-05,1.36112785185105E-05,2.109375,0,0
-2.56718303717207E-05,1.37268043545191E-05,2.109375,0,0
-2.00237554963678E-05,1.12800998977036E-05,2.109375,0,0
-2.85692694887985E-05,1.60817944561131E-05,2.109375,0,0
-2.35246698139235E-05,1.22221017591073E-05,2.109375,0,0
-3.04319819406373E-05,1.48914723467897E-05,2.109375,0,0
-2.58316431427374E-05,1.10998607851798E-05,2.109375,0,0
-2.74275680567371E-05,1.07011683212477E-05,2.109375,0,0
-2.49867862294195E-05,8.74790748639498E-06,2.109375,0,0
-2.68703188339714E-05,1.03570764622418E-05,2.109375,0,0
-2.60307115240721E-05,1.19604146675556E-05,2.109375,0,0
-2.53988146141637E-05,1.47004366226611E-05,2.109375,0,0
-2.47986936301459E-05,1.61155021487502E-05,2.109375,0,0
-2.37027034017956E-05,1.48983226608834E-05,2.109375,0,0
-2.52434183494188E-05,1.41501986945514E-05,2.109375,0,0
-2.54215538006974E-05,1.35567443066975E-05,2.109375,0,0
-2.67871855612611E-05,1.52606608025962E-05,2.109375,0,0
-2.52097433985909E-05,1.53820801642723E-05,2.109375,0,0
-2.55851282418007E-05,1.60486670210958E-05,2.109375,0,0
-2.36483865592163E-05,1.53216078615515E-05,2.109375,0,0
-2.45193077716976E-05,1.46506008604774E-05,2.109375,0,0
-2.46827530645533E-05,1.21383473015158E-05,2.109375,0,0
-2.61507811956108E-05,1.14011436380679E-05,2.109375,0,0
-2.50314060394885E-05,1.09422599052778E-05,2.109375,0,0
-2.4674007363501E-05,1.18435618787771E-05,2.109375,0,0
-2.41719881159952E-05,1.13653168227756E-05,2.109375,0,0
-2.52343470492633E-05,1.04693317553028E-05,2.109375,0,0
-2.6534304197412E-05,1.04855553217931E-05,2.109375,0,0
-2.84010093309917E-05,1.19606102089165E-05,2.109375,0,0
-2.35630741372006E-05,9.38917855819454E-06,2.109375,0,0
-3.3468419132987E-05,1.23070785775781E-05,2.109375,0,0
-2.60313972830772E-05,9.14825250220019E-06,2.109375,0,0
-3.21404404530767E-05,1.2960501408088E-05,2.109375,0,0
-2.58995169133414E-05,1.04542987173772E-05,2.109375,0,0
-2.81047923635924E-05,1.07288260551286E-05,2.109375,0,0
-2.50599532591878E-05,9.80652748694411E-06,2.109375,0,0
-2.62582689174451E-05,1.20203740152647E-05,2.109375,0,0
-2.51136261795182E-05,1.36230664793402E-05,2.109375,0,0
-2.43407394009409E-05,1.45571157190716E-05,2.109375,0,0
-2.33420705626486E-05,1.44081432154053E-05,2.109375,0,0
-2.10196485568304E-05,1.41180544233066E-05,2.109375,0,0
-2.15333111555083E-05,1.47053051477997E-05,2.109375,0,0
-2.12985632970231E-05,1.35981263156282E-05,2.109375,0,0
-2.42221030930523E-05,1.17072067951085E-05,2.109375,0,0
-2.38939937844407E-05,8.96790697879624E-06,2.109375,0,0
-2.50335833698045E-05,9.39560050028376E-06,2.109375,0,0
-2.30303085118067E-05,1.01413215816137E-05,2.109375,0,0
-2.32737529586302E-05,1.13425785457366E-05,2.109375,0,0
-2.13803505175747E-05,1.10447226688848E-05,2.109375,0,0
-2.15643995034043E-05,1.22604551506811E-05,2.109375,0,0
-2.1027075490565E-05,1.23501486086752E-05,2.109375,0,0
-2.23710649152054E-05,1.09984621303738E-05,2.109375,0,0
-2.15486797969788E-05,8.87925580173032E-06,2.109375,0,0
-1.98753459699219E-05,9.33610590436729E-06,2.109375,0,0
-1.92418156075291E-05,1.04502178146504E-05,2.109375,0,0
-2.019343264692E-05,1.12464076664764E-05,2.109375,0,0
-1.82788480742602E-05,9.27089058677666E-06,2.109375,0,0
-2.7472688088892E-05,1.22243345686002E-05,2.109375,0,0
-2.17109627556056E-05,8.20200511952862E-06,2.109375,0,0
-2.51886849582661E-05,1.07865944301011E-05,2.109375,0,0
-2.20938109123381E-05,8.82342192198848E-06,2.109375,0,0
-2.47151856456185E-05,1.0331165867683E-05,2.109375,0,0
-2.30895020649768E-05,9.58746386459097E-06,2.109375,0,0
-2.43289196077967E-05,9.25295262277359E-06,2.109375,0,0
-2.40616245719139E-05,8.25147344585275E-06,2.109375,0,0
-2.41094821831211E-05,9.48113029153319E-06,2.109375,0,0
-2.38473076024093E-05,1.13713413156802E-05,2.109375,0,0
-2.28456756303785E-05,1.16212522698333E-05,5.44921875,0,0
-2.33921145991189E-05,1.20873373816721E-05,5.44921875,0,0
-2.29750767175574E-05,1.12724010250531E-05,5.44921875,0,0
-2.43265458266251E-05,1.17851368486299E-05,5.44921875,0,0
-2.24881132453447E-05,1.16911860459368E-05,5.44921875,0,0
-2.16622865991667E-05,1.25716214824934E-05,5.44921875,0,0
-1.95945540326647E-05,1.31903043438797E-05,5.44921875,0,0
-2.00288013729732E-05,1.54305544128874E-05,5.44921875,0,0
-1.93382184079383E-05,1.57953963935142E-05,5.44921875,0,0
-2.0219824364176E-05,1.61423358804313E-05,5.44921875,0,0
-2.0465966372285E-05,1.6209027307923E-05,5.44921875,0,0
-2.23417537199566E-05,1.66545924003003E-05,5.44921875,0,0
-2.36530395341106E-05,1.65326364367502E-05,5.44921875,0,0
-2.3459164367523E-05,1.72640684468206E-05,5.44921875,0,0
-2.16316711885156E-05,1.82767398655415E-05,5.44921875,0,0
-2.04352181754075E-05,1.85903027158929E-05,5.44921875,0,0
-1.56734658958158E-05,1.51011427078629E-05,5.44921875,0,0
-2.19752528209938E-05,2.12282229767879E-05,5.44921875,0,0
-1.67212110682158E-05,1.47134396684123E-05,5.44921875,0,0
-2.11083770409459E-05,1.62583710334729E-05,5.44921875,0,0
-1.74752658494981E-05,1.00097104223096E-05,5.44921875,0,0
-1.97505833057221E-05,8.89336934051244E-06,5.44921875,0,0
-1.94835611182498E-05,6.21135814071749E-06,5.44921875,0,0
-2.10567577596521E-05,8.1201706052525E-06,5.44921875,0,0
-2.00887625396717E-05,8.69242194312392E-06,5.44921875,0,0
-2.05593423743267E-05,9.85818678600481E-06,5.44921875,0,0
-2.12133581953822E-05,1.10350683826255E-05,5.44921875,0,0
-1.99089554371312E-05,9.91924662230304E-06,5.44921875,0,0
-2.06287131732097E-05,7.02903662386234E-06,5.44921875,0,0
-2.11969709198456E-05,1.71651981872856E-06,5.44921875,0,0
-2.264994327561E-05,-4.15600169390018E-07,5.44921875,0,0
-2.06255390367005E-05,-2.27252780859999E-06,5.44921875,0,0
-2.0167915863567E-05,-2.26430370275921E-06,5.44921875,0,0
-2.01726779778255E-05,-4.76851573694148E-06,5.44921875,0,0
-2.34037142945454E-05,-5.85204679737217E-06,5.44921875,0,0
-2.49000568146585E-05,-5.93875665799715E-06,5.44921875,0,0
-2.63399651885265E-05,-1.6390202972616E-06,5.44921875,0,0
-2.55793856922537E-05,1.93365394807188E-06,5.44921875,0,0
-2.5284865841968E-05,4.64985259895911E-06,5.44921875,0,0
-2.46877043537097E-05,5.24392316947342E-06,5.44921875,0,0
-2.54191691055894E-05,6.17828482063487E-06,5.44921875,0,0
-2.67420255113393E-05,6.80120319884736E-06,5.44921875,0,0
-2.73615205514943E-05,5.72724047742668E-06,5.44921875,0,0
-2.31423437071498E-05,3.98238444176968E-06,5.44921875,0,0
-3.32930794684216E-05,7.8146840678528E-06,5.44921875,0,0
-2.45073515543481E-05,8.69176255946513E-06,5.44921875,0,0
-2.83800254692324E-05,9.05371780390851E-06,5.44921875,0,0
-2.30636487685842E-05,7.44388034945587E-06,5.44921875,0,0
-2.59907228610246E-05,8.37599054648308E-06,5.44921875,0,0
-2.22805465455167E-05,1.12352718133479E-05,5.44921875,0,0
-2.30077112064464E-05,1.37131064548157E-05,5.44921875,0,0
-2.15782110899454E-05,1.37633878694032E-05,5.44921875,0,0
-1.97896515601315E-05,1.32159548229538E-05,5.44921875,0,0
-1.92394236364635E-05,1.25942842714721E-05,5.44921875,0,0
-1.89501170098083E-05,1.20371023513144E-05,5.44921875,0,0
-2.0569445041474E-05,1.21311268230784E-05,5.44921875,0,0
-1.94305393961258E-05,1.31036749735358E-05,5.44921875,0,0
-2.03362105821725E-05,1.52726006490411E-05,5.44921875,0,0
-1.96564942598343E-05,1.68947790371021E-05,5.44921875,0,0
-2.17665292439051E-05,1.78860536834691E-05,5.44921875,0,0
-2.04255102289608E-05,1.74004871951183E-05,5.44921875,0,0
-2.02472965611378E-05,1.70622315636138E-05,5.44921875,0,0
-1.83427509909961E-05,1.70123730640626E-05,5.44921875,0,0
-2.03660420083907E-05,1.69525956152938E-05,5.44921875,0,0
-2.26491538342088E-05,1.64725734066451E-05,5.44921875,0,0
-2.53842190431897E-05,1.56819478434045E-05,5.44921875,0,0
-2.48019969149027E-05,1.36966145873885E-05,5.44921875,0,0
-2.34240433201194E-05,1.26628092402825E-05,5.44921875,0,0
-2.22609123738948E-05,1.3814064914186E-05,5.44921875,0,0
-2.27698728849646E-05,1.46176489579375E-05,5.44921875,0,0
-2.01677648874465E-05,1.0731773727457E-05,5.44921875,0,0
-2.84889174508862E-05,1.38655314003699E-05,5.44921875,0,0
-2.11523638427025E-05,8.5154833868728E-06,5.44921875,0,0
-2.69733391178306E-05,1.02764342955197E-05,5.44921875,0,0
-2.43883823713986E-05,6.95537391948164E-06,5.44921875,0,0
-2.77926337730605E-05,9.53460039454512E-06,5.44921875,0,0
-2.61355235124938E-05,9.69803204498021E-06,5.44921875,0,0
-2.82785549643449E-05,1.18847265184741E-05,5.44921875,0,0
-2.80025815300178E-05,1.23288145914557E-05,5.44921875,0,0
-2.7067200790043E-05,1.13323185360059E-05,5.44921875,0,0
-2.73858004220529E-05,9.90742682915879E-06,5.44921875,0,0
-2.75641796179116E-05,8.59419014886953E-06,5.44921875,0,0
-2.91365868179128E-05,9.13258008949924E-06,5.44921875,0,0
-2.88046521745855E-05,9.49905552261043E-06,5.44921875,0,0
-3.02404750982532E-05,1.07410232885741E-05,5.44921875,0,0
-2.84496309177484E-05,9.27822929952526E-06,5.44921875,0,0
-2.77243634627666E-05,9.08011588762747E-06,5.44921875,0,0
-2.59664502664236E-05,9.7836427812581E-06,5.44921875,0,0
-2.81894590443699E-05,1.25032738651498E-05,5.44921875,0,0
-2.87756301986519E-05,1.29544159790385E-05,5.44921875,0,0
-2.94249421131099E-05,1.27122757476172E-05,5.44921875,0,0
-2.84017787635094E-05,1.19235746751656E-05,5.44921875,0,0
-2.90726075036218E-05,1.36120261231554E-05,5.44921875,0,0
-2.85512360278517E-05,1.4043677765585E-05,5.44921875,0,0
-2.8712282073684E-05,1.24290027088136E-05,5.44921875,0,0
-2.93701923510525E-05,1.00668103186763E-05,5.44921875,0,0
-2.96354282909306E-05,9.15142572921468E-06,5.44921875,0,0
-2.36829728237353E-05,7.49858463677811E-06,5.44921875,0,0
-3.35474360326771E-05,1.11595927592134E-05,5.44921875,0,0
-2.52114641625667E-05,9.26391385291936E-06,5.44921875,0,0
-3.05737885355484E-05,1.01607738542953E-05,5.44921875,0,0
-2.51325018325588E-05,6.93169249643688E-06,5.44921875,0,0
-2.90345942630665E-05,7.96403037384152E-06,5.44921875,0,0
-2.71712669928093E-05,8.45922386361053E-06,5.44921875,0,0
-2.93505818262929E-05,1.09662796603516E-05,5.44921875,0,0
-2.81808970612474E-05,1.32497589220293E-05,5.44921875,0,0
-2.67136510956334E-05,1.43666547955945E-05,5.44921875,0,0
-2.61198365478776E-05,1.41611835715594E-05,5.44921875,0,0
-2.4993698389153E-05,1.29759691844811E-05,5.44921875,0,0
-2.54973001574399E-05,1.19694595923647E-05,5.44921875,0,0
-2.37728982028784E-05,1.02589001471642E-05,5.44921875,0,0
-2.47930638579419E-05,9.97669576463522E-06,5.44921875,0,0
-2.3425182007486E-05,1.0210353138973E-05,5.44921875,0,0
-2.37820004258538E-05,1.06441957541392E-05,5.44921875,0,0
-2.09395911952015E-05,8.3940039985464E-06,5.44921875,0,0
-2.14119099837262E-05,6.99668817105703E-06,5.44921875,0,0
-2.18584646063391E-05,6.90688966642483E-06,5.44921875,0,0
-2.39482997130835E-05,8.23240861791419E-06,5.44921875,0,0
-2.26597985601984E-05,8.77883849170757E-06,5.44921875,0,0
-2.28018943744246E-05,8.84477867657552E-06,5.44921875,0,0
-2.17814958887175E-05,9.00481245480478E-06,5.44921875,0,0
-2.12400300370064E-05,1.03565944300499E-05,5.44921875,0,0
-2.18201657844475E-05,1.02165258795139E-05,5.44921875,0,0
-2.31127269216813E-05,1.08276117316564E-05,5.44921875,0,0
-1.96360451809596E-05,1.04837899925769E-05,5.44921875,0,0
-2.82288656308083E-05,1.30565222207224E-05,5.44921875,0,0
-2.26022966671735E-05,7.55097744331579E-06,5.44921875,0,0
-2.87144666799577E-05,1.04552527773194E-05,5.44921875,0,0
-2.56666498898994E-05,8.54161407914944E-06,5.44921875,0,0
-2.91812593786744E-05,1.09156762846396E-05,5.44921875,0,0
-2.8213340556249E-05,1.11781255327514E-05,5.44921875,0,0
-2.88414303213358E-05,1.24721427710028E-05,5.44921875,0,0
-2.59621483564842E-05,1.11867129817256E-05,5.44921875,0,0
-2.50849789154017E-05,9.55096948018763E-06,5.44921875,0,0
-2.58719901466975E-05,9.20207548915641E-06,5.44921875,0,0
-2.51608580583707E-05,9.03068757907022E-06,5.44921875,0,0
-2.46996078203665E-05,9.03159525478259E-06,5.44921875,0,0
-2.24668419832597E-05,8.00605903350515E-06,5.44921875,0,0
-2.33686696446966E-05,8.36598428577418E-06,5.44921875,0,0
-2.32466500165174E-05,6.72357646180899E-06,5.44921875,0,0
-2.51166165980976E-05,6.54173663861002E-06,5.44921875,0,0
-2.38933025684673E-05,6.51857817501877E-06,5.44921875,0,0
-2.42716650973307E-05,8.15003477327991E-06,5.44921875,0,0
-2.29042962018866E-05,8.43040743347956E-06,5.44921875,0,0
-2.35309562413022E-05,8.53570054459851E-06,5.44921875,0,0
-2.40965109696845E-05,8.36985782370903E-06,5.44921875,0,0
-2.64435129793128E-05,1.06581055661081E-05,5.44921875,0,0
-2.57382653217064E-05,1.21901102829725E-05,5.44921875,0,0
-2.31871927098837E-05,1.21422463053023E-05,5.44921875,0,0
-2.17151318793185E-05,1.08848380477866E-05,5.44921875,0,0
-2.27519285544986E-05,1.14917311293539E-05,5.44921875,0,0
-1.85210737981834E-05,1.17227618829929E-05,5.44921875,0,0
-2.51298788498389E-05,1.7284070054302E-05,5.44921875,0,0
-1.84715172508731E-05,1.2769402928825E-05,5.44921875,0,0
-2.44110378844198E-05,1.51996837303159E-05,5.44921875,0,0
-2.0219522411935E-05,1.38708610393223E-05,5.44921875,0,0
-2.17418601096142E-05,1.50285886775237E-05,5.44921875,0,0
-1.95227694348432E-05,1.28619321912993E-05,5.44921875,0,0
-2.14868432522053E-05,1.39363237394718E-05,5.44921875,0,0
-2.13527582673123E-05,1.64108623721404E-05,5.44921875,0,0
-2.16019307117676E-05,1.80175684363348E-05,5.44921875,0,0
-2.16216667467961E-05,1.66416411957471E-05,5.44921875,0,0
-2.08593537536217E-05,1.4332176760945E-05,5.44921875,0,0
-2.20049496419961E-05,1.4611685401178E-05,5.44921875,0,0
-2.16614280361682E-05,1.57531794684473E-05,9.66796875,0,0
-2.33190021390328E-05,1.73573625943391E-05,9.66796875,0,0
-2.19716257561231E-05,1.50056630445761E-05,9.66796875,0,0
-2.22211965592578E-05,1.20004688142217E-05,9.66796875,0,0
-2.10256039281376E-05,9.13962321646977E-06,9.66796875,0,0
-2.13541097764391E-05,9.00953000382287E-06,9.66796875,0,0
-1.92138631973648E-05,8.25046117824968E-06,9.66796875,0,0
-1.98258640011773E-05,9.12712403078331E-06,9.66796875,0,0
-2.07977900572587E-05,1.02591975519317E-05,9.66796875,0,0
-2.24556260945974E-05,1.04693381217658E-05,9.66796875,0,0
-2.1745163394371E-05,8.16629562905291E-06,9.66796875,0,0
-2.07398134079995E-05,6.99225347489119E-06,9.66796875,0,0
-1.93067517102463E-05,7.16497834218899E-06,9.66796875,0,0
-1.83604188350728E-05,7.83080758992583E-06,9.66796875,0,0
-1.43196139106294E-05,5.32262674823869E-06,9.66796875,0,0
-2.14799838431645E-05,6.22042443865212E-06,9.66796875,0,0
-1.83638821908971E-05,4.99263478559442E-06,9.66796875,0,0
-2.10883463296341E-05,1.02655903901905E-05,9.66796875,0,0
-1.75426703208359E-05,1.25673732327414E-05,9.66796875,0,0
-2.09926165553043E-05,1.44594323501224E-05,9.66796875,0,0
-2.10933012567693E-05,1.17618619697168E-05,9.66796875,0,0
-2.27614691539202E-05,1.04832570286817E-05,9.66796875,0,0
-2.14505889744032E-05,1.0638179446687E-05,9.66796875,0,0
-2.0644964024541E-05,1.1620076293184E-05,9.66796875,0,0
-2.0203728126944E-05,1.31342003442114E-05,9.66796875,0,0
-1.97772515093675E-05,1.4162694242259E-05,9.66796875,0,0
-2.11155675060581E-05,1.45880221680272E-05,9.66796875,0,0
-2.14903902815422E-05,1.36841026687762E-05,9.66796875,0,0
-2.38478151004529E-05,1.34409447127837E-05,9.66796875,0,0
-2.52537629421568E-05,1.35641357701388E-05,9.66796875,0,0
-2.81330940197222E-05,1.50073983604671E-05,9.66796875,0,0
-2.74030044238316E-05,1.52264919961453E-05,9.66796875,0,0
-2.59821972576901E-05,1.50245823533623E-05,9.66796875,0,0
-2.29241777560674E-05,1.36141607072204E-05,9.66796875,0,0
-2.28731678362237E-05,1.32250415845192E-05,9.66796875,0,0
-2.36491578107234E-05,1.24435509860632E-05,9.66796875,0,0
-2.46674317168072E-05,1.14479489639052E-05,9.66796875,0,0
-2.32004094868898E-05,1.20783006423153E-05,9.66796875,0,0
-2.10586440516636E-05,1.32301292978809E-05,9.66796875,0,0
-1.99702553800307E-05,1.20178992801812E-05,9.66796875,0,0
-2.14308402064489E-05,1.12234338303097E-05,9.66796875,0,0
-1.81086470547598E-05,9.39318942982936E-06,9.66796875,0,0
-2.46837771555875E-05,1.38794939630316E-05,9.66796875,0,0
-1.73321004695026E-05,1.19517217171961E-05,9.66796875,0,0
-2.1719195501646E-05,1.59908922796603E-05,9.66796875,0,0
-1.79602266143775E-05,1.49255602082121E-05,9.66796875,0,0
-2.14768879231997E-05,1.64258508448256E-05,9.66796875,0,0
-2.0602908989531E-05,1.43367715281784E-05,9.66796875,0,0
-2.25985659199068E-05,1.21398352348479E-05,9.66796875,0,0
-2.21849531953922E-05,9.7253705462208E-06,9.66796875,0,0
-2.28680964937666E-05,8.16641295386944E-06,9.66796875,0,0
-2.57058636634611E-05,7.46910563975689E-06,9.66796875,0,0
-2.74187204922782E-05,7.38341850592406E-06,9.66796875,0,0
-2.86699487332953E-05,7.94449533714214E-06,9.66796875,0,0
-2.72342167590978E-05,7.25213021723903E-06,9.66796875,0,0
-2.81700486084446E-05,8.02206432126695E-06,9.66796875,0,0
-2.74066896963632E-05,8.91629133548122E-06,9.66796875,0,0
-2.85199694189942E-05,1.15809516501031E-05,9.66796875,0,0
-2.79811647487804E-05,1.25489650599775E-05,9.66796875,0,0
-3.00187566608656E-05,1.15585862658918E-05,9.66796875,0,0
-3.00910796795506E-05,8.28973952593515E-06,9.66796875,0,0
-3.03813267237274E-05,7.72845578467241E-06,9.66796875,0,0
-2.90874941129005E-05,8.61006355989957E-06,9.66796875,0,0
-2.90455282083713E-05,9.95506889012177E-06,9.66796875,0,0
-2.85019559669308E-05,1.02872991192271E-05,9.66796875,0,0
-2.8158123313915E-05,1.08927670225967E-05,9.66796875,0,0
-2.75835573120276E-05,1.16409019028652E-05,9.66796875,0,0
-2.67001505562803E-05,1.27094499475788E-05,9.66796875,0,0
-2.02922183234477E-05,1.12946263470803E-05,9.66796875,0,0
-2.80388103419682E-05,1.54088957060594E-05,9.66796875,0,0
-2.07096345548052E-05,9.63844559009885E-06,9.66796875,0,0
-2.66257429757388E-05,1.1796347280324E-05,9.66796875,0,0
-2.3515269276686E-05,1.09828761196695E-05,9.66796875,0,0
-2.683092134248E-05,1.41072587211966E-05,9.66796875,0,0
-2.46198233071482E-05,1.24935577332508E-05,9.66796875,0,0
-2.56436051131459E-05,1.10320816020248E-05,9.66796875,0,0
-2.35993920796318E-05,9.17285069590434E-06,9.66796875,0,0
-2.3657481506234E-05,8.76834747032262E-06,9.66796875,0,0
-2.44378516072175E-05,8.5978181232349E-06,9.66796875,0,0
-2.34541912504938E-05,7.52480764276697E-06,9.66796875,0,0
-2.374209179834E-05,6.78353171679191E-06,9.66796875,0,0
-2.24673112825258E-05,5.77890386921354E-06,9.66796875,0,0
-2.32221100304741E-05,7.49003902456025E-06,9.66796875,0,0
-2.14959309232654E-05,7.77396689954912E-06,9.66796875,0,0
-2.22472772293258E-05,7.76963042881107E-06,9.66796875,0,0
-2.09436930163065E-05,6.16045190326986E-06,9.66796875,0,0
-2.12760023714509E-05,6.65242168906843E-06,9.66796875,0,0
-1.91588515008334E-05,7.51619927541469E-06,9.66796875,0,0
-1.94501135410974E-05,9.51091897150036E-06,9.66796875,0,0
-1.86365487024887E-05,9.96733524516458E-06,9.66796875,0,0
-1.88251997315092E-05,1.0267061952618E-05,9.66796875,0,0
-1.81417326530209E-05,8.90349474502727E-06,9.66796875,0,0
-1.83021984412335E-05,7.93574963608989E-06,9.66796875,0,0
-1.89238689927151E-05,8.21006415208103E-06,9.66796875,0,0
-2.07433513423894E-05,8.66236314323032E-06,9.66796875,0,0
-1.68979313457385E-05,7.77415334596299E-06,9.66796875,0,0
-2.3455053451471E-05,1.15420389192877E-05,9.66796875,0,0
-1.81716823135503E-05,9.18487512535648E-06,9.66796875,0,0
-2.37028125411598E-05,9.10535618459107E-06,9.66796875,0,0
-1.9868630261044E-05,4.55864801551797E-06,9.66796875,0,0
-2.20211095438572E-05,4.66334358861786E-06,9.66796875,0,0
-2.07611283258302E-05,4.80471226182999E-06,9.66796875,0,0
-2.215315180365E-05,6.77003936289111E-06,9.66796875,0,0
-2.1779496819363E-05,7.99413828644902E-06,9.66796875,0,0
-2.19353696593316E-05,9.45701958698919E-06,9.66796875,0,0
-2.22820508497534E-05,1.07306987047195E-05,9.66796875,0,0
-2.19189932977315E-05,1.09039319795556E-05,9.66796875,0,0
-2.26484808081295E-05,1.15979210022488E-05,9.66796875,0,0
-2.1777545043733E-05,1.13674404929043E-05,9.66796875,0,0
-2.30573023145553E-05,1.1405119948904E-05,9.66796875,0,0
-2.29929919441929E-05,1.05678318504943E-05,9.66796875,0,0
-2.49249205808155E-05,1.1574663403735E-05,9.66796875,0,0
-2.46232084464282E-05,1.15283928607823E-05,9.66796875,0,0
-2.59441585512832E-05,1.10252904050867E-05,9.66796875,0,0
-2.5401619495824E-05,1.04340206235065E-05,9.66796875,0,0
-2.55231643677689E-05,1.1529049515957E-05,9.66796875,0,0
-2.48156520683551E-05,1.17355230031535E-05,9.66796875,0,0
-2.6560177502688E-05,1.04273358374485E-05,9.66796875,0,0
-2.70753062068252E-05,9.13519033929333E-06,9.66796875,0,0
-2.6470617740415E-05,9.55225823418004E-06,9.66796875,0,0
-2.65316975855967E-05,8.98148664418841E-06,9.66796875,0,0
-2.78181560133817E-05,8.80340940057067E-06,9.66796875,0,0
-2.32701859204099E-05,7.90653029980604E-06,9.66796875,0,0
-3.21805637213402E-05,1.13452997538843E-05,9.66796875,0,0
-2.34960880334256E-05,8.37551851873286E-06,9.66796875,0,0
-2.92997592623578E-05,1.0343782378186E-05,9.66796875,0,0
-2.37512849707855E-05,8.6271093096002E-06,9.66796875,0,0
-2.6688123398344E-05,9.09356367628789E-06,9.66796875,0,0
-2.35793067986378E-05,9.77917079580948E-06,9.66796875,0,0
-2.48598898906494E-05,1.21410330393701E-05,9.66796875,0,0
-2.42552832787624E-05,1.18544139695587E-05,9.66796875,0,0
-2.48760461545317E-05,1.08954045572318E-05,9.66796875,0,0
-2.5846313292277E-05,1.11618664959678E-05,9.66796875,0,0
-2.521111855458E-05,1.33604889924754E-05,9.66796875,0,0
-2.64065947703784E-05,1.59115061251214E-05,9.66796875,0,0
-2.52382269536611E-05,1.48053295561112E-05,9.66796875,0,0
-2.58237723755883E-05,1.28496776596876E-05,9.66796875,0,0
-2.3399732526741E-05,1.17433219202212E-05,9.66796875,0,0
-2.45345891016768E-05,1.34173706101137E-05,9.66796875,0,0
-2.45201827056007E-05,1.42461185532738E-05,9.66796875,0,0
-2.6793761207955E-05,1.41051050377428E-05,9.66796875,0,0
-2.53633188549429E-05,1.23720401461469E-05,9.66796875,0,0
-2.468569073244E-05,1.15579505290953E-05,9.66796875,0,0
-2.28634198720101E-05,1.05211429399787E-05,9.66796875,0,0
-2.4084496544674E-05,1.06125789898215E-05,9.66796875,0,0
-2.56500989053166E-05,1.05319832073292E-05,9.66796875,0,0
-2.80184267467121E-05,1.04817263490986E-05,9.66796875,0,0
-2.89869531115983E-05,1.08252497739159E-05,9.66796875,0,0
-2.85823516605888E-05,1.09625871118624E-05,9.66796875,0,0
-2.24768846237566E-05,8.16981264506467E-06,9.66796875,0,0
-3.08650778606534E-05,1.14790545922006E-05,9.66796875,0,0
-2.206239332736E-05,9.16447606869042E-06,9.66796875,0,0
-2.73409386863932E-05,1.18631396617275E-05,9.66796875,0,0
-2.28247481572907E-05,1.02805970527697E-05,9.66796875,0,0
-2.70569125859765E-05,1.28495648823446E-05,9.66796875,0,0
-2.50460416282294E-05,1.39992835102021E-05,9.66796875,0,0
-2.64300488197478E-05,1.5777513908688E-05,9.66796875,0,0
-2.45039645960787E-05,1.58097682287917E-05,9.66796875,0,0
-2.32929469348164E-05,1.43533097798354E-05,9.66796875,0,0
-2.41010511672357E-05,1.18282177936635E-05,9.66796875,0,0
-2.4135877538356E-05,9.50483172346139E-06,9.66796875,0,0
-2.48630549322115E-05,9.84286452876404E-06,9.66796875,0,0
-2.27712025662186E-05,1.17075769594521E-05,9.66796875,0,0
-2.36397681874223E-05,1.45447966133361E-05,9.66796875,0,0
-2.23551905946806E-05,1.40683869176428E-05,9.66796875,0,0
-2.39430246438133E-05,1.2414478987921E-05,9.66796875,0,0
-2.36866071645636E-05,1.11100162030198E-05,9.66796875,0,0
-2.51361580012599E-05,1.2429867638275E-05,9.66796875,0,0
-2.31762278417591E-05,1.30270564113744E-05,9.66796875,0,0
-2.31905487453332E-05,1.31016104205628E-05,9.66796875,0,0
-2.19071243918734E-05,1.14981476144749E-05,9.66796875,0,0
-2.13034236367093E-05,1.10973569462658E-05,9.66796875,0,0
-2.02129704121035E-05,1.08426147562568E-05,9.66796875,0,0
-2.0518658857327E-05,1.04844866655185E-05,9.66796875,0,0
-2.20125584746711E-05,1.06548359326553E-05,9.66796875,0,0
-2.40099579968955E-05,1.25787128126831E-05,9.66796875,0,0
-1.86659672181122E-05,1.07440591818886E-05,9.66796875,0,0
-2.54475035035284E-05,1.37212782647111E-05,9.66796875,0,0
-1.8436254322296E-05,8.21095090941526E-06,9.66796875,0,0
-2.40525077970233E-05,1.16261135190143E-05,9.66796875,0,0
-2.00352496904088E-05,1.18069028758327E-05,9.66796875,0,0
-2.16763473872561E-05,1.51673511936679E-05,9.66796875,0,0
-1.94356580323074E-05,1.30088374135084E-05,9.66796875,0,0
-2.03831968974555E-05,1.2707061614492E-05,9.66796875,0,0
-1.87313562491909E-05,1.22708916023839E-05,9.66796875,0,0
-1.84008877113229E-05,1.13762525870698E-05,9.66796875,0,0
-1.92137813428417E-05,9.96149083221098E-06,9.66796875,0,0
-1.96204018720891E-05,9.03105683391914E-06,9.66796875,0,0
-2.09204517886974E-05,1.08565900518443E-05,9.66796875,0,0
-1.98375219042646E-05,1.22412166092545E-05,9.66796875,0,0
-2.06052427529357E-05,1.21819157357095E-05,9.66796875,0,0
-1.89610491361236E-05,9.3795651991968E-06,9.66796875,0,0
-1.90800601558294E-05,9.32496004679706E-06,9.66796875,0,0
-1.82991843757918E-05,9.83799964160426E-06,9.66796875,0,0
-2.105252497131E-05,1.11797398858471E-05,9.66796875,0,0
-2.25529747694964E-05,1.04679884316283E-05,9.66796875,0,0
-2.47633379331091E-05,1.03851552921697E-05,9.66796875,0,0
-2.4714128812775E-05,1.01756550066057E-05,9.66796875,0,0
-2.53374691965291E-05,1.15543352876557E-05,9.66796875,0,0
-2.57614155998454E-05,1.23548597912304E-05,9.66796875,0,0
-2.82562523352681E-05,1.15442371679819E-05,9.66796875,0,0
-2.9303140763659E-05,9.04714124771999E-06,9.66796875,0,0
-2.76024857157608E-05,9.33937280933606E-06,9.66796875,0,0
-2.01524253498064E-05,9.13937219593208E-06,9.66796875,0,0
-2.86394279100932E-05,1.29468653540243E-05,9.66796875,0,0
-2.34727394854417E-05,8.63552941154921E-06,9.66796875,0,0
-3.04744589811889E-05,9.42293081607204E-06,9.66796875,0,0
-2.52154313784558E-05,7.23615539754974E-06,9.66796875,0,0
-2.64207137661288E-05,8.94664026418468E-06,9.66796875,0,0
-2.32649963436415E-05,9.22307481232565E-06,9.66796875,0,0
-2.46804120251909E-05,1.01075411294005E-05,9.66796875,0,0
-2.48789456236409E-05,9.1517940745689E-06,9.66796875,0,0
-2.52724930760451E-05,8.1920443335548E-06,9.66796875,0,0
-2.57703395618591E-05,8.17417094367556E-06,9.66796875,0,0
-2.4736184059293E-05,7.90452759247273E-06,9.66796875,0,0
-2.43561171373585E-05,8.6888203441049E-06,9.66796875,0,0
-2.27136133617023E-05,9.7936499514617E-06,9.66796875,0,0
-2.41422549152048E-05,1.13524320113356E-05,9.66796875,0,0
-2.35551324294647E-05,1.10283799585886E-05,9.66796875,0,0
-2.45409955823561E-05,1.07902378658764E-05,9.66796875,0,0
-2.24728137254715E-05,8.62524575495627E-06,9.66796875,0,0
-2.29429406317649E-05,7.80312711867737E-06,9.66796875,0,0
-2.38344946410507E-05,7.61037790653063E-06,9.66796875,0,0
-2.71082899416797E-05,8.29581040306948E-06,9.66796875,0,0
-2.72763973043766E-05,8.25084225652972E-06,9.66796875,0,0
-2.67228169832379E-05,7.75986245571403E-06,9.66796875,0,0
-2.38555585383438E-05,6.42647000859142E-06,9.66796875,0,0
-2.17699925997294E-05,5.77520040678792E-06,9.66796875,0,0
-2.09839126910083E-05,5.24505412613507E-06,9.66796875,0,0
-2.10853158932878E-05,5.74455589230638E-06,9.66796875,0,0
-1.79905582626816E-05,6.28036286798306E-06,9.66796875,0,0
-2.59182743320707E-05,1.01983778222348E-05,9.66796875,0,0
-2.0315032088547E-05,9.97724237095099E-06,9.66796875,0,0
-2.55247323366348E-05,1.19320466183126E-05,9.66796875,0,0
-2.25706571654882E-05,9.32116199692246E-06,9.66796875,0,0
-2.6237506972393E-05,9.29406905925134E-06,9.66796875,0,0
-2.5438950615353E-05,1.06618372228695E-05,9.66796875,0,0
-2.60976412391756E-05,1.2889834579255E-05,9.66796875,0,0
-2.510020203772E-05,1.22660048873513E-05,9.66796875,0,0
-2.49132972385269E-05,1.06490542748361E-05,9.66796875,0,0
-2.5250297767343E-05,1.04130940599134E-05,9.66796875,0,0
-2.46633171627764E-05,1.04714708868414E-05,9.66796875,0,0
-2.55030936386902E-05,1.07017513073515E-05,9.66796875,0,0
-2.47884781856555E-05,1.01491814348265E-05,9.66796875,0,0
-2.61495370068587E-05,1.04546670627315E-05,9.66796875,0,0
-2.60556007560808E-05,1.14582771857386E-05,9.66796875,0,0
-2.77918643405428E-05,1.28530227812007E-05,9.66796875,0,0
-2.67091581918066E-05,1.15924121928401E-05,9.66796875,0,0
-2.575649159553E-05,9.58040800469462E-06,9.66796875,0,0
-2.34815997828264E-05,7.92948685557349E-06,9.66796875,0,0
-2.45866667683003E-05,8.16012834548019E-06,9.66796875,0,0
-2.55113609455293E-05,7.76538036006968E-06,9.66796875,0,0
-2.57039464486297E-05,7.29509474695078E-06,14.0625,0,0
-2.3106311346055E-05,8.45344584377017E-06,14.0625,0,0
-2.17025426536566E-05,1.16630790216732E-05,14.0625,0,0
-2.28803110076115E-05,1.43614161061123E-05,14.0625,0,0
-2.51350647886284E-05,1.52312659338349E-05,14.0625,0,0
-2.08292931347387E-05,1.15523043859866E-05,14.0625,0,0
-2.86885551759042E-05,1.56807218445465E-05,14.0625,0,0
-2.05958058359101E-05,1.0610985555104E-05,14.0625,0,0
-2.58546187978936E-05,1.18939660751494E-05,14.0625,0,0
-2.1481748262886E-05,6.77606476529036E-06,14.0625,0,0
-2.41976340475958E-05,8.64727917360142E-06,14.0625,0,0
-2.17430533666629E-05,9.88662486633984E-06,14.0625,0,0
-2.29834877245594E-05,1.20030135803972E-05,14.0625,0,0
-2.23845308937598E-05,1.21791035780916E-05,14.0625,0,0
-2.33671598834917E-05,1.22388364616199E-05,14.0625,0,0
-2.45169412664836E-05,1.09632492240053E-05,14.0625,0,0
-2.38912834902294E-05,9.35573007154744E-06,14.0625,0,0
-2.39296987274429E-05,9.42623501032358E-06,14.0625,0,0
-2.26616557483794E-05,9.25235508475453E-06,14.0625,0,0
-2.39435848925496E-05,1.10767114165355E-05,14.0625,0,0
-2.16755106521305E-05,1.08676631498383E-05,14.0625,0,0
-2.09127592825098E-05,1.01135437944322E-05,14.0625,0,0
-1.91723647731123E-05,7.53230369809899E-06,14.0625,0,0
-2.0941477487213E-05,7.54780967326951E-06,14.0625,0,0
-2.06937329494394E-05,7.91140246292343E-06,14.0625,0,0
-2.20475612877635E-05,9.5116556622088E-06,14.0625,0,0
-2.21759619307704E-05,9.84488087851787E-06,14.0625,0,0
-2.48326978180557E-05,1.05128901850549E-05,14.0625,0,0
-2.60135711869225E-05,9.85936912911711E-06,14.0625,0,0
-2.56587081821635E-05,1.02245976449922E-05,14.0625,0,0
-2.42030382651137E-05,1.15295224532019E-05,14.0625,0,0
-2.40981935348827E-05,1.19019778139773E-05,14.0625,0,0
-2.05636642931495E-05,9.39999699767213E-06,14.0625,0,0
-2.90828611468896E-05,1.29519467009231E-05,14.0625,0,0
-2.17075485124951E-05,9.98999439616455E-06,14.0625,0,0
-2.69976371782832E-05,1.39921939990018E-05,14.0625,0,0
-2.36429586948361E-05,1.36013886731234E-05,14.0625,0,0
-2.74476224149112E-05,1.47415958053898E-05,14.0625,0,0
-2.55398354056524E-05,1.25093383758212E-05,14.0625,0,0
-2.55881986959139E-05,1.37232973429491E-05,14.0625,0,0
-2.41541856667027E-05,1.47863356687594E-05,14.0625,0,0
-2.48947962973034E-05,1.51347167047788E-05,14.0625,0,0
-2.56443017860875E-05,1.50601563291275E-05,14.0625,0,0
-2.54960832535289E-05,1.4654786355095E-05,14.0625,0,0
-2.63252477452625E-05,1.57858776219655E-05,14.0625,0,0
-2.51512610702775E-05,1.62303695105948E-05,14.0625,0,0
-2.6509571398492E-05,1.68564802152105E-05,14.0625,0,0
-2.58227155427448E-05,1.53566488734214E-05,14.0625,0,0
-2.71988792519551E-05,1.44184587043128E-05,14.0625,0,0
-2.63559704762883E-05,1.30358012029319E-05,14.0625,0,0
-2.75592992693419E-05,1.32638788272743E-05,14.0625,0,0
-2.6787301976583E-05,1.31007500385749E-05,14.0625,0,0
-2.75105503533268E-05,1.36255866891588E-05,14.0625,0,0
-2.59426797128981E-05,1.27625035020174E-05,14.0625,0,0
-2.55329814535799E-05,1.2628011063498E-05,14.0625,0,0
-2.54747410508571E-05,1.2996191799175E-05,14.0625,0,0
-2.62690082308836E-05,1.36219350679312E-05,14.0625,0,0
-2.57556093856692E-05,1.33694638861925E-05,14.0625,0,0
-2.45365718001267E-05,1.24090856843395E-05,14.0625,0,0
-1.86709476110991E-05,8.99402948562056E-06,14.0625,0,0
-2.67563154920936E-05,1.28960555230151E-05,14.0625,0,0
-2.174409928557E-05,1.06909583337256E-05,14.0625,0,0
-2.70100117631955E-05,1.46071288327221E-05,14.0625,0,0
-2.22460912482347E-05,1.44294008350698E-05,14.0625,0,0
-2.44629209191771E-05,1.60165109264199E-05,14.0625,0,0
-2.26010961341672E-05,1.37610932142707E-05,14.0625,0,0
-2.35524457821157E-05,1.30328007799108E-05,14.0625,0,0
-2.25152398343198E-05,1.30910766529269E-05,14.0625,0,0
-2.35424213315127E-05,1.4182599443302E-05,14.0625,0,0
-2.53845082625048E-05,1.41633536259178E-05,14.0625,0,0
-2.48467458732193E-05,1.29549562188913E-05,14.0625,0,0
-2.39478922594571E-05,1.19285923574353E-05,14.0625,0,0
-2.18329460039968E-05,1.01170317066135E-05,14.0625,0,0
-2.35674451687373E-05,9.56479743763339E-06,14.0625,0,0
-2.36613595916424E-05,8.10169331089128E-06,14.0625,0,0
-2.42106980294921E-05,7.07273329680902E-06,14.0625,0,0
-2.19201519939816E-05,5.85887437409838E-06,14.0625,0,0
-2.29247470997507E-05,7.78983485361096E-06,14.0625,0,0
-2.28092103498057E-05,8.85283770912793E-06,14.0625,0,0
-2.38992543017957E-05,9.13893109100172E-06,14.0625,0,0
-2.40987665165449E-05,8.30830322229303E-06,14.0625,0,0
-2.44986022153171E-05,7.69022517488338E-06,14.0625,0,0
-2.31050635193242E-05,6.31279726803768E-06,14.0625,0,0
-2.25281310122227E-05,5.64220999876852E-06,14.0625,0,0
-2.24349223572062E-05,5.70039492231444E-06,14.0625,0,0
-2.36833948292769E-05,4.80470635011443E-06,14.0625,0,0
-2.01637340069283E-05,3.02053013001569E-06,14.0625,0,0
-2.82307973975549E-05,4.49457047579926E-06,14.0625,0,0
-1.96261516975937E-05,6.05651030127774E-06,14.0625,0,0
-2.40105018747272E-05,1.05695171441766E-05,14.0625,0,0
-2.11612496059388E-05,1.12732486741152E-05,14.0625,0,0
-2.56389976129867E-05,1.10323317130678E-05,14.0625,0,0
-2.45588562393095E-05,9.57376323640347E-06,14.0625,0,0
-2.59165353782009E-05,8.91382478585001E-06,14.0625,0,0
-2.60783617704874E-05,8.83722441358259E-06,14.0625,0,0
-2.60758970398456E-05,8.77093225426506E-06,14.0625,0,0
-2.53817088378128E-05,8.17709405964706E-06,14.0625,0,0
-2.41230463871034E-05,7.29302564650425E-06,14.0625,0,0
-2.53486687142868E-05,7.92274022387574E-06,14.0625,0,0
-2.49763197643915E-05,9.17012221179903E-06,14.0625,0,0
-2.68666244664928E-05,9.78950447461102E-06,14.0625,0,0
-2.72168581432197E-05,8.36872732179472E-06,14.0625,0,0
-2.88090650428785E-05,8.2012738857884E-06,14.0625,0,0
-2.71792850981001E-05,9.57422980718547E-06,14.0625,0,0
-2.7285215765005E-05,1.05786584754242E-05,14.0625,0,0
-2.56107960012741E-05,8.91175932338228E-06,14.0625,0,0
-2.49619606620399E-05,6.32163209957071E-06,14.0625,0,0
-2.39958790189121E-05,4.9666177801555E-06,14.0625,0,0
-2.56830589933088E-05,6.96406004863093E-06,14.0625,0,0
-2.59336702583823E-05,1.01765845101909E-05,14.0625,0,0
-2.404230144748E-05,1.13381011033198E-05,14.0625,0,0
-2.1688692868338E-05,1.06248917290941E-05,14.0625,0,0
-2.15773397940211E-05,9.33532919589197E-06,14.0625,0,0
-1.81253199116327E-05,6.79844470141688E-06,14.0625,0,0
-2.49296408583177E-05,1.00801180451526E-05,14.0625,0,0
-1.60858653543983E-05,9.20209276955575E-06,14.0625,0,0
-1.82140502147377E-05,1.14037438834202E-05,14.0625,0,0
-1.5595735021634E-05,8.62262095324695E-06,14.0625,0,0
-2.10050347959623E-05,9.05594333744375E-06,14.0625,0,0
-1.9791556042037E-05,8.50063679536106E-06,14.0625,0,0
-2.09259196708445E-05,8.86851012182888E-06,14.0625,0,0
-2.15422751352889E-05,9.43177929002559E-06,14.0625,0,0
-2.19887933781138E-05,1.12338520921185E-05,14.0625,0,0
-2.20409801841015E-05,1.18991720228223E-05,14.0625,0,0
-2.17090891965199E-05,1.16234969027573E-05,14.0625,0,0
-2.31552021432435E-05,1.2292232895561E-05,14.0625,0,0
-2.195004344685E-05,1.2118093764002E-05,14.0625,0,0
-2.19682970055146E-05,1.2060832887073E-05,14.0625,0,0
-2.10783018701477E-05,1.16017563414061E-05,14.0625,0,0
-2.27558903134195E-05,1.23379613796715E-05,14.0625,0,0
-2.17666802200256E-05,1.201282520924E-05,14.0625,0,0
-2.18550358113134E-05,1.12317475213786E-05,14.0625,0,0
-2.03105882974342E-05,9.66444622463314E-06,14.0625,0,0
-2.12434097193182E-05,1.04107521110564E-05,14.0625,0,0
-2.17252090806142E-05,1.2074129699613E-05,14.0625,0,0
-2.19626617763424E-05,1.4168808775139E-05,14.0625,0,0
-2.03392974071903E-05,1.37565120894578E-05,14.0625,0,0
-1.90948976523941E-05,1.18900015877443E-05,14.0625,0,0
-1.8862147044274E-05,1.08924377855146E-05,14.0625,0,0
-2.04987500183051E-05,1.12066709334613E-05,14.0625,0,0
-1.93433806998655E-05,8.57412578625372E-06,14.0625,0,0
-2.8387208658387E-05,1.2195512681501E-05,14.0625,0,0
-2.14076389966067E-05,9.28706595004769E-06,14.0625,0,0
-2.4203098291764E-05,1.05990557131008E-05,14.0625,0,0
-1.96181863429956E-05,7.4060917540919E-06,14.0625,0,0
-2.41919224208687E-05,9.73809710558271E-06,14.0625,0,0
-2.44549119088333E-05,1.03829124782351E-05,14.0625,0,0
-2.57530427916208E-05,1.04251867014682E-05,14.0625,0,0
-2.46639792749193E-05,9.05419346963754E-06,14.0625,0,0
-2.35565785260405E-05,9.20512047741795E-06,14.0625,0,0
-2.36616233451059E-05,1.07845926322625E-05,14.0625,0,0
-2.36509895330528E-05,1.11372810351895E-05,14.0625,0,0
-2.49934673774987E-05,1.17069084808463E-05,14.0625,0,0
-2.47227635554736E-05,1.17062481876928E-05,14.0625,0,0
-2.64273367065471E-05,1.28397841763217E-05,14.0625,0,0
-2.61566146946279E-05,1.24526786748902E-05,14.0625,0,0
-2.75834936473984E-05,1.26041750263539E-05,14.0625,0,0
-2.63603615167085E-05,1.28615902212914E-05,14.0625,0,0
-2.67907325905981E-05,1.46403617691249E-05,14.0625,0,0
-2.69640622718725E-05,1.45444246300031E-05,14.0625,0,0
-2.95875397569034E-05,1.28372712424607E-05,14.0625,0,0
-3.04227996821282E-05,1.07788982859347E-05,14.0625,0,0
-3.00728534057271E-05,1.04563023342052E-05,14.0625,0,0
-2.77721919701435E-05,9.10072776605375E-06,14.0625,0,0
-2.59894422924845E-05,7.24872052160208E-06,14.0625,0,0
-2.45919836743269E-05,5.73264196646051E-06,14.0625,0,0
-2.52875706792111E-05,4.47421552962624E-06,14.0625,0,0
-2.15134459722321E-05,3.96980340156006E-06,14.0625,0,0
-2.97834594675805E-05,6.37900120636914E-06,14.0625,0,0
-2.17819597310154E-05,6.45658656139858E-06,14.0625,0,0
-2.80233180092182E-05,8.92524258233607E-06,14.0625,0,0
-2.48031628871104E-05,9.87992279988248E-06,14.0625,0,0
-2.95456848107278E-05,1.11893286884879E-05,14.0625,0,0
-2.83439985651057E-05,1.1570336027944E-05,14.0625,0,0
-2.96382240776438E-05,1.31499973576865E-05,14.0625,0,0
-2.8089722036384E-05,1.4279716197052E-05,14.0625,0,0
-2.6463631002116E-05,1.45091398735531E-05,14.0625,0,0
-2.47172956733266E-05,1.37609376906767E-05,14.0625,0,0
-2.25601215788629E-05,1.31091055664001E-05,14.0625,0,0
-2.31098219956039E-05,1.29512864077697E-05,14.0625,0,0
-2.22662165469956E-05,1.20643308036961E-05,14.0625,0,0
-2.43176600633888E-05,1.10407218016917E-05,14.0625,0,0
-2.40276040130993E-05,9.52464688452892E-06,14.0625,0,0
-2.57331575994613E-05,9.2826066975249E-06,14.0625,0,0
-2.43053673329996E-05,9.18186105991481E-06,14.0625,0,0
-2.44512266363017E-05,8.77819638844812E-06,14.0625,0,0
-2.33462287724251E-05,7.51883317207103E-06,14.0625,0,0
-2.42837650148431E-05,7.78640423959587E-06,14.0625,0,0
-2.28203734877752E-05,9.4040851763566E-06,14.0625,0,0
-2.23064253077609E-05,1.11236913653556E-05,14.0625,0,0
-2.1497155103134E-05,1.07721098174807E-05,14.0625,0,0
-2.12440809264081E-05,9.0499161160551E-06,14.0625,0,0
-2.08777182706399E-05,8.52875837153988E-06,14.0625,0,0
-1.98255947907455E-05,9.47012540564174E-06,14.0625,0,0
-1.48681783684879E-05,7.61519049774506E-06,14.0625,0,0
-2.23819242819445E-05,1.09782713479945E-05,14.0625,0,0
-1.90213868336286E-05,8.56636052048998E-06,14.0625,0,0
-2.25100156967528E-05,1.08726762846345E-05,14.0625,0,0
-2.03662002604688E-05,9.55446921580005E-06,14.0625,0,0
-2.52557674684795E-05,1.1818387065432E-05,14.0625,0,0
-2.52306253969437E-05,1.34560068545397E-05,14.0625,0,0
-2.5206272766809E-05,1.48649614857277E-05,14.0625,0,0
-2.23243914660998E-05,1.46586498885881E-05,14.0625,0,0
-2.09230129257776E-05,1.5992360204109E-05,14.0625,0,0
-2.17183423956158E-05,1.76603698491817E-05,14.0625,0,0
-2.23711722355802E-05,1.78604768734658E-05,14.0625,0,0
-2.29825964197516E-05,1.75420391315129E-05,14.0625,0,0
-2.08913297683466E-05,1.68729493452702E-05,14.0625,0,0
-2.086493987008E-05,1.61623102030717E-05,14.0625,0,0
-2.07649791263975E-05,1.41726832225686E-05,14.0625,0,0
-2.27853342948947E-05,1.42043236337486E-05,14.0625,0,0
-2.28268236242002E-05,1.33768717205385E-05,14.0625,0,0
-2.4413729988737E-05,1.25410206237575E-05,14.0625,0,0
-2.51268738793442E-05,1.16607352538267E-05,14.0625,0,0
-2.63103738689097E-05,1.27752300613793E-05,14.0625,0,0
-2.57794690696755E-05,1.40837746585021E-05,14.0625,0,0
-2.52805912168697E-05,1.60472645802656E-05,14.0625,0,0
-2.40026274695992E-05,1.76214161911048E-05,14.0625,0,0
-2.45344745053444E-05,1.68926180776907E-05,14.0625,0,0
-2.53106318268692E-05,1.30687330965884E-05,14.0625,0,0
-2.56367693509674E-05,9.51391848502681E-06,14.0625,0,0
-2.13717448787065E-05,7.22617642168188E-06,14.0625,0,0
-2.97264705295675E-05,1.03759011835791E-05,14.0625,0,0
-2.15677919186419E-05,7.64113337936578E-06,14.0625,0,0
-2.82236596831353E-05,8.32840669318102E-06,14.0625,0,0
-2.4755890990491E-05,6.52209473628318E-06,14.0625,0,0
-2.73827190540032E-05,8.15964176581474E-06,14.0625,0,0
-2.47779880737653E-05,7.61824730943772E-06,14.0625,0,0
-2.51376841333695E-05,7.3243727456429E-06,14.0625,0,0
-2.31030771828955E-05,6.11923496762756E-06,14.0625,0,0
-2.18817331187893E-05,5.48416119272588E-06,14.0625,0,0
-2.19397315959213E-05,5.70196516491706E-06,14.0625,0,0
-2.11580609175144E-05,6.42497843728052E-06,14.0625,0,0
-2.18300701817498E-05,7.43851751394686E-06,14.0625,0,0
-2.08128567464883E-05,7.79120910010533E-06,14.0625,0,0
-2.26769934670301E-05,9.01286330190487E-06,14.0625,0,0
-2.21763457375346E-05,9.26320262806257E-06,14.0625,0,0
-2.28954359045019E-05,1.01954328783904E-05,14.0625,0,0
-2.0922627300024E-05,1.00490588010871E-05,14.0625,0,0
-2.09323279705131E-05,9.95665595837636E-06,14.0625,0,0
-1.87456753337756E-05,8.5317933553597E-06,14.0625,0,0
-1.81018840521574E-05,8.94418190000579E-06,14.0625,0,0
-1.69427275977796E-05,1.05015606095549E-05,14.0625,0,0
-1.71801075339317E-05,1.30098424051539E-05,14.0625,0,0
-1.67289654200431E-05,1.50703390318085E-05,14.0625,0,0
-1.76925041159848E-05,1.52182828969671E-05,14.0625,0,0
-1.86024517461192E-05,1.30083762996946E-05,14.0625,0,0
-1.95023021660745E-05,1.06070319816354E-05,14.0625,0,0
-1.60857634909917E-05,7.21733113095979E-06,18.28125,0,0
-2.3604716261616E-05,9.7289084806107E-06,18.28125,0,0
-1.7933702110895E-05,7.81398648541654E-06,18.28125,0,0
-2.0874067558907E-05,1.12329225885333E-05,18.28125,0,0
-1.78794944076799E-05,1.04170430859085E-05,18.28125,0,0
-2.12745435419492E-05,1.08581089079962E-05,18.28125,0,0
-2.14748852158664E-05,9.03068303159671E-06,18.28125,0,0
-2.27548698603641E-05,9.96571907307953E-06,18.28125,0,0
-2.12835511774756E-05,1.06964816950494E-05,18.28125,0,0
-2.13861876545707E-05,1.14431040856289E-05,18.28125,0,0
-2.24677787628025E-05,1.16627743409481E-05,18.28125,0,0
-2.26949196076021E-05,1.14403792395024E-05,18.28125,0,0
-2.43793383560842E-05,1.16133933261153E-05,18.28125,0,0
-2.40834760916187E-05,1.00429761005216E-05,18.28125,0,0
-2.38436277868459E-05,8.36021445138613E-06,18.28125,0,0
-2.17929300561082E-05,6.55617168376921E-06,18.28125,0,0
-2.21798163693165E-05,6.92870617058361E-06,18.28125,0,0
-2.168524042645E-05,7.27560200175503E-06,18.28125,0,0
-2.25759449676843E-05,9.31295653572306E-06,18.28125,0,0
-2.15101608773693E-05,1.07091273093829E-05,18.28125,0,0
-2.16680782614276E-05,1.08869744508411E-05,18.28125,0,0
-2.23246170207858E-05,8.41412838781253E-06,18.28125,0,0
-2.52911740972195E-05,7.58826399760437E-06,18.28125,0,0
-2.70799682766665E-05,9.17774741537869E-06,18.28125,0,0
-2.80640542769106E-05,1.1078259376518E-05,18.28125,0,0
-2.80241893051425E-05,1.00144807220204E-05,18.28125,0,0
-2.78534516837681E-05,7.71114082454005E-06,18.28125,0,0
-2.3548385797767E-05,5.72889257455245E-06,18.28125,0,0
-3.3481243008282E-05,9.30085661821067E-06,18.28125,0,0
-2.45019346039044E-05,8.42826011648867E-06,18.28125,0,0
-3.07366935885511E-05,1.04116788861575E-05,18.28125,0,0
-2.74728554359172E-05,1.14846452561324E-05,18.28125,0,0
-3.11237236019224E-05,1.35115278681042E-05,18.28125,0,0
-2.79322503047297E-05,1.19213309517363E-05,18.28125,0,0
-2.79782416328089E-05,1.12206653284375E-05,18.28125,0,0
-2.64424270426389E-05,1.09803750092397E-05,18.28125,0,0
-2.57967731158715E-05,1.10563996713609E-05,18.28125,0,0
-2.5519522750983E-05,1.12305515358457E-05,18.28125,0,0
-2.47427778958809E-05,1.18795687740203E-05,18.28125,0,0
-2.61838104052003E-05,1.31217311718501E-05,18.28125,0,0
-2.55622926488286E-05,1.31143260659883E-05,18.28125,0,0
-2.6907242499874E-05,1.34082320073503E-05,18.28125,0,0
-2.53237740253098E-05,1.3358215255721E-05,18.28125,0,0
-2.57451010838849E-05,1.37093829835067E-05,18.28125,0,0
-2.35647767112823E-05,1.25658598335576E-05,18.28125,0,0
-2.39340497500962E-05,1.19421683848486E-05,18.28125,0,0
-2.28899552894291E-05,1.19114529297804E-05,18.28125,0,0
-2.44633010879625E-05,1.36380058393115E-05,18.28125,0,0
-2.51575438596774E-05,1.53544333443278E-05,18.28125,0,0
-2.68004241661401E-05,1.57062495418359E-05,18.28125,0,0
-2.68484145635739E-05,1.48162398545537E-05,18.28125,0,0
-2.61971799773164E-05,1.44737496157177E-05,18.28125,0,0
-2.48501419264358E-05,1.37033666760544E-05,18.28125,0,0
-2.50804496317869E-05,1.23093304864597E-05,18.28125,0,0
-2.15331547224196E-05,8.56092810863629E-06,18.28125,0,0
-2.97623264486901E-05,1.22096398627036E-05,18.28125,0,0
-2.12976683542365E-05,9.77864146989305E-06,18.28125,0,0
-2.65179751295364E-05,1.37978449856746E-05,18.28125,0,0
-2.14688716368983E-05,1.49887764564482E-05,18.28125,0,0
-2.35208754020277E-05,1.84808086487465E-05,18.28125,0,0
-2.18855529965367E-05,1.66428253578488E-05,18.28125,0,0
-2.45278333750321E-05,1.45286348924856E-05,18.28125,0,0
-2.4459188352921E-05,1.30030812215409E-05,18.28125,0,0
-2.40352037508274E-05,1.33088851725915E-05,18.28125,0,0
-2.32218917517457E-05,1.32391151055344E-05,18.28125,0,0
-2.20610909309471E-05,1.19663536679582E-05,18.28125,0,0
-2.34104663832113E-05,1.06585021057981E-05,18.28125,0,0
-2.25140775000909E-05,8.58071143738925E-06,18.28125,0,0
-2.34684284805553E-05,7.17995908416924E-06,18.28125,0,0
-2.18833374674432E-05,5.80757841817103E-06,18.28125,0,0
-2.28578410315095E-05,7.16545901013887E-06,18.28125,0,0
-2.20791571337031E-05,7.75067837821553E-06,18.28125,0,0
-2.34251292567933E-05,7.42087149774306E-06,18.28125,0,0
-2.21416885324288E-05,3.81874360755319E-06,18.28125,0,0
-2.19866979023209E-05,1.7518053709864E-06,18.28125,0,0
-2.09359750442673E-05,3.41154191119131E-06,18.28125,0,0
-2.17497581616044E-05,8.11855898064096E-06,18.28125,0,0
-2.09577101486502E-05,1.09586671896977E-05,18.28125,0,0
-2.01985858439002E-05,1.05422395790811E-05,18.28125,0,0
-2.05274482141249E-05,9.07918547454756E-06,18.28125,0,0
-2.17334927583579E-05,9.18301884667017E-06,18.28125,0,0
-1.81321047421079E-05,8.31325633043889E-06,18.28125,0,0
-2.5844465199043E-05,1.25841579574626E-05,18.28125,0,0
-1.95778575289296E-05,1.0531651241763E-05,18.28125,0,0
-2.42875994445058E-05,1.22884457596228E-05,18.28125,0,0
-2.15477684832877E-05,1.12168017949443E-05,18.28125,0,0
-2.56935909419553E-05,1.35378259074059E-05,18.28125,0,0
-2.5759065465536E-05,1.27181792777264E-05,18.28125,0,0
-2.74602316494565E-05,1.24740163300885E-05,18.28125,0,0
-2.60826236626599E-05,1.12353554868605E-05,18.28125,0,0
-2.49372951657278E-05,1.04046002888936E-05,18.28125,0,0
-2.48018350248458E-05,1.08483036456164E-05,18.28125,0,0
-2.46737363340799E-05,1.14609292722889E-05,18.28125,0,0
-2.57605879596667E-05,1.12353727672598E-05,18.28125,0,0
-2.48103515332332E-05,9.82476376520935E-06,18.28125,0,0
-2.61264030996244E-05,1.08144677142263E-05,18.28125,0,0
-2.64420032181079E-05,1.16349901873036E-05,18.28125,0,0
-2.89651543425862E-05,1.20196336865774E-05,18.28125,0,0
-2.93116081593325E-05,1.23026002256665E-05,18.28125,0,0
-3.02605803881306E-05,1.58564889716217E-05,18.28125,0,0
-2.75278325716499E-05,1.74705182871548E-05,18.28125,0,0
-2.52847457886674E-05,1.63900858751731E-05,18.28125,0,0
-2.34735016420018E-05,1.3380029486143E-05,18.28125,0,0
-2.48275810008636E-05,1.22828641906381E-05,18.28125,0,0
-2.62716166616883E-05,1.34247147798305E-05,18.28125,0,0
-2.77106573776109E-05,1.4508170352201E-05,18.28125,0,0
-2.80072144960286E-05,1.27940056700027E-05,18.28125,0,0
-2.77137460216181E-05,1.18087800728972E-05,18.28125,0,0
-2.21902428165777E-05,1.13033265733975E-05,18.28125,0,0
-3.03602919302648E-05,1.69772556546377E-05,18.28125,0,0
-2.21963782678358E-05,1.24453390526469E-05,18.28125,0,0
-2.87506791210035E-05,1.21512339319452E-05,18.28125,0,0
-2.37561071116943E-05,8.20960030978313E-06,18.28125,0,0
-2.60554679698544E-05,1.10030114228721E-05,18.28125,0,0
-2.33841801673407E-05,1.20057766253012E-05,18.28125,0,0
-2.54867481999099E-05,1.31555516418302E-05,18.28125,0,0
-2.48186042881571E-05,1.18811094580451E-05,18.28125,0,0
