biceps_emg, triceps_emg, subject_position, position_estimate, brace_position
-7.05208321960527E-07,-1.41112850542413E-05,0.703125,0,0
-5.04372565046651E-07,-1.55072139023105E-05,0.703125,0,0
5.44600311513932E-07,-1.73224616446532E-05,0.703125,0,0
2.50583730121434E-06,-1.96893288375577E-05,0.703125,0,0
4.43797353000264E-06,-2.09529262065189E-05,0.703125,0,0
5.19689456268679E-06,-2.08015953830909E-05,0.703125,0,0
4.22882612838293E-06,-2.10461348615354E-05,0.703125,0,0
2.65045423475385E-06,-1.99815040105022E-05,0.703125,0,0
2.73468685918488E-06,-1.97666049643885E-05,0.703125,0,0
3.52819938598259E-06,-1.8932838429464E-05,0.703125,0,0
3.56918053512345E-06,-1.89945585589157E-05,0.703125,0,0
2.97452811537369E-06,-1.79461421794258E-05,0.703125,0,0
2.20521815208485E-06,-1.7956897863769E-05,0.703125,0,0
5.84722727126064E-07,-1.78187765413895E-05,0.703125,0,0
-1.39636904350482E-06,-1.93939631571993E-05,0.703125,0,0
-1.74938088548515E-06,-1.98820198420435E-05,0.703125,0,0
-3.83444358931229E-07,-1.8761462342809E-05,0.703125,0,0
1.3998228496348E-06,-1.76128451130353E-05,0.703125,0,0
2.60800561591168E-06,-1.82467811100651E-05,0.703125,0,0
2.9994923806953E-06,-1.80373426701408E-05,0.703125,0,0
4.2216533984174E-06,-1.57961658260319E-05,0.703125,0,0
4.21925687987823E-06,-1.10312203105423E-05,0.703125,0,0
5.3422800192493E-06,-1.80409078893717E-05,0.703125,0,0
2.22541029870627E-06,-1.89242819033097E-05,0.703125,0,0
1.77408719537198E-06,-2.3215163309942E-05,0.703125,0,0
-2.3060616172188E-07,-2.05999531317502E-05,0.703125,0,0
4.65826076379017E-07,-2.38794709730428E-05,0.703125,0,0
1.08510710106202E-06,-2.5095883756876E-05,0.703125,0,0
1.69514760273159E-06,-2.68017302005319E-05,0.703125,0,0
1.66046174854273E-06,-2.56910916505149E-05,0.703125,0,0
1.564254830555E-06,-2.47523403231753E-05,0.703125,0,0
1.04268406175834E-06,-2.31549456657376E-05,0.703125,0,0
-2.41952051283079E-07,-2.01918774109799E-05,0.703125,0,0
-5.96283143750043E-07,-1.80100269062677E-05,0.703125,0,0
-6.04661750003288E-07,-1.50677997226012E-05,0.703125,0,0
-4.63329968170001E-07,-1.39715630211867E-05,0.703125,0,0
-7.12652536094538E-07,-1.25018814287614E-05,0.703125,0,0
-2.9954676961097E-07,-1.25587539514527E-05,0.703125,0,0
3.35439864329601E-07,-1.11455110527459E-05,0.703125,0,0
2.36166238209989E-06,-1.12126817839453E-05,0.703125,0,0
3.97407666241634E-06,-1.10428127300111E-05,0.703125,0,0
4.95973517899984E-06,-1.20451168186264E-05,0.703125,0,0
5.00054738949984E-06,-1.18745674626553E-05,0.703125,0,0
4.62394882561057E-06,-1.22677893159562E-05,0.703125,0,0
5.1979250201839E-06,-1.19430960694444E-05,0.703125,0,0
6.96558254276169E-06,-1.11161780296243E-05,0.703125,0,0
8.37558036437258E-06,-1.14239082904533E-05,0.703125,0,0
8.69827636051923E-06,-1.22810542961815E-05,0.703125,0,0
5.57982684767921E-06,-1.06333691292093E-05,0.703125,0,0
5.96385370954522E-06,-1.88953927136026E-05,0.703125,0,0
1.78974630671291E-06,-2.14792253245832E-05,0.703125,0,0
4.17916680817143E-06,-2.62277953879675E-05,0.703125,0,0
4.89548438054044E-06,-2.43682607106166E-05,0.703125,0,0
6.31751527180313E-06,-2.62463800027035E-05,0.703125,0,0
4.93813877255889E-06,-2.48330252361484E-05,0.703125,0,0
4.97154132972355E-06,-2.39853688981384E-05,0.703125,0,0
4.2680267142714E-06,-2.06056192837423E-05,0.703125,0,0
2.31130047723127E-06,-1.81638151843799E-05,0.703125,0,0
4.29543121072129E-07,-1.82980384124676E-05,0.703125,0,0
-1.28350635009156E-07,-1.85225962923141E-05,0.703125,0,0
1.92956349565065E-06,-1.78965201484971E-05,0.703125,0,0
4.06862864110735E-06,-1.54519657371566E-05,0.703125,0,0
5.22538357472513E-06,-1.47651317092823E-05,0.703125,0,0
4.232886567479E-06,-1.34497731778538E-05,0.703125,0,0
4.11158680435619E-06,-1.49590923683718E-05,0.703125,0,0
4.71312159788795E-06,-1.78707468876382E-05,0.703125,0,0
5.83421388000716E-06,-2.2028798412066E-05,0.703125,0,0
6.06972753303126E-06,-2.30978384934133E-05,0.703125,0,0
7.02618672221433E-06,-2.20765232370468E-05,0.703125,0,0
6.97357609169558E-06,-1.90415739780292E-05,0.703125,0,0
6.21310664428165E-06,-1.63837121363031E-05,0.703125,0,0
4.05858236263157E-06,-1.44776768138399E-05,0.703125,0,0
1.84068619546451E-06,-1.42745693665347E-05,0.703125,0,0
-1.13739659468592E-07,-1.47584878504858E-05,0.703125,0,0
6.74112641263491E-08,-1.50553023559041E-05,0.703125,0,0
2.19329126593948E-06,-1.24017888083472E-05,0.703125,0,0
3.73756233784661E-06,-1.7333441064693E-05,0.703125,0,0
2.69835913968564E-06,-1.20414233606425E-05,0.703125,0,0
1.6329004211002E-06,-1.48834396895836E-05,0.703125,0,0
4.03109822855185E-07,-1.26433214973076E-05,0.703125,0,0
3.89324071647934E-07,-1.47079927046434E-05,0.703125,0,0
2.01896952489733E-07,-1.47492291944218E-05,0.703125,0,0
3.64274626463157E-07,-1.67020025401143E-05,0.703125,0,0
9.28761608065543E-07,-1.74075521499617E-05,0.703125,0,0
2.16458010982024E-06,-1.85611115739448E-05,0.703125,0,0
3.88744228985161E-06,-1.93371924979147E-05,0.703125,0,0
4.81109645988909E-06,-1.77211168193026E-05,0.703125,0,0
5.25653467775555E-06,-1.65543642651755E-05,0.703125,0,0
5.65038089916925E-06,-1.44933537740144E-05,0.703125,0,0
6.47335991743603E-06,-1.38741634145845E-05,0.703125,0,0
5.60587977815885E-06,-1.30440275825094E-05,0.703125,0,0
3.53354516846593E-06,-1.45702033478301E-05,0.703125,0,0
2.2782896849094E-06,-1.394714035996E-05,0.703125,0,0
2.86338809019071E-06,-1.2731388778775E-05,0.703125,0,0
4.10258144256659E-06,-1.10428718471667E-05,0.703125,0,0
5.15039573656395E-06,-1.26404693219229E-05,0.703125,0,0
5.37175810677581E-06,-1.45193844218738E-05,0.703125,0,0
5.75820695303264E-06,-1.58053589984775E-05,0.703125,0,0
5.80988125875592E-06,-1.60564777615946E-05,0.703125,0,0
4.57413398180506E-06,-1.58734255819581E-05,0.703125,0,0
3.95959159504855E-06,-1.6410973330494E-05,0.703125,0,0
4.97028759127716E-06,-1.95783577510156E-05,0.703125,0,0
4.75219576401287E-06,-1.79662565642502E-05,0.703125,0,0
5.47040144738276E-06,-2.51537967415061E-05,0.703125,0,0
1.97636063603568E-06,-1.7373959053657E-05,0.703125,0,0
2.80892481896444E-06,-1.88502399396384E-05,0.703125,0,0
1.9814649476757E-06,-1.21571501949802E-05,0.703125,0,0
4.52847734777606E-06,-1.42239241540665E-05,0.703125,0,0
6.1963314692548E-06,-1.34701949718874E-05,0.703125,0,0
6.27295503363712E-06,-1.53466153278714E-05,0.703125,0,0
4.1585776671127E-06,-1.46756528920378E-05,0.703125,0,0
3.00927445096022E-06,-1.36034268507501E-05,0.703125,0,0
3.38747645400872E-06,-1.23289437397034E-05,0.703125,0,0
4.22074481321033E-06,-1.17986328405095E-05,0.703125,0,0
5.65557684240048E-06,-1.56446021719603E-05,0.703125,0,0
4.45054502051789E-06,-1.91751587408362E-05,0.703125,0,0
2.64122854787274E-06,-2.30404712056043E-05,0.703125,0,0
1.57825274982315E-06,-2.32380862144055E-05,0.703125,0,0
1.54791177919833E-06,-2.41300385823706E-05,0.703125,0,0
8.55716848491284E-07,-2.15930813283194E-05,0.703125,0,0
5.56943007268274E-07,-2.01496877707541E-05,0.703125,0,0
3.95082935256141E-07,-1.71928149939049E-05,0.703125,0,0
1.79192227278691E-06,-1.58559323608642E-05,0.703125,0,0
2.54001702160167E-06,-1.43675579238334E-05,0.703125,0,0
9.4247872084452E-07,-1.59664214152144E-05,0.703125,0,0
-1.54666645357793E-06,-1.69693412317429E-05,0.703125,0,0
-2.11780684367113E-06,-1.59484134201193E-05,0.703125,0,0
-5.31227271949319E-07,-1.44205987453461E-05,0.703125,0,0
1.74331125890603E-06,-1.42593798955204E-05,0.703125,0,0
1.78432605935086E-06,-1.07772129922523E-05,0.703125,0,0
1.31740637243638E-06,-1.46093316288898E-05,0.703125,0,0
-9.24645007671643E-07,-1.19825472211232E-05,0.703125,0,0
5.542160153027E-08,-1.69578106579138E-05,0.703125,0,0
2.14192664316215E-06,-1.82708845386514E-05,0.703125,0,0
5.85402312935912E-06,-2.46592571784277E-05,0.703125,0,0
8.72090822667815E-06,-2.59917214862071E-05,0.703125,0,0
9.03292220755247E-06,-2.74514695774997E-05,0.703125,0,0
7.30450392438797E-06,-2.64670088654384E-05,0.703125,0,0
5.77791934119887E-06,-2.59642947639804E-05,0.703125,0,0
4.77235744256177E-06,-2.49379409069661E-05,0.703125,0,0
4.08255891670706E-06,-2.22912094614003E-05,0.703125,0,0
4.12874715038924E-06,-2.00383947230875E-05,0.703125,0,0
4.03337253374048E-06,-1.76234880200354E-05,0.703125,0,0
2.69978158939921E-06,-1.77397105289856E-05,0.703125,0,0
6.48733816888125E-07,-1.6575524568907E-05,0.703125,0,0
8.7483243760289E-07,-1.67135731317103E-05,0.703125,0,0
3.46755996361026E-06,-1.68502810993232E-05,0.703125,0,0
5.84724966756767E-06,-1.95889024325879E-05,0.703125,0,0
4.70131726615364E-06,-2.03258714464027E-05,0.703125,0,0
2.5635413294367E-06,-2.03747840714641E-05,0.703125,0,0
2.51312849286478E-06,-1.83658394234953E-05,0.703125,0,0
4.34973208029987E-06,-1.67580437846482E-05,0.703125,0,0
5.34619948666659E-06,-1.55570996867027E-05,0.703125,0,0
3.83923770641559E-06,-1.48617191371159E-05,0.703125,0,0
1.32528896301665E-06,-1.35759419208625E-05,0.703125,0,0
8.5696907348165E-09,-1.26880368043203E-05,0.703125,0,0
-1.33702073412678E-07,-9.27303426578874E-06,0.703125,0,0
-5.90815659506916E-07,-1.13024152597063E-05,0.703125,0,0
-3.37399654881665E-07,-6.74010971124517E-06,0.703125,0,0
6.5842874619193E-07,-1.07639953057515E-05,0.703125,0,0
1.10970427158463E-06,-9.964168384613E-06,0.703125,0,0
1.95539928427024E-06,-1.12418510980206E-05,0.703125,0,0
2.34683420785586E-06,-1.00857278084732E-05,0.703125,0,0
5.69042128972796E-07,-1.05025537777692E-05,0.703125,0,0
-1.66847496529954E-06,-1.13231635623379E-05,0.703125,0,0
-1.64978655448067E-06,-1.48617755257874E-05,0.703125,0,0
-3.14284591240721E-07,-1.82114108611131E-05,0.703125,0,0
-6.16126726527E-07,-1.9155870177201E-05,0.703125,0,0
-1.68720919191401E-06,-2.0676467102021E-05,0.703125,0,0
-2.28985527428449E-06,-2.09400295716478E-05,0.703125,0,0
-1.78709683495981E-06,-2.17320430238033E-05,0.703125,0,0
-1.19342598736694E-06,-2.1365814973251E-05,0.703125,0,0
-1.10956909793458E-06,-2.07545654120622E-05,0.703125,0,0
-8.66195193793828E-07,-1.72943928191671E-05,0.703125,0,0
-6.67504252760409E-07,-1.60261661221739E-05,0.703125,0,0
-7.40141615551693E-07,-1.60292984219268E-05,0.703125,0,0
-1.55391589373721E-07,-1.64903322001919E-05,0.703125,0,0
7.87538283475442E-07,-1.61150474013994E-05,0.703125,0,0
1.83954455224011E-06,-1.62294145411579E-05,0.703125,0,0
3.04425611830084E-06,-1.51250742419506E-05,0.703125,0,0
3.10578525386518E-06,-1.48869103213656E-05,0.703125,0,0
2.63292736235599E-06,-1.60732761287363E-05,0.703125,0,0
2.4287528503919E-06,-1.61283223860664E-05,0.703125,0,0
2.43949307332514E-06,-1.26675577121205E-05,0.703125,0,0
3.09933943754004E-06,-1.69376435223967E-05,0.703125,0,0
1.81929738118924E-06,-1.10589126052218E-05,0.703125,0,0
2.3652557956666E-06,-1.41682776302332E-05,0.703125,0,0
2.23322990677843E-06,-1.22921001093346E-05,0.703125,0,0
3.04003469864256E-06,-1.39682924782392E-05,0.703125,0,0
2.06135450753209E-06,-1.1904336133739E-05,0.703125,0,0
1.05691935914365E-06,-1.28547917483957E-05,0.703125,0,0
6.24118342784641E-07,-1.3738173947786E-05,0.703125,0,0
1.24788971334056E-06,-1.47168648254592E-05,0.703125,0,0
1.53054577367584E-06,-1.50591877172701E-05,0.703125,0,0
2.43819044953852E-06,-1.56286132551031E-05,0.703125,0,0
4.59862440038705E-06,-1.65349756571231E-05,0.703125,0,0
5.40370274393354E-06,-1.49433963088086E-05,0.703125,0,0
4.64548156742239E-06,-1.53041946759913E-05,0.703125,0,0
3.40661085829197E-06,-1.55944107973482E-05,0.703125,0,0
3.92393212678144E-06,-1.75537606992293E-05,0.703125,0,0
4.82997484141379E-06,-1.72926065715728E-05,0.703125,0,0
4.80277640235727E-06,-1.73608714248985E-05,0.703125,0,0
3.04316790789017E-06,-1.57311005750671E-05,0.703125,0,0
2.22200969801634E-06,-1.52480579345138E-05,0.703125,0,0
3.5571247281041E-06,-1.4687585462525E-05,0.703125,0,0
6.31679267826257E-06,-1.53856854012702E-05,0.703125,0,0
7.06701757735573E-06,-1.66743502632016E-05,0.703125,0,0
5.49509195479914E-06,-2.0076498913113E-05,0.703125,0,0
3.25132464240596E-06,-2.31057110795518E-05,0.703125,0,0
2.83055578620406E-06,-2.46717736445135E-05,0.703125,0,0
2.44437842411571E-06,-2.0147577743046E-05,0.703125,0,0
3.09566758005531E-06,-2.73260466201464E-05,0.703125,0,0
1.06253719422966E-06,-1.82750118256081E-05,0.703125,0,0
2.20412721319008E-06,-2.28543758566957E-05,0.703125,0,0
4.32894557889085E-06,-1.817747761379E-05,0.703125,0,0
5.8081277529709E-06,-2.04353000299307E-05,0.703125,0,0
5.12717633682769E-06,-1.8898044800153E-05,0.703125,0,0
5.1896408876928E-06,-2.01540915441001E-05,0.703125,0,0
5.38477434020024E-06,-1.97333210962825E-05,0.703125,0,0
4.26794122176943E-06,-2.17828637687489E-05,0.703125,0,0
1.91471508514951E-06,-2.2590669686906E-05,0.703125,0,0
1.29856448438659E-06,-1.98340712813661E-05,0.703125,0,0
2.50753350883315E-06,-1.90538885362912E-05,0.703125,0,0
3.27082420881197E-06,-1.80419046955649E-05,0.703125,0,0
3.32241552314372E-06,-1.96512828551931E-05,0.703125,0,0
2.74647845799336E-06,-1.86201377800899E-05,0.703125,0,0
3.24112579619396E-06,-1.89623915503034E-05,0.703125,0,0
4.57446685686591E-06,-1.68586739164311E-05,0.703125,0,0
6.24650238023605E-06,-1.76367957465118E-05,0.703125,0,0
7.43149121262832E-06,-1.61774969456019E-05,0.703125,0,0
8.57140184962191E-06,-1.48590606841026E-05,0.703125,0,0
8.42682766233338E-06,-1.32879185912316E-05,0.703125,0,0
6.88058571540751E-06,-1.45727390190586E-05,0.703125,0,0
4.61998524770024E-06,-1.54603567352751E-05,0.703125,0,0
3.10768564304453E-06,-1.73456628544955E-05,0.703125,0,0
3.94354265154107E-06,-1.76389166881563E-05,0.703125,0,0
5.13806617163937E-06,-1.60806648636935E-05,0.703125,0,0
1.49194283949328E-06,-1.33747971631237E-05,0.703125,0,0
-9.89755619684729E-08,-2.0114866856602E-05,0.703125,0,0
-2.01167858904228E-06,-1.67110119946301E-05,0.703125,0,0
-5.96401491748111E-07,-1.93326814041939E-05,0.703125,0,0
7.42532151321029E-08,-1.68008937180275E-05,0.703125,0,0
1.0728603001553E-06,-2.00118029169971E-05,0.703125,0,0
-1.21447456535861E-07,-1.93982014025096E-05,0.703125,0,0
5.52439814782701E-07,-2.10431844607228E-05,0.703125,0,0
1.23082372738281E-06,-2.11308361031115E-05,0.703125,0,0
1.32281309106475E-06,-2.12887644011062E-05,0.703125,0,0
1.3722501535085E-06,-2.22613361984259E-05,0.703125,0,0
2.35751099353365E-06,-2.11924598261248E-05,0.703125,0,0
3.67318693861307E-06,-2.06164186238311E-05,0.703125,0,0
3.48136222783069E-06,-1.9140386939398E-05,0.703125,0,0
2.9675438781851E-06,-1.99294026970165E-05,0.703125,0,0
1.90031755664677E-06,-2.05764245038154E-05,0.703125,0,0
1.79784308329545E-06,-2.40188583120471E-05,0.703125,0,0
2.29097918236221E-06,-2.56194707617396E-05,0.703125,0,0
2.57589158536575E-06,-2.5860543246381E-05,0.703125,0,0
1.64609832609131E-06,-2.37737476709299E-05,0.703125,0,0
1.47844184539281E-06,-2.34464714594651E-05,0.703125,0,0
2.52536824518756E-06,-2.31789053941611E-05,0.703125,0,0
4.70209715786041E-06,-2.27956152230036E-05,0.703125,0,0
3.96111227018991E-06,-2.11789792956552E-05,0.703125,0,0
1.23036193144799E-06,-2.09067820833297E-05,0.703125,0,0
7.71109469610565E-08,-2.06377299036831E-05,0.703125,0,0
3.80225799290201E-07,-1.88343419722514E-05,0.703125,0,0
6.83940072576661E-07,-1.3480866982718E-05,0.703125,0,0
1.75414436398569E-06,-1.94209551409585E-05,0.703125,0,0
3.90915465686703E-06,-1.66263671417255E-05,0.703125,0,0
5.56213126401417E-06,-2.08081200980814E-05,0.703125,0,0
4.3693926272681E-06,-1.50380510604009E-05,0.703125,0,0
4.07898096455028E-06,-1.35522313939873E-05,0.703125,0,0
5.1163597163395E-06,-1.06469824459055E-05,0.703125,0,0
6.38761730442639E-06,-1.29535746964393E-05,0.703125,0,0
7.51766447137925E-06,-1.40856864163652E-05,0.703125,0,0
7.43184818929876E-06,-1.33334369820659E-05,0.703125,0,0
6.59466468277969E-06,-1.2298683031986E-05,0.703125,0,0
5.71721784581314E-06,-1.1492148587422E-05,0.703125,0,0
4.51833420811454E-06,-1.19928490676102E-05,0.703125,0,0
2.97941323879058E-06,-1.10116088762879E-05,0.703125,0,0
1.9106189483864E-06,-1.14592203317443E-05,0.703125,0,0
2.38795792029123E-06,-1.08790409285575E-05,0.703125,0,0
3.91565663449001E-06,-1.18746975203976E-05,0.703125,0,0
4.33124023402343E-06,-1.04366499726893E-05,0.703125,0,0
3.49304627889069E-06,-8.97428617463447E-06,0.703125,0,0
1.98014572561078E-06,-6.25150005362229E-06,0.703125,0,0
4.61795991668623E-07,-6.07785068496014E-06,0.703125,0,0
-3.05313307080723E-07,-7.1495710471936E-06,0.703125,0,0
-6.50067136120924E-07,-1.05095305116265E-05,0.703125,0,0
-1.59483960260332E-07,-1.2691508345597E-05,0.703125,0,0
1.23508391425275E-06,-1.38716632136493E-05,0.703125,0,0
2.40175722865388E-06,-1.34698848341941E-05,0.703125,0,0
3.05409594147932E-06,-1.23226736832294E-05,0.703125,0,0
2.17793399315269E-06,-1.06394472823013E-05,0.703125,0,0
1.64933726409799E-06,-1.88890935532982E-05,0.703125,0,0
3.87904321996757E-07,-2.034664794337E-05,0.703125,0,0
3.54148392034404E-06,-2.41597608692246E-05,0.703125,0,0
4.75685146739124E-06,-1.91892231669044E-05,0.703125,0,0
4.89692092742189E-06,-1.47650498547591E-05,0.703125,0,0
3.43106489708589E-06,-1.0536192348809E-05,0.703125,0,0
2.99660678138025E-06,-1.12389679998159E-05,0.703125,0,0
3.93233403883642E-06,-1.33304711198434E-05,0.703125,0,0
5.5481441449956E-06,-1.62945052579744E-05,0.703125,0,0
5.85845873501967E-06,-1.8210346752312E-05,0.703125,0,0
4.52081530966097E-06,-1.79595244844677E-05,0.703125,0,0
4.95747326567653E-06,-1.80740426003467E-05,0.703125,0,0
6.84770793668577E-06,-1.8510614609113E-05,0.703125,0,0
9.17153920454439E-06,-2.09433655982139E-05,0.703125,0,0
9.71527424553642E-06,-2.23661572817946E-05,0.703125,0,0
8.24822018330451E-06,-2.35420793615049E-05,0.703125,0,0
5.83528208153439E-06,-2.25196745304856E-05,0.703125,0,0
5.51994480701978E-06,-2.2481912310468E-05,0.703125,0,0
7.36443007554044E-06,-2.32159036386292E-05,0.703125,0,0
8.96488472790224E-06,-2.49129006988369E-05,0.703125,0,0
7.88917895988561E-06,-2.43704234890174E-05,0.703125,0,0
6.45070167593076E-06,-2.43819595198147E-05,0.703125,0,0
6.28342377240187E-06,-2.46720246650511E-05,0.703125,0,0
6.05059358349536E-06,-2.36866380873835E-05,0.703125,0,0
5.18638398716575E-06,-2.21234913624357E-05,0.703125,0,0
4.01732131649624E-06,-2.20113088289509E-05,0.703125,0,0
2.59113267020439E-06,-1.82197964022635E-05,0.703125,0,0
3.93593336411868E-06,-2.51652945735259E-05,0.703125,0,0
4.19975776821957E-06,-1.70776165759889E-05,0.703125,0,0
5.7795773500402E-06,-2.06082750082714E-05,0.703125,0,0
4.36006575910142E-06,-1.64518150995718E-05,0.703125,0,0
2.67975156020839E-06,-1.90741739061195E-05,0.703125,0,0
1.20626941679802E-06,-1.6910838894546E-05,0.703125,0,0
1.26900465602375E-06,-1.7120848497143E-05,0.703125,0,0
9.36159722186858E-07,-1.64727625815431E-05,0.703125,0,0
-8.04253517117104E-08,-1.75991208379855E-05,0.703125,0,0
-6.08505558830075E-07,-1.77377296495251E-05,0.703125,0,0
8.83893733316654E-07,-1.65890869538998E-05,0.703125,0,0
2.54208657679555E-06,-1.78493774001254E-05,0.703125,0,0
2.28887438424863E-06,-1.90312985068886E-05,0.703125,0,0
1.37497170271672E-06,-2.34318631555652E-05,0.703125,0,0
9.06450395632419E-07,-2.3608921765117E-05,0.703125,0,0
1.88445949333982E-06,-2.18229961319594E-05,0.703125,0,0
2.52500808528566E-06,-1.63358890858945E-05,0.703125,0,0
3.1009722079034E-06,-1.31175074784551E-05,0.703125,0,0
3.57714111487439E-06,-1.17486652015941E-05,0.703125,0,0
4.16030707128812E-06,-1.59083610924426E-05,0.703125,0,0
3.74258866031596E-06,-1.89343263627961E-05,0.703125,0,0
3.05837670566689E-06,-2.17323886317899E-05,0.703125,0,0
1.67300925113523E-06,-2.2299795091385E-05,0.703125,0,0
-3.20852819868378E-07,-2.24779323616531E-05,0.703125,0,0
-1.04145726709248E-06,-2.2504355001729E-05,0.703125,0,0
5.59585515702565E-08,-2.1999594537192E-05,0.703125,0,0
6.21866025340978E-09,-1.83891334017972E-05,0.703125,0,0
-9.26633902054164E-07,-2.61138156929519E-05,0.703125,0,0
-6.46952216243335E-08,-1.76449757418595E-05,0.703125,0,0
2.53238476943807E-06,-1.99187015823554E-05,0.703125,0,0
2.39727251027944E-06,-1.6467889508931E-05,0.703125,0,0
1.20819572657638E-06,-1.98005818674574E-05,0.703125,0,0
9.02576061889704E-07,-1.83052834472619E-05,0.703125,0,0
2.26024189942109E-06,-1.98338675545529E-05,0.703125,0,0
3.89356637242599E-06,-1.79148501047166E-05,0.703125,0,0
3.97874282498378E-06,-1.47014288813807E-05,0.703125,0,0
3.77630635739479E-06,-1.31720134959323E-05,0.703125,0,0
4.18430818172055E-06,-1.17780600703554E-05,0.703125,0,0
4.85013651996269E-06,-1.26077829918358E-05,0.703125,0,0
5.47061563338502E-06,-1.19897440526984E-05,0.703125,0,0
6.47636352368863E-06,-1.34963993332349E-05,0.703125,0,0
7.21561946193106E-06,-1.3188327102398E-05,0.703125,0,0
6.65991774440045E-06,-1.46403617691249E-05,0.703125,0,0
5.37087271368364E-06,-1.4023537914909E-05,0.703125,0,0
4.54553492090781E-06,-1.49369088831008E-05,0.703125,0,0
4.48923765361542E-06,-1.47091241160524E-05,0.703125,0,0
4.75917022413341E-06,-1.5652160072932E-05,0.703125,0,0
3.75755917048082E-06,-1.52811990119517E-05,0.703125,0,0
2.30088880925905E-06,-1.65984529303387E-05,0.703125,0,0
1.17912929908925E-06,-1.84838154382305E-05,0.703125,0,0
2.05379569706565E-06,-2.16085500142071E-05,0.703125,0,0
4.20734659201116E-06,-2.28984099521767E-05,0.703125,0,0
3.15597503686149E-06,-1.99116366275121E-05,0.703125,0,0
1.28509441310598E-07,-1.19889136840357E-05,0.703125,0,0
9.92509740171954E-07,-1.42618191603106E-05,0.703125,0,0
3.05256457977521E-06,-8.46873172122287E-06,0.703125,0,0
4.70779059469351E-06,-1.27382127175224E-05,0.703125,0,0
4.61501485915505E-06,-1.05312419691472E-05,0.703125,0,0
4.06973822464352E-06,-1.29306099552196E-05,0.703125,0,0
4.23996198151144E-06,-1.21413013403071E-05,0.703125,0,0
5.8327477745479E-06,-1.33960675157141E-05,0.703125,0,0
7.5661964729079E-06,-1.21543062050478E-05,0.703125,0,0
8.07890864962246E-06,-1.18796606329852E-05,0.703125,0,0
6.98914163876907E-06,-1.2600557965925E-05,0.703125,0,0
5.46796900380286E-06,-1.31722745209117E-05,0.703125,0,0
4.08585583500098E-06,-1.42553153636982E-05,0.703125,0,0
3.35880963575619E-06,-1.41316231747624E-05,0.703125,0,0
4.08086270908825E-06,-1.57112935994519E-05,0.703125,0,0
5.27732754562749E-06,-1.49408269862761E-05,0.703125,0,0
5.01166186950286E-06,-1.50423138620681E-05,0.703125,0,0
3.51260314346291E-06,-1.35750015033409E-05,0.703125,0,0
2.19128264689061E-06,-1.43011875479715E-05,0.703125,0,0
6.75030776164931E-07,-1.34384181365022E-05,0.703125,0,0
-1.44924456435547E-06,-1.30749103846028E-05,0.703125,0,0
-2.96160737889295E-06,-1.23730969789904E-05,0.703125,0,0
-2.40314875554759E-06,-1.16763203550363E-05,0.703125,0,0
-1.78009395312984E-06,-1.15331922643236E-05,0.703125,0,0
-2.84412840301229E-06,-1.38227023853688E-05,0.703125,0,0
-4.04410684495815E-06,-1.36604903673287E-05,0.703125,0,0
-3.42312000611855E-06,-1.23177878776914E-05,0.703125,0,0
-2.31726130550669E-06,-9.9609860626515E-06,0.703125,0,0
-2.7597973257798E-06,-1.41039727168391E-05,0.703125,0,0
-1.49564607454522E-06,-9.01750354387332E-06,0.703125,0,0
-2.2603223897022E-06,-1.0982429557771E-05,0.703125,0,0
-2.04971638595453E-06,-1.17612935355282E-05,0.703125,0,0
-1.5171051472862E-06,-1.48393710333039E-05,0.703125,0,0
1.10290409338631E-06,-1.40388829095173E-05,0.703125,0,0
1.98386806005146E-06,-1.37271226776647E-05,0.703125,0,0
9.1085485109943E-07,-1.32623317767866E-05,0.703125,0,0
1.38473239985615E-07,-1.43538863994763E-05,0.703125,0,0
8.52419816510519E-07,-1.53981436596951E-05,0.703125,0,0
9.25201447898871E-07,-1.59379706019536E-05,0.703125,0,0
-9.07903938696109E-07,-1.74398865055991E-05,0.703125,0,0
-2.56330622505629E-06,-1.71530791703844E-05,0.703125,0,0
-2.80517929240887E-06,-1.5965391867212E-05,0.703125,0,0
-1.55705436100106E-07,-1.38740051625064E-05,0.703125,0,0
2.63467973127263E-06,-1.46047095768154E-05,0.703125,0,0
3.61915817848057E-06,-1.59603241627337E-05,0.703125,0,0
2.0235152078385E-06,-1.82939529622672E-05,0.703125,0,0
4.0953096913654E-07,-1.88695321412524E-05,0.703125,0,0
-3.86984140732238E-07,-1.93479736481095E-05,0.703125,0,0
-2.02404891069818E-07,-1.95579741557594E-05,0.703125,0,0
9.70929249888286E-07,-1.99497590074316E-05,0.703125,0,0
1.97585814021295E-06,-1.92670850083232E-05,0.703125,0,0
1.46227000641375E-06,-1.86883698916063E-05,0.703125,0,0
4.45579615870884E-07,-1.73259304574458E-05,0.703125,0,0
1.0657679894166E-07,-1.66367972269654E-05,0.703125,0,0
1.48940762301208E-06,-1.41618620546069E-05,0.703125,0,0
3.05577668768819E-06,-1.99901223822962E-05,0.703125,0,0
3.58617739948386E-06,-1.31283277369221E-05,0.703125,0,0
4.62206253359909E-06,-1.43400338856736E-05,0.703125,0,0
3.1636591302231E-06,-1.13247360786772E-05,0.703125,0,0
7.53764538785617E-07,-1.4581737559638E-05,0.703125,0,0
4.49364222276927E-07,-1.43634561027284E-05,0.703125,0,0
2.25268945541757E-06,-1.52869051817106E-05,0.703125,0,0
3.68517385140876E-06,-1.49317465911736E-05,0.703125,0,0
4.16777811551583E-06,-1.53383989527356E-05,0.703125,0,0
5.37783580512041E-06,-1.52733555296436E-05,0.703125,0,0
5.70011434319895E-06,-1.39096882776357E-05,0.703125,0,0
4.69453289042576E-06,-1.37123397507821E-05,0.703125,0,0
3.78362142328115E-06,-1.27059292935883E-05,0.703125,0,0
4.68495227323729E-06,-1.3561878404289E-05,0.703125,0,0
6.69191058477736E-06,-1.291462831432E-05,0.703125,0,0
7.66288849263219E-06,-1.45895437526633E-05,0.703125,0,0
7.05864749761531E-06,-1.59152677952079E-05,0.703125,0,0
5.60358375878423E-06,-1.86710112757282E-05,0.703125,0,0
4.47584670837387E-06,-1.96450473595178E-05,0.703125,0,0
4.41574502474396E-06,-2.05814649234526E-05,0.703125,0,0
5.40331757292734E-06,-1.96749260794604E-05,0.703125,0,0
6.70057715979056E-06,-1.92893639905378E-05,0.703125,0,0
6.42715440335451E-06,-1.96625933313044E-05,0.703125,0,0
5.48574871572782E-06,-2.0826080799452E-05,0.703125,0,0
5.1462639021338E-06,-2.18114346353104E-05,0.703125,0,0
5.39434540769435E-06,-2.26924985327059E-05,0.703125,0,0
5.15891406394076E-06,-1.78355548996478E-05,0.703125,0,0
7.49944001654512E-06,-2.508797297196E-05,0.703125,0,0
5.78171102461056E-06,-1.90647424460622E-05,0.703125,0,0
6.16695024291403E-06,-2.47903826675611E-05,0.703125,0,0
3.6785254451388E-06,-2.17757678910857E-05,0.703125,0,0
4.60580804428901E-06,-2.38305074162781E-05,0.703125,0,0
3.97168560084538E-06,-2.22637718252372E-05,0.703125,0,0
3.16176624437503E-06,-2.39306973526254E-05,0.703125,0,0
2.36391633734456E-06,-2.21354075620184E-05,0.703125,0,0
2.31770263781073E-06,-1.98246470972663E-05,0.703125,0,0
2.95718996312644E-06,-1.82685489562573E-05,0.703125,0,0
3.73548755305819E-06,-1.71491228684317E-05,0.703125,0,0
5.35217577635194E-06,-1.78384016180644E-05,0.703125,0,0
5.40402834303677E-06,-1.69555114553077E-05,0.703125,0,0
4.5661254262086E-06,-1.8008287952398E-05,0.703125,0,0
3.32435752170568E-06,-1.8332324543735E-05,0.703125,0,0
3.22283608511498E-06,-2.05188989639282E-05,0.703125,0,0
2.79416940429655E-06,-1.91638591786614E-05,0.703125,0,0
2.89214085569256E-06,-1.88616140803788E-05,0.703125,0,0
4.21148615714628E-06,-1.75731584022287E-05,0.703125,0,0
7.34174409444677E-06,-1.84020100277849E-05,0.703125,0,0
9.02861211216077E-06,-1.73649314092472E-05,0.703125,0,0
8.27327858132776E-06,-1.73850348801352E-05,0.703125,0,0
5.88387683819747E-06,-1.84968102985295E-05,0.703125,0,0
5.18506385560613E-06,-2.03890303964727E-05,0.703125,0,0
6.36407366982894E-06,-2.0879129806417E-05,0.703125,0,0
7.27424230717588E-06,-2.07278117159149E-05,0.703125,0,0
3.53805967279186E-06,-1.64886459970148E-05,0.703125,0,0
3.06312335851544E-06,-2.15574109461159E-05,0.703125,0,0
2.23082497541327E-06,-1.39268986458774E-05,0.703125,0,0
5.63463663638686E-06,-1.76034518517554E-05,0.703125,0,0
4.70902750748792E-06,-1.43833858601283E-05,0.703125,0,0
5.5555560720677E-06,-1.73694406839786E-05,0.703125,0,0
4.6522304728569E-06,-1.53301098180236E-05,0.703125,0,0
3.78238132725528E-06,-1.61347816174384E-05,0.703125,0,0
2.22246399061987E-06,-1.54548251884989E-05,0.703125,0,0
1.0117553301825E-06,-1.56468413479161E-05,0.703125,0,0
-9.4526848215537E-07,-1.58279381139437E-05,0.703125,0,0
-2.46787521973602E-06,-1.54985646076966E-05,0.703125,0,0
-1.61721220592881E-06,-1.70230123330839E-05,0.703125,0,0
-9.23476477510121E-07,-1.60451581905363E-05,0.703125,0,0
-4.44423477574674E-07,-1.58679649757687E-05,0.703125,0,0
-4.2697530489022E-07,-1.35362142827944E-05,0.703125,0,0
1.30596754388534E-06,-1.34279107442126E-05,0.703125,0,0
3.36487710228539E-06,-1.22432047646726E-05,0.703125,0,0
5.12259839524631E-06,-1.49822435560054E-05,0.703125,0,0
5.05643356518704E-06,-1.80343431566143E-05,0.703125,0,0
3.51773724105442E-06,-2.21954724111129E-05,0.703125,0,0
4.78381537050154E-07,-2.31923713727156E-05,0.703125,0,0
-1.89493079005842E-07,-2.2565945982933E-05,0.703125,0,0
1.98718225874472E-06,-1.95660486497218E-05,0.703125,0,0
6.00484190727002E-06,-1.6923153452808E-05,0.703125,0,0
7.25323434380698E-06,-1.37573661049828E-05,0.703125,0,0
6.13114889347344E-06,-1.11906210804591E-05,0.703125,0,0
4.22732864535647E-06,-8.74660690897144E-06,0.703125,0,0
5.2033369684068E-06,-1.37992874442716E-05,0.703125,0,0
2.67401219389285E-06,-1.41004347824492E-05,0.703125,0,0
3.0472008347715E-06,-1.89629026863258E-05,0.703125,0,0
3.99221477209721E-07,-1.92438055819366E-05,0.703125,0,0
-6.93378012783796E-08,-2.16579228435876E-05,0.703125,0,0
-5.25995346833952E-07,-2.04405496333493E-05,0.703125,0,0
-6.89766181949381E-07,-2.00989288714482E-05,0.703125,0,0
-1.02743547358841E-06,-2.03401577891782E-05,0.703125,0,0
-9.58688474383962E-07,-2.20174551941454E-05,0.703125,0,0
-2.28350941711142E-07,-2.27824257308384E-05,0.703125,0,0
4.73699742542522E-07,-2.18986788240727E-05,0.703125,0,0
1.89965476238285E-06,-2.13321909541264E-05,0.703125,0,0
2.5427268610656E-06,-1.93232153833378E-05,0.703125,0,0
2.43712975134258E-06,-1.79054277396062E-05,0.703125,0,0
8.32037983400369E-07,-1.6578211216256E-05,0.703125,0,0
4.07999010576532E-07,-1.75384375324938E-05,0.703125,0,0
1.55087366238149E-06,-1.7928996385308E-05,0.703125,0,0
3.65121513823397E-06,-1.92711122508626E-05,0.703125,0,0
5.21222682436928E-06,-1.93980249605374E-05,0.703125,0,0
5.73564466321841E-06,-1.93947562365793E-05,0.703125,0,0
4.01353827328421E-06,-1.9112552763545E-05,0.703125,0,0
2.67612381321669E-06,-2.04345215024659E-05,0.703125,0,0
2.93970128950605E-06,-2.14987048821058E-05,0.703125,0,0
3.29437307300395E-06,-2.11130354728084E-05,0.703125,0,0
2.30222417485493E-06,-1.93055529962294E-05,0.703125,0,0
1.62696892402892E-06,-1.66001482284628E-05,0.703125,0,0
2.59874832408968E-06,-1.10228393168654E-05,0.703125,0,0
4.18974877902656E-06,-1.58132115757326E-05,0.703125,0,0
3.4529255117377E-06,-1.51661615745979E-05,0.703125,0,0
3.0344010610861E-06,-2.19855064642616E-05,0.703125,0,0
1.55027828441234E-06,-2.07705088541843E-05,0.703125,0,0
7.14224597686552E-07,-2.20785241253907E-05,0.703125,0,0
2.10727350236084E-07,-2.00757949642139E-05,0.703125,0,0
3.07979988178886E-08,-2.03862655325793E-05,0.703125,0,0
-4.52689363328318E-07,-1.94435779121704E-05,0.703125,0,0
2.29931652029336E-06,-1.9557643099688E-05,0.703125,0,0
5.34472201252356E-06,-1.9595803678385E-05,0.703125,0,0
5.00903206557268E-06,-1.78621103259502E-05,0.703125,0,0
3.53095629179734E-06,-1.62042415468022E-05,0.703125,0,0
2.45916385210876E-06,-1.42820417750045E-05,0.703125,0,0
1.0148409046451E-06,-1.4239076335798E-05,0.703125,0,0
-1.20613094622968E-06,-1.32643244796782E-05,0.703125,0,0
-1.84911698397627E-06,-1.44232699312852E-05,0.703125,0,0
-8.81104313066317E-07,-1.44682917380123E-05,0.703125,0,0
-7.17843491315762E-08,-1.41192967930692E-05,0.703125,0,0
-1.74901276750461E-06,-1.221878483193E-05,0.703125,0,0
-3.10141149384435E-06,-1.27525145217078E-05,0.703125,0,0
-2.6346799586463E-06,-1.13180822154391E-05,0.703125,0,0
-1.61224033945473E-06,-9.95279242488323E-06,0.703125,0,0
-2.0550637600536E-06,-9.24194409890333E-06,0.703125,0,0
-1.78339018930274E-06,-9.74449994828319E-06,0.703125,0,0
1.09685565519158E-07,-1.17562149171135E-05,0.703125,0,0
2.29649640459684E-06,-1.4110889424046E-05,0.703125,0,0
2.4485257199558E-06,-1.43082934300764E-05,0.703125,0,0
2.03806280296703E-06,-2.39867458731169E-05,0.703125,0,0
-3.31132042674653E-07,-2.27443506446434E-05,0.703125,0,0
1.42955002502276E-06,-2.56765633821487E-05,0.703125,0,0
2.12884424399817E-06,-2.26018746616319E-05,0.703125,0,0
1.54680583364097E-06,-2.42432688537519E-05,0.703125,0,0
-4.58651697954338E-07,-2.26722386287292E-05,0.703125,0,0
1.05495757907192E-07,-2.41760408243863E-05,0.703125,0,0
1.63193340085854E-06,-2.48734286287799E-05,0.703125,0,0
2.15602108255553E-06,-2.43912381847622E-05,0.703125,0,0
1.45348599289719E-06,-2.22990383917931E-05,0.703125,0,0
3.31188743984967E-07,-1.97377976292046E-05,0.703125,0,0
5.61591434689035E-07,-1.9052760762861E-05,0.703125,0,0
1.38860241349903E-06,-1.78186019184068E-05,0.703125,0,0
2.48207425102009E-06,-1.85136159416288E-05,0.703125,0,0
2.14727378988755E-06,-1.84584787348285E-05,0.703125,0,0
1.49203299315559E-06,-1.95096126844874E-05,0.703125,0,0
9.02665533430991E-07,-1.74625056388322E-05,0.703125,0,0
1.55113809796603E-06,-1.55802790686721E-05,0.703125,0,0
2.57022406913165E-06,-1.42578601298737E-05,0.703125,0,0
3.07687059830641E-06,-1.68473179655848E-05,0.703125,0,0
2.29039414989529E-06,-1.87022451427765E-05,0.703125,0,0
1.28590602344048E-06,-1.89720067282906E-05,0.703125,0,0
2.05504852601734E-06,-1.74754713953007E-05,0.703125,0,0
4.14658916270128E-06,-1.62812430062331E-05,0.703125,0,0
5.03182627653587E-06,-1.48151748362579E-05,0.703125,0,0
5.17856233273051E-06,-1.52978936966974E-05,0.703125,0,0
5.17648413733696E-06,-1.33410921989707E-05,0.703125,0,0
8.00746511231409E-06,-1.96242963284021E-05,0.703125,0,0
7.1958406806516E-06,-1.48990129673621E-05,0.703125,0,0
8.4206794781494E-06,-1.70176099345554E-05,0.703125,0,0
6.76473518979037E-06,-1.44529367389623E-05,0.703125,0,0
6.7774208218907E-06,-1.9114748283755E-05,0.703125,0,0
5.8501132116362E-06,-1.98338166228496E-05,0.703125,0,0
6.78956757838023E-06,-1.89340953511419E-05,0.703125,0,0
7.34161403670441E-06,-1.58863222168293E-05,0.703125,0,0
6.97792802384356E-06,-1.34751835503266E-05,0.703125,0,0
5.89273531659273E-06,-1.17459212560789E-05,0.703125,0,0
4.76993909614976E-06,-9.87068142421776E-06,0.703125,0,0
4.5019487515674E-06,-9.11725237529026E-06,0.703125,0,0
4.13052703152061E-06,-7.37714572096593E-06,0.703125,0,0
5.22879008713062E-06,-5.94380071561318E-06,0.703125,0,0
6.7523628786148E-06,-2.91176138489391E-06,0.703125,0,0
8.21340472612064E-06,-2.86507156488369E-06,0.703125,0,0
7.25134987078491E-06,-4.43868157162797E-06,0.703125,0,0
6.37088851362932E-06,-9.38931771088392E-06,0.703125,0,0
6.42592885924387E-06,-1.35055252030725E-05,0.703125,0,0
7.12527526047779E-06,-1.68283186212648E-05,0.703125,0,0
7.25644213162013E-06,-1.62654723681044E-05,0.703125,0,0
7.65768072596984E-06,-1.52604188770056E-05,0.703125,0,0
7.51876541471574E-06,-1.55216039274819E-05,0.703125,0,0
7.89133810030762E-06,-1.71055653481744E-05,0.703125,0,0
7.84052372182487E-06,-1.83947995537892E-05,0.703125,0,0
7.01876570019522E-06,-1.86450779438019E-05,0.703125,0,0
5.18202432431281E-06,-1.34824485940044E-05,0.703125,0,0
6.55557232676074E-06,-1.79709786607418E-05,0.703125,0,0
3.45626881426142E-06,-1.37725564854918E-05,0.703125,0,0
4.0732420529821E-06,-1.86296747415327E-05,0.703125,0,0
3.2414559427707E-06,-1.56318346853368E-05,0.703125,0,0
4.1272874113929E-06,-1.82250878424384E-05,0.703125,0,0
2.46960848926392E-06,-1.69910435943166E-05,0.703125,0,0
1.82306337137561E-06,-1.7746991943568E-05,0.703125,0,0
1.29380259750178E-06,-1.75407058122801E-05,0.703125,0,0
1.12429984255868E-06,-1.81328996404773E-05,0.703125,0,0
1.18020500394778E-06,-1.74277502082987E-05,0.703125,0,0
1.12562781851011E-06,-1.48292856465559E-05,0.703125,0,0
2.26639440370491E-06,-1.44318082675454E-05,0.703125,0,0
2.83952158497414E-06,-1.47252749229665E-05,0.703125,0,0
2.5533684038237E-06,-1.75913319253596E-05,0.703125,0,0
4.66998443471311E-07,-1.90298978850478E-05,0.703125,0,0
-7.30981298602273E-07,-2.09360823646421E-05,0.703125,0,0
-1.81757354766887E-06,-1.91313502000412E-05,0.703125,0,0
-1.70933708432131E-06,-1.90736391232349E-05,0.703125,0,0
-1.60855756803358E-06,-1.93824835150735E-05,0.703125,0,0
-1.02448075267603E-06,-2.08207311516162E-05,0.703125,0,0
-1.3534727258957E-06,-2.02324099518592E-05,0.703125,0,0
-2.17782780964626E-06,-2.00956055778079E-05,0.703125,0,0
-2.626779178172E-06,-1.96379605768016E-05,0.703125,0,0
-9.51427011841588E-07,-2.04434272745857E-05,0.703125,0,0
2.33606010624499E-06,-2.20909696508897E-05,0.703125,0,0
4.44340912508778E-06,-2.24805207835743E-05,0.703125,0,0
4.36302934758714E-06,-1.60646795848152E-05,0.703125,0,0
6.31708599030389E-06,-2.17850010812981E-05,0.703125,0,0
4.66468554805033E-06,-1.67591042554704E-05,0.703125,0,0
5.88284547120566E-06,-2.191033672716E-05,0.703125,0,0
5.71978034713538E-06,-1.66988793353084E-05,0.703125,0,0
7.36364336262341E-06,-1.76550893229432E-05,0.703125,0,0
8.77220008987933E-06,-1.65370365721174E-05,0.703125,0,0
9.82654728431953E-06,-1.81982959475135E-05,0.703125,0,0
9.08308265934465E-06,-1.60351137310499E-05,0.703125,0,0
8.97067184268963E-06,-1.50861524161883E-05,0.703125,0,0
1.01738933153683E-05,-1.68068891071016E-05,0.703125,0,0
1.11752442535362E-05,-1.89793172467034E-05,0.703125,0,0
1.12159523268929E-05,-2.05929081857903E-05,0.703125,0,0
9.33862065721769E-06,-1.79099733941257E-05,0.703125,0,0
7.70001315686386E-06,-1.60770487127593E-05,0.703125,0,0
7.2979751166713E-06,-1.34877909658826E-05,0.703125,0,0
7.90868489275454E-06,-1.44764926517382E-05,0.703125,0,0
6.88950558469514E-06,-1.36390799525543E-05,0.703125,0,0
6.28376437816769E-06,-1.3933090485807E-05,0.703125,0,0
6.89228454575641E-06,-1.26679833556409E-05,0.703125,0,0
7.24023084330838E-06,-1.27774710563244E-05,0.703125,0,0
4.71663133794209E-06,-1.29731806737254E-05,0.703125,0,0
2.36285109167511E-06,-1.55070065375185E-05,0.703125,0,0
2.44940383709036E-06,-1.64889934239909E-05,0.703125,0,0
4.15348449678277E-06,-1.71664614754263E-05,0.703125,0,0
3.99551800001063E-06,-1.8488275600248E-05,0.703125,0,0
2.55367240242776E-06,-2.04938623937778E-05,0.703125,0,0
8.16743295217748E-07,-1.59367718879366E-05,0.703125,0,0
-1.53049796836058E-07,-2.14515821426176E-05,0.703125,0,0
-2.03762283490505E-06,-1.57963550009299E-05,0.703125,0,0
-8.10088010894106E-07,-2.03828967642039E-05,0.703125,0,0
7.47879369100701E-07,-1.72164254763629E-05,0.703125,0,0
4.8644778871676E-07,-2.04677999136038E-05,0.703125,0,0
-8.04278442956274E-07,-1.85251374205109E-05,0.703125,0,0
-1.46669924561138E-06,-2.01347429538146E-05,0.703125,0,0
-1.82744702215132E-06,-1.96787295863032E-05,0.703125,0,0
-1.1667555099848E-06,-1.9056578821619E-05,0.703125,0,0
1.08381406960234E-07,-1.93951946130255E-05,0.703125,0,0
1.60506124302628E-06,-1.86294219020056E-05,0.703125,0,0
2.339721959288E-06,-1.87390178325586E-05,0.703125,0,0
2.49907839133812E-06,-1.70790553966071E-05,0.703125,0,0
2.21722416426928E-06,-1.75050208781613E-05,0.703125,0,0
1.11746976472205E-06,-1.69370559888193E-05,0.703125,0,0
-8.85240396542031E-08,-1.87850364454789E-05,0.703125,0,0
-1.26705219827272E-06,-1.87707100849366E-05,0.703125,0,0
-2.30083287533489E-06,-1.99115565919783E-05,0.703125,0,0
-2.89156423605164E-06,-1.91197577805724E-05,0.703125,0,0
-2.23639858631941E-06,-1.90760783880251E-05,0.703125,0,0
-1.75520392531325E-06,-1.73483604157809E-05,0.703125,0,0
-1.58564444063813E-06,-1.67513408086961E-05,0.703125,0,0
-4.74561772989546E-07,-1.71772790054092E-05,0.703125,0,0
1.55921054556529E-06,-1.81282211997313E-05,0.703125,0,0
2.96593566417869E-06,-1.63392433023546E-05,0.703125,0,0
2.47104003392451E-06,-1.44028626891668E-05,0.703125,0,0
2.78800314390537E-07,-1.26979230117286E-05,0.703125,0,0
1.18122322589898E-07,-1.95374923350755E-05,0.703125,0,0
8.04311355295795E-07,-1.60445488290861E-05,0.703125,0,0
2.11205747291388E-06,-1.83481679414399E-05,0.703125,0,0
1.4356338624566E-06,-1.691778015811E-05,0.703125,0,0
-7.86376574524184E-07,-1.97752287931507E-05,0.703125,0,0
-1.75958757608896E-06,-1.84250566235278E-05,0.703125,0,0
8.68361269112938E-07,-1.77138590515824E-05,0.703125,0,0
3.84083068638574E-06,-1.55730194819625E-05,0.703125,0,0
4.53261827715323E-06,-1.37581846502144E-05,0.703125,0,0
2.95359473057033E-06,-1.20848990263767E-05,0.703125,0,0
1.15921193355462E-06,-1.07574915091391E-05,0.703125,0,0
9.05484228042042E-07,-1.22596620713011E-05,0.703125,0,0
2.37934932556527E-06,-1.3085632417642E-05,0.703125,0,0
4.64867935079383E-06,-1.30023408928537E-05,0.703125,0,0
5.82172060603625E-06,-1.14614695121418E-05,0.703125,0,0
5.70061592952698E-06,-1.50892237797962E-05,0.703125,0,0
5.04114268551348E-06,-2.03840227186447E-05,0.703125,0,0
4.55969620816177E-06,-2.42429177887971E-05,0.703125,0,0
4.1231855902879E-06,-2.21532718569506E-05,0.703125,0,0
4.57258101960178E-06,-1.8629451005836E-05,0.703125,0,0
5.51479979549185E-06,-1.55772395373788E-05,0.703125,0,0
5.90624495089287E-06,-1.50829673657427E-05,0.703125,0,0
5.89090996072628E-06,-1.40755055326736E-05,0.703125,0,0
6.28867292107316E-06,-1.36140406539198E-05,0.703125,0,0
7.16481963536353E-06,-1.36448561534053E-05,0.703125,0,0
6.51712525723269E-06,-1.41263144541881E-05,0.703125,0,0
2.85407895717071E-06,-1.23955323942937E-05,0.703125,0,0
3.41280269822164E-06,-1.85243206942687E-05,0.703125,0,0
1.75563241100463E-06,-1.56493206304731E-05,0.703125,0,0
2.54885821959761E-06,-1.93122650671285E-05,0.703125,0,0
2.37210406339727E-06,-1.7150372514152E-05,0.703125,0,0
2.44916986957833E-06,-1.99579008040018E-05,0.703125,0,0
1.47014554841007E-06,-2.00974791368935E-05,0.703125,0,0
3.56900341103028E-06,-2.06714030355215E-05,0.703125,0,0
4.99384714203188E-06,-1.92166207853006E-05,0.703125,0,0
4.59640114058857E-06,-1.90307528100675E-05,0.703125,0,0
3.72129261450027E-06,-2.01405327970861E-05,0.703125,0,0
2.69637416749902E-06,-2.11139868042665E-05,0.703125,0,0
2.51155006480985E-06,-2.23894912778633E-05,0.703125,0,0
2.28328985940607E-06,-2.27528798859566E-05,0.703125,0,0
2.28166231863725E-06,-2.38168613577727E-05,0.703125,0,0
2.38757706938486E-06,-2.12397899304051E-05,0.703125,0,0
2.91661399387522E-06,-1.87436635314953E-05,0.703125,0,0
2.48208198172506E-06,-1.64950415637577E-05,0.703125,0,0
2.64489381152089E-06,-1.62125488714082E-05,0.703125,0,0
2.71330463874619E-06,-1.32200757434475E-05,0.703125,0,0
2.95205472866655E-06,-9.97924144030549E-06,0.703125,0,0
4.02512569053215E-06,-7.98449673311552E-06,0.703125,0,0
4.24967038270552E-06,-9.69132179307053E-06,0.703125,0,0
1.79701703473256E-06,-1.06295829027658E-05,0.703125,0,0
6.68183531615796E-07,-1.18372745419038E-05,0.703125,0,0
1.36092842240032E-06,-1.37893885039375E-05,0.703125,0,0
2.21622531171306E-06,-1.50631985889049E-05,0.703125,0,0
2.86256249637518E-06,-1.10298724393942E-05,0.703125,0,0
4.98069084642339E-06,-1.4753760297026E-05,0.703125,0,0
4.5636097638635E-06,-1.17486260933219E-05,0.703125,0,0
5.69631356484024E-06,-1.72215277416399E-05,0.703125,0,0
5.75348622078309E-06,-1.51155045386986E-05,0.703125,0,0
4.59625834992039E-06,-1.63432559929788E-05,0.703125,0,0
3.12418342218734E-06,-1.51884378283285E-05,0.703125,0,0
4.31689932156587E-06,-1.50265213960665E-05,0.703125,0,0
5.98214865021873E-06,-1.39241064971429E-05,0.703125,0,0
6.3562788454874E-06,-1.35558402689639E-05,0.703125,0,0
6.13640077062882E-06,-1.31837350636488E-05,0.703125,0,0
5.52494884686894E-06,-1.31374144984875E-05,0.703125,0,0
4.68525195174152E-06,-1.58485527208541E-05,0.703125,0,0
4.01454508391907E-06,-1.81311570486287E-05,0.703125,0,0
3.77867149836675E-06,-1.88167450687615E-05,0.703125,0,0
3.60257786269358E-06,-1.63574259204324E-05,0.703125,0,0
4.1156449697155E-06,-1.51645253936294E-05,0.703125,0,0
4.31316129834158E-06,-1.33722414830117E-05,0.703125,0,0
4.2110573303944E-06,-1.38081895784126E-05,0.703125,0,0
5.19205832461012E-06,-1.31184860947542E-05,0.703125,0,0
8.47150931804208E-06,-1.3011555893172E-05,0.703125,0,0
1.06039242382394E-05,-1.37392462420394E-05,0.703125,0,0
1.10265109469765E-05,-1.53020646393998E-05,0.703125,0,0
1.15719612949761E-05,-1.61342686624266E-05,0.703125,0,0
1.09586653707083E-05,-1.86485249287216E-05,0.703125,0,0
8.04685896582669E-06,-2.0214298274368E-05,0.703125,0,0
5.07696995555307E-06,-2.0657513232436E-05,0.703125,0,0
4.08477262681117E-06,-1.89306374522857E-05,0.703125,0,0
6.46131320536369E-06,-2.97835122182732E-05,0.703125,0,0
4.62248135590926E-06,-2.36973828577902E-05,0.703125,0,0
2.93463017442264E-06,-2.35284642258193E-05,0.703125,0,0
3.96390703372163E-07,-1.70793609868269E-05,0.703125,0,0
2.0899724404444E-06,-1.95067568711238E-05,0.703125,0,0
3.59049158760172E-06,-1.77808560692938E-05,0.703125,0,0
3.77315859623195E-06,-1.80089209607104E-05,0.703125,0,0
2.4091420982586E-06,-1.73298412846634E-05,0.703125,0,0
7.97609629898943E-07,-1.77755027834792E-05,0.703125,0,0
-8.57451084357308E-07,-1.76443427335471E-05,0.703125,0,0
-2.08150140679209E-06,-1.51553995237919E-05,0.703125,0,0
-1.96098631022323E-06,-1.41545342557947E-05,0.703125,0,0
-2.34173899116286E-06,-1.3661178854818E-05,0.703125,0,0
-3.9545911931782E-06,-1.51494696183363E-05,0.703125,0,0
-5.82044867769582E-06,-1.41550071930396E-05,0.703125,0,0
-5.42009411219624E-06,-1.55417947098613E-05,0.703125,0,0
-4.31741364081972E-06,-1.56760306708748E-05,0.703125,0,0
-2.87780244434543E-06,-1.63454624271253E-05,0.703125,0,0
-2.52645531872986E-06,-1.45018120747409E-05,0.703125,0,0
-2.17856518247572E-06,-1.47735991049558E-05,0.703125,0,0
-1.40644999646611E-06,-1.57854919962119E-05,0.703125,0,0
3.12139718516846E-07,-2.03728086489718E-05,0.703125,0,0
1.19430364975415E-06,-2.44301427301252E-05,0.703125,0,0
1.1575880307646E-06,-2.74832127615809E-05,0.703125,0,0
1.17125148335617E-06,-2.7989177397103E-05,0.703125,0,0
8.76699061791442E-07,-2.68379990302492E-05,0.703125,0,0
1.78073560164194E-06,-2.05435862881131E-05,0.703125,0,0
3.55521501660405E-06,-2.77891995210666E-05,0.703125,0,0
4.47038291895296E-06,-1.8131744582206E-05,0.703125,0,0
5.32240983375232E-06,-2.17334472836228E-05,0.703125,0,0
4.85063628730131E-06,-1.75488621607656E-05,0.703125,0,0
5.13876648255973E-06,-2.23850001930259E-05,0.703125,0,0
6.05883360549342E-06,-2.21633781620767E-05,0.703125,0,0
6.52608287055045E-06,-2.3620114006917E-05,0.703125,0,0
6.2234689721663E-06,-2.20701876969542E-05,0.703125,0,0
7.41593839848065E-06,-2.33438750001369E-05,0.703125,0,0
9.93649882730097E-06,-2.41067518800264E-05,0.703125,0,0
1.09148231786094E-05,-2.28859826165717E-05,0.703125,0,0
9.67636515269987E-06,-2.39381097344449E-05,0.703125,0,0
7.68424979469273E-06,-2.2279466065811E-05,0.703125,0,0
6.66871756038745E-06,-2.19513003685279E-05,0.703125,0,0
6.53029883324052E-06,-1.92506176972529E-05,0.703125,0,0
5.50477170691011E-06,-1.9012977645616E-05,0.703125,0,0
3.24452480526816E-06,-1.61562111316016E-05,0.703125,0,0
2.68623398369527E-06,-1.51271979120793E-05,0.703125,0,0
3.58036641046056E-06,-1.25488168123411E-05,0.703125,0,0
3.80278788725263E-06,-1.28982965179603E-05,0.703125,0,0
1.53449138906581E-06,-1.33530529637937E-05,0.703125,0,0
-2.33761625167972E-06,-1.48957451528986E-05,0.703125,0,0
-4.76600416732254E-06,-1.50373953147209E-05,0.703125,0,0
-5.07347613165621E-06,-1.64222637977218E-05,0.703125,0,0
-4.65219000034267E-06,-1.7897493307828E-05,0.703125,0,0
-3.99486543756211E-06,-1.79668240889441E-05,0.703125,0,0
-4.20604374085087E-06,-1.32391896841E-05,0.703125,0,0
-7.98598739493173E-06,-1.82128696906148E-05,0.703125,0,0
-7.92725222709123E-06,-1.52187476487597E-05,0.703125,0,0
-7.6128494583827E-06,-1.97527224372607E-05,0.703125,0,0
-5.4305378398567E-06,-1.45065678225365E-05,0.703125,0,0
-5.96592280999175E-06,-1.4715157703904E-05,0.87890625,0,0
-6.11337418376934E-06,-1.32877175929025E-05,0.87890625,0,0
-4.90931279273354E-06,-1.43355018735747E-05,0.87890625,0,0
-3.52301299244573E-06,-1.24708658404415E-05,0.87890625,0,0
-3.66357039638388E-06,-9.93686262518168E-06,0.87890625,0,0
-2.67726227320964E-06,-9.52568007051013E-06,0.87890625,0,0
-2.74154103863111E-07,-9.94089532468934E-06,0.87890625,0,0
8.40260440782004E-07,-1.22472511066007E-05,0.87890625,0,0
5.22662389812467E-07,-1.38463419716572E-05,0.87890625,0,0
-9.67974234100666E-09,-1.62032283697044E-05,0.87890625,0,0
2.11325095733628E-06,-1.60076961037703E-05,0.87890625,0,0
5.23230755788973E-06,-1.75923250935739E-05,0.87890625,0,0
7.04752437741263E-06,-1.71100000443403E-05,0.87890625,0,0
5.78132767259376E-06,-1.69561535585672E-05,0.87890625,0,0
3.86013016395736E-06,-1.57088707055664E-05,0.87890625,0,0
3.58093120667036E-06,-1.63974709721515E-05,0.87890625,0,0
4.58781960332999E-06,-1.62511460075621E-05,0.87890625,0,0
4.68991356683546E-06,-1.67951820913004E-05,0.87890625,0,0
4.8090259952005E-06,-1.74735814653104E-05,0.87890625,0,0
4.49831941295997E-06,-1.73968419403536E-05,0.87890625,0,0
4.96061829835526E-06,-1.58233578986255E-05,0.87890625,0,0
6.44250849290984E-06,-1.54096214828314E-05,0.87890625,0,0
4.19335174228763E-06,-1.45759904626175E-05,0.87890625,0,0
3.13321038447612E-06,-2.14851770579116E-05,0.87890625,0,0
-6.66032804019778E-07,-1.65581659530289E-05,0.87890625,0,0
2.97711790153699E-06,-1.91139351954916E-05,0.87890625,0,0
5.57262228539912E-06,-1.51138192450162E-05,0.87890625,0,0
9.05185424926458E-06,-1.55819416249869E-05,0.87890625,0,0
9.7721558631747E-06,-1.32213644974399E-05,0.87890625,0,0
1.18184643724817E-05,-1.41088712553028E-05,0.87890625,0,0
1.27333942145924E-05,-1.41315249493346E-05,0.87890625,0,0
1.29673408082454E-05,-1.43929655678221E-05,0.87890625,0,0
1.29310492411605E-05,-1.41722621265217E-05,0.87890625,0,0
1.17211748147383E-05,-1.30719154185499E-05,0.87890625,0,0
1.14417671284173E-05,-1.4336666026793E-05,0.87890625,0,0
1.18568123070872E-05,-1.52320626511937E-05,0.87890625,0,0
1.28645915538073E-05,-1.60643885465106E-05,0.87890625,0,0
1.25882970678504E-05,-1.38834211611538E-05,0.87890625,0,0
1.25879978440935E-05,-1.39294133987278E-05,0.87890625,0,0
1.22665505841724E-05,-1.404843533237E-05,0.87890625,0,0
1.22860401461367E-05,-1.56548157974612E-05,0.87890625,0,0
1.10034034150885E-05,-1.51680587805458E-05,0.87890625,0,0
9.79181277216412E-06,-1.4985230336606E-05,0.87890625,0,0
8.12806774774799E-06,-1.38849254653906E-05,0.87890625,0,0
6.09524204264744E-06,-1.55011512106285E-05,0.87890625,0,0
3.65537880497868E-06,-1.78788122866536E-05,0.87890625,0,0
2.46207378040708E-06,-1.86098895937903E-05,0.87890625,0,0
1.27134967442544E-06,-1.66930731211323E-05,0.87890625,0,0
1.91768165791473E-07,-1.47367427416611E-05,0.87890625,0,0
-6.68793518343591E-07,-1.17251183837652E-05,0.87890625,0,0
-1.5046507542138E-06,-1.74147535290103E-05,0.87890625,0,0
-1.99705800696393E-06,-1.49844963743817E-05,0.87890625,0,0
-3.37387541549106E-06,-1.83686752279755E-05,0.87890625,0,0
-4.71594285045285E-06,-1.51968588397722E-05,0.87890625,0,0
-5.20598950970452E-06,-1.68197821039939E-05,0.87890625,0,0
-4.32236174674472E-06,-1.58951024786802E-05,0.87890625,0,0
-3.47901686836849E-06,-1.67825710377656E-05,0.87890625,0,0
-3.38822314915888E-06,-1.62905107572442E-05,0.87890625,0,0
-3.05860976368422E-06,-1.51667245518183E-05,0.87890625,0,0
-2.51023061537126E-06,-1.50300293171313E-05,0.87890625,0,0
-2.32646152653615E-06,-1.47058663060307E-05,0.87890625,0,0
-2.00338990907767E-06,-1.58220373123186E-05,0.87890625,0,0
-5.51526284198189E-07,-1.66181853273883E-05,0.87890625,0,0
6.72355611186504E-07,-1.83485408342676E-05,0.87890625,0,0
8.3397395655993E-07,-1.83969987119781E-05,0.87890625,0,0
4.61629070969138E-07,-2.04075568035478E-05,0.87890625,0,0
1.78228262370794E-07,-2.20066940528341E-05,0.87890625,0,0
-6.30850422567164E-07,-2.27478958549909E-05,0.87890625,0,0
-2.15299655792478E-06,-2.0551113266265E-05,0.87890625,0,0
-2.69797487817414E-06,-1.98091729544103E-05,0.87890625,0,0
-1.30204739434703E-06,-1.90494120033691E-05,0.87890625,0,0
3.30969214701327E-07,-1.81370614882326E-05,0.87890625,0,0
7.92300198781959E-08,-1.72232375916792E-05,0.87890625,0,0
-4.54901282864739E-07,-1.77268721017754E-05,0.87890625,0,0
4.25313658070081E-07,-1.70545190485427E-05,0.87890625,0,0
1.16543480999098E-06,-1.62471806106623E-05,0.87890625,0,0
1.22253504741821E-06,-1.29349264170742E-05,0.87890625,0,0
2.79662276625459E-06,-1.83838346856646E-05,0.87890625,0,0
3.73712600776344E-06,-1.38842960950569E-05,0.87890625,0,0
4.659953447117E-06,-1.66455756698269E-05,0.87890625,0,0
2.91622495751653E-06,-1.51417752931593E-05,0.87890625,0,0
3.98946554014401E-07,-1.84500477189431E-05,0.87890625,0,0
1.96177580846779E-08,-1.65386300068349E-05,0.87890625,0,0
7.17822103979415E-07,-1.73987318703439E-05,0.87890625,0,0
9.30000567223033E-07,-1.80509396159323E-05,0.87890625,0,0
5.41326983238832E-07,-1.95694865396945E-05,0.87890625,0,0
4.2311521042393E-07,-1.94153490156168E-05,0.87890625,0,0
5.86684734571463E-07,-1.73933531186776E-05,0.87890625,0,0
9.0064270352741E-07,-1.66190056916093E-05,0.87890625,0,0
1.38549364692153E-06,-1.63007571245544E-05,0.87890625,0,0
1.21472953651391E-06,-1.91659055417404E-05,0.87890625,0,0
4.13131402865474E-07,-2.05695359909441E-05,0.87890625,0,0
6.55713563446625E-07,-2.12576633202843E-05,0.87890625,0,0
1.81664915999136E-06,-1.88552767212968E-05,0.87890625,0,0
2.17925571632804E-06,-1.91797626030166E-05,0.87890625,0,0
1.27364285162912E-06,-1.96401524590328E-05,0.87890625,0,0
-2.53457699272985E-07,-2.11746664717793E-05,0.87890625,0,0
-1.02606259133609E-06,-2.08799119718606E-05,0.87890625,0,0
-2.76429204859596E-07,-2.0489766029641E-05,0.87890625,0,0
7.84530357123003E-07,-1.92670195247047E-05,0.87890625,0,0
1.976550265681E-06,-1.89294551091734E-05,0.87890625,0,0
3.21176116813149E-06,-1.8368731616647E-05,0.87890625,0,0
4.36366417488898E-06,-1.77642868948169E-05,0.87890625,0,0
3.93457457903423E-06,-1.42961671372177E-05,0.87890625,0,0
5.75770718569402E-06,-1.93968317034887E-05,0.87890625,0,0
5.21290894539561E-06,-1.40263873618096E-05,0.87890625,0,0
7.95584855950437E-06,-1.64561060955748E-05,0.87890625,0,0
9.98566611087881E-06,-1.04530590760987E-05,0.87890625,0,0
1.21807515824912E-05,-1.31192837216076E-05,0.87890625,0,0
1.07728283182951E-05,-1.4695167010359E-05,0.87890625,0,0
1.02610920293955E-05,-1.80898077815073E-05,0.87890625,0,0
9.06327932170825E-06,-1.91905619431054E-05,0.87890625,0,0
8.86924863152672E-06,-1.99218611669494E-05,0.87890625,0,0
1.03755892268964E-05,-2.01096518139821E-05,0.87890625,0,0
1.23834797705058E-05,-1.82441945071332E-05,0.87890625,0,0
1.40457896122825E-05,-1.74561719177291E-05,0.87890625,0,0
1.34691572384327E-05,-1.56257829075912E-05,0.87890625,0,0
1.16247047117213E-05,-1.59966730279848E-05,0.87890625,0,0
8.574478670198E-06,-1.60206618602388E-05,0.87890625,0,0
8.11471363704186E-06,-1.80154747795314E-05,0.87890625,0,0
8.87565965967951E-06,-1.74174438143382E-05,0.87890625,0,0
8.87851911102189E-06,-1.80646929948125E-05,0.87890625,0,0
6.68061602482339E-06,-1.78656664502341E-05,0.87890625,0,0
5.30168381374097E-06,-1.85692988452502E-05,0.87890625,0,0
5.12454789713956E-06,-1.81653376785107E-05,0.87890625,0,0
4.90903221361805E-06,-1.81466875801561E-05,0.87890625,0,0
2.91984792966105E-06,-1.78834034159081E-05,0.87890625,0,0
1.41716714097129E-06,-1.9481831259327E-05,0.87890625,0,0
2.0840586785198E-06,-1.98790148715489E-05,0.87890625,0,0
2.55230770562775E-06,-1.86740344361169E-05,0.87890625,0,0
6.8282787424323E-07,-1.53920555021614E-05,0.87890625,0,0
-8.74823399499292E-07,-2.23853767238325E-05,0.87890625,0,0
-2.44018315243011E-06,-1.79439939529402E-05,0.87890625,0,0
-1.08368146811699E-06,-2.20904257730581E-05,0.87890625,0,0
6.83631128595152E-07,-1.95639113371726E-05,0.87890625,0,0
2.34847561841889E-06,-2.29525667236885E-05,0.87890625,0,0
2.21699451685708E-06,-2.20656365854666E-05,0.87890625,0,0
3.1438621590496E-06,-2.24690666073002E-05,0.87890625,0,0
3.64761899618316E-06,-2.16458283830434E-05,0.87890625,0,0
3.11281337417313E-06,-2.30108380492311E-05,0.87890625,0,0
2.09173299481336E-06,-2.39528126257937E-05,0.87890625,0,0
1.05031165276159E-06,-2.17381639231462E-05,0.87890625,0,0
5.6982537444128E-07,-2.03415565920295E-05,0.87890625,0,0
6.34154105227935E-07,-1.92481002159184E-05,0.87890625,0,0
1.41974282996671E-06,-1.97940462385304E-05,0.87890625,0,0
1.31444608086895E-06,-1.8557015209808E-05,0.87890625,0,0
5.37694177182857E-07,-1.94256390386727E-05,0.87890625,0,0
-2.03709205948144E-07,-1.87443420145428E-05,0.87890625,0,0
7.03048385730654E-07,-1.93555479199858E-05,0.87890625,0,0
2.3633474484086E-06,-1.82305884663947E-05,0.87890625,0,0
3.38366862706607E-06,-1.84471991815371E-05,0.87890625,0,0
2.92067397822393E-06,-1.82887652044883E-05,0.87890625,0,0
3.25288510794053E-06,-1.97847803065088E-05,0.87890625,0,0
5.79029983782675E-06,-2.01448965526652E-05,0.87890625,0,0
7.72386101743905E-06,-1.98462912521791E-05,0.87890625,0,0
6.39615382169723E-06,-1.88298581633717E-05,0.87890625,0,0
4.8634010454407E-06,-1.81466275535058E-05,0.87890625,0,0
4.08015512221027E-06,-1.4577108231606E-05,0.87890625,0,0
6.33588115306338E-06,-2.00382964976598E-05,0.87890625,0,0
5.3102444326214E-06,-1.58503335114801E-05,0.87890625,0,0
6.05675631959457E-06,-2.17280339711579E-05,0.87890625,0,0
3.78697814085172E-06,-1.84911568794632E-05,0.87890625,0,0
3.80322012460965E-06,-1.94745371118188E-05,0.87890625,0,0
3.66105336979672E-06,-1.77031033672392E-05,0.87890625,0,0
2.0444083475013E-06,-1.79142916749697E-05,1.58203125,0,0
4.32839271979901E-07,-1.56863334268564E-05,1.58203125,0,0
2.41656465505002E-07,-1.44616697070887E-05,1.58203125,0,0
6.59619445286808E-07,-1.39593112180592E-05,1.58203125,0,0
8.39334404645342E-07,-1.24472471725312E-05,1.58203125,0,0
2.62874550571723E-06,-1.3459665751725E-05,1.58203125,0,0
4.53395614385954E-06,-1.3762199159828E-05,1.58203125,0,0
4.62198477180209E-06,-1.41642094604322E-05,1.58203125,0,0
2.88293222183711E-06,-1.19277738122037E-05,1.58203125,0,0
2.28043381866883E-06,-1.14081740321126E-05,1.58203125,0,0
2.96661710308399E-06,-1.01933082987671E-05,1.58203125,0,0
3.57836825060076E-06,-1.13006080937339E-05,1.58203125,0,0
2.72977740678471E-06,-1.09570555650862E-05,1.58203125,0,0
1.67200619216601E-06,-1.12417701529921E-05,1.58203125,0,0
7.92000662386272E-07,-9.86913255474065E-06,1.58203125,0,0
1.91011304195854E-06,-9.47926218941575E-06,1.58203125,0,0
3.33067032443068E-06,-9.15797863854095E-06,1.58203125,0,0
2.38357006310252E-06,-1.0155733434658E-05,1.58203125,0,0
6.40175755961536E-07,-1.09521834019688E-05,1.58203125,0,0
6.85708812397934E-07,-1.08489703052328E-05,1.58203125,0,0
6.8082550797044E-07,-9.00296072359197E-06,1.58203125,0,0
9.68402673606761E-07,-1.367582626699E-05,1.58203125,0,0
9.8893872291228E-07,-1.20985887406277E-05,1.58203125,0,0
1.54030408339167E-06,-1.41732271004003E-05,1.58203125,0,0
9.88643932942068E-07,-1.24048647194286E-05,1.58203125,0,0
-7.46243983940076E-07,-1.44337100209668E-05,1.58203125,0,0
-3.38941413247085E-06,-1.22477085824357E-05,1.58203125,0,0
-5.47703621123219E-06,-1.27113125927281E-05,1.58203125,0,0
-5.9879562286369E-06,-1.43407733048662E-05,1.58203125,0,0
-4.81788720207987E-06,-1.54096142068738E-05,1.58203125,0,0
-4.01295210394892E-06,-1.53330965986243E-05,1.58203125,0,0
-3.38342624672805E-06,-1.45328640428488E-05,1.58203125,0,0
-2.06657659873599E-06,-1.58792390720919E-05,1.58203125,0,0
-9.90519765764475E-07,-1.63972563314019E-05,1.58203125,0,0
-3.84251279683667E-07,-1.72758900589542E-05,1.58203125,0,0
5.048142384112E-07,-1.67470061569475E-05,1.58203125,0,0
1.2711726640191E-06,-1.75336845131824E-05,1.58203125,0,0
6.80459663726651E-07,-1.87059868039796E-05,1.58203125,0,0
2.67723407887388E-07,-2.08478613785701E-05,1.58203125,0,0
1.03555134955968E-06,-2.06169715966098E-05,1.58203125,0,0
3.06991819343239E-06,-1.97350418602582E-05,1.58203125,0,0
4.68576990897418E-06,-1.77097663254244E-05,1.58203125,0,0
4.83716758026276E-06,-1.64154953381512E-05,1.58203125,0,0
4.55517556474661E-06,-1.64485863933805E-05,1.58203125,0,0
4.45400610260549E-06,-1.84549844561843E-05,1.58203125,0,0
3.96250834455714E-06,-2.08965266210726E-05,1.58203125,0,0
3.63133767677937E-06,-2.22230155486614E-05,1.58203125,0,0
3.53115206053189E-06,-1.69934592122445E-05,1.58203125,0,0
5.69713347431389E-06,-2.38221018662443E-05,1.58203125,0,0
3.89558545066393E-06,-1.87208079296397E-05,1.58203125,0,0
3.60161971002526E-06,-2.33616392506519E-05,1.58203125,0,0
4.24643303631456E-06,-1.85582484846236E-05,1.58203125,0,0
7.27057658878039E-06,-2.10034759220434E-05,1.58203125,0,0
8.20797049527755E-06,-1.93573159776861E-05,1.58203125,0,0
8.50643391459016E-06,-2.04850166483084E-05,1.58203125,0,0
8.39296171761816E-06,-1.77443853317527E-05,1.58203125,0,0
6.79761615174357E-06,-1.60102863446809E-05,1.58203125,0,0
5.08123184772558E-06,-1.62103897309862E-05,1.58203125,0,0
4.01118450099602E-06,-1.5185170013865E-05,1.58203125,0,0
3.40992846759036E-06,-1.47546625157702E-05,1.58203125,0,0
3.42179623658012E-06,-1.28381998365512E-05,1.58203125,0,0
4.04314641855308E-06,-1.36921098601306E-05,1.58203125,0,0
3.76707362192974E-06,-1.36218332045246E-05,1.58203125,0,0
2.67969608103158E-06,-1.57170034071896E-05,1.58203125,0,0
1.28884028072207E-06,-1.48629851537407E-05,1.58203125,0,0
1.46885190588364E-06,-1.51586464198772E-05,1.58203125,0,0
2.12491841011797E-06,-1.50762516568648E-05,1.58203125,0,0
2.17088927456643E-06,-1.75868499354692E-05,1.58203125,0,0
1.11205633857026E-06,-1.78582158696372E-05,1.58203125,0,0
6.07228059834597E-07,-1.85785647772718E-05,1.58203125,0,0
8.01043597675744E-07,-1.87183359230403E-05,1.58203125,0,0
-5.44567555493813E-08,-1.97960926016094E-05,1.58203125,0,0
-2.57912756751466E-06,-1.98066354641924E-05,1.58203125,0,0
-2.93109565063787E-06,-1.90247010323219E-05,1.58203125,0,0
-2.62399794337398E-07,-1.68913629750023E-05,1.58203125,0,0
-4.18592582818178E-09,-2.51688088610535E-05,1.58203125,0,0
-7.21799835901038E-07,-2.02712471946143E-05,1.58203125,0,0
-2.16914850170724E-06,-2.31410722335568E-05,1.58203125,0,0
-2.20279434870463E-06,-1.77429719769862E-05,1.58203125,0,0
-2.10311827686382E-06,-1.90826904145069E-05,1.58203125,0,0
-8.9017112259171E-07,-1.94577314687194E-05,1.58203125,0,0
4.32525752103174E-07,-2.18086152017349E-05,1.58203125,0,0
1.64915536515764E-06,-1.9295630409033E-05,1.58203125,0,0
2.47847788159561E-06,-1.88650847121608E-05,1.58203125,0,0
4.24478139393614E-06,-2.04019343073014E-05,1.58203125,0,0
6.73803742756718E-06,-2.03537092602346E-05,1.58203125,0,0
6.7970427153341E-06,-2.03849049285054E-05,1.58203125,0,0
4.86194539917051E-06,-1.86371107702143E-05,1.58203125,0,0
5.5562218221894E-06,-1.75899804162327E-05,1.58203125,0,0
9.53267863224028E-06,-1.36515154736117E-05,1.58203125,0,0
1.15106186058256E-05,-1.25030073832022E-05,1.58203125,0,0
1.00565530374297E-05,-1.23453501146287E-05,1.58203125,0,0
8.54598238220206E-06,-1.53964192577405E-05,1.58203125,0,0
9.57554129854543E-06,-1.60478411999065E-05,1.58203125,0,0
1.15166003524791E-05,-1.67182352015516E-05,1.58203125,0,0
1.08879130493733E-05,-1.59612209245097E-05,1.58203125,0,0
8.67930884851376E-06,-1.66973495652201E-05,1.58203125,0,0
9.07753383216914E-06,-1.59932133101393E-05,1.58203125,0,0
1.09515221993206E-05,-1.44004270623554E-05,1.58203125,0,0
1.06859797597281E-05,-1.26606710182386E-05,1.58203125,0,0
7.96041422290728E-06,-1.27902821986936E-05,1.58203125,0,0
5.83536575504695E-06,-9.95870686892886E-06,1.58203125,0,0
8.86534780875081E-06,-1.35817726913956E-05,1.58203125,0,0
7.59462045607506E-06,-1.12861398520181E-05,1.58203125,0,0
1.01138057289063E-05,-1.6130177755258E-05,1.58203125,0,0
9.10461585590383E-06,-1.49053958011791E-05,1.58203125,0,0
8.64148569235113E-06,-1.60375129780732E-05,1.58203125,0,0
6.54506038699765E-06,-1.4187125088938E-05,1.58203125,0,0
5.2470177251962E-06,-1.39656876854133E-05,1.58203125,0,0
4.34306593888323E-06,-1.18541975098196E-05,1.58203125,0,0
4.37722701462917E-06,-1.08935391835985E-05,1.58203125,0,0
3.97490703107906E-06,-1.16840292321285E-05,1.58203125,0,0
3.42195244229515E-06,-1.29333784570917E-05,1.58203125,0,0
4.86651970277308E-06,-1.54587996803457E-05,1.58203125,0,0
6.35187689113081E-06,-1.54127355926903E-05,1.58203125,0,0
6.36858158031828E-06,-1.36871631184476E-05,1.58203125,0,0
4.24546897193068E-06,-1.06874449556926E-05,1.58203125,0,0
2.94146684609586E-06,-1.20232052722713E-05,1.58203125,0,0
2.95821837426047E-06,-1.35541004055995E-05,1.58203125,0,0
4.74050966658979E-06,-1.50270807353081E-05,1.58203125,0,0
5.12197084390209E-06,-1.53384971781634E-05,1.58203125,0,0
5.02823104397976E-06,-1.69643080880633E-05,1.58203125,0,0
3.93052732761134E-06,-1.73246444319375E-05,1.58203125,0,0
3.26484860124765E-06,-1.66488134709653E-05,1.58203125,0,0
3.27640850628086E-06,-1.66183635883499E-05,1.58203125,0,0
3.25692917613196E-06,-1.90946593647823E-05,1.58203125,0,0
3.10024006466847E-06,-2.13537132367492E-05,1.58203125,0,0
2.65630887952284E-06,-2.15654290514067E-05,1.58203125,0,0
1.50909966123436E-06,-1.59306782734348E-05,1.58203125,0,0
2.380171281402E-06,-2.21145874093054E-05,1.58203125,0,0
2.90121420221112E-06,-1.5606890883646E-05,1.58203125,0,0
3.62838886758254E-06,-1.91959552466869E-05,1.58203125,0,0
3.15264583150565E-06,-1.70803814398823E-05,1.58203125,0,0
3.16980413117562E-06,-2.08860601560446E-05,1.58203125,0,0
2.39266682910966E-06,-2.08598339668242E-05,1.58203125,0,0
2.10030884773005E-06,-2.26581923925551E-05,1.58203125,0,0
1.69802626714954E-06,-2.15118107007584E-05,1.58203125,0,0
1.41530028940906E-06,-2.22414037125418E-05,1.58203125,0,0
3.1034520020512E-07,-2.26558549911715E-05,1.58203125,0,0
-8.07183880624507E-07,-2.15398085856577E-05,1.58203125,0,0
-1.93349706023582E-06,-2.21419559238711E-05,1.58203125,0,0
-4.38812912761932E-06,-2.24639425141504E-05,1.58203125,0,0
-5.58045439902344E-06,-2.39115270233015E-05,1.58203125,0,0
-5.04878789797658E-06,-2.27836462727282E-05,1.58203125,0,0
-3.92440369978431E-06,-2.3703101760475E-05,1.58203125,0,0
-3.6543628993968E-06,-2.23592651309446E-05,1.58203125,0,0
-3.56854366145853E-06,-2.18162804230815E-05,1.58203125,0,0
-2.95507857117627E-06,-1.97893859876785E-05,1.58203125,0,0
-7.61025887641154E-07,-2.07796692848206E-05,1.58203125,0,0
3.28186359865867E-07,-2.2520694983541E-05,1.58203125,0,0
1.67267700135199E-07,-2.28002190851839E-05,1.58203125,0,0
3.7214090298221E-07,-2.01003731490346E-05,1.58203125,0,0
1.67491157299082E-06,-1.93882624444086E-05,1.58203125,0,0
2.56614271165745E-06,-1.82391486305278E-05,1.58203125,0,0
1.88352191798913E-06,-1.68084316101158E-05,1.58203125,0,0
1.49655591030751E-06,-1.26881468531792E-05,1.58203125,0,0
2.39245832744928E-06,-1.84971268026857E-05,1.58203125,0,0
2.25669919018401E-06,-1.51373214976047E-05,1.58203125,0,0
2.21053824134287E-06,-1.91998369700741E-05,1.58203125,0,0
2.40655879224505E-07,-1.718987186905E-05,1.58203125,0,0
-7.7028266787238E-07,-1.85864118975587E-05,1.58203125,0,0
-9.25814504171285E-07,-1.75146815308835E-05,1.58203125,0,0
-7.17632644864352E-07,-1.91576345969224E-05,1.58203125,0,0
-1.14579984256125E-06,-1.84517684829189E-05,1.58203125,0,0
-9.31282386318344E-07,-1.73997232195688E-05,1.58203125,0,0
8.82583435668494E-07,-1.64120247063693E-05,1.58203125,0,0
2.05769720196258E-06,-1.44543701026123E-05,1.58203125,0,0
1.47777041092922E-06,-1.41307509693434E-05,1.58203125,0,0
-6.22102390934742E-07,-1.402967973263E-05,1.58203125,0,0
-1.59118008014048E-06,-1.49410661833826E-05,1.58203125,0,0
-1.10116513951652E-06,-1.38471687023412E-05,1.58203125,0,0
-6.49580954359408E-07,-1.44549294418539E-05,1.58203125,0,0
-1.10027292521409E-06,-1.38684754347196E-05,1.58203125,0,0
-1.14738782031054E-06,-1.50780051626498E-05,1.58203125,0,0
-4.47291682803552E-07,-1.54348545038374E-05,1.58203125,0,0
5.5430058409911E-07,-1.63100849022157E-05,1.58203125,0,0
1.00477632258844E-06,-1.65502278832719E-05,1.58203125,0,0
1.03202978607442E-06,-1.68910519278143E-05,1.58203125,0,0
1.1366560102033E-06,-1.62118794833077E-05,1.58203125,0,0
1.13298688120267E-06,-1.63163822435308E-05,1.58203125,0,0
1.9812807749986E-06,-1.62377509695943E-05,1.58203125,0,0
4.12211738876067E-06,-1.56925634655636E-05,1.58203125,0,0
4.48572882305598E-06,-1.18521757030976E-05,1.58203125,0,0
5.86665328228264E-06,-1.68293354363414E-05,1.58203125,0,0
1.81970733592607E-06,-1.37229608299094E-05,1.58203125,0,0
2.47480500092934E-07,-1.76516387000447E-05,1.58203125,0,0
5.60198216703611E-08,-1.42758972287993E-05,1.58203125,0,0
2.60442470789712E-06,-1.53453529492253E-05,1.58203125,0,0
1.52892641835933E-06,-1.56657206389355E-05,1.58203125,0,0
-3.58219622853539E-08,-1.67454090842512E-05,1.58203125,0,0
-1.21332493563386E-06,-1.46278307511238E-05,1.58203125,0,0
-1.16193257326813E-06,-1.50925807247404E-05,1.58203125,0,0
-6.92130015522707E-07,-1.75183649844257E-05,1.58203125,0,0
2.32793240684259E-07,-1.83491611096542E-05,1.58203125,0,0
2.20374568016268E-06,-1.81967370735947E-05,1.58203125,0,0
2.99200632980501E-06,-1.66970366990427E-05,1.58203125,0,0
2.69456768364762E-06,-1.68234364537057E-05,1.58203125,0,0
1.4381796518137E-06,-1.64330795087153E-05,1.58203125,0,0
1.86615102393262E-06,-1.82349358510692E-05,1.58203125,0,0
3.66401013707218E-06,-1.77070578502025E-05,1.58203125,0,0
5.68665609534946E-06,-1.71219762705732E-05,1.58203125,0,0
5.39261964149773E-06,-1.69352169905324E-05,1.58203125,0,0
4.23063511334476E-06,-1.87580262718257E-05,1.58203125,0,0
3.29904332829756E-06,-1.88867707038298E-05,1.58203125,0,0
3.49750303030305E-06,-2.00725808099378E-05,1.58203125,0,0
3.19289461003791E-06,-2.18300028791418E-05,1.58203125,0,0
4.0795021050144E-06,-2.35010320466245E-05,1.58203125,0,0
5.00361011290806E-06,-2.29180386668304E-05,1.58203125,0,0
4.01101397073944E-06,-2.0941080947523E-05,1.58203125,0,0
2.04652451429865E-06,-1.5252451703418E-05,1.58203125,0,0
3.95221240978572E-06,-2.0617608242901E-05,1.58203125,0,0
6.01805686528678E-06,-1.39835392474197E-05,1.58203125,0,0
7.34747072783648E-06,-1.77284782694187E-05,1.58203125,0,0
4.89361946165445E-06,-1.48685912790825E-05,1.58203125,0,0
2.56076395999116E-06,-1.83538068085909E-05,1.58203125,0,0
1.88035676274012E-06,-1.81155301106628E-05,1.58203125,0,0
4.39942550656269E-06,-1.92813749890774E-05,1.58203125,0,0
5.38474660061183E-06,-1.88658777915407E-05,1.58203125,0,0
5.26126450495212E-06,-1.85341996257193E-05,1.58203125,0,0
4.27528220825479E-06,-1.77808487933362E-05,1.58203125,0,0
2.63745846496022E-06,-1.72920554177836E-05,1.58203125,0,0
2.0639895410568E-06,-1.96694036276313E-05,1.58203125,0,0
2.24663381231949E-06,-1.94220992852934E-05,1.58203125,0,0
3.12397696689004E-06,-1.7837674022303E-05,1.58203125,0,0
4.2910855881928E-06,-1.39266412588768E-05,1.58203125,0,0
5.81524909648579E-06,-1.29422251120559E-05,1.58203125,0,0
6.33082390777417E-06,-1.07151490738033E-05,1.58203125,0,0
6.06018966209376E-06,-1.03333313745679E-05,1.58203125,0,0
4.76683999295346E-06,-9.898451025947E-06,1.58203125,0,0
3.77019182451477E-06,-1.21193788800156E-05,1.58203125,0,0
3.92770698454115E-06,-1.36989128804998E-05,1.58203125,0,0
5.11740063302568E-06,-1.5098882613529E-05,1.58203125,0,0
4.65410857941606E-06,-1.53287892317167E-05,1.58203125,0,0
3.73241596207663E-06,-1.54347089846851E-05,1.58203125,0,0
3.45794910572295E-06,-1.460940711695E-05,1.58203125,0,0
4.7577286750311E-06,-1.32254126583575E-05,1.58203125,0,0
4.21196045863326E-06,-1.05045419331873E-05,1.58203125,0,0
5.48250409337925E-06,-1.50103851410677E-05,1.58203125,0,0
3.54545954905916E-06,-1.35941108965199E-05,1.58203125,0,0
5.93986669628066E-06,-1.92255793081131E-05,1.58203125,0,0
6.71242833050201E-06,-1.72854488482699E-05,1.58203125,0,0
6.22593915977632E-06,-1.81495033757528E-05,1.58203125,0,0
3.75652189177345E-06,-1.69857066794066E-05,1.58203125,0,0
3.7644749681931E-06,-1.73620392160956E-05,1.58203125,0,0
3.63715184903413E-06,-1.65950405062176E-05,1.58203125,0,0
4.51218147645704E-06,-1.55338384502102E-05,1.58203125,0,0
6.25011807642295E-06,-1.48185299622128E-05,1.58203125,0,0
6.65208699501818E-06,-1.38774203151115E-05,1.58203125,0,0
5.32857575308299E-06,-1.47248574648984E-05,1.58203125,0,0
2.47772027250903E-06,-1.46093088915222E-05,1.58203125,0,0
1.12275608898926E-06,-1.49034067362663E-05,1.58203125,0,0
2.35277252613741E-06,-1.42449271152145E-05,1.58203125,0,0
5.32646072315401E-06,-1.42239732667804E-05,3.1640625,0,0
5.71342707189615E-06,-1.25291608128464E-05,3.1640625,0,0
4.62807520307251E-06,-1.25637607197859E-05,3.1640625,0,0
3.28136570715287E-06,-1.22909104902647E-05,3.1640625,0,0
3.20136746267963E-06,-1.2392646567605E-05,3.1640625,0,0
2.81500979326665E-06,-1.20248887469643E-05,3.1640625,0,0
2.22151993511943E-06,-1.36162598209921E-05,3.1640625,0,0
2.35193601838546E-06,-1.57872218551347E-05,3.1640625,0,0
2.59979560723878E-06,-1.70243456523167E-05,3.1640625,0,0
2.06665436053299E-06,-1.70190924109193E-05,3.1640625,0,0
3.0028015771677E-06,-1.83634238055674E-05,3.1640625,0,0
4.22971697844332E-06,-1.63309869094519E-05,3.1640625,0,0
7.56727740736096E-06,-2.17802080442198E-05,3.1640625,0,0
7.63186017138651E-06,-1.45835356306634E-05,3.1640625,0,0
7.88154738984304E-06,-1.83888823812595E-05,3.1640625,0,0
6.35342075838707E-06,-1.4776401258132E-05,3.1640625,0,0
6.54544464850915E-06,-1.74608212546445E-05,3.1640625,0,0
6.6753596001945E-06,-1.61897405632772E-05,3.1640625,0,0
7.69717917137314E-06,-1.76528574229451E-05,3.1640625,0,0
7.74822547100484E-06,-1.77039128175238E-05,3.1640625,0,0
8.27621261123568E-06,-1.86667202797253E-05,3.1640625,0,0
8.60712134453934E-06,-1.9155644622515E-05,3.1640625,0,0
8.97153768164571E-06,-1.80086135515012E-05,3.1640625,0,0
9.52202481130371E-06,-1.70164548762841E-05,3.1640625,0,0
8.40868688101182E-06,-1.47910441228305E-05,3.1640625,0,0
6.96659617460682E-06,-1.62013038789155E-05,3.1640625,0,0
5.92364358453779E-06,-1.68495334946783E-05,3.1640625,0,0
6.37782977719326E-06,-1.87032146641286E-05,3.1640625,0,0
4.7393614295288E-06,-1.81110772246029E-05,3.1640625,0,0
1.38841585339833E-06,-1.88714384421473E-05,3.1640625,0,0
-2.13015027838992E-06,-1.68799761013361E-05,3.1640625,0,0
-3.7665768104489E-06,-1.60083654918708E-05,3.1640625,0,0
-3.72134081771947E-06,-1.52543070726097E-05,3.1640625,0,0
-1.79439587100205E-06,-1.55877769429935E-05,3.1640625,0,0
-5.37621986040904E-07,-1.43857059811126E-05,3.1640625,0,0
-1.61989112257288E-06,-1.38421683004708E-05,3.1640625,0,0
-3.31059254676802E-06,-1.4133936019789E-05,3.1640625,0,0
-3.99981900045532E-06,-1.55245143105276E-05,3.1640625,0,0
-2.56349130722811E-06,-1.18656535050832E-05,3.1640625,0,0
-2.7801099804492E-06,-1.61588486662367E-05,3.1640625,0,0
-5.56627014702826E-07,-1.30339612951502E-05,3.1640625,0,0
-8.99341728199943E-07,-1.86047400347888E-05,3.1640625,0,0
-4.70977226996183E-07,-1.71306619449751E-05,3.1640625,0,0
-7.30976125851157E-07,-1.94753320101881E-05,3.1640625,0,0
-1.35778407184262E-07,-1.81252307811519E-05,3.1640625,0,0
-9.73385681390937E-07,-1.69417326105759E-05,3.1640625,0,0
-1.92171364687965E-06,-1.58983348228503E-05,3.1640625,0,0
-3.30106149704079E-06,-1.81406521733152E-05,3.1640625,0,0
-3.98474003304727E-06,-2.02833543880843E-05,3.1640625,0,0
-3.08217863675964E-06,-1.88417616300285E-05,3.1640625,0,0
-1.54758345161099E-06,-1.75163841049653E-05,3.1640625,0,0
-1.24226357911539E-06,-1.66865738719935E-05,3.1640625,0,0
-2.89790455099137E-06,-1.76118301169481E-05,3.1640625,0,0
-3.75427657672844E-06,-1.70831171999453E-05,3.1640625,0,0
-3.79639618586225E-06,-1.81518626050092E-05,3.1640625,0,0
-2.82954692920612E-06,-1.78734790097224E-05,3.1640625,0,0
-1.59820160661184E-06,-1.80879778781673E-05,3.1640625,0,0
-1.0666239091961E-07,-1.69873510458274E-05,3.1640625,0,0
3.34543841518098E-07,-1.73810512933414E-05,3.1640625,0,0
2.21721023763166E-07,-1.78071732079843E-05,3.1640625,0,0
3.08167606988263E-08,-1.8668621123652E-05,3.1640625,0,0
1.505269210611E-06,-1.79874878085684E-05,3.1640625,0,0
3.02240482596972E-06,-1.84669352165656E-05,3.1640625,0,0
5.1183615141781E-06,-2.06605036510155E-05,3.1640625,0,0
8.70170424605021E-06,-2.31435515161138E-05,3.1640625,0,0
7.86479085945757E-06,-2.00059330381919E-05,3.1640625,0,0
1.05989738585777E-05,-2.85850619548E-05,3.1640625,0,0
8.32670775707811E-06,-1.99676596821519E-05,3.1640625,0,0
1.23984400488553E-05,-2.24902451009257E-05,3.1640625,0,0
1.23591553347069E-05,-1.72374457179103E-05,3.1640625,0,0
1.43638644658495E-05,-2.02122719201725E-05,3.1640625,0,0
1.3010018847126E-05,-1.94736676348839E-05,3.1640625,0,0
1.32843342726119E-05,-2.14106894418364E-05,3.1640625,0,0
1.29051149997395E-05,-2.06148852157639E-05,3.1640625,0,0
1.34695656015538E-05,-1.99211935978383E-05,3.1640625,0,0
1.36063199533965E-05,-1.95235170394881E-05,3.1640625,0,0
1.34098445414566E-05,-1.87583136721514E-05,3.1640625,0,0
1.4153350093693E-05,-2.0214789401507E-05,3.1640625,0,0
1.21291068353457E-05,-1.98050820472417E-05,3.1640625,0,0
8.82639596966328E-06,-1.96521996258525E-05,3.1640625,0,0
5.38636959390715E-06,-1.61693969857879E-05,3.1640625,0,0
5.19777768204222E-06,-1.58975635713432E-05,3.1640625,0,0
4.21363347413717E-06,-1.53641285578487E-05,3.1640625,0,0
3.36021275870735E-06,-1.81112372956704E-05,3.1640625,0,0
1.90197329175135E-06,-1.92566967598395E-05,3.1640625,0,0
1.2754842373397E-06,-1.99078585865209E-05,3.1640625,0,0
3.73071316062124E-07,-1.74447941390099E-05,3.1640625,0,0
9.07195897070778E-07,-1.56789665197721E-05,3.1640625,0,0
2.15735212805157E-06,-1.36372191263945E-05,3.1640625,0,0
2.30353634833591E-06,-1.19201695270021E-05,3.1640625,0,0
3.99533661266105E-07,-1.05185363281635E-05,3.1640625,0,0
2.57946538795295E-07,-1.19120741146617E-05,3.1640625,0,0
1.2572372725117E-06,-1.1464445378806E-05,3.1640625,0,0
1.0507263823456E-06,-1.70162802533014E-05,3.1640625,0,0
-1.238125605596E-06,-1.41943573908065E-05,3.1640625,0,0
-1.70364251061983E-06,-1.77226702362532E-05,3.1640625,0,0
3.49938147792273E-07,-1.5033381714602E-05,3.1640625,0,0
2.18760942516383E-06,-1.49047300510574E-05,3.1640625,0,0
2.59950320469216E-06,-1.39230878630769E-05,3.1640625,0,0
4.24671770815621E-06,-1.69439881574363E-05,3.1640625,0,0
5.6062626754283E-06,-1.74250635609496E-05,3.1640625,0,0
5.83183646085672E-06,-1.65116634889273E-05,3.1640625,0,0
6.00692783336854E-06,-1.7160744391731E-05,3.1640625,0,0
6.16153647570172E-06,-1.87072164408164E-05,3.1640625,0,0
6.12192661719746E-06,-2.01440343516879E-05,3.1640625,0,0
5.37897267349763E-06,-1.75099921762012E-05,3.1640625,0,0
4.55688405054389E-06,-1.52705779328244E-05,3.1640625,0,0
3.44155091624998E-06,-1.30736789287766E-05,3.1640625,0,0
3.21979564432695E-06,-1.29904565255856E-05,3.1640625,0,0
3.37355663759809E-06,-1.21254333862453E-05,3.1640625,0,0
2.79366872746323E-06,-1.28167512229993E-05,3.1640625,0,0
1.22476421893225E-06,-1.25059050333221E-05,3.1640625,0,0
2.80781495831661E-08,-1.24121497719898E-05,3.1640625,0,0
-3.51072571902478E-07,-1.17761446745135E-05,3.1640625,0,0
-7.40804921406379E-07,-1.34106358018471E-05,3.1640625,0,0
2.13489983025283E-07,-1.67681573657319E-05,3.1640625,0,0
3.35959020958398E-06,-1.86216730071465E-05,3.1640625,0,0
5.16725367560866E-06,-1.77757501660381E-05,3.1640625,0,0
4.48231230620877E-06,-1.61404313985258E-05,3.1640625,0,0
2.99431576422649E-06,-1.14389549707994E-05,3.1640625,0,0
3.60081571670889E-06,-1.65176388691179E-05,3.1640625,0,0
1.40354711675172E-06,-1.28962810777011E-05,3.1640625,0,0
6.34288539913541E-07,-1.45754138429766E-05,3.1640625,0,0
-1.51949780047289E-06,-1.21549592222436E-05,3.1640625,0,0
2.24130459969274E-07,-1.56473670358537E-05,3.1640625,0,0
2.52631639341416E-06,-1.50976584336604E-05,3.1640625,0,0
2.43120689447096E-06,-1.67023827088997E-05,3.1640625,0,0
-2.92351842290373E-07,-1.73879707290325E-05,3.1640625,0,0
-2.40647227656154E-06,-1.85014359885827E-05,3.1640625,0,0
-2.73105865744583E-06,-1.94699641724583E-05,3.1640625,0,0
-2.07268089980062E-06,-2.0309262254159E-05,3.1640625,0,0
-1.21140897135774E-06,-2.21648570004618E-05,3.1640625,0,0
-2.00793260773935E-06,-2.17112647078466E-05,3.1640625,0,0
-3.60429316970112E-06,-2.20029032789171E-05,3.1640625,0,0
-4.00061935579288E-06,-2.15476866287645E-05,3.1640625,0,0
-1.83767861017259E-06,-2.2632431864622E-05,3.1640625,0,0
3.51248729657527E-07,-2.16299395106034E-05,3.1640625,0,0
1.37270785671717E-06,-2.12355462281266E-05,3.1640625,0,0
1.12091458959185E-06,-2.04533698706655E-05,3.1640625,0,0
9.73423198047385E-07,-2.08263772947248E-05,3.1640625,0,0
1.74947469844255E-08,-1.8701548469835E-05,3.1640625,0,0
-3.1192195137919E-07,-1.63571312441491E-05,3.1640625,0,0
-3.88957950292479E-08,-1.6245565348072E-05,3.1640625,0,0
-2.5350036025884E-07,-1.86830729944631E-05,3.1640625,0,0
-1.35688583213778E-06,-2.00341401068727E-05,3.1640625,0,0
-1.9360379610589E-06,-2.04963889700593E-05,3.1640625,0,0
-6.71804286866973E-07,-1.68843598657986E-05,3.1640625,0,0
-7.1443577098762E-07,-2.41247944359202E-05,3.1640625,0,0
2.87501961793168E-07,-1.74700944626238E-05,3.1640625,0,0
1.8932303191832E-06,-2.0065788703505E-05,3.1640625,0,0
2.77668527814967E-06,-1.56952301040292E-05,3.1640625,0,0
1.98392581296503E-06,-1.8507342247176E-05,3.1640625,0,0
1.80024619567121E-06,-1.66832523973426E-05,3.1640625,0,0
7.94830270933744E-07,-1.63855511345901E-05,3.1640625,0,0
8.97424456525187E-07,-1.49141596921254E-05,3.1640625,0,0
2.21736695493746E-06,-1.42163025884656E-05,3.1640625,0,0
4.42164764535846E-06,-1.47525752254296E-05,3.1640625,0,0
6.82209156366298E-06,-1.48004710354144E-05,3.1640625,0,0
8.23553909867769E-06,-1.52708362293197E-05,3.1640625,0,0
8.12864072941011E-06,-1.39453986776061E-05,3.1640625,0,0
6.27513463768992E-06,-1.53640157805057E-05,3.1640625,0,0
4.34144430982997E-06,-1.64384819072438E-05,3.1640625,0,0
3.17868807542254E-06,-1.94325275515439E-05,3.1640625,0,0
3.302681761852E-06,-1.94685308088083E-05,3.1640625,0,0
3.9010838008835E-06,-1.96585424419027E-05,3.1640625,0,0
5.15517012900091E-06,-1.78184509422863E-05,3.1640625,0,0
5.4782212828286E-06,-1.75039258465404E-05,3.1640625,0,0
3.94493781641359E-06,-1.66944719239837E-05,3.1640625,0,0
2.48169953920296E-06,-1.68034257512772E-05,3.1640625,0,0
2.16927446672344E-06,-1.64450666488847E-05,3.1640625,0,0
1.75067293639586E-06,-1.64526463777293E-05,3.1640625,0,0
5.47749436918821E-07,-1.67217112903018E-05,3.1640625,0,0
-1.4649708646175E-06,-1.79905455297558E-05,3.1640625,0,0
-1.76706919319258E-06,-1.40311367431423E-05,3.1640625,0,0
-1.86109866717743E-06,-1.96629698621109E-05,3.1640625,0,0
-1.08666745290975E-06,-1.51935955727822E-05,3.1640625,0,0
-1.09995778529992E-06,-1.83220854523825E-05,3.1640625,0,0
1.82746509835852E-06,-1.33538324007532E-05,3.1640625,0,0
4.0429508771922E-06,-1.43414672493236E-05,3.1640625,0,0
5.57925113753299E-06,-1.33154790091794E-05,3.1640625,0,0
6.96581128067919E-06,-1.5275611076504E-05,3.1640625,0,0
9.58339296630584E-06,-1.52577176777413E-05,3.1640625,0,0
1.09764860098949E-05,-1.67633170349291E-05,3.1640625,0,0
1.08713884401368E-05,-1.93476080312394E-05,3.1640625,0,0
1.05258495750604E-05,-1.93677024071803E-05,3.1640625,0,0
1.07343430499895E-05,-1.87887617357774E-05,3.1640625,0,0
1.14508429760463E-05,-1.7529711840325E-05,3.1640625,0,0
1.16403389256448E-05,-2.01296315935906E-05,3.1640625,0,0
1.22262772492832E-05,-2.29070210480131E-05,3.1640625,0,0
1.27206476463471E-05,-2.57102019531885E-05,3.1640625,0,0
1.36143098643515E-05,-2.29632314585615E-05,3.1640625,0,0
1.34278279801947E-05,-1.98532452486688E-05,3.1640625,0,0
1.10661949292989E-05,-1.72873023984721E-05,3.1640625,0,0
8.20379591459641E-06,-1.8759727026918E-05,3.1640625,0,0
7.84912663220894E-06,-2.05277137865778E-05,3.1640625,0,0
7.37045274945558E-06,-2.16698645090219E-05,3.1640625,0,0
5.20484309163294E-06,-1.97521439986303E-05,3.1640625,0,0
2.61475565821456E-06,-1.7196944099851E-05,3.1640625,0,0
-4.76824482120719E-07,-1.65926976478659E-05,3.1640625,0,0
-2.61086984210124E-06,-1.83925094461301E-05,3.1640625,0,0
-2.05590049517923E-06,-1.75725181179587E-05,3.1640625,0,0
-3.81000745619531E-06,-2.60036922554718E-05,3.1640625,0,0
-4.95295125801931E-06,-2.05665473913541E-05,3.1640625,0,0
-7.32325725039118E-06,-2.3894139303593E-05,3.1640625,0,0
-7.06452874510433E-06,-1.92992574739037E-05,3.1640625,0,0
-5.26163921676925E-06,-2.02301143872319E-05,3.1640625,0,0
-3.1132617550611E-06,-1.57173544721445E-05,3.1640625,0,0
-1.25253723126661E-06,-1.36651424327283E-05,3.1640625,0,0
-1.43317450351788E-07,-1.18703801490483E-05,3.1640625,0,0
7.39655163783937E-08,-1.24296730064088E-05,3.1640625,0,0
1.3779065284325E-06,-1.28953570310841E-05,3.1640625,0,0
3.88146736440831E-06,-1.19097485367092E-05,3.1640625,0,0
6.38756318949163E-06,-1.28039473565877E-05,3.1640625,0,0
7.78315006755292E-06,-1.2794825124729E-05,3.1640625,0,0
6.73283966534655E-06,-1.45251406138414E-05,3.1640625,0,0
5.01054182677763E-06,-1.50122059494606E-05,3.1640625,0,0
3.79859557142481E-06,-1.87855130207026E-05,3.1640625,0,0
3.5050941278314E-06,-1.94485164684011E-05,3.1640625,0,0
2.68565668193332E-06,-1.92488078027964E-05,3.1640625,0,0
1.63316735779517E-06,-1.70050770975649E-05,3.1640625,0,0
1.5825855825824E-06,-1.67588386830175E-05,3.1640625,0,0
3.15358738589566E-06,-1.58755592565285E-05,3.1640625,0,0
3.83535734727047E-06,-1.65874898812035E-05,3.1640625,0,0
2.28621797759843E-06,-1.68191836564802E-05,3.1640625,0,0
5.21235335781967E-07,-1.66363042808371E-05,3.1640625,0,0
-5.58291219476814E-07,-1.57255653903121E-05,3.1640625,0,0
-1.6515244283255E-07,-1.38478153530741E-05,3.1640625,0,0
6.74398393130105E-07,-1.11951849248726E-05,3.1640625,0,0
1.23687129871541E-06,-1.59668179549044E-05,3.1640625,0,0
7.33432727884065E-07,-1.20656613944448E-05,3.1640625,0,0
1.50798609865888E-06,-1.60075342137134E-05,3.1640625,0,0
3.38572522196046E-06,-1.62073447427247E-05,3.1640625,0,0
3.61450747732306E-06,-1.92192292161053E-05,3.1640625,0,0
2.18032732846041E-06,-1.73438402271131E-05,3.1640625,0,0
9.33416004045284E-07,-1.60666313604452E-05,3.1640625,0,0
-2.12309856806314E-07,-1.55254674609751E-05,3.1640625,0,0
-1.42704152494844E-06,-1.58932998601813E-05,3.1640625,0,0
-2.12748523154005E-06,-1.69827035279013E-05,3.1640625,0,0
-2.00566478270048E-06,-1.75638288055779E-05,3.1640625,0,0
-8.63347736412834E-07,-1.83292868314311E-05,3.1640625,0,0
5.48322987015126E-07,-1.6875215806067E-05,3.1640625,0,0
1.81273222210621E-07,-1.64509765454568E-05,3.1640625,0,0
-1.0459829127285E-06,-1.63301410793792E-05,3.1640625,0,0
-1.73430316863232E-06,-1.86027973541059E-05,3.1640625,0,0
-2.35467177844839E-06,-2.01701750484062E-05,3.1640625,0,0
-2.69570932687202E-06,-2.32668608077802E-05,3.1640625,0,0
-2.04392722480407E-06,-2.50021112151444E-05,3.1640625,0,0
-7.06866046584764E-07,-2.45390874624718E-05,3.1640625,0,0
2.51885268198748E-07,-2.23584484047024E-05,4.921875,0,0
5.44625493148487E-07,-2.20405836444115E-05,4.921875,0,0
-7.62290028433199E-07,-2.17343203985365E-05,4.921875,0,0
-2.17303454519424E-06,-2.12946069950704E-05,4.921875,0,0
-1.93868231690431E-06,-2.0437028069864E-05,4.921875,0,0
-5.79823677071545E-07,-2.03313720703591E-05,4.921875,0,0
-1.04450208482376E-08,-1.53663459059317E-05,4.921875,0,0
-6.47070351078582E-07,-1.82037110789679E-05,4.921875,0,0
4.78723336527764E-08,-9.02576175576542E-06,4.921875,0,0
2.59158923654468E-06,-1.39018384288647E-05,4.921875,0,0
2.74564536084654E-06,-1.23257768791518E-05,4.921875,0,0
1.29203795040667E-06,-1.65098936122376E-05,4.921875,0,0
4.06450730849883E-08,-1.59767787408782E-05,4.921875,0,0
-2.81337378282842E-07,-1.72514864971163E-05,4.921875,0,0
7.38168353109359E-08,-1.63322638400132E-05,4.921875,0,0
1.32911782202427E-06,-1.56749210873386E-05,4.921875,0,0
3.39597249876533E-06,-1.52730954141589E-05,4.921875,0,0
3.68053338206664E-06,-1.54501703946153E-05,4.921875,0,0
2.43887507167528E-06,-1.81565083039459E-05,4.921875,0,0
1.9299982341181E-06,-2.04610623768531E-05,4.921875,0,0
3.16394039145962E-06,-2.46033469011309E-05,4.921875,0,0
3.92633091905736E-06,-2.40630724874791E-05,4.921875,0,0
3.01182490147767E-06,-2.15499512705719E-05,4.921875,0,0
2.50426114689617E-06,-1.61404750542715E-05,4.921875,0,0
4.60178989669657E-06,-1.41829223139212E-05,4.921875,0,0
7.27125780031201E-06,-1.23559302664944E-05,4.921875,0,0
7.63393745728536E-06,-1.37616798383533E-05,4.921875,0,0
6.53677898299065E-06,-1.53986056830036E-05,4.921875,0,0
6.0594911701628E-06,-1.64650246006204E-05,4.921875,0,0
7.2076636570273E-06,-1.54029712575721E-05,4.921875,0,0
8.39954282128019E-06,-1.60226736625191E-05,4.921875,0,0
8.85402459971374E-06,-1.56073838297743E-05,4.921875,0,0
8.92835760168964E-06,-1.52754055307014E-05,4.921875,0,0
6.24403264737339E-06,-1.23871359392069E-05,4.921875,0,0
8.26399082143325E-06,-1.74824108398752E-05,4.921875,0,0
6.31606644674321E-06,-1.28455503727309E-05,4.921875,0,0
7.98435485194204E-06,-1.526802952867E-05,4.921875,0,0
5.76539969188161E-06,-1.24431962831295E-05,4.921875,0,0
7.44289945942E-06,-1.48665085362154E-05,4.921875,0,0
6.8427261794568E-06,-1.48398294186336E-05,4.921875,0,0
6.4742703216325E-06,-1.5836720194784E-05,4.921875,0,0
5.18911429026048E-06,-1.36133467094623E-05,4.921875,0,0
5.01439672007109E-06,-1.28810706883087E-05,4.921875,0,0
6.43188604954048E-06,-1.37708893817035E-05,4.921875,0,0
7.85354404797545E-06,-1.3814159501635E-05,4.921875,0,0
9.17251327336999E-06,-1.38078139571007E-05,4.921875,0,0
9.81133689492708E-06,-1.30836315292981E-05,4.921875,0,0
1.16791716209264E-05,-1.40661613841075E-05,4.921875,0,0
1.18261768875527E-05,-1.46698921525967E-05,4.921875,0,0
9.78553907771129E-06,-1.8412540157442E-05,4.921875,0,0
7.14128964318661E-06,-2.09866866498487E-05,4.921875,0,0
8.18078660813626E-06,-2.29718152695568E-05,4.921875,0,0
1.00160796137061E-05,-2.06744844035711E-05,4.921875,0,0
1.16459532364388E-05,-1.80092974915169E-05,4.921875,0,0
1.10744931589579E-05,-1.60548897838453E-05,4.921875,0,0
9.818580110732E-06,-1.60616054927232E-05,4.921875,0,0
7.72514340496855E-06,-1.53872460941784E-05,4.921875,0,0
5.99834766035201E-06,-1.46272268466419E-05,4.921875,0,0
4.94159939989913E-06,-1.4209024811862E-05,4.921875,0,0
4.05135097025777E-06,-1.51790572999744E-05,4.921875,0,0
9.66505012911512E-07,-1.37633560370887E-05,4.921875,0,0
-7.61999046972051E-07,-2.07148059416795E-05,4.921875,0,0
-2.76925334219413E-06,-1.59960218297783E-05,4.921875,0,0
-2.37539438785461E-06,-1.844642793003E-05,4.921875,0,0
-2.08482515517971E-06,-1.59114351845346E-05,4.921875,0,0
-7.97212464931363E-07,-1.79089984158054E-05,4.921875,0,0
-3.32581521433895E-07,-1.74811339093139E-05,4.921875,0,0
1.43420663789584E-06,-1.96192431758391E-05,4.921875,0,0
2.9016921416769E-06,-2.0529972971417E-05,4.921875,0,0
3.64579796041653E-06,-2.12919385376154E-05,4.921875,0,0
3.27342968375888E-06,-2.18374225369189E-05,4.921875,0,0
2.95865106636484E-06,-2.12338836718118E-05,4.921875,0,0
4.02192654291866E-06,-2.19212033698568E-05,4.921875,0,0
4.92943127028411E-06,-2.18001987377647E-05,4.921875,0,0
4.82317773276009E-06,-2.30570003623143E-05,4.921875,0,0
3.67226880371163E-06,-2.31517024076311E-05,4.921875,0,0
3.27501720676082E-06,-2.34362541959854E-05,4.921875,0,0
2.90673119707208E-06,-2.08510991797084E-05,4.921875,0,0
2.58601585301221E-06,-1.99463647732046E-05,4.921875,0,0
2.42717351284227E-06,-1.98572906811023E-05,4.921875,0,0
3.31700289279979E-06,-2.25518160732463E-05,4.921875,0,0
4.19119078287622E-06,-2.5121937142103E-05,4.921875,0,0
4.45452087660669E-06,-2.46710533247096E-05,4.921875,0,0
5.13401710122707E-06,-1.99925325432559E-05,4.921875,0,0
7.3826477091643E-06,-1.77368510776432E-05,4.921875,0,0
7.6535552580026E-06,-1.82900894287741E-05,4.921875,0,0
4.78760739497375E-06,-1.99104524654103E-05,4.921875,0,0
1.23163465559628E-06,-1.63292952493066E-05,4.921875,0,0
1.86860052053817E-06,-2.30999885388883E-05,4.921875,0,0
2.78661991615081E-06,-1.64848697750131E-05,4.921875,0,0
5.02298917126609E-06,-1.81957329914439E-05,4.921875,0,0
5.15554847879685E-06,-1.37367142087896E-05,4.921875,0,0
3.44948102792841E-06,-1.74265860550804E-05,4.921875,0,0
1.21081166071235E-06,-1.64642697200179E-05,4.921875,0,0
6.9024321192046E-07,-1.67670295923017E-05,4.921875,0,0
-5.05211971812969E-07,-1.5633810107829E-05,4.921875,0,0
-2.42206147049728E-06,-1.62517044373089E-05,4.921875,0,0
-4.49240451416699E-06,-1.65201199706644E-05,4.921875,0,0
-6.24363565293606E-06,-1.57528556883335E-05,4.921875,0,0
-6.38559004073613E-06,-1.67519192473264E-05,4.921875,0,0
-5.49449760001153E-06,-1.63411496032495E-05,4.921875,0,0
-4.83189705846598E-06,-1.59608625835972E-05,4.921875,0,0
-5.0876546993095E-06,-1.43245579238283E-05,4.921875,0,0
-5.53717654838692E-06,-1.68215829035034E-05,4.921875,0,0
-5.80835103392019E-06,-1.74841297848616E-05,4.921875,0,0
-4.55261488241376E-06,-1.73730950336903E-05,4.921875,0,0
-2.6871171030507E-06,-1.44354971780558E-05,4.921875,0,0
-1.76027094767051E-06,-1.42019789564074E-05,4.921875,0,0
-6.82164966292476E-07,-1.43351726364926E-05,4.921875,0,0
2.60341971625166E-06,-1.58274724526564E-05,4.921875,0,0
5.78737308387645E-06,-1.61196676344844E-05,4.921875,0,0
6.88088721290114E-06,-1.6358762877644E-05,4.921875,0,0
6.44514648229233E-06,-1.58774982992327E-05,4.921875,0,0
4.68576763523743E-06,-1.50721434692969E-05,4.921875,0,0
2.18137301999377E-06,-1.07749165181303E-05,4.921875,0,0
3.22533355756605E-06,-1.54010576807195E-05,4.921875,0,0
3.31179694512684E-06,-1.33778321469435E-05,4.921875,0,0
5.55379529032507E-06,-1.70222738233861E-05,4.921875,0,0
5.52571464140783E-06,-1.3371039131016E-05,4.921875,0,0
6.22695233687409E-06,-1.43092202051776E-05,4.921875,0,0
7.27067708794493E-06,-1.24450816656463E-05,4.921875,0,0
8.45687281980645E-06,-1.18409370770678E-05,4.921875,0,0
9.56091025727801E-06,-1.14678350655595E-05,4.921875,0,0
1.03984666566248E-05,-1.23564150271704E-05,4.921875,0,0
1.19627120511723E-05,-1.38728637466556E-05,4.921875,0,0
1.33439607452601E-05,-1.42355165735353E-05,4.921875,0,0
1.47911259773537E-05,-1.53696564666461E-05,4.921875,0,0
1.52905122376978E-05,-1.60873169079423E-05,4.921875,0,0
1.41016689667595E-05,-1.76362900674576E-05,4.921875,0,0
1.06980332930107E-05,-1.78847567440243E-05,4.921875,0,0
8.30415683594765E-06,-1.94700132851722E-05,4.921875,0,0
8.05601030151593E-06,-2.03654399228981E-05,4.921875,0,0
8.7245789472945E-06,-2.17437918763608E-05,4.921875,0,0
9.36410469876137E-06,-2.05799715331523E-05,4.921875,0,0
9.61526984610828E-06,-1.94737494894071E-05,4.921875,0,0
8.27522944746306E-06,-1.81798404810252E-05,4.921875,0,0
5.21074116477394E-06,-1.92252846318297E-05,4.921875,0,0
2.72354827757226E-06,-2.07546181627549E-05,4.921875,0,0
1.82744713583816E-06,-2.19585508602904E-05,4.921875,0,0
1.62957587690471E-06,-2.17059241549578E-05,4.921875,0,0
5.22337757047353E-07,-1.93569958355511E-05,4.921875,0,0
-1.49546110606025E-06,-1.37527131300885E-05,4.921875,0,0
-2.65473727267818E-06,-1.9016975784325E-05,4.921875,0,0
-1.62835476658074E-06,-1.4894408195687E-05,4.921875,0,0
-1.1193113778063E-06,-1.88288668141468E-05,4.921875,0,0
-6.28859936568915E-07,-1.52316833919031E-05,4.921875,0,0
1.97629617559869E-07,-1.9606090063462E-05,4.921875,0,0
2.39920723288378E-07,-2.08691781153902E-05,4.921875,0,0
-1.5928682159938E-06,-2.28762128244853E-05,4.921875,0,0
-4.64242430098238E-06,-2.26859574468108E-05,4.921875,0,0
-7.13051667844411E-06,-2.04324896913022E-05,4.921875,0,0
-7.38211065254291E-06,-1.77071542566409E-05,4.921875,0,0
-5.38454560228274E-06,-1.60742838488659E-05,4.921875,0,0
-3.2523835216125E-06,-1.76310459210072E-05,4.921875,0,0
-2.86395220427949E-06,-1.80581992026418E-05,4.921875,0,0
-3.95148708776105E-06,-1.84292475751136E-05,4.921875,0,0
-5.37046480530989E-06,-1.70123548741685E-05,4.921875,0,0
-6.64143772155512E-06,-1.81085088115651E-05,4.921875,0,0
-6.67889662508969E-06,-1.71887040778529E-05,4.921875,0,0
-5.12603719471372E-06,-1.77132751559839E-05,4.921875,0,0
-3.27989755533054E-06,-1.88365393114509E-05,4.921875,0,0
-2.24393897951813E-06,-2.01801649382105E-05,4.921875,0,0
-1.44460909723421E-06,-1.78318623511586E-05,4.921875,0,0
-7.38623668894434E-07,-1.54378340084804E-05,4.921875,0,0
8.45960698825365E-07,-1.45826606967603E-05,4.921875,0,0
1.56089083702682E-06,-1.54096887854394E-05,4.921875,0,0
8.71671318236622E-07,-1.54278732225066E-05,4.921875,0,0
1.10845007839089E-06,-1.45271460496588E-05,4.921875,0,0
2.86301292362623E-06,-9.55199629970593E-06,4.921875,0,0
3.13579607791326E-06,-1.33952416945249E-05,7.20703125,0,0
3.79646991177651E-07,-1.06563447843655E-05,7.20703125,0,0
8.40643167521193E-07,-1.41700884341844E-05,7.20703125,0,0
8.8882137561086E-07,-1.41138734761626E-05,7.20703125,0,0
2.4195428522944E-06,-1.76121611730196E-05,7.20703125,0,0
4.08996538681095E-06,-1.7192134691868E-05,7.20703125,0,0
4.75897195428843E-06,-1.70271323440829E-05,7.20703125,0,0
3.8129769563966E-06,-1.46840502566192E-05,7.20703125,0,0
2.19455705519067E-06,-1.33891580844647E-05,7.20703125,0,0
2.22545963879384E-06,-1.41038808578742E-05,7.20703125,0,0
3.57187218469335E-06,-1.43430988828186E-05,7.20703125,0,0
4.64172399006202E-06,-1.38231089295004E-05,7.20703125,0,0
4.73813906864962E-06,-1.24778271128889E-05,7.20703125,0,0
4.56848692920175E-06,-1.3908202163293E-05,7.20703125,0,0
3.83728729502764E-06,-1.50722989928909E-05,7.20703125,0,0
3.10993254970526E-06,-1.65090405062074E-05,7.20703125,0,0
2.16819603338081E-06,-1.5554369383608E-05,7.20703125,0,0
1.90768082575232E-06,-1.57632621267112E-05,7.20703125,0,0
1.46844547543878E-06,-1.66662448464194E-05,7.20703125,0,0
3.82319996106162E-07,-1.92363131645834E-05,7.20703125,0,0
-1.05003141470661E-06,-1.97950048459461E-05,7.20703125,0,0
-1.7609909264138E-06,-1.79307335201884E-05,7.20703125,0,0
-1.09347990928654E-06,-1.46594320540316E-05,7.20703125,0,0
1.07132939319854E-06,-1.3739271707891E-05,7.20703125,0,0
1.79701817160094E-06,-1.53360106196487E-05,7.20703125,0,0
5.37491132490686E-07,-1.74437318491982E-05,7.20703125,0,0
6.97902862611954E-07,-1.3738875168201E-05,7.20703125,0,0
2.26468637265498E-06,-1.77164456545142E-05,7.20703125,0,0
3.17045942210825E-06,-1.20851709652925E-05,7.20703125,0,0
2.66663482761942E-06,-1.66325189638883E-05,7.20703125,0,0
1.65918140737631E-06,-1.37382803586661E-05,7.20703125,0,0
1.5926927972032E-06,-1.56128917296883E-05,7.20703125,0,0
3.65835899174272E-06,-1.39635667437688E-05,7.20703125,0,0
5.65669915886247E-06,-1.61063071573153E-05,7.20703125,0,0
5.36062225364731E-06,-1.59966748469742E-05,7.20703125,0,0
4.06603976443876E-06,-1.4393981473404E-05,7.20703125,0,0
4.15165004596929E-06,-1.23484733194346E-05,7.20703125,0,0
5.0186845328426E-06,-1.0876825399464E-05,7.20703125,0,0
5.24488541486789E-06,-1.21179509733338E-05,7.20703125,0,0
4.01354463974712E-06,-1.33214980451157E-05,7.20703125,0,0
2.61328273154504E-06,-1.56653641170124E-05,7.20703125,0,0
2.54688757195254E-06,-1.42083745231503E-05,7.20703125,0,0
3.704748223754E-06,-1.41634218380204E-05,7.20703125,0,0
4.31557100455393E-06,-1.44602918226155E-05,7.20703125,0,0
2.59912212641211E-06,-1.72301370184869E-05,7.20703125,0,0
6.74026694014174E-07,-1.75845416379161E-05,7.20703125,0,0
1.44204784646718E-06,-1.7323794963886E-05,7.20703125,0,0
4.34679077443434E-06,-1.62322085088817E-05,7.20703125,0,0
6.20383116256562E-06,-1.67206435435219E-05,7.20703125,0,0
5.58469810130191E-06,-1.73988555616234E-05,7.20703125,0,0
4.70781697003986E-06,-2.07024786504917E-05,7.20703125,0,0
4.89018339067115E-06,-2.08139917958761E-05,7.20703125,0,0
5.44432987226173E-06,-1.67544621945126E-05,7.20703125,0,0
5.43631449545501E-06,-1.09127731775516E-05,7.20703125,0,0
8.93368815013673E-06,-1.66459831234533E-05,7.20703125,0,0
8.49387561174808E-06,-1.66969912243076E-05,7.20703125,0,0
1.07496825876296E-05,-2.1343344997149E-05,7.20703125,0,0
9.70200562733226E-06,-1.72303789440775E-05,7.20703125,0,0
8.87699752638582E-06,-1.68525984918233E-05,7.20703125,0,0
7.6705882747774E-06,-1.47672790262732E-05,7.20703125,0,0
8.35875198390568E-06,-1.49707311720704E-05,7.20703125,0,0
8.81928554008482E-06,-1.34278634504881E-05,7.20703125,0,0
9.90673652268015E-06,-1.2026920558128E-05,7.20703125,0,0
1.08985896076774E-05,-1.09273159978329E-05,7.20703125,0,0
1.0282304174325E-05,-9.52537720877444E-06,7.20703125,0,0
7.80690425017383E-06,-9.49701552599436E-06,7.20703125,0,0
5.03660885442514E-06,-9.71163535723463E-06,7.20703125,0,0
5.15337887918577E-06,-1.29504824144533E-05,7.20703125,0,0
6.35230526313535E-06,-1.61670704983408E-05,7.20703125,0,0
7.67022538639139E-06,-1.96931414393475E-05,7.20703125,0,0
7.54745133235701E-06,-1.94180593098281E-05,7.20703125,0,0
6.93055517331231E-06,-1.91519957297714E-05,7.20703125,0,0
4.9503569243825E-06,-1.93653722817544E-05,7.20703125,0,0
2.99042540063965E-06,-2.06244312721537E-05,7.20703125,0,0
9.76488763626548E-07,-1.83888205356197E-05,7.20703125,0,0
4.13231227014421E-08,-1.69124687090516E-05,7.20703125,0,0
-4.50467751988981E-07,-1.78656373464037E-05,7.20703125,0,0
1.06765391194585E-07,-2.02268438442843E-05,7.20703125,0,0
2.99851308227517E-07,-2.13488583540311E-05,7.20703125,0,0
-8.36042772789369E-07,-2.15671771002235E-05,7.20703125,0,0
-1.88973399417591E-06,-1.8369664758211E-05,7.20703125,0,0
-3.11959570353793E-06,-2.65281814790796E-05,7.20703125,0,0
-1.6099425010907E-06,-1.95898574020248E-05,7.20703125,0,0
2.9727542028013E-07,-2.37982112594182E-05,7.20703125,0,0
2.22572407437838E-06,-2.11807237064932E-05,7.20703125,0,0
8.16440206108382E-07,-2.48069136432605E-05,7.20703125,0,0
-1.13358726139268E-06,-2.19509620364988E-05,7.20703125,0,0
-1.19565493150731E-06,-2.04062962438911E-05,7.20703125,0,0
-5.86263013246935E-07,-1.91644576261751E-05,7.20703125,0,0
-7.05931142874761E-07,-2.07227876671823E-05,7.20703125,0,0
-1.19136950615939E-06,-2.15752534131752E-05,7.20703125,0,0
-1.99594182959117E-06,-2.06623717531329E-05,7.20703125,0,0
-2.99759858535253E-06,-2.20790461753495E-05,7.20703125,0,0
-3.49610013472557E-06,-2.07917819352588E-05,7.20703125,0,0
-3.42603789249551E-06,-2.01025377464248E-05,7.20703125,0,0
-3.52693768945755E-06,-1.85520784725668E-05,7.20703125,0,0
-4.07581592298811E-06,-2.09116024052491E-05,7.20703125,0,0
-3.22152936860221E-06,-2.09085665119346E-05,7.20703125,0,0
-1.30145951970917E-06,-2.03250692720758E-05,7.20703125,0,0
2.16606252934071E-07,-1.74133947439259E-05,7.20703125,0,0
8.52811069762538E-07,-1.74932301888475E-05,7.20703125,0,0
2.62904291048471E-06,-1.80771130544599E-05,7.20703125,0,0
5.59644968234352E-06,-1.8086182535626E-05,7.20703125,0,0
7.68684549257159E-06,-1.58854472829262E-05,7.20703125,0,0
8.91318450157996E-06,-1.49654397318955E-05,7.20703125,0,0
9.30867190618301E-06,-1.45800850077649E-05,7.20703125,0,0
8.72669897944434E-06,-1.36895941977855E-05,7.20703125,0,0
7.46706746213022E-06,-1.1054935384891E-05,7.20703125,0,0
1.09267457446549E-05,-1.61737953021657E-05,7.20703125,0,0
7.7149607022875E-06,-1.22301707961014E-05,7.20703125,0,0
7.8253560786834E-06,-1.40826141432626E-05,7.20703125,0,0
4.85286591356271E-06,-1.18552361527691E-05,7.20703125,0,0
6.96034658176359E-06,-1.48408171298797E-05,7.20703125,0,0
7.86213513492839E-06,-1.60955714818556E-05,7.20703125,0,0
8.19279739516787E-06,-1.67579873959767E-05,7.20703125,0,0
7.06997434463119E-06,-1.46107340697199E-05,7.20703125,0,0
6.08999607720762E-06,-1.40338624987635E-05,7.20703125,0,0
6.49969251753646E-06,-1.60079980560113E-05,7.20703125,0,0
7.73455121816369E-06,-1.76707944774535E-05,7.20703125,0,0
9.37356890062802E-06,-1.82696312549524E-05,7.20703125,0,0
8.88707290869206E-06,-1.60267627506983E-05,7.20703125,0,0
8.72614964464447E-06,-1.44552841447876E-05,7.20703125,0,0
9.130302714766E-06,-1.3221461813373E-05,7.20703125,0,0
1.10941546154208E-05,-1.52322336361976E-05,7.20703125,0,0
1.18769967230037E-05,-1.63157619681442E-05,7.20703125,0,0
1.14939412014792E-05,-1.73284679476637E-05,7.20703125,0,0
8.47712362883613E-06,-1.6829662854434E-05,7.20703125,0,0
5.80490359425312E-06,-1.79933704202995E-05,7.20703125,0,0
3.73484567717242E-06,-1.97542685782537E-05,7.20703125,0,0
1.23871870982839E-06,-2.11586884688586E-05,7.20703125,0,0
-1.10575206235808E-06,-2.13790281122783E-05,7.20703125,0,0
-1.51752306010167E-06,-2.05142132472247E-05,7.20703125,0,0
-2.6009870452981E-06,-1.82272924575955E-05,7.20703125,0,0
-5.1510387493181E-06,-1.69790000654757E-05,7.20703125,0,0
-5.13013947056606E-06,-1.38871082526748E-05,7.20703125,0,0
-5.95001483816304E-06,-1.89484471775359E-05,7.20703125,0,0
-2.19803678191965E-06,-1.33944377012085E-05,7.20703125,0,0
-2.99553016702703E-06,-1.85273183888057E-05,7.20703125,0,0
-2.56692942457448E-06,-1.79822327481816E-05,7.20703125,0,0
-4.94405048812041E-06,-2.03140152734704E-05,7.20703125,0,0
-3.33817297359928E-06,-1.93178821064066E-05,7.20703125,0,0
-1.23119866657362E-06,-2.11515325645451E-05,7.20703125,0,0
8.07650394563098E-07,-2.0431465600268E-05,7.20703125,0,0
1.2963246263098E-06,-1.96281744138105E-05,7.20703125,0,0
2.18149196484774E-07,-1.93498708540574E-05,7.20703125,0,0
-4.16920130419385E-07,-1.97194167412817E-05,7.20703125,0,0
1.36560288410692E-07,-2.14252522710012E-05,7.20703125,0,0
2.0243596736691E-06,-2.07170596695505E-05,7.20703125,0,0
2.15528416447341E-06,-1.94685799215222E-05,7.20703125,0,0
1.29158752315561E-06,-1.63621243700618E-05,7.20703125,0,0
2.38872985391936E-07,-1.68793121702038E-05,7.20703125,0,0
8.4330787331055E-07,-1.71848532772856E-05,7.20703125,0,0
1.41547684506804E-06,-1.73804655787535E-05,7.20703125,0,0
2.96539087685233E-06,-1.46195889101364E-05,7.20703125,0,0
3.56891314368113E-06,-1.36892249429366E-05,7.20703125,0,0
3.85695466320612E-06,-1.36018925331882E-05,7.20703125,0,0
4.1863077058224E-06,-1.48055914905854E-05,7.20703125,0,0
5.79976676817751E-06,-1.47100599861005E-05,7.20703125,0,0
6.35003971183323E-06,-1.43934230436571E-05,7.20703125,0,0
5.5475766203017E-06,-1.35744985527708E-05,7.20703125,0,0
4.4974358388572E-06,-1.3578224752564E-05,7.20703125,0,0
2.29183115152409E-06,-1.10470173240174E-05,7.20703125,0,0
3.97213943870156E-06,-1.48659801197937E-05,7.20703125,0,0
4.57433816336561E-06,-1.08212716440903E-05,7.20703125,0,0
6.20162245468237E-06,-1.443769542675E-05,7.20703125,0,0
6.64803928884794E-06,-1.20878858069773E-05,7.20703125,0,0
8.93553351488663E-06,-1.3326617590792E-05,7.20703125,0,0
9.81664652499603E-06,-1.19512196761207E-05,9.31640625,0,0
9.19822650757851E-06,-1.28618758026278E-05,9.31640625,0,0
8.07072501629591E-06,-1.33001085487194E-05,9.31640625,0,0
9.37503773457138E-06,-1.4437625395658E-05,9.31640625,0,0
1.22220435514464E-05,-1.70466519193724E-05,9.31640625,0,0
1.40609454319929E-05,-1.87432469829218E-05,9.31640625,0,0
1.48031485878164E-05,-1.9223572962801E-05,9.31640625,0,0
1.43873185152188E-05,-1.70533548953244E-05,9.31640625,0,0
1.27190205603256E-05,-1.66075242304942E-05,9.31640625,0,0
9.50988487602444E-06,-1.66904901561793E-05,9.31640625,0,0
6.25844768364914E-06,-1.88021640497027E-05,9.31640625,0,0
3.44177692568337E-06,-1.94336680578999E-05,9.31640625,0,0
1.33551077396987E-06,-2.12348622881109E-05,9.31640625,0,0
-3.66876321322707E-07,-2.10159123525955E-05,9.31640625,0,0
-1.53706434957712E-06,-2.03814197448082E-05,9.31640625,0,0
-4.18433728555101E-06,-2.00706817850005E-05,9.31640625,0,0
-6.72484748065472E-06,-2.08603960345499E-05,9.31640625,0,0
-6.88840054863249E-06,-2.06830591196194E-05,9.31640625,0,0
-6.00126122662914E-06,-2.10653106478276E-05,9.31640625,0,0
-6.78130300002522E-06,-2.10116286325501E-05,9.31640625,0,0
-8.15718885860406E-06,-1.98915677174227E-05,9.31640625,0,0
-6.10321103522438E-06,-1.48300805449253E-05,9.31640625,0,0
-6.49571120447945E-06,-2.18942805076949E-05,9.31640625,0,0
-1.9780002276093E-06,-1.89794900506968E-05,9.31640625,0,0
-2.32438537750568E-06,-2.47793450398603E-05,9.31640625,0,0
1.50547194266437E-07,-2.13811636058381E-05,9.31640625,0,0
-1.70938369592477E-06,-2.19979519897606E-05,9.31640625,0,0
-1.34280685415433E-06,-1.89345792023232E-05,9.31640625,0,0
-9.26326265471289E-07,-1.86137913260609E-05,9.31640625,0,0
6.50763979592739E-07,-1.71619485627161E-05,9.31640625,0,0
5.71262262383243E-07,-1.68674523592927E-05,9.31640625,0,0
-3.83807702064587E-07,-1.69171416928293E-05,9.31640625,0,0
-6.0689757219734E-07,-1.63587410497712E-05,9.31640625,0,0
-7.94746085830411E-07,-1.84931341209449E-05,9.31640625,0,0
-4.14410664006937E-07,-1.82572439371143E-05,9.31640625,0,0
-1.4760211115572E-06,-1.73702374013374E-05,9.31640625,0,0
-1.45536932905088E-06,-1.53621731442399E-05,9.31640625,0,0
-1.83659460617491E-06,-1.65104229381541E-05,9.31640625,0,0
-9.66003767643997E-07,-1.61635998665588E-05,9.31640625,0,0
1.93628139300017E-07,-1.64351222338155E-05,9.31640625,0,0
2.313469622095E-06,-1.52483999045216E-05,9.31640625,0,0
1.50023117839737E-06,-1.54929075506516E-05,9.31640625,0,0
4.43282203832496E-07,-1.5546165741398E-05,9.31640625,0,0
-1.15968916247766E-07,-1.58744460350135E-05,9.31640625,0,0
5.45188925116236E-08,-1.41652863021591E-05,9.31640625,0,0
6.93055199008086E-07,-1.30094686028315E-05,9.31640625,0,0
8.19498140458563E-08,-1.41589689519606E-05,9.31640625,0,0
-1.39523399411701E-06,-1.70029688888462E-05,9.31640625,0,0
-5.54851169454196E-07,-1.55288980749901E-05,9.31640625,0,0
4.19067333723433E-07,-2.32363236136734E-05,9.31640625,0,0
1.87830733011651E-06,-1.90453429240733E-05,9.31640625,0,0
1.63209460879443E-06,-2.35100251302356E-05,9.31640625,0,0
2.19198204831628E-06,-2.06738641281845E-05,9.31640625,0,0
3.83413271265454E-06,-2.20904203160899E-05,9.31640625,0,0
5.95990695728688E-06,-2.05892993108137E-05,9.31640625,0,0
6.38253459328553E-06,-2.16850858123507E-05,9.31640625,0,0
5.86138230573852E-06,-2.02057799469912E-05,9.31640625,0,0
5.46395540368394E-06,-1.898320078908E-05,9.31640625,0,0
5.32595822733128E-06,-1.91623039427213E-05,9.31640625,0,0
6.23934010945959E-06,-1.92012394109042E-05,9.31640625,0,0
7.15733904144145E-06,-1.98224752239184E-05,9.31640625,0,0
6.87076590111246E-06,-1.9846773284371E-05,9.31640625,0,0
5.87298382015433E-06,-2.22483322431799E-05,9.31640625,0,0
6.84647375237546E-06,-2.15480395127088E-05,9.31640625,0,0
8.57358918437967E-06,-2.08069632208208E-05,9.31640625,0,0
8.35149330669083E-06,-1.88745034392923E-05,9.31640625,0,0
6.50190395390382E-06,-1.96673954633297E-05,9.31640625,0,0
5.54686448595021E-06,-1.92905972653534E-05,9.31640625,0,0
6.76160425427952E-06,-1.93446576304268E-05,9.31640625,0,0
9.03624459169805E-06,-1.80987935891608E-05,9.31640625,0,0
1.01734694908373E-05,-1.79495527845575E-05,9.31640625,0,0
9.33789397095097E-06,-1.75444856722606E-05,9.31640625,0,0
8.38419782667188E-06,-1.55647157953354E-05,9.31640625,0,0
7.39344250177965E-06,-1.24039779620944E-05,9.31640625,0,0
6.19041475147242E-06,-1.17985728138592E-05,9.31640625,0,0
4.74168518849183E-06,-1.05036806417047E-05,9.31640625,0,0
6.796401066822E-06,-1.59324699779972E-05,9.31640625,0,0
4.50665356765967E-06,-1.36625440063654E-05,9.31640625,0,0
5.26108078702237E-06,-1.65687652042834E-05,9.31640625,0,0
3.26430790664745E-06,-1.51695439853938E-05,9.31640625,0,0
2.76098444373929E-06,-1.71901174326194E-05,9.31640625,0,0
2.84565930996905E-06,-1.64034627232468E-05,9.31640625,0,0
4.11601331506972E-06,-1.68134320119862E-05,9.31640625,0,0
4.24886184191564E-06,-1.55543093569577E-05,9.31640625,0,0
3.25324299410568E-06,-1.50571149788448E-05,9.31640625,0,0
1.65781682426314E-06,-1.40221154651954E-05,9.31640625,0,0
9.21171590562153E-07,-1.22004821605515E-05,9.31640625,0,0
1.5800313803993E-06,-1.2179684745206E-05,9.31640625,0,0
1.23968891330151E-06,-1.16308274300536E-05,9.31640625,0,0
7.35588116640429E-07,-1.21471603051759E-05,9.31640625,0,0
7.43487078125327E-07,-1.07929099613102E-05,9.31640625,0,0
1.92708967006183E-06,-1.02478124972549E-05,9.31640625,0,0
2.13380189961754E-06,-1.07544274214888E-05,9.31640625,0,0
1.57458157445944E-06,-1.46662932820618E-05,9.31640625,0,0
4.79783977880288E-07,-1.62687592819566E-05,9.31640625,0,0
1.30017951960326E-07,-1.5050160982355E-05,9.31640625,0,0
-9.46951274727326E-07,-1.2490531844378E-05,9.31640625,0,0
-2.75597562904295E-06,-1.30272646856611E-05,9.31640625,0,0
-3.83676388082677E-06,-1.37790575536201E-05,9.31640625,0,0
-1.80628512680414E-06,-1.34533511300106E-05,9.31640625,0,0
1.10900123218016E-06,-1.37959668791154E-05,9.31640625,0,0
1.96888754544489E-06,-1.47607843246078E-05,9.31640625,0,0
-4.00883521933793E-07,-1.29427944557392E-05,9.31640625,0,0
-1.3749825029663E-06,-1.90315713552991E-05,9.31640625,0,0
-3.18770844387473E-07,-1.48498556882259E-05,9.31640625,0,0
2.01396028387535E-06,-1.70180082932347E-05,9.31640625,0,0
2.03516106012103E-06,-1.22428518807283E-05,9.31640625,0,0
1.20890388188855E-06,-1.24884973047301E-05,9.31640625,0,0
1.10652240437048E-06,-1.22126775750075E-05,9.31640625,0,0
3.8109956790322E-07,-1.55362959048944E-05,9.31640625,0,0
-2.37724520957272E-06,-1.66797963174758E-05,9.31640625,0,0
-4.70210261482862E-06,-1.63807271746919E-05,9.31640625,0,0
-3.61522393177438E-06,-1.69952108990401E-05,9.31640625,0,0
6.15152544014563E-07,-1.74557280843146E-05,9.31640625,0,0
5.38640961167403E-06,-1.77416750375414E-05,9.31640625,0,0
7.38452445148141E-06,-1.62234864546917E-05,9.31640625,0,0
6.78339392834459E-06,-1.67149573826464E-05,9.31640625,0,0
6.11064524491667E-06,-1.63250770128798E-05,9.31640625,0,0
6.69804103381466E-06,-1.75551595020806E-05,9.31640625,0,0
7.81028120400151E-06,-1.67365269589936E-05,9.31640625,0,0
8.65380843606545E-06,-1.65669298439752E-05,9.31640625,0,0
9.89221007330343E-06,-1.62801206897711E-05,9.31640625,0,0
1.07675041363109E-05,-1.75086861418094E-05,9.31640625,0,0
1.02788135336596E-05,-1.7715281501296E-05,9.31640625,0,0
1.00046454463154E-05,-1.8418593754177E-05,9.31640625,0,0
1.00196257335483E-05,-1.96796008822275E-05,9.31640625,0,0
1.02918793345452E-05,-2.18027562368661E-05,9.31640625,0,0
1.0296710570401E-05,-2.30604964599479E-05,9.31640625,0,0
7.51724383007968E-06,-2.2623682525591E-05,9.31640625,0,0
3.2582065614406E-06,-1.79668495547958E-05,9.31640625,0,0
3.99712735088542E-06,-2.46270410571015E-05,9.31640625,0,0
2.44797615778225E-06,-1.61051611939911E-05,9.31640625,0,0
2.62903631664813E-06,-1.94394215213833E-05,9.31640625,0,0
1.37053689286404E-06,-1.67198541021207E-05,9.31640625,0,0
1.8617947716848E-06,-2.09388508665143E-05,9.31640625,0,0
1.26986481063796E-06,-2.0724093701574E-05,9.31640625,0,0
2.29351508096443E-06,-2.24609811994014E-05,9.31640625,0,0
2.17416209125076E-06,-2.15962136280723E-05,9.31640625,0,0
2.00801196115208E-06,-2.10703128686873E-05,9.31640625,0,0
2.389817382209E-06,-2.01213824766455E-05,9.31640625,0,0
3.29762656292587E-06,-1.88103604159551E-05,9.31640625,0,0
3.95015104004415E-06,-1.90747268788982E-05,9.31640625,0,0
3.46639444614993E-06,-1.77587389771361E-05,9.31640625,0,0
3.18941783916671E-06,-1.88849971891614E-05,9.31640625,0,0
2.60328533840948E-06,-1.93786709132837E-05,9.31640625,0,0
2.43670569943788E-06,-2.25933836190961E-05,9.31640625,0,0
1.54192298396083E-06,-2.16563730646158E-05,9.31640625,0,0
1.13219243758067E-06,-1.96410674107028E-05,9.31640625,0,0
2.26664766955764E-07,-1.6125764886965E-05,9.31640625,0,0
-3.72959078731583E-07,-1.63362019520719E-05,9.31640625,0,0
-1.14764770842157E-06,-1.73620665009366E-05,9.31640625,0,0
-7.7406940590663E-07,-1.8842241843231E-05,9.31640625,0,0
-2.65325240889069E-07,-1.81336381501751E-05,9.31640625,0,0
5.55856786377262E-07,-1.70037092175335E-05,9.31640625,0,0
5.44434556104534E-07,-1.43564311656519E-05,9.31640625,0,0
-5.77888897623779E-07,-1.25124579426483E-05,9.31640625,0,0
5.62849720608938E-07,-9.97335610009031E-06,9.31640625,0,0
3.25341648022004E-06,-1.25124124679132E-05,9.31640625,0,0
6.26077962806448E-06,-7.5006328188465E-06,9.31640625,0,0
7.06488799551153E-06,-1.066601362254E-05,9.31640625,0,0
6.56795646136743E-06,-9.6701742222649E-06,9.31640625,0,0
5.84981353313196E-06,-1.20344902825309E-05,9.31640625,0,0
5.10130985276192E-06,-1.2711026101897E-05,9.31640625,0,0
3.76902380594402E-06,-1.50746982399141E-05,9.31640625,0,0
3.00007263831503E-06,-1.55103298311587E-05,11.07421875,0,0
8.87202702415379E-07,-1.55370235006558E-05,11.07421875,0,0
-1.67937412243191E-06,-1.57676677190466E-05,11.07421875,0,0
-2.86508657154627E-06,-1.54721255967161E-05,11.07421875,0,0
-2.40008284890791E-06,-1.63430959219113E-05,11.07421875,0,0
-1.83341171577922E-06,-1.65903838933446E-05,11.07421875,0,0
-1.73425610228151E-06,-1.70126440934837E-05,11.07421875,0,0
-5.83754967919958E-07,-1.44064642881858E-05,11.07421875,0,0
1.72868328718323E-06,-1.30275629999232E-05,11.07421875,0,0
3.14591557071253E-06,-1.22950032164226E-05,11.07421875,0,0
2.21028039959492E-06,-1.37943034133059E-05,11.07421875,0,0
1.424556216989E-06,-1.43547249535914E-05,11.07421875,0,0
1.4516400597131E-06,-1.48783201439073E-05,11.07421875,0,0
2.54838710134209E-06,-1.4652843674412E-05,11.07421875,0,0
4.2476631278987E-06,-1.44857240229612E-05,11.07421875,0,0
5.32634749106364E-06,-1.33455087052425E-05,11.07421875,0,0
6.51278651275788E-06,-1.31857123051304E-05,11.07421875,0,0
7.77612422098173E-06,-1.48974422700121E-05,11.07421875,0,0
7.38302560421289E-06,-1.73311709659174E-05,11.07421875,0,0
4.47921229351778E-06,-1.42972085086512E-05,11.07421875,0,0
5.21691072208341E-06,-2.13711809919914E-05,11.07421875,0,0
1.86905322152597E-06,-1.80240094778128E-05,11.07421875,0,0
1.74533647623321E-06,-2.18650493479799E-05,11.07421875,0,0
6.56687973332737E-07,-1.75867298821686E-05,11.07421875,0,0
2.00257727556163E-06,-1.95801076188218E-05,11.07421875,0,0
8.73041869908775E-07,-2.03407143999357E-05,11.07421875,0,0
-1.68633221164782E-07,-2.36435207625618E-05,11.07421875,0,0
-2.01938360078202E-06,-2.43405575020006E-05,11.07421875,0,0
-2.71281828645442E-06,-2.40260269492865E-05,11.07421875,0,0
-2.54492920248595E-06,-2.40438112086849E-05,11.07421875,0,0
-2.67121231445344E-06,-2.24016257561743E-05,11.07421875,0,0
-2.52122390520526E-06,-2.14344236155739E-05,11.07421875,0,0
-1.84036719019787E-06,-2.07696648431011E-05,11.07421875,0,0
-5.83123494379834E-07,-2.19322118937271E-05,11.07421875,0,0
-1.37387655740895E-06,-1.96971850527916E-05,11.07421875,0,0
-2.52342465500988E-06,-1.80293718585745E-05,11.07421875,0,0
-2.69739803115954E-06,-1.57124650286278E-05,11.07421875,0,0
-3.98295782133573E-07,-1.56683272507507E-05,11.07421875,0,0
8.26233076622884E-07,-1.49999304994708E-05,11.07421875,0,0
3.66849377542167E-07,-1.45500707731117E-05,11.07421875,0,0
-1.46098784625792E-06,-1.37430497488822E-05,11.07421875,0,0
-2.40751705860021E-06,-1.43673551065149E-05,11.07421875,0,0
-2.03296713152668E-06,-1.3790869161312E-05,11.07421875,0,0
-1.97749287167426E-07,-1.35256286739605E-05,11.07421875,0,0
1.62325193286961E-06,-1.47489117807709E-05,11.07421875,0,0
2.60719593825343E-06,-1.68442093126941E-05,11.07421875,0,0
2.33480204769876E-06,-1.45805079228012E-05,11.07421875,0,0
4.05809578296612E-06,-1.9771772713284E-05,11.07421875,0,0
6.07745914749103E-06,-1.4965919945098E-05,11.07421875,0,0
9.28395911614643E-06,-1.99417154362891E-05,11.07421875,0,0
9.60556280915625E-06,-1.74530377989868E-05,11.07421875,0,0
9.48738397710258E-06,-2.01780167117249E-05,11.07421875,0,0
8.47923911351245E-06,-1.9321674699313E-05,11.07421875,0,0
9.14962765818927E-06,-2.07267512450926E-05,11.07421875,0,0
9.43774921324803E-06,-1.92696406884352E-05,11.07421875,0,0
8.77475940797012E-06,-1.77028705365956E-05,11.07421875,0,0
8.02979138825322E-06,-1.65947258210508E-05,11.07421875,0,0
7.1159151957545E-06,-1.59726023412077E-05,11.07421875,0,0
7.07185472492711E-06,-1.73753815033706E-05,11.07421875,0,0
6.86059638610459E-06,-1.7389433196513E-05,11.07421875,0,0
6.67090534989256E-06,-1.85291264642728E-05,11.07421875,0,0
5.34539185537142E-06,-1.69471022672951E-05,11.07421875,0,0
4.45251407654723E-06,-1.71789179148618E-05,11.07421875,0,0
4.13258021580987E-06,-1.71769042935921E-05,11.07421875,0,0
4.76604509458411E-06,-1.97526551346527E-05,11.07421875,0,0
5.2255745686125E-06,-2.03935160243418E-05,11.07421875,0,0
4.7941762204573E-06,-2.16375483432785E-05,11.07421875,0,0
3.43507917932584E-06,-2.11209844565019E-05,11.07421875,0,0
2.67501559392258E-06,-2.09665795409819E-05,11.07421875,0,0
3.37638925884676E-06,-1.99035894183908E-05,11.07421875,0,0
4.43250928583439E-06,-1.89431775652338E-05,11.07421875,0,0
4.18913987232372E-06,-1.65979727171361E-05,11.07421875,0,0
2.40642725657381E-06,-1.48052677104715E-05,11.07421875,0,0
9.61324417403375E-07,-1.22598466987256E-05,11.07421875,0,0
1.34683398300695E-06,-1.83310949068982E-05,11.07421875,0,0
1.41919349516684E-06,-1.38557825266616E-05,11.07421875,0,0
3.18081652039837E-06,-1.54635799844982E-05,11.07421875,0,0
3.83807991966023E-06,-1.24561365737463E-05,11.07421875,0,0
3.04480590784806E-06,-1.50268906509154E-05,11.07421875,0,0
2.51107439908083E-06,-1.57235444930848E-05,11.07421875,0,0
2.45213254856935E-06,-1.74692213477101E-05,11.07421875,0,0
2.41402267420199E-06,-1.81741906999378E-05,11.07421875,0,0
2.54427322943229E-06,-1.82343555934494E-05,11.07421875,0,0
1.815918722059E-06,-1.76322464540135E-05,11.07421875,0,0
4.15926166397185E-07,-1.68398237292422E-05,11.07421875,0,0
-9.32470925363305E-07,-1.68191672855755E-05,11.07421875,0,0
-1.90615867268207E-06,-1.59081610036083E-05,11.07421875,0,0
-1.43589602430438E-06,-1.67001599038485E-05,11.07421875,0,0
1.11508813915862E-06,-1.65643086802447E-05,11.07421875,0,0
4.09813674195902E-06,-1.75476106960559E-05,11.07421875,0,0
4.28840303356992E-06,-1.65387482411461E-05,11.07421875,0,0
2.8658696464845E-06,-1.56620499183191E-05,11.07421875,0,0
3.02358535009262E-06,-1.47224818647373E-05,11.07421875,0,0
4.96159964313847E-06,-1.63904151122551E-05,11.07421875,0,0
5.96027666688315E-06,-1.76872890733648E-05,11.07421875,0,0
5.43701389688067E-06,-1.85901262739208E-05,11.07421875,0,0
4.75769502372714E-06,-1.85415738087613E-05,11.07421875,0,0
5.73719216845348E-06,-1.88075900950935E-05,11.07421875,0,0
8.34856109577231E-06,-1.9731331121875E-05,11.07421875,0,0
9.18036585062509E-06,-1.98465550056426E-05,11.07421875,0,0
5.97225107412669E-06,-1.45663361763582E-05,11.07421875,0,0
7.21826336302911E-06,-1.92609750229167E-05,11.07421875,0,0
4.94196274303249E-06,-1.35539385155425E-05,11.07421875,0,0
7.89211662777234E-06,-1.81723880814388E-05,11.07421875,0,0
6.26147584625869E-06,-1.54631252371473E-05,11.07421875,0,0
