biceps_emg, triceps_emg, subject_position, position_estimate, brace_position
-2.24627547140699E-05,8.43030557007296E-06,1.40625,0,0.00862881311360449
-2.33536738960538E-05,1.03788224805612E-05,1.40625,0,0.00862881311360449
-2.17562046600506E-05,1.19891610665945E-05,1.40625,0,0.00862881311360449
-2.29227589443326E-05,1.23888839880237E-05,1.40625,0,0.00862881311360449
-2.31057783821598E-05,1.16749615699518E-05,1.40625,0,0.00862881311360449
-2.37450858548982E-05,1.17294339361251E-05,1.40625,0,0.00862881311360449
-2.31204103329219E-05,1.30341904878151E-05,1.40625,0,0.00862881311360449
-2.43645117734559E-05,1.35735608637333E-05,1.40625,0,0.00862881311360449
-2.66278766503092E-05,1.31234610307729E-05,1.40625,0,0.00862881311360449
-2.81853590422543E-05,1.26144032037701E-05,1.40625,0,0.00862881311360449
-2.28701192099834E-05,9.51076526689576E-06,1.40625,0,0.00862881311360449
-3.10664509015623E-05,1.31718998090946E-05,1.40625,0,0.00862881311360449
-2.12844261113787E-05,1.08699887277908E-05,1.40625,0,0.00862881311360449
-2.66352781181922E-05,1.37544848257676E-05,1.40625,0,0.00862881311360449
-2.23954539251281E-05,1.00055749499006E-05,1.40625,0,0.00862881311360449
-2.69696301984368E-05,1.11916315290728E-05,1.40625,0,0.00862881311360449
-2.526802563807E-05,1.00681372714462E-05,1.40625,0,0.00862881311360449
-2.69850279437378E-05,9.80396907834802E-06,1.40625,0,0.00862881311360449
-2.64342324953759E-05,9.59125645749737E-06,1.40625,0,0.00862881311360449
-2.59729476965731E-05,1.12195057226927E-05,1.40625,0,0.00862881311360449
-2.55833783739945E-05,1.25453152577393E-05,1.40625,0,0.00862881311360449
-2.53284306381829E-05,1.29237905639457E-05,1.40625,0,0.00862881311360449
-2.68964377028169E-05,1.18165253297775E-05,1.40625,0,0.00862881311360449
-2.53162161243381E-05,7.95618962001754E-06,1.40625,0,0.00862881311360449
-2.61978984781308E-05,7.22481263437658E-06,1.40625,0,0.00862881311360449
-2.5604782422306E-05,8.52269386086846E-06,1.40625,0,0.00862881311360449
-2.75134934781818E-05,1.16838973553968E-05,1.40625,0,0.00862881311360449
-2.6240486477036E-05,1.21416460387991E-05,1.40625,0,0.00862881311360449
-2.73673886113102E-05,1.24291491374606E-05,1.40625,0,0.00862881311360449
-2.61726745520718E-05,1.20612912724027E-05,1.40625,0,0.00862881311360449
-2.70767304755282E-05,1.30729513330152E-05,1.40625,0,0.00862881311360449
-2.68522289843531E-05,1.39085914270254E-05,1.40625,0,0.00862881311360449
-2.7769985535997E-05,1.5531813915004E-05,1.40625,0,0.00862881311360449
-2.70135806204053E-05,1.53080509335268E-05,1.40625,0,0.00862881311360449
-2.61131808656501E-05,1.37175557028968E-05,1.40625,0,0.00862881311360449
-2.53777652687859E-05,1.16384026114247E-05,1.40625,0,0.00862881311360449
-2.557110201451E-05,1.12102425191551E-05,1.40625,0,0.00862881311360449
-2.12522427318618E-05,9.13365965971025E-06,1.40625,0,0.00862881311360449
-3.05691610265058E-05,1.29539102999843E-05,1.40625,0,0.00862881311360449
-2.47336611209903E-05,1.1917721167265E-05,1.40625,0,0.00862881311360449
-3.07720511045773E-05,1.65218007168733E-05,1.40625,0,0.00862881311360449
-2.60442338912981E-05,1.5227993571898E-05,1.40625,0,0.00862881311360449
-2.90827829303453E-05,1.67223934113281E-05,1.40625,0,0.00862881311360449
-2.61745208263164E-05,1.33528556034435E-05,1.40625,0,0.00862881311360449
-2.62984249275178E-05,1.28146548377117E-05,1.40625,0,0.00862881311360449
-2.51411638600985E-05,1.62932174134767E-05,1.40625,0,0.00862881311360449
-2.51104211201891E-05,2.07458433578722E-05,1.40625,0,0.00862881311360449
-2.45599585468881E-05,2.26430147449719E-05,1.40625,0,0.00862881311360449
-2.27584241656587E-05,2.05997384910006E-05,1.40625,0,0.00862881311360449
-2.27102027565707E-05,1.62570522661554E-05,1.40625,0,0.00862881311360449
-2.10841390071437E-05,1.09663533294224E-05,1.40625,0,0.00862881311360449
-2.25122457777616E-05,9.75026887317654E-06,1.40625,0,0.00862881311360449
-2.20134115807014E-05,9.69528900895966E-06,1.40625,0,0.00862881311360449
-2.42239493672969E-05,8.9282875705976E-06,1.40625,0,0.00862881311360449
-2.44794191530673E-05,4.28182147516054E-06,1.40625,0,0.00862881311360449
-2.67896048171679E-05,2.13197338894133E-07,1.40625,0,0.00862881311360449
-2.65429334831424E-05,-1.66634970355517E-06,1.40625,0,0.00862881311360449
-2.66683364316123E-05,1.73899218225415E-06,1.40625,0,0.00862881311360449
-2.46006493398454E-05,6.29089572612429E-06,1.40625,0,0.00862881311360449
-2.42313726630528E-05,9.5202249212889E-06,1.40625,0,0.00862881311360449
-2.36107225646265E-05,1.10512837636634E-05,1.40625,0,0.00862881311360449
-2.44663860939909E-05,1.38192508529755E-05,1.40625,0,0.00862881311360449
-2.43456925090868E-05,1.53482797031756E-05,1.40625,0,0.00862881311360449
-2.30924906645669E-05,1.4156131328491E-05,1.40625,0,0.00862881311360449
-1.70350922417128E-05,9.66976676863851E-06,1.40625,0,0.00862881311360449
-2.28587960009463E-05,1.29480122268433E-05,1.40625,0,0.00862881311360449
-1.62886353791691E-05,8.82216227182653E-06,1.40625,0,0.00862881311360449
-2.17885426536668E-05,1.21088260129909E-05,1.40625,0,0.00862881311360449
-1.91077069757739E-05,1.07403275251272E-05,1.40625,0,0.00862881311360449
-2.20265483221738E-05,1.0570943231869E-05,1.40625,0,0.00862881311360449
-1.94239200936863E-05,6.76190529702581E-06,1.40625,0,0.00862881311360449
-1.95278862520354E-05,5.3222997848934E-06,1.40625,0,0.00862881311360449
-1.90553037100472E-05,5.57809698875644E-06,1.40625,0,0.00862881311360449
-1.91393955901731E-05,7.36391666578129E-06,1.40625,0,0.00862881311360449
-1.9782852177741E-05,7.36347737984033E-06,1.40625,0,0.00862881311360449
-2.04736261366634E-05,6.04537535764393E-06,1.40625,0,0.00862881311360449
-2.24466166400816E-05,6.91135664965259E-06,1.40625,0,0.00862881311360449
-2.16067783185281E-05,8.34628372103907E-06,1.40625,0,0.00862881311360449
-2.1583433408523E-05,9.48989872995298E-06,1.40625,0,0.00862881311360449
-1.98282523342641E-05,8.42781537357951E-06,1.40625,0,0.00862881311360449
-2.05561627808493E-05,9.36349624680588E-06,1.40625,0,0.00862881311360449
-1.98546767933294E-05,9.817915270105E-06,1.40625,0,0.00862881311360449
-2.05825690500205E-05,9.6646826932556E-06,1.40625,0,0.00862881311360449
-1.91627514141146E-05,8.01332225819351E-06,1.40625,0,0.00862881311360449
-1.86016768566333E-05,9.51614310906734E-06,1.40625,0,0.00862881311360449
-1.72452600963879E-05,1.16010969577474E-05,1.40625,0,0.00862881311360449
-1.83562242455082E-05,1.23813115351368E-05,1.40625,0,0.00862881311360449
-1.92177139979322E-05,1.01778168755118E-05,1.40625,0,0.00862881311360449
-2.00800750462804E-05,8.30827775644138E-06,1.40625,0,0.00862881311360449
-2.09239678952144E-05,7.861935046094E-06,1.40625,0,0.00862881311360449
-2.20320725929923E-05,7.8919965744717E-06,1.40625,0,0.00862881311360449
-1.75671320903348E-05,6.13802330917679E-06,1.40625,0,0.00862881311360449
-2.46974323090399E-05,5.66981816518819E-06,1.40625,0,0.00862881311360449
-1.88994490599725E-05,-1.41715474910598E-07,1.40625,0,0.00862881311360449
-2.42445930780377E-05,8.50727758461289E-07,1.40625,0,0.00862881311360449
-2.08252713491675E-05,2.33531977755774E-06,1.40625,0,0.00862881311360449
-2.38293487200281E-05,9.01924704521662E-06,1.40625,0,0.00862881311360449
-2.27886594075244E-05,1.13583291749819E-05,1.40625,0,0.00862881311360449
-2.40543467953103E-05,1.25927099361434E-05,1.40625,0,0.00862881311360449
-2.35296320170164E-05,1.41387090479839E-05,1.40625,0,0.00862881311360449
-2.36955584114185E-05,1.57584072439931E-05,1.40625,0,0.00862881311360449
-2.36266532738227E-05,1.60433210112387E-05,1.40625,0,0.00862881311360449
-2.25594467337942E-05,1.4711626135977E-05,1.40625,0,0.00862881311360449
-2.33275513892295E-05,1.37458582685213E-05,1.40625,0,0.00862881311360449
-2.28120115934871E-05,1.29381514852867E-05,1.40625,0,0.00862881311360449
-2.4603748897789E-05,1.34307674670708E-05,1.40625,0,0.00862881311360449
-2.4824103093124E-05,1.24338494060794E-05,1.40625,0,0.00862881311360449
-2.6503432309255E-05,1.24638918350684E-05,1.40625,0,0.00862881311360449
-2.53109155892162E-05,1.23189074656693E-05,1.40625,0,0.00862881311360449
-2.61829518422019E-05,1.18500647658948E-05,1.40625,0,0.00862881311360449
-2.69297688646475E-05,9.11995994101744E-06,1.40625,0,0.00862881311360449
-2.89623530989047E-05,7.76963679527398E-06,1.40625,0,0.00862881311360449
-2.9059978260193E-05,8.10327946965117E-06,1.40625,0,0.00862881311360449
-2.94150595436804E-05,1.00723300420213E-05,1.40625,0,0.00862881311360449
-2.89122799586039E-05,1.1699602509907E-05,1.40625,0,0.00862881311360449
-2.9193855880294E-05,1.25602446132689E-05,1.40625,0,0.00862881311360449
-2.84460638795281E-05,1.37901697598863E-05,1.40625,0,0.00862881311360449
-2.78152183454949E-05,1.50710684465594E-05,1.40625,0,0.00862881311360449
-2.27338477998273E-05,1.26574450405315E-05,1.40625,0,0.00862881311360449
-3.19249047606718E-05,1.93166906683473E-05,1.40625,0,0.00862881311360449
-2.3043710825732E-05,1.73917414940661E-05,1.40625,0,0.00862881311360449
-2.63934689428424E-05,2.12169525184436E-05,1.40625,0,0.00862881311360449
-2.00688518816605E-05,1.56587739184033E-05,1.40625,0,0.00862881311360449
-2.46005984081421E-05,1.3387809303822E-05,1.40625,0,0.00862881311360449
-2.30360510613536E-05,1.07649048004532E-05,1.40625,0,0.00862881311360449
-2.39728233282221E-05,1.28009069157997E-05,1.40625,0,0.00862881311360449
-2.28628450713586E-05,1.40043321152916E-05,1.40625,0,0.00862881311360449
-2.27391774387797E-05,1.40240081236698E-05,1.40625,0,0.00862881311360449
-2.34441995417001E-05,1.28402271002415E-05,1.40625,0,0.00862881311360449
-2.39961209445028E-05,1.20039776447811E-05,1.40625,0,0.00862881311360449
-2.60145006905077E-05,1.44821215144475E-05,1.40625,0,0.00862881311360449
-2.46104355028365E-05,1.67057278304128E-05,1.40625,0,0.00862881311360449
-2.40038189076586E-05,1.78254176717019E-05,1.40625,0,0.00862881311360449
-2.10456564673223E-05,1.4792826732446E-05,1.40625,0,0.00862881311360449
-2.23612223635428E-05,1.29322788779973E-05,1.40625,0,0.00862881311360449
-2.24342657020316E-05,1.16960600280436E-05,1.40625,0,0.00862881311360449
-2.45331266341964E-05,1.29966756503563E-05,1.40625,0,0.00862881311360449
-2.35666757362196E-05,1.24823300211574E-05,1.40625,0,0.00862881311360449
-2.38265929510817E-05,1.04882765299408E-05,1.40625,0,0.00862881311360449
-2.25404710363364E-05,6.2143099057721E-06,1.40625,0,0.00862881311360449
-2.26839165407E-05,4.68952930532396E-06,1.40625,0,0.00862881311360449
-2.31967715080827E-05,4.15636532125063E-06,1.40625,0,0.00862881311360449
-2.45114388235379E-05,3.68302926290198E-06,1.40625,0,0.00862881311360449
-2.43077793129487E-05,3.39577059094154E-06,1.40625,0,0.00862881311360449
-2.52008467214182E-05,5.08671791976667E-06,1.40625,0,0.00862881311360449
-2.09882600756828E-05,6.95845756126801E-06,1.40625,0,0.00862881311360449
-2.91217293124646E-05,1.14316453618812E-05,1.40625,0,0.00862881311360449
-2.06421100301668E-05,1.08406884464785E-05,1.40625,0,0.00862881311360449
-2.50748689722968E-05,1.14385848064558E-05,1.40625,0,0.00862881311360449
-2.14845058508217E-05,6.94312302584876E-06,1.40625,0,0.00862881311360449
-2.64089831034653E-05,6.48995637675398E-06,1.40625,0,0.00862881311360449
-2.47119223786285E-05,6.95453627486131E-06,1.40625,0,0.00862881311360449
-2.47085808950942E-05,8.59137981024105E-06,1.40625,0,0.00862881311360449
-2.24125906242989E-05,9.21173250389984E-06,1.40625,0,0.00862881311360449
-2.06750628422014E-05,8.77807451615809E-06,1.40625,0,0.00862881311360449
-1.97023891814752E-05,8.14338091004174E-06,1.40625,0,0.00862881311360449
-1.92049847100861E-05,7.80407572165132E-06,1.40625,0,0.00862881311360449
-2.158591269108E-05,9.10071594262263E-06,1.40625,0,0.00862881311360449
-2.15640957321739E-05,9.6023031801451E-06,1.40625,0,0.00862881311360449
-2.33021310123149E-05,1.07652567749028E-05,1.40625,0,0.00862881311360449
-2.3211778170662E-05,1.13422720460221E-05,1.40625,0,0.00862881311360449
-2.4700579160708E-05,1.14671247501974E-05,1.40625,0,0.00862881311360449
-2.19856683543185E-05,9.92309378489153E-06,1.40625,0,0.00862881311360449
-2.1368190573412E-05,9.03561067389091E-06,1.40625,0,0.00862881311360449
-2.14878637052607E-05,8.79996969160857E-06,1.40625,0,0.00862881311360449
-2.44956372625893E-05,1.08967406049487E-05,1.40625,0,0.00862881311360449
-2.45391311182175E-05,1.29811287479242E-05,1.40625,0,0.00862881311360449
-2.45001410803525E-05,1.24783537103212E-05,1.40625,0,0.00862881311360449
-2.38766788243083E-05,9.68697895586956E-06,1.40625,0,0.00862881311360449
-2.38484408328077E-05,8.58195926412009E-06,1.40625,0,0.00862881311360449
-2.32023776334245E-05,9.54509596340358E-06,1.40625,0,0.00862881311360449
-2.24910800170619E-05,1.04679920696071E-05,1.40625,0,0.00862881311360449
-1.9217424778617E-05,9.66271545621566E-06,1.40625,0,0.00862881311360449
-2.75263064395403E-05,1.53214259626111E-05,1.40625,0,0.00862881311360449
-2.14541159948567E-05,1.30114312923979E-05,1.40625,0,0.00862881311360449
-2.62953599303728E-05,1.31478527691797E-05,1.40625,0,0.00862881311360449
-2.18631757888943E-05,8.29609234642703E-06,1.40625,0,0.00862881311360449
-2.35574425460072E-05,7.8362309068325E-06,1.40625,0,0.00862881311360449
-2.0727771698148E-05,5.9417097872938E-06,1.40625,0,0.00862881311360449
-2.1543311959249E-05,7.94132483861176E-06,1.40625,0,0.00862881311360449
-2.13883504329715E-05,1.07494352050708E-05,1.40625,0,0.00862881311360449
-2.19803569052601E-05,1.2342939953669E-05,1.40625,0,0.00862881311360449
-2.2356012777891E-05,1.26352488223347E-05,1.40625,0,0.00862881311360449
-2.3130101908464E-05,1.18935886348481E-05,1.40625,0,0.00862881311360449
-2.58905783994123E-05,1.13039286588901E-05,1.40625,0,0.00862881311360449
-2.59814551100135E-05,9.33681803871877E-06,1.40625,0,0.00862881311360449
-2.66981860477244E-05,9.01924613572191E-06,1.40625,0,0.00862881311360449
-2.43526392296189E-05,8.56480255606584E-06,1.40625,0,0.00862881311360449
-2.44913844653638E-05,1.00994666354381E-05,1.40625,0,0.00862881311360449
-2.34871858992847E-05,1.11640083559905E-05,1.40625,0,0.00862881311360449
-2.47587995545473E-05,1.15759194159182E-05,1.40625,0,0.00862881311360449
-2.39676173805492E-05,9.39251640375005E-06,1.40625,0,0.00862881311360449
-2.45461505983258E-05,7.9431410995312E-06,1.40625,0,0.00862881311360449
-2.36600990319857E-05,7.12821656634333E-06,1.40625,0,0.00862881311360449
-2.43909016717225E-05,7.38272410671925E-06,1.40625,0,0.00862881311360449
-2.54860733548412E-05,7.84713756729616E-06,1.40625,0,0.00862881311360449
-2.64782629528781E-05,8.58275416248944E-06,1.40625,0,0.00862881311360449
-2.51352412306005E-05,8.89133571035927E-06,1.40625,0,0.00862881311360449
-2.39718556258595E-05,9.17761190066813E-06,1.40625,0,0.00862881311360449
-2.11184342333581E-05,7.49467062632903E-06,1.40625,0,0.00862881311360449
-3.12921620206907E-05,9.84764392342186E-06,1.40625,0,0.00862881311360449
-2.52948575507617E-05,6.59367242406006E-06,1.40625,0,0.00862881311360449
-3.1173818570096E-05,8.62592423800379E-06,1.40625,0,0.00862881311360449
-2.6222005544696E-05,8.09567427495494E-06,1.40625,0,0.00862881311360449
-2.70175387413474E-05,1.19722899398766E-05,1.40625,0,0.00862881311360449
-2.39150340348715E-05,1.18472144094994E-05,1.40625,0,0.00862881311360449
-2.51105411734898E-05,9.41508733376395E-06,1.40625,0,0.00862881311360449
-2.56249768426642E-05,6.5740723584895E-06,1.40625,0,0.00862881311360449
-2.56422208622098E-05,5.91679008721258E-06,1.40625,0,0.00862881311360449
-2.4708386263228E-05,6.93536730977939E-06,1.40625,0,0.00862881311360449
-2.26226766244508E-05,8.48067611514125E-06,1.40625,0,0.00862881311360449
-2.30870609811973E-05,1.12178204290103E-05,1.40625,0,0.00862881311360449
-2.22709022636991E-05,1.40809352160431E-05,1.40625,0,0.00862881311360449
-2.27713608182967E-05,1.75750465132296E-05,1.40625,0,0.00862881311360449
-2.12336453841999E-05,1.8347514924244E-05,1.40625,0,0.00862881311360449
-2.19448156713042E-05,1.85706558113452E-05,1.40625,0,0.00862881311360449
-2.05335272767115E-05,1.82974581548478E-05,1.40625,0,0.00862881311360449
-2.16622356674634E-05,1.9851506294799E-05,1.40625,0,0.00862881311360449
-2.14735100598773E-05,2.0447183487704E-05,1.40625,0,0.00862881311360449
-2.17629967664834E-05,1.90084756468423E-05,1.40625,0,0.00862881311360449
-2.01250732061453E-05,1.47132805068395E-05,1.40625,0,0.00862881311360449
-2.05467149498872E-05,1.10493992906413E-05,1.40625,0,0.00862881311360449
-2.081117418129E-05,8.85151348484214E-06,1.40625,0,0.00862881311360449
-2.11482965823961E-05,8.07530796009814E-06,1.40625,0,0.00862881311360449
-2.15352447412442E-05,6.1311529861996E-06,1.40625,0,0.00862881311360449
-2.2150294171297E-05,2.8264498723729E-06,1.40625,0,0.00862881311360449
-1.78518330358202E-05,1.52106701989396E-06,1.40625,0,0.00862881311360449
-2.55973318417091E-05,4.73653108201688E-06,1.40625,0,0.00862881311360449
-2.03510189749068E-05,7.99125155026559E-06,1.40625,0,0.00862881311360449
-2.52774170803605E-05,1.02268440969056E-05,1.40625,0,0.00862881311360449
-2.11202350328676E-05,1.20346312542097E-05,1.40625,0,0.00862881311360449
-2.32097718253499E-05,1.22885066957679E-05,1.40625,0,0.00862881311360449
-2.15836644201772E-05,1.02622061604052E-05,1.40625,0,0.00862881311360449
-2.29339748329949E-05,9.11097777134273E-06,1.40625,0,0.00862881311360449
-2.27989239647286E-05,9.28788722376339E-06,1.40625,0,0.00862881311360449
-2.31497106142342E-05,8.949316907092E-06,1.40625,0,0.00862881311360449
-2.28998414968373E-05,8.34174807096133E-06,1.40625,0,0.00862881311360449
-2.29917532124091E-05,9.79928790911799E-06,1.40625,0,0.00862881311360449
-2.46689924097154E-05,1.21786806630553E-05,1.40625,0,0.00862881311360449
-2.27296113735065E-05,1.28116662381217E-05,1.40625,0,0.00862881311360449
-2.15275686059613E-05,1.1370826541679E-05,1.40625,0,0.00862881311360449
-1.99695750779938E-05,9.67897085502045E-06,1.40625,0,0.00862881311360449
-2.21892441913951E-05,9.02285319170915E-06,1.40625,0,0.00862881311360449
-2.21863938349998E-05,7.92009086580947E-06,1.40625,0,0.00862881311360449
-2.28148364840308E-05,6.36549202681636E-06,1.40625,0,0.00862881311360449
-2.10275884455768E-05,6.45633008389268E-06,1.40625,0,0.00862881311360449
-2.0577459508786E-05,9.19706417334965E-06,1.40625,0,0.00862881311360449
-1.98861853277776E-05,1.23950676425011E-05,1.40625,0,0.00862881311360449
-2.17931356019108E-05,1.34558486024616E-05,1.40625,0,0.00862881311360449
-2.26044612645637E-05,1.20876811706694E-05,1.40625,0,0.00862881311360449
-2.29857287195046E-05,9.97327333607245E-06,1.40625,0,0.00862881311360449
-2.2889747924637E-05,8.29804321256233E-06,1.40625,0,0.00862881311360449
-2.28908957069507E-05,8.16045303508872E-06,1.40625,0,0.00862881311360449
-1.90643877431285E-05,8.84470955497818E-06,1.40625,0,0.00862881311360449
-2.69560641754651E-05,1.28429601318203E-05,1.40625,0,0.00862881311360449
-2.03362378670136E-05,7.81875223765383E-06,1.40625,0,0.00862881311360449
-2.53575381066184E-05,6.47112983642728E-06,1.40625,0,0.00862881311360449
-2.23434308281867E-05,4.95177619086462E-06,1.40625,0,0.00862881311360449
-2.65017315541627E-05,7.95646428741748E-06,1.40625,0,0.00862881311360449
-2.53791968134465E-05,6.48771265332471E-06,1.40625,0,0.00862881311360449
-2.76076352747623E-05,5.38477752343169E-06,1.40625,0,0.00862881311360449
-2.80946660495829E-05,4.69696169602685E-06,1.40625,0,0.00862881311360449
-2.7996966309729E-05,5.34332139068283E-06,1.40625,0,0.00862881311360449
-2.65354829025455E-05,6.47877095616423E-06,1.40625,0,0.00862881311360449
-2.39480596064823E-05,8.73184308147756E-06,1.40625,0,0.00862881311360449
-2.45920164161362E-05,1.13879414129769E-05,1.40625,0,0.00862881311360449
-2.47950483753812E-05,1.05502958831494E-05,1.40625,0,0.00862881311360449
-2.70320360868936E-05,8.59254578244872E-06,1.40625,0,0.00862881311360449
-2.62420799117535E-05,6.90051729179686E-06,1.40625,0,0.00862881311360449
-2.67821087618358E-05,8.75409205036704E-06,1.40625,0,0.00862881311360449
-2.56852490565507E-05,1.1040806384699E-05,1.40625,0,0.00862881311360449
-2.71512835752219E-05,1.31250162667129E-05,1.40625,0,0.00862881311360449
-2.73490641120588E-05,1.20381910164724E-05,1.40625,0,0.00862881311360449
-2.94527471851325E-05,1.22586188808782E-05,1.40625,0,0.00862881311360449
-2.96015568892471E-05,1.43330353239435E-05,1.40625,0,0.00862881311360449
-2.92222230200423E-05,1.6542389857932E-05,1.40625,0,0.00862881311360449
-2.78923689620569E-05,1.58951552293729E-05,1.40625,0,0.00862881311360449
-2.67490413534688E-05,1.50063460750971E-05,1.40625,0,0.00862881311360449
-2.45266164711211E-05,1.47970768011874E-05,1.40625,0,0.00862881311360449
-2.44390139414463E-05,1.35453910843353E-05,1.40625,0,0.00862881311360449
-2.20661040657433E-05,1.04918199212989E-05,1.40625,0,0.00862881311360449
-3.19949249387719E-05,1.47588398249354E-05,1.40625,0,0.00862881311360449
-2.3089263777365E-05,9.53238577494631E-06,1.40625,0,0.00862881311360449
-2.68631338258274E-05,9.33494902710663E-06,1.40625,0,0.00862881311360449
-2.32947386393789E-05,5.59111913389643E-06,1.40625,0,0.00862881311360449
-2.71199714916293E-05,6.48408149572788E-06,1.40625,0,0.00862881311360449
-2.44555976678384E-05,3.88926628147601E-06,1.40625,0,0.00862881311360449
-2.49032455030829E-05,2.09153859032085E-06,1.40625,0,0.00862881311360449
-2.46033796429401E-05,1.55627742515208E-06,1.40625,0,0.00862881311360449
-2.51181681960588E-05,4.6058571570029E-06,1.40625,0,0.00862881311360449
-2.50964531005593E-05,8.74485249369172E-06,1.40625,0,0.00862881311360449
-2.28622229769826E-05,1.06418856375967E-05,1.40625,0,0.00862881311360449
-2.21037080336828E-05,1.19349078886444E-05,1.40625,0,0.00862881311360449
-2.0728290110128E-05,1.37602273753146E-05,1.40625,0,0.00862881311360449
-2.24686118599493E-05,1.77306919795228E-05,1.40625,0,0.00862881311360449
-2.23005936277332E-05,1.88925841939636E-05,1.40625,0,0.00862881311360449
-2.46600739046698E-05,1.9252114725532E-05,1.40625,0,0.00862881311360449
-2.45821884163888E-05,1.81832929229131E-05,1.40625,0,0.00862881311360449
-2.63642450590851E-05,1.87612440640805E-05,1.40625,0,0.00862881311360449
-2.65764028881677E-05,1.80354254553095E-05,1.40625,0,0.00862881311360449
-2.8067621315131E-05,1.72313102666521E-05,1.40625,0,0.00862881311360449
-2.68625753960805E-05,1.57127324200701E-05,1.40625,0,0.00862881311360449
-2.67686518782284E-05,1.4933934835426E-05,1.40625,0,0.00862881311360449
-2.63348701992072E-05,1.37051392812282E-05,1.40625,0,0.00862881311360449
-2.54815258813323E-05,1.17074205263634E-05,1.40625,0,0.00862881311360449
-2.49398162850412E-05,7.16763406671816E-06,1.40625,0,0.00862881311360449
-2.47265725192847E-05,2.45935984821699E-06,1.40625,0,0.00862881311360449
-2.0435783881112E-05,2.75655952464149E-06,1.40625,0,0.00862881311360449
-2.90121042780811E-05,8.96585970622255E-06,1.40625,0,0.00862881311360449
-2.15067702811211E-05,1.52342099681846E-05,1.40625,0,0.00862881311360449
-2.63348429143662E-05,1.71371884789551E-05,1.40625,0,0.00862881311360449
-2.18362310988596E-05,1.32493314595195E-05,1.40625,0,0.00862881311360449
-2.35738607443636E-05,9.34707350097597E-06,1.40625,0,0.00862881311360449
-2.14641604543431E-05,7.91004094935488E-06,1.40625,0,0.00862881311360449
-2.43245212914189E-05,7.68503832659917E-06,1.40625,0,0.00862881311360449
-2.50783250521636E-05,8.93122614797903E-06,1.40625,0,0.00862881311360449
-2.45983992499532E-05,9.76703177002491E-06,1.40625,0,0.00862881311360449
-2.37831045524217E-05,1.00765455499641E-05,1.40625,0,0.00862881311360449
-2.28721710300306E-05,9.75806415226543E-06,1.40625,0,0.00862881311360449
-2.35700372286374E-05,9.14146221475676E-06,1.40625,0,0.00862881311360449
-2.152473643946E-05,9.28437748370925E-06,1.40625,0,0.00862881311360449
-2.09609479497885E-05,1.04791160993045E-05,1.40625,0,0.00862881311360449
-1.90586379176239E-05,1.23503359645838E-05,1.40625,0,0.00862881311360449
-2.09793852263829E-05,1.28119118016912E-05,1.40625,0,0.00862881311360449
-2.15999298234237E-05,1.198403606395E-05,1.40625,0,0.00862881311360449
-2.32088223128812E-05,1.2000858077954E-05,1.40625,0,0.00862881311360449
-2.15887230297085E-05,1.19794458441902E-05,1.40625,0,0.00862881311360449
-2.16187727346551E-05,1.05916351458291E-05,1.40625,0,0.00862881311360449
-2.14907267945819E-05,1.03255006251857E-05,1.40625,0,0.00862881311360449
-2.28631870413665E-05,1.27448756757076E-05,1.40625,0,0.00862881311360449
-2.28543831326533E-05,1.52849879668793E-05,1.40625,0,0.00862881311360449
-2.3137485186453E-05,1.6350324585801E-05,1.40625,0,0.00862881311360449
-2.35405768762575E-05,1.59625215019332E-05,1.40625,0,0.00862881311360449
-2.37235271924874E-05,1.44429959618719E-05,1.40625,0,0.00862881311360449
-1.86678171303356E-05,1.07299465526012E-05,1.40625,0,0.00862881311360449
-2.59699590969831E-05,1.47869850479765E-05,1.40625,0,0.00862881311360449
-1.97108711290639E-05,1.1369997082511E-05,1.40625,0,0.00862881311360449
-2.46711824729573E-05,1.54100034706062E-05,1.40625,0,0.00862881311360449
-2.09547033591662E-05,1.37772876769304E-05,1.40625,0,0.00862881311360449
-2.45429473579861E-05,1.47918653965462E-05,1.40625,0,0.00862881311360449
-2.33565697271843E-05,1.00088109320495E-05,1.40625,0,0.00862881311360449
-2.57233314187033E-05,7.3037231231865E-06,1.40625,0,0.00862881311360449
-2.53517810051562E-05,7.86121927376371E-06,1.40625,0,0.00862881311360449
-2.43320610024966E-05,1.04287883004872E-05,1.40625,0,0.00862881311360449
-2.33574082812993E-05,1.08335971162887E-05,1.40625,0,0.00862881311360449
-2.22088747250382E-05,1.00260913313832E-05,1.40625,0,0.00862881311360449
-2.26457395910984E-05,1.06562920336728E-05,1.40625,0,0.00862881311360449
-2.12360209843609E-05,9.99240091914544E-06,1.40625,0,0.00862881311360449
-2.25883304665331E-05,1.02924268503557E-05,1.40625,0,0.00862881311360449
-2.20928759517847E-05,9.13437907001935E-06,1.40625,0,0.00862881311360449
-2.30922832997749E-05,8.38350570120383E-06,1.40625,0,0.00862881311360449
-2.20372166950256E-05,8.08987897471525E-06,1.40625,0,0.00862881311360449
-2.357844641665E-05,1.25165897770785E-05,1.40625,0,0.00862881311360449
-2.35063507716404E-05,1.56933128891978E-05,1.40625,0,0.00862881311360449
-2.51747587753925E-05,1.49626403072034E-05,1.40625,0,0.00862881311360449
-2.54370370385004E-05,1.02499116110266E-05,1.40625,0,0.00862881311360449
-2.53955367952585E-05,7.99987901700661E-06,1.40625,0,0.00862881311360449
-2.35719489865005E-05,7.51515790398116E-06,1.40625,0,0.00862881311360449
-2.30655605264474E-05,7.89067325968063E-06,1.40625,0,0.00862881311360449
-2.29158904403448E-05,7.90720241639065E-06,1.40625,0,0.00862881311360449
-2.2122676455183E-05,7.8520315582864E-06,1.40625,0,0.00862881311360449
-1.75825334736146E-05,6.96051301929401E-06,1.40625,0,0.00862881311360449
-2.61278510151897E-05,1.03776219475549E-05,1.40625,0,0.00862881311360449
-2.20277233893285E-05,7.92362061474705E-06,1.40625,0,0.00862881311360449
-2.70207274297718E-05,9.50010689848568E-06,1.40625,0,0.00862881311360449
-2.360863800277E-05,9.25119729799917E-06,1.40625,0,0.00862881311360449
-2.58242780546425E-05,1.07274199763197E-05,1.40625,0,0.00862881311360449
-2.23499828280183E-05,9.82855090114754E-06,1.40625,0,0.00862881311360449
-2.19016947085038E-05,9.20062484510709E-06,1.40625,0,0.00862881311360449
-2.11153710552026E-05,7.68517838878324E-06,1.40625,0,0.00862881311360449
-2.16215976251988E-05,5.71293458051514E-06,1.40625,0,0.00862881311360449
-2.27434302360052E-05,3.92852825825685E-06,1.40625,0,0.00862881311360449
-2.31596113735577E-05,4.15762224292848E-06,1.40625,0,0.00862881311360449
-2.45682404056424E-05,5.88604234508239E-06,1.40625,0,0.00862881311360449
-2.35247298405739E-05,6.27988038104377E-06,1.40625,0,0.00862881311360449
-2.41861380345654E-05,8.03938200988341E-06,1.40625,0,0.00862881311360449
-2.33804003073601E-05,1.15844368338003E-05,1.40625,0,0.00862881311360449
-2.36021369346417E-05,1.59873179654824E-05,1.40625,0,0.00862881311360449
-2.16157022805419E-05,1.70307630469324E-05,1.40625,0,0.00862881311360449
-2.26483698497759E-05,1.64339016919257E-05,1.40625,0,0.00862881311360449
-2.27743475988973E-05,1.36679054776323E-05,1.40625,0,0.00862881311360449
-2.3419241188094E-05,1.11983263195725E-05,1.40625,0,0.00862881311360449
-2.26274896704126E-05,1.09570582935703E-05,1.40625,0,0.00862881311360449
-2.31761805480346E-05,1.46870797834708E-05,1.40625,0,0.00862881311360449
-2.32605343626346E-05,1.88524791155942E-05,1.40625,0,0.00862881311360449
-2.49826643994311E-05,1.93236810446251E-05,1.40625,0,0.00862881311360449
-2.6555057047517E-05,1.44172418004018E-05,1.40625,0,0.00862881311360449
-2.58659092651214E-05,1.03988395494525E-05,1.40625,0,0.00862881311360449
-1.87870027730241E-05,8.57008672028314E-06,1.40625,0,0.00862881311360449
-2.44712664425606E-05,1.40405209094752E-05,1.40625,0,0.00862881311360449
-1.55881771206623E-05,1.23350355352159E-05,1.40625,0,0.00862881311360449
-2.11339593079174E-05,1.19295755212079E-05,1.40625,0,0.00862881311360449
-1.93132127606077E-05,8.11507925391197E-06,1.40625,0,0.00862881311360449
-2.53422531386605E-05,8.65344554767944E-06,1.40625,0,0.00862881311360449
-2.50048797170166E-05,6.94032905812492E-06,1.40625,0,0.00862881311360449
-2.56856510532089E-05,7.14023462933255E-06,1.40625,0,0.00862881311360449
-2.44876227952773E-05,7.66511584515683E-06,1.40625,0,0.00862881311360449
-2.45906867348822E-05,9.27108158066403E-06,1.40625,0,0.00862881311360449
-2.59929493040545E-05,1.10274459075299E-05,1.40625,0,0.00862881311360449
-2.61431523540523E-05,1.19787400763016E-05,1.40625,0,0.00862881311360449
-2.6993331630365E-05,1.18049065349624E-05,1.40625,0,0.00862881311360449
-2.59890730376355E-05,1.12108764369623E-05,1.40625,0,0.00862881311360449
-2.72087418125011E-05,1.28777446661843E-05,1.40625,0,0.00862881311360449
-2.59267471847124E-05,1.20123704618891E-05,1.40625,0,0.00862881311360449
-2.62051144090947E-05,8.66696063894778E-06,1.40625,0,0.00862881311360449
-2.45256997004617E-05,4.3781674321508E-06,1.40625,0,0.00862881311360449
-2.54722635872895E-05,3.8629177652183E-06,1.40625,0,0.00862881311360449
-2.52261143032229E-05,5.23750941283652E-06,1.40625,0,0.00862881311360449
-2.57325591519475E-05,7.67039819038473E-06,1.40625,0,0.00862881311360449
-2.46489707933506E-05,7.06639821146382E-06,1.40625,0,0.00862881311360449
-2.51565816142829E-05,5.73074157728115E-06,1.40625,0,0.00862881311360449
-2.48741525865626E-05,5.55178849026561E-06,1.40625,0,0.00862881311360449
-2.47344887611689E-05,6.80828543409007E-06,1.40625,0,0.00862881311360449
-2.43215617956594E-05,6.85437817082857E-06,1.40625,0,0.00862881311360449
-2.38626780628692E-05,5.39868051419035E-06,1.40625,0,0.00862881311360449
-1.90706432476873E-05,3.96603491026326E-06,1.40625,0,0.00862881311360449
-2.69507254415657E-05,5.59306590730557E-06,1.40625,0,0.00862881311360449
-2.07202738238266E-05,5.5620939747314E-06,1.40625,0,0.00862881311360449
-2.54339229286416E-05,8.89113835000899E-06,1.40625,0,0.00862881311360449
-2.08908677450381E-05,9.02419833437307E-06,1.40625,0,0.00862881311360449
-2.4693403247511E-05,9.47933585848659E-06,1.40625,0,0.00862881311360449
-2.52632380579598E-05,8.6781528807478E-06,1.40625,0,0.00862881311360449
-2.85966634692159E-05,8.47097726364154E-06,1.40625,0,0.00862881311360449
-2.81685497611761E-05,8.70090207172325E-06,1.40625,0,0.00862881311360449
-2.7377236619941E-05,8.13748101791134E-06,1.40625,0,0.00862881311360449
-2.67407503997674E-05,6.70402778268908E-06,1.40625,0,0.00862881311360449
-2.51434448728105E-05,6.11100358582917E-06,1.40625,0,0.00862881311360449
-2.50114771915833E-05,7.49138962419238E-06,1.40625,0,0.00862881311360449
-2.37750264204806E-05,8.4899329522159E-06,1.40625,0,0.00862881311360449
-2.53967755270423E-05,9.40231893764576E-06,1.40625,0,0.00862881311360449
-2.45785595325287E-05,1.04970386018977E-05,1.40625,0,0.00862881311360449
-2.58112286246615E-05,1.27477214846294E-05,1.40625,0,0.00862881311360449
-2.53715479630046E-05,1.47567980093299E-05,1.40625,0,0.00862881311360449
-2.60683991655242E-05,1.65504334290745E-05,1.40625,0,0.00862881311360449
-2.38528627960477E-05,1.67885573318927E-05,1.40625,0,0.00862881311360449
-2.31586454901844E-05,1.69697123055812E-05,1.40625,0,0.00862881311360449
-2.19675712287426E-05,1.66663267009426E-05,1.40625,0,0.00862881311360449
-2.32863985729637E-05,1.56946971401339E-05,1.40625,0,0.00862881311360449
-2.44175043917494E-05,1.60691270139068E-05,1.40625,0,0.00862881311360449
-2.44978655246086E-05,1.84339951374568E-05,1.40625,0,0.00862881311360449
-2.39873861573869E-05,1.88545327546308E-05,1.40625,0,0.00862881311360449
-2.47156258410541E-05,1.72564195963787E-05,1.40625,0,0.00862881311360449
-2.01566654141061E-05,1.38686518766917E-05,1.40625,0,0.00862881311360449
-2.77127273875522E-05,2.18616150959861E-05,1.40625,0,0.00862881311360449
-2.04992920771474E-05,1.79520429810509E-05,1.40625,0,0.00862881311360449
-2.67221112153493E-05,1.86446268344298E-05,1.40625,0,0.00862881311360449
-2.26566062337952E-05,1.45324011100456E-05,1.40625,0,0.00862881311360449
-2.46532417804701E-05,1.716434599075E-05,1.40625,0,0.00862881311360449
-2.17808210436488E-05,1.53654236783041E-05,1.40625,0,0.00862881311360449
-2.2463525965577E-05,1.43229244713439E-05,1.40625,0,0.00862881311360449
-2.11366314033512E-05,1.23215595522197E-05,1.40625,0,0.00862881311360449
-2.10983762372052E-05,1.22245664897491E-05,1.40625,0,0.00862881311360449
-2.17344841075828E-05,1.30379758047638E-05,1.40625,0,0.00862881311360449
-2.23450861085439E-05,1.2434408745321E-05,1.40625,0,0.00862881311360449
-2.42344067373779E-05,1.25489868878503E-05,1.40625,0,0.00862881311360449
-2.30728437600192E-05,1.22049168567173E-05,1.40625,0,0.00862881311360449
-2.38473458011867E-05,1.37250381158083E-05,1.40625,0,0.00862881311360449
-2.26457523240242E-05,1.43962752190419E-05,1.40625,0,0.00862881311360449
-2.38270804402418E-05,1.62330870807637E-05,1.40625,0,0.00862881311360449
-2.22506969294045E-05,1.54183962877141E-05,1.40625,0,0.00862881311360449
-2.1999680029694E-05,1.4909805940988E-05,1.40625,0,0.00862881311360449
-2.022688750003E-05,1.23206200441928E-05,1.40625,0,0.00862881311360449
-2.17487504414748E-05,9.52951722865691E-06,1.40625,0,0.00862881311360449
-2.30002860917011E-05,6.12428766544326E-06,1.40625,0,0.00862881311360449
-2.40524987020763E-05,6.13487372902455E-06,1.40625,0,0.00862881311360449
-2.23792394535849E-05,9.48304659686983E-06,1.40625,0,0.00862881311360449
-2.1786483557662E-05,1.52742941281758E-05,1.40625,0,0.00862881311360449
-2.20610727410531E-05,2.00938429770758E-05,1.40625,0,0.00862881311360449
-2.23349725274602E-05,2.25459662033245E-05,1.40625,0,0.00862881311360449
-1.75819022842916E-05,1.78220143425278E-05,1.40625,0,0.00862881311360449
-2.49453296419233E-05,2.32592392421793E-05,1.40625,0,0.00862881311360449
-1.82838484761305E-05,1.4230378837965E-05,1.40625,0,0.00862881311360449
-2.19274897972355E-05,1.62160995387239E-05,1.40625,0,0.00862881311360449
-2.00561225938145E-05,9.16602675715694E-06,1.40625,0,0.00862881311360449
-2.5971883587772E-05,1.01074401754886E-05,1.40625,0,0.00862881311360449
-2.65438611677382E-05,6.70382905809674E-06,1.40625,0,0.00862881311360449
-2.73970927082701E-05,5.38726362719899E-06,1.40625,0,0.00862881311360449
-2.43476933974307E-05,2.44241596192296E-06,1.40625,0,0.00862881311360449
-2.24927371164085E-05,1.95124061974639E-06,1.40625,0,0.00862881311360449
-2.27112832362764E-05,2.52298104896909E-06,1.40625,0,0.00862881311360449
-2.33416139963083E-05,2.54743190453155E-06,1.40625,0,0.00862881311360449
-2.49739641731139E-05,5.28167583979666E-06,1.40625,0,0.00862881311360449
-2.42400565184653E-05,6.85899749441887E-06,1.40625,0,0.00862881311360449
-2.51932233368279E-05,9.95664686342934E-06,1.40625,0,0.00862881311360449
-2.49903296207776E-05,1.07509749796009E-05,1.40625,0,0.00862881311360449
-2.72354191110935E-05,1.28196261357516E-05,1.40625,0,0.00862881311360449
-2.71637363766786E-05,1.08137974166311E-05,1.40625,0,0.00862881311360449
-2.75156962743495E-05,9.71190911513986E-06,1.40625,0,0.00862881311360449
-2.5059589461307E-05,7.39742881705752E-06,1.40625,0,0.00862881311360449
-2.38691063714214E-05,6.24891163170105E-06,1.40625,0,0.00862881311360449
-2.24225241254317E-05,3.96034420191427E-06,1.40625,0,0.00862881311360449
-2.2789468857809E-05,4.20326250605285E-06,1.40625,0,0.00862881311360449
-2.23417355300626E-05,4.96082293466316E-06,1.40625,0,0.00862881311360449
-2.3224516553455E-05,6.72942678647814E-06,1.40625,0,0.00862881311360449
-2.4604240024928E-05,8.62850174598861E-06,1.40625,0,0.00862881311360449
-2.55866561928997E-05,9.36660399020184E-06,1.40625,0,0.00862881311360449
-2.04202042368706E-05,5.89443789067445E-06,1.40625,0,0.00862881311360449
-2.94249075523112E-05,7.88851411925862E-06,1.40625,0,0.00862881311360449
-2.33245918934699E-05,5.93150389249786E-06,1.40625,0,0.00862881311360449
-2.8813214157708E-05,6.26440942141926E-06,1.40625,0,0.00862881311360449
-2.40626595768845E-05,4.41370048065437E-06,1.40625,0,0.00862881311360449
-2.63564979832154E-05,7.53538415665389E-06,1.40625,0,0.00862881311360449
-2.38591383094899E-05,8.81064443092328E-06,1.40625,0,0.00862881311360449
-2.53673042607261E-05,9.53614653553814E-06,1.40625,0,0.00862881311360449
-2.5033585188794E-05,7.79715082899202E-06,1.40625,0,0.00862881311360449
-2.58405852946453E-05,6.58422504784539E-06,1.40625,0,0.00862881311360449
-2.66274091700325E-05,8.66805112309521E-06,1.40625,0,0.00862881311360449
-2.57862830039812E-05,1.12202324089594E-05,1.40625,0,0.00862881311360449
-2.69604406639701E-05,1.10299288280657E-05,1.40625,0,0.00862881311360449
-2.70476994046476E-05,7.64915603213012E-06,1.40625,0,0.00862881311360449
-2.85239857475972E-05,6.28589259576984E-06,1.40625,0,0.00862881311360449
-2.62225985352416E-05,7.12873134034453E-06,1.40625,0,0.00862881311360449
-2.57012852671323E-05,9.22776507650269E-06,1.40625,0,0.00862881311360449
-2.36010873777559E-05,8.81262621987844E-06,1.40625,0,0.00862881311360449
-2.4618790121167E-05,8.48566469358047E-06,1.40625,0,0.00862881311360449
-2.38881275436142E-05,8.83401480678003E-06,1.40625,0,0.00862881311360449
-2.40616500377655E-05,1.07787745946553E-05,1.40625,0,0.00862881311360449
-2.2332505977829E-05,1.2025218893541E-05,1.40625,0,0.00862881311360449
-2.20982346945675E-05,1.17814206532785E-05,1.40625,0,0.00862881311360449
-2.31247358897235E-05,9.92516379483277E-06,1.40625,0,0.00862881311360449
-2.55528721027076E-05,9.14209613256389E-06,1.40625,0,0.00862881311360449
-2.53609323408455E-05,9.77941726887366E-06,1.40625,0,0.00862881311360449
-2.30564801313449E-05,9.83877453109017E-06,1.40625,0,0.00862881311360449
-1.75793848029571E-05,6.39925656287232E-06,1.40625,0,0.00862881311360449
-2.56050043390132E-05,9.09696791495662E-06,1.40625,0,0.00862881311360449
-2.0501873223111E-05,8.95321045391029E-06,1.40625,0,0.00862881311360449
-2.50498742389027E-05,1.16508699647966E-05,1.40625,0,0.00862881311360449
-2.13634175452171E-05,7.89614205132239E-06,1.40625,0,0.00862881311360449
-2.48876476689475E-05,7.88103534432594E-06,1.40625,0,0.00862881311360449
-2.42043752223253E-05,7.46443402022123E-06,1.40625,0,0.00862881311360449
-2.44310976995621E-05,8.85909048520261E-06,1.40625,0,0.00862881311360449
-2.28270455409074E-05,1.00271054179757E-05,1.40625,0,0.00862881311360449
-2.31476733461022E-05,1.05520202851039E-05,1.40625,0,0.00862881311360449
-2.46887721004896E-05,1.05736626210273E-05,1.40625,0,0.00862881311360449
-2.43785671045771E-05,9.38005359785166E-06,1.40625,0,0.00862881311360449
-2.34112594625913E-05,6.88207228449755E-06,1.40625,0,0.00862881311360449
-2.015671452682E-05,4.14943997384398E-06,1.40625,0,0.00862881311360449
-1.97537719941465E-05,4.9369386942999E-06,1.40625,0,0.00862881311360449
-1.94007625395898E-05,6.37332141195657E-06,1.40625,0,0.00862881311360449
-2.10216949199094E-05,8.58714975038311E-06,1.40625,0,0.00862881311360449
-1.99782043637242E-05,1.01585810625693E-05,1.40625,0,0.00862881311360449
-2.06626991712255E-05,1.32818686324754E-05,1.40625,0,0.00862881311360449
-2.05135929718381E-05,1.67344696819782E-05,1.40625,0,0.00862881311360449
-2.2129361241241E-05,2.09030349651584E-05,1.40625,0,0.00862881311360449
-2.26777247007703E-05,2.2466514565167E-05,1.40625,0,0.00862881311360449
-2.36550276895287E-05,1.9635086573544E-05,1.40625,0,0.00862881311360449
-2.26505417231238E-05,1.37294064188609E-05,1.40625,0,0.00862881311360449
-2.23939678107854E-05,1.00521338026738E-05,1.40625,0,0.00862881311360449
-2.30736186495051E-05,9.56878193392185E-06,1.40625,0,0.00862881311360449
-2.32009442697745E-05,8.81116648088209E-06,1.40625,0,0.00862881311360449
-1.87938931048848E-05,6.82031077303691E-06,1.40625,0,0.00862881311360449
-2.73569366981974E-05,1.09776092358516E-05,1.40625,0,0.00862881311360449
-2.16931202885462E-05,1.0182027835981E-05,1.40625,0,0.00862881311360449
-2.71297394647263E-05,1.19848409667611E-05,1.40625,0,0.00862881311360449
-2.37742606259417E-05,1.06952129499405E-05,1.40625,0,0.00862881311360449
-2.65449543803697E-05,1.29721574921859E-05,1.40625,0,0.00862881311360449
-2.50330431299517E-05,1.28609653984313E-05,1.40625,0,0.00862881311360449
-2.65568141912809E-05,1.18156385724433E-05,1.40625,0,0.00862881311360449
-2.61436744040111E-05,1.1519498002599E-05,1.40625,0,0.00862881311360449
-2.54506139754085E-05,1.21868342830567E-05,1.40625,0,0.00862881311360449
-2.40092504100176E-05,1.21714938359219E-05,1.40625,0,0.00862881311360449
-2.19513240153901E-05,1.03760175989009E-05,1.40625,0,0.00862881311360449
-2.31168432947015E-05,8.85382723936345E-06,1.40625,0,0.00862881311360449
-2.35781517403666E-05,7.95125743024983E-06,1.40625,0,0.00862881311360449
-2.52658155659446E-05,8.86792986420915E-06,1.40625,0,0.00862881311360449
-2.47360112552997E-05,9.06743207451655E-06,1.40625,0,0.00862881311360449
-2.72069773927797E-05,9.10664311959408E-06,1.40625,0,0.00862881311360449
-2.73493478744058E-05,7.89021487435093E-06,1.40625,0,0.00862881311360449
-2.72830056928797E-05,7.22081585990964E-06,1.40625,0,0.00862881311360449
-2.48463366006035E-05,7.02713941791444E-06,1.40625,0,0.00862881311360449
-2.47131647483911E-05,7.52033201933955E-06,1.40625,0,0.00862881311360449
-2.46391809923807E-05,7.28684017303749E-06,1.40625,0,0.00862881311360449
-2.59013359027449E-05,8.46865623316262E-06,1.40625,0,0.00862881311360449
-2.47366515395697E-05,9.7247520898236E-06,1.40625,0,0.00862881311360449
-2.31548074225429E-05,9.04071930563077E-06,1.40625,0,0.00862881311360449
-2.31882258958649E-05,8.59105421113782E-06,1.40625,0,0.00862881311360449
-2.3111215341487E-05,1.01605919553549E-05,1.40625,0,0.00862881311360449
-1.8116987121175E-05,9.66091738519026E-06,1.40625,0,0.00862881311360449
-2.53333328146255E-05,1.40077318064868E-05,1.40625,0,0.00862881311360449
-1.89266156667145E-05,1.05956787592731E-05,1.40625,0,0.00862881311360449
-2.38903976423899E-05,1.24750586110167E-05,1.40625,0,0.00862881311360449
-2.01459261006676E-05,1.01611094578402E-05,1.40625,0,0.00862881311360449
-2.29599063459318E-05,1.14845324787893E-05,1.40625,0,0.00862881311360449
-2.13141029234976E-05,1.1172750419064E-05,1.40625,0,0.00862881311360449
-2.19474895857275E-05,1.22016426757909E-05,1.40625,0,0.00862881311360449
-2.22212220251095E-05,1.06311899799039E-05,1.40625,0,0.00862881311360449
-2.35625520872418E-05,8.99312180990819E-06,1.40625,0,0.00862881311360449
-2.27178370550973E-05,8.75647128850687E-06,1.40625,0,0.00862881311360449
-2.03004929062445E-05,9.38486755330814E-06,1.40625,0,0.00862881311360449
-2.12378272408387E-05,1.02357980722445E-05,1.40625,0,0.00862881311360449
-2.20492056541843E-05,9.27181463339366E-06,1.40625,0,0.00862881311360449
-2.43134345510043E-05,1.01581699709641E-05,1.40625,0,0.00862881311360449
-2.39481851167511E-05,1.14512095024111E-05,1.40625,0,0.00862881311360449
-2.50443354161689E-05,1.36883245431818E-05,1.40625,0,0.00862881311360449
-2.33459631999722E-05,1.33468611238641E-05,1.40625,0,0.00862881311360449
-2.24110845010728E-05,1.29475174617255E-05,1.40625,0,0.00862881311360449
-1.98665584321134E-05,1.19594733405393E-05,1.40625,0,0.00862881311360449
-2.02561241167132E-05,1.14362810563762E-05,1.40625,0,0.00862881311360449
-2.11513761314563E-05,1.0197953088209E-05,1.40625,0,0.00862881311360449
-2.33182672673138E-05,1.07884425233351E-05,1.40625,0,0.00862881311360449
-2.26782922254642E-05,1.16068595161778E-05,1.40625,0,0.00862881311360449
-2.14379106182605E-05,1.19184060167754E-05,1.40625,0,0.00862881311360449
-2.09823301702272E-05,1.09050060927984E-05,1.40625,0,0.00862881311360449
-2.15376749110874E-05,9.40150584938237E-06,1.40625,0,0.00862881311360449
-1.75707045855233E-05,8.3254190030857E-06,1.40625,0,0.00862881311360449
-2.42980349867139E-05,1.30975986394333E-05,1.40625,0,0.00862881311360449
-1.84593354788376E-05,1.10546470750705E-05,1.40625,0,0.00862881311360449
-2.44629281951347E-05,1.20122513180831E-05,1.40625,0,0.00862881311360449
-2.1302137611201E-05,9.50815501710167E-06,1.40625,0,0.00862881311360449
-2.31010308198165E-05,1.0971679330396E-05,1.40625,0,0.00862881311360449
-2.01260645553702E-05,1.12775733214221E-05,1.40625,0,0.00862881311360449
-2.05371215997729E-05,1.10625942397746E-05,1.40625,0,0.00862881311360449
-2.07928314921446E-05,8.85490317159565E-06,1.40625,0,0.00862881311360449
-2.31294052355224E-05,6.50239098831662E-06,1.40625,0,0.00862881311360449
-2.56306502706138E-05,5.86587020734441E-06,1.40625,0,0.00862881311360449
-2.60321467067115E-05,6.82487689118716E-06,1.40625,0,0.00862881311360449
-2.65327089437051E-05,7.9083583841566E-06,1.40625,0,0.00862881311360449
-2.52435802394757E-05,7.1508793553221E-06,1.40625,0,0.00862881311360449
-2.61392051470466E-05,7.38463268135092E-06,1.40625,0,0.00862881311360449
-2.58891323028365E-05,7.35779030947015E-06,1.40625,0,0.00862881311360449
-2.79599516943563E-05,8.06979096523719E-06,1.40625,0,0.00862881311360449
-2.70720975095173E-05,8.32787736726459E-06,1.40625,0,0.00862881311360449
-2.68399471679004E-05,1.01121668194537E-05,1.40625,0,0.00862881311360449
-2.50281464104773E-05,1.04944683698704E-05,1.40625,0,0.00862881311360449
-2.52812023973092E-05,1.06438246803009E-05,1.40625,0,0.00862881311360449
-2.52069912676234E-05,1.0518187082198E-05,1.40625,0,0.00862881311360449
-2.64375812548678E-05,1.08189269667491E-05,1.40625,0,0.00862881311360449
-2.57874398812419E-05,1.20883842100739E-05,1.40625,0,0.00862881311360449
-2.44784259848529E-05,1.48549033838208E-05,1.40625,0,0.00862881311360449
-2.2029740648577E-05,1.68806200235849E-05,1.40625,0,0.00862881311360449
-2.08676992770052E-05,1.69987779372605E-05,1.40625,0,0.00862881311360449
-1.8665537936613E-05,1.29185827972833E-05,1.40625,0,0.00862881311360449
-2.78116731351474E-05,1.82685907930136E-05,1.40625,0,0.00862881311360449
-2.16244734474458E-05,1.39307257995824E-05,1.40625,0,0.00862881311360449
-2.51492238021456E-05,1.65234996529762E-05,1.40625,0,0.00862881311360449
-2.21920690819388E-05,1.17795843834756E-05,1.40625,0,0.00862881311360449
-2.65005401161034E-05,1.31482611323008E-05,1.40625,0,0.00862881311360449
-2.61663863057038E-05,1.24867883641855E-05,1.40625,0,0.00862881311360449
-2.70792515948415E-05,1.37731367431115E-05,1.40625,0,0.00862881311360449
-2.57752490142593E-05,1.24390508062788E-05,1.40625,0,0.00862881311360449
-2.5626319256844E-05,1.05160388557124E-05,1.40625,0,0.00862881311360449
-2.54633177974029E-05,9.80671939032618E-06,1.40625,0,0.00862881311360449
-2.45725459535606E-05,1.01315308711492E-05,1.40625,0,0.00862881311360449
-2.52090776484692E-05,1.18730104077258E-05,1.40625,0,0.00862881311360449
-2.39636519836495E-05,1.14950362331001E-05,1.40625,0,0.00862881311360449
-2.46980198426172E-05,1.18509615276707E-05,1.40625,0,0.00862881311360449
-2.3036629499984E-05,1.04301570900134E-05,1.40625,0,0.00862881311360449
-2.28920889639994E-05,1.0155343261431E-05,1.40625,0,0.00862881311360449
-2.13414696190739E-05,8.22407127998304E-06,1.40625,0,0.00862881311360449
-2.23674906010274E-05,8.1080652307719E-06,1.40625,0,0.00862881311360449
-2.26386891881702E-05,8.57383474794915E-06,1.40625,0,0.00862881311360449
-2.40003846556647E-05,1.08844888018211E-05,1.40625,0,0.00862881311360449
-2.30732148338575E-05,1.12841298687272E-05,1.40625,0,0.00862881311360449
-2.31311169045512E-05,1.1118261681986E-05,1.40625,0,0.00862881311360449
-2.36444520851364E-05,1.05556209746283E-05,1.40625,0,0.00862881311360449
-2.5419667508686E-05,9.56078110903036E-06,1.40625,0,0.00862881311360449
-2.68729527306277E-05,9.06572768144542E-06,1.40625,0,0.00862881311360449
-2.71054323093267E-05,1.03729789771023E-05,1.40625,0,0.00862881311360449
-2.13778112083673E-05,8.05559830041602E-06,1.40625,0,0.00862881311360449
-2.98531667795032E-05,1.19222731882473E-05,1.40625,0,0.00862881311360449
-2.23949882638408E-05,1.08764297692687E-05,1.40625,0,0.00862881311360449
-2.87065631709993E-05,1.36098342409241E-05,1.40625,0,0.00862881311360449
-2.52306326729013E-05,1.06426705315243E-05,1.40625,0,0.00862881311360449
-2.90789303107886E-05,1.0188270607614E-05,1.40625,0,0.00862881311360449
-2.64627251453931E-05,6.72058376949281E-06,1.40625,0,0.00862881311360449
-2.70416512648808E-05,4.23328901888453E-06,1.40625,0,0.00862881311360449
-2.65712114924099E-05,3.40518135999446E-06,1.40625,0,0.00862881311360449
-2.7158401280758E-05,4.79062100566807E-06,1.40625,0,0.00862881311360449
-2.70151431323029E-05,7.74749787524343E-06,1.40625,0,0.00862881311360449
-2.56725434155669E-05,1.06806419353234E-05,1.40625,0,0.00862881311360449
-2.75244219665183E-05,1.2585196600412E-05,1.40625,0,0.00862881311360449
-2.77637809631415E-05,1.21030670925393E-05,1.40625,0,0.00862881311360449
-2.8278911486268E-05,1.21383545774734E-05,1.40625,0,0.00862881311360449
-2.47122534347E-05,1.21822959044948E-05,1.40625,0,0.00862881311360449
-2.386603046034E-05,1.38125724333804E-05,1.40625,0,0.00862881311360449
-2.27191194426268E-05,1.35621075969539E-05,1.40625,0,0.00862881311360449
-2.45524715865031E-05,1.1578756129893E-05,1.40625,0,0.00862881311360449
-2.39097189478343E-05,7.74722502683289E-06,1.40625,0,0.00862881311360449
-2.47708430833882E-05,5.89024557484663E-06,1.40625,0,0.00862881311360449
-2.40444733208278E-05,7.75043463363545E-06,1.40625,0,0.00862881311360449
-2.31535013881512E-05,1.37114011522499E-05,1.40625,0,0.00862881311360449
-2.10717425943585E-05,1.8390994227957E-05,1.40625,0,0.00862881311360449
-2.13957209780347E-05,1.95662578335032E-05,1.40625,0,0.00862881311360449
-2.1867424948141E-05,1.74030828929972E-05,1.40625,0,0.00862881311360449
-2.12915165320737E-05,1.50884106915328E-05,1.40625,0,0.00862881311360449
-1.73216139955912E-05,9.93206322164042E-06,1.40625,0,0.00862881311360449
-2.5860448658932E-05,1.28202909763786E-05,1.40625,0,0.00862881311360449
-2.14294559555128E-05,9.60703982855193E-06,1.40625,0,0.00862881311360449
-2.51867295446573E-05,1.42611343108001E-05,1.40625,0,0.00862881311360449
-2.00633603526512E-05,1.39742342071258E-05,1.40625,0,0.00862881311360449
-2.14278807106894E-05,1.68235819728579E-05,1.40625,0,0.00862881311360449
-1.92636689462233E-05,1.54503431986086E-05,1.40625,0,0.00862881311360449
-1.93166324606864E-05,1.58614475367358E-05,1.40625,0,0.00862881311360449
-1.86961606232217E-05,1.45159201565548E-05,1.40625,0,0.00862881311360449
-1.99246951524401E-05,1.32416034830385E-05,1.40625,0,0.00862881311360449
-2.18497025343822E-05,1.22273058877909E-05,1.40625,0,0.00862881311360449
-2.16822900256375E-05,1.17413392217713E-05,1.40625,0,0.00862881311360449
-2.17299912037561E-05,1.30729904412874E-05,1.40625,0,0.00862881311360449
-2.05541709874524E-05,1.37827209982788E-05,1.40625,0,0.00862881311360449
-2.14283772947965E-05,1.39245767059037E-05,1.40625,0,0.00862881311360449
-2.03517374757212E-05,1.20598715511733E-05,1.40625,0,0.00862881311360449
-2.13168423215393E-05,1.234348565049E-05,1.40625,0,0.00862881311360449
-2.16835105675273E-05,1.18325979201472E-05,1.40625,0,0.00862881311360449
-2.3923172193463E-05,1.18683810796938E-05,1.40625,0,0.00862881311360449
-2.4023509467952E-05,1.03936345112743E-05,1.40625,0,0.00862881311360449
-2.51784786087228E-05,1.0983414540533E-05,1.40625,0,0.00862881311360449
-2.59731787082274E-05,1.15876609925181E-05,1.40625,0,0.00862881311360449
-2.64905629592249E-05,1.22480560094118E-05,1.40625,0,0.00862881311360449
-2.43298563873395E-05,1.11599583760835E-05,1.40625,0,0.00862881311360449
-2.39659111684887E-05,1.0357289284002E-05,1.40625,0,0.00862881311360449
-2.51500277954619E-05,8.84587643668056E-06,1.40625,0,0.00862881311360449
-2.53142679866869E-05,5.63739513381734E-06,1.40625,0,0.00862881311360449
-1.92011466424447E-05,2.06940990210569E-06,1.40625,0,0.00862881311360449
-2.66246624960331E-05,6.03479566052556E-06,1.40625,0,0.00862881311360449
-2.13627863558941E-05,1.06102233985439E-05,1.40625,0,0.00862881311360449
-2.72759007202694E-05,1.22329556688783E-05,1.40625,0,0.00862881311360449
-2.19246103370097E-05,1.14048343675677E-05,1.40625,0,0.00862881311360449
-2.49876920861425E-05,1.27597149912617E-05,1.40625,0,0.00862881311360449
-2.39946675719693E-05,1.27807579701766E-05,1.40625,0,0.00862881311360449
-2.66031329374528E-05,1.13148398668272E-05,1.40625,0,0.00862881311360449
-2.58811760431854E-05,1.05111112134182E-05,1.40625,0,0.00862881311360449
-2.48308024310973E-05,1.06086672531092E-05,1.40625,0,0.00862881311360449
-2.42389141931199E-05,1.03056563602877E-05,1.40625,0,0.00862881311360449
-2.3184999008663E-05,9.64594801189378E-06,1.40625,0,0.00862881311360449
-2.36859905271558E-05,8.87228634383064E-06,1.40625,0,0.00862881311360449
-2.18548793782247E-05,7.86580130807124E-06,1.40625,0,0.00862881311360449
-2.23395127250114E-05,7.13689269105089E-06,1.40625,0,0.00862881311360449
-2.16200423892587E-05,7.14112047717208E-06,1.40625,0,0.00862881311360449
-2.39429009525338E-05,7.79063248046441E-06,1.40625,0,0.00862881311360449
-2.35892202908872E-05,7.71078157413285E-06,1.40625,0,0.00862881311360449
-2.46003528445726E-05,7.44338331060135E-06,1.40625,0,0.00862881311360449
-2.34883827943122E-05,7.53656695451355E-06,1.40625,0,0.00862881311360449
-2.47112056968035E-05,8.47930732561508E-06,1.40625,0,0.00862881311360449
-2.47555108217057E-05,9.51730635279091E-06,1.40625,0,0.00862881311360449
-2.50518514803844E-05,9.9555481938296E-06,1.40625,0,0.00862881311360449
-2.38909487961791E-05,9.76130741037196E-06,1.40625,0,0.00862881311360449
-2.32253296417184E-05,9.01041039469419E-06,1.40625,0,0.00862881311360449
-2.28286771744024E-05,6.94290156388888E-06,1.40625,0,0.00862881311360449
-2.2636317225988E-05,4.59242028227891E-06,1.40625,0,0.00862881311360449
-1.86666438821703E-05,3.40756128025532E-06,1.40625,0,0.00862881311360449
-2.70227228611475E-05,5.88564307690831E-06,1.40625,0,0.00862881311360449
-2.19967641896801E-05,5.72484077565605E-06,1.40625,0,0.00862881311360449
-2.67582890955964E-05,5.68753603147343E-06,1.40625,0,0.00862881311360449
-2.14312949537998E-05,4.77746289107017E-06,1.40625,0,0.00862881311360449
-2.36237792705651E-05,7.27528504285146E-06,1.40625,0,0.00862881311360449
-2.34884228120791E-05,8.45191607368179E-06,1.40625,0,0.00862881311360449
-2.61623954429524E-05,7.82573260948993E-06,1.40625,0,0.00862881311360449
-2.45611336140428E-05,7.5307229963073E-06,1.40625,0,0.00862881311360449
-2.33557802857831E-05,9.04161970538553E-06,1.40625,0,0.00862881311360449
-2.39101191255031E-05,1.03064085124061E-05,1.40625,0,0.00862881311360449
-2.39345063164365E-05,1.01923524198355E-05,1.40625,0,0.00862881311360449
-2.34508261200972E-05,9.81570065050619E-06,1.40625,0,0.00862881311360449
-1.96103228518041E-05,1.01290715974756E-05,1.40625,0,0.00862881311360449
-1.80583538167411E-05,1.1865156920976E-05,1.40625,0,0.00862881311360449
-1.70433813764248E-05,1.30547869048314E-05,1.40625,0,0.00862881311360449
-2.00704525923356E-05,1.3398147530097E-05,1.40625,0,0.00862881311360449
-2.05643864319427E-05,1.26716176964692E-05,1.40625,0,0.00862881311360449
-2.17195247387281E-05,1.27706671264605E-05,1.40625,0,0.00862881311360449
-2.08072397072101E-05,1.30535845528357E-05,1.40625,0,0.00862881311360449
-2.16631287912605E-05,1.33124940475682E-05,1.40625,0,0.00862881311360449
-2.13056900975062E-05,1.32172835947131E-05,1.40625,0,0.00862881311360449
-2.2241625629249E-05,1.29894096971839E-05,1.40625,0,0.00862881311360449
-2.2494285076391E-05,1.13910155050689E-05,1.40625,0,0.00862881311360449
-2.29559755098308E-05,1.04798755273805E-05,1.40625,0,0.00862881311360449
-2.31412832363276E-05,1.05311428342247E-05,1.40625,0,0.00862881311360449
-2.41818561335094E-05,8.82039057614747E-06,1.40625,0,0.00862881311360449
-2.05671349249315E-05,5.29968474438647E-06,1.40625,0,0.00862881311360449
-2.90793122985633E-05,7.29487874195911E-06,1.40625,0,0.00862881311360449
-2.17110609810334E-05,6.37154744254076E-06,1.40625,0,0.00862881311360449
-2.6751282348414E-05,8.3800514403265E-06,1.40625,0,0.00862881311360449
-2.25745498028118E-05,6.92821322445525E-06,1.40625,0,0.00862881311360449
-2.6588173568598E-05,8.11628615338122E-06,1.40625,0,0.00862881311360449
-2.6123394491151E-05,8.28128304419806E-06,1.40625,0,0.00862881311360449
-2.76194623438641E-05,1.08524791357922E-05,1.40625,0,0.00862881311360449
-2.57771953329211E-05,1.23575646284735E-05,1.40625,0,0.00862881311360449
-2.42152800637996E-05,1.19198421089095E-05,1.40625,0,0.00862881311360449
-2.33999035117449E-05,1.00423085314105E-05,1.40625,0,0.00862881311360449
-2.1523925170186E-05,9.03391810425092E-06,1.40625,0,0.00862881311360449
-2.13182611332741E-05,9.83487552730367E-06,1.40625,0,0.00862881311360449
-2.05151663976721E-05,9.57326483330689E-06,1.40625,0,0.00862881311360449
-2.39375276578357E-05,8.80041352502303E-06,1.40625,0,0.00862881311360449
-2.56341736530885E-05,8.56859060149873E-06,1.40625,0,0.00862881311360449
-2.74752474069828E-05,1.08783524410683E-05,1.40625,0,0.00862881311360449
-2.60810884356033E-05,1.1186543815711E-05,1.40625,0,0.00862881311360449
-2.6738589440356E-05,9.38926677918062E-06,1.40625,0,0.00862881311360449
-2.55851409747265E-05,6.49037247058004E-06,1.40625,0,0.00862881311360449
-2.63345373241464E-05,6.79263803249341E-06,1.40625,0,0.00862881311360449
-2.63284655375173E-05,8.73511635290924E-06,1.40625,0,0.00862881311360449
-2.76813752861926E-05,9.51844413066283E-06,1.40625,0,0.00862881311360449
-2.81702014035545E-05,8.31340730655938E-06,1.40625,0,0.00862881311360449
-2.88894243567484E-05,8.72425061970716E-06,1.40625,0,0.00862881311360449
-2.93589109787717E-05,1.11874578578863E-05,1.40625,0,0.00862881311360449
-2.94914716505446E-05,1.3222013876657E-05,1.40625,0,0.00862881311360449
-2.38376123888884E-05,1.12964935397031E-05,1.40625,0,0.00862881311360449
-3.26680383295752E-05,1.52747015818022E-05,1.40625,0,0.00862881311360449
-2.32217844313709E-05,1.10960445454111E-05,1.40625,0,0.00862881311360449
-2.88354312942829E-05,1.54307272168808E-05,1.40625,0,0.00862881311360449
-2.37070435105124E-05,1.57611375470879E-05,1.40625,0,0.00862881311360449
-2.72549859801074E-05,1.933562089107E-05,1.40625,0,0.00862881311360449
-2.49943914241157E-05,1.6459487596876E-05,1.40625,0,0.00862881311360449
-2.72925281024072E-05,1.46235124702798E-05,1.40625,0,0.00862881311360449
-2.67457853624364E-05,1.27220082504209E-05,1.40625,0,0.00862881311360449
-2.64742939179996E-05,1.15136235763202E-05,1.40625,0,0.00862881311360449
-2.64848349615932E-05,9.93730827758554E-06,1.40625,0,0.00862881311360449
-2.5298009859398E-05,6.97534778737463E-06,1.40625,0,0.00862881311360449
-2.6776051527122E-05,5.78742492507445E-06,1.40625,0,0.00862881311360449
-2.72960769507336E-05,5.63543244425091E-06,1.40625,0,0.00862881311360449
-3.0059276468819E-05,8.57507075124886E-06,1.40625,0,0.00862881311360449
-2.87923012365354E-05,1.03829406725708E-05,1.40625,0,0.00862881311360449
-2.93252924166154E-05,1.32379245769698E-05,1.40625,0,0.00862881311360449
-2.70372111117467E-05,1.43339375426876E-05,1.40625,0,0.00862881311360449
-2.74156718660379E-05,1.51702288349043E-05,1.40625,0,0.00862881311360449
-2.54948517977027E-05,1.3644244063471E-05,1.40625,0,0.00862881311360449
-2.47779735218501E-05,1.35663922264939E-05,1.40625,0,0.00862881311360449
-2.21272603084799E-05,1.36729313453543E-05,1.40625,0,0.00862881311360449
-2.12355353141902E-05,1.36325170387863E-05,1.40625,0,0.00862881311360449
-2.02154551516287E-05,1.2617096217582E-05,1.40625,0,0.00862881311360449
-2.0990519260522E-05,1.28372194012627E-05,1.40625,0,0.00862881311360449
-2.10020753002027E-05,1.26370287034661E-05,1.40625,0,0.00862881311360449
-2.06125496333698E-05,1.14822123578051E-05,1.40625,0,0.00862881311360449
-1.66416011779802E-05,9.95453319774242E-06,1.40625,0,0.00862881311360449
-2.31826397794066E-05,1.4898802874086E-05,1.40625,0,0.00862881311360449
-1.6819394659251E-05,1.116997191275E-05,1.40625,0,0.00862881311360449
-2.03674335352844E-05,1.14507038233569E-05,1.40625,0,0.00862881311360449
-1.68379283422837E-05,7.5838424891117E-06,1.40625,0,0.00862881311360449
-1.97719746211078E-05,9.46470299822977E-06,1.40625,0,0.00862881311360449
-1.89915135706542E-05,1.13393361971248E-05,1.40625,0,0.00862881311360449
-2.09841236937791E-05,1.29436357383383E-05,1.40625,0,0.00862881311360449
-2.12742779694963E-05,1.0729846508184E-05,1.40625,0,0.00862881311360449
-2.20491656364175E-05,7.6782835094491E-06,1.40625,0,0.00862881311360449
-2.20419733523158E-05,7.77672994445311E-06,1.40625,0,0.00862881311360449
-1.98038906091824E-05,1.0071992619487E-05,1.40625,0,0.00862881311360449
-1.96947476069909E-05,1.18013949759188E-05,1.40625,0,0.00862881311360449
-2.00845461222343E-05,1.06910601971322E-05,1.40625,0,0.00862881311360449
-2.3212580344989E-05,1.08186641227803E-05,1.40625,0,0.00862881311360449
-2.36394280364038E-05,1.08085587271489E-05,1.40625,0,0.00862881311360449
-2.4452165234834E-05,1.02757767308503E-05,1.40625,0,0.00862881311360449
-2.27137334150029E-05,6.74880266160471E-06,1.40625,0,0.00862881311360449
-2.27827549679205E-05,4.43518047177349E-06,1.40625,0,0.00862881311360449
-2.18095919990446E-05,4.02023079004721E-06,1.40625,0,0.00862881311360449
-2.22233848035103E-05,6.75250612403033E-06,1.40625,0,0.00862881311360449
-2.15908858081093E-05,8.38493178889621E-06,1.40625,0,0.00862881311360449
-2.18191107705934E-05,8.34699949336937E-06,1.40625,0,0.00862881311360449
-2.12965423997957E-05,7.30648207536433E-06,1.40625,0,0.00862881311360449
-1.99907062778948E-05,7.47047579352511E-06,1.40625,0,0.00862881311360449
-1.96357723325491E-05,7.77933018980548E-06,1.40625,0,0.00862881311360449
-2.12412705877796E-05,7.51019888411975E-06,1.40625,0,0.00862881311360449
-1.75773184309946E-05,8.04603314463748E-06,1.40625,0,0.00862881311360449
-2.36332962231245E-05,1.40328247653088E-05,1.40625,0,0.00862881311360449
-1.67532871273579E-05,1.35470017994521E-05,1.40625,0,0.00862881311360449
-2.22101334657054E-05,1.55637681018561E-05,1.40625,0,0.00862881311360449
-1.9514154701028E-05,1.42112494359026E-05,1.40625,0,0.00862881311360449
-2.22435246541863E-05,1.3132082131051E-05,1.40625,0,0.00862881311360449
-2.03057079488644E-05,9.68579934124136E-06,1.40625,0,0.00862881311360449
-2.17081269511255E-05,9.63199727266328E-06,1.40625,0,0.00862881311360449
-2.21085902012419E-05,1.22771671158262E-05,1.40625,0,0.00862881311360449
-2.38491211348446E-05,1.60220843099523E-05,1.40625,0,0.00862881311360449
-2.45455357799074E-05,1.70679850270972E-05,1.40625,0,0.00862881311360449
-2.36597461480414E-05,1.41435048135463E-05,1.40625,0,0.00862881311360449
-2.42664464167319E-05,1.06599964055931E-05,1.40625,0,0.00862881311360449
-2.33472819672897E-05,6.8760950853175E-06,1.40625,0,0.00862881311360449
-2.4677816327312E-05,4.62506113763084E-06,1.40625,0,0.00862881311360449
-2.45609026023885E-05,3.7650629565178E-06,1.40625,0,0.00862881311360449
-2.67691175395157E-05,7.16819477020181E-06,1.40625,0,0.00862881311360449
-2.68291623797268E-05,1.12621282823966E-05,1.40625,0,0.00862881311360449
-2.82179553323658E-05,1.28710244098329E-05,1.40625,0,0.00862881311360449
-2.77487033599755E-05,1.03717829915695E-05,1.40625,0,0.00862881311360449
-2.86895192402881E-05,7.64746528147953E-06,1.40625,0,0.00862881311360449
-2.74160593107808E-05,6.85584200255107E-06,1.40625,0,0.00862881311360449
-2.66243296209723E-05,9.17068700800883E-06,1.40625,0,0.00862881311360449
-2.60468950727955E-05,1.07912355815643E-05,1.40625,0,0.00862881311360449
-2.67943942162674E-05,1.06412462628214E-05,1.40625,0,0.00862881311360449
-2.71661920123734E-05,1.02148287624004E-05,1.40625,0,0.00862881311360449
-2.80631684290711E-05,1.00924817161285E-05,1.40625,0,0.00862881311360449
-2.25983330892632E-05,9.12778068595799E-06,1.40625,0,0.00862881311360449
-3.14685930788983E-05,1.29579620988807E-05,1.40625,0,0.00862881311360449
-2.35259321925696E-05,9.6374924396514E-06,1.40625,0,0.00862881311360449
-2.97287515422795E-05,1.26420627566404E-05,1.40625,0,0.00862881311360449
-2.45381452259608E-05,1.15182892841403E-05,1.40625,0,0.00862881311360449
-2.72746219707187E-05,1.16084729597787E-05,1.40625,0,0.00862881311360449
-2.48409669438843E-05,8.85660574567737E-06,1.40625,0,0.00862881311360449
-2.59910375461914E-05,7.4631084316934E-06,1.40625,0,0.00862881311360449
-2.41581765294541E-05,5.54799680685392E-06,1.40625,0,0.00862881311360449
-2.32823640544666E-05,3.97604344470892E-06,1.40625,0,0.00862881311360449
-2.31765570788411E-05,2.90589309770439E-06,1.40625,0,0.00862881311360449
-2.21567224798491E-05,4.23335541199776E-06,1.40625,0,0.00862881311360449
-2.33089158427902E-05,7.75705120759085E-06,1.40625,0,0.00862881311360449
-2.29451343329856E-05,8.78449918673141E-06,1.40625,0,0.00862881311360449
-2.4791252144496E-05,1.00128499980201E-05,1.40625,0,0.00862881311360449
-2.46264826273546E-05,1.02905096355244E-05,1.40625,0,0.00862881311360449
-2.66450952040032E-05,1.07299656519899E-05,1.40625,0,0.00862881311360449
-2.48107226070715E-05,1.02648218671675E-05,1.40625,0,0.00862881311360449
-2.53910075116437E-05,1.17298104669317E-05,1.40625,0,0.00862881311360449
-2.4550907255616E-05,1.3140303963155E-05,1.40625,0,0.00862881311360449
-2.54360875260318E-05,1.58020611706888E-05,1.40625,0,0.00862881311360449
-2.4932238375186E-05,1.90783757716417E-05,1.40625,0,0.00862881311360449
-2.56826770055341E-05,2.23580100282561E-05,1.40625,0,0.00862881311360449
-2.40395984292263E-05,2.10515481740003E-05,1.40625,0,0.00862881311360449
-2.18281074921833E-05,1.70785624504788E-05,1.40625,0,0.00862881311360449
-2.0256429706933E-05,1.42639310070081E-05,1.40625,0,0.00862881311360449
-2.14909268834163E-05,1.24609005069942E-05,1.40625,0,0.00862881311360449
-1.92163006431656E-05,9.12874384084716E-06,1.40625,0,0.00862881311360449
-2.75280981441028E-05,1.33536941575585E-05,1.40625,0,0.00862881311360449
-2.06925069505814E-05,1.07131691038376E-05,1.40625,0,0.00862881311360449
-2.4437615138595E-05,1.32431605379679E-05,1.40625,0,0.00862881311360449
-1.93649775610538E-05,1.14984804895357E-05,1.40625,0,0.00862881311360449
-2.1602423657896E-05,1.22298724818393E-05,1.40625,0,0.00862881311360449
-2.07356497412547E-05,1.00369952633628E-05,1.40625,0,0.00862881311360449
-2.30846635531634E-05,9.6350840976811E-06,1.40625,0,0.00862881311360449
-2.23750193981687E-05,9.26388020161539E-06,1.40625,0,0.00862881311360449
-2.13101448025554E-05,9.46312411542749E-06,1.40625,0,0.00862881311360449
-2.10362468351377E-05,9.33581304707332E-06,1.40625,0,0.00862881311360449
-2.15174095501425E-05,9.1961182988598E-06,1.40625,0,0.00862881311360449
-2.4369082893827E-05,1.18820025818422E-05,1.40625,0,0.00862881311360449
-2.49980475928169E-05,1.38692857944989E-05,1.40625,0,0.00862881311360449
-2.63034580711974E-05,1.43245988510898E-05,1.40625,0,0.00862881311360449
-2.42035239352845E-05,1.32884460981586E-05,1.40625,0,0.00862881311360449
-2.43010872509331E-05,1.45624007927836E-05,1.40625,0,0.00862881311360449
-2.3293247068068E-05,1.54344870679779E-05,1.40625,0,0.00862881311360449
-2.45905030169524E-05,1.60242616402684E-05,1.40625,0,0.00862881311360449
-2.41886991716456E-05,1.29960490085068E-05,1.40625,0,0.00862881311360449
-2.48117157752858E-05,9.47618809732376E-06,1.40625,0,0.00862881311360449
-2.47403495450271E-05,6.97276163919014E-06,1.40625,0,0.00862881311360449
-2.63738875219133E-05,6.96637425789959E-06,1.40625,0,0.00862881311360449
-2.65191119979136E-05,9.19199919735547E-06,1.40625,0,0.00862881311360449
-2.64081336354138E-05,1.27350367620238E-05,1.40625,0,0.00862881311360449
-2.56855200859718E-05,1.37473616632633E-05,1.40625,0,0.00862881311360449
-2.5037394152605E-05,1.19741280286689E-05,1.40625,0,0.00862881311360449
-2.04329444386531E-05,8.3067461673636E-06,1.40625,0,0.00862881311360449
-2.88843930320581E-05,1.06186325865565E-05,1.40625,0,0.00862881311360449
-2.11848036997253E-05,6.6489701566752E-06,1.40625,0,0.00862881311360449
-2.51511482929345E-05,9.51162928686244E-06,1.40625,0,0.00862881311360449
-2.05411161005031E-05,9.34678701014491E-06,1.40625,0,0.00862881311360449
-2.40577628574101E-05,1.12179741336149E-05,1.40625,0,0.00862881311360449
-2.30586265388411E-05,9.71619192569051E-06,1.40625,0,0.00862881311360449
-2.54769638559083E-05,1.03133088487084E-05,1.40625,0,0.00862881311360449
-2.50921038968954E-05,1.10499240690842E-05,1.40625,0,0.00862881311360449
-2.49998629442416E-05,1.2142170817242E-05,1.40625,0,0.00862881311360449
-2.4924733224907E-05,1.25128653962747E-05,1.40625,0,0.00862881311360449
-2.43337235588115E-05,1.21818293337128E-05,1.40625,0,0.00862881311360449
-2.62917656073114E-05,1.24555053844233E-05,1.40625,0,0.00862881311360449
-2.617698009999E-05,1.20909589895746E-05,1.40625,0,0.00862881311360449
-2.75947440968594E-05,1.2864964446635E-05,1.40625,0,0.00862881311360449
-2.64553946180968E-05,1.24182388390182E-05,1.40625,0,0.00862881311360449
-2.79034302366199E-05,1.22549554362195E-05,1.40625,0,0.00862881311360449
-2.75748952844879E-05,1.11442150227958E-05,1.40625,0,0.00862881311360449
-2.8433712941478E-05,1.12751158667379E-05,1.40625,0,0.00862881311360449
-2.65536364167929E-05,9.9920216598548E-06,1.40625,0,0.00862881311360449
-2.73600999207702E-05,9.11368988454342E-06,1.40625,0,0.00862881311360449
-2.78908628388308E-05,9.25769472814864E-06,1.40625,0,0.00862881311360449
-2.91981068585301E-05,1.08911744973739E-05,1.40625,0,0.00862881311360449
-2.88370356429368E-05,1.08456997622852E-05,1.40625,0,0.00862881311360449
-2.71462868113304E-05,1.23825193441007E-05,1.40625,0,0.00862881311360449
-2.46376312134089E-05,1.36645739985397E-05,1.40625,0,0.00862881311360449
-2.43530939769698E-05,1.09982784124441E-05,1.40625,0,0.00862881311360449
-2.05696069315309E-05,7.7733402576996E-06,1.40625,0,0.00862881311360449
-2.85509286186425E-05,1.18055349958013E-05,1.40625,0,0.00862881311360449
-2.09498266485753E-05,9.56640633376082E-06,1.40625,0,0.00862881311360449
-2.73648020083783E-05,9.40495283430209E-06,1.40625,0,0.00862881311360449
-2.4413919163635E-05,5.85338375458377E-06,1.40625,0,0.00862881311360449
-2.67022642219672E-05,6.89962598698912E-06,1.40625,0,0.00862881311360449
-2.29170200327644E-05,6.69897372063133E-06,1.40625,0,0.00862881311360449
-2.32592283282429E-05,7.61176443120348E-06,1.40625,0,0.00862881311360449
-2.26096344704274E-05,8.07644937594887E-06,1.40625,0,0.00862881311360449
-2.22934777411865E-05,9.30411169974832E-06,1.40625,0,0.00862881311360449
-2.2044836441637E-05,8.98542293725768E-06,1.40625,0,0.00862881311360449
-2.20840556721669E-05,6.38077790426905E-06,1.40625,0,0.00862881311360449
-2.41300640482223E-05,5.55322912987322E-06,1.40625,0,0.00862881311360449
-2.30999485211214E-05,7.02328361512627E-06,1.40625,0,0.00862881311360449
-2.38772972807055E-05,1.07940732050338E-05,1.40625,0,0.00862881311360449
-2.29709839913994E-05,1.1645534868876E-05,1.40625,0,0.00862881311360449
-2.43923332163831E-05,1.07319165181252E-05,1.40625,0,0.00862881311360449
-2.33724149438785E-05,8.36855360830668E-06,1.40625,0,0.00862881311360449
-2.3280328605324E-05,7.84140320320148E-06,1.40625,0,0.00862881311360449
-2.08831879717764E-05,7.93798790255096E-06,1.40625,0,0.00862881311360449
-2.16334356082371E-05,9.11030656425282E-06,1.40625,0,0.00862881311360449
-2.13606926990906E-05,9.62729882303393E-06,1.40625,0,0.00862881311360449
-2.13767725654179E-05,1.0705934073485E-05,1.40625,0,0.00862881311360449
-2.02863411686849E-05,1.14639342427836E-05,1.40625,0,0.00862881311360449
-2.04188017960405E-05,1.14260301415925E-05,1.40625,0,0.00862881311360449
-2.15200343518518E-05,1.05838689705706E-05,1.40625,0,0.00862881311360449
-2.20155270653777E-05,9.65457002166659E-06,1.40625,0,0.00862881311360449
-1.68966944329441E-05,7.35852427169448E-06,1.40625,0,0.00862881311360449
-2.25349631364224E-05,1.09699640233885E-05,1.40625,0,0.00862881311360449
-1.48111266753403E-05,8.60644104250241E-06,1.40625,0,0.00862881311360449
-1.8663811715669E-05,9.46943600865779E-06,1.40625,0,0.00862881311360449
-1.56107253133086E-05,7.00392229191493E-06,1.40625,0,0.00862881311360449
-1.87288915185491E-05,8.11577046988532E-06,1.40625,0,0.00862881311360449
-1.70021849044133E-05,7.67786241340218E-06,1.40625,0,0.00862881311360449
-1.79898779606447E-05,7.68876179790823E-06,1.40625,0,0.00862881311360449
-1.80813931365265E-05,7.62610306992428E-06,1.40625,0,0.00862881311360449
-1.80587958311662E-05,8.6147992988117E-06,1.40625,0,0.00862881311360449
-1.74307915585814E-05,9.17649776965845E-06,1.40625,0,0.00862881311360449
-1.73841381183593E-05,8.24955532152671E-06,1.40625,0,0.00862881311360449
-1.95507564058062E-05,6.99475685905782E-06,1.40625,0,0.00862881311360449
-1.98036268557189E-05,5.2142627282592E-06,1.40625,0,0.00862881311360449
-2.12484192161355E-05,6.44494411972119E-06,1.40625,0,0.00862881311360449
-2.08009860216407E-05,8.42870031192433E-06,1.40625,0,0.00862881311360449
-2.27588334382745E-05,9.66174138739007E-06,1.40625,0,0.00862881311360449
-2.29950492212083E-05,6.97217637934955E-06,1.40625,0,0.00862881311360449
-2.3831971702748E-05,3.96787663703435E-06,1.40625,0,0.00862881311360449
-2.15932941500796E-05,3.16846944770077E-06,1.40625,0,0.00862881311360449
-2.06953318411252E-05,4.7899411583785E-06,1.40625,0,0.00862881311360449
-2.02090104721719E-05,5.49851847608807E-06,1.40625,0,0.00862881311360449
-2.18239711102797E-05,6.2871308728063E-06,1.40625,0,0.00862881311360449
-2.29211236728588E-05,7.54100847188965E-06,1.40625,0,0.00862881311360449
-2.45699266088195E-05,1.00178422144381E-05,1.40625,0,0.00862881311360449
-2.54509086516919E-05,1.06326915556565E-05,1.40625,0,0.00862881311360449
-2.59709995589219E-05,8.87421902007191E-06,1.40625,0,0.00862881311360449
-2.04211919481168E-05,6.40248708805302E-06,1.40625,0,0.00862881311360449
-2.73184650723124E-05,9.48697197600268E-06,1.40625,0,0.00862881311360449
-1.91353719856124E-05,8.39239419292426E-06,1.40625,0,0.00862881311360449
-2.55645954894135E-05,1.13686410259106E-05,1.40625,0,0.00862881311360449
-2.23839106183732E-05,1.06696352304425E-05,1.40625,0,0.00862881311360449
-2.64211139437975E-05,1.1831866686407E-05,1.40625,0,0.00862881311360449
-2.48429350904189E-05,1.15880084194941E-05,1.40625,0,0.00862881311360449
-2.68435796897393E-05,1.25549677250092E-05,1.40625,0,0.00862881311360449
-2.71382268692832E-05,1.3725099961448E-05,1.40625,0,0.00862881311360449
-2.77279923466267E-05,1.37256220114068E-05,1.40625,0,0.00862881311360449
-2.78616244031582E-05,1.22250830827397E-05,1.40625,0,0.00862881311360449
-2.69492720690323E-05,1.15621814984479E-05,1.40625,0,0.00862881311360449
-2.74081958195893E-05,1.22791261674138E-05,1.40625,0,0.00862881311360449
-2.52948029810796E-05,1.19835613077157E-05,1.40625,0,0.00862881311360449
-2.54488804785069E-05,1.18568268590025E-05,1.40625,0,0.00862881311360449
-2.37611238844693E-05,1.1896409887413E-05,1.40625,0,0.00862881311360449
-2.48946598730981E-05,1.33756029754295E-05,1.40625,0,0.00862881311360449
-2.38188295043074E-05,1.39172097988194E-05,1.40625,0,0.00862881311360449
-2.45342671405524E-05,1.46917309393757E-05,1.40625,0,0.00862881311360449
-2.27522959903581E-05,1.53600067278603E-05,1.40625,0,0.00862881311360449
-2.29093893722165E-05,1.71022529684706E-05,1.40625,0,0.00862881311360449
-2.31120993703371E-05,1.61994612426497E-05,1.40625,0,0.00862881311360449
-2.45362643909175E-05,1.29092313727597E-05,1.40625,0,0.00862881311360449
-2.40018089243677E-05,1.06545703602023E-05,1.40625,0,0.00862881311360449
-2.28701919695595E-05,1.11533472590963E-05,1.40625,0,0.00862881311360449
-2.15616200875957E-05,1.28237188619096E-05,1.40625,0,0.00862881311360449
-2.10792713914998E-05,1.43361448863288E-05,1.40625,0,0.00862881311360449
-1.59547034854768E-05,1.15578422992257E-05,1.40625,0,0.00862881311360449
-2.23540064325789E-05,1.43581028169137E-05,1.40625,0,0.00862881311360449
-1.85422704817029E-05,5.54784037376521E-06,1.40625,0,0.00862881311360449
-2.48253527388442E-05,4.57715032098349E-06,1.40625,0,0.00862881311360449
-2.08270466828253E-05,2.29402098739229E-06,1.40625,0,0.00862881311360449
-2.32341553783044E-05,8.38823507365305E-06,1.40625,0,0.00862881311360449
-2.37893673329381E-05,1.09496450022561E-05,1.40625,0,0.00862881311360449
-2.59863172686892E-05,1.3940940334578E-05,1.40625,0,0.00862881311360449
-2.48631313297665E-05,1.70517396327341E-05,1.40625,0,0.00862881311360449
-2.32888287428068E-05,1.94069889403181E-05,1.40625,0,0.00862881311360449
-2.25147559831385E-05,1.86171509994892E-05,1.40625,0,0.00862881311360449
-2.22353010030929E-05,1.53376113303239E-05,1.40625,0,0.00862881311360449
-2.4171793484129E-05,1.28761148516787E-05,1.40625,0,0.00862881311360449
-2.41408415604383E-05,1.01043633549125E-05,1.40625,0,0.00862881311360449
-2.4595707145636E-05,9.56570966081927E-06,1.40625,0,0.00862881311360449
-2.23131119128084E-05,9.62570175033761E-06,1.40625,0,0.00862881311360449
-2.21108184632612E-05,1.21071498142555E-05,1.40625,0,0.00862881311360449
-2.14343672269024E-05,1.30129874378326E-05,1.40625,0,0.00862881311360449
-2.30671757890377E-05,1.37688712129602E-05,1.40625,0,0.00862881311360449
-2.35946336033521E-05,1.17872905320837E-05,1.40625,0,0.00862881311360449
-2.4639100956847E-05,1.00994202512084E-05,1.40625,0,0.00862881311360449
-2.34707786148647E-05,7.79527090344345E-06,1.40625,0,0.00862881311360449
-2.29492743528681E-05,6.00494740865543E-06,1.40625,0,0.00862881311360449
-2.2883996280143E-05,4.15456179325702E-06,1.40625,0,0.00862881311360449
-2.39833370869746E-05,4.84363226860296E-06,1.40625,0,0.00862881311360449
-2.50626726483461E-05,7.83374434831785E-06,1.40625,0,0.00862881311360449
-2.6272462491761E-05,1.20832728498499E-05,1.40625,0,0.00862881311360449
-2.11012629733887E-05,1.0476934221515E-05,1.40625,0,0.00862881311360449
-2.92079530481715E-05,1.30667685880326E-05,1.40625,0,0.00862881311360449
-2.22192556975642E-05,8.93003743840382E-06,1.40625,0,0.00862881311360449
-2.94069886876969E-05,1.16943774628453E-05,1.40625,0,0.00862881311360449
-2.55072136496892E-05,7.9572964750696E-06,1.40625,0,0.00862881311360449
-2.87580296571832E-05,1.05859098766814E-05,1.40625,0,0.00862881311360449
-2.74493486358551E-05,1.06792376755038E-05,1.40625,0,0.00862881311360449
-2.98477643809747E-05,1.22953342724941E-05,1.40625,0,0.00862881311360449
-2.89785839413526E-05,1.25561573440791E-05,1.40625,0,0.00862881311360449
-2.77432791335741E-05,1.135133607022E-05,1.40625,0,0.00862881311360449
-2.70193959295284E-05,8.21129560790723E-06,1.40625,0,0.00862881311360449
-2.57700721704168E-05,6.14169584878255E-06,1.40625,0,0.00862881311360449
-2.64491791313048E-05,7.73551073507406E-06,1.40625,0,0.00862881311360449
-2.52833742706571E-05,8.04362480266718E-06,1.40625,0,0.00862881311360449
-2.63736837951001E-05,7.72374460211722E-06,1.40625,0,0.00862881311360449
-2.5095185264945E-05,6.15431690675905E-06,1.40625,0,0.00862881311360449
-2.62453213508707E-05,6.98856274539139E-06,1.40625,0,0.00862881311360449
-2.5053404897335E-05,7.06410537532065E-06,1.40625,0,0.00862881311360449
-2.56593921221793E-05,8.44290389068192E-06,1.40625,0,0.00862881311360449
-2.41289017139934E-05,9.13873282115674E-06,1.40625,0,0.00862881311360449
-2.44198236032389E-05,1.23085910672671E-05,1.40625,0,0.00862881311360449
-2.39366745518055E-05,1.57851900439709E-05,1.40625,0,0.00862881311360449
-2.48657415795606E-05,1.75469031091779E-05,1.40625,0,0.00862881311360449
-2.45042829192244E-05,1.37024153445964E-05,1.40625,0,0.00862881311360449
-2.45747360168025E-05,9.37196728045819E-06,1.40625,0,0.00862881311360449
-2.55114737228723E-05,8.49356274557067E-06,1.40625,0,0.00862881311360449
-2.69606425717939E-05,1.03726115412428E-05,1.40625,0,0.00862881311360449
-2.19322064367589E-05,1.07773830677615E-05,1.40625,0,0.00862881311360449
-2.9564418582595E-05,1.73688531504013E-05,1.40625,0,0.00862881311360449
-1.89384518307634E-05,1.57412650878541E-05,1.40625,0,0.00862881311360449
-2.31224639719585E-05,1.8507162167225E-05,1.40625,0,0.00862881311360449
-1.94444255612325E-05,1.54963381646667E-05,1.40625,0,0.00862881311360449
-2.28507178690052E-05,1.45001858982141E-05,1.40625,0,0.00862881311360449
-1.98197722056648E-05,1.15359634946799E-05,1.40625,0,0.00862881311360449
-2.09714398806682E-05,1.09576949398615E-05,1.40625,0,0.00862881311360449
-2.14582796616014E-05,1.14929734991165E-05,1.40625,0,0.00862881311360449
-2.38763514062157E-05,1.24617326946463E-05,1.40625,0,0.00862881311360449
-2.6338146199123E-05,1.16380633699009E-05,1.40625,0,0.00862881311360449
-2.67970990535105E-05,9.40173140406841E-06,1.40625,0,0.00862881311360449
-2.74834892479703E-05,8.84794189914828E-06,1.40625,0,0.00862881311360449
-2.55933391599683E-05,8.91326635610312E-06,1.40625,0,0.00862881311360449
-2.603392022138E-05,1.0569189726084E-05,1.40625,0,0.00862881311360449
-2.38595093833283E-05,1.09634502223344E-05,1.40625,0,0.00862881311360449
-2.37517942878185E-05,1.16275359687279E-05,1.40625,0,0.00862881311360449
-2.18352379306452E-05,1.10104419945856E-05,1.40625,0,0.00862881311360449
-2.32917482207995E-05,1.01475407063845E-05,1.40625,0,0.00862881311360449
-2.30331897910219E-05,7.34373270461219E-06,1.40625,0,0.00862881311360449
-2.34618382819463E-05,6.52793869448942E-06,1.40625,0,0.00862881311360449
-2.22342478082282E-05,8.20316836325219E-06,1.40625,0,0.00862881311360449
-2.39772525674198E-05,1.1850243936351E-05,1.40625,0,0.00862881311360449
-2.57321371464059E-05,1.32706254589721E-05,1.40625,0,0.00862881311360449
-2.67648265435128E-05,1.4245346392272E-05,1.40625,0,0.00862881311360449
-2.57004649029113E-05,1.75321256392635E-05,1.40625,0,0.00862881311360449
-2.50174762186361E-05,1.99203004740411E-05,1.40625,0,0.00862881311360449
-2.08532546821516E-05,1.37418865051586E-05,1.40625,0,0.00862881311360449
-3.01102827506838E-05,1.58724342327332E-05,1.40625,0,0.00862881311360449
-2.25937601499027E-05,8.27696203486994E-06,1.40625,0,0.00862881311360449
-2.65606340690283E-05,1.23490553960437E-05,1.40625,0,0.00862881311360449
-2.25806998059852E-05,9.32032708078623E-06,1.40625,0,0.00862881311360449
-2.61448676610598E-05,1.39861158459098E-05,1.40625,0,0.00862881311360449
-2.39821929426398E-05,1.46515858432394E-05,1.40625,0,0.00862881311360449
-2.44949478656054E-05,1.48067338159308E-05,1.40625,0,0.00862881311360449
-2.34647304750979E-05,1.16110304588801E-05,1.40625,0,0.00862881311360449
-2.43537288042717E-05,1.02850481198402E-05,1.40625,0,0.00862881311360449
-2.57202991633676E-05,1.08938393168501E-05,1.40625,0,0.00862881311360449
-2.5866209398373E-05,1.00473098427756E-05,1.40625,0,0.00862881311360449
-2.74061821983196E-05,7.79680522100534E-06,1.40625,0,0.00862881311360449
-2.71440712822368E-05,3.32855688611744E-06,1.40625,0,0.00862881311360449
-2.86561244138284E-05,3.2973457564367E-06,1.40625,0,0.00862881311360449
-2.6976698791259E-05,4.57970145362196E-06,1.40625,0,0.00862881311360449
-2.76730388577562E-05,8.50974629429402E-06,1.40625,0,0.00862881311360449
-2.6177764084423E-05,1.02067233456182E-05,1.40625,0,0.00862881311360449
-2.60011784121161E-05,1.26536369862151E-05,1.40625,0,0.00862881311360449
-2.39156870520674E-05,1.31203632918186E-05,1.40625,0,0.00862881311360449
-2.35954703384778E-05,1.48257395267137E-05,1.40625,0,0.00862881311360449
-2.171064443246E-05,1.46311640492058E-05,1.40625,0,0.00862881311360449
-2.07355478778481E-05,1.44614623422967E-05,1.40625,0,0.00862881311360449
-1.91765993804438E-05,1.5092035937414E-05,1.40625,0,0.00862881311360449
-1.89072543435032E-05,1.72508807736449E-05,1.40625,0,0.00862881311360449
-2.03915460588178E-05,1.77682504727272E-05,1.40625,0,0.00862881311360449
-2.19950834434712E-05,1.51009662658907E-05,1.40625,0,0.00862881311360449
-1.78581176442094E-05,8.59954616316827E-06,1.40625,0,0.00862881311360449
-2.55909053521464E-05,1.0987403584295E-05,1.40625,0,0.00862881311360449
-2.04839579964755E-05,7.21290280125686E-06,1.40625,0,0.00862881311360449
-2.55812865361804E-05,9.14922293304699E-06,1.40625,0,0.00862881311360449
-2.08822602871805E-05,5.50056802239851E-06,1.40625,0,0.00862881311360449
-2.27267992158886E-05,4.55578265246004E-06,1.40625,0,0.00862881311360449
-2.1865274902666E-05,2.59014177572681E-06,1.40625,0,0.00862881311360449
-2.4345396013814E-05,4.09595577366417E-06,1.40625,0,0.00862881311360449
-2.43293416133383E-05,5.5063828767743E-06,1.40625,0,0.00862881311360449
-2.36740233958699E-05,6.19398861090303E-06,1.40625,0,0.00862881311360449
-2.28656244871672E-05,6.82804056850728E-06,1.40625,0,0.00862881311360449
-2.14572046388639E-05,7.40200630389154E-06,1.40625,0,0.00862881311360449
-2.22378057515016E-05,7.70754922996275E-06,1.40625,0,0.00862881311360449
-2.19393878069241E-05,6.75040746500599E-06,1.40625,0,0.00862881311360449
-2.3736254661344E-05,7.5215398283035E-06,1.40625,0,0.00862881311360449
-2.33580340136541E-05,7.37360369384987E-06,1.40625,0,0.00862881311360449
-2.4786857466097E-05,7.28121040083352E-06,1.40625,0,0.00862881311360449
-2.4130464225891E-05,6.72044279781403E-06,1.40625,0,0.00862881311360449
-2.47543721343391E-05,8.88025260792347E-06,1.40625,0,0.00862881311360449
-2.40193585341331E-05,1.12113739305642E-05,1.40625,0,0.00862881311360449
-2.4932143787737E-05,1.26791073853383E-05,1.40625,0,0.00862881311360449
-2.48546111834003E-05,9.93982939689886E-06,1.40625,0,0.00862881311360449
-2.53762409556657E-05,6.2368558246817E-06,1.40625,0,0.00862881311360449
-2.56768253166229E-05,4.04060756409308E-06,1.40625,0,0.00862881311360449
-2.67456252913689E-05,4.25569805884152E-06,1.40625,0,0.00862881311360449
-2.64054779108847E-05,5.18786328029819E-06,1.40625,0,0.00862881311360449
-2.47802981903078E-05,6.53683218843071E-06,1.40625,0,0.00862881311360449
-1.92130173672922E-05,6.0018292060704E-06,1.40625,0,0.00862881311360449
-2.91117703454802E-05,7.05565025782562E-06,1.40625,0,0.00862881311360449
-2.52531444857595E-05,3.51736684933712E-06,1.40625,0,0.00862881311360449
-2.98823360935785E-05,6.06777575740125E-06,1.40625,0,0.00862881311360449
-2.46373074332951E-05,4.96627080792678E-06,1.40625,0,0.00862881311360449
-2.64973386947531E-05,5.41554027222446E-06,1.40625,0,0.00862881311360449
-2.38550783251412E-05,5.72555927647045E-06,1.40625,0,0.00862881311360449
-2.40406461671228E-05,6.8281033236417E-06,1.40625,0,0.00862881311360449
-2.24473587877583E-05,7.35833918952267E-06,1.40625,0,0.00862881311360449
-2.31193225772586E-05,7.50708068153472E-06,1.40625,0,0.00862881311360449
-2.33893297263421E-05,7.47088779462501E-06,1.40625,0,0.00862881311360449
-2.11346832657E-05,6.11636505709612E-06,1.40625,0,0.00862881311360449
-2.07533503271407E-05,4.56687530459021E-06,1.40625,0,0.00862881311360449
-2.00206977751805E-05,3.66798667528201E-06,1.40625,0,0.00862881311360449
-2.15346153709106E-05,5.7163265410054E-06,1.40625,0,0.00862881311360449
-2.04723255592398E-05,8.40603388496675E-06,1.40625,0,0.00862881311360449
-2.05309879675042E-05,1.04645087048993E-05,1.40625,0,0.00862881311360449
-1.83742049557623E-05,1.0246485544485E-05,1.40625,0,0.00862881311360449
-1.92177067219745E-05,1.03770098576206E-05,1.40625,0,0.00862881311360449
-1.96130440599518E-05,1.11413582999376E-05,1.40625,0,0.00862881311360449
-2.18981786019867E-05,1.25444366858574E-05,1.40625,0,0.00862881311360449
-2.17150427488377E-05,1.37674242068897E-05,1.40625,0,0.00862881311360449
-2.08189976547146E-05,1.75000113813439E-05,1.40625,0,0.00862881311360449
-1.99238165805582E-05,2.2371004888555E-05,1.40625,0,0.00862881311360449
-2.1655341697624E-05,2.49635759246303E-05,1.40625,0,0.00862881311360449
-2.22910512093222E-05,2.30846726481104E-05,1.40625,0,0.00862881311360449
-2.20084984903224E-05,1.9035722289118E-05,1.40625,0,0.00862881311360449
-1.71693318407051E-05,1.31919596242369E-05,1.40625,0,0.00862881311360449
-2.50270932156127E-05,1.77332585735712E-05,1.40625,0,0.00862881311360449
-1.96762812265661E-05,1.31451888591982E-05,1.40625,0,0.00862881311360449
-2.3451555534848E-05,1.77954807440983E-05,1.40625,0,0.00862881311360449
-1.92234729183838E-05,1.43674160426599E-05,1.40625,0,0.00862881311360449
-2.09139270737069E-05,1.58140883286251E-05,1.40625,0,0.00862881311360449
-1.90276605280815E-05,1.41039408845245E-05,1.40625,0,0.00862881311360449
-2.11408041650429E-05,1.39695603138534E-05,1.40625,0,0.00862881311360449
-2.23936222027987E-05,1.29349355120212E-05,1.40625,0,0.00862881311360449
-2.36921987379901E-05,1.39721187224495E-05,1.40625,0,0.00862881311360449
-2.42784026340814E-05,1.53522905748105E-05,1.40625,0,0.00862881311360449
-2.45986830123002E-05,1.4484016901406E-05,1.40625,0,0.00862881311360449
-2.63087822531816E-05,1.47593409565161E-05,1.40625,0,0.00862881311360449
-2.49602653639158E-05,1.49404349940596E-05,1.40625,0,0.00862881311360449
-2.4234348529717E-05,1.71043921000091E-05,1.40625,0,0.00862881311360449
-2.26823340199189E-05,1.68235874298261E-05,1.40625,0,0.00862881311360449
-2.46277904807357E-05,1.65125820785761E-05,1.40625,0,0.00862881311360449
-2.49808053922607E-05,1.43558490890427E-05,1.40625,0,0.00862881311360449
-2.61691857303958E-05,1.46307784234523E-05,1.40625,0,0.00862881311360449
-2.57257470366312E-05,1.45014200825244E-05,1.40625,0,0.00862881311360449
-2.66004844888812E-05,1.54724639287451E-05,1.40625,0,0.00862881311360449
-2.58510153798852E-05,1.52953962242464E-05,1.40625,0,0.00862881311360449
-2.58493000728777E-05,1.52227585203946E-05,1.40625,0,0.00862881311360449
-2.60329470620491E-05,1.30118405650137E-05,1.40625,0,0.00862881311360449
-2.69024403678486E-05,9.55766427068738E-06,1.40625,0,0.00862881311360449
-2.51739966188325E-05,6.1441073739843E-06,1.40625,0,0.00862881311360449
-2.30509249377064E-05,5.03486990055535E-06,1.40625,0,0.00862881311360449
-1.86585948540596E-05,5.60665284865536E-06,1.40625,0,0.00862881311360449
-2.62413796008332E-05,9.48727301874897E-06,1.40625,0,0.00862881311360449
-1.93258056242485E-05,8.8682127170614E-06,1.40625,0,0.00862881311360449
-2.36028572544456E-05,1.15132315841038E-05,1.40625,0,0.00862881311360449
-1.92138068086933E-05,1.3076623872621E-05,1.40625,0,0.00862881311360449
-2.18516961467685E-05,1.30142207126482E-05,1.40625,0,0.00862881311360449
-2.04386196855921E-05,9.06133573153056E-06,1.40625,0,0.00862881311360449
-2.25400326598901E-05,6.71007774144528E-06,1.40625,0,0.00862881311360449
-2.32695037993835E-05,6.1182809076854E-06,1.40625,0,0.00862881311360449
-2.3762957425788E-05,5.91921525483485E-06,1.40625,0,0.00862881311360449
-2.33789432968479E-05,5.82965230933041E-06,1.40625,0,0.00862881311360449
-2.19453268073266E-05,6.37694165561697E-06,1.40625,0,0.00862881311360449
-2.26849242608296E-05,6.46918442726019E-06,1.40625,0,0.00862881311360449
-2.22529251914239E-05,5.00062333230744E-06,1.40625,0,0.00862881311360449
-2.46217769017676E-05,5.64668835068005E-06,1.40625,0,0.00862881311360449
-2.53439084190177E-05,7.5313100751373E-06,1.40625,0,0.00862881311360449
-2.73752157227136E-05,8.88566228240961E-06,1.40625,0,0.00862881311360449
-2.63303936662851E-05,8.17951058706967E-06,1.40625,0,0.00862881311360449
-2.62684334302321E-05,7.6859787441208E-06,1.40625,0,0.00862881311360449
-2.47159441641998E-05,7.60277453082381E-06,1.40625,0,0.00862881311360449
-2.60160431935219E-05,8.29382315714611E-06,1.40625,0,0.00862881311360449
-2.67578343482455E-05,7.7130125646363E-06,1.40625,0,0.00862881311360449
-2.73747518804157E-05,4.93556353831082E-06,1.40625,0,0.00862881311360449
-2.68985168077052E-05,2.47554976340325E-06,1.40625,0,0.00862881311360449
-2.70336568064522E-05,2.38652978623577E-06,1.40625,0,0.00862881311360449
-2.63708170678001E-05,9.75545390247134E-07,1.40625,0,0.00862881311360449
-2.54031820077216E-05,-9.23860397961107E-07,1.40625,0,0.00862881311360449
-2.08382298296783E-05,5.69881024148344E-07,1.40625,0,0.00862881311360449
-3.06520123558585E-05,4.16806187786278E-06,1.40625,0,0.00862881311360449
-2.51129331445554E-05,8.23428581497865E-06,1.40625,0,0.00862881311360449
-3.03019587590825E-05,9.90347143670078E-06,1.40625,0,0.00862881311360449
-2.51141191256465E-05,1.14189469968551E-05,1.40625,0,0.00862881311360449
-2.70387427008245E-05,1.22156334327883E-05,1.40625,0,0.00862881311360449
-2.39970850088866E-05,1.17388008220587E-05,1.40625,0,0.00862881311360449
-2.60706019616919E-05,9.77764011622639E-06,1.40625,0,0.00862881311360449
-2.6770921977004E-05,9.25153381103883E-06,1.40625,0,0.00862881311360449
-2.67358827841235E-05,9.86776740319328E-06,1.40625,0,0.00862881311360449
-2.58869422395946E-05,1.15560933409142E-05,1.40625,0,0.00862881311360449
-2.49326913035475E-05,1.35246373247355E-05,1.40625,0,0.00862881311360449
-2.61062687059166E-05,1.43337929330301E-05,1.40625,0,0.00862881311360449
-2.453335946484E-05,1.4442962310568E-05,1.40625,0,0.00862881311360449
-2.50301036430756E-05,1.44926725624828E-05,1.40625,0,0.00862881311360449
-2.35127572523197E-05,1.43047127494356E-05,1.40625,0,0.00862881311360449
-2.40283661696594E-05,1.43989018397406E-05,1.40625,0,0.00862881311360449
-2.23357819777448E-05,1.51497270053369E-05,1.40625,0,0.00862881311360449
-2.28906137635931E-05,1.349618560198E-05,1.40625,0,0.00862881311360449
-2.19975809159223E-05,9.85798578767572E-06,1.40625,0,0.00862881311360449
-2.38743414229248E-05,7.7054210123606E-06,1.40625,0,0.00862881311360449
-2.49278855335433E-05,8.33387730381219E-06,1.40625,0,0.00862881311360449
-2.54158494499279E-05,9.17677334655309E-06,1.40625,0,0.00862881311360449
-2.35788756981492E-05,9.23710285860579E-06,1.40625,0,0.00862881311360449
-2.32329130085418E-05,8.90457522473298E-06,1.40625,0,0.00862881311360449
-2.33746704907389E-05,8.92876141733723E-06,1.40625,0,0.00862881311360449
-2.42922051256755E-05,9.4667693701922E-06,1.40625,0,0.00862881311360449
-2.04322986974148E-05,8.28228985483292E-06,1.40625,0,0.00862881311360449
-2.83592253254028E-05,1.2616535059351E-05,1.40625,0,0.00862881311360449
-2.02938026632182E-05,1.11315011963597E-05,1.40625,0,0.00862881311360449
-2.4364340788452E-05,1.53292585309828E-05,1.40625,0,0.00862881311360449
-1.90799837582745E-05,1.58131952048279E-05,1.40625,0,0.00862881311360449
-2.14342981053051E-05,1.82929325092118E-05,1.40625,0,0.00862881311360449
-1.91153976629721E-05,1.63608528964687E-05,1.40625,0,0.00862881311360449
-2.1066885892651E-05,1.39323719849926E-05,1.40625,0,0.00862881311360449
-2.21128611883614E-05,1.17914114525774E-05,1.40625,0,0.00862881311360449
-2.31612502830103E-05,1.17255776785896E-05,1.40625,0,0.00862881311360449
-2.20755300688325E-05,1.45624953802326E-05,1.40625,0,0.00862881311360449
-2.02298124349909E-05,1.66888894455042E-05,1.40625,0,0.00862881311360449
-2.27448017540155E-05,1.53607961692614E-05,1.40625,0,0.00862881311360449
-2.46745366894174E-05,1.08445028672577E-05,1.40625,0,0.00862881311360449
-2.7375434001442E-05,8.09948505775537E-06,1.40625,0,0.00862881311360449
-2.60904398601269E-05,7.15635678716353E-06,1.40625,0,0.00862881311360449
-2.64935461018467E-05,8.7733087639208E-06,1.40625,0,0.00862881311360449
-2.53531216003466E-05,1.01117630038061E-05,1.40625,0,0.00862881311360449
-2.68359544861596E-05,1.09292623164947E-05,1.40625,0,0.00862881311360449
-2.57974843407283E-05,9.5979412435554E-06,1.40625,0,0.00862881311360449
-2.53130274359137E-05,9.39389974519145E-06,1.40625,0,0.00862881311360449
-2.32660768233472E-05,1.0867292076E-05,1.40625,0,0.00862881311360449
-2.28083572437754E-05,1.36596727315919E-05,1.40625,0,0.00862881311360449
-2.18275254155742E-05,1.36592161652516E-05,1.40625,0,0.00862881311360449
-2.26178417506162E-05,1.10257942651515E-05,1.40625,0,0.00862881311360449
-2.29421348194592E-05,8.62616161612095E-06,1.40625,0,0.00862881311360449
-2.15052132261917E-05,8.04446062829811E-06,1.40625,0,0.00862881311360449
-1.70422626979416E-05,7.49636637920048E-06,1.40625,0,0.00862881311360449
-2.52174213528633E-05,1.26073755382095E-05,1.40625,0,0.00862881311360449
-1.99866590264719E-05,1.11099616333377E-05,1.40625,0,0.00862881311360449
-2.35163024626672E-05,1.0823855518538E-05,1.40625,0,0.00862881311360449
-2.05209562409436E-05,8.39211497805081E-06,1.40625,0,0.00862881311360449
-2.50171269726707E-05,1.00132119769114E-05,1.40625,0,0.00862881311360449
-2.53177004196914E-05,1.01160903795972E-05,1.40625,0,0.00862881311360449
-2.52759291470284E-05,1.13390051410533E-05,1.40625,0,0.00862881311360449
-2.2398973669624E-05,1.18716634460725E-05,1.40625,0,0.00862881311360449
-2.13953462662175E-05,1.15905995698995E-05,1.40625,0,0.00862881311360449
-2.29834149649832E-05,1.07044043033966E-05,1.40625,0,0.00862881311360449
-2.49829881795449E-05,9.69178927334724E-06,1.40625,0,0.00862881311360449
-2.64841928583337E-05,9.57038992055459E-06,1.40625,0,0.00862881311360449
-2.52244626608444E-05,8.77717138791922E-06,1.40625,0,0.00862881311360449
-2.57233241427457E-05,8.68041752255522E-06,1.40625,0,0.00862881311360449
-2.50371740548871E-05,8.03037801233586E-06,1.40625,0,0.00862881311360449
-2.67509112745756E-05,7.85736210673349E-06,1.40625,0,0.00862881311360449
-2.72525703621795E-05,6.67019412503578E-06,1.40625,0,0.00862881311360449
-2.9595421437989E-05,5.72303133594687E-06,1.40625,0,0.00862881311360449
-2.86319991573691E-05,4.53117127108271E-06,1.40625,0,0.00862881311360449
-2.65901126113022E-05,5.1912825256295E-06,1.40625,0,0.00862881311360449
-2.47186817432521E-05,6.227779067558E-06,1.40625,0,0.00862881311360449
-2.52082991210045E-05,7.13314238964813E-06,1.40625,0,0.00862881311360449
-2.48439919232624E-05,6.66429878037889E-06,1.40625,0,0.00862881311360449
-2.59404096141225E-05,6.85462737237685E-06,1.40625,0,0.00862881311360449
-2.60715023614466E-05,7.88528541306732E-06,1.40625,0,0.00862881311360449
-2.53403504757443E-05,8.47719002194935E-06,1.40625,0,0.00862881311360449
-1.91907911357703E-05,6.94056461725268E-06,1.40625,0,0.00862881311360449
-2.63725141849136E-05,1.06621846498456E-05,1.40625,0,0.00862881311360449
-1.98310899577336E-05,8.02977865532739E-06,1.40625,0,0.00862881311360449
-2.55328177445335E-05,8.71642350830371E-06,1.40625,0,0.00862881311360449
-2.18390523514245E-05,9.2170457719476E-06,1.40625,0,0.00862881311360449
-2.60660890489817E-05,1.30037433336838E-05,1.40625,0,0.00862881311360449
-2.44034854404163E-05,1.33528656078852E-05,1.40625,0,0.00862881311360449
-2.43875019805273E-05,1.30095413624076E-05,1.40625,0,0.00862881311360449
-2.25135063374182E-05,1.20978802442551E-05,1.40625,0,0.00862881311360449
-2.27415221161209E-05,1.23099725897191E-05,1.40625,0,0.00862881311360449
-2.36592968576588E-05,1.17577656055801E-05,1.40625,0,0.00862881311360449
-2.38072971114889E-05,1.12208699647454E-05,1.40625,0,0.00862881311360449
-2.49675031227525E-05,1.22427072710707E-05,1.40625,0,0.00862881311360449
-2.39113815041492E-05,1.32505838337238E-05,1.40625,0,0.00862881311360449
-2.46318777499255E-05,1.39410612973734E-05,1.40625,0,0.00862881311360449
-2.31823287322186E-05,1.25564056361327E-05,1.40625,0,0.00862881311360449
-2.47493208007654E-05,1.15751936391462E-05,1.40625,0,0.00862881311360449
-2.40006756939692E-05,1.02287413028535E-05,1.40625,0,0.00862881311360449
-2.34089347941335E-05,9.89794534689281E-06,1.40625,0,0.00862881311360449
-2.04113202926237E-05,9.77227318799123E-06,1.40625,0,0.00862881311360449
-2.03765503101749E-05,1.22751771414187E-05,1.40625,0,0.00862881311360449
-2.0009098079754E-05,1.41426135087386E-05,1.40625,0,0.00862881311360449
-2.1456826289068E-05,1.42684466482024E-05,1.40625,0,0.00862881311360449
-2.2156365957926E-05,1.32342092911131E-05,1.40625,0,0.00862881311360449
-2.28966509894235E-05,1.05831841210602E-05,1.40625,0,0.00862881311360449
-2.26052325160708E-05,6.38140545561328E-06,1.40625,0,0.00862881311360449
-2.19141238630982E-05,3.67532447853591E-06,1.40625,0,0.00862881311360449
-1.6490688722115E-05,4.24084964834037E-06,1.40625,0,0.00862881311360449
-2.31365465879207E-05,1.20289269034402E-05,1.40625,0,0.00862881311360449
-1.87444165931083E-05,1.77989604708273E-05,1.40625,0,0.00862881311360449
-2.5001600079122E-05,1.84386062755948E-05,1.40625,0,0.00862881311360449
-2.21534464799333E-05,1.44857085615513E-05,1.40625,0,0.00862881311360449
-2.51383735303534E-05,1.45922513183905E-05,1.40625,0,0.00862881311360449
-2.41543693846324E-05,1.8503042156226E-05,1.40625,0,0.00862881311360449
-2.39660439547151E-05,2.00121776288142E-05,1.40625,0,0.00862881311360449
-2.09410191018833E-05,1.63318345585139E-05,1.40625,0,0.00862881311360449
-1.96106266230345E-05,1.13437426989549E-05,1.40625,0,0.00862881311360449
-2.02700848603854E-05,9.75715920503717E-06,1.40625,0,0.00862881311360449
-2.09456284210319E-05,1.06985135062132E-05,1.40625,0,0.00862881311360449
-2.17233482544543E-05,1.16219898700365E-05,1.40625,0,0.00862881311360449
-2.08342426049057E-05,1.09779230115237E-05,1.40625,0,0.00862881311360449
-2.21025547944009E-05,1.01565437944373E-05,1.40625,0,0.00862881311360449
-2.08316414500587E-05,1.02932481240714E-05,1.40625,0,0.00862881311360449
-2.12947306863498E-05,1.11200833998737E-05,1.40625,0,0.00862881311360449
-2.11298411159078E-05,1.09452284959843E-05,1.40625,0,0.00862881311360449
-2.34489270951599E-05,1.01160339909256E-05,1.40625,0,0.00862881311360449
-2.38355241890531E-05,9.32678631215822E-06,1.40625,0,0.00862881311360449
-2.4492841475876E-05,8.57307077239966E-06,1.40625,0,0.00862881311360449
-2.41451289184624E-05,8.55688540468691E-06,1.40625,0,0.00862881311360449
-2.45579194597667E-05,1.03404508990934E-05,1.40625,0,0.00862881311360449
-2.27567234105663E-05,1.20687736853142E-05,1.40625,0,0.00862881311360449
-2.15190557355527E-05,1.14566082629608E-05,1.40625,0,0.00862881311360449
-2.23646075028228E-05,1.00269144240883E-05,1.40625,0,0.00862881311360449
-2.40448207478039E-05,1.0394361197541E-05,1.40625,0,0.00862881311360449
-1.89373895409517E-05,1.07418181869434E-05,1.40625,0,0.00862881311360449
-2.6096859073732E-05,1.58251878019655E-05,1.40625,0,0.00862881311360449
-1.94946114788763E-05,1.06342713479535E-05,1.40625,0,0.00862881311360449
-2.51605179073522E-05,1.27119556054822E-05,1.40625,0,0.00862881311360449
-2.14488954952685E-05,1.20015010907082E-05,1.40625,0,0.00862881311360449
-2.35754523600917E-05,1.30004809761886E-05,1.40625,0,0.00862881311360449
-2.04720054171048E-05,1.12195302790496E-05,1.40625,0,0.00862881311360449
-2.10121725103818E-05,1.07935220512445E-05,1.40625,0,0.00862881311360449
-2.0116007362958E-05,1.03325546660926E-05,1.40625,0,0.00862881311360449
-2.05413507501362E-05,1.11278441181639E-05,1.40625,0,0.00862881311360449
-2.13142648135545E-05,1.20448094094172E-05,1.40625,0,0.00862881311360449
-2.11176557058934E-05,1.20934437290998E-05,1.40625,0,0.00862881311360449
-2.18078821490053E-05,1.20007016448653E-05,1.40625,0,0.00862881311360449
-2.03234940272523E-05,1.0589948942652E-05,1.40625,0,0.00862881311360449
-2.17180950130569E-05,1.0099643986905E-05,1.40625,0,0.00862881311360449
-2.19542562263086E-05,9.12245832296321E-06,1.40625,0,0.00862881311360449
-2.45004957832862E-05,1.00587267297669E-05,1.40625,0,0.00862881311360449
-2.49195745709585E-05,1.01628029369749E-05,1.40625,0,0.00862881311360449
-2.69162010226864E-05,1.03074935395853E-05,1.40625,0,0.00862881311360449
-2.59678108704975E-05,9.08653782971669E-06,1.40625,0,0.00862881311360449
-2.60510150837945E-05,9.48863635130692E-06,1.40625,0,0.00862881311360449
-2.55633694905555E-05,1.03379225038225E-05,1.40625,0,0.00862881311360449
-2.67549676209455E-05,1.04072341855499E-05,1.40625,0,0.00862881311360449
-2.62005396507448E-05,7.68669997341931E-06,1.40625,0,0.00862881311360449
-2.5552431907272E-05,2.88604701381701E-06,1.40625,0,0.00862881311360449
-2.60004562733229E-05,-5.53574523110001E-07,1.40625,0,0.00862881311360449
-2.64388600044185E-05,-4.89873343667568E-07,1.40625,0,0.00862881311360449
-2.19338871829677E-05,1.72742659287906E-07,1.40625,0,0.00862881311360449
-3.179798295605E-05,9.45835438415088E-07,1.40625,0,0.00862881311360449
-2.56021867244272E-05,1.58171803832374E-06,1.40625,0,0.00862881311360449
-3.1366496841656E-05,2.64014829554071E-06,1.40625,0,0.00862881311360449
-2.5001176254591E-05,6.12398844168638E-06,1.40625,0,0.00862881311360449
-2.58751933870371E-05,9.12278483156115E-06,1.40625,0,0.00862881311360449
-2.22475355258211E-05,9.7950332929031E-06,1.40625,0,0.00862881311360449
-2.37808690144448E-05,9.36056403588736E-06,1.40625,0,0.00862881311360449
-2.40803183260141E-05,1.05260778582306E-05,1.40625,0,0.00862881311360449
-2.44608636421617E-05,1.21091361506842E-05,1.40625,0,0.00862881311360449
-2.53545713349013E-05,1.21712137115537E-05,1.40625,0,0.00862881311360449
-2.49683034780901E-05,1.04118771560024E-05,1.40625,0,0.00862881311360449
-2.65241596935084E-05,9.22253275348339E-06,1.40625,0,0.00862881311360449
-2.58394702541409E-05,1.00241095424281E-05,1.40625,0,0.00862881311360449
-2.71177013928536E-05,1.08419244497782E-05,1.40625,0,0.00862881311360449
-2.60524884652114E-05,1.09901657197042E-05,1.40625,0,0.00862881311360449
-2.75715810857946E-05,1.1996652574453E-05,1.40625,0,0.00862881311360449
-2.70800828729989E-05,1.3245718946564E-05,1.40625,0,0.00862881311360449
-2.83940607914701E-05,1.3239924555819E-05,1.40625,0,0.00862881311360449
-2.65678499999922E-05,1.24209191199043E-05,1.40625,0,0.00862881311360449
-2.55642225965858E-05,1.25677279356751E-05,1.40625,0,0.00862881311360449
-2.43356862483779E-05,1.55975722009316E-05,1.40625,0,0.00862881311360449
-2.59145690506557E-05,1.84854325198103E-05,1.40625,0,0.00862881311360449
-2.68797484750394E-05,1.87119221664034E-05,1.40625,0,0.00862881311360449
-2.72820598183898E-05,1.81817504198989E-05,1.40625,0,0.00862881311360449
-2.72746838163584E-05,1.76445646502543E-05,1.40625,0,0.00862881311360449
-2.67852810793556E-05,1.58221591846086E-05,1.40625,0,0.00862881311360449
-2.02953124244232E-05,1.23615054690163E-05,1.40625,0,0.00862881311360449
-2.82998280454194E-05,2.000581662287E-05,1.40625,0,0.00862881311360449
-2.15985364775406E-05,1.809348941606E-05,1.40625,0,0.00862881311360449
-2.73152218142059E-05,2.04669722734252E-05,1.40625,0,0.00862881311360449
-2.22951075556921E-05,1.59118753799703E-05,1.40625,0,0.00862881311360449
-2.43801514443476E-05,1.46312786455383E-05,1.40625,0,0.00862881311360449
-2.12115064641694E-05,1.09923121272004E-05,1.40625,0,0.00862881311360449
-2.1859135813429E-05,1.09737302409485E-05,1.40625,0,0.00862881311360449
-2.25202347792219E-05,1.09336388049996E-05,1.40625,0,0.00862881311360449
-2.45135288423626E-05,1.11667050077813E-05,1.40625,0,0.00862881311360449
-2.54994029091904E-05,9.77723902906291E-06,1.40625,0,0.00862881311360449
-2.5619860025472E-05,8.66151549416827E-06,1.40625,0,0.00862881311360449
-2.77848466794239E-05,1.0653351637302E-05,1.40625,0,0.00862881311360449
-2.81930788332829E-05,1.20750519272406E-05,1.40625,0,0.00862881311360449
-3.01312484225491E-05,1.35700001919759E-05,1.40625,0,0.00862881311360449
-2.78527822956676E-05,1.31895549202454E-05,1.40625,0,0.00862881311360449
-2.62628564087208E-05,1.42116432471084E-05,1.40625,0,0.00862881311360449
-2.2618778530159E-05,1.3513120393327E-05,1.40625,0,0.00862881311360449
-2.27013770199846E-05,1.35676418722142E-05,1.40625,0,0.00862881311360449
-2.23810493480414E-05,1.19893575174501E-05,1.40625,0,0.00862881311360449
-2.31062949751504E-05,1.01298219306045E-05,1.40625,0,0.00862881311360449
-2.11638616747223E-05,9.00262148206821E-06,1.40625,0,0.00862881311360449
-2.04737170861335E-05,1.13922833406832E-05,1.40625,0,0.00862881311360449
-2.10509824682958E-05,1.39259100251365E-05,1.40625,0,0.00862881311360449
-2.34812905546278E-05,1.46635493365466E-05,1.40625,0,0.00862881311360449
-2.3877930289018E-05,1.24866201076657E-05,1.40625,0,0.00862881311360449
-2.39006130868802E-05,9.2130439952598E-06,1.40625,0,0.00862881311360449
-1.97562258108519E-05,6.57072723697638E-06,1.40625,0,0.00862881311360449
-2.60707183770137E-05,1.12253701445297E-05,1.40625,0,0.00862881311360449
-1.74014530784916E-05,1.12432262540096E-05,1.40625,0,0.00862881311360449
-2.26568554353435E-05,1.12105444713961E-05,1.40625,0,0.00862881311360449
-1.91477902262704E-05,7.40817813493777E-06,1.40625,0,0.00862881311360449
-2.30180503422162E-05,8.01481110102031E-06,1.40625,0,0.00862881311360449
-2.25830917770509E-05,7.54136817704421E-06,1.40625,0,0.00862881311360449
-2.53668367804494E-05,7.27359656593762E-06,1.40625,0,0.00862881311360449
-2.44995517277857E-05,6.96098686603364E-06,1.40625,0,0.00862881311360449
-2.35148854699219E-05,6.71978978061816E-06,1.40625,0,0.00862881311360449
-2.28791341214674E-05,7.42005931897438E-06,1.40625,0,0.00862881311360449
-2.21751179196872E-05,8.59547617437784E-06,1.40625,0,0.00862881311360449
-2.35517254623119E-05,9.10968174139271E-06,1.40625,0,0.00862881311360449
-2.24922441702802E-05,7.92477840150241E-06,1.40625,0,0.00862881311360449
-2.30539917538408E-05,8.70823987497715E-06,1.40625,0,0.00862881311360449
-2.10901016544085E-05,9.49284731177613E-06,1.40625,0,0.00862881311360449
-2.10347097890917E-05,9.06685181689681E-06,1.40625,0,0.00862881311360449
-1.95349603018258E-05,5.87162230658578E-06,1.40625,0,0.00862881311360449
-2.1861069399165E-05,3.69174517800275E-06,1.40625,0,0.00862881311360449
-2.22709495574236E-05,3.31443970935652E-06,1.40625,0,0.00862881311360449
-2.26739430218004E-05,3.735966174645E-06,1.40625,0,0.00862881311360449
-2.12066606763983E-05,2.85722876469663E-06,1.40625,0,0.00862881311360449
-2.1960266167298E-05,2.92129516310524E-06,1.40625,0,0.00862881311360449
-2.10962734854547E-05,4.36220898336614E-06,1.40625,0,0.00862881311360449
-2.03079725906719E-05,5.83599967285409E-06,1.40625,0,0.00862881311360449
-2.00342819880461E-05,6.25097163720056E-06,1.40625,0,0.00862881311360449
-2.18159293581266E-05,6.46111084279255E-06,1.40625,0,0.00862881311360449
-2.00188242160948E-05,6.6793345467886E-06,1.40625,0,0.00862881311360449
-2.87038837996079E-05,1.02621706901118E-05,1.40625,0,0.00862881311360449
-2.18158911593491E-05,8.88809154275805E-06,1.40625,0,0.00862881311360449
-2.73883833870059E-05,1.13677069748519E-05,1.40625,0,0.00862881311360449
-2.37611293414375E-05,1.05913468360086E-05,1.40625,0,0.00862881311360449
-2.64593672909541E-05,1.18396401376231E-05,1.40625,0,0.00862881311360449
-2.55837476288434E-05,1.1715216714947E-05,1.40625,0,0.00862881311360449
-2.745881829469E-05,1.19864389489521E-05,1.40625,0,0.00862881311360449
-2.60561228060396E-05,1.24952057376504E-05,1.40625,0,0.00862881311360449
-2.49429685936775E-05,1.2918574611831E-05,1.40625,0,0.00862881311360449
-2.53290581895271E-05,1.28112133097602E-05,1.40625,0,0.00862881311360449
-2.62488520093029E-05,1.35349118863815E-05,1.40625,0,0.00862881311360449
-2.83517656498589E-05,1.48534090840258E-05,1.40625,0,0.00862881311360449
-2.77238141279668E-05,1.35168247652473E-05,1.40625,0,0.00862881311360449
-2.84984107565833E-05,1.1493279998831E-05,1.40625,0,0.00862881311360449
-2.7391210096539E-05,8.60574982652906E-06,1.40625,0,0.00862881311360449
-2.8318176191533E-05,7.02367742633214E-06,1.40625,0,0.00862881311360449
-2.68631392827956E-05,5.97734560869867E-06,1.40625,0,0.00862881311360449
-2.7564690753934E-05,6.34837715551839E-06,1.40625,0,0.00862881311360449
-2.63828569586622E-05,6.36745471638278E-06,1.40625,0,0.00862881311360449
-2.61492641584482E-05,6.65355128148803E-06,1.40625,0,0.00862881311360449
-2.51248911808943E-05,6.04382648816681E-06,1.40625,0,0.00862881311360449
-2.59101198025746E-05,5.29762746737106E-06,1.40625,0,0.00862881311360449
-2.56500516115921E-05,5.3166822908679E-06,1.40625,0,0.00862881311360449
-2.45628161792411E-05,6.81182973494288E-06,1.40625,0,0.00862881311360449
-2.31599296967033E-05,9.34452054934809E-06,1.40625,0,0.00862881311360449
-2.38647862715879E-05,1.06287816379336E-05,1.40625,0,0.00862881311360449
-2.02991232072236E-05,8.3038230513921E-06,1.40625,0,0.00862881311360449
-2.96094003715552E-05,1.1411018022045E-05,1.40625,0,0.00862881311360449
-2.33874288824154E-05,7.79047059040749E-06,1.40625,0,0.00862881311360449
-2.75237198366085E-05,7.98476685304195E-06,1.40625,0,0.00862881311360449
-2.19393114093691E-05,4.83891471958486E-06,1.40625,0,0.00862881311360449
-2.45046921918401E-05,7.70985934650525E-06,1.40625,0,0.00862881311360449
-2.32105558097828E-05,9.2788104666397E-06,1.40625,0,0.00862881311360449
-2.49276999966241E-05,1.1787789844675E-05,1.40625,0,0.00862881311360449
-2.45181054197019E-05,1.24341349874157E-05,1.40625,0,0.00862881311360449
-2.52588561124867E-05,1.34400243041455E-05,1.40625,0,0.00862881311360449
-2.6194415113423E-05,1.46315223901183E-05,1.40625,0,0.00862881311360449
-2.5730249035405E-05,1.32496761580114E-05,1.40625,0,0.00862881311360449
-2.61771747318562E-05,1.02647800304112E-05,1.40625,0,0.00862881311360449
-2.40433309954824E-05,7.22303957445547E-06,1.40625,0,0.00862881311360449
-2.35447714658221E-05,8.77169804880396E-06,1.40625,0,0.00862881311360449
-2.14958727156045E-05,1.06352163129486E-05,1.40625,0,0.00862881311360449
-2.2188887669472E-05,1.35422287712572E-05,1.40625,0,0.00862881311360449
-2.06382192118326E-05,1.56798741954844E-05,1.40625,0,0.00862881311360449
-2.15765048778849E-05,1.7556360035087E-05,1.40625,0,0.00862881311360449
-2.24308496399317E-05,1.60136860358762E-05,1.40625,0,0.00862881311360449
-2.5371180527145E-05,1.33360708787222E-05,1.40625,0,0.00862881311360449
-2.52554291364504E-05,1.17030549517949E-05,1.40625,0,0.00862881311360449
-2.48186006501783E-05,1.12506004370516E-05,1.40625,0,0.00862881311360449
-2.34129820455564E-05,8.29809323477093E-06,1.40625,0,0.00862881311360449
-2.25180556299165E-05,5.61259730602615E-06,1.40625,0,0.00862881311360449
-2.20183010242181E-05,7.39110600989079E-06,1.40625,0,0.00862881311360449
-2.37053009186639E-05,1.04954906419152E-05,1.40625,0,0.00862881311360449
-2.02953142434126E-05,8.04068986326456E-06,1.40625,0,0.00862881311360449
-2.76400696748169E-05,8.25282586447429E-06,1.40625,0,0.00862881311360449
-1.86236084118718E-05,2.48467449637246E-06,1.40625,0,0.00862881311360449
-2.24495033762651E-05,4.77520097774686E-06,1.40625,0,0.00862881311360449
-1.81029827217571E-05,3.35535719386826E-06,1.40625,0,0.00862881311360449
-2.1505160475499E-05,6.44271085548098E-06,1.40625,0,0.00862881311360449
-2.02238061319804E-05,7.17007787898183E-06,1.40625,0,0.00862881311360449
-2.2136055122246E-05,8.48350555315847E-06,1.40625,0,0.00862881311360449
-2.06627846637275E-05,8.54429436003556E-06,1.40625,0,0.00862881311360449
-1.93906362255802E-05,8.48138279252453E-06,1.40625,0,0.00862881311360449
-1.95391112356447E-05,9.39949313760735E-06,1.40625,0,0.00862881311360449
-2.01895345526282E-05,9.57187876338139E-06,1.40625,0,0.00862881311360449
-2.20183083001757E-05,9.39585333981086E-06,1.40625,0,0.00862881311360449
-2.14240517379949E-05,9.27187102206517E-06,1.40625,0,0.00862881311360449
-2.25254643737571E-05,1.13259511635988E-05,1.40625,0,0.00862881311360449
-2.06062395591289E-05,1.21421699077473E-05,1.40625,0,0.00862881311360449
-2.12400445889216E-05,1.34038136820891E-05,1.40625,0,0.00862881311360449
-2.14196570595959E-05,1.24052157843835E-05,1.40625,0,0.00862881311360449
-2.44749571720604E-05,1.14560662041185E-05,1.40625,0,0.00862881311360449
-2.45479131990578E-05,1.0526900041441E-05,1.40625,0,0.00862881311360449
-2.46761737798806E-05,1.07859586933046E-05,1.40625,0,0.00862881311360449
-2.27156142500462E-05,8.79086019267561E-06,1.40625,0,0.00862881311360449
-2.2321331925923E-05,6.25296888756566E-06,1.40625,0,0.00862881311360449
-2.20932197407819E-05,5.02752391184913E-06,1.40625,0,0.00862881311360449
-2.3623810193385E-05,6.40370080873254E-06,1.40625,0,0.00862881311360449
-2.3683205654379E-05,8.72135024110321E-06,1.40625,0,0.00862881311360449
-2.27133241423871E-05,9.31763315747958E-06,1.40625,0,0.00862881311360449
-1.78536447492661E-05,6.95290373187163E-06,1.40625,0,0.00862881311360449
-2.57273113675183E-05,9.33379214984598E-06,1.40625,0,0.00862881311360449
-2.13024159165798E-05,7.4005492933793E-06,1.40625,0,0.00862881311360449
-2.6800784326042E-05,1.00618362921523E-05,1.40625,0,0.00862881311360449
-2.25859566853615E-05,8.21308276499622E-06,1.40625,0,0.00862881311360449
-2.53103971772362E-05,9.93126013781875E-06,1.40625,0,0.00862881311360449
-2.40892604779219E-05,1.05855460788007E-05,1.40625,0,0.00862881311360449
-2.34993822232354E-05,1.20165359476232E-05,1.40625,0,0.00862881311360449
-2.06085605896078E-05,1.32201084852568E-05,1.40625,0,0.00862881311360449
-2.15093132283073E-05,1.39390604090295E-05,1.40625,0,0.00862881311360449
-2.30857531278161E-05,1.44267323776148E-05,1.40625,0,0.00862881311360449
-2.27311211347114E-05,1.45909743878292E-05,1.40625,0,0.00862881311360449
-2.33535829465836E-05,1.3073394256935E-05,1.40625,0,0.00862881311360449
-2.26946485781809E-05,1.0314292012481E-05,1.40625,0,0.00862881311360449
-2.44314305746229E-05,1.07563555502566E-05,1.40625,0,0.00862881311360449
-2.35746065300191E-05,1.19505375550943E-05,1.40625,0,0.00862881311360449
-2.3970600523171E-05,1.43146908158087E-05,1.40625,0,0.00862881311360449
-2.24894138227683E-05,1.6769559806562E-05,1.40625,0,0.00862881311360449
-2.34782801271649E-05,1.9480718037812E-05,1.40625,0,0.00862881311360449
-2.33555674640229E-05,1.78130867425352E-05,1.40625,0,0.00862881311360449
-2.45251685555559E-05,1.40144338729442E-05,1.40625,0,0.00862881311360449
-2.40946465055458E-05,1.2103275366826E-05,1.40625,0,0.00862881311360449
-2.48729011218529E-05,1.49233064803411E-05,1.40625,0,0.00862881311360449
-2.54658716585254E-05,1.95423290278995E-05,1.40625,0,0.00862881311360449
-2.61397126450902E-05,2.05558317247778E-05,1.40625,0,0.00862881311360449
-2.44929069594946E-05,1.50574378494639E-05,1.40625,0,0.00862881311360449
-2.32759484788403E-05,1.06402121673455E-05,1.40625,0,0.00862881311360449
-2.03002673515584E-05,9.26294615055667E-06,1.40625,0,0.00862881311360449
-2.93436078209197E-05,1.51265303429682E-05,1.40625,0,0.00862881311360449
-2.32629627134884E-05,1.39096719067311E-05,1.40625,0,0.00862881311360449
-2.79604264505906E-05,1.61133139044978E-05,1.40625,0,0.00862881311360449
-2.19796929741278E-05,1.3555867553805E-05,1.40625,0,0.00862881311360449
-2.33735627261922E-05,1.27794901345624E-05,1.40625,0,0.00862881311360449
-2.08997462323168E-05,1.11244162326329E-05,1.40625,0,0.00862881311360449
-2.19931771425763E-05,1.31819833768532E-05,1.40625,0,0.00862881311360449
-2.15154595935019E-05,1.42373964990838E-05,1.40625,0,0.00862881311360449
-2.24027990043396E-05,1.51148833538173E-05,1.40625,0,0.00862881311360449
-2.29341058002319E-05,1.66154422913678E-05,1.40625,0,0.00862881311360449
-2.12512313737534E-05,1.80313727469184E-05,1.40625,0,0.00862881311360449
-2.11663518712157E-05,1.972527752514E-05,1.40625,0,0.00862881311360449
-2.03356903512031E-05,1.94620424736058E-05,1.40625,0,0.00862881311360449
-2.28562967095058E-05,1.921805596794E-05,1.40625,0,0.00862881311360449
-2.23806000576587E-05,1.85466178663773E-05,1.40625,0,0.00862881311360449
-2.25860603677575E-05,1.93726482393686E-05,1.40625,0,0.00862881311360449
-2.07179728022311E-05,1.80521128640976E-05,1.40625,0,0.00862881311360449
-2.18139321077615E-05,1.60660019901115E-05,1.40625,0,0.00862881311360449
-2.23036968236556E-05,1.38227724164608E-05,1.40625,0,0.00862881311360449
-2.46196614170913E-05,1.39437433972489E-05,1.40625,0,0.00862881311360449
-2.41732632275671E-05,1.34899037220748E-05,1.40625,0,0.00862881311360449
-2.40392146224622E-05,1.02597159639117E-05,1.40625,0,0.00862881311360449
-2.3588214389747E-05,5.23638300364837E-06,1.40625,0,0.00862881311360449
-2.41947491304018E-05,3.40623614647484E-06,1.40625,0,0.00862881311360449
-2.43162467086222E-05,5.03386218042579E-06,1.40625,0,0.00862881311360449
-2.38638349401299E-05,7.40577888791449E-06,1.40625,0,0.00862881311360449
-1.77082747541135E-05,7.22883305570576E-06,1.40625,0,0.00862881311360449
-2.50189623329788E-05,9.45269675867166E-06,1.40625,0,0.00862881311360449
-2.05053656827658E-05,5.42187353858026E-06,1.40625,0,0.00862881311360449
-2.70705386355985E-05,4.86359112983337E-06,1.40625,0,0.00862881311360449
-2.32632646657294E-05,1.23224697290425E-06,1.40625,0,0.00862881311360449
-2.57323099503992E-05,3.16294199365075E-06,1.40625,0,0.00862881311360449
-2.3989261535462E-05,5.15987267135642E-06,1.40625,0,0.00862881311360449
-2.52506870310754E-05,8.34023649076698E-06,1.40625,0,0.00862881311360449
-2.58701293205377E-05,9.77340732788434E-06,1.40625,0,0.00862881311360449
-2.72230281552766E-05,9.44545536185615E-06,1.40625,0,0.00862881311360449
-2.79141950159101E-05,9.24463802220998E-06,1.40625,0,0.00862881311360449
-2.70344607997686E-05,8.77020283951424E-06,1.40625,0,0.00862881311360449
-2.73575515166158E-05,8.41910605231533E-06,1.40625,0,0.00862881311360449
-2.64643313130364E-05,7.63265870773466E-06,1.40625,0,0.00862881311360449
-2.75093589152675E-05,8.37963943922659E-06,1.40625,0,0.00862881311360449
-2.64136779151158E-05,8.91084982868051E-06,1.40625,0,0.00862881311360449
-2.73406803898979E-05,9.20278398552909E-06,1.40625,0,0.00862881311360449
-2.71180324489251E-05,7.48870479583275E-06,1.40625,0,0.00862881311360449
