biceps_emg, triceps_emg, subject_position, position_estimate, brace_position
-2.29589113587281E-06,-8.96186884347117E-06,1.23046875,0,0
-2.56325756708975E-06,-1.14147487693117E-05,1.23046875,0,0
-3.44407817465253E-06,-8.6090512922965E-06,1.23046875,0,0
-3.85806333724759E-06,-1.07339992609923E-05,1.23046875,0,0
-3.29962017531216E-06,-1.1102958524134E-05,1.23046875,0,0
-2.47674984166224E-06,-1.27191233332269E-05,1.23046875,0,0
-8.12604810107587E-07,-1.29330919662607E-05,1.23046875,0,0
9.93781668512383E-07,-1.66682639246574E-05,1.23046875,0,0
7.13367569460388E-07,-2.1731068045483E-05,1.23046875,0,0
-7.51744835270074E-07,-2.21594291360816E-05,1.23046875,0,0
-1.12982172595366E-06,-1.90941009350354E-05,1.23046875,0,0
-3.82515672470163E-08,-1.54266963363625E-05,1.23046875,0,0
1.09208144749573E-06,-1.4738197933184E-05,1.23046875,0,0
1.37839708713727E-06,-1.34202955450746E-05,1.23046875,0,0
1.08798997189297E-06,-1.43235993164126E-05,1.23046875,0,0
1.54168060362281E-06,-1.41339796755346E-05,1.23046875,0,0
3.87086492992239E-06,-1.49096294990159E-05,1.23046875,0,0
6.33941499472712E-06,-1.41325517688529E-05,1.23046875,0,0
6.90684782966855E-06,-1.43802026286721E-05,1.23046875,0,0
5.2408863666642E-06,-1.50377072714036E-05,1.23046875,0,0
2.53564894592273E-06,-1.64735993166687E-05,1.23046875,0,0
1.81674295163248E-06,-1.70926650753245E-05,1.23046875,0,0
2.80641006611404E-06,-1.94595886569005E-05,1.23046875,0,0
2.46248850999109E-06,-2.32488873734837E-05,1.23046875,0,0
7.71939937749266E-07,-2.62084085989045E-05,1.23046875,0,0
-8.11443896964192E-07,-2.05369851755677E-05,1.23046875,0,0
-1.29757620470627E-06,-3.02968310279539E-05,1.23046875,0,0
7.00330815561756E-07,-2.59232238022378E-05,1.23046875,0,0
3.0858659556543E-06,-3.03302294923924E-05,1.23046875,0,0
5.01771000926965E-06,-1.8842449208023E-05,1.23046875,0,0
6.33034233032959E-06,-1.51229660332319E-05,1.23046875,0,0
6.96294637236861E-06,-1.05245217127958E-05,1.23046875,0,0
6.96787537890486E-06,-1.20861450341181E-05,1.23046875,0,0
6.06656567470054E-06,-1.21564289656817E-05,1.23046875,0,0
5.16096861247206E-06,-1.32650793602807E-05,1.23046875,0,0
3.3756934953999E-06,-1.5252640878316E-05,1.23046875,0,0
1.33049786654738E-06,-1.59048104251269E-05,1.23046875,0,0
8.21962714780966E-07,-1.63301665452309E-05,1.23046875,0,0
1.08827146050317E-06,-1.36270218717982E-05,1.23046875,0,0
7.63148307214578E-07,-1.26209970403579E-05,1.23046875,0,0
2.90528063828788E-08,-9.10275775822811E-06,1.23046875,0,0
-4.67217461164182E-07,-9.19864305615192E-06,1.23046875,0,0
-2.98092679429374E-08,-8.90011415322078E-06,1.23046875,0,0
1.41822170007799E-06,-1.05245453596581E-05,1.23046875,0,0
2.03946478904982E-06,-1.09069596874178E-05,1.23046875,0,0
9.10632195427752E-07,-1.39990970637882E-05,1.23046875,0,0
-4.99713848967076E-07,-1.38037421493209E-05,1.23046875,0,0
1.152845001684E-07,-1.18569687401759E-05,1.23046875,0,0
2.38417442233185E-06,-9.82979963737307E-06,1.23046875,0,0
3.26560393659747E-06,-1.09393413367798E-05,1.23046875,0,0
1.68588383075985E-06,-1.12132693175226E-05,1.23046875,0,0
7.71401687416073E-07,-8.84614382812288E-06,1.23046875,0,0
2.86426848106203E-06,-4.95637823405559E-06,1.23046875,0,0
6.29240457783453E-06,-6.25428174316767E-06,1.23046875,0,0
6.85656414134428E-06,-4.78812762594316E-06,1.23046875,0,0
6.53976394460187E-06,-7.2254169936059E-06,1.23046875,0,0
5.35045046490268E-06,-6.75319734000368E-06,1.23046875,0,0
4.43994849774754E-06,-9.60788111115107E-06,1.23046875,0,0
2.75748379863217E-06,-1.25349488371285E-05,1.23046875,0,0
1.50345886140713E-06,-1.36986209327006E-05,1.23046875,0,0
1.75904381194414E-06,-1.32751047203783E-05,1.23046875,0,0
3.67109032595181E-06,-1.38640689328895E-05,1.23046875,0,0
5.98875021751155E-06,-1.56035002873978E-05,1.23046875,0,0
6.0420738918765E-06,-1.61716125148814E-05,1.23046875,0,0
4.22986386183766E-06,-1.60264553414891E-05,1.23046875,0,0
3.06966626339999E-06,-1.53812379721785E-05,1.23046875,0,0
3.80463734472869E-06,-1.76473477040417E-05,1.23046875,0,0
4.81981305711088E-06,-2.28447461267933E-05,1.23046875,0,0
5.68665245737066E-06,-2.86462855001446E-05,1.23046875,0,0
6.90020624460885E-06,-3.00440206046915E-05,1.23046875,0,0
7.7300419434323E-06,-2.80371932603884E-05,1.23046875,0,0
6.36714867141563E-06,-2.47143052547472E-05,1.23046875,0,0
4.43681847173139E-06,-2.3846134354244E-05,1.23046875,0,0
4.03584408559254E-06,-2.56505172728794E-05,1.23046875,0,0
4.38991719420301E-06,-2.75526817858918E-05,1.23046875,0,0
3.6446538160817E-06,-2.70085020019906E-05,1.23046875,0,0
3.4555143884063E-06,-2.57597585004987E-05,1.23046875,0,0
3.89269825973315E-06,-2.43928516283631E-05,1.23046875,0,0
3.83379165214137E-06,-2.21977061301004E-05,1.23046875,0,0
3.39831376550137E-06,-1.78125501406612E-05,1.23046875,0,0
3.52669530911953E-06,-2.52402423939202E-05,1.23046875,0,0
1.31028798477928E-07,-1.75921613845276E-05,1.23046875,0,0
7.62226648021169E-07,-1.95886059373152E-05,1.23046875,0,0
1.34926972350513E-06,-1.45638505273382E-05,1.23046875,0,0
2.85504984276486E-06,-1.72825803019805E-05,1.23046875,0,0
3.15719921673008E-06,-1.58961938723223E-05,1.23046875,0,0
4.24463087256299E-06,-1.77218844328308E-05,1.23046875,0,0
4.06009121434181E-06,-1.80844690476079E-05,1.23046875,0,0
2.24248128688487E-06,-2.0604842575267E-05,1.23046875,0,0
8.3580374621306E-07,-2.60115557466634E-05,1.23046875,0,0
9.3554439217769E-07,-3.09605420625303E-05,1.23046875,0,0
2.35557104133477E-06,-3.41558516083751E-05,1.23046875,0,0
3.59080581802118E-06,-3.12889205815736E-05,1.23046875,0,0
4.12086137657752E-06,-2.73446858045645E-05,1.23046875,0,0
3.09289589495165E-06,-2.15980089706136E-05,1.23046875,0,0
2.84720408672001E-06,-1.95024240383646E-05,1.23046875,0,0
3.56317332261824E-06,-1.66250520123867E-05,1.23046875,0,0
5.06206833961187E-06,-1.54563749674708E-05,1.23046875,0,0
5.35278240931802E-06,-1.27312359836651E-05,1.23046875,0,0
4.70948180009145E-06,-1.27171733765863E-05,1.23046875,0,0
2.86677027361293E-06,-1.37987872221856E-05,1.23046875,0,0
1.60663694259711E-06,-1.69204886333318E-05,1.23046875,0,0
1.72406032561412E-06,-1.69845807249658E-05,1.23046875,0,0
2.66625420408673E-06,-1.57079466589494E-05,1.23046875,0,0
3.29684326061397E-06,-1.50649748320575E-05,1.23046875,0,0
2.95286599794053E-06,-1.4657878637081E-05,1.23046875,0,0
6.81328742757614E-07,-1.33712010210729E-05,1.23046875,0,0
-1.92624543160491E-06,-2.01167949853698E-05,1.23046875,0,0
-3.96690938941902E-06,-1.72167838172754E-05,1.23046875,0,0
-1.31129149849585E-06,-2.05720771191409E-05,1.23046875,0,0
7.24944356988999E-07,-1.79231137735769E-05,1.23046875,0,0
1.64222626608534E-06,-1.96368655451806E-05,1.23046875,0,0
9.44947771586158E-07,-1.75110344571294E-05,1.23046875,0,0
1.92231496498607E-07,-1.8168282622355E-05,1.23046875,0,0
-1.60737829446589E-06,-1.75014756678138E-05,1.23046875,0,0
-1.272016220355E-06,-1.59956034622155E-05,1.23046875,0,0
6.21314029558562E-07,-1.47237697092351E-05,1.23046875,0,0
1.13792918909894E-06,-1.45731391967274E-05,1.23046875,0,0
7.4352431056468E-07,-1.6400204913225E-05,1.23046875,0,0
5.76287845888146E-07,-1.64639604918193E-05,1.23046875,0,0
1.10868052161095E-06,-1.7559113985044E-05,1.23046875,0,0
1.07267817384127E-06,-1.70355488080531E-05,1.23046875,0,0
1.055257371263E-06,-1.71346437127795E-05,1.23046875,0,0
1.31454464735725E-06,-1.37964607347385E-05,1.23046875,0,0
2.10867437999696E-06,-1.18746802399983E-05,1.23046875,0,0
2.04344519261213E-06,-1.17808131108177E-05,1.23046875,0,0
2.3860304736445E-06,-1.37484576043789E-05,1.23046875,0,0
4.0811187318468E-06,-1.23105764942011E-05,1.23046875,0,0
5.970437086944E-06,-1.09938173409319E-05,1.23046875,0,0
6.30585782346316E-06,-1.13456962935743E-05,1.23046875,0,0
6.27744566372712E-06,-1.25367714645108E-05,1.23046875,0,0
4.80588414575323E-06,-1.37772658490576E-05,1.23046875,0,0
2.96631833407446E-06,-1.64043103723088E-05,1.23046875,0,0
2.86903173218889E-06,-1.48412482303684E-05,1.23046875,0,0
4.97349446959561E-06,-1.92494935618015E-05,1.23046875,0,0
4.31817488788511E-06,-9.73811984295025E-06,1.23046875,0,0
4.46084777649958E-06,-9.64485116128344E-06,1.23046875,0,0
3.80301798941218E-06,-5.90655281484942E-06,1.23046875,0,0
3.82670941689867E-06,-8.98098642210243E-06,1.23046875,0,0
4.48511991635314E-06,-9.09300342755159E-06,1.23046875,0,0
4.95935091748834E-06,-1.37283941512578E-05,1.23046875,0,0
3.73516763829684E-06,-1.63913246069569E-05,1.23046875,0,0
3.71599435311509E-06,-1.64199736900628E-05,1.23046875,0,0
4.44316719949711E-06,-1.54593999468489E-05,1.23046875,0,0
4.94800860906253E-06,-1.63216773216845E-05,1.23046875,0,0
5.77559239900438E-06,-2.03902709472459E-05,1.23046875,0,0
5.7236088650825E-06,-2.17743836401496E-05,1.23046875,0,0
5.5861823966552E-06,-2.05841915885685E-05,1.23046875,0,0
4.84256133859162E-06,-1.6414885976701E-05,1.23046875,0,0
4.39047244071844E-06,-1.61108600877924E-05,1.23046875,0,0
4.28657494921936E-06,-1.58559214469278E-05,1.23046875,0,0
4.85610826217453E-06,-1.84247583092656E-05,1.23046875,0,0
5.27236488778726E-06,-1.94893855223199E-05,1.23046875,0,0
5.70366637475672E-06,-2.01937909878325E-05,1.23046875,0,0
5.74323212276795E-06,-1.96755809156457E-05,1.23046875,0,0
5.84719327889616E-06,-2.13204511965159E-05,1.23046875,0,0
5.86081159781315E-06,-2.32025449804496E-05,1.23046875,0,0
5.55892029296956E-06,-2.55004160862882E-05,1.23046875,0,0
5.58829242436332E-06,-2.54617807513569E-05,1.23046875,0,0
6.38815254205838E-06,-2.40318131545791E-05,1.23046875,0,0
5.4347960940504E-06,-1.7686455976218E-05,1.23046875,0,0
6.30481645202963E-06,-2.31976755458163E-05,1.23046875,0,0
3.41021200256364E-06,-1.57910017151153E-05,1.23046875,0,0
5.74634759686887E-06,-2.19705852941843E-05,1.23046875,0,0
5.41493136552162E-06,-1.96784749277867E-05,1.23046875,0,0
6.20581113253138E-06,-2.19751273107249E-05,1.23046875,0,0
4.76019113193615E-06,-1.90719802048989E-05,1.23046875,0,0
5.03693445352837E-06,-2.06228469323833E-05,1.23046875,0,0
4.50926609119051E-06,-1.96411383512896E-05,1.23046875,0,0
4.51158712166944E-06,-1.93883915926563E-05,1.23046875,0,0
5.06104970554588E-06,-1.85151056939503E-05,1.23046875,0,0
5.72253975406056E-06,-1.5475361578865E-05,1.23046875,0,0
6.72010219204822E-06,-1.46158718052902E-05,1.23046875,0,0
5.50978757019038E-06,-1.27243765746243E-05,1.23046875,0,0
4.48312539447215E-06,-1.33693274619873E-05,1.23046875,0,0
4.03326794184977E-06,-1.26203667605296E-05,1.23046875,0,0
5.12383621753543E-06,-1.45956983033102E-05,1.23046875,0,0
5.35329172635102E-06,-1.54265999299241E-05,1.23046875,0,0
6.15018416283419E-06,-1.90397622645833E-05,1.23046875,0,0
5.22848358741612E-06,-1.96390392375179E-05,1.23046875,0,0
3.87450972993975E-06,-1.70195398823125E-05,1.23046875,0,0
2.91856463263684E-06,-9.68642871157499E-06,1.23046875,0,0
2.92666049972468E-06,-5.96813379161176E-06,1.23046875,0,0
2.86226168100256E-06,-8.15236307971645E-06,1.23046875,0,0
3.33535444951849E-06,-1.6022137060645E-05,1.23046875,0,0
3.48089292856457E-06,-2.12262712011579E-05,1.23046875,0,0
2.65339122051955E-06,-2.1947244022158E-05,1.23046875,0,0
2.87999364445568E-06,-1.75727345776977E-05,1.23046875,0,0
5.09344772581244E-06,-2.73232562904013E-05,1.23046875,0,0
3.12881638819817E-06,-2.46179242822109E-05,1.23046875,0,0
5.80639721192711E-07,-2.94607816613279E-05,1.23046875,0,0
-1.00662839486176E-06,-2.48687647399493E-05,1.23046875,0,0
-1.23577444810508E-06,-2.54397418757435E-05,1.23046875,0,0
-1.72671263953816E-06,-2.16576954699121E-05,1.23046875,0,0
-1.62334470132919E-06,-2.09751688089455E-05,1.23046875,0,0
-1.79812832357129E-06,-1.80155366251711E-05,1.23046875,0,0
-1.67415771556989E-06,-1.61979114636779E-05,1.23046875,0,0
-1.64284210768528E-06,-1.56264122779248E-05,1.23046875,0,0
-1.82301539553009E-06,-1.43119186759577E-05,1.23046875,0,0
-1.99491501007287E-06,-1.40817073770449E-05,1.23046875,0,0
-3.43122042067989E-06,-1.29237969304086E-05,1.23046875,0,0
-4.77618277727743E-06,-1.35259606395266E-05,1.23046875,0,0
-5.00280293636024E-06,-1.28468873299425E-05,1.23046875,0,0
-3.2973957786453E-06,-1.56030873768032E-05,1.23046875,0,0
-1.14694228159351E-06,-1.817473275878E-05,1.23046875,0,0
4.55716985925392E-07,-2.31464600801701E-05,1.23046875,0,0
1.57456963734148E-06,-2.45557712332811E-05,1.23046875,0,0
3.29556701217371E-06,-2.52755999099463E-05,1.23046875,0,0
4.06390245188959E-06,-2.43344820773927E-05,1.23046875,0,0
3.55526844941778E-06,-2.21337577386294E-05,1.23046875,0,0
3.22954247167218E-06,-1.70122093550162E-05,1.23046875,0,0
3.620378265623E-06,-1.39472986120381E-05,1.23046875,0,0
3.59093564838986E-06,-1.51341637320002E-05,1.23046875,0,0
3.31803084918647E-06,-1.89277070603566E-05,1.23046875,0,0
4.22389985033078E-06,-1.66156023624353E-05,1.23046875,0,0
6.2564786276198E-06,-2.2024016288924E-05,1.23046875,0,0
3.44258978657308E-06,-1.35596501422697E-05,1.23046875,0,0
2.38262055063387E-06,-1.55625475599663E-05,1.23046875,0,0
1.22329379337316E-06,-1.03345255411114E-05,1.23046875,0,0
1.84714861006796E-06,-1.24963526104693E-05,1.23046875,0,0
1.22720007311727E-06,-1.17170538942446E-05,1.23046875,0,0
1.00588476925623E-06,-1.29645477500162E-05,1.23046875,0,0
5.71446356900651E-08,-1.3010933798796E-05,1.23046875,0,0
-8.67557730543922E-07,-1.51700251080911E-05,1.23046875,0,0
-4.92626611503511E-07,-1.74572305695619E-05,1.23046875,0,0
4.86182671011193E-07,-1.80776351044187E-05,1.23046875,0,0
1.52368124872737E-06,-1.91695908142719E-05,1.23046875,0,0
1.19315450319846E-06,-1.85268436325714E-05,1.23046875,0,0
3.25290784530807E-07,-1.89082129509188E-05,1.23046875,0,0
-1.30106582219014E-06,-1.73061671375763E-05,1.23046875,0,0
-1.21430286981195E-06,-1.83786687557586E-05,1.23046875,0,0
2.82842961496499E-07,-1.77139627339784E-05,1.23046875,0,0
3.16446175929741E-06,-1.8751636162051E-05,1.23046875,0,0
4.74640773973078E-06,-1.73214521055343E-05,1.23046875,0,0
3.73017974197865E-06,-1.55459238158073E-05,1.23046875,0,0
2.17048909689765E-06,-1.37107354021282E-05,1.23046875,0,0
2.26038582695764E-06,-1.57574213517364E-05,1.23046875,0,0
2.68994222096808E-06,-1.77333549800096E-05,1.23046875,0,0
3.18747129313124E-06,-1.9114711903967E-05,1.23046875,0,0
3.5005432437174E-06,-1.78025511559099E-05,1.23046875,0,0
3.3853618788271E-06,-1.55104153236607E-05,1.23046875,0,0
2.86609179056541E-06,-1.18599728011759E-05,1.23046875,0,0
3.79353764401458E-06,-1.68209444382228E-05,1.23046875,0,0
2.21669051825302E-06,-1.42378958116751E-05,1.23046875,0,0
2.55102781920868E-06,-1.81541599886259E-05,1.23046875,0,0
2.05868377634033E-06,-1.35872196551645E-05,1.23046875,0,0
2.42378564507817E-06,-1.38288960442878E-05,1.23046875,0,0
9.82865799414867E-07,-1.40899610414635E-05,1.23046875,0,0
2.56751917504516E-07,-1.66635072673671E-05,1.23046875,0,0
1.93971004591731E-06,-1.71459341800073E-05,1.23046875,0,0
4.00972976422054E-06,-1.91857434401754E-05,1.23046875,0,0
3.84911618311889E-06,-2.13839957723394E-05,1.23046875,0,0
2.80109520645055E-06,-2.08393139473628E-05,1.23046875,0,0
3.34249398292741E-06,-1.98370471480303E-05,1.23046875,0,0
3.69741724171035E-06,-1.83780903171282E-05,1.23046875,0,0
2.6236089070153E-06,-1.88078938663239E-05,1.23046875,0,0
1.45875901580439E-06,-1.72779291460756E-05,1.23046875,0,0
1.5106714954527E-06,-1.69647537404671E-05,1.23046875,0,0
1.29485431443754E-06,-1.55737579916604E-05,1.23046875,0,0
1.25348492474586E-06,-1.60601266543381E-05,1.23046875,0,0
7.51129505260906E-07,-1.61588159244275E-05,1.23046875,0,0
9.3218773145054E-07,-1.69911018019775E-05,1.23046875,0,0
2.34555295719474E-06,-1.59606424858794E-05,1.23046875,0,0
3.67064421880059E-06,-1.47883065437782E-05,1.23046875,0,0
3.99943610318587E-06,-1.26888926388347E-05,1.23046875,0,0
3.56781060872891E-06,-1.24085399875185E-05,1.23046875,0,0
2.01083730644314E-06,-1.47726568684448E-05,1.23046875,0,0
6.66004382310348E-07,-1.71336978382897E-05,1.23046875,0,0
4.24290391265458E-07,-1.26547511172248E-05,1.23046875,0,0
1.87988325706101E-06,-1.6559324649279E-05,1.23046875,0,0
2.87250668407069E-06,-1.09737393358955E-05,1.23046875,0,0
1.33113883293845E-06,-1.30358994283597E-05,1.23046875,0,0
8.37092599681455E-08,-7.88258694228716E-06,1.23046875,0,0
1.16598755539599E-06,-7.88929264672333E-06,1.23046875,0,0
3.5925361316913E-06,-7.07170875102747E-06,1.23046875,0,0
5.56878194402088E-06,-1.24784282888868E-05,1.23046875,0,0
5.55943415747606E-06,-1.61453790497035E-05,1.23046875,0,0
4.79587697554962E-06,-1.7913080228027E-05,1.23046875,0,0
3.76843900085078E-06,-1.72394447872648E-05,1.23046875,0,0
2.64952655015804E-06,-1.48460158015951E-05,1.23046875,0,0
2.60635556514899E-06,-1.48840535985073E-05,1.23046875,0,0
2.68978078565851E-06,-1.50179366755765E-05,1.23046875,0,0
2.60439878729812E-06,-1.64930443133926E-05,1.23046875,0,0
3.15153852170624E-06,-1.63873191922903E-05,1.23046875,0,0
4.327325768827E-06,-1.72222007677192E-05,1.23046875,0,0
4.71303519589128E-06,-1.54587123688543E-05,1.23046875,0,0
3.64869788427313E-06,-1.50908517753123E-05,1.23046875,0,0
2.53642292591394E-06,-1.44457017086097E-05,1.23046875,0,0
2.96677899314091E-06,-1.44730656757019E-05,1.23046875,0,0
3.41777422363521E-06,-1.29057680169353E-05,1.23046875,0,0
1.43169188504544E-06,-1.40553456731141E-05,1.23046875,0,0
-6.67395624986966E-07,-1.62296000780771E-05,1.23046875,0,0
-1.6049145301622E-07,-1.7809601558838E-05,1.23046875,0,0
2.87273991261827E-07,-1.82903386303224E-05,1.23046875,0,0
7.13259495910279E-08,-1.87169862329029E-05,1.23046875,0,0
8.15326245628967E-07,-1.38961513584945E-05,1.23046875,0,0
5.04084539443284E-07,-1.92045426956611E-05,1.23046875,0,0
-5.75159219806665E-07,-1.32748536998406E-05,1.23046875,0,0
-2.81745400343425E-07,-1.63688200700562E-05,1.23046875,0,0
-7.38793801247084E-07,-1.51284075400326E-05,1.23046875,0,0
-6.31902139502927E-07,-2.15493182622595E-05,1.23046875,0,0
1.24653672628483E-06,-2.57038336712867E-05,1.23046875,0,0
3.65106029676099E-06,-2.70976197498385E-05,1.23046875,0,0
4.0997924770636E-06,-2.12477625609608E-05,1.23046875,0,0
3.80732944904594E-06,-1.53548189700814E-05,1.23046875,0,0
4.08229561799089E-06,-1.22983847177238E-05,1.23046875,0,0
4.56388397651608E-06,-1.18522821139777E-05,1.23046875,0,0
5.15673582413001E-06,-1.40335178002715E-05,1.23046875,0,0
4.38476536146482E-06,-1.56032710947329E-05,1.23046875,0,0
2.7551557195693E-06,-1.74121432792163E-05,1.23046875,0,0
2.21839968617132E-06,-1.64666344062425E-05,1.23046875,0,0
3.41667646353017E-06,-1.67118796525756E-05,1.23046875,0,0
3.77663604922418E-06,-1.53640430653468E-05,1.23046875,0,0
3.05695834867947E-06,-1.57996182679199E-05,1.23046875,0,0
2.48750052378455E-06,-1.60072959261015E-05,1.23046875,0,0
2.070825530609E-06,-1.94936346815666E-05,1.23046875,0,0
9.86711484074476E-07,-2.33280752581777E-05,1.23046875,0,0
2.03953902655485E-07,-2.59070220636204E-05,1.23046875,0,0
4.74182229481812E-07,-2.43739032157464E-05,1.23046875,0,0
5.11479697706818E-07,-2.13062812690623E-05,1.23046875,0,0
3.1269237865672E-07,-1.75846871570684E-05,1.23046875,0,0
-9.40134938787196E-08,-1.64255470735952E-05,1.23046875,0,0
9.61753130468423E-07,-1.552761750645E-05,1.23046875,0,0
2.39642781707516E-06,-2.2840358724352E-05,1.23046875,0,0
2.82371229332057E-06,-1.74642136698822E-05,1.23046875,0,0
3.9423052839993E-06,-1.9723645891645E-05,1.23046875,0,0
5.82007442062604E-06,-1.56594887812389E-05,1.23046875,0,0
6.36460845271358E-06,-1.7798089174903E-05,1.23046875,0,0
6.35996184428222E-06,-1.64890898304293E-05,1.23046875,0,0
6.29012583885924E-06,-1.77466554305283E-05,1.23046875,0,0
5.61423303224728E-06,-1.71627762028947E-05,1.23046875,0,0
4.43789031123742E-06,-1.74709002749296E-05,1.23046875,0,0
3.15183137900021E-06,-1.88380399777088E-05,1.23046875,0,0
2.17486126530275E-06,-1.90391929209E-05,1.23046875,0,0
1.92896095541073E-06,-2.12643662962364E-05,1.23046875,0,0
1.65396897955361E-06,-2.17356919165468E-05,1.23046875,0,0
1.71715248598048E-06,-2.1335366909625E-05,1.23046875,0,0
3.0775447612541E-06,-1.76525754795875E-05,1.23046875,0,0
4.28614930569893E-06,-1.64359462360153E-05,1.23046875,0,0
4.58298882222152E-06,-1.46837019201485E-05,1.23046875,0,0
5.14520934302709E-06,-1.45897938637063E-05,1.23046875,0,0
6.58514954920975E-06,-1.45143003464909E-05,1.23046875,0,0
7.7000322562526E-06,-1.65293822647072E-05,1.23046875,0,0
7.46565683584777E-06,-1.62615251610987E-05,1.23046875,0,0
6.26240716883331E-06,-1.46297552419128E-05,1.23046875,0,0
5.60082025913289E-06,-1.16622832138091E-05,1.23046875,0,0
6.12579970038496E-06,-1.11413201011601E-05,1.23046875,0,0
4.73641102871625E-06,-1.25136866699904E-05,1.23046875,0,0
2.2810868358647E-06,-1.35106756715686E-05,1.23046875,0,0
2.45022806666384E-06,-1.26834029288148E-05,1.23046875,0,0
4.9294999371341E-06,-2.04735588340554E-05,1.23046875,0,0
5.00836722494569E-06,-1.87565601663664E-05,1.23046875,0,0
5.08529137732694E-06,-2.18520599446492E-05,1.23046875,0,0
3.45863168149663E-06,-1.69086306414101E-05,1.23046875,0,0
1.92766265172395E-06,-1.47952750921831E-05,1.23046875,0,0
1.24890277675149E-06,-1.21336270240135E-05,1.23046875,0,0
9.76493083726382E-07,-1.28681449496071E-05,1.23046875,0,0
5.3676291145166E-07,-1.28087840494118E-05,1.23046875,0,0
-2.35028693396089E-07,-1.36615672090556E-05,1.23046875,0,0
-7.8004994463754E-08,-1.62251908477629E-05,1.23046875,0,0
2.06830827664817E-06,-1.80412043846445E-05,1.23046875,0,0
3.79872358280409E-06,-2.01943894353462E-05,1.23046875,0,0
3.19251057590009E-06,-1.99210862774635E-05,1.23046875,0,0
2.79313417195226E-06,-1.90323207789334E-05,1.23046875,0,0
4.25856251240475E-06,-1.66762420121813E-05,1.23046875,0,0
6.50636502541602E-06,-1.55549132614397E-05,1.23046875,0,0
7.35473759050365E-06,-1.2904671166325E-05,1.23046875,0,0
6.62025695419288E-06,-1.31655315271928E-05,1.23046875,0,0
4.79493382954388E-06,-1.47514347190736E-05,1.23046875,0,0
2.98217946692603E-06,-1.72425552591449E-05,1.23046875,0,0
1.88910655651853E-06,-2.07146385946544E-05,1.23046875,0,0
2.57801139014191E-06,-2.74419180641416E-05,1.23046875,0,0
3.8094131014077E-06,-3.29944996337872E-05,1.23046875,0,0
3.78082813767833E-06,-3.5100405511912E-05,1.23046875,0,0
2.64359050561325E-06,-3.39879479724914E-05,1.23046875,0,0
1.82013582161744E-06,-2.9503211408155E-05,1.23046875,0,0
2.1765913515992E-06,-1.75328204932157E-05,1.23046875,0,0
3.75481613446027E-06,-1.90776045201346E-05,1.23046875,0,0
4.32613524026237E-06,-9.01263956620824E-06,1.23046875,0,0
6.28836369287455E-06,-1.7327576642856E-05,1.23046875,0,0
6.41515316601726E-06,-1.56291516759666E-05,1.23046875,0,0
5.72051885683322E-06,-1.82071926246863E-05,1.23046875,0,0
4.62598700323724E-06,-1.55528523464454E-05,1.23046875,0,0
4.07766174248536E-06,-1.87703208212042E-05,1.23046875,0,0
2.17685055758921E-06,-1.82054500328377E-05,1.23046875,0,0
-4.61733037582235E-07,-1.71152914845152E-05,1.23046875,0,0
-2.29920033234521E-06,-1.67788730323082E-05,1.23046875,0,0
-2.88800515590992E-06,-1.62131764227524E-05,1.23046875,0,0
-2.04912976187188E-06,-1.74397464434151E-05,1.23046875,0,0
-4.47397979996822E-07,-1.66978679772001E-05,1.23046875,0,0
1.23286690723035E-06,-1.75858749571489E-05,1.23046875,0,0
2.12316285796987E-06,-1.57778667926323E-05,1.23046875,0,0
2.8478652893682E-06,-1.76052999449894E-05,1.23046875,0,0
3.01192744700529E-06,-1.82989260792965E-05,1.23046875,0,0
2.28677276936651E-06,-2.05454907700187E-05,1.23046875,0,0
1.2833937717005E-06,-1.93166652024956E-05,1.23046875,0,0
2.17856791095983E-06,-1.99865098693408E-05,1.23046875,0,0
4.36632990385988E-06,-1.97135050257202E-05,1.23046875,0,0
6.2907993196859E-06,-1.98968482436612E-05,1.23046875,0,0
6.16342549619731E-06,-1.7930975445779E-05,1.23046875,0,0
5.125336429046E-06,-1.59233113663504E-05,1.23046875,0,0
3.53596556124103E-06,-1.4970021766203E-05,1.23046875,0,0
8.30495309855905E-07,-1.56166170199867E-05,1.23046875,0,0
6.95994117450027E-07,-1.3777880667476E-05,1.23046875,0,0
1.34452864131163E-06,-1.89902712008916E-05,1.23046875,0,0
4.43376336534129E-07,-1.35298505483661E-05,1.23046875,0,0
-4.58824985116735E-07,-1.67268408404198E-05,1.23046875,0,0
4.68836645950432E-07,-1.27745370264165E-05,1.23046875,0,0
1.49338961819012E-06,-1.31916831378476E-05,1.23046875,0,0
2.20996548705443E-06,-1.22068813652731E-05,1.23046875,0,0
3.79037328457343E-06,-1.37504111989983E-05,1.23046875,0,0
4.03907688451E-06,-1.27122557387338E-05,1.23046875,0,0
2.03890067496104E-06,-1.17766348921577E-05,1.23046875,0,0
6.12533952448757E-08,-1.29804711832548E-05,1.23046875,0,0
-8.86600105332036E-07,-1.48457602335839E-05,1.23046875,0,0
-6.51878053758992E-07,-1.62980777531629E-05,1.23046875,0,0
-1.74360451410394E-07,-1.41191594593693E-05,1.23046875,0,0
5.39233724339283E-07,-1.29354584714747E-05,1.23046875,0,0
3.41110592216864E-07,-1.25731567095499E-05,1.23046875,0,0
-5.04135812207096E-07,-1.55283796630101E-05,1.23046875,0,0
-6.02644718128431E-07,-1.57037939061411E-05,1.23046875,0,0
-1.59107269581682E-08,-1.56515889102593E-05,1.23046875,0,0
1.08015183286625E-06,-1.46759530252893E-05,1.23046875,0,0
2.02171759156045E-06,-1.50885762195685E-05,1.23046875,0,0
1.89920763205009E-06,-1.44588675539126E-05,1.23046875,0,0
2.72176657745149E-06,-1.46083684740006E-05,1.23046875,0,0
5.79242760068155E-06,-1.40055790325277E-05,1.23046875,0,0
7.57682028051931E-06,-1.4394871868717E-05,1.23046875,0,0
6.33456193099846E-06,-1.52237680595135E-05,1.23046875,0,0
4.46825424660346E-06,-1.66244426509365E-05,1.23046875,0,0
3.94569769923692E-06,-1.56579990289174E-05,1.23046875,0,0
6.13985639574821E-06,-2.29094930546125E-05,1.23046875,0,0
5.67210736335255E-06,-1.602065822226E-05,1.23046875,0,0
6.86686462358921E-06,-1.80562310561072E-05,1.23046875,0,0
4.73124191557872E-06,-1.55630041263066E-05,1.23046875,0,0
3.27480142914283E-06,-1.81892282853369E-05,1.23046875,0,0
1.67376970239275E-06,-1.79689704964403E-05,1.23046875,0,0
1.15943305445398E-06,-1.95628363144351E-05,1.23046875,0,0
5.98569783960556E-07,-1.7493966879556E-05,1.23046875,0,0
9.44232056099281E-07,-1.65062829182716E-05,1.23046875,0,0
1.93740493159567E-06,-1.87352870852919E-05,1.23046875,0,0
1.55145289681968E-06,-2.09027239179704E-05,1.23046875,0,0
1.13459657313797E-06,-2.24577961489558E-05,1.23046875,0,0
1.96739983948646E-06,-2.11808164749527E-05,1.23046875,0,0
3.68732548849948E-06,-1.95723459910369E-05,1.23046875,0,0
4.47443562734406E-06,-1.648619036132E-05,1.23046875,0,0
4.97548853672924E-06,-1.73117714439286E-05,1.23046875,0,0
5.48021762369899E-06,-1.82566091098124E-05,1.23046875,0,0
6.66930463921744E-06,-1.990752571146E-05,1.23046875,0,0
6.49965932097984E-06,-1.90016107808333E-05,1.23046875,0,0
5.74297973798821E-06,-1.8790540707414E-05,1.23046875,0,0
5.76425281906268E-06,-1.74768847500673E-05,1.23046875,0,0
6.82398876961088E-06,-1.64035282068653E-05,1.23046875,0,0
6.47677370579913E-06,-1.44939504025388E-05,1.23046875,0,0
5.56774512006086E-06,-1.22787459986284E-05,1.23046875,0,0
4.84119073007605E-06,-1.07659725472331E-05,1.23046875,0,0
3.98680049329414E-06,-1.15834209282184E-05,1.23046875,0,0
3.13930559059372E-06,-1.11993904283736E-05,1.23046875,0,0
4.17879664382781E-06,-1.72775580722373E-05,1.23046875,0,0
3.27344491779513E-06,-1.41051150421845E-05,1.23046875,0,0
4.41112888438511E-06,-1.65968995133881E-05,1.23046875,0,0
2.9130012535461E-06,-1.40547635965049E-05,1.23046875,0,0
2.72524243882799E-06,-1.58323291543638E-05,1.23046875,0,0
2.86863723886199E-06,-1.66973750310717E-05,1.23046875,0,0
3.46920342053636E-06,-1.51537687997916E-05,1.23046875,0,0
3.70892303180881E-06,-1.16497512863134E-05,1.23046875,0,0
3.85159546567593E-06,-9.95789014268667E-06,1.23046875,0,0
3.46878960044705E-06,-9.15494365472114E-06,1.23046875,0,0
1.72545821897074E-06,-8.37122297525639E-06,1.23046875,0,0
-3.48064190802688E-07,-9.84721737040672E-06,1.23046875,0,0
-1.86819522696169E-06,-1.12332299977425E-05,1.23046875,0,0
-1.69891893619933E-06,-1.30171010823688E-05,1.23046875,0,0
-1.65361109338846E-06,-1.41744767461205E-05,1.23046875,0,0
-2.5934084533219E-06,-1.63947934197495E-05,1.23046875,0,0
-4.05948912884924E-06,-1.66287391039077E-05,1.23046875,0,0
-3.87708223570371E-06,-1.80408114829334E-05,1.23046875,0,0
-2.50702692028426E-06,-2.14435767702525E-05,1.23046875,0,0
-3.22426188859026E-07,-2.74602625722764E-05,1.23046875,0,0
8.74101715453435E-07,-3.09210518025793E-05,1.23046875,0,0
3.95569401234752E-07,-2.98066697723698E-05,1.23046875,0,0
-5.90363413266459E-07,-2.43410158873303E-05,1.23046875,0,0
2.06818157266753E-07,-2.04779626074014E-05,1.23046875,0,0
2.94274514089921E-07,-2.06408312806161E-05,1.23046875,0,0
5.72760754380397E-08,-2.27163291128818E-05,1.23046875,0,0
1.23575023280864E-06,-2.06753738893894E-05,1.23046875,0,0
2.25646681428771E-06,-2.85098067251965E-05,1.23046875,0,0
1.84936448022199E-06,-1.77790170710068E-05,1.23046875,0,0
2.591589009171E-06,-1.90468417713419E-05,1.23046875,0,0
3.65681307812338E-06,-1.29818190544029E-05,1.23046875,0,0
2.98214217764325E-06,-1.51006506712292E-05,1.23046875,0,0
1.54520603246056E-06,-1.26212225950439E-05,1.23046875,0,0
1.97581334759889E-06,-1.33050943986746E-05,1.23046875,0,0
4.15230215367046E-06,-1.2270998013264E-05,1.23046875,0,0
6.16820852883393E-06,-1.34082265503821E-05,1.23046875,0,0
6.39065092400415E-06,-1.52168204294867E-05,1.23046875,0,0
4.2068036236742E-06,-1.70456241903594E-05,1.23046875,0,0
1.52875566072908E-06,-2.18355598917697E-05,1.23046875,0,0
3.32133055280792E-07,-2.49372696998762E-05,1.23046875,0,0
9.32377758999792E-07,-2.78046809398802E-05,1.23046875,0,0
1.68247561305179E-06,-2.47444004344288E-05,1.23046875,0,0
6.69071425818402E-07,-2.16720636672108E-05,1.23046875,0,0
-7.79726292421401E-07,-1.72534109879052E-05,1.23046875,0,0
7.88194427059352E-07,-1.79380276676966E-05,1.23046875,0,0
4.3606232793536E-06,-1.8509294022806E-05,1.23046875,0,0
6.65637389829499E-06,-1.96918972505955E-05,1.23046875,0,0
6.97131827109843E-06,-1.86548531928565E-05,1.23046875,0,0
7.03427986081806E-06,-1.84897216968238E-05,1.23046875,0,0
7.27442466086359E-06,-1.68751230376074E-05,1.23046875,0,0
6.43277780909557E-06,-1.51157582877204E-05,1.23046875,0,0
5.47654326510383E-06,-1.26673367049079E-05,1.23046875,0,0
4.39724544776254E-06,-1.24739344755653E-05,1.23046875,0,0
3.1296476663556E-06,-1.05224171420559E-05,1.23046875,0,0
6.16264196651173E-06,-1.53883229359053E-05,1.23046875,0,0
6.63013724988559E-06,-1.38021086968365E-05,1.23046875,0,0
5.48232810615445E-06,-1.72736345120938E-05,1.23046875,0,0
2.31379158321943E-06,-1.33080302475719E-05,1.23046875,0,0
2.78830452771217E-06,-1.29645950437407E-05,1.23046875,0,0
4.21565800934331E-06,-1.28661031340016E-05,1.23046875,0,0
4.35572655987926E-06,-1.64248667715583E-05,1.23046875,0,0
2.20756146518397E-06,-1.72775453393115E-05,1.23046875,0,0
1.28877093175106E-06,-1.66423851624131E-05,1.23046875,0,0
2.63259494204249E-06,-1.58243583427975E-05,1.23046875,0,0
3.80756182494224E-06,-1.53493547259131E-05,1.23046875,0,0
4.25790130975656E-06,-1.86854740604758E-05,1.23046875,0,0
3.63345998266595E-06,-2.23255756282015E-05,1.23046875,0,0
2.64381310444151E-06,-2.49517979682423E-05,1.23046875,0,0
1.73387570612249E-06,-2.36055566347204E-05,1.23046875,0,0
2.07041489375115E-06,-2.18950353882974E-05,1.23046875,0,0
3.54279609382502E-06,-1.87537207239075E-05,1.23046875,0,0
6.08672144153388E-06,-1.73248736246023E-05,1.23046875,0,0
6.9250340857252E-06,-1.61317802849226E-05,1.23046875,0,0
6.2408075791609E-06,-1.6628497178317E-05,1.23046875,0,0
4.65863377030473E-06,-1.64261218742467E-05,1.23046875,0,0
2.82274459095788E-06,-1.61872940225294E-05,1.23046875,0,0
1.17115894227027E-06,-1.48239259942784E-05,1.23046875,0,0
1.01072453162487E-06,-1.45535386764095E-05,1.23046875,0,0
2.42995997723483E-06,-1.61675216077128E-05,1.23046875,0,0
3.03638148579921E-06,-1.78399604919832E-05,1.23046875,0,0
2.03807348952978E-06,-1.56556525325868E-05,1.23046875,0,0
3.43359079124639E-06,-2.12013474083506E-05,1.23046875,0,0
4.10937718697824E-06,-1.30326625367161E-05,1.23046875,0,0
4.20561309510958E-06,-1.5232467376336E-05,1.23046875,0,0
1.25932649552851E-06,-1.20611111924518E-05,1.23046875,0,0
-6.84395160988061E-07,-1.44861123771989E-05,1.23046875,0,0
-1.29694433326222E-06,-1.43740498970146E-05,1.23046875,0,0
3.66239305549243E-07,-1.81968534889165E-05,1.23046875,0,0
1.01060027191124E-06,-1.90218033822021E-05,1.23046875,0,0
9.06845741610596E-07,-1.76569246832514E-05,1.23046875,0,0
5.90558045132639E-07,-1.65874171216274E-05,1.23046875,0,0
9.53366509293119E-07,-1.69887680385727E-05,1.23046875,0,0
1.42600367780688E-06,-1.82074563781498E-05,1.23046875,0,0
1.0990427199431E-06,-1.56748810695717E-05,1.23046875,0,0
1.18888715405774E-06,-1.48309472933761E-05,1.23046875,0,0
1.11345354980585E-06,-1.47859846038045E-05,1.23046875,0,0
2.28961312132014E-06,-1.76208304765169E-05,1.23046875,0,0
4.08725918532582E-06,-1.753954711603E-05,1.23046875,0,0
5.74639443584601E-06,-1.8502731109038E-05,1.23046875,0,0
5.97432699578349E-06,-1.90148421097547E-05,1.23046875,0,0
5.37597452421323E-06,-2.03682739083888E-05,1.23046875,0,0
3.98909696741612E-06,-1.92124007298844E-05,1.23046875,0,0
2.97162773676973E-06,-1.8851040294976E-05,1.23046875,0,0
2.80206631941837E-06,-1.89276834134944E-05,1.23046875,0,0
3.21149673254695E-06,-2.0033181499457E-05,1.23046875,0,0
3.19910463986162E-06,-2.08466590265743E-05,1.23046875,0,0
3.47048467119748E-06,-2.046030931524E-05,1.23046875,0,0
2.04087655220064E-06,-1.45724861795316E-05,1.23046875,0,0
5.36955894858693E-07,-1.78082773345523E-05,1.23046875,0,0
-2.7430355657998E-06,-9.18259593163384E-06,1.23046875,0,0
-2.44805050897412E-06,-1.21519742606324E-05,1.23046875,0,0
-2.4223149921454E-06,-8.89903458300978E-06,1.23046875,0,0
-4.44466706994717E-07,-1.30797398014693E-05,1.23046875,0,0
9.68066444784199E-08,-1.49540519487346E-05,1.23046875,0,0
-1.20327513286611E-07,-1.60182262334274E-05,1.23046875,0,0
-4.67837423911988E-07,-1.26372324302793E-05,1.23046875,0,0
-1.29642728552426E-07,-1.01239547802834E-05,1.23046875,0,0
4.56254809932943E-07,-1.02423855423694E-05,1.23046875,0,0
1.13234239051963E-06,-1.14996037154924E-05,1.23046875,0,0
1.7255201782973E-06,-1.41347209137166E-05,1.23046875,0,0
2.05274045583792E-06,-1.64487664733315E-05,1.23046875,0,0
3.18745901495276E-06,-2.03907566174166E-05,1.23046875,0,0
3.66575545740488E-06,-2.25363783101784E-05,1.23046875,0,0
3.05122216559539E-06,-2.65382768702693E-05,1.23046875,0,0
1.70007410815742E-06,-2.76491609838558E-05,1.23046875,0,0
1.46838340242539E-06,-2.76698483503424E-05,1.23046875,0,0
2.14449801205774E-06,-2.39843593590194E-05,1.23046875,0,0
3.83296992367832E-06,-2.13770235859556E-05,1.23046875,0,0
4.23503524871194E-06,-1.82674502866575E-05,1.23046875,0,0
3.25529140354774E-06,-1.67350244737463E-05,1.23046875,0,0
2.4228677375504E-06,-1.5822755813133E-05,1.23046875,0,0
3.46504430126515E-06,-1.55816796905128E-05,1.23046875,0,0
5.41895315109286E-06,-1.44567875395296E-05,1.23046875,0,0
5.48340813111281E-06,-1.46818956636707E-05,1.23046875,0,0
2.31985950449598E-06,-1.32137865875848E-05,1.23046875,0,0
3.28610849464894E-06,-1.73145999724511E-05,1.23046875,0,0
3.26866143041116E-06,-9.56111307459651E-06,1.23046875,0,0
3.76589741790667E-06,-1.19429732876597E-05,1.23046875,0,0
2.23549909605936E-06,-1.07648074845201E-05,1.23046875,0,0
4.43378303316422E-06,-1.36526250571478E-05,1.23046875,0,0
6.91828654453275E-06,-1.25028409456718E-05,1.23046875,0,0
7.68867721490096E-06,-1.23628378787544E-05,1.23046875,0,0
6.74287957735942E-06,-1.08512022052309E-05,1.23046875,0,0
4.87642091684393E-06,-1.17932631837903E-05,1.23046875,0,0
2.98135091725271E-06,-1.42135031637736E-05,1.23046875,0,0
1.80770052793378E-06,-1.44278246807517E-05,1.23046875,0,0
1.03104434856505E-06,-1.6342724848073E-05,1.23046875,0,0
-2.20502698766722E-07,-2.03778963623336E-05,1.23046875,0,0
-1.02499529930355E-06,-2.68945332209114E-05,1.23046875,0,0
-1.87364742032514E-06,-3.09094648400787E-05,1.23046875,0,0
-2.03797162612318E-06,-3.30433322233148E-05,1.23046875,0,0
-1.03309923815686E-06,-2.73334117082413E-05,1.23046875,0,0
1.05478295608918E-06,-1.89174752449617E-05,1.23046875,0,0
1.49200127452787E-06,-1.23575491670636E-05,1.23046875,0,0
3.98614133700903E-07,-1.1333260772517E-05,1.23046875,0,0
-3.37029206320949E-07,-1.16507762868423E-05,1.23046875,0,0
1.09319387320284E-06,-1.27856183098629E-05,1.23046875,0,0
2.06053891815827E-06,-1.21063794722431E-05,1.23046875,0,0
1.75403829416609E-06,-1.14778003990068E-05,1.23046875,0,0
1.32097773075657E-06,-1.35612926897011E-05,1.23046875,0,0
1.35506195420021E-06,-1.62826236191904E-05,1.23046875,0,0
1.62909225309704E-06,-1.18543712233077E-05,1.23046875,0,0
1.14229180780967E-06,-1.51180120155914E-05,1.23046875,0,0
-4.56737865306422E-07,-1.14961685540038E-05,1.23046875,0,0
1.55969416937296E-06,-1.83883767022053E-05,1.23046875,0,0
3.3835044632724E-06,-1.83250649570255E-05,1.23046875,0,0
4.21138975070789E-06,-2.20719830394955E-05,1.23046875,0,0
2.73136924988648E-06,-2.07637876883382E-05,1.23046875,0,0
9.11589040697436E-07,-1.92278221220477E-05,1.23046875,0,0
8.75328908023221E-07,-1.70302773767617E-05,1.23046875,0,0
2.79011192105827E-06,-1.69157829077449E-05,1.23046875,0,0
3.80713618142181E-06,-1.94664753507823E-05,1.23046875,0,0
3.25520227306697E-06,-2.15392246900592E-05,1.23046875,0,0
2.64460027210589E-06,-2.17544002225623E-05,1.23046875,0,0
2.68354597210418E-06,-2.04508851311402E-05,1.23046875,0,0
3.0034163955861E-06,-2.23276365431957E-05,1.23046875,0,0
3.3519040698593E-06,-2.28872795560164E-05,1.23046875,0,0
4.859272394242E-06,-2.2924081349629E-05,1.23046875,0,0
5.59409909328679E-06,-2.03534636966651E-05,1.23046875,0,0
5.22480740983156E-06,-1.9167053324054E-05,1.23046875,0,0
4.91732453156146E-06,-1.79746657522628E-05,1.23046875,0,0
5.42385851076688E-06,-1.85555127245607E-05,1.23046875,0,0
5.62910827284213E-06,-1.87118639587425E-05,1.23046875,0,0
6.1858122535341E-06,-1.94136118807364E-05,1.23046875,0,0
6.37902076050523E-06,-1.95712909771828E-05,1.23046875,0,0
6.24506765234401E-06,-2.07974771910813E-05,1.23046875,0,0
6.47467368253274E-06,-2.07745324587449E-05,1.23046875,0,0
6.30269641987979E-06,-1.96209875866771E-05,1.23046875,0,0
4.76073500976781E-06,-1.47081582326791E-05,1.23046875,0,0
6.25067514192779E-06,-2.36602299992228E-05,1.23046875,0,0
3.88956459573819E-06,-2.52500976785086E-05,1.23046875,0,0
4.10200755140977E-06,-3.28422647726256E-05,1.23046875,0,0
2.40442932408769E-06,-2.55991089943564E-05,1.23046875,0,0
3.44220666192996E-06,-2.0341905837995E-05,1.23046875,0,0
3.39927692039055E-06,-1.55839443323202E-05,1.23046875,0,0
4.63764808955602E-06,-1.60609415615909E-05,1.23046875,0,0
5.23397056895192E-06,-1.60116105689667E-05,1.23046875,0,0
5.71557939110789E-06,-1.79396411112975E-05,1.23046875,0,0
5.94449920754414E-06,-2.03625058929902E-05,1.23046875,0,0
5.36450670551858E-06,-2.0281595425331E-05,1.23046875,0,0
4.85125747218262E-06,-1.99225269170711E-05,1.23046875,0,0
3.87185718864203E-06,-2.03581930691144E-05,1.23046875,0,0
3.55041493094177E-06,-2.2173197066877E-05,1.23046875,0,0
3.95054394175531E-06,-2.01856055355165E-05,1.23046875,0,0
5.98184533373569E-06,-1.91145991266239E-05,1.23046875,0,0
5.12112592332414E-06,-1.70031944435323E-05,1.23046875,0,0
2.25398844122537E-06,-1.6411879187217E-05,1.23046875,0,0
6.66409164296056E-07,-1.48319850268308E-05,1.23046875,0,0
2.04738284992345E-06,-1.46196762216277E-05,1.23046875,0,0
1.50642563312431E-06,-1.31762062665075E-05,1.23046875,0,0
-5.39936536370078E-07,-1.36986782308668E-05,1.23046875,0,0
-1.63399863595259E-06,-1.44602854561526E-05,1.23046875,0,0
5.66317567063379E-07,-1.41657001222484E-05,1.23046875,0,0
2.55614190791675E-06,-1.34988031277317E-05,1.23046875,0,0
1.59013472966762E-06,-1.4237261893868E-05,1.23046875,0,0
2.76240598395816E-07,-1.13160831460846E-05,1.23046875,0,0
-1.09866453712471E-08,-1.61777752509806E-05,1.23046875,0,0
-1.4800475867105E-07,-1.30800208353321E-05,1.23046875,0,0
1.19702576739655E-06,-1.55873221956426E-05,1.23046875,0,0
2.18231275539438E-06,-1.27913190226536E-05,1.23046875,0,0
1.35713344207034E-06,-1.57500962814083E-05,1.23046875,0,0
2.78356480976072E-07,-1.47112768900115E-05,1.23046875,0,0
5.24063239026873E-07,-1.39001904244651E-05,1.23046875,0,0
7.63263642511447E-07,-1.17177251013345E-05,1.23046875,0,0
9.36026935960399E-07,-1.08956610347377E-05,1.23046875,0,0
1.27315320241905E-06,-1.21217317428091E-05,1.23046875,0,0
2.48290393756179E-06,-1.45885069287033E-05,1.23046875,0,0
4.6183458835003E-06,-1.80778588401154E-05,1.23046875,0,0
5.56413215235807E-06,-1.92055686056847E-05,1.23046875,0,0
4.44914167019306E-06,-2.01045004359912E-05,1.23046875,0,0
3.26606459566392E-06,-1.77708880073624E-05,1.23046875,0,0
3.50674304172571E-06,-1.59836617967812E-05,1.23046875,0,0
3.94897961086826E-06,-1.33158018797985E-05,1.23046875,0,0
4.64333379568416E-06,-1.28201600091415E-05,1.23046875,0,0
6.07933043283992E-06,-1.23159261420369E-05,1.23046875,0,0
7.30532701709308E-06,-1.29273839775124E-05,1.23046875,0,0
7.8383864092757E-06,-1.21750435937429E-05,1.23046875,0,0
8.39285985421157E-06,-1.22596447909018E-05,1.23046875,0,0
7.864499821153E-06,-1.297777180298E-05,1.23046875,0,0
6.58782755635912E-06,-1.43756515171845E-05,1.23046875,0,0
6.05949981036247E-06,-1.5125341633393E-05,1.23046875,0,0
4.24631843998213E-06,-1.50682835737825E-05,1.23046875,0,0
9.50971070778905E-07,-1.21182738439529E-05,1.23046875,0,0
1.09488860289275E-06,-1.6695568774594E-05,1.23046875,0,0
2.03842296286894E-06,-1.04661921795923E-05,1.23046875,0,0
2.82204086943239E-06,-1.23018771773786E-05,1.23046875,0,0
1.43804015806381E-06,-9.84425241767894E-06,1.23046875,0,0
2.23066854232457E-06,-1.12842099042609E-05,1.23046875,0,0
3.58755346496764E-06,-1.0882869901252E-05,1.23046875,0,0
5.02990587847307E-06,-1.23802146845264E-05,1.23046875,0,0
5.1520351007639E-06,-1.14633739940473E-05,1.23046875,0,0
5.58447345611057E-06,-1.27308212540811E-05,1.23046875,0,0
5.73823126615025E-06,-1.70510556927184E-05,1.23046875,0,0
5.23735525348457E-06,-1.97391400433844E-05,1.23046875,0,0
5.01992872159462E-06,-2.02564551727846E-05,1.23046875,0,0
4.87193483422743E-06,-1.82382591447094E-05,1.23046875,0,0
5.56301529286429E-06,-1.84801810974022E-05,1.23046875,0,0
5.93227423451026E-06,-1.8134611309506E-05,1.23046875,0,0
5.20225103173289E-06,-1.86624474736163E-05,1.23046875,0,0
3.29892236550222E-06,-1.79611797648249E-05,1.23046875,0,0
2.45658316089248E-06,-1.92741281352937E-05,1.23046875,0,0
3.24024767905939E-06,-2.06172826437978E-05,1.23046875,0,0
3.91159346690984E-06,-2.23744209506549E-05,1.23046875,0,0
2.56883345173264E-06,-2.33668652072083E-05,1.23046875,0,0
2.201689994763E-06,-2.62082648987416E-05,1.23046875,0,0
2.54992551163014E-06,-2.64152531599393E-05,1.23046875,0,0
1.77863842054649E-06,-2.3376149329124E-05,1.23046875,0,0
1.09620123112109E-06,-2.02352548512863E-05,1.23046875,0,0
6.35960873296426E-07,-1.81057384907035E-05,1.23046875,0,0
-3.99590931010607E-07,-1.34752772282809E-05,1.23046875,0,0
-5.8867084362646E-07,-1.71881420101272E-05,1.23046875,0,0
-8.14814995919733E-07,-1.13567184598651E-05,1.23046875,0,0
-1.60886156663764E-06,-1.73068019648781E-05,1.23046875,0,0
-1.31488377519418E-06,-1.64244738698471E-05,1.23046875,0,0
-1.80121605808381E-06,-1.81631858140463E-05,1.23046875,0,0
-2.83662575384369E-06,-1.58715283760102E-05,1.23046875,0,0
-3.89682190871099E-06,-1.61101761477767E-05,1.23046875,0,0
-5.23012386111077E-06,-1.44966406878666E-05,1.23046875,0,0
-4.94961022923235E-06,-1.33911025841371E-05,1.23046875,0,0
-3.06184824694355E-06,-1.29036397993332E-05,1.23046875,0,0
-4.01898887503194E-07,-1.32176455736044E-05,1.23046875,0,0
-6.80454892432181E-09,-1.50928735820344E-05,1.23046875,0,0
-2.34876415561303E-06,-1.47871705848956E-05,1.23046875,0,0
-4.55381132269395E-06,-1.64022458193358E-05,1.23046875,0,0
-4.72788588012918E-06,-1.69755785464076E-05,1.23046875,0,0
-3.34177866534446E-06,-1.83550710062264E-05,1.23046875,0,0
-1.93273194781796E-06,-1.79466933332151E-05,1.23046875,0,0
-1.28125100218313E-06,-1.97122426470742E-05,1.23046875,0,0
-1.63715185408364E-06,-2.03568906727014E-05,1.23046875,0,0
-2.36340792980627E-06,-2.25941475946456E-05,1.23046875,0,0
-3.17718308906478E-06,-2.47363786911592E-05,1.23046875,0,0
-3.39286998496391E-06,-2.63259062194265E-05,1.23046875,0,0
-2.64871937361022E-06,-2.41132474911865E-05,1.23046875,0,0
-2.48069636654691E-06,-2.1224157535471E-05,1.23046875,0,0
-1.81838424850866E-06,-2.0387062249938E-05,1.23046875,0,0
-7.87583189776342E-08,-2.11132355616428E-05,1.23046875,0,0
9.58832174546842E-07,-1.59276569320355E-05,1.23046875,0,0
1.21596281132952E-06,-2.08025885513052E-05,1.23046875,0,0
7.23157597803947E-07,-1.33156427182257E-05,1.23046875,0,0
6.94855089022894E-07,-1.90784921869636E-05,1.23046875,0,0
-1.00137890512997E-06,-1.90721457329346E-05,1.23046875,0,0
-2.30216619456769E-06,-2.35865318245487E-05,1.23046875,0,0
-2.28691123993485E-06,-2.24695595534286E-05,1.23046875,0,0
-9.63803358899895E-07,-2.06900131161092E-05,1.23046875,0,0
1.49963329931779E-06,-1.39098101499258E-05,1.23046875,0,0
3.63848789675103E-06,-8.31990837468766E-06,1.23046875,0,0
5.53661402591388E-06,-6.4189962358796E-06,1.23046875,0,0
6.78058950143168E-06,-7.18358796802931E-06,1.23046875,0,0
6.70212284603622E-06,-1.02951344160829E-05,1.23046875,0,0
4.82327232020907E-06,-1.37112692755181E-05,1.23046875,0,0
2.64364507529535E-06,-2.0634213797166E-05,1.23046875,0,0
1.4934046248527E-06,-2.34738290600944E-05,1.23046875,0,0
1.64140783454059E-06,-2.18362911255099E-05,1.23046875,0,0
3.44639647664735E-06,-1.55357738549355E-05,1.23046875,0,0
6.28134739599773E-06,-1.34877363962005E-05,1.23046875,0,0
7.69283724366687E-06,-1.20740332931746E-05,1.23046875,0,0
7.01959925208939E-06,-1.22682704386534E-05,1.23046875,0,0
5.81810854782816E-06,-1.26804534374969E-05,1.23046875,0,0
5.22382879353245E-06,-1.57450758706545E-05,1.23046875,0,0
5.18817159900209E-06,-1.92814131878549E-05,1.23046875,0,0
5.15306419401895E-06,-2.32273250730941E-05,1.23046875,0,0
4.6050108721829E-06,-2.38258708122885E-05,1.23046875,0,0
4.17344153902377E-06,-2.05337964871433E-05,1.23046875,0,0
1.48250057918631E-06,-1.32235536511871E-05,1.23046875,0,0
9.62912054092158E-07,-1.8886843463406E-05,1.23046875,0,0
1.14435234621624E-08,-1.61562784342095E-05,1.23046875,0,0
1.60940567184298E-06,-2.11259830393828E-05,1.23046875,0,0
1.21633536309673E-06,-1.74948363564909E-05,1.23046875,0,0
2.23360484596924E-06,-1.8799470126396E-05,1.23046875,0,0
2.97190126730129E-06,-1.72591644513886E-05,1.23046875,0,0
4.01085799239809E-06,-1.70496532518882E-05,1.23046875,0,0
6.06341473030625E-06,-1.55653033289127E-05,1.23046875,0,0
7.54634174882085E-06,-1.57491795107489E-05,1.23046875,0,0
7.47223703001509E-06,-1.59868632181315E-05,1.23046875,0,0
7.49037326386315E-06,-1.40638621815015E-05,1.23046875,0,0
8.49614752951311E-06,-1.30825210362673E-05,1.23046875,0,0
8.84002201928524E-06,-1.14096746983705E-05,1.23046875,0,0
8.42214649310336E-06,-1.22222436402808E-05,1.23046875,0,0
7.17393004379119E-06,-1.33244202515925E-05,1.23046875,0,0
6.54269706501509E-06,-1.78876834979746E-05,1.23046875,0,0
6.2909530242905E-06,-2.0111454432481E-05,1.23046875,0,0
6.29735632173833E-06,-2.05442956939805E-05,1.23046875,0,0
6.25105803919723E-06,-1.89925940503599E-05,1.23046875,0,0
6.07286165177356E-06,-1.98091383936116E-05,1.23046875,0,0
5.77935406909091E-06,-1.91448179975851E-05,1.23046875,0,0
5.5760242503311E-06,-1.80626011569984E-05,1.23046875,0,0
5.50762661077897E-06,-1.81117229658412E-05,1.23046875,0,0
6.60737987345783E-06,-1.83250467671314E-05,1.23046875,0,0
7.31374439055799E-06,-1.58437014761148E-05,1.23046875,0,0
5.80138021177845E-06,-1.36043399834307E-05,1.23046875,0,0
3.53770542460552E-06,-1.15851880764239E-05,1.23046875,0,0
5.29693852513446E-06,-1.84092968993355E-05,1.23046875,0,0
4.34014555139584E-06,-1.60435211000731E-05,1.23046875,0,0
3.80662254428898E-06,-1.87846071639797E-05,1.23046875,0,0
1.98312454813276E-06,-1.65276669576997E-05,1.23046875,0,0
3.01956561088446E-06,-1.96473702089861E-05,1.23046875,0,0
2.45324213210552E-06,-2.30241948884213E-05,1.23046875,0,0
2.60277943198162E-06,-2.80360545730218E-05,1.23046875,0,0
2.39445444094599E-06,-3.01973450405058E-05,1.23046875,0,0
3.32488457388536E-06,-2.90064599539619E-05,1.23046875,0,0
5.87419299336034E-06,-2.61806726484792E-05,1.23046875,0,0
6.83173902871204E-06,-2.45625651587034E-05,1.23046875,0,0
5.40701603313209E-06,-2.52283734880621E-05,1.23046875,0,0
3.34262495016446E-06,-2.38561806327198E-05,1.23046875,0,0
3.35975619236706E-06,-2.17749202420237E-05,1.23046875,0,0
3.90600735045155E-06,-1.84460768650752E-05,1.23046875,0,0
4.36319123764406E-06,-1.64911216415931E-05,1.23046875,0,0
3.99245845983387E-06,-1.37206252475153E-05,1.23046875,0,0
4.35672882304061E-06,-1.21963012134074E-05,1.23046875,0,0
4.32298793384689E-06,-1.09890361272846E-05,1.23046875,0,0
4.03997728426475E-06,-1.2110210263927E-05,1.23046875,0,0
3.53972268385405E-06,-1.27244402392535E-05,1.23046875,0,0
3.75624244952633E-06,-1.42173694257508E-05,1.23046875,0,0
3.11738267555484E-06,-1.62981959874742E-05,1.23046875,0,0
1.89032630260044E-06,-1.79781836777693E-05,1.23046875,0,0
1.19637252282701E-06,-1.60927629622165E-05,1.23046875,0,0
1.14980787202512E-06,-1.1341897334205E-05,1.23046875,0,0
9.60955730988644E-07,-7.36042829885264E-06,1.23046875,0,0
1.60997774401039E-06,-1.08358153738664E-05,1.23046875,0,0
3.44613681590999E-06,-9.05156866792822E-06,1.23046875,0,0
6.05333207204239E-06,-9.16546559892595E-06,1.23046875,0,0
4.73082855023677E-06,-5.9065150708193E-06,1.23046875,0,0
2.04545813176082E-06,-1.01456089396379E-05,1.23046875,0,0
1.2521179542091E-06,-1.28791825773078E-05,1.23046875,0,0
3.65496316589997E-06,-1.40758138513775E-05,1.23046875,0,0
6.05308559897821E-06,-1.33149787870934E-05,1.23046875,0,0
5.87335762247676E-06,-1.31956248878851E-05,1.23046875,0,0
3.62598734682251E-06,-1.42815597428125E-05,1.23046875,0,0
9.0261016794102E-07,-1.50765245052753E-05,1.23046875,0,0
-1.55928404410588E-07,-1.67676917044446E-05,1.23046875,0,0
-3.20649853335908E-08,-1.74213855643757E-05,1.23046875,0,0
4.95305982894934E-07,-1.761466046446E-05,1.23046875,0,0
3.81298747242909E-07,-1.6305686585838E-05,1.23046875,0,0
-1.48390915910568E-06,-1.75302957359236E-05,1.23046875,0,0
-2.93598304779152E-06,-1.84150503628189E-05,1.23046875,0,0
-1.85208364200662E-06,-1.82264375325758E-05,1.23046875,0,0
-3.67090336794718E-07,-1.64135999511927E-05,1.23046875,0,0
-1.4837847572835E-07,-1.63623681146419E-05,1.23046875,0,0
-9.59434601099929E-07,-1.61538009706419E-05,1.23046875,0,0
-7.42900681416359E-07,-1.39716521516675E-05,1.23046875,0,0
1.13457531369932E-06,-1.06430734376772E-05,1.23046875,0,0
3.75110198547191E-06,-1.02231224445859E-05,1.23046875,0,0
5.00776832268457E-06,-1.22667452160385E-05,1.23046875,0,0
4.60929550172295E-06,-1.43158258651965E-05,1.23046875,0,0
2.98936720355414E-06,-1.27822640934028E-05,1.23046875,0,0
4.00060025640414E-06,-1.61001735250466E-05,1.23046875,0,0
3.86893680115463E-06,-9.27965174923884E-06,1.23046875,0,0
6.34777143204701E-06,-1.46716911331168E-05,1.23046875,0,0
6.42328359390376E-06,-1.54404206114123E-05,1.23046875,0,0
6.01010833634064E-06,-1.83992669917643E-05,1.23046875,0,0
3.1955289614416E-06,-1.56787900777999E-05,1.23046875,0,0
1.71583258179453E-06,-1.34780602820683E-05,1.23046875,0,0
1.12146733499685E-06,-9.869210771285E-06,1.23046875,0,0
1.18017590011732E-06,-8.52457833389053E-06,1.23046875,0,0
6.05170043854741E-07,-1.00574570751633E-05,1.23046875,0,0
-9.80949380391394E-07,-1.23987929327996E-05,1.23046875,0,0
-2.1460427888087E-06,-1.58051770995371E-05,1.23046875,0,0
-1.78754964963446E-06,-1.74505894392496E-05,1.23046875,0,0
1.11760937215877E-06,-1.90463160834042E-05,1.23046875,0,0
3.02577791444492E-06,-1.77253732545068E-05,1.23046875,0,0
2.50466496254376E-06,-1.87468413059833E-05,1.23046875,0,0
8.12239704828244E-07,-2.02972460101591E-05,1.23046875,0,0
1.88967658232286E-06,-2.22187100007432E-05,1.23046875,0,0
3.62596051672881E-06,-2.00544454855844E-05,1.23046875,0,0
3.2664916034264E-06,-1.88898156920914E-05,1.23046875,0,0
7.06064611222246E-07,-1.96850232896395E-05,1.23046875,0,0
-3.66181438948843E-07,-2.34903691307409E-05,1.23046875,0,0
9.01853809409658E-07,-2.74361427727854E-05,1.23046875,0,0
2.24584232455527E-06,-2.99721559713362E-05,1.23046875,0,0
2.45024057221599E-06,-2.96767520922003E-05,1.23046875,0,0
2.56131897913292E-06,-2.76230712188408E-05,1.23046875,0,0
2.7360856620362E-06,-2.06805052584969E-05,1.23046875,0,0
5.17184298587381E-06,-2.82443434116431E-05,1.23046875,0,0
4.61882837043959E-06,-2.01813963940367E-05,1.23046875,0,0
3.68618748325389E-06,-2.53279704338638E-05,1.23046875,0,0
1.45456192512938E-06,-2.04983916773926E-05,1.23046875,0,0
-3.8375665667445E-07,-2.48894066317007E-05,1.23046875,0,0
-1.12479426661594E-06,-2.33444188779686E-05,1.23046875,0,0
3.86716550337951E-07,-2.28438093472505E-05,1.23046875,0,0
2.41910470322182E-06,-1.99979403987527E-05,1.23046875,0,0
3.29452313962975E-06,-1.88099111255724E-05,1.23046875,0,0
2.67849441115686E-06,-1.90806640603114E-05,1.23046875,0,0
1.39214932914911E-06,-1.93746836885111E-05,1.23046875,0,0
1.031384158523E-06,-2.169320032408E-05,1.23046875,0,0
1.55704685766977E-06,-2.13247640203917E-05,1.23046875,0,0
2.54272231359209E-06,-2.24431605602149E-05,1.23046875,0,0
3.39358530254685E-06,-2.08342808036832E-05,1.23046875,0,0
3.92277252103668E-06,-2.12253380595939E-05,1.23046875,0,0
2.68276471615536E-06,-1.92856768990168E-05,1.23046875,0,0
1.03558159025852E-06,-1.9329445422045E-05,1.23046875,0,0
1.36659969030006E-06,-1.62757842190331E-05,1.23046875,0,0
4.28163593824138E-06,-1.35010195663199E-05,1.23046875,0,0
6.60728801449295E-06,-1.13908026833087E-05,1.23046875,0,0
6.0582578953472E-06,-1.33802113850834E-05,1.23046875,0,0
4.88002797283116E-06,-1.45364083437016E-05,1.23046875,0,0
4.96862458021496E-06,-1.57657723320881E-05,1.23046875,0,0
4.50751304015284E-06,-1.58837192429928E-05,1.23046875,0,0
2.75921274806024E-06,-1.44597788676037E-05,1.23046875,0,0
2.59708599514852E-06,-1.07933583421982E-05,1.23046875,0,0
4.71700332127512E-06,-1.60399958986091E-05,1.23046875,0,0
4.84827887703432E-06,-1.29583922898746E-05,1.23046875,0,0
7.128354809538E-06,-1.56793576024938E-05,1.23046875,0,0
9.39664823818021E-06,-1.26260783872567E-05,1.23046875,0,0
1.02304420579458E-05,-1.29927848320222E-05,1.23046875,0,0
8.57777740748134E-06,-1.41621349030174E-05,1.23046875,0,0
7.08945481164847E-06,-1.96221662918106E-05,1.23046875,0,0
6.4395403569506E-06,-2.42353216890479E-05,1.23046875,0,0
6.34206617178279E-06,-2.56435014307499E-05,1.23046875,0,0
5.75082185605424E-06,-2.29404759011231E-05,1.23046875,0,0
4.68312964585493E-06,-1.75107397808461E-05,1.23046875,0,0
5.16523004989722E-06,-1.4733958778379E-05,1.23046875,0,0
5.67990355193615E-06,-1.37213064590469E-05,1.23046875,0,0
6.68810889692395E-06,-1.44548994285287E-05,1.23046875,0,0
7.8377734098467E-06,-1.37942370201927E-05,1.23046875,0,0
8.36421895655803E-06,-1.36682974698488E-05,1.23046875,0,0
7.09385085428949E-06,-1.21768189274007E-05,1.23046875,0,0
4.89796639158158E-06,-1.26928880490595E-05,1.23046875,0,0
3.5720263440453E-06,-1.36684075187077E-05,1.23046875,0,0
3.41862005370785E-06,-1.41981909109745E-05,1.23046875,0,0
2.60066531154735E-06,-1.25916176330065E-05,1.23046875,0,0
1.86992633643968E-06,-1.21536486403784E-05,1.23046875,0,0
8.49527737045719E-07,-1.20043323477148E-05,1.23046875,0,0
-7.40269427979001E-08,-1.29878044390352E-05,1.23046875,0,0
6.15091494182707E-07,-1.49471916301991E-05,1.23046875,0,0
1.75693367054919E-06,-1.56636906467611E-05,1.23046875,0,0
2.43985232373234E-06,-1.45615358633222E-05,1.23046875,0,0
3.75743206859624E-06,-2.05779615498614E-05,1.23046875,0,0
3.91117919207318E-06,-1.49570159919676E-05,1.23046875,0,0
3.72036538465181E-06,-1.85489461728139E-05,1.23046875,0,0
7.2972903808477E-07,-1.63496333698276E-05,1.23046875,0,0
-2.7867532281789E-08,-1.8375227227807E-05,1.23046875,0,0
-7.79417064222798E-07,-1.69611394085223E-05,1.23046875,0,0
-9.83953782451863E-07,-1.7697630028124E-05,1.23046875,0,0
-2.09926088245993E-06,-1.54699664562941E-05,1.23046875,0,0
-2.54305382441089E-06,-1.44245796036557E-05,1.23046875,0,0
-2.38003190133895E-06,-1.3934020898887E-05,1.23046875,0,0
-2.01167790692125E-06,-1.29526524688117E-05,1.23046875,0,0
-1.03988270439004E-06,-1.37056067615049E-05,1.23046875,0,0
-1.12203565549862E-06,-1.30924081531703E-05,1.23046875,0,0
-1.0725746051321E-06,-1.40156253110035E-05,1.23046875,0,0
-4.34529425774599E-07,-1.37248634928255E-05,1.23046875,0,0
2.75703655461257E-08,-1.61191328515997E-05,1.23046875,0,0
-1.66821791935945E-06,-1.66442987392657E-05,1.23046875,0,0
-3.88193484468502E-06,-1.71605006471509E-05,1.23046875,0,0
-5.2253672038205E-06,-1.56704591063317E-05,1.23046875,0,0
-3.80618780582154E-06,-1.5366726074717E-05,1.23046875,0,0
-1.93339656107128E-06,-1.51969315993483E-05,1.23046875,0,0
-1.63090624027973E-06,-1.69413924595574E-05,1.23046875,0,0
-2.58864997704222E-06,-1.76613921212265E-05,1.23046875,0,0
-1.44677255775605E-06,-1.65498058777303E-05,1.23046875,0,0
2.01596708393481E-06,-1.46100792335346E-05,1.23046875,0,0
4.69685392090469E-06,-1.54478766489774E-05,1.23046875,0,0
3.66818335351127E-06,-1.43194547490566E-05,1.23046875,0,0
3.39145503858163E-06,-2.06883923965506E-05,1.23046875,0,0
-1.35464858885825E-06,-1.59581013576826E-05,1.23046875,0,0
-2.30935620493256E-06,-1.9754526874749E-05,1.23046875,0,0
-2.80211065728508E-06,-1.66003883350641E-05,1.23046875,0,0
5.42480265153245E-08,-1.73730422829976E-05,1.23046875,0,0
1.85001533736795E-06,-1.532036185381E-05,1.23046875,0,0
2.30915657084552E-06,-1.62615651788656E-05,1.23046875,0,0
1.17480180961138E-06,-1.67403832165292E-05,1.23046875,0,0
8.9613041609482E-07,-1.67755424627103E-05,1.23046875,0,0
1.78367599801277E-06,-1.60078634507954E-05,1.23046875,0,0
2.26348629439599E-06,-1.5384453945444E-05,1.23046875,0,0
3.22362711813184E-06,-1.78486297954805E-05,1.23046875,0,0
4.10978782383609E-06,-1.90169794223038E-05,1.23046875,0,0
4.79803884445573E-06,-2.02140527107986E-05,1.23046875,0,0
4.23696246798499E-06,-1.8308533981326E-05,1.23046875,0,0
3.54666963175987E-06,-1.66148420248646E-05,1.23046875,0,0
2.8765546176146E-06,-1.39664352900581E-05,1.23046875,0,0
3.55864790435589E-06,-1.38920513563789E-05,1.23046875,0,0
4.59509647043888E-06,-1.3775126717519E-05,1.23046875,0,0
6.03162152401637E-06,-1.48781964526279E-05,1.23046875,0,0
6.73881095281104E-06,-1.50789401232032E-05,1.23046875,0,0
7.11183110979619E-06,-1.70518705999712E-05,1.23046875,0,0
6.43422617940814E-06,-1.87860860023648E-05,1.23046875,0,0
4.89726380692446E-06,-1.92056668311125E-05,1.23046875,0,0
3.70902512258908E-06,-1.87624100362882E-05,1.23046875,0,0
4.85920600112877E-06,-2.02811224880861E-05,1.23046875,0,0
5.57482235308271E-06,-2.08357905648882E-05,1.23046875,0,0
8.07244487077696E-06,-3.32826166413724E-05,1.23046875,0,0
7.24400433682604E-06,-2.96906691801269E-05,1.23046875,0,0
1.06489578683977E-05,-3.44274340022821E-05,1.23046875,0,0
9.21428363653831E-06,-2.68648491328349E-05,1.23046875,0,0
6.92415096636978E-06,-2.3504189812229E-05,1.23046875,0,0
3.87518412026111E-06,-1.77709480340127E-05,1.23046875,0,0
4.33994046034059E-06,-1.74812303157523E-05,1.23046875,0,0
6.37645143797272E-06,-1.59523442562204E-05,1.23046875,0,0
7.60943657951429E-06,-1.52229831655859E-05,1.23046875,0,0
6.61594867779058E-06,-1.56117130245548E-05,1.23046875,0,0
5.60150647288538E-06,-1.59075989358826E-05,1.23046875,0,0
6.36872346149175E-06,-1.71740339283133E-05,1.23046875,0,0
6.59419310977682E-06,-1.53178134496557E-05,1.23046875,0,0
5.78398976358585E-06,-1.5271225493052E-05,1.23046875,0,0
3.79042376152938E-06,-1.44698942676769E-05,1.23046875,0,0
3.99552209273679E-06,-1.66024983627722E-05,1.23046875,0,0
5.3199378271529E-06,-1.56187506945571E-05,1.23046875,0,0
7.4151935223199E-06,-1.48279677887331E-05,1.23046875,0,0
7.92878108768491E-06,-1.273562793358E-05,1.23046875,0,0
7.44182398193516E-06,-1.30627577163978E-05,1.23046875,0,0
5.89950059293187E-06,-1.19740898298915E-05,1.23046875,0,0
4.44338229499408E-06,-1.18209991342155E-05,1.23046875,0,0
2.70608097707736E-06,-1.19881215141504E-05,1.23046875,0,0
2.23667484533507E-06,-1.40545553222182E-05,1.23046875,0,0
2.74812350653519E-06,-1.70887724380009E-05,1.23046875,0,0
2.62894445768325E-06,-2.11297883652151E-05,1.23046875,0,0
1.37436779823474E-06,-1.81057821464492E-05,1.23046875,0,0
2.31757076107897E-06,-2.31092490139417E-05,1.23046875,0,0
3.07098184748611E-06,-1.50377345562447E-05,1.23046875,0,0
3.78403433387575E-06,-2.15049003600143E-05,1.23046875,0,0
2.86273802885262E-06,-1.84348864422645E-05,1.23046875,0,0
1.59329545112996E-06,-1.99449186766287E-05,1.23046875,0,0
-1.40023394124E-06,-1.6896648958209E-05,1.23046875,0,0
-2.73499131253629E-06,-1.68099522852572E-05,1.23046875,0,0
-2.80338463198859E-06,-1.4044772797206E-05,1.23046875,0,0
-2.90859270535293E-06,-1.39390858748811E-05,1.23046875,0,0
-2.79581536233309E-06,-1.48471917782445E-05,1.23046875,0,0
-2.50634184340015E-06,-1.45028343467857E-05,1.23046875,0,0
-1.64397124535753E-06,-1.59815426741261E-05,1.23046875,0,0
-1.0484629910934E-06,-1.68554888659855E-05,1.23046875,0,0
1.32059369661874E-07,-1.92853840417229E-05,1.23046875,0,0
9.92693912849063E-07,-1.91545259440318E-05,1.23046875,0,0
1.28791475617618E-06,-2.31610520131653E-05,1.23046875,0,0
1.79352605300664E-06,-2.71600583801046E-05,1.23046875,0,0
3.09812639898155E-06,-3.27715933963191E-05,1.23046875,0,0
3.61946649718448E-06,-3.37468154611997E-05,1.23046875,0,0
4.10155053032213E-06,-3.27069428749383E-05,1.23046875,0,0
5.50189952264191E-06,-2.79764462902676E-05,1.23046875,0,0
7.39439838071121E-06,-2.38355605688412E-05,1.23046875,0,0
8.45269914862001E-06,-1.93666874110932E-05,1.23046875,0,0
7.70194037613692E-06,-1.85797071026172E-05,1.23046875,0,0
6.31254351901589E-06,-2.00709891942097E-05,1.23046875,0,0
5.67784309168928E-06,-1.98660418391228E-05,1.23046875,0,0
5.03007959196111E-06,-1.4590737009712E-05,1.23046875,0,0
7.03531441104133E-06,-2.02888822968816E-05,1.23046875,0,0
4.12123745263671E-06,-1.61165880854242E-05,1.23046875,0,0
4.34329922427423E-06,-2.00071772269439E-05,1.23046875,0,0
2.82619953395624E-06,-1.533079193905E-05,1.23046875,0,0
2.57178794527135E-06,-1.62695123435697E-05,1.23046875,0,0
2.00381782633485E-06,-1.4792119145568E-05,1.23046875,0,0
2.40818599195336E-06,-1.69374179677106E-05,1.23046875,0,0
1.51345454924012E-06,-1.61517982633086E-05,1.23046875,0,0
1.24205826068646E-06,-1.52992743096547E-05,1.23046875,0,0
1.67115251770156E-06,-1.50652540469309E-05,1.23046875,0,0
2.08464712159184E-06,-1.33028524942347E-05,1.23046875,0,0
2.25418330046523E-06,-1.28041483549168E-05,1.23046875,0,0
3.46659675187766E-07,-1.15567399916472E-05,1.23046875,0,0
-1.79855760507053E-06,-1.10367882371065E-05,1.23046875,0,0
-3.42161342814507E-06,-8.62299566506408E-06,1.23046875,0,0
-3.06908168568043E-06,-9.83270001597703E-06,1.23046875,0,0
-2.22599283006275E-06,-1.0638575986377E-05,1.23046875,0,0
-4.09780170684826E-07,-1.26359327623504E-05,1.23046875,0,0
1.0528592611081E-06,-1.23857362268609E-05,1.23046875,0,0
1.62955291216349E-06,-1.33840831040288E-05,1.23046875,0,0
-3.15825616326038E-07,-1.41456712299259E-05,1.23046875,0,0
-1.83892041150102E-06,-1.61654916155385E-05,1.23046875,0,0
-2.28518501899089E-06,-1.70654566318262E-05,1.23046875,0,0
-2.74374156106205E-06,-1.67633170349291E-05,1.23046875,0,0
-1.4300959492175E-06,-1.47954369822401E-05,1.23046875,0,0
5.09461074216233E-07,-1.41155696837814E-05,1.23046875,0,0
4.24977486090938E-07,-1.28149968077196E-05,1.23046875,0,0
1.61695277256513E-06,-1.96194741874933E-05,1.23046875,0,0
2.74312947112776E-06,-1.68667338584783E-05,1.23046875,0,0
3.23226868204074E-06,-2.13014227483654E-05,1.23046875,0,0
2.82005657936679E-06,-1.88463473023148E-05,1.23046875,0,0
2.06519348466827E-06,-1.67699290614109E-05,1.23046875,0,0
1.95544430425798E-06,-1.19472197184223E-05,1.23046875,0,0
3.01505360766896E-06,-1.25416645460064E-05,1.23046875,0,0
4.97800965604256E-06,-1.39006733661518E-05,1.23046875,0,0
6.41912993160076E-06,-1.38519226311473E-05,1.23046875,0,0
6.86471412336687E-06,-1.28922383737518E-05,1.23046875,0,0
5.33681395609165E-06,-1.37952629302163E-05,1.23046875,0,0
3.39258190251712E-06,-1.6475620213896E-05,1.23046875,0,0
1.33209471187001E-06,-1.70248131325934E-05,1.23046875,0,0
1.7688446973807E-07,-1.80765728146071E-05,1.23046875,0,0
5.98012832142558E-07,-1.7869988369057E-05,1.23046875,0,0
1.39473775107035E-06,-1.85948192665819E-05,1.23046875,0,0
1.51918413848762E-06,-1.70381499629002E-05,1.23046875,0,0
7.76192678131338E-07,-1.66931422427297E-05,1.23046875,0,0
8.88783517893899E-07,-1.63231816259213E-05,1.23046875,0,0
2.83754661722924E-06,-1.75243494595634E-05,1.23046875,0,0
4.401661499287E-06,-1.71595256688306E-05,1.23046875,0,0
4.60109504274442E-06,-1.72174186445773E-05,1.23046875,0,0
4.89004196424503E-06,-1.80231836566236E-05,1.23046875,0,0
3.26104509440484E-06,-1.88964186236262E-05,1.23046875,0,0
1.88537399026245E-06,-1.79085454874439E-05,1.23046875,0,0
1.818297846512E-06,-1.6929725461523E-05,1.23046875,0,0
2.30817636293068E-06,-1.51161821122514E-05,1.23046875,0,0
3.82137113774661E-06,-2.39741330005927E-05,1.23046875,0,0
3.01284558190673E-06,-2.15215222851839E-05,1.23046875,0,0
1.88924673238944E-06,-2.46314193645958E-05,1.23046875,0,0
1.06798950127995E-06,-1.87375408131629E-05,1.23046875,0,0
3.8019261410227E-06,-1.72381842276081E-05,1.23046875,0,0
5.22547497894266E-06,-1.36021417347365E-05,1.23046875,0,0
5.14387193106813E-06,-1.4264300261857E-05,1.23046875,0,0
4.262360107532E-06,-1.6831925677252E-05,1.23046875,0,0
2.6270088255842E-06,-2.05539472517557E-05,1.23046875,0,0
1.14002807549696E-06,-2.05157321033766E-05,1.23046875,0,0
-4.91386856538156E-07,-1.66992176673375E-05,1.23046875,0,0
-1.9685994629981E-06,-1.47291302710073E-05,1.23046875,0,0
-1.46103411680087E-06,-1.3187125659897E-05,1.23046875,0,0
7.71037775848527E-07,-1.35833470267244E-05,1.23046875,0,0
2.58146405940352E-06,-1.28279461932834E-05,1.23046875,0,0
3.44813292940671E-06,-1.40112224471522E-05,1.23046875,0,0
2.61014815805538E-06,-1.46384991239756E-05,1.23046875,0,0
9.82768256108102E-07,-1.78153059096076E-05,1.23046875,0,0
-4.88098976347828E-07,-1.87232490134193E-05,1.23046875,0,0
-1.57588800675512E-07,-1.89924394362606E-05,1.23046875,0,0
1.25517635751748E-06,-1.83327611011919E-05,1.23046875,0,0
2.40003828366753E-06,-1.69825198099716E-05,1.23046875,0,0
1.98427665054624E-06,-1.45089925354114E-05,1.23046875,0,0
2.17785350287159E-06,-1.6224961655098E-05,1.23046875,0,0
3.49801302945707E-06,-1.89182483154582E-05,1.23046875,0,0
4.5887713895354E-06,-2.01693565031746E-05,1.23046875,0,0
3.93999971493031E-06,-1.66074132721405E-05,1.23046875,0,0
5.62021159566939E-06,-2.19008088606643E-05,1.23046875,0,0
5.0284056669625E-06,-1.34871252157609E-05,1.23046875,0,0
6.94907203069306E-06,-1.75530385604361E-05,1.23046875,0,0
6.06018829785171E-06,-1.58427446876885E-05,1.23046875,0,0
6.06733465247089E-06,-1.9148459614371E-05,1.23046875,0,0
5.62621426070109E-06,-1.60209583555115E-05,1.23046875,0,0
5.5142345445347E-06,-1.56927962962072E-05,1.23046875,0,0
3.15777128889749E-06,-1.63635995704681E-05,1.23046875,0,0
2.31910030379368E-06,-1.88461399375228E-05,1.23046875,0,0
3.47128934663488E-06,-2.07281082111876E-05,1.23046875,0,0
4.7700368668302E-06,-2.00985850824509E-05,1.23046875,0,0
5.95881465415005E-06,-1.96524688362842E-05,1.23046875,0,0
5.79957441004808E-06,-1.770566268533E-05,1.23046875,0,0
6.14113923802506E-06,-1.72010040841997E-05,1.23046875,0,0
7.33359411242418E-06,-1.46995625982527E-05,1.23046875,0,0
8.47396222525276E-06,-1.42875469464343E-05,1.23046875,0,0
6.01392457610928E-06,-1.28096817206824E-05,1.23046875,0,0
2.55708982876968E-06,-1.40042538987473E-05,1.23046875,0,0
9.8889483979292E-07,-1.33505554913427E-05,1.23046875,0,0
2.66832421402796E-06,-1.40206657306408E-05,1.23046875,0,0
4.2831857172132E-06,-1.48750941662001E-05,1.23046875,0,0
5.16351155965822E-06,-1.78565351234283E-05,1.23046875,0,0
3.92493438994279E-06,-1.99588848772692E-05,1.23046875,0,0
8.16189697161462E-07,-2.13174243981484E-05,1.23046875,0,0
-1.98202897649935E-07,-2.20238271140261E-05,1.23046875,0,0
2.97420399419934E-07,-2.28241024160525E-05,1.23046875,0,0
4.29983487038044E-07,-1.90558093891013E-05,1.23046875,0,0
1.61058915182366E-06,-2.74913036264479E-05,1.23046875,0,0
3.0036349016882E-06,-1.99511850951239E-05,1.23046875,0,0
3.23683866554347E-06,-2.18394670810085E-05,1.23046875,0,0
2.45617775362916E-06,-1.59849296323955E-05,1.23046875,0,0
2.55124223258463E-06,-1.88744761544513E-05,1.23046875,0,0
3.82474854632164E-06,-1.78042191691929E-05,1.23046875,0,0
5.01012937093037E-06,-1.89293332368834E-05,1.23046875,0,0
5.33003003511112E-06,-1.77169567905366E-05,1.23046875,0,0
3.76582534045156E-06,-1.73790649569128E-05,1.23046875,0,0
2.83515510091092E-06,-1.76766880031209E-05,1.58203125,0,0
3.68077439816261E-06,-1.80195602297317E-05,1.58203125,0,0
4.53588472737465E-06,-2.07155026146211E-05,1.58203125,0,0
3.47107879861142E-06,-2.17272099689581E-05,1.58203125,0,0
1.05157243979193E-06,-2.33659484365489E-05,1.58203125,0,0
-4.58895840438345E-07,-2.1493156964425E-05,1.58203125,0,0
2.34983289715274E-07,-2.0308865714469E-05,1.58203125,0,0
1.66572203852411E-06,-1.70670664374484E-05,1.58203125,0,0
1.32052923618176E-06,-1.80094048118917E-05,1.58203125,0,0
7.56714939598169E-07,-1.91535618796479E-05,1.58203125,0,0
1.90731702787161E-06,-2.05670785362599E-05,1.58203125,0,0
3.71134046872612E-06,-1.94398126041051E-05,1.58203125,0,0
3.85224439014564E-06,-1.92189436347689E-05,1.58203125,0,0
3.13508485305647E-06,-1.7794514860725E-05,1.58203125,0,0
3.79178163711913E-06,-1.71104420587653E-05,1.58203125,0,0
4.45957584815915E-06,-1.70674429682549E-05,1.58203125,0,0
3.39592429554614E-06,-1.7866508642328E-05,1.58203125,0,0
2.72600232165132E-06,-1.47237133205635E-05,1.58203125,0,0
3.20799335895572E-06,-1.98271081899293E-05,1.58203125,0,0
7.36169340598281E-07,-1.22712426673388E-05,1.58203125,0,0
4.21925022919822E-07,-1.4430071132665E-05,1.58203125,0,0
7.0403154950327E-07,-1.03080010376289E-05,1.58203125,0,0
2.85960527435236E-06,-1.0573663530522E-05,1.58203125,0,0
1.1246964959355E-06,-8.94240110937972E-06,1.58203125,0,0
-2.55702889262466E-06,-1.08284775706124E-05,1.58203125,0,0
-3.70342127098411E-06,-1.05312819869141E-05,1.58203125,0,0
-2.77539129456272E-06,-9.6742223831825E-06,1.58203125,0,0
-2.03852869162802E-06,-9.05556771613192E-06,1.58203125,0,0
-1.83359270522487E-06,-8.19888464320684E-06,1.58203125,0,0
-9.80452341536875E-07,-9.5678833531565E-06,1.58203125,0,0
-1.07475659660849E-06,-1.21991506603081E-05,1.58203125,0,0
-1.91836011254054E-06,-1.97255849343492E-05,1.58203125,0,0
-2.03494300876628E-06,-2.72382694674889E-05,1.58203125,0,0
-5.6212456911453E-08,-3.26331355609E-05,1.58203125,0,0
2.10093662644795E-06,-2.88051887764595E-05,1.58203125,0,0
2.86873773802654E-06,-2.09426070796326E-05,1.58203125,0,0
1.26090731100703E-06,-1.29959835248883E-05,1.58203125,0,0
-7.63347031806916E-07,-1.15354068839224E-05,1.58203125,0,0
-1.19674484722054E-06,-1.2775413779309E-05,1.58203125,0,0
7.66934036278144E-08,-1.4175957403495E-05,1.58203125,0,0
1.04960474800464E-06,-1.341129791399E-05,1.58203125,0,0
1.75874720298452E-06,-1.24850521387998E-05,1.58203125,0,0
1.81865561899031E-06,-1.13828191388166E-05,1.58203125,0,0
2.30500791076338E-06,-1.21453022075002E-05,1.58203125,0,0
2.72009174295818E-06,-1.19986270874506E-05,1.58203125,0,0
4.13651787312119E-06,-1.84576292667771E-05,1.58203125,0,0
3.20152798849449E-06,-1.66154823091347E-05,1.58203125,0,0
4.87964098283555E-06,-1.93195082829334E-05,1.58203125,0,0
5.94005132370512E-06,-1.552255525894E-05,1.58203125,0,0
5.18226124768262E-06,-1.73210082721198E-05,1.58203125,0,0
3.45719854522031E-06,-1.66924892255338E-05,1.58203125,0,0
4.58729937236058E-06,-1.81466439244105E-05,1.58203125,0,0
5.82594202569453E-06,-1.86607721843757E-05,1.58203125,0,0
6.11080531598418E-06,-1.78066493390361E-05,1.58203125,0,0
5.80722735321615E-06,-1.61832977028098E-05,1.58203125,0,0
5.16308637088514E-06,-1.49701845657546E-05,1.58203125,0,0
4.76803279525484E-06,-1.59124119818443E-05,1.58203125,0,0
4.04693764721742E-06,-1.56899332068861E-05,1.58203125,0,0
3.20586195812211E-06,-1.51541098603047E-05,1.58203125,0,0
2.34595222536882E-06,-1.34928723127814E-05,1.58203125,0,0
2.2456263195636E-06,-1.52529919432709E-05,1.58203125,0,0
1.76764706338872E-06,-1.68553633557167E-05,1.58203125,0,0
8.61625096604257E-07,-1.87261939572636E-05,1.58203125,0,0
-3.33693677134761E-08,-1.8212054783362E-05,1.58203125,0,0
2.87100707652144E-08,-1.66452500707237E-05,1.58203125,0,0
-8.41720648736555E-08,-1.36045000544982E-05,1.58203125,0,0
-4.06993848400816E-07,-1.38573268486653E-05,1.58203125,0,0
-1.15370960429573E-06,-1.55446214193944E-05,1.58203125,0,0
-1.57887416207814E-06,-1.78976788447471E-05,1.58203125,0,0
-2.20443689613603E-06,-1.93982850760221E-05,1.58203125,0,0
-4.10404572903644E-06,-1.90586215467192E-05,1.58203125,0,0
-6.38804249319946E-06,-1.37443867060938E-05,1.58203125,0,0
-1.05502522274037E-05,-1.92903480638051E-05,1.58203125,0,0
-9.15183318284107E-06,-1.50111336552072E-05,1.58203125,0,0
-9.9831977422582E-06,-1.94932290469296E-05,1.58203125,0,0
-7.57352199798333E-06,-1.65131914400263E-05,1.58203125,0,0
-6.62555703456746E-06,-1.94555086636683E-05,1.58203125,0,0
-4.56323869002517E-06,-2.08516903512646E-05,1.58203125,0,0
-4.21957747676061E-06,-2.26353986363392E-05,1.58203125,0,0
-4.99619864058332E-06,-1.97179961105576E-05,1.58203125,0,0
-4.43980843556346E-06,-1.707334376988E-05,1.58203125,0,0
-1.26552401980007E-06,-1.63355471158866E-05,1.58203125,0,0
2.51716983257211E-06,-1.69401409948478E-05,1.58203125,0,0
4.82835685033933E-06,-1.86063098226441E-05,1.58203125,0,0
6.1707346503681E-06,-1.76018620550167E-05,1.58203125,0,0
5.71092732570833E-06,-1.80821152753197E-05,1.58203125,0,0
6.65768902763375E-06,-1.88434714800678E-05,1.58203125,0,0
9.76627779891714E-06,-2.10646285268012E-05,1.58203125,0,0
1.45038593473146E-05,-1.90869559446583E-05,1.58203125,0,0
1.68494334502611E-05,-1.72447380464291E-05,1.58203125,0,0
1.78642167156795E-05,-1.57313206727849E-05,1.58203125,0,0
1.8454104065313E-05,-1.67857342603384E-05,1.58203125,0,0
1.97887184185674E-05,-1.74330962181557E-05,1.58203125,0,0
2.03849212994101E-05,-1.84652617463144E-05,1.58203125,0,0
1.93748201127164E-05,-1.81349332706304E-05,1.58203125,0,0
1.69690047187032E-05,-1.79880644282093E-05,1.58203125,0,0
1.51314015965909E-05,-1.6842590412125E-05,1.58203125,0,0
1.37558763526613E-05,-1.41785430969321E-05,1.58203125,0,0
9.62474223342724E-06,-8.32380464999005E-06,1.58203125,0,0
1.3387671970122E-05,-1.31042470457032E-05,1.58203125,0,0
1.11221952465712E-05,-1.42074304676498E-05,1.58203125,0,0
1.48765302583342E-05,-1.81992509169504E-05,1.58203125,0,0
1.02485728348256E-05,-1.4358455700858E-05,1.58203125,0,0
7.30090414435836E-06,-1.34809606606723E-05,1.58203125,0,0
4.31823218605132E-06,-1.21236344057252E-05,1.58203125,0,0
7.50638673707726E-06,-1.4155268218019E-05,1.58203125,0,0
9.72114958130987E-06,-1.65244400704978E-05,1.58203125,0,0
1.05661565612536E-05,-1.99350761249661E-05,1.58203125,0,0
1.08555395854637E-05,-2.27895834541414E-05,1.58203125,0,0
1.15438715511118E-05,-2.25886979023926E-05,1.58203125,0,0
1.36005646709236E-05,-2.11220340133877E-05,1.58203125,0,0
1.35597547341604E-05,-1.84239415830234E-05,1.58203125,0,0
1.31766364575014E-05,-1.67594662343618E-05,1.58203125,0,0
1.13573105409159E-05,-1.53104210767196E-05,1.58203125,0,0
1.08084159364807E-05,-1.7180762370117E-05,1.58203125,0,0
9.63166075962363E-06,-1.9363747924217E-05,1.58203125,0,0
9.52379195950925E-06,-2.06518088816665E-05,1.58203125,0,0
8.58049315866083E-06,-1.81501745828427E-05,1.58203125,0,0
8.07423293736065E-06,-1.51870108311414E-05,1.58203125,0,0
5.6723893067101E-06,-1.36933103931369E-05,1.58203125,0,0
4.4247462938074E-06,-1.41565051308135E-05,1.58203125,0,0
4.02319392378558E-06,-1.29538602777757E-05,1.58203125,0,0
4.28761995863169E-06,-1.12677980723674E-05,1.58203125,0,0
3.7947013424855E-06,-1.11582994577475E-05,1.58203125,0,0
3.29110685015621E-06,-1.21888842841145E-05,1.58203125,0,0
1.25197061606741E-06,-1.07618352558347E-05,1.58203125,0,0
-1.25675356343891E-07,-1.64650064107263E-05,1.58203125,0,0
-2.96450798487058E-06,-1.45144576890743E-05,1.58203125,0,0
-2.67794189312554E-06,-1.75429340742994E-05,1.58203125,0,0
-1.89896047686489E-06,-1.4755763913854E-05,1.58203125,0,0
-1.60918068559113E-06,-1.58079255925259E-05,1.58203125,0,0
-2.48880337494484E-06,-1.58691418619128E-05,1.58203125,0,0
-2.57709370998782E-06,-1.89344827958848E-05,1.58203125,0,0
-2.49506138061406E-06,-2.01988423214061E-05,1.58203125,0,0
-3.55499923898606E-06,-2.13347902899841E-05,1.58203125,0,0
-5.077296464151E-06,-2.3804768716218E-05,1.58203125,0,0
-5.00863234265125E-06,-2.63956753769889E-05,1.58203125,0,0
-2.39268797486147E-06,-2.87375187326688E-05,1.58203125,0,0
3.16733945737724E-07,-2.86189606413245E-05,1.58203125,0,0
1.05182368770329E-06,-2.76800692518009E-05,1.58203125,0,0
-4.87401450754987E-07,-2.3313228666666E-05,1.58203125,0,0
-2.28279782277241E-06,-1.92605330084916E-05,1.58203125,0,0
-2.16691978494055E-06,-1.56008900376037E-05,1.58203125,0,0
-1.09927441371838E-07,-1.55443849507719E-05,1.58203125,0,0
6.23690993961645E-07,-1.57896429300308E-05,1.58203125,0,0
-1.98485366809109E-07,-1.7678054064163E-05,1.58203125,0,0
-1.79523397036974E-06,-1.94281437870814E-05,1.58203125,0,0
-4.0320251173398E-06,-1.98472789634252E-05,1.58203125,0,0
-4.87535498905345E-06,-1.77745678229257E-05,1.58203125,0,0
-3.71705345969531E-06,-1.55974576045992E-05,1.58203125,0,0
-2.05650462703488E-06,-1.45802132465178E-05,1.58203125,0,0
-9.40709526275896E-07,-1.48956623888807E-05,1.58203125,0,0
-1.75771435806382E-06,-1.10251512523973E-05,1.58203125,0,0
-2.52623135565955E-06,-1.35738227982074E-05,1.58203125,0,0
-2.03509125640267E-06,-8.63628793013049E-06,1.58203125,0,0
-3.06820288642484E-06,-1.38001278173761E-05,1.58203125,0,0
-3.38755376105837E-06,-1.5071810594236E-05,1.58203125,0,0
-4.0479258132109E-06,-2.0445515474421E-05,1.58203125,0,0
-4.60561432191753E-06,-2.03553900064435E-05,1.58203125,0,0
-5.44500744581455E-06,-2.17569304368226E-05,1.58203125,0,0
-5.60170383323566E-06,-2.20694309973624E-05,1.58203125,0,0
-5.44866679774714E-06,-2.21675563807366E-05,1.58203125,0,0
-5.3647731874662E-06,-2.27502514462685E-05,1.58203125,0,0
-5.3733924687549E-06,-2.28547323786188E-05,1.58203125,0,0
-4.15938393416582E-06,-2.28387652896345E-05,1.58203125,0,0
-2.11019732887507E-06,-2.01546299649635E-05,1.58203125,0,0
-4.48397713626036E-07,-1.84139262273675E-05,1.58203125,0,0
1.64446134931495E-06,-1.70898183569079E-05,2.109375,0,0
3.13995747092122E-06,-1.79193266376387E-05,2.109375,0,0
3.24793973049964E-06,-1.6015254004742E-05,2.109375,0,0
1.74225272076001E-06,-1.46899774335907E-05,2.109375,0,0
8.52798905270902E-07,-1.34393494590768E-05,2.109375,0,0
5.67004406093474E-07,-1.39621224661823E-05,2.109375,0,0
3.68274385209588E-07,-1.27614412122057E-05,2.109375,0,0
1.34647919480813E-07,-1.08707081380999E-05,2.109375,0,0
2.75018692263984E-07,-8.69093400979182E-06,2.109375,0,0
7.28512304704054E-07,-9.3235466920305E-06,2.109375,0,0
8.44202247662906E-07,-1.17932368084439E-05,2.109375,0,0
-3.51172388945997E-07,-1.39299090733402E-05,2.109375,0,0
-6.83419443703315E-07,-1.43098368425854E-05,2.109375,0,0
8.76550032558043E-08,-2.24060659093084E-05,2.109375,0,0
1.79826838575536E-06,-1.72938034666004E-05,2.109375,0,0
2.2792164600105E-06,-1.61224979819963E-05,2.109375,0,0
1.46344382301322E-06,-9.52695700107142E-06,2.109375,0,0
-9.64047785600997E-07,-9.80316508503165E-06,2.109375,0,0
-1.64014466008666E-06,-9.07631874724757E-06,2.109375,0,0
-1.1533020369825E-06,-1.08283120425767E-05,2.109375,0,0
7.23738082797354E-07,-1.08459198600031E-05,2.109375,0,0
3.06635911329067E-06,-1.12919615276041E-05,2.109375,0,0
3.82614371119416E-06,-1.25623055282631E-05,2.109375,0,0
3.57307067133661E-06,-1.30785820147139E-05,2.109375,0,0
3.14392218569992E-06,-1.55206180352252E-05,2.109375,0,0
3.44332397617109E-06,-1.94444201042643E-05,2.109375,0,0
3.12258725898573E-06,-2.60469405475305E-05,2.109375,0,0
2.23958545575442E-06,-2.89268664346309E-05,2.109375,0,0
2.58298928201839E-06,-2.86203048744937E-05,2.109375,0,0
4.87495935885818E-06,-2.4112154278555E-05,2.109375,0,0
6.80652010487393E-06,-2.28133540076669E-05,2.109375,0,0
7.04393914929824E-06,-2.27499895117944E-05,2.109375,0,0
5.84680537940585E-06,-2.24513387365732E-05,2.109375,0,0
5.29730959897279E-06,-1.96128985407995E-05,2.109375,0,0
5.67116148886271E-06,-1.62611995619955E-05,2.109375,0,0
4.79008667753078E-06,-1.22928504424635E-05,2.109375,0,0
2.96653934128699E-06,-1.00209972515586E-05,2.109375,0,0
2.46853801399993E-06,-9.29324778553564E-06,2.109375,0,0
2.8573790586961E-06,-1.03448583104182E-05,2.109375,0,0
3.53685391019098E-06,-1.18679754450568E-05,2.109375,0,0
4.11072323913686E-06,-1.77295169123681E-05,2.109375,0,0
9.71305453845162E-08,-1.22988258226542E-05,2.109375,0,0
-4.71493109444054E-07,-1.20953054647543E-05,2.109375,0,0
-3.21755493359888E-07,-1.1067423656641E-05,2.109375,0,0
1.61232139817002E-06,-1.77963211172028E-05,2.109375,0,0
2.2404328774428E-06,-1.99379883270012E-05,2.109375,0,0
2.43762838181283E-06,-1.90205118997255E-05,2.109375,0,0
3.23913036481827E-06,-1.64882385433884E-05,2.109375,0,0
4.78026959171984E-06,-1.50536634464515E-05,2.109375,0,0
6.24190624876064E-06,-1.38677196446224E-05,2.109375,0,0
6.38178607914597E-06,-1.17156814667396E-05,2.109375,0,0
6.53750021228916E-06,-1.06279048850411E-05,2.109375,0,0
6.88845921104075E-06,-9.38703396968776E-06,2.109375,0,0
7.68637801229488E-06,-1.02524336398346E-05,2.109375,0,0
7.3498640631442E-06,-1.08687572719646E-05,2.109375,0,0
7.19699755791225E-06,-1.19308142529917E-05,2.109375,0,0
7.6425785664469E-06,-1.03858064903761E-05,2.109375,0,0
8.00396537670167E-06,-1.09144293674035E-05,2.109375,0,0
7.04756712366361E-06,-1.18033167382237E-05,2.109375,0,0
6.4579799072817E-06,-1.28024539662874E-05,2.109375,0,0
6.58752605886548E-06,-1.18839861897868E-05,2.109375,0,0
7.02951774655958E-06,-1.17173258331604E-05,2.109375,0,0
7.01052567819715E-06,-1.25821661640657E-05,2.109375,0,0
6.50059473628062E-06,-1.46631409734255E-05,2.109375,0,0
5.62761215405772E-06,-1.76900248334277E-05,2.109375,0,0
5.01449494549888E-06,-2.03896343009546E-05,2.109375,0,0
4.62751904706238E-06,-1.72727304743603E-05,2.109375,0,0
6.58027238387149E-06,-2.43313061218942E-05,2.109375,0,0
4.12869712818065E-06,-1.88382036867552E-05,2.109375,0,0
4.9211935220228E-06,-2.47581065195845E-05,2.109375,0,0
3.78095160158409E-06,-2.14306000998477E-05,2.109375,0,0
3.32283343595918E-06,-2.31657813856145E-05,2.109375,0,0
3.33289949594473E-06,-2.09756053664023E-05,2.109375,0,0
4.835187610297E-06,-2.10514717764454E-05,2.109375,0,0
5.77148284719442E-06,-1.88481681107078E-05,2.109375,0,0
6.41147244095919E-06,-1.8330278180656E-05,2.109375,0,0
6.2377816902881E-06,-1.77174151758663E-05,2.109375,0,0
4.6594359446317E-06,-1.66735062521184E-05,2.109375,0,0
2.98615759675158E-06,-1.8634553271113E-05,2.109375,0,0
2.66117763203511E-06,-1.83997835847549E-05,2.109375,0,0
4.19797925133025E-06,-1.72271593328333E-05,2.109375,0,0
4.66834808321437E-06,-1.38584637170425E-05,2.109375,0,0
4.00764429286937E-06,-1.56176938617136E-05,2.109375,0,0
2.89693502963928E-06,-1.71517131093424E-05,2.109375,0,0
3.68093606084585E-06,-1.92303778021596E-05,2.109375,0,0
4.6657487473567E-06,-1.79785984073533E-05,2.109375,0,0
4.31839180237148E-06,-1.75685599970166E-05,2.109375,0,0
2.00560225493973E-06,-1.69651375472313E-05,2.109375,0,0
6.36234744888498E-07,-1.6720819985494E-05,2.109375,0,0
9.97207280306611E-07,-1.49005054481677E-05,2.109375,0,0
3.00115425488912E-06,-1.52818101923913E-05,2.109375,0,0
4.99998077430064E-06,-1.7257592844544E-05,2.109375,0,0
4.46743160864571E-06,-2.27797791012563E-05,2.109375,0,0
2.0487407255132E-06,-2.51903020398458E-05,2.109375,0,0
2.89680315290752E-06,-3.52652932633646E-05,2.109375,0,0
2.97688097816717E-06,-2.2992717276793E-05,2.109375,0,0
3.88073567592073E-06,-2.72144061455037E-05,2.109375,0,0
2.32456068260944E-06,-2.12247214221861E-05,2.109375,0,0
2.91176934297255E-06,-2.11607875826303E-05,2.109375,0,0
3.67299389836262E-06,-1.61977877723984E-05,2.109375,0,0
3.33861407852964E-06,-1.57618305820506E-05,2.109375,0,0
1.65403832852462E-06,-1.43044590004138E-05,2.109375,0,0
-3.58247859821859E-07,-1.3973462046124E-05,2.109375,0,0
-1.13290207082173E-06,-1.33677540361532E-05,2.109375,0,0
-1.32118202600395E-06,-1.05519557109801E-05,2.109375,0,0
-1.56925000283081E-06,-1.02049725683173E-05,2.109375,0,0
-2.52383688348345E-06,-1.05184708445449E-05,2.109375,0,0
-2.20023684960324E-06,-1.46394877447165E-05,2.109375,0,0
-5.83784583341185E-07,-1.48739645737805E-05,2.109375,0,0
1.61031607603945E-06,-1.69268187164562E-05,2.109375,0,0
3.27539214595163E-06,-1.68654587469064E-05,2.109375,0,0
4.54216979051125E-06,-1.86314227903495E-05,2.109375,0,0
3.98892598241218E-06,-1.70515686477302E-05,2.109375,0,0
1.53417283854651E-06,-1.65882229339331E-05,2.109375,0,0
1.22854871165146E-07,-1.52549846461625E-05,2.109375,0,0
1.53066162056348E-06,-1.56338919623522E-05,2.109375,0,0
2.79962296190206E-06,-1.5723144315416E-05,2.109375,0,0
2.50935681833653E-06,-1.64541270351037E-05,2.109375,0,0
1.88835292647127E-06,-1.657472239458E-05,2.109375,0,0
1.5095325807124E-06,-1.57077593030408E-05,2.109375,0,0
2.04774005396757E-06,-1.3534501704271E-05,2.109375,0,0
3.68564769814839E-06,-2.09415775316302E-05,2.109375,0,0
4.37636981587275E-06,-1.78372374648461E-05,2.109375,0,0
5.39777738595149E-06,-2.04844636755297E-05,2.109375,0,0
4.20946889789775E-06,-1.61649459187174E-05,2.109375,0,0
2.81374468613649E-06,-1.64952180057298E-05,2.109375,0,0
3.29155653844282E-07,-1.70316106959945E-05,2.109375,0,0
-6.0086239273005E-07,-1.99550959223416E-05,2.109375,0,0
2.62812903883969E-07,-2.06520471692784E-05,2.109375,0,0
-3.60420386869009E-07,-2.04536809178535E-05,2.109375,0,0
-2.58310001299833E-06,-2.03003091883147E-05,2.109375,0,0
-4.07916377298534E-06,-2.03780709853163E-05,2.109375,0,0
-4.29668443757691E-06,-2.1775895220344E-05,2.109375,0,0
-4.15677959608729E-06,-2.04029274755158E-05,2.109375,0,0
-2.76682703770348E-06,-1.89105358003872E-05,2.109375,0,0
-1.93758410205191E-06,-1.65847595781088E-05,2.109375,0,0
-2.15274212678196E-06,-1.69778631970985E-05,2.109375,0,0
-1.80544952854689E-06,-1.72620166267734E-05,2.109375,0,0
-4.46895853656315E-08,-1.90423779713456E-05,2.109375,0,0
1.13051703465317E-06,-1.90052014659159E-05,2.109375,0,0
1.65020128406468E-06,-1.84152886504307E-05,2.109375,0,0
1.79475046024891E-06,-1.69489449035609E-05,2.109375,0,0
2.35634047385247E-06,-1.73160588019527E-05,2.109375,0,0
3.8803832467238E-06,-1.7288793969783E-05,2.109375,0,0
5.07204458699562E-06,-1.6174193660845E-05,2.109375,0,0
4.60107321487158E-06,-1.49722900459892E-05,2.109375,0,0
3.13309305965959E-06,-1.44368814289919E-05,2.109375,0,0
1.76740297774813E-06,-1.29469644889468E-05,2.109375,0,0
1.86072134056303E-06,-1.9948251065216E-05,2.109375,0,0
1.46671868606063E-06,-1.65690289577469E-05,2.109375,0,0
2.27273767450242E-06,-1.87509758688975E-05,2.109375,0,0
1.07426319573278E-06,-1.62536143761827E-05,2.109375,0,0
1.77692368197313E-06,-1.8606868252391E-05,2.109375,0,0
1.37856909532275E-06,-1.7036598364939E-05,2.109375,0,0
6.28457257789705E-07,-1.58980656124186E-05,2.109375,0,0
2.42784892634518E-07,-1.41823857120471E-05,2.109375,0,0
3.16074391548682E-07,-1.59474675456295E-05,2.109375,0,0
6.50827530535025E-07,-1.78350819624029E-05,2.109375,0,0
1.01225487014744E-06,-1.69742579601007E-05,2.109375,0,0
1.36175799525518E-06,-1.65111541718943E-05,2.109375,0,0
2.92612384100721E-07,-1.46272877827869E-05,2.109375,0,0
-1.81188859471604E-08,-1.30470716612763E-05,2.109375,0,0
6.38820495169057E-07,-1.1297503078822E-05,2.109375,0,0
1.63471997893794E-06,-1.29682912302087E-05,2.109375,0,0
2.17976480598736E-06,-1.27631228679093E-05,3.1640625,0,0
1.79117648713145E-06,-1.25903334264876E-05,3.1640625,0,0
3.42842156442202E-07,-1.31936340039829E-05,3.1640625,0,0
1.76974964460896E-07,-1.65519031725125E-05,3.1640625,0,0
2.82110221405674E-07,-1.89357087947428E-05,3.1640625,0,0
3.41504047263186E-09,-2.12951090361457E-05,3.1640625,0,0
5.60446515862623E-08,-2.215184031229E-05,3.1640625,0,0
1.77085928498855E-06,-2.18447730730986E-05,3.1640625,0,0
5.31772548129084E-06,-2.07388948183507E-05,3.1640625,0,0
7.79978745413246E-06,-2.26199408643879E-05,3.1640625,0,0
6.93521224093274E-06,-2.00064714590553E-05,3.1640625,0,0
1.04036062111845E-05,-2.81906395684928E-05,3.1640625,0,0
9.03654654393904E-06,-2.10395464819158E-05,3.1640625,0,0
1.13443466034369E-05,-2.51009932981106E-05,3.1640625,0,0
9.96403832687065E-06,-1.80829938472016E-05,3.1640625,0,0
1.14547938210308E-05,-1.75534678419353E-05,3.1640625,0,0
1.10175460577011E-05,-1.50478063005721E-05,3.1640625,0,0
1.05540248114266E-05,-1.88363392226165E-05,3.1640625,0,0
9.31087924982421E-06,-2.05007017939352E-05,3.1640625,0,0
8.67887592903571E-06,-2.16831049328903E-05,3.1640625,0,0
8.19107481220271E-06,-2.19164776353864E-05,3.1640625,0,0
7.12025575921871E-06,-2.15705022128532E-05,3.1640625,0,0
6.30424619885162E-06,-2.23585011553951E-05,3.1640625,0,0
4.83376879856223E-06,-2.09466215892462E-05,3.1640625,0,0
3.76731236428896E-06,-2.07610301004024E-05,3.1640625,0,0
2.74077797257632E-06,-1.80724509846186E-05,3.1640625,0,0
3.85626481147483E-06,-1.77428119059186E-05,3.1640625,0,0
5.28069449501345E-06,-1.47896780617884E-05,3.1640625,0,0
6.56869269732852E-06,-1.4969677067711E-05,3.1640625,0,0
5.01738395541906E-06,-1.51071526488522E-05,3.1640625,0,0
2.58663135355164E-06,-1.73246335180011E-05,3.1640625,0,0
-4.10223009339461E-07,-1.68919032148551E-05,3.1640625,0,0
-1.04155287772301E-06,-1.79178841790417E-05,3.1640625,0,0
3.0079922908044E-07,-1.92956667888211E-05,3.1640625,0,0
8.45666420445923E-07,-2.21817990677664E-05,3.1640625,0,0
-5.700089786842E-07,-2.36337054957403E-05,3.1640625,0,0
-1.0659423423931E-06,-2.05361520784209E-05,3.1640625,0,0
-6.60579928535299E-07,-1.33642324726679E-05,3.1640625,0,0
-4.61356933101342E-07,-1.92064853763441E-05,3.1640625,0,0
4.24694349021593E-07,-1.52351703945897E-05,3.1640625,0,0
1.80854431164335E-06,-1.78662085090764E-05,3.1640625,0,0
3.77343098989513E-06,-1.42927574415808E-05,3.1640625,0,0
3.96773339161882E-06,-1.50998839671956E-05,3.1640625,0,0
5.79329071115353E-06,-1.32810637296643E-05,3.1640625,0,0
7.76176784711424E-06,-1.53762739500962E-05,3.1640625,0,0
8.12541384220822E-06,-1.35443206090713E-05,3.1640625,0,0
6.76659965392901E-06,-1.22791989269899E-05,3.1640625,0,0
4.94883579449379E-06,-1.24807338579558E-05,3.1640625,0,0
4.70316444989294E-06,-1.1535984413058E-05,3.1640625,0,0
5.87063004786614E-06,-1.09365919342963E-05,3.1640625,0,0
6.66810274196905E-06,-9.45744159253081E-06,3.1640625,0,0
6.19017237113439E-06,-1.10962482722243E-05,3.1640625,0,0
5.93924642089405E-06,-1.13564274215605E-05,3.1640625,0,0
6.47788237984059E-06,-1.36739299705368E-05,3.1640625,0,0
6.77212801747373E-06,-1.63579225045396E-05,3.1640625,0,0
5.46948831470218E-06,-2.20100919250399E-05,3.1640625,0,0
4.7178145905491E-06,-2.43921822402626E-05,3.1640625,0,0
5.54780581296654E-06,-2.38696957239881E-05,3.1640625,0,0
7.20675370757817E-06,-2.12021113839E-05,3.1640625,0,0
7.66693938203389E-06,-2.04840707738185E-05,3.1640625,0,0
6.15214230492711E-06,-2.03908966796007E-05,3.1640625,0,0
4.16883449361194E-06,-2.22112466872204E-05,3.1640625,0,0
2.58511681749951E-06,-2.59497373917839E-05,3.1640625,0,0
1.27227917801065E-06,-2.97668011626229E-05,3.1640625,0,0
-6.89249304741679E-07,-2.68105450231815E-05,3.1640625,0,0
-1.08814742816321E-06,-4.02359728468582E-05,3.1640625,0,0
3.24359774594996E-07,-3.21008992614225E-05,3.1640625,0,0
1.43975967148435E-06,-3.52899915014859E-05,3.1640625,0,0
1.35642369514244E-06,-2.33779592235805E-05,3.1640625,0,0
1.91536219062982E-06,-2.02295159397181E-05,3.1640625,0,0
2.24014365812764E-06,-1.24261041491991E-05,3.1640625,0,0
2.24036170948239E-06,-1.1720821930794E-05,3.1640625,0,0
2.10176995096845E-06,-1.21145922094001E-05,3.1640625,0,0
1.97650501831959E-06,-1.37888537210529E-05,3.1640625,0,0
2.31561193686503E-06,-1.35296395455953E-05,3.1640625,0,0
2.08073606700054E-06,-1.07665982795879E-05,3.1640625,0,0
2.3089437490853E-06,-1.03776028481661E-05,3.1640625,0,0
2.42934197558498E-06,-8.28379597805906E-06,3.1640625,0,0
6.68644304369082E-07,-9.65911203820724E-06,3.1640625,0,0
-1.95255461221677E-06,-9.20332422538195E-06,3.1640625,0,0
-3.66932340511994E-06,-1.16259416245157E-05,3.1640625,0,0
-3.46230831382854E-06,-1.16288510980667E-05,3.1640625,0,0
-1.85117119144707E-06,-1.39081630550209E-05,3.1640625,0,0
-1.60155821049557E-07,-1.25367150758393E-05,3.1640625,0,0
7.50897925172467E-07,-1.35396203404525E-05,3.1640625,0,0
1.61040716761818E-07,-1.4076751540415E-05,3.1640625,0,0
-1.58373723024852E-06,-1.57755221152911E-05,3.1640625,0,0
-2.54105248131964E-06,-1.6204839994316E-05,3.1640625,0,0
-3.11068265546055E-06,-1.65633737196913E-05,3.1640625,0,0
-2.88502883449837E-06,-1.58477705554105E-05,3.1640625,0,0
-1.93121468328172E-06,-1.46296843013261E-05,3.1640625,0,0
-1.77286676716903E-06,-1.16248356789583E-05,3.1640625,0,0
-1.98531620299036E-06,-1.66585632541683E-05,3.1640625,0,0
-1.53905023125844E-06,-1.27180437630159E-05,3.1640625,0,0
-3.31855630975042E-06,-1.49897841765778E-05,3.1640625,0,0
-2.67551831711899E-06,-1.35632490128046E-05,3.1640625,0,0
-1.15961427127331E-06,-1.56355636136141E-05,3.1640625,0,0
1.97467170437449E-06,-1.30509661175893E-05,3.1640625,0,0
4.58704380434938E-06,-1.25008391478332E-05,3.1640625,0,0
5.16739646627684E-06,-1.30775551951956E-05,3.1640625,0,0
5.61124443265726E-06,-1.66200152307283E-05,3.1640625,0,0
5.85146790399449E-06,-1.99022397282533E-05,3.1640625,0,0
6.14937562204432E-06,-1.89416659850394E-05,3.1640625,0,0
6.57509372103959E-06,-1.65155179274734E-05,3.1640625,0,0
6.63423770674854E-06,-1.38790073833661E-05,3.1640625,0,0
6.2470139710058E-06,-1.35291211336153E-05,3.1640625,0,0
6.2216226979217E-06,-1.24672033052775E-05,3.1640625,0,0
5.53416703041876E-06,-1.37031811391353E-05,3.1640625,0,0
4.82442737848032E-06,-1.37875076688942E-05,3.1640625,0,0
4.54882911071763E-06,-1.46981838042848E-05,3.1640625,0,0
4.87323131892481E-06,-1.54295521497261E-05,3.1640625,0,0
5.05598245581496E-06,-1.74946235347306E-05,3.1640625,0,0
4.06212302550557E-06,-1.76034100149991E-05,3.1640625,0,0
2.74788590104436E-06,-1.7714564819471E-05,3.1640625,0,0
3.68156861441094E-06,-1.8201615603175E-05,3.1640625,0,0
5.09680012328317E-06,-1.93240884982515E-05,3.1640625,0,0
4.67612335341983E-06,-2.08160472539021E-05,3.1640625,0,0
4.56872385257157E-06,-2.25739895540755E-05,3.1640625,0,0
4.88568548462354E-06,-1.72809905052418E-05,3.1640625,0,0
8.16522333479952E-06,-2.14300107472809E-05,3.1640625,0,0
6.88646605340182E-06,-1.24958287415211E-05,3.1640625,0,0
6.81029996485449E-06,-1.81268533196999E-05,3.1640625,0,0
3.50223285749962E-06,-1.59584160428494E-05,3.1640625,0,0
1.59938304022944E-06,-1.99499081645627E-05,3.1640625,0,0
3.40603804716011E-07,-1.81173872988438E-05,3.1640625,0,0
7.11365316874435E-07,-1.88727753993589E-05,3.1640625,0,0
1.5210101764751E-06,-1.84570853889454E-05,3.1640625,0,0
2.85165583591152E-06,-1.89055790542625E-05,3.1640625,0,0
2.91292894871731E-06,-2.07785178645281E-05,3.1640625,0,0
9.23680147479899E-07,-2.33557238971116E-05,3.1640625,0,0
7.97408574726433E-08,-2.72215838776901E-05,3.1640625,0,0
6.32885303275543E-07,-2.65830585703952E-05,3.1640625,0,0
1.66362087838934E-06,-2.5306335373898E-05,3.1640625,0,0
1.52680911469361E-06,-2.19485536945285E-05,3.1640625,0,0
1.26962254398677E-06,-2.15805903280852E-05,3.1640625,0,0
2.14942417642305E-07,-1.97083663806552E-05,3.1640625,0,0
-1.11808510894207E-07,-2.08079800358973E-05,3.1640625,0,0
5.52083783134094E-08,-2.01644306798698E-05,3.1640625,0,0
1.2888362377339E-08,-1.9067139874096E-05,3.1640625,0,0
-1.2989759170523E-06,-1.69054583238903E-05,3.1640625,0,0
-2.65959602074872E-06,-1.65426990861306E-05,3.1640625,0,0
-2.65582821157295E-06,-1.60320887516718E-05,3.1640625,0,0
-1.15914122034155E-06,-1.58913717314135E-05,3.1640625,0,0
-2.12668265220373E-08,-1.4857931091683E-05,3.1640625,0,0
1.05031824659818E-06,-1.36188300530193E-05,3.1640625,0,0
8.2239614584978E-07,-1.20229506137548E-05,3.1640625,0,0
7.61973808494076E-07,-1.92217921721749E-05,3.1640625,0,0
8.22236756903294E-07,-1.60137387865689E-05,3.1640625,0,0
1.76801120232994E-06,-1.71896972460672E-05,3.1640625,0,0
-4.18647402966599E-07,-1.39507183121168E-05,3.1640625,0,0
-2.59838748206676E-06,-1.5267794879037E-05,3.1640625,0,0
-2.27326813728723E-06,-1.56325459101936E-05,3.1640625,0,0
-9.58546934270998E-07,-1.81941541086417E-05,3.1640625,0,0
1.02464760232124E-07,-1.79828311956953E-05,3.1640625,0,0
8.88350996319787E-07,-1.47818891491625E-05,3.1640625,0,0
1.53515964029793E-06,-1.23623722174671E-05,3.1640625,0,0
1.3581092161985E-06,-1.09254051494645E-05,3.1640625,0,0
5.31611703991075E-07,-1.15662314783549E-05,3.1640625,0,0
2.34154541089993E-07,-1.20199056254933E-05,3.1640625,0,0
6.72538760682073E-07,-1.42324361149804E-05,3.1640625,0,0
1.20309778139926E-06,-1.53672954184003E-05,3.1640625,0,0
1.5912877415758E-06,-1.66010831890162E-05,3.1640625,0,0
2.20861693378538E-06,-1.57400827447418E-05,3.1640625,0,0
2.85288319901156E-06,-1.56985315697966E-05,3.1640625,0,0
2.73006935458397E-06,-1.47129139804747E-05,3.1640625,0,0
2.85758255813562E-06,-1.45182666528854E-05,3.1640625,0,0
4.76214700029232E-06,-1.49405041156569E-05,3.1640625,0,0
7.32704165784526E-06,-1.57701633725083E-05,3.1640625,0,0
8.55299367685802E-06,-1.55702382471645E-05,3.1640625,0,0
9.16324734134832E-06,-1.51563381223241E-05,3.1640625,0,0
8.84540713741444E-06,-1.52604425238678E-05,3.1640625,0,0
8.92849493538961E-06,-1.55624802573584E-05,3.1640625,0,0
8.42607187223621E-06,-1.23844420159003E-05,3.1640625,0,0
1.22749524962273E-05,-1.64313805726124E-05,3.1640625,0,0
8.88055910763796E-06,-1.06863644759869E-05,3.1640625,0,0
8.92789466888644E-06,-1.53115106513724E-05,3.1640625,0,0
4.03089597966755E-06,-1.60370891535422E-05,3.1640625,0,0
2.94801930067479E-06,-2.04477983061224E-05,3.1640625,0,0
2.63115339294018E-06,-1.90326791198459E-05,3.1640625,0,0
4.94497999170562E-06,-1.86857123480877E-05,3.1640625,0,0
4.26534779762733E-06,-1.86572451639222E-05,3.1640625,0,0
3.20896197081311E-06,-1.93580872291932E-05,3.1640625,0,0
4.3904515223403E-06,-1.94848907995038E-05,3.1640625,0,0
5.04892886965536E-06,-1.77855472429655E-05,3.1640625,0,0
5.08919765707105E-06,-1.80460810952354E-05,3.1640625,0,0
3.54145436176623E-06,-1.86070446943631E-05,3.1640625,0,0
2.20452693611151E-06,-2.11102742468938E-05,3.1640625,0,0
2.19879225937802E-07,-2.30401947192149E-05,3.1640625,0,0
6.55953797945585E-08,-2.55870672845049E-05,3.1640625,0,0
1.79372790398702E-07,-2.52669651672477E-05,3.1640625,0,0
1.03347542790289E-06,-2.64383816102054E-05,3.1640625,0,0
4.37842231804098E-07,-2.70056098088389E-05,3.1640625,0,0
9.25436722809536E-07,-2.69266074610641E-05,3.1640625,0,0
1.6684341517248E-06,-2.51228048000485E-05,3.1640625,0,0
3.31857359014975E-06,-2.43979975493858E-05,3.1640625,0,0
4.33124841947574E-06,-2.36998912441777E-05,3.1640625,0,0
3.77097740056342E-06,-2.28294502448989E-05,3.1640625,0,0
2.51693950303888E-06,-2.00417980522616E-05,3.1640625,0,0
1.90526134247193E-06,-1.72087366081541E-05,3.1640625,0,0
6.99149381944153E-07,-1.38867853820557E-05,3.1640625,0,0
5.55397662083124E-07,-2.07908851734828E-05,3.1640625,0,0
1.06730192328541E-06,-1.61908137670252E-05,3.1640625,0,0
4.93189827466267E-06,-1.93586402019719E-05,3.1640625,0,0
8.25694860395743E-06,-1.820089892135E-05,3.1640625,0,0
7.7373251770041E-06,-2.19466764974641E-05,3.1640625,0,0
4.82348650621134E-06,-2.03460695047397E-05,3.1640625,0,0
1.95574330064119E-06,-1.87315617949935E-05,3.1640625,0,0
8.21510866444441E-07,-1.5845347661525E-05,3.1640625,0,0
1.82385576863453E-06,-1.36388453029213E-05,3.1640625,0,0
1.91207823263539E-06,-1.2455134310585E-05,3.1640625,0,0
1.3229509931989E-06,-1.24897151181358E-05,3.1640625,0,0
1.04853165794339E-06,-1.4593265404983E-05,3.1640625,0,0
8.10468975487311E-07,-1.39852354550385E-05,3.1640625,0,0
1.46134323131264E-06,-1.27159437397495E-05,3.1640625,0,0
2.76865148407524E-06,-1.07175183075015E-05,3.1640625,0,0
3.42456428370497E-06,-1.17065701488173E-05,3.1640625,0,0
2.57995861829841E-06,-1.14975910037174E-05,3.1640625,0,0
2.02274554794712E-06,-1.22718729471671E-05,3.1640625,0,0
2.60228557635855E-06,-1.19155738502741E-05,3.1640625,0,0
3.74130081581825E-06,-1.20916611194843E-05,3.1640625,0,0
4.25424013883458E-06,-1.15991406346438E-05,3.1640625,0,0
4.54699920737767E-06,-1.2980647625227E-05,3.1640625,0,0
5.15911415277515E-06,-1.50219175338862E-05,3.1640625,0,0
7.29445491742808E-06,-1.68079295690404E-05,3.1640625,0,0
1.00519528132281E-05,-1.57326576299965E-05,3.1640625,0,0
1.17277832032414E-05,-1.3696524547413E-05,3.1640625,0,0
9.09021218831185E-06,-1.04930022644112E-05,3.1640625,0,0
1.24724874694948E-05,-1.6207319276873E-05,3.1640625,0,0
1.07300556919654E-05,-1.37785846163752E-05,3.1640625,0,0
1.43068346005748E-05,-1.57752765517216E-05,3.1640625,0,0
1.05801427707775E-05,-1.32821160150343E-05,3.1640625,0,0
9.32690272748005E-06,-1.58382426889148E-05,3.1640625,0,0
4.5303963815968E-06,-1.55112938955426E-05,3.1640625,0,0
2.81367033494462E-06,-1.49887482621125E-05,3.1640625,0,0
1.69197062405146E-06,-1.43605939229019E-05,3.1640625,0,0
1.58887974066602E-06,-1.55163706949679E-05,3.1640625,0,0
7.28614566014585E-07,-1.66049576364458E-05,3.1640625,0,0
-9.23179243272898E-07,-1.56919559231028E-05,3.1640625,0,0
-1.73648504642188E-06,-1.47140699482406E-05,3.1640625,0,0
-2.57543797488324E-06,-1.37334554892732E-05,3.1640625,0,0
-1.33394325985137E-06,-1.31990482259425E-05,3.1640625,0,0
-8.9973207195726E-07,-1.03808479252621E-05,3.1640625,0,0
6.56281883948395E-07,-1.02202538982965E-05,3.1640625,0,0
6.51821153496712E-07,-1.06857150967699E-05,3.1640625,0,0
1.69187967458129E-06,-1.35698483063607E-05,3.1640625,0,0
2.13221460398927E-06,-1.6376594430767E-05,3.1640625,0,0
3.4924748888443E-06,-1.78172431333223E-05,3.1640625,0,0
3.81203631150129E-06,-1.76218400156358E-05,3.1640625,0,0
4.84029715153156E-06,-1.85622411663644E-05,3.1640625,0,0
5.17992248205701E-06,-1.89395886991406E-05,3.1640625,0,0
5.83754990657326E-06,-1.92195730051026E-05,3.1640625,0,0
5.75810508962604E-06,-1.85826138476841E-05,3.1640625,0,0
5.49595370102907E-06,-1.79003909579478E-05,4.39453125,0,0
4.51006053481251E-06,-1.51036538227345E-05,4.39453125,0,0
5.71059490539483E-06,-2.17513334064279E-05,4.39453125,0,0
3.55127394868759E-06,-1.72517538885586E-05,4.39453125,0,0
5.08989796799142E-06,-1.91301351151196E-05,4.39453125,0,0
4.36567643191665E-06,-1.18383786684717E-05,4.39453125,0,0
4.25986127083888E-06,-1.39610110636568E-05,4.39453125,0,0
2.29662123274466E-06,-1.48990602610866E-05,4.39453125,0,0
1.539824665997E-06,-1.56409696501214E-05,4.39453125,0,0
1.26251381971088E-06,-1.43540937642683E-05,4.39453125,0,0
9.27914129533747E-07,-1.62861233548028E-05,4.39453125,0,0
1.26387226373481E-06,-1.86286015377846E-05,4.39453125,0,0
1.58652721893304E-06,-1.8605151126394E-05,4.39453125,0,0
1.95510187950276E-06,-1.89854999916861E-05,4.39453125,0,0
9.48537888234569E-07,-1.68116093846038E-05,4.39453125,0,0
-3.81762589540813E-07,-1.49531351780752E-05,4.39453125,0,0
-1.63253207574598E-06,-1.30232683659415E-05,4.39453125,0,0
-1.50035157275852E-06,-1.45452340802876E-05,4.39453125,0,0
-6.63731327676942E-07,-1.44567929964978E-05,4.39453125,0,0
1.59275521127711E-06,-1.47165292219142E-05,4.39453125,0,0
2.78457400781917E-06,-1.27432203953504E-05,4.39453125,0,0
2.1904568257014E-06,-1.29012205434265E-05,4.39453125,0,0
1.1884560535691E-06,-1.30261905724183E-05,4.39453125,0,0
1.50209427829395E-06,-1.4974141777202E-05,4.39453125,0,0
5.35130880052748E-07,-1.6006815712899E-05,4.39453125,0,0
-3.92323670439509E-07,-1.54393401317066E-05,4.39453125,0,0
6.02381646785943E-07,-1.43516326716053E-05,4.39453125,0,0
2.20671631723235E-06,-1.38735349537455E-05,4.39453125,0,0
3.4150539249822E-06,-1.26905215438455E-05,4.39453125,0,0
6.00931298322394E-06,-1.98067864403129E-05,4.39453125,0,0
5.79711650061654E-06,-1.79397102328949E-05,4.39453125,0,0
6.24831454842933E-06,-2.09149166039424E-05,4.39453125,0,0
4.93250036015525E-06,-1.7468873920734E-05,4.39453125,0,0
3.6036794881511E-06,-1.87791720236419E-05,4.39453125,0,0
1.26286556678679E-06,-1.85428980330471E-05,4.39453125,0,0
4.05755784527173E-08,-2.13407329283655E-05,4.39453125,0,0
1.273976408811E-07,-2.22558246605331E-05,4.39453125,0,0
1.44394357448618E-06,-2.33416521950858E-05,4.39453125,0,0
1.21518087325967E-06,-2.4899311029003E-05,4.39453125,0,0
1.23900392168252E-07,-2.55049963016063E-05,4.39453125,0,0
9.09797847725713E-07,-2.6874446120928E-05,4.39453125,0,0
1.23498818993539E-06,-2.71090375463245E-05,4.39453125,0,0
1.11118504264596E-06,-2.88314950012136E-05,4.39453125,0,0
3.16950746537259E-07,-2.88986357190879E-05,4.39453125,0,0
1.37838345182217E-08,-2.93831872113515E-05,4.39453125,0,0
-4.26098779371387E-07,-2.7289128411212E-05,4.39453125,0,0
-3.37517569448664E-08,-2.5498477043584E-05,4.39453125,0,0
2.21843208692007E-07,-2.29881716222735E-05,4.39453125,0,0
-2.31040473863686E-07,-2.20392157643801E-05,4.39453125,0,0
-1.46015452173742E-06,-1.99712467292557E-05,4.39453125,0,0
-2.41865700445487E-06,-1.86836296052206E-05,4.39453125,0,0
-2.11578662856482E-06,-1.76814282895066E-05,4.39453125,0,0
-9.00147767879389E-07,-1.81705436261836E-05,4.39453125,0,0
1.20723359486874E-06,-1.8070793885272E-05,4.39453125,0,0
3.23231120091805E-06,-1.72485233633779E-05,4.39453125,0,0
3.4062679787894E-06,-1.64834073075326E-05,4.39453125,0,0
4.30879617852042E-06,-2.61652112385491E-05,4.39453125,0,0
2.42099076785962E-06,-2.35127681662561E-05,4.39453125,0,0
3.47524201060878E-06,-2.90119969577063E-05,4.39453125,0,0
3.17933336191345E-06,-2.72532288363436E-05,4.39453125,0,0
4.39297173215891E-06,-2.71466869889991E-05,4.39453125,0,0
4.91534410684835E-06,-2.15577474591555E-05,4.39453125,0,0
4.74965281682671E-06,-2.10477901418926E-05,4.39453125,0,0
3.43638976119109E-06,-2.01766797545133E-05,4.39453125,0,0
2.43109388975427E-06,-1.90374212252209E-05,4.39453125,0,0
1.88857427474431E-06,-1.75259265233763E-05,4.39453125,0,0
1.26348993489955E-06,-1.48114313560654E-05,4.39453125,0,0
2.02255728254386E-06,-1.35348800540669E-05,4.39453125,0,0
2.83161489278427E-06,-1.11413983177044E-05,4.39453125,0,0
2.25916005547333E-06,-1.08165149868E-05,4.39453125,0,0
1.32994443902135E-07,-1.04380105767632E-05,4.39453125,0,0
-6.17930254520616E-07,-1.30226135297562E-05,4.39453125,0,0
4.48080861303879E-08,-1.31188662635395E-05,4.39453125,0,0
1.37537301725388E-06,-1.33461144287139E-05,4.39453125,0,0
2.13220096156874E-06,-1.21776265586959E-05,4.39453125,0,0
2.17073488784081E-06,-1.34923411678756E-05,4.39453125,0,0
3.37945579076404E-07,-1.47458540595835E-05,4.39453125,0,0
-1.10291091459658E-06,-1.55520683620125E-05,4.39453125,0,0
-1.02732246887172E-06,-1.39652020152425E-05,4.39453125,0,0
5.56884629077103E-07,-1.27219082060037E-05,4.39453125,0,0
3.02949592878576E-06,-1.38893301482312E-05,4.39453125,0,0
4.50399420515168E-06,-1.61708740051836E-05,4.39453125,0,0
3.12977476824017E-06,-1.26730592455715E-05,4.39453125,0,0
3.40073984261835E-06,-1.54866320372093E-05,4.39453125,0,0
1.8631877765074E-06,-5.7991724133899E-06,4.39453125,0,0
3.0260789571912E-06,-7.19545914762421E-06,4.39453125,0,0
2.01954412659688E-06,-7.43362170396722E-06,4.39453125,0,0
2.49529148277361E-06,-1.3368337022257E-05,4.39453125,0,0
8.29424891435337E-07,-1.39876792673022E-05,4.39453125,0,0
-6.05436923706293E-07,-1.48713888847851E-05,4.39453125,0,0
-8.22535639599664E-07,-1.65181263582781E-05,4.39453125,0,0
4.28234329774568E-07,-1.9343513486092E-05,4.39453125,0,0
5.7055137858697E-07,-2.07938937819563E-05,4.39453125,0,0
-1.59746787176118E-06,-1.83876436494756E-05,4.39453125,0,0
-2.44783768721391E-06,-1.57231006596703E-05,4.39453125,0,0
-1.93752839550143E-06,-1.22193496281398E-05,4.39453125,0,0
-1.10829478217056E-06,-1.1821512998722E-05,4.39453125,0,0
-9.96665676211705E-07,-1.31195611174917E-05,4.39453125,0,0
-8.56402550653002E-07,-1.68082642630907E-05,4.39453125,0,0
-1.86020827186439E-06,-1.77741185325431E-05,4.39453125,0,0
-2.54690667134128E-06,-1.83012416528072E-05,4.39453125,0,0
-2.75257639259507E-06,-1.75607019627932E-05,4.39453125,0,0
-1.0038952495961E-06,-1.8668761185836E-05,4.39453125,0,0
2.03914714802522E-06,-1.91391354746884E-05,4.39453125,0,0
4.77169714940828E-06,-1.89276197488653E-05,4.39453125,0,0
6.6981137933908E-06,-1.78247173607815E-05,4.39453125,0,0
9.31080467125867E-06,-1.65845649462426E-05,4.39453125,0,0
1.1000849553966E-05,-1.62861633725697E-05,4.39453125,0,0
1.06860070445691E-05,-1.74451470229542E-05,4.39453125,0,0
8.02464001026237E-06,-1.5928777429508E-05,4.39453125,0,0
1.23468817037065E-05,-2.32978982239729E-05,4.39453125,0,0
1.01549012470059E-05,-1.88453595910687E-05,4.39453125,0,0
1.08637495941366E-05,-2.46260387939401E-05,4.39453125,0,0
8.17600630398374E-06,-2.19407684198814E-05,4.39453125,0,0
9.23285824683262E-06,-2.07613811653573E-05,4.39453125,0,0
8.18021999293705E-06,-1.49292891364894E-05,4.39453125,0,0
7.245626875374E-06,-1.22779811135842E-05,4.39453125,0,0
4.47754337074002E-06,-9.72980251390254E-06,4.39453125,0,0
2.10026632885274E-06,-1.13975502245012E-05,4.39453125,0,0
6.04552099048306E-07,-1.5517254723818E-05,4.39453125,0,0
3.74065621144837E-07,-1.72957588802092E-05,4.39453125,0,0
1.31424178562156E-06,-1.7953107089852E-05,4.39453125,0,0
1.17017850698176E-06,-1.8161286789109E-05,4.39453125,0,0
1.78856214461121E-06,-1.99957812583307E-05,4.39453125,0,0
2.54088354267878E-06,-1.8430917407386E-05,4.39453125,0,0
4.42850569015718E-06,-1.82802541530691E-05,4.39453125,0,0
4.95499307362479E-06,-1.7134303561761E-05,4.39453125,0,0
5.94705988987698E-06,-1.74822180269985E-05,4.39453125,0,0
6.19483716945979E-06,-1.58499078679597E-05,4.39453125,0,0
6.36762115391321E-06,-1.50898058564053E-05,4.39453125,0,0
4.70715440314962E-06,-1.50520500028506E-05,4.39453125,0,0
3.95231245420291E-06,-1.77935362444259E-05,4.39453125,0,0
3.71141504729167E-06,-1.84966338565573E-05,4.39453125,0,0
3.23464541907015E-06,-1.73696280398872E-05,4.39453125,0,0
2.14383680940955E-06,-1.51965532495524E-05,4.39453125,0,0
8.55657503961993E-07,-1.44015448313439E-05,4.39453125,0,0
-1.20452909868618E-06,-1.29571881188895E-05,4.39453125,0,0
-1.76058460965578E-06,-2.04642819880974E-05,4.39453125,0,0
-2.98119033459443E-07,-1.86075212695869E-05,4.39453125,0,0
1.54256929363328E-06,-2.32924903684761E-05,4.39453125,0,0
3.36395555677882E-06,-2.24910909309983E-05,4.39453125,0,0
4.13478664995637E-06,-2.51516848948086E-05,4.39453125,0,0
4.65579159936169E-06,-2.64786740444833E-05,4.39453125,0,0
4.04097454520524E-06,-2.92949807771947E-05,4.39453125,0,0
3.68077894563612E-06,-2.56355615420034E-05,4.39453125,0,0
3.14798307954334E-06,-1.97991212189663E-05,4.39453125,0,0
2.13538237403554E-06,-1.66883619385771E-05,4.39453125,0,0
2.00033605324279E-06,-1.59726205311017E-05,4.39453125,0,0
3.11994654111913E-06,-1.73375683516497E-05,4.39453125,0,0
4.58871363662183E-06,-1.7688813386485E-05,4.39453125,0,0
6.01630836172262E-06,-1.83603369805496E-05,4.39453125,0,0
6.78012975185993E-06,-1.7066649888875E-05,4.39453125,0,0
6.08690470471629E-06,-1.70624880411197E-05,4.39453125,0,0
5.4416968851001E-06,-1.61558291438269E-05,4.39453125,0,0
5.68832592762192E-06,-1.67344478541054E-05,4.39453125,0,0
6.03181615588255E-06,-1.53294822666794E-05,4.39453125,0,0
5.81693893764168E-06,-1.44846162584145E-05,4.39453125,0,0
6.58245380691369E-06,-1.37362549139652E-05,4.39453125,0,0
7.55099017624161E-06,-1.52204984260607E-05,4.39453125,0,0
7.2403195190418E-06,-1.70463899848983E-05,4.39453125,0,0
5.00307942274958E-06,-1.7201402442879E-05,4.39453125,0,0
2.56608564086491E-06,-1.59501050802646E-05,4.39453125,0,0
2.02935621018696E-06,-1.53207565745106E-05,4.39453125,0,0
9.34467038860021E-07,-1.26698132589809E-05,4.39453125,0,0
1.37568883928907E-06,-1.85140779649373E-05,4.39453125,0,0
2.52819495472068E-06,-1.49954366861493E-05,4.39453125,0,0
3.45045964422752E-06,-1.76884532265831E-05,4.39453125,0,0
2.5325158858891E-08,-1.35777281684568E-05,4.39453125,0,0
-3.65189885087602E-06,-1.47384971569409E-05,4.39453125,0,0
-5.73414536120254E-06,-1.36740627567633E-05,4.39453125,0,0
-4.76932655146811E-06,-1.41410164360423E-05,4.39453125,0,0
-3.18912111652025E-06,-1.27838529806468E-05,4.39453125,0,0
-1.93795472114289E-06,-1.23473555504461E-05,4.39453125,0,0
-1.13983469418599E-06,-1.36326516440022E-05,4.39453125,0,0
-8.57806412568607E-07,-1.52811171574285E-05,4.39453125,0,0
1.0077214795956E-07,-1.68405222211732E-05,4.39453125,0,0
1.20934714686882E-06,-1.60456711455481E-05,4.39453125,0,0
7.26936548289814E-07,-1.64332868735073E-05,4.39453125,0,0
-5.23372364114039E-07,-1.59279825311387E-05,4.39453125,0,0
-1.25188716992852E-06,-1.78958489414072E-05,4.39453125,0,0
-2.60655701822543E-06,-1.80929491762072E-05,4.39453125,0,0
-3.57178942067549E-06,-1.80290244315984E-05,4.39453125,0,0
-3.60520016329247E-06,-1.72589534486178E-05,4.39453125,0,0
-3.31306569023582E-06,-1.93787054740824E-05,4.39453125,0,0
-2.88859314423462E-06,-1.97122062672861E-05,4.39453125,0,0
-2.22685821427149E-06,-1.77540714503266E-05,4.39453125,0,0
-1.90524292520422E-06,-1.5817342500668E-05,4.39453125,0,0
-1.44834223192447E-06,-1.56442856678041E-05,4.39453125,0,0
-1.08439644463942E-06,-1.49675288412254E-05,4.39453125,0,0
1.13049338779092E-06,-1.45880121635855E-05,4.39453125,0,0
3.67650568477984E-06,-1.1307838576613E-05,4.39453125,0,0
7.32795433577849E-06,-1.47390755955712E-05,4.39453125,0,0
6.02507770963712E-06,-9.5811701612547E-06,4.39453125,0,0
4.26416090704151E-06,-1.23573627206497E-05,4.39453125,0,0
2.66803886006528E-06,-9.86538452707464E-06,4.39453125,0,0
3.89250408261432E-06,-1.18730977192172E-05,4.39453125,0,0
5.85758789384272E-06,-1.08980448203511E-05,4.39453125,0,0
6.88808768245508E-06,-1.29895825011772E-05,4.39453125,0,0
7.0836777013028E-06,-1.54692424985114E-05,4.39453125,0,0
7.08446714270394E-06,-1.85230583156226E-05,4.39453125,0,0
8.15419753052993E-06,-2.13192561204778E-05,4.39453125,0,0
8.2892038335558E-06,-2.1359581296565E-05,4.39453125,0,0
7.15011992724612E-06,-1.95764041563962E-05,4.39453125,0,0
6.04849083174486E-06,-1.54999779624632E-05,4.39453125,0,0
6.15892440691823E-06,-1.31982442326262E-05,4.39453125,0,0
5.9654844335455E-06,-1.03933025457081E-05,4.39453125,0,0
4.56283714811434E-06,-9.92478453554213E-06,4.39453125,0,0
3.11813937514671E-06,-1.06638772194856E-05,4.39453125,0,0
2.73890532298537E-06,-1.38157074616174E-05,4.39453125,0,0
3.47339300788008E-06,-1.33729581648367E-05,4.39453125,0,0
4.77348248750786E-06,-1.19745473057264E-05,4.39453125,0,0
5.42340558240539E-06,-1.17748422781006E-05,4.39453125,0,0
5.59805357625009E-06,-1.26139639178291E-05,4.39453125,0,0
5.0314315558353E-06,-1.08833501144545E-05,4.39453125,0,0
3.18246497954533E-06,-9.68170297710458E-06,4.39453125,0,0
2.37381664192071E-06,-1.01989935501479E-05,4.39453125,0,0
3.81607696908759E-06,-1.14370814117137E-05,4.39453125,0,0
3.66731410395005E-06,-1.10426617538906E-05,4.39453125,0,0
5.23435073773726E-06,-1.72372565430123E-05,4.39453125,0,0
4.22539142164169E-06,-1.48855924635427E-05,4.39453125,0,0
4.37211929238401E-06,-1.78382470039651E-05,4.39453125,0,0
1.50288667555287E-06,-1.74841807165649E-05,4.39453125,0,0
1.05599394828459E-06,-2.12016384466551E-05,4.39453125,0,0
1.0516685051698E-06,-2.17607157537714E-05,4.39453125,0,0
2.06189747586905E-06,-2.23405895667383E-05,4.39453125,0,0
1.95402640201792E-06,-1.95409756997833E-05,4.39453125,0,0
2.1835448933416E-06,-1.6715284800739E-05,4.39453125,0,0
3.11806479658117E-06,-1.60511099238647E-05,4.39453125,0,0
3.85355269827414E-06,-1.6852773114806E-05,4.39453125,0,0
4.99924271935015E-06,-1.82549065357307E-05,4.39453125,0,0
5.42821089766221E-06,-1.85947119462071E-05,4.39453125,0,0
5.32452486368129E-06,-1.99064925254788E-05,4.39453125,0,0
4.48558557764045E-06,-1.94869389815722E-05,4.39453125,0,0
4.46765716333175E-06,-1.96711862372467E-05,4.39453125,0,0
4.21683853346622E-06,-1.75308323377976E-05,4.39453125,0,0
3.97514622818562E-06,-1.70136117958464E-05,4.39453125,0,0
3.06410493067233E-06,-1.79581620614044E-05,4.39453125,0,0
3.60039916813548E-06,-1.95380507648224E-05,4.39453125,0,0
5.13555596626247E-06,-1.85736371349776E-05,4.39453125,0,0
5.97721009398811E-06,-1.72368090716191E-05,4.39453125,0,0
6.14624013905996E-06,-1.51308468048228E-05,4.39453125,0,0
7.38876406103373E-06,-1.37278557303944E-05,4.39453125,0,0
7.45755505704437E-06,-1.32207505885162E-05,4.39453125,0,0
6.12889198237099E-06,-1.35641830638633E-05,4.39453125,0,0
4.90102183903218E-06,-1.18546331577818E-05,4.39453125,0,0
7.22933145880234E-06,-1.78775644599227E-05,4.39453125,0,0
3.79378025172628E-06,-1.46220272654318E-05,4.39453125,0,0
2.01346438188921E-06,-1.75371151271975E-05,4.39453125,0,0
-4.44522747500287E-08,-1.56969144882169E-05,5.80078125,0,0
6.50214985853381E-07,-1.86071374628227E-05,5.80078125,0,0
1.21230527838634E-06,-1.88870035344735E-05,5.80078125,0,0
2.82999872069922E-06,-1.91684412129689E-05,5.80078125,0,0
2.31043395615416E-06,-1.7635264157434E-05,5.80078125,0,0
-6.66441266616857E-08,-1.76995545189129E-05,5.80078125,0,0
-1.67842301834753E-06,-1.95904431166127E-05,5.80078125,0,0
-1.67125324423978E-06,-2.16062126128236E-05,5.80078125,0,0
-7.00341445281083E-07,-2.24969462578883E-05,5.80078125,0,0
-7.9653648299427E-07,-1.89016482181614E-05,5.80078125,0,0
-1.38028121909883E-06,-1.52616157720331E-05,5.80078125,0,0
-2.17819069803227E-06,-1.2915396837343E-05,5.80078125,0,0
-1.46092315844726E-06,-1.49279376273626E-05,5.80078125,0,0
-2.41066349104813E-08,-1.65627297974424E-05,5.80078125,0,0
1.81853090452933E-06,-1.83240426849807E-05,5.80078125,0,0
2.96465441351756E-06,-1.70734019775409E-05,5.80078125,0,0
3.99890950575355E-06,-1.5412806533277E-05,5.80078125,0,0
3.63197591468634E-06,-1.44139485200867E-05,5.80078125,0,0
3.51852622770821E-06,-1.56165988300927E-05,5.80078125,0,0
3.94654080082546E-06,-1.74261167558143E-05,5.80078125,0,0
3.28692817674892E-06,-2.05678188649472E-05,5.80078125,0,0
1.70338830685068E-06,-2.2703519789502E-05,5.80078125,0,0
1.34787069328013E-06,-2.42406968027353E-05,5.80078125,0,0
1.78515995230555E-06,-2.09460740734357E-05,5.80078125,0,0
1.57801764544274E-06,-2.98212635243544E-05,5.80078125,0,0
2.200959130505E-07,-2.3074109776644E-05,5.80078125,0,0
-2.18996760281698E-07,-2.90979442070238E-05,5.80078125,0,0
-3.26496069646964E-06,-2.61345030594384E-05,5.80078125,0,0
-4.81163124277373E-06,-3.21352817991283E-05,5.80078125,0,0
-3.97360554416082E-06,-3.15360593958758E-05,5.80078125,0,0
-6.98332769388799E-07,-3.04666682495736E-05,5.80078125,0,0
1.96194969248609E-06,-2.50829289143439E-05,5.80078125,0,0
2.10845678338956E-06,-2.15446616493864E-05,5.80078125,0,0
1.25694555208611E-06,-2.0517762095551E-05,5.80078125,0,0
1.356805114483E-06,-2.05951146199368E-05,5.80078125,0,0
2.08665846912481E-06,-2.25964631681563E-05,5.80078125,0,0
1.44582702432672E-06,-2.21065693040146E-05,5.80078125,0,0
1.25256269711826E-06,-2.25883286475437E-05,5.80078125,0,0
3.09781489704619E-06,-1.94582335097948E-05,5.80078125,0,0
6.69795599606005E-06,-1.79340513568604E-05,5.80078125,0,0
8.37863899505464E-06,-1.49809584399918E-05,5.80078125,0,0
8.13157384982333E-06,-1.68437345564598E-05,5.80078125,0,0
7.69186499383068E-06,-1.8006052414421E-05,5.80078125,0,0
8.32565001473995E-06,-1.97371173271677E-05,5.80078125,0,0
9.16863973543514E-06,-1.97330391529249E-05,5.80078125,0,0
1.06119578049402E-05,-2.22106391447596E-05,5.80078125,0,0
1.18067000585143E-05,-2.33580976782832E-05,5.80078125,0,0
1.11765230030869E-05,-2.3638482161914E-05,5.80078125,0,0
9.38318225962576E-06,-2.25086041609757E-05,5.80078125,0,0
8.21149478724692E-06,-2.05000360438135E-05,5.80078125,0,0
6.38593655821751E-06,-1.48590333992615E-05,5.80078125,0,0
7.00290092936484E-06,-2.06804215849843E-05,5.80078125,0,0
8.30617409519618E-07,-1.53943365148734E-05,5.80078125,0,0
7.42037229883863E-07,-1.91136023204308E-05,5.80078125,0,0
4.5570010342999E-07,-1.537922071293E-05,5.80078125,0,0
3.17193553200923E-06,-1.63048061949667E-05,5.80078125,0,0
2.95821928375517E-06,-1.40446545628947E-05,5.80078125,0,0
3.41058444064402E-06,-1.41650752993883E-05,5.80078125,0,0
3.0485359729937E-06,-1.25511151054525E-05,5.80078125,0,0
3.14417502522701E-06,-1.23157842608634E-05,5.80078125,0,0
3.84190616387059E-06,-1.17192685138434E-05,5.80078125,0,0
3.94022890759516E-06,-1.01252990134526E-05,5.80078125,0,0
4.55146846434218E-06,-1.03349329947378E-05,5.80078125,0,0
3.53262839780655E-06,-9.2434647740447E-06,5.80078125,0,0
2.86716795017128E-06,-8.31721990834922E-06,5.80078125,0,0
2.03902345674578E-06,-5.73861461816705E-06,5.80078125,0,0
1.92531524589867E-06,-7.67929577705218E-06,5.80078125,0,0
1.04542107237648E-06,-9.56763597059762E-06,5.80078125,0,0
1.42764611155144E-06,-1.14091826617368E-05,5.80078125,0,0
1.33841410843161E-06,-1.03207858046517E-05,5.80078125,0,0
1.09610402887483E-06,-1.1039269338653E-05,5.80078125,0,0
1.23687573250209E-06,-1.18211637527565E-05,5.80078125,0,0
2.43087129092601E-06,-1.43999031934072E-05,5.80078125,0,0
1.93484129340504E-06,-1.81630257429788E-05,5.80078125,0,0
8.05418892468879E-07,-2.38279790210072E-05,5.80078125,0,0
1.01891146186972E-06,-2.81714219454443E-05,5.80078125,0,0
2.91797255158599E-06,-3.01305244647665E-05,5.80078125,0,0
3.8230350583035E-06,-2.3125499865273E-05,5.80078125,0,0
5.1440592869767E-06,-3.01558175124228E-05,5.80078125,0,0
