biceps_emg, triceps_emg, subject_position, position_estimate, brace_position
-1.91282015293837E-05,6.02362388235633E-06,-0.52734375,0,0.00887535063113605
-2.01263756025583E-05,6.91085142534575E-06,-0.52734375,0,0.00887535063113605
-1.99296882783528E-05,5.79166498937411E-06,-0.52734375,0,0.00887535063113605
-2.11110345844645E-05,4.29134524893016E-06,-0.52734375,0,0.00887535063113605
-1.93870073417202E-05,3.05749745166395E-06,-0.52734375,0,0.00887535063113605
-2.01529273908818E-05,4.93132256451645E-06,-0.52734375,0,0.00887535063113605
-2.1036081307102E-05,6.84934821038041E-06,-0.52734375,0,0.00887535063113605
-2.33332593779778E-05,9.19408466870664E-06,-0.52734375,0,0.00887535063113605
-2.25734565901803E-05,1.02174699350144E-05,-0.52734375,0,0.00887535063113605
-2.16864282265306E-05,1.10967202999745E-05,-0.52734375,0,0.00887535063113605
-2.08794481295627E-05,1.19369788080803E-05,-0.52734375,0,0.00887535063113605
-2.13877483474789E-05,1.33602916321252E-05,-0.52734375,0,0.00887535063113605
-2.15843811020022E-05,1.50884316099109E-05,-0.52734375,0,0.00887535063113605
-2.13704988709651E-05,1.58519706019433E-05,-0.52734375,0,0.00887535063113605
-1.71680712810485E-05,1.15670181912719E-05,-0.52734375,0,0.00887535063113605
-2.42374771914911E-05,1.35605896502966E-05,-0.52734375,0,0.00887535063113605
-1.81536561285611E-05,7.44749104342191E-06,-0.52734375,0,0.00887535063113605
-2.38055508816615E-05,1.18421639854205E-05,-0.52734375,0,0.00887535063113605
-2.16456719499547E-05,1.09134989543236E-05,-0.52734375,0,0.00887535063113605
-2.34549097513082E-05,1.50892665260471E-05,-0.52734375,0,0.00887535063113605
-2.1343863409129E-05,1.54678982653422E-05,-0.52734375,0,0.00887535063113605
-2.31889989663614E-05,1.78891659743385E-05,-0.52734375,0,0.00887535063113605
-2.32673446589615E-05,1.88586691365344E-05,-0.52734375,0,0.00887535063113605
-2.31285248446511E-05,1.85969420272158E-05,-0.52734375,0,0.00887535063113605
-2.4176404622267E-05,1.6800950106699E-05,-0.52734375,0,0.00887535063113605
-2.59935968642822E-05,1.44082332553808E-05,-0.52734375,0,0.00887535063113605
-2.93596167466603E-05,1.48095614349586E-05,-0.52734375,0,0.00887535063113605
-2.94519340968691E-05,1.43655533975107E-05,-0.52734375,0,0.00887535063113605
-2.92576751235174E-05,1.38272371259518E-05,-0.52734375,0,0.00887535063113605
-2.63464007730363E-05,1.08753911263193E-05,-0.52734375,0,0.00887535063113605
-2.64149202848785E-05,1.05067520053126E-05,-0.52734375,0,0.00887535063113605
-2.67168834398035E-05,1.10005366877886E-05,-0.52734375,0,0.00887535063113605
-2.90673888230231E-05,1.39809171741945E-05,-0.52734375,0,0.00887535063113605
-2.86495178443147E-05,1.50477935676463E-05,-0.52734375,0,0.00887535063113605
-2.87671755359042E-05,1.54836434376193E-05,-0.52734375,0,0.00887535063113605
-2.81683878711192E-05,1.34594911287422E-05,-0.52734375,0,0.00887535063113605
-2.85145906673279E-05,1.14705926534953E-05,-0.52734375,0,0.00887535063113605
-2.82469263765961E-05,9.71341069089249E-06,-0.52734375,0,0.00887535063113605
-2.81381198874442E-05,8.65262154547963E-06,-0.52734375,0,0.00887535063113605
-2.67923096544109E-05,7.52053529140539E-06,-0.52734375,0,0.00887535063113605
-2.52279332926264E-05,6.65510333419661E-06,-0.52734375,0,0.00887535063113605
-2.02847222681157E-05,5.7510787883075E-06,-0.52734375,0,0.00887535063113605
-2.93611574306851E-05,8.225080819102E-06,-0.52734375,0,0.00887535063113605
-2.31175054068444E-05,6.16661782260053E-06,-0.52734375,0,0.00887535063113605
-2.79129799309885E-05,7.81385188020067E-06,-0.52734375,0,0.00887535063113605
-2.23438946704846E-05,7.60888860895648E-06,-0.52734375,0,0.00887535063113605
-2.38084776356118E-05,9.10573453438701E-06,-0.52734375,0,0.00887535063113605
-2.13957500818651E-05,9.56640815275023E-06,-0.52734375,0,0.00887535063113605
-2.40496610786067E-05,1.00999131973367E-05,-0.52734375,0,0.00887535063113605
-2.52173376793507E-05,1.06128809420625E-05,-0.52734375,0,0.00887535063113605
-2.61505192611367E-05,1.34918545882101E-05,-0.52734375,0,0.00887535063113605
-2.59941480180714E-05,1.64641896844842E-05,-0.52734375,0,0.00887535063113605
-2.42043570324313E-05,1.65186793310568E-05,-0.52734375,0,0.00887535063113605
-2.44023758568801E-05,1.53112596308347E-05,-0.52734375,0,0.00887535063113605
-2.33747177844634E-05,1.44100413308479E-05,-0.52734375,0,0.00887535063113605
-2.44901821133681E-05,1.62601390911732E-05,-0.52734375,0,0.00887535063113605
-2.32241181947757E-05,1.78699756361311E-05,-0.52734375,0,0.00887535063113605
-2.42035966948606E-05,1.73637690750184E-05,-0.52734375,0,0.00887535063113605
-2.29128854698502E-05,1.40302918225643E-05,-0.52734375,0,0.00887535063113605
-2.31044996326091E-05,1.20200220408151E-05,-0.52734375,0,0.00887535063113605
-2.18144105019746E-05,1.18880225272733E-05,-0.52734375,0,0.00887535063113605
-2.34268263739068E-05,1.34528054331895E-05,-0.52734375,0,0.00887535063113605
-2.42939622694394E-05,1.34056363094714E-05,-0.52734375,0,0.00887535063113605
-2.53057078225538E-05,1.17875470095896E-05,-0.52734375,0,0.00887535063113605
-2.37922486121533E-05,1.05933386294055E-05,-0.52734375,0,0.00887535063113605
-2.30003042815952E-05,1.07195592136122E-05,-0.52734375,0,0.00887535063113605
-2.27374785026768E-05,9.42308906815015E-06,-0.52734375,0,0.00887535063113605
-2.28544868150493E-05,7.57660200179089E-06,-0.52734375,0,0.00887535063113605
-1.89323764061555E-05,7.21950391380233E-06,-0.52734375,0,0.00887535063113605
-2.62326193478657E-05,1.1040074241464E-05,-0.52734375,0,0.00887535063113605
-1.90492737601744E-05,9.47480930335587E-06,-0.52734375,0,0.00887535063113605
-2.41270736296428E-05,1.11327717604581E-05,-0.52734375,0,0.00887535063113605
-1.97983044927241E-05,8.67385824676603E-06,-0.52734375,0,0.00887535063113605
-2.20895108213881E-05,8.99059432413196E-06,-0.52734375,0,0.00887535063113605
-2.0932557163178E-05,8.55149755807361E-06,-0.52734375,0,0.00887535063113605
-2.26336742343847E-05,8.22289257484954E-06,-0.52734375,0,0.00887535063113605
-2.19851899601053E-05,7.33180331735639E-06,-0.52734375,0,0.00887535063113605
-2.20852907659719E-05,7.40782843422494E-06,-0.52734375,0,0.00887535063113605
-2.25833136937581E-05,7.95161031419411E-06,-0.52734375,0,0.00887535063113605
-2.17869364860235E-05,8.23149548523361E-06,-0.52734375,0,0.00887535063113605
-2.2437792722485E-05,8.19688011688413E-06,-0.52734375,0,0.00887535063113605
-2.16323205677327E-05,8.0158315540757E-06,-0.52734375,0,0.00887535063113605
-2.27066720981384E-05,8.66206573846284E-06,-0.52734375,0,0.00887535063113605
-2.11192491406109E-05,8.34096044854959E-06,-0.52734375,0,0.00887535063113605
-2.18387340282789E-05,9.16854696697555E-06,-0.52734375,0,0.00887535063113605
-2.20615875150543E-05,9.01294879440684E-06,-0.52734375,0,0.00887535063113605
-2.44897055381443E-05,8.28424799692584E-06,-0.52734375,0,0.00887535063113605
-2.42406222241698E-05,6.84610131429508E-06,-0.52734375,0,0.00887535063113605
-2.50687389780069E-05,6.88529553372064E-06,-0.52734375,0,0.00887535063113605
-2.44189959630603E-05,7.08687275619013E-06,-0.52734375,0,0.00887535063113605
-2.43682206928497E-05,8.8012684500427E-06,-0.52734375,0,0.00887535063113605
-2.32696329476312E-05,9.88832380244276E-06,-0.52734375,0,0.00887535063113605
-2.28829176194267E-05,1.03817201306811E-05,-0.52734375,0,0.00887535063113605
-2.29515062528662E-05,1.17765312097617E-05,-0.52734375,0,0.00887535063113605
-2.26945539907319E-05,1.33583389470004E-05,-0.52734375,0,0.00887535063113605
-1.85271601367276E-05,9.10802282305667E-06,-0.52734375,0,0.00887535063113605
-2.61745717580197E-05,1.07451696749195E-05,-0.52734375,0,0.00887535063113605
-1.91208491742145E-05,7.50685057937517E-06,-0.52734375,0,0.00887535063113605
-2.27013460971648E-05,1.24258776850183E-05,-0.52734375,0,0.00887535063113605
-1.79612507054117E-05,9.88889132713666E-06,-0.52734375,0,0.00887535063113605
-2.12665745493723E-05,1.04913451650646E-05,-0.52734375,0,0.00887535063113605
-2.20887432078598E-05,8.47073079057736E-06,-0.52734375,0,0.00887535063113605
-2.44594702962786E-05,8.54552399687236E-06,-0.52734375,0,0.00887535063113605
-2.26236516027711E-05,8.73671251611086E-06,-0.52734375,0,0.00887535063113605
-2.13377388718072E-05,9.13684016268235E-06,-0.52734375,0,0.00887535063113605
-2.15462478081463E-05,8.9924069470726E-06,-0.52734375,0,0.00887535063113605
-2.18119366763858E-05,7.97350458014989E-06,-0.52734375,0,0.00887535063113605
-2.30117275350494E-05,6.71720044920221E-06,-0.52734375,0,0.00887535063113605
-2.17994092963636E-05,5.07941513205878E-06,-0.52734375,0,0.00887535063113605
-2.26299835048849E-05,6.67379026708659E-06,-0.52734375,0,0.00887535063113605
-2.2351514417096E-05,7.80828759161523E-06,-0.52734375,0,0.00887535063113605
-2.43338854488684E-05,9.39802066568518E-06,-0.52734375,0,0.00887535063113605
-2.32711790886242E-05,9.37195272854296E-06,-0.52734375,0,0.00887535063113605
-2.32196962315356E-05,1.06968100226368E-05,-0.52734375,0,0.00887535063113605
-2.18648092413787E-05,1.17523613880621E-05,-0.52734375,0,0.00887535063113605
-2.24844134208979E-05,1.26005024867482E-05,-0.52734375,0,0.00887535063113605
-2.13810908462619E-05,1.06921916085412E-05,-0.52734375,0,0.00887535063113605
-2.05257201741915E-05,9.58455711952411E-06,-0.52734375,0,0.00887535063113605
-1.9814779079752E-05,7.98600558482576E-06,-0.52734375,0,0.00887535063113605
-2.11366150324466E-05,7.69966845837189E-06,-0.52734375,0,0.00887535063113605
-2.19393314182526E-05,9.85032966127619E-06,-0.52734375,0,0.00887535063113605
-2.15426280192332E-05,1.12714187707752E-05,-0.52734375,0,0.00887535063113605
-1.82603816938354E-05,7.62914169172291E-06,-0.52734375,0,0.00887535063113605
-2.72283195954515E-05,1.01761952464585E-05,-0.52734375,0,0.00887535063113605
-2.14374231291004E-05,7.8127904998837E-06,-0.52734375,0,0.00887535063113605
-2.44878792727832E-05,1.00427869256237E-05,-0.52734375,0,0.00887535063113605
-2.09332356462255E-05,6.7867845245928E-06,-0.52734375,0,0.00887535063113605
-2.51641849899897E-05,8.01918758952525E-06,-0.52734375,0,0.00887535063113605
-2.52434401772916E-05,9.40573590924032E-06,-0.52734375,0,0.00887535063113605
-2.74743688351009E-05,1.14525682874955E-05,-0.52734375,0,0.00887535063113605
-2.70365289907204E-05,1.20862141557154E-05,-0.52734375,0,0.00887535063113605
-2.62998182734009E-05,1.31624747155001E-05,-0.52734375,0,0.00887535063113605
-2.50949651672272E-05,1.45519870784483E-05,-0.52734375,0,0.00887535063113605
-2.33192677114857E-05,1.6298416085192E-05,-0.52734375,0,0.00887535063113605
-2.43614595092367E-05,1.7888392903842E-05,-0.52734375,0,0.00887535063113605
-2.41347024712013E-05,1.67295474966522E-05,-0.52734375,0,0.00887535063113605
-2.46689378400333E-05,1.52371239892091E-05,-0.52734375,0,0.00887535063113605
-2.3317461455008E-05,1.28974270410254E-05,-0.52734375,0,0.00887535063113605
-2.48911892413162E-05,1.22935571198468E-05,-0.52734375,0,0.00887535063113605
-2.51660549110966E-05,1.20934437290998E-05,-0.52734375,0,0.00887535063113605
-2.65406324615469E-05,1.27093344417517E-05,-0.52734375,0,0.00887535063113605
-2.52433419518638E-05,1.22957817438873E-05,-0.52734375,0,0.00887535063113605
-2.56569692282937E-05,1.34028641696204E-05,-0.52734375,0,0.00887535063113605
-2.63450892816763E-05,1.41301497933455E-05,-0.52734375,0,0.00887535063113605
-2.6947156584356E-05,1.4724648281117E-05,-0.52734375,0,0.00887535063113605
-2.44998936977936E-05,1.55448669829639E-05,-0.52734375,0,0.00887535063113605
-2.25805342779495E-05,1.69087779795518E-05,-0.52734375,0,0.00887535063113605
-2.13689272641204E-05,1.66354493558174E-05,-0.52734375,0,0.00887535063113605
-2.12349423236446E-05,1.56889273057459E-05,-0.52734375,0,0.00887535063113605
-1.75731420313241E-05,1.26593004097231E-05,-0.52734375,0,0.00887535063113605
-2.4953180400189E-05,2.03676154342247E-05,-0.52734375,0,0.00887535063113605
-1.95424599951366E-05,1.74005017470336E-05,-0.52734375,0,0.00887535063113605
-2.46696472459007E-05,1.82088879228104E-05,-0.52734375,0,0.00887535063113605
-2.05458072741749E-05,1.47501550600282E-05,-0.52734375,0,0.00887535063113605
-2.28214230446611E-05,1.6473235518788E-05,-0.52734375,0,0.00887535063113605
-2.14971605601022E-05,1.47345435834723E-05,-0.52734375,0,0.00887535063113605
-2.28072094614618E-05,1.42876642712508E-05,-0.52734375,0,0.00887535063113605
-2.25628755288199E-05,1.14880349428859E-05,-0.52734375,0,0.00887535063113605
-2.26775264309254E-05,1.02344756669481E-05,-0.52734375,0,0.00887535063113605
-2.26955198741052E-05,9.35865500650834E-06,-0.52734375,0,0.00887535063113605
-2.20724559767405E-05,5.93805179960327E-06,-0.52734375,0,0.00887535063113605
-2.28286262426991E-05,2.44513489633391E-06,-0.52734375,0,0.00887535063113605
-2.19350749830483E-05,-3.41860982189246E-07,-0.52734375,0,0.00887535063113605
-2.29703964578221E-05,3.14383498789539E-07,-0.52734375,0,0.00887535063113605
-2.20742076635361E-05,5.8451632867218E-07,-0.52734375,0,0.00887535063113605
-2.32811144087464E-05,2.57852570939576E-06,-0.52734375,0,0.00887535063113605
-2.32708789553726E-05,3.46429283126781E-06,-0.52734375,0,0.00887535063113605
-2.52989957516547E-05,4.93133029522141E-06,-0.52734375,0,0.00887535063113605
-2.43460835918086E-05,5.21221954841167E-06,-0.52734375,0,0.00887535063113605
-2.35204097407404E-05,7.16092245056643E-06,-0.52734375,0,0.00887535063113605
-2.23996066779364E-05,7.9778665167396E-06,-0.52734375,0,0.00887535063113605
-2.31738777074497E-05,9.27693417906994E-06,-0.52734375,0,0.00887535063113605
-2.26922074944014E-05,9.72911766439211E-06,-0.52734375,0,0.00887535063113605
-2.28142907872098E-05,1.01298537629191E-05,-0.52734375,0,0.00887535063113605
-2.32728380069602E-05,1.23825557238888E-05,-0.52734375,0,0.00887535063113605
-2.24509676627349E-05,1.51162385009229E-05,-0.52734375,0,0.00887535063113605
-1.75695058715064E-05,1.29361023937236E-05,-0.52734375,0,0.00887535063113605
-2.65360285993665E-05,1.57492322614416E-05,-0.52734375,0,0.00887535063113605
-2.22067665163195E-05,7.29032763047144E-06,-0.52734375,0,0.00887535063113605
-2.67967352556298E-05,9.85478891379898E-06,-0.52734375,0,0.00887535063113605
-2.30324676522287E-05,7.92894752521534E-06,-0.52734375,0,0.00887535063113605
-2.58818981819786E-05,1.04896198536153E-05,-0.52734375,0,0.00887535063113605
-2.5353077944601E-05,9.0081557573285E-06,-0.52734375,0,0.00887535063113605
-2.67371415247908E-05,9.63113052421249E-06,-0.52734375,0,0.00887535063113605
-2.62073499470716E-05,9.94537822407437E-06,-0.52734375,0,0.00887535063113605
-2.63971760432469E-05,9.42135375225917E-06,-0.52734375,0,0.00887535063113605
-2.6376315872767E-05,8.35139326227363E-06,-0.52734375,0,0.00887535063113605
-2.5442994228797E-05,7.12575229044887E-06,-0.52734375,0,0.00887535063113605
-2.57700285146711E-05,7.45558963899384E-06,-0.52734375,0,0.00887535063113605
-2.45032661041478E-05,7.6248270488577E-06,-0.52734375,0,0.00887535063113605
-2.59549688053085E-05,1.06164943645126E-05,-0.52734375,0,0.00887535063113605
-2.66934312094236E-05,1.12756843009265E-05,-0.52734375,0,0.00887535063113605
-2.91025899059605E-05,1.07006162579637E-05,-0.52734375,0,0.00887535063113605
-2.88450173684396E-05,7.2065636231855E-06,-0.52734375,0,0.00887535063113605
-2.93058383249445E-05,4.97101109431242E-06,-0.52734375,0,0.00887535063113605
-2.80184249277227E-05,3.16832029056968E-06,-0.52734375,0,0.00887535063113605
-2.77480230579386E-05,5.26196436112514E-06,-0.52734375,0,0.00887535063113605
-2.59719927271362E-05,6.89173521095654E-06,-0.52734375,0,0.00887535063113605
-2.53593425441068E-05,7.8578304965049E-06,-0.52734375,0,0.00887535063113605
-2.53766247624299E-05,7.85601696406957E-06,-0.52734375,0,0.00887535063113605
-2.54841943387873E-05,9.63134607445681E-06,-0.52734375,0,0.00887535063113605
-2.43284484895412E-05,1.23506179079413E-05,-0.52734375,0,0.00887535063113605
-2.41552406805567E-05,1.29056616060552E-05,-0.52734375,0,0.00887535063113605
-1.89279489859473E-05,9.39537858357653E-06,-0.52734375,0,0.00887535063113605
-2.76861992460908E-05,1.34845822685747E-05,-0.52734375,0,0.00887535063113605
-2.2658165107714E-05,1.0492133696971E-05,-0.52734375,0,0.00887535063113605
-2.76846949418541E-05,1.37378056024318E-05,-0.52734375,0,0.00887535063113605
-2.31607773457654E-05,1.28020346892299E-05,-0.52734375,0,0.00887535063113605
-2.59456701314775E-05,1.46750144267571E-05,-0.52734375,0,0.00887535063113605
-2.494683394616E-05,1.43543329613749E-05,-0.52734375,0,0.00887535063113605
-2.63957172137452E-05,1.39585663418984E-05,-0.52734375,0,0.00887535063113605
-2.45613045990467E-05,1.17395602501347E-05,-0.52734375,0,0.00887535063113605
-2.38350658037234E-05,1.18856269182288E-05,-0.52734375,0,0.00887535063113605
-2.44828297581989E-05,1.31546394186444E-05,-0.52734375,0,0.00887535063113605
-2.50929497269681E-05,1.42466715260525E-05,-0.52734375,0,0.00887535063113605
-2.62941721302923E-05,1.48168301166152E-05,-0.52734375,0,0.00887535063113605
-2.51924229814904E-05,1.25940996440477E-05,-0.52734375,0,0.00887535063113605
-2.61329478234984E-05,1.21274624689249E-05,-0.52734375,0,0.00887535063113605
-2.47515799856046E-05,1.22022011055378E-05,-0.52734375,0,0.00887535063113605
-2.52594181802124E-05,1.23971403809264E-05,-0.52734375,0,0.00887535063113605
-2.41293364524608E-05,1.00525421657949E-05,-0.52734375,0,0.00887535063113605
-2.51643668889301E-05,9.74793692876119E-06,-0.52734375,0,0.00887535063113605
-2.37603071582271E-05,1.02675248854212E-05,-0.52734375,0,0.00887535063113605
-2.30872410611482E-05,1.0942249900836E-05,-0.52734375,0,0.00887535063113605
-2.17461983993417E-05,1.02264730230672E-05,-0.52734375,0,0.00887535063113605
-2.2118611013866E-05,1.08678705146303E-05,-0.52734375,0,0.00887535063113605
-2.0558713003993E-05,1.22918881970691E-05,-0.52734375,0,0.00887535063113605
-1.96482069441117E-05,1.32259638121468E-05,-0.52734375,0,0.00887535063113605
-2.0373097868287E-05,1.22949513752246E-05,-0.52734375,0,0.00887535063113605
-2.17137785512023E-05,1.10063556348905E-05,-0.52734375,0,0.00887535063113605
-1.70267303474247E-05,8.99524184205802E-06,-0.52734375,0,0.00887535063113605
-2.28664648602717E-05,1.30248108689557E-05,-0.52734375,0,0.00887535063113605
-1.6914498701226E-05,9.74692829913693E-06,-0.52734375,0,0.00887535063113605
-2.3466434868169E-05,1.28115916595561E-05,-0.52734375,0,0.00887535063113605
-2.02818137040595E-05,1.27616949612275E-05,-0.52734375,0,0.00887535063113605
-2.24100476771127E-05,1.48368444570224E-05,-0.52734375,0,0.00887535063113605
-2.15123127418337E-05,1.41241998790065E-05,-0.52734375,0,0.00887535063113605
-2.3012753445073E-05,1.37698789330898E-05,-0.52734375,0,0.00887535063113605
-2.21980481001083E-05,1.30919470393565E-05,-0.52734375,0,0.00887535063113605
-2.22971866605803E-05,1.24247926578391E-05,-0.52734375,0,0.00887535063113605
-2.28607950703008E-05,1.16293604150997E-05,-0.52734375,0,0.00887535063113605
-2.35866191360401E-05,1.19204369184445E-05,-0.52734375,0,0.00887535063113605
-2.54066853813129E-05,1.43354345709668E-05,-0.52734375,0,0.00887535063113605
-2.3934166165418E-05,1.46152478919248E-05,-0.52734375,0,0.00887535063113605
-2.34473864111351E-05,1.24999314721208E-05,-0.52734375,0,0.00887535063113605
-2.18984750972595E-05,9.02124520507641E-06,-0.52734375,0,0.00887535063113605
-2.30129662668332E-05,7.67626352171646E-06,-0.52734375,0,0.00887535063113605
-2.2365838958649E-05,6.44626197754405E-06,-0.52734375,0,0.00887535063113605
-2.36733485508012E-05,7.20975549484137E-06,-0.52734375,0,0.00887535063113605
-2.34204653679626E-05,7.95865526015405E-06,-0.52734375,0,0.00887535063113605
-2.47572097578086E-05,8.34776255942415E-06,-0.52734375,0,0.00887535063113605
-2.55866489169421E-05,6.93241463523009E-06,-0.52734375,0,0.00887535063113605
-2.71836761385202E-05,6.73596105116303E-06,-0.52734375,0,0.00887535063113605
-2.6219224309898E-05,6.2141061789589E-06,-0.52734375,0,0.00887535063113605
-2.52026438829489E-05,5.32309741174686E-06,-0.52734375,0,0.00887535063113605
-2.55370669037802E-05,6.12730400462169E-06,-0.52734375,0,0.00887535063113605
-2.62055291386787E-05,7.45757415643311E-06,-0.52734375,0,0.00887535063113605
-2.15162253880408E-05,7.22258073437843E-06,-0.52734375,0,0.00887535063113605
-3.00429855997209E-05,1.02477033578907E-05,-0.52734375,0,0.00887535063113605
-2.17880642594537E-05,8.8393353507854E-06,-0.52734375,0,0.00887535063113605
-2.61734803643776E-05,1.18349771582871E-05,-0.52734375,0,0.00887535063113605
-2.06610202440061E-05,1.1247165275563E-05,-0.52734375,0,0.00887535063113605
-2.41840625676559E-05,1.28224219224649E-05,-0.52734375,0,0.00887535063113605
-2.27090913540451E-05,1.07027517515235E-05,-0.52734375,0,0.00887535063113605
-2.36074338317849E-05,9.27870405575959E-06,-0.52734375,0,0.00887535063113605
-2.23441456910223E-05,7.31659429220599E-06,-0.52734375,0,0.00887535063113605
-2.27870496019023E-05,6.73121667205123E-06,-0.52734375,0,0.00887535063113605
-2.38140310102608E-05,7.4542103902786E-06,-0.52734375,0,0.00887535063113605
-2.27475393330678E-05,7.71865961723961E-06,-0.52734375,0,0.00887535063113605
-2.27156106120674E-05,9.32176772039384E-06,-0.52734375,0,0.00887535063113605
-2.12957311305217E-05,1.11072122308542E-05,-0.52734375,0,0.00887535063113605
-2.33360788115533E-05,1.29243107949151E-05,-0.52734375,0,0.00887535063113605
-2.32853763009189E-05,1.21627599583007E-05,-0.52734375,0,0.00887535063113605
-2.46870276896516E-05,1.15109669422964E-05,-0.52734375,0,0.00887535063113605
-2.30163313972298E-05,1.09975471787038E-05,-0.52734375,0,0.00887535063113605
-2.34644103329629E-05,1.24132602650207E-05,-0.52734375,0,0.00887535063113605
-2.20793608605163E-05,1.31236602101126E-05,-0.52734375,0,0.00887535063113605
-2.25819821935147E-05,1.33937846840126E-05,-0.52734375,0,0.00887535063113605
-2.18174409383209E-05,1.1718559107976E-05,-0.52734375,0,0.00887535063113605
-2.25102867261739E-05,1.03281945484923E-05,-0.52734375,0,0.00887535063113605
-2.27758173423354E-05,8.29542659630533E-06,-0.52734375,0,0.00887535063113605
-2.45600967900828E-05,7.16354543328634E-06,-0.52734375,0,0.00887535063113605
-2.57247702393215E-05,8.47679530124879E-06,-0.52734375,0,0.00887535063113605
-2.54559527093079E-05,1.0252615538775E-05,-0.52734375,0,0.00887535063113605
-1.91976960195461E-05,8.57475424709264E-06,-0.52734375,0,0.00887535063113605
-2.6102772608283E-05,1.17995705295471E-05,-0.52734375,0,0.00887535063113605
-1.79372309503378E-05,8.96967776498059E-06,-0.52734375,0,0.00887535063113605
-2.16276694118278E-05,1.14959848360741E-05,-0.52734375,0,0.00887535063113605
-1.5862688087509E-05,9.94083075056551E-06,-0.52734375,0,0.00887535063113605
-1.87981077033328E-05,1.3433569620247E-05,-0.52734375,0,0.00887535063113605
-1.87986079254188E-05,1.39085614137002E-05,-0.52734375,0,0.00887535063113605
-2.16291664401069E-05,1.28415695144213E-05,-0.52734375,0,0.00887535063113605
-2.16171411011601E-05,1.15079456008971E-05,-0.52734375,0,0.00887535063113605
-2.16525313589955E-05,1.28771271192818E-05,-0.52734375,0,0.00887535063113605
-2.20639249164378E-05,1.44326140798512E-05,-0.52734375,0,0.00887535063113605
-2.19552857743111E-05,1.39306312121334E-05,-0.52734375,0,0.00887535063113605
-2.31139711104333E-05,1.36521939566592E-05,-0.52734375,0,0.00887535063113605
-2.1727719285991E-05,1.3027954082645E-05,-0.52734375,0,0.00887535063113605
-2.20642523345305E-05,1.38316627271706E-05,-0.52734375,0,0.00887535063113605
-2.090412817779E-05,1.4504355021927E-05,-0.52734375,0,0.00887535063113605
-2.21554455492878E-05,1.62393480422907E-05,-0.52734375,0,0.00887535063113605
-2.12322902370943E-05,1.54820936586475E-05,-0.52734375,0,0.00887535063113605
-2.273820064147E-05,1.42488570418209E-05,-0.52734375,0,0.00887535063113605
-2.35679708566749E-05,1.26390123114106E-05,-0.52734375,0,0.00887535063113605
-2.56215134868398E-05,1.18784273581696E-05,-0.52734375,0,0.00887535063113605
-2.49405802605907E-05,1.04195987660205E-05,-0.52734375,0,0.00887535063113605
-2.45925366471056E-05,1.03737756944611E-05,-0.52734375,0,0.00887535063113605
-2.406858948234E-05,1.11980052679428E-05,-0.52734375,0,0.00887535063113605
-2.49265722231939E-05,1.17483623398584E-05,-0.52734375,0,0.00887535063113605
-2.54526657954557E-05,1.1613333299465E-05,-0.52734375,0,0.00887535063113605
-2.58165327977622E-05,1.16851342681912E-05,-0.52734375,0,0.00887535063113605
-2.19309458771022E-05,8.04043247626396E-06,-0.52734375,0,0.00887535063113605
-3.11429757857695E-05,1.1148477824463E-05,-0.52734375,0,0.00887535063113605
-2.3506849174737E-05,8.70392614160664E-06,-0.52734375,0,0.00887535063113605
-2.90431889879983E-05,1.0123098945769E-05,-0.52734375,0,0.00887535063113605
-2.41937923419755E-05,6.88032241669134E-06,-0.52734375,0,0.00887535063113605
-2.69856227532728E-05,7.80444861447904E-06,-0.52734375,0,0.00887535063113605
-2.53951966442401E-05,7.92019454820547E-06,-0.52734375,0,0.00887535063113605
-2.63182828348363E-05,1.02364019767265E-05,-0.52734375,0,0.00887535063113605
-2.45065057242755E-05,1.02182375485427E-05,-0.52734375,0,0.00887535063113605
-2.45531700784341E-05,9.5559289547964E-06,-0.52734375,0,0.00887535063113605
-2.53750949923415E-05,9.93538105831249E-06,-0.52734375,0,0.00887535063113605
-2.54261012742063E-05,9.86841041594744E-06,-0.52734375,0,0.00887535063113605
-2.70988566626329E-05,8.82969288795721E-06,-0.52734375,0,0.00887535063113605
-2.57825413427781E-05,7.69764847063925E-06,-0.52734375,0,0.00887535063113605
-2.5773530069273E-05,9.66310199146392E-06,-0.52734375,0,0.00887535063113605
-2.39966393564828E-05,1.0604111594148E-05,-0.52734375,0,0.00887535063113605
-2.58848449448124E-05,1.05382623587502E-05,-0.52734375,0,0.00887535063113605
-2.53559464908903E-05,9.54494407778839E-06,-0.52734375,0,0.00887535063113605
-2.60244196397252E-05,1.07674995888374E-05,-0.52734375,0,0.00887535063113605
-2.44796956394566E-05,1.14142885649926E-05,-0.52734375,0,0.00887535063113605
-2.47885309363483E-05,1.16373321361607E-05,-0.52734375,0,0.00887535063113605
-2.38295724557247E-05,9.68262156675337E-06,-0.52734375,0,0.00887535063113605
-2.47247207880719E-05,9.10402377485298E-06,-0.52734375,0,0.00887535063113605
-2.48976994043915E-05,9.28689860302256E-06,-0.52734375,0,0.00887535063113605
-2.53579746640753E-05,9.88302963378374E-06,-0.52734375,0,0.00887535063113605
-2.50255343416939E-05,1.04815471786424E-05,-0.52734375,0,0.00887535063113605
-2.43546546698781E-05,9.59254975896329E-06,-0.52734375,0,0.00887535063113605
-2.03046129172435E-05,7.08831794327125E-06,-0.52734375,0,0.00887535063113605
-2.85504447674612E-05,1.11063045551418E-05,-0.52734375,0,0.00887535063113605
-2.12358081626007E-05,1.14824224510812E-05,-0.52734375,0,0.00887535063113605
-2.65881844825344E-05,1.42532708196086E-05,-0.52734375,0,0.00887535063113605
-2.14863794099074E-05,1.10980809040484E-05,-0.52734375,0,0.00887535063113605
-2.25680178118637E-05,9.36924880079459E-06,-0.52734375,0,0.00887535063113605
-2.16855878534261E-05,5.5781242735975E-06,-0.52734375,0,0.00887535063113605
-2.58626714639831E-05,4.74343278256129E-06,-0.52734375,0,0.00887535063113605
-2.65302987827454E-05,5.36720244781463E-06,-0.52734375,0,0.00887535063113605
-2.5474158974248E-05,7.17942111805314E-06,-0.52734375,0,0.00887535063113605
-2.44556686084252E-05,7.81091875978746E-06,-0.52734375,0,0.00887535063113605
-2.32999864238082E-05,7.23570565241971E-06,-0.52734375,0,0.00887535063113605
-2.41874113271479E-05,7.93507024354767E-06,-0.52734375,0,0.00887535063113605
-2.43338545260485E-05,8.53824349178467E-06,-0.52734375,0,0.00887535063113605
-2.67364557657856E-05,9.44206203712383E-06,-0.52734375,0,0.00887535063113605
-2.54940478043864E-05,8.28957126941532E-06,-0.52734375,0,0.00887535063113605
-2.54718997894088E-05,7.05481170371058E-06,-0.52734375,0,0.00887535063113605
-2.3950055037858E-05,5.48094521946041E-06,-0.52734375,0,0.00887535063113605
-2.55063732765848E-05,5.41952294952353E-06,-0.52734375,0,0.00887535063113605
-2.57815063378075E-05,5.25829136677203E-06,-0.52734375,0,0.00887535063113605
-2.66488023044076E-05,6.6355778471916E-06,-0.52734375,0,0.00887535063113605
-2.47332554863533E-05,7.90827562013874E-06,-0.52734375,0,0.00887535063113605
-2.31916728807846E-05,9.40993959375191E-06,-0.52734375,0,0.00887535063113605
-2.16226326301694E-05,1.03861793832039E-05,-0.52734375,0,0.00887535063113605
-2.25695366680156E-05,1.22739484140766E-05,-0.52734375,0,0.00887535063113605
-2.3823051378713E-05,1.17045119623072E-05,-0.52734375,0,0.00887535063113605
-2.54369715548819E-05,8.19151318864897E-06,-0.52734375,0,0.00887535063113605
-2.13815401366446E-05,4.63492278868216E-06,-0.52734375,0,0.00887535063113605
-2.98494196613319E-05,6.17978048467194E-06,-0.52734375,0,0.00887535063113605
-2.1892486984143E-05,5.96512472839095E-06,-0.52734375,0,0.00887535063113605
-2.77056642516982E-05,9.50945650401991E-06,-0.52734375,0,0.00887535063113605
-2.28569388127653E-05,8.59252395457588E-06,-0.52734375,0,0.00887535063113605
-2.44996517722029E-05,9.4787237685523E-06,-0.52734375,0,0.00887535063113605
-2.1635481971316E-05,1.02482626971323E-05,-0.52734375,0,0.00887535063113605
-2.3287184376386E-05,1.16675528261112E-05,-0.52734375,0,0.00887535063113605
-2.41163997998228E-05,1.26807317428757E-05,-0.52734375,0,0.00887535063113605
-2.53430407610722E-05,1.22791198009509E-05,-0.52734375,0,0.00887535063113605
-2.53300622716779E-05,1.09485281427624E-05,-0.52734375,0,0.00887535063113605
-2.31952872127295E-05,1.15019938675687E-05,-0.52734375,0,0.00887535063113605
-2.28417411562987E-05,1.3304086678545E-05,-0.52734375,0,0.00887535063113605
-2.17964061448583E-05,1.3591679817182E-05,-0.52734375,0,0.00887535063113605
-2.37858093896648E-05,1.33108305817586E-05,-0.52734375,0,0.00887535063113605
-2.3304231945076E-05,1.28049432532862E-05,-0.52734375,0,0.00887535063113605
-2.42308396991575E-05,1.30415974126663E-05,-0.52734375,0,0.00887535063113605
-2.23687966354191E-05,1.22902783914469E-05,-0.52734375,0,0.00887535063113605
-2.30929545068648E-05,1.28168030641973E-05,-0.52734375,0,0.00887535063113605
-2.27934069698676E-05,1.31621145555982E-05,-0.52734375,0,0.00887535063113605
-2.45380451815436E-05,1.32760660562781E-05,-0.52734375,0,0.00887535063113605
-2.4980581656564E-05,1.28230503833038E-05,-0.52734375,0,0.00887535063113605
-2.61919976765057E-05,1.25578881124966E-05,-0.52734375,0,0.00887535063113605
-2.59400167124113E-05,1.17841873361613E-05,-0.52734375,0,0.00887535063113605
-2.6352790882811E-05,1.08961758087389E-05,-0.52734375,0,0.00887535063113605
-2.61959958152147E-05,1.2231300388521E-05,-0.52734375,0,0.00887535063113605
-2.55353334068786E-05,1.55412926687859E-05,-0.52734375,0,0.00887535063113605
-2.02960382011952E-05,1.29153222587775E-05,-0.52734375,0,0.00887535063113605
-2.80342501355335E-05,1.66925165103748E-05,-0.52734375,0,0.00887535063113605
-1.98289199033752E-05,1.08802641989314E-05,-0.52734375,0,0.00887535063113605
-2.4814155040076E-05,1.43227061926154E-05,-0.52734375,0,0.00887535063113605
-2.17127744690515E-05,9.81097218755167E-06,-0.52734375,0,0.00887535063113605
-2.61769837379688E-05,1.04240652945009E-05,-0.52734375,0,0.00887535063113605
-2.44834845943842E-05,9.20382535696262E-06,-0.52734375,0,0.00887535063113605
-2.50661178142764E-05,1.0120595106855E-05,-0.52734375,0,0.00887535063113605
-2.43639460677514E-05,9.02777355804574E-06,-0.52734375,0,0.00887535063113605
-2.4258184566861E-05,8.73897261044476E-06,-0.52734375,0,0.00887535063113605
-2.36113010032568E-05,9.86980830930406E-06,-0.52734375,0,0.00887535063113605
-2.27680211537518E-05,1.01635605460615E-05,-0.52734375,0,0.00887535063113605
-2.42109308601357E-05,1.04109394669649E-05,-0.52734375,0,0.00887535063113605
-2.26136708079139E-05,1.00952420325484E-05,-0.52734375,0,0.00887535063113605
-2.21819318539929E-05,1.24186271932558E-05,-0.52734375,0,0.00887535063113605
-2.05414216907229E-05,1.239597077074E-05,-0.52734375,0,0.00887535063113605
-2.21249883907149E-05,1.22711044241441E-05,-0.52734375,0,0.00887535063113605
-2.17192173295189E-05,1.06082470665569E-05,-0.52734375,0,0.00887535063113605
-2.27735654334538E-05,1.07129217212787E-05,-0.52734375,0,0.00887535063113605
-2.13425410038326E-05,9.67281630437355E-06,-0.52734375,0,0.00887535063113605
-2.15214295167243E-05,1.0169902452617E-05,-0.52734375,0,0.00887535063113605
-2.03101535589667E-05,1.00465986179188E-05,-0.52734375,0,0.00887535063113605
-2.03612253244501E-05,1.03612228485872E-05,-0.52734375,0,0.00887535063113605
-2.09319568966748E-05,1.00480947367032E-05,-0.52734375,0,0.00887535063113605
-2.29849811148597E-05,1.07347277662484E-05,-0.52734375,0,0.00887535063113605
-2.36442483583232E-05,1.2413097465469E-05,-0.52734375,0,0.00887535063113605
-2.33431073866086E-05,1.38930681714555E-05,-0.52734375,0,0.00887535063113605
-1.86664201464737E-05,1.18602729344275E-05,-0.52734375,0,0.00887535063113605
-2.6497464205022E-05,1.7082687918446E-05,-0.52734375,0,0.00887535063113605
-2.09789923246717E-05,1.29765612655319E-05,-0.52734375,0,0.00887535063113605
-2.71197513939114E-05,1.41771524795331E-05,-0.52734375,0,0.00887535063113605
-2.22185790335061E-05,1.03473721537739E-05,-0.52734375,0,0.00887535063113605
-2.27277560043149E-05,1.31274300656514E-05,-0.52734375,0,0.00887535063113605
-2.16935186472256E-05,1.25664719234919E-05,-0.52734375,0,0.00887535063113605
-2.48335909418529E-05,1.1880518286489E-05,-0.52734375,0,0.00887535063113605
-2.44802613451611E-05,1.00925153674325E-05,-0.52734375,0,0.00887535063113605
-2.40546105487738E-05,9.21833816391882E-06,-0.52734375,0,0.00887535063113605
-2.5279925466748E-05,9.02724787010811E-06,-0.52734375,0,0.00887535063113605
-2.6190087737632E-05,9.49299283092842E-06,-0.52734375,0,0.00887535063113605
-2.68348794634221E-05,1.14722815851565E-05,-0.52734375,0,0.00887535063113605
-2.49234562943457E-05,1.17399640657823E-05,-0.52734375,0,0.00887535063113605
-2.5254003048758E-05,1.27130506371032E-05,-0.52734375,0,0.00887535063113605
-2.37242238654289E-05,1.27385001178482E-05,-0.52734375,0,0.00887535063113605
-2.46594827331137E-05,1.43152128657675E-05,-0.52734375,0,0.00887535063113605
-2.39218734350288E-05,1.36890121211763E-05,-0.52734375,0,0.00887535063113605
-2.43983959080651E-05,1.34350284497486E-05,-0.52734375,0,0.00887535063113605
-2.29157230933197E-05,1.24840280477656E-05,-0.52734375,0,0.00887535063113605
-2.33781283895951E-05,1.25500391732203E-05,-0.52734375,0,0.00887535063113605
-2.29853067139629E-05,1.11800136437523E-05,-0.52734375,0,0.00887535063113605
-2.33268492593197E-05,1.0476028364792E-05,-0.52734375,0,0.00887535063113605
-2.3434940885636E-05,9.94292076939018E-06,-0.52734375,0,0.00887535063113605
-2.49553650064627E-05,1.05579802038847E-05,-0.52734375,0,0.00887535063113605
-2.49064341915073E-05,1.1220343367313E-05,-0.52734375,0,0.00887535063113605
-2.43008889810881E-05,1.10936616692925E-05,-0.52734375,0,0.00887535063113605
-2.0295023205108E-05,8.5885312728351E-06,-0.52734375,0,0.00887535063113605
-2.93501761916559E-05,1.20490994959255E-05,-0.52734375,0,0.00887535063113605
-2.22429916902911E-05,9.1112160589546E-06,-0.52734375,0,0.00887535063113605
-2.64600002992665E-05,1.22567607832025E-05,-0.52734375,0,0.00887535063113605
-2.15720283449627E-05,1.14335471153026E-05,-0.52734375,0,0.00887535063113605
-2.43475769821089E-05,1.28557976495358E-05,-0.52734375,0,0.00887535063113605
-2.34827894018963E-05,1.11605977508589E-05,-0.52734375,0,0.00887535063113605
-2.55503528023837E-05,9.7465062935953E-06,-0.52734375,0,0.00887535063113605
-2.57805368164554E-05,9.00103714229772E-06,-0.52734375,0,0.00887535063113605
-2.70523378276266E-05,9.42047154239845E-06,-0.52734375,0,0.00887535063113605
-2.74391095445026E-05,9.30857459024992E-06,-0.52734375,0,0.00887535063113605
-2.58752988884225E-05,8.57568556966726E-06,-0.52734375,0,0.00887535063113605
-2.53362522926182E-05,9.43282702792203E-06,-0.52734375,0,0.00887535063113605
-2.24357900151517E-05,9.85922906693304E-06,-0.52734375,0,0.00887535063113605
-2.22191501961788E-05,9.70308701653266E-06,-0.52734375,0,0.00887535063113605
-2.06175864150282E-05,8.6144373199204E-06,-0.52734375,0,0.00887535063113605
-2.17133419937454E-05,1.02296626209863E-05,-0.52734375,0,0.00887535063113605
-2.08370747714071E-05,1.17190484161256E-05,-0.52734375,0,0.00887535063113605
-2.18382647290127E-05,1.24686685012421E-05,-0.52734375,0,0.00887535063113605
-2.15375657717232E-05,1.11249182737083E-05,-0.52734375,0,0.00887535063113605
-2.32352231250843E-05,1.05458329926478E-05,-0.52734375,0,0.00887535063113605
-2.34311119129416E-05,9.72780253505334E-06,-0.52734375,0,0.00887535063113605
-2.39152250287589E-05,9.98669383989181E-06,-0.52734375,0,0.00887535063113605
-2.31643989536678E-05,1.01633950180258E-05,-0.52734375,0,0.00887535063113605
-2.35135557886679E-05,8.98883081390522E-06,-0.52734375,0,0.00887535063113605
-2.41243433265481E-05,7.35487355996156E-06,-0.52734375,0,0.00887535063113605
-2.38688917306717E-05,8.13160568213789E-06,-0.52734375,0,0.00887535063113605
-1.9207071090932E-05,7.48968523112126E-06,-0.52734375,0,0.00887535063113605
-2.83281169686234E-05,9.45745705394074E-06,-0.52734375,0,0.00887535063113605
-2.23315710172756E-05,4.4988710214966E-06,-0.52734375,0,0.00887535063113605
-2.58611707977252E-05,5.91628167967428E-06,-0.52734375,0,0.00887535063113605
-2.06744225579314E-05,6.31009788776282E-06,-0.52734375,0,0.00887535063113605
-2.3867500203778E-05,9.03803811524995E-06,-0.52734375,0,0.00887535063113605
-2.29767047130736E-05,6.90552769810893E-06,-0.52734375,0,0.00887535063113605
-2.34898416238138E-05,4.75288425150211E-06,-0.52734375,0,0.00887535063113605
-2.15141044463962E-05,4.20087917518686E-06,-0.52734375,0,0.00887535063113605
-2.09556874324335E-05,5.98812403040938E-06,-0.52734375,0,0.00887535063113605
-2.1678461052943E-05,7.90349531598622E-06,-0.52734375,0,0.00887535063113605
-2.06392469408456E-05,7.40560881240526E-06,-0.52734375,0,0.00887535063113605
-2.09613463084679E-05,6.60232217342127E-06,-0.52734375,0,0.00887535063113605
-2.07648063224042E-05,5.11568669026019E-06,-0.52734375,0,0.00887535063113605
-2.26342945097713E-05,4.87705847262987E-06,-0.52734375,0,0.00887535063113605
-2.26982883759774E-05,5.74382374907145E-06,-0.52734375,0,0.00887535063113605
-2.45472674578195E-05,8.87207988853334E-06,-0.52734375,0,0.00887535063113605
-2.3247675926541E-05,1.00435272543109E-05,-0.52734375,0,0.00887535063113605
-2.30389068747172E-05,9.32848342927173E-06,-0.52734375,0,0.00887535063113605
-2.17081578739453E-05,7.75827720644884E-06,-0.52734375,0,0.00887535063113605
-2.23071801883634E-05,8.60558429849334E-06,-0.52734375,0,0.00887535063113605
-2.14333977055503E-05,9.74753584159771E-06,-0.52734375,0,0.00887535063113605
-2.14719602809055E-05,1.01718196674483E-05,-0.52734375,0,0.00887535063113605
-2.10080070246477E-05,9.91314300335944E-06,-0.52734375,0,0.00887535063113605
-1.98657689907122E-05,1.05265535239596E-05,-0.52734375,0,0.00887535063113605
-1.89589354704367E-05,1.06695042632055E-05,-0.52734375,0,0.00887535063113605
-2.02737810468534E-05,1.10774653876433E-05,-0.52734375,0,0.00887535063113605
-1.81220875674626E-05,1.21223247333546E-05,-0.52734375,0,0.00887535063113605
-2.54581427725498E-05,2.05035266844789E-05,-0.52734375,0,0.00887535063113605
-1.82395851879846E-05,1.80329498107312E-05,-0.52734375,0,0.00887535063113605
-2.24682626139838E-05,1.78341542778071E-05,-0.52734375,0,0.00887535063113605
-2.0648065401474E-05,1.39323628900456E-05,-0.52734375,0,0.00887535063113605
-2.59786957030883E-05,1.6032585335779E-05,-0.52734375,0,0.00887535063113605
-2.56189214269398E-05,1.49212355609052E-05,-0.52734375,0,0.00887535063113605
-2.66815059148939E-05,1.47351493069436E-05,-0.52734375,0,0.00887535063113605
-2.59545831795549E-05,1.45170652103843E-05,-0.52734375,0,0.00887535063113605
-2.6302654077881E-05,1.48910958159831E-05,-0.52734375,0,0.00887535063113605
-2.77207418548642E-05,1.54520512296585E-05,-0.52734375,0,0.00887535063113605
-2.81130014627706E-05,1.55334328155732E-05,-0.52734375,0,0.00887535063113605
-2.87401580862934E-05,1.67795733432285E-05,-0.52734375,0,0.00887535063113605
-2.70421369350515E-05,1.63607346621575E-05,-0.52734375,0,0.00887535063113605
-2.75219317700248E-05,1.62101805472048E-05,-0.52734375,0,0.00887535063113605
-2.65269954979885E-05,1.41331529448507E-05,-0.52734375,0,0.00887535063113605
-2.74455942417262E-05,1.2897876331408E-05,-0.52734375,0,0.00887535063113605
-2.59642001765314E-05,1.1027162145183E-05,-0.52734375,0,0.00887535063113605
-2.57873707596445E-05,1.02933890957502E-05,-0.52734375,0,0.00887535063113605
-2.53359976341017E-05,8.91069521458121E-06,-0.52734375,0,0.00887535063113605
-2.78770130535122E-05,9.03835552890087E-06,-0.52734375,0,0.00887535063113605
-2.81137690762989E-05,8.93466585694114E-06,-0.52734375,0,0.00887535063113605
-2.75454585789703E-05,8.83350821823115E-06,-0.52734375,0,0.00887535063113605
-2.65199651039438E-05,7.95512914919527E-06,-0.52734375,0,0.00887535063113605
-2.64557766058715E-05,7.66679568187101E-06,-0.52734375,0,0.00887535063113605
-2.61197474173969E-05,6.41304404780385E-06,-0.52734375,0,0.00887535063113605
-2.57483825407689E-05,4.24198742621229E-06,-0.52734375,0,0.00887535063113605
-2.08383225981379E-05,3.28295595863892E-06,-0.52734375,0,0.00887535063113605
-3.0125942430459E-05,5.15540114065516E-06,-0.52734375,0,0.00887535063113605
-2.39698474615579E-05,4.69710175821092E-06,-0.52734375,0,0.00887535063113605
-2.96228481602157E-05,6.16518036622438E-06,-0.52734375,0,0.00887535063113605
-2.50280336331343E-05,6.45494037598837E-06,-0.52734375,0,0.00887535063113605
-2.77024337265175E-05,7.74580348661402E-06,-0.52734375,0,0.00887535063113605
-2.47758744080784E-05,8.27147687232355E-06,-0.52734375,0,0.00887535063113605
-2.42397964029806E-05,8.7189364421647E-06,-0.52734375,0,0.00887535063113605
-2.23764200200094E-05,9.39345136430347E-06,-0.52734375,0,0.00887535063113605
-2.29102606681408E-05,1.030502426147E-05,-0.52734375,0,0.00887535063113605
-2.45566079684068E-05,1.09416632767534E-05,-0.52734375,0,0.00887535063113605
-2.47967946052086E-05,1.14611939352471E-05,-0.52734375,0,0.00887535063113605
-2.55182239925489E-05,1.21825105452444E-05,-0.52734375,0,0.00887535063113605
-2.349979513383E-05,1.33740941237193E-05,-0.52734375,0,0.00887535063113605
-2.32852016779361E-05,1.51770300362841E-05,-0.52734375,0,0.00887535063113605
-2.10701909963973E-05,1.59196479216916E-05,-0.52734375,0,0.00887535063113605
-2.13330749829765E-05,1.59128267114284E-05,-0.52734375,0,0.00887535063113605
-2.00106005650014E-05,1.51412559716846E-05,-0.52734375,0,0.00887535063113605
-2.20329784497153E-05,1.46734391819336E-05,-0.52734375,0,0.00887535063113605
-2.36401738220593E-05,1.31948145281058E-05,-0.52734375,0,0.00887535063113605
-2.73228288278915E-05,1.12942207124433E-05,-0.52734375,0,0.00887535063113605
-2.79761297861114E-05,1.08498916233657E-05,-0.52734375,0,0.00887535063113605
-2.74699559668079E-05,1.27886814880185E-05,-0.52734375,0,0.00887535063113605
-2.43063932430232E-05,1.47753817145713E-05,-0.52734375,0,0.00887535063113605
-2.25795465667034E-05,1.49454908751068E-05,-0.52734375,0,0.00887535063113605
-2.41758407355519E-05,1.3576669516624E-05,-0.52734375,0,0.00887535063113605
-2.68115854851203E-05,1.181570951303E-05,-0.52734375,0,0.00887535063113605
-2.11006972676842E-05,7.47530293665477E-06,-0.52734375,0,0.00887535063113605
-2.89463696390158E-05,1.07895793917123E-05,-0.52734375,0,0.00887535063113605
-2.20884994632797E-05,1.01848763733869E-05,-0.52734375,0,0.00887535063113605
-2.90012212644797E-05,1.38215909828432E-05,-0.52734375,0,0.00887535063113605
-2.44656966970069E-05,1.10978407974471E-05,-0.52734375,0,0.00887535063113605
-2.78229908872163E-05,1.1044270650018E-05,-0.52734375,0,0.00887535063113605
-2.59651551459683E-05,9.45394276641309E-06,-0.52734375,0,0.00887535063113605
-2.66357328655431E-05,8.71590418682899E-06,-0.52734375,0,0.00887535063113605
-2.32020975090563E-05,7.73509873397416E-06,-0.52734375,0,0.00887535063113605
-2.11863898584852E-05,8.47695355332689E-06,-0.52734375,0,0.00887535063113605
-2.20579968299717E-05,9.49706281971885E-06,-0.52734375,0,0.00887535063113605
-2.2429241653299E-05,1.04326536529697E-05,-0.52734375,0,0.00887535063113605
-2.25887615670217E-05,1.08972590169287E-05,-0.52734375,0,0.00887535063113605
-2.04101397685008E-05,9.08216497919057E-06,-0.52734375,0,0.00887535063113605
-2.18452059925767E-05,8.27157145977253E-06,-0.52734375,0,0.00887535063113605
-2.04252773983171E-05,8.33979265735252E-06,-0.52734375,0,0.00887535063113605
-2.06895892915782E-05,1.08207768789725E-05,-0.52734375,0,0.00887535063113605
-1.98785637621768E-05,1.17885074359947E-05,-0.52734375,0,0.00887535063113605
-2.1706438928959E-05,1.28502188090351E-05,-0.52734375,0,0.00887535063113605
-2.04627922357759E-05,1.40120473588468E-05,-0.52734375,0,0.00887535063113605
-2.10702983167721E-05,1.5989087842172E-05,-0.52734375,0,0.00887535063113605
-2.13508083106717E-05,1.54242716234876E-05,-0.52734375,0,0.00887535063113605
-2.31671911024023E-05,1.29519303300185E-05,-0.52734375,0,0.00887535063113605
-2.29293509619311E-05,9.18778550840216E-06,-0.52734375,0,0.00887535063113605
-2.22118924284587E-05,8.06488515081583E-06,-0.52734375,0,0.00887535063113605
-2.06870008696569E-05,1.0342565474275E-05,-0.52734375,0,0.00887535063113605
-1.95201246242505E-05,1.22363862828934E-05,-0.52734375,0,0.00887535063113605
-1.51391814142698E-05,1.03488255263073E-05,-0.52734375,0,0.00887535063113605
-2.11908809433226E-05,1.50994073919719E-05,-0.52734375,0,0.00887535063113605
-1.62678952619899E-05,1.17845283966744E-05,-0.52734375,0,0.00887535063113605
-2.20107904169708E-05,1.33052435558056E-05,-0.52734375,0,0.00887535063113605
-2.04140687856125E-05,1.02682888609706E-05,-0.52734375,0,0.00887535063113605
-2.32364618568681E-05,1.14066961032222E-05,-0.52734375,0,0.00887535063113605
-2.28169774345588E-05,8.81998948898399E-06,-0.52734375,0,0.00887535063113605
-2.45921673922567E-05,8.08346703706775E-06,-0.52734375,0,0.00887535063113605
-2.46270610659849E-05,8.45070280774962E-06,-0.52734375,0,0.00887535063113605
-2.40225690504303E-05,9.99236544885207E-06,-0.52734375,0,0.00887535063113605
-2.32467627938604E-05,1.09592865555896E-05,-0.52734375,0,0.00887535063113605
-2.16210628423141E-05,1.06511206467985E-05,-0.52734375,0,0.00887535063113605
-2.13579733099323E-05,1.0804017620103E-05,-0.52734375,0,0.00887535063113605
-1.99099940800807E-05,1.03101674540085E-05,-0.52734375,0,0.00887535063113605
-2.06728618650232E-05,1.13835658339667E-05,-0.52734375,0,0.00887535063113605
-2.15214058698621E-05,1.18397720143548E-05,-0.52734375,0,0.00887535063113605
-2.43105987465242E-05,1.26496543089161E-05,-0.52734375,0,0.00887535063113605
-2.41777452174574E-05,1.1531321433722E-05,-0.52734375,0,0.00887535063113605
-2.41018533415627E-05,1.16162527774577E-05,-0.52734375,0,0.00887535063113605
-2.23950191866606E-05,1.04316413853667E-05,-0.52734375,0,0.00887535063113605
-2.279275940964E-05,8.52137145557208E-06,-0.52734375,0,0.00887535063113605
-2.36278901866172E-05,5.80527830607025E-06,-0.52734375,0,0.00887535063113605
-2.4951435989351E-05,6.07914489592076E-06,-0.52734375,0,0.00887535063113605
-2.41760317294393E-05,7.5546263360593E-06,-0.52734375,0,0.00887535063113605
-2.36288706219057E-05,7.57662792238989E-06,-0.52734375,0,0.00887535063113605
-2.33009686780861E-05,5.07538197780377E-06,-0.52734375,0,0.00887535063113605
-2.16886746784439E-05,4.67303652840201E-06,-0.52734375,0,0.00887535063113605
-1.57910890266066E-05,4.92246545036323E-06,-0.52734375,0,0.00887535063113605
-2.32408092415426E-05,8.26095674710814E-06,-0.52734375,0,0.00887535063113605
-2.03995368792675E-05,8.12378402770264E-06,-0.52734375,0,0.00887535063113605
-2.6015051844297E-05,1.01378691397258E-05,-0.52734375,0,0.00887535063113605
-2.18874774873257E-05,8.81858977663796E-06,-0.52734375,0,0.00887535063113605
-2.45946594077395E-05,9.01741623238195E-06,-0.52734375,0,0.00887535063113605
-2.41253437707201E-05,1.04544751593494E-05,-0.52734375,0,0.00887535063113605
-2.53457674261881E-05,1.28873516587191E-05,-0.52734375,0,0.00887535063113605
-2.50881930696778E-05,1.39522890094668E-05,-0.52734375,0,0.00887535063113605
-2.47517928073648E-05,1.25601791296504E-05,-0.52734375,0,0.00887535063113605
-2.38857155636651E-05,1.07379973997013E-05,-0.52734375,0,0.00887535063113605
-2.29519409913337E-05,9.90063927019946E-06,-0.52734375,0,0.00887535063113605
-2.38493958022445E-05,9.93531830317806E-06,-0.52734375,0,0.00887535063113605
-2.31145550060319E-05,8.41092514747288E-06,-0.52734375,0,0.00887535063113605
-2.3832611987018E-05,6.90845945428009E-06,-0.52734375,0,0.00887535063113605
-2.36044525081525E-05,7.13166537025245E-06,-0.52734375,0,0.00887535063113605
-2.61028308159439E-05,9.62053309194744E-06,-0.52734375,0,0.00887535063113605
-2.67829691438237E-05,1.13752039396786E-05,-0.52734375,0,0.00887535063113605
-2.72132747340947E-05,1.20748300105333E-05,-0.52734375,0,0.00887535063113605
-2.47414882323937E-05,1.26076229207683E-05,-0.52734375,0,0.00887535063113605
-2.39486871578265E-05,1.33874818857294E-05,-0.52734375,0,0.00887535063113605
-2.36829164350638E-05,1.34298097691499E-05,-0.52734375,0,0.00887535063113605
-2.60507113125641E-05,1.30763319248217E-05,-0.52734375,0,0.00887535063113605
-2.75656366284238E-05,1.20327231343254E-05,-0.52734375,0,0.00887535063113605
-2.79238956863992E-05,1.03028642115532E-05,-0.52734375,0,0.00887535063113605
-2.76662030955777E-05,8.2557062341948E-06,-0.52734375,0,0.00887535063113605
-2.73885871138191E-05,6.9942088885E-06,-0.52734375,0,0.00887535063113605
-2.12278428080026E-05,5.58642796022468E-06,-0.52734375,0,0.00887535063113605
-2.95424724754412E-05,8.98236066859681E-06,-0.52734375,0,0.00887535063113605
-2.24218529183418E-05,8.71606880537001E-06,-0.52734375,0,0.00887535063113605
-2.76167465926846E-05,9.93434605334187E-06,-0.52734375,0,0.00887535063113605
-2.14201700146077E-05,8.24155540612992E-06,-0.52734375,0,0.00887535063113605
-2.41024681599811E-05,9.45597457757685E-06,-0.52734375,0,0.00887535063113605
-2.24032537516905E-05,8.79922481544781E-06,-0.52734375,0,0.00887535063113605
-2.56601415458135E-05,8.89106013346463E-06,-0.52734375,0,0.00887535063113605
-2.65966828010278E-05,9.27322616917081E-06,-0.52734375,0,0.00887535063113605
-2.61042605416151E-05,1.01199811979313E-05,-0.52734375,0,0.00887535063113605
-2.46962463279488E-05,1.09006386992405E-05,-0.52734375,0,0.00887535063113605
-2.36578271142207E-05,1.16502060336643E-05,-0.52734375,0,0.00887535063113605
-2.55642080446705E-05,1.25313572425512E-05,-0.52734375,0,0.00887535063113605
-2.48814285441767E-05,1.25155929708853E-05,-0.52734375,0,0.00887535063113605
-2.49443237407831E-05,1.36315156851197E-05,-0.52734375,0,0.00887535063113605
-2.22440012294101E-05,1.52541433635633E-05,-0.52734375,0,0.00887535063113605
-2.34001799981343E-05,1.70536586665548E-05,-0.52734375,0,0.00887535063113605
-2.30616769840708E-05,1.63459590112325E-05,-0.52734375,0,0.00887535063113605
-2.47301322815474E-05,1.45629592225305E-05,-0.52734375,0,0.00887535063113605
-2.4623946956126E-05,1.13873920781771E-05,-0.52734375,0,0.00887535063113605
-2.62659450527281E-05,9.63042020885041E-06,-0.52734375,0,0.00887535063113605
-2.54249844147125E-05,9.78254138317425E-06,-0.52734375,0,0.00887535063113605
-2.58528016274795E-05,1.09108432297944E-05,-0.52734375,0,0.00887535063113605
-2.6287973014405E-05,1.08547546915361E-05,-0.52734375,0,0.00887535063113605
-2.67744053417118E-05,1.04178207038785E-05,-0.52734375,0,0.00887535063113605
-2.60606611846015E-05,9.98207360680681E-06,-0.52734375,0,0.00887535063113605
-2.62305311480304E-05,1.04243945315829E-05,-0.52734375,0,0.00887535063113605
-2.19323883356992E-05,9.66054267337313E-06,-0.52734375,0,0.00887535063113605
-3.04846071230713E-05,1.42705748658045E-05,-0.52734375,0,0.00887535063113605
-2.19201101572253E-05,1.02187614174909E-05,-0.52734375,0,0.00887535063113605
-2.65008347923867E-05,1.05487388282199E-05,-0.52734375,0,0.00887535063113605
-2.09884565265384E-05,7.35439425625373E-06,-0.52734375,0,0.00887535063113605
-2.37433814618271E-05,9.19592821446713E-06,-0.52734375,0,0.00887535063113605
-2.18754485104E-05,9.56826806941535E-06,-0.52734375,0,0.00887535063113605
-2.39339697145624E-05,1.03329402918462E-05,-0.52734375,0,0.00887535063113605
-2.38883221754804E-05,1.00874322015443E-05,-0.52734375,0,0.00887535063113605
-2.34615854424192E-05,9.85947644949192E-06,-0.52734375,0,0.00887535063113605
-2.19122212001821E-05,8.09014363767346E-06,-0.52734375,0,0.00887535063113605
-2.07098873943323E-05,5.84709641771042E-06,-0.52734375,0,0.00887535063113605
-2.29473844228778E-05,7.13397548679495E-06,-0.52734375,0,0.00887535063113605
-2.30204805120593E-05,9.51823949435493E-06,-0.52734375,0,0.00887535063113605
-2.50110806518933E-05,1.15698239824269E-05,-0.52734375,0,0.00887535063113605
-2.44910334004089E-05,1.07825298982789E-05,-0.52734375,0,0.00887535063113605
-2.6170304408879E-05,1.0814276720339E-05,-0.52734375,0,0.00887535063113605
-2.57758347288473E-05,1.00479846878443E-05,-0.52734375,0,0.00887535063113605
-2.78362149401801E-05,9.42065980780171E-06,-0.52734375,0,0.00887535063113605
-2.72033830697183E-05,8.06436764833052E-06,-0.52734375,0,0.00887535063113605
-2.73757941613439E-05,8.89729290065588E-06,-0.52734375,0,0.00887535063113605
-2.60480810538866E-05,1.00307443062775E-05,-0.52734375,0,0.00887535063113605
-2.59165790339466E-05,1.15319653559709E-05,-0.52734375,0,0.00887535063113605
-2.47878288064385E-05,1.14084923552582E-05,-0.52734375,0,0.00887535063113605
-2.47720236075111E-05,9.81384710030397E-06,-0.52734375,0,0.00887535063113605
-2.54647620749893E-05,8.41448127175681E-06,-0.52734375,0,0.00887535063113605
-2.63968413491966E-05,7.91011007095221E-06,-0.52734375,0,0.00887535063113605
-2.12620107049588E-05,5.86195392315858E-06,-0.52734375,0,0.00887535063113605
-3.0296971090138E-05,7.65616096032318E-06,-0.52734375,0,0.00887535063113605
-2.27152304432821E-05,6.5338249441993E-06,-0.52734375,0,0.00887535063113605
-2.74057583737886E-05,9.32141028897604E-06,-0.52734375,0,0.00887535063113605
-2.30153764277929E-05,7.45746638131095E-06,-0.52734375,0,0.00887535063113605
-2.6024215912912E-05,9.16626777325291E-06,-0.52734375,0,0.00887535063113605
-2.39207911363337E-05,9.95235586742638E-06,-0.52734375,0,0.00887535063113605
-2.50334633165039E-05,1.07139012470725E-05,-0.52734375,0,0.00887535063113605
-2.3640433937544E-05,1.01449622889049E-05,-0.52734375,0,0.00887535063113605
-2.35112274822313E-05,9.11086135602091E-06,-0.52734375,0,0.00887535063113605
-2.43689755734522E-05,9.22595245356206E-06,-0.52734375,0,0.00887535063113605
-2.4523365937057E-05,1.0867801393033E-05,-0.52734375,0,0.00887535063113605
-2.52348490903387E-05,1.28633773783804E-05,-0.52734375,0,0.00887535063113605
-2.30223740800284E-05,1.22369574455661E-05,-0.52734375,0,0.00887535063113605
-2.3718896045466E-05,1.059792975866E-05,-0.52734375,0,0.00887535063113605
-2.30974928854266E-05,9.45841657085111E-06,-0.52734375,0,0.00887535063113605
-2.47628577199066E-05,1.15054435809725E-05,-0.52734375,0,0.00887535063113605
-2.35174538829597E-05,1.29190284496872E-05,-0.52734375,0,0.00887535063113605
-2.45341943809763E-05,1.36308508444927E-05,-0.52734375,0,0.00887535063113605
-2.37643980653957E-05,1.39204848892405E-05,-0.52734375,0,0.00887535063113605
-2.42137411987642E-05,1.49820534716127E-05,-0.52734375,0,0.00887535063113605
-2.40664467128227E-05,1.52009979501599E-05,-0.52734375,0,0.00887535063113605
-2.52373538387474E-05,1.57770336954854E-05,-0.52734375,0,0.00887535063113605
-2.4852955903043E-05,1.59517003339715E-05,-0.52734375,0,0.00887535063113605
-2.52510835707653E-05,1.48762956087012E-05,-0.52734375,0,0.00887535063113605
-2.65113776549697E-05,1.38832074298989E-05,-0.52734375,0,0.00887535063113605
-2.82697419606848E-05,1.35064365167636E-05,-0.52734375,0,0.00887535063113605
-2.31559115491109E-05,1.06293091448606E-05,-0.52734375,0,0.00887535063113605
-3.11761650664266E-05,1.52149023051606E-05,-0.52734375,0,0.00887535063113605
-2.04530624614563E-05,1.30984080897179E-05,-0.52734375,0,0.00887535063113605
-2.51921555900481E-05,1.76255598489661E-05,-0.52734375,0,0.00887535063113605
-2.06560180231463E-05,1.47862074300065E-05,-0.52734375,0,0.00887535063113605
-2.46385370701319E-05,1.39904459501849E-05,-0.52734375,0,0.00887535063113605
-2.27254022320267E-05,1.09917637018953E-05,-0.52734375,0,0.00887535063113605
-2.41809066210408E-05,1.24212865557638E-05,-0.52734375,0,0.00887535063113605
-2.30821970035322E-05,1.46217171277385E-05,-0.52734375,0,0.00887535063113605
-2.31820940825855E-05,1.53806831804104E-05,-0.52734375,0,0.00887535063113605
-2.35361476370599E-05,1.5228331903927E-05,-0.52734375,0,0.00887535063113605
-2.19832090806449E-05,1.50578935063095E-05,-0.52734375,0,0.00887535063113605
-2.23434672079748E-05,1.60209092427976E-05,-0.52734375,0,0.00887535063113605
-2.20155907300068E-05,1.62993546837242E-05,-0.52734375,0,0.00887535063113605
-2.41919351537945E-05,1.79293274413794E-05,-0.52734375,0,0.00887535063113605
-2.24210016313009E-05,1.7125779777416E-05,-0.52734375,0,0.00887535063113605
-2.22251946979668E-05,1.63904005603399E-05,-0.52734375,0,0.00887535063113605
-1.96732853510184E-05,1.48291928780964E-05,-0.52734375,0,0.00887535063113605
-1.98115430976031E-05,1.49993193190312E-05,-0.52734375,0,0.00887535063113605
-1.87522418855224E-05,1.53315631905571E-05,-0.52734375,0,0.00887535063113605
-2.07086068257922E-05,1.74094784597401E-05,-0.52734375,0,0.00887535063113605
-2.0669214791269E-05,1.77851361513603E-05,-0.52734375,0,0.00887535063113605
-1.99847727344604E-05,1.62865417223657E-05,-0.52734375,0,0.00887535063113605
-1.78475056600291E-05,1.40536558319582E-05,-0.52734375,0,0.00887535063113605
-1.79798389581265E-05,1.35704758577049E-05,-0.52734375,0,0.00887535063113605
-1.76407484104857E-05,1.28166930153384E-05,-0.52734375,0,0.00887535063113605
-1.69619324879022E-05,1.00060833574389E-05,-0.52734375,0,0.00887535063113605
-1.43364086397924E-05,5.32929470864474E-06,-0.52734375,0,0.00887535063113605
-2.1066660337965E-05,8.05592662800336E-06,-0.52734375,0,0.00887535063113605
-1.79379949258873E-05,8.04880619398318E-06,-0.52734375,0,0.00887535063113605
-2.29933320952114E-05,1.14677823148668E-05,-0.52734375,0,0.00887535063113605
-2.00623762793839E-05,1.19310698210029E-05,-0.52734375,0,0.00887535063113605
-2.15876953006955E-05,1.38228951982455E-05,-0.52734375,0,0.00887535063113605
-2.03517247427953E-05,1.32626346385223E-05,-0.52734375,0,0.00887535063113605
-2.11494789255084E-05,1.18998668767745E-05,-0.52734375,0,0.00887535063113605
-2.09398349397816E-05,1.00971383290016E-05,-0.52734375,0,0.00887535063113605
-2.12450486287707E-05,9.36990818445338E-06,-0.52734375,0,0.00887535063113605
-2.21437057916773E-05,8.8334854808636E-06,-0.52734375,0,0.00887535063113605
-2.2593225367018E-05,8.15129169495776E-06,-0.52734375,0,0.00887535063113605
-2.44059356191428E-05,7.2355715019512E-06,-0.52734375,0,0.00887535063113605
-2.39128385146614E-05,5.6578710427857E-06,-0.52734375,0,0.00887535063113605
-2.39990877162199E-05,5.35311573912622E-06,-0.52734375,0,0.00887535063113605
-2.19105986616341E-05,5.05188836541492E-06,-0.52734375,0,0.00887535063113605
-2.16161606658716E-05,5.12782662553946E-06,-0.52734375,0,0.00887535063113605
-2.20572819671361E-05,3.81947120331461E-06,-0.52734375,0,0.00887535063113605
-2.47526986640878E-05,2.83230860986805E-06,-0.52734375,0,0.00887535063113605
-2.47495481744409E-05,3.16415344059351E-06,-0.52734375,0,0.00887535063113605
-2.4171153199859E-05,5.48546449863352E-06,-0.52734375,0,0.00887535063113605
-2.21990048885345E-05,7.34513287170557E-06,-0.52734375,0,0.00887535063113605
-2.19695812120335E-05,9.14761494641425E-06,-0.52734375,0,0.00887535063113605
-2.34137623920105E-05,9.92250443232479E-06,-0.52734375,0,0.00887535063113605
-2.59431872109417E-05,1.06448969745543E-05,-0.52734375,0,0.00887535063113605
-2.71933877229458E-05,1.17295130621642E-05,-0.52734375,0,0.00887535063113605
-2.52296140388353E-05,1.14601707537076E-05,-0.52734375,0,0.00887535063113605
-1.82406874955632E-05,6.93862875777995E-06,-0.52734375,0,0.00887535063113605
-2.54087626672117E-05,9.87671319307992E-06,-0.52734375,0,0.00887535063113605
-1.93754567590076E-05,7.76552224124316E-06,-0.52734375,0,0.00887535063113605
-2.51786150329281E-05,9.87250768957892E-06,-0.52734375,0,0.00887535063113605
-2.20416477532126E-05,9.02161718840944E-06,-0.52734375,0,0.00887535063113605
-2.55812628893182E-05,1.05443905340508E-05,-0.52734375,0,0.00887535063113605
-2.50258071901044E-05,8.02352860773681E-06,-0.52734375,0,0.00887535063113605
-2.69674874289194E-05,6.28146290182485E-06,-0.52734375,0,0.00887535063113605
-2.58263880823506E-05,5.86728174312157E-06,-0.52734375,0,0.00887535063113605
-2.51662786467932E-05,6.49511821393389E-06,-0.52734375,0,0.00887535063113605
-2.52972240559757E-05,5.58500050829025E-06,-0.52734375,0,0.00887535063113605
-2.53509788308293E-05,2.96870780402969E-06,-0.52734375,0,0.00887535063113605
-2.59845310210949E-05,2.16486955650907E-06,-0.52734375,0,0.00887535063113605
-2.39598102780292E-05,2.49374647864897E-06,-0.52734375,0,0.00887535063113605
-2.39318069361616E-05,3.46909700965625E-06,-0.52734375,0,0.00887535063113605
-2.25413205043878E-05,2.71056592282548E-06,-0.52734375,0,0.00887535063113605
-2.41587567870738E-05,2.71800649898069E-06,-0.52734375,0,0.00887535063113605
-2.43357626459328E-05,2.94678011414362E-06,-0.52734375,0,0.00887535063113605
-2.55619434028631E-05,4.71364410259412E-06,-0.52734375,0,0.00887535063113605
-2.37325657508336E-05,7.04620470060036E-06,-0.52734375,0,0.00887535063113605
-2.31002049986273E-05,9.97386541712331E-06,-0.52734375,0,0.00887535063113605
-2.22406997636426E-05,1.01141476989142E-05,-0.52734375,0,0.00887535063113605
-2.28416593017755E-05,9.02507053979207E-06,-0.52734375,0,0.00887535063113605
-2.34514045587275E-05,8.5046576714376E-06,-0.52734375,0,0.00887535063113605
-2.52583377005067E-05,8.64291905600112E-06,-0.52734375,0,0.00887535063113605
-2.50945777224842E-05,6.02815134698176E-06,-0.52734375,0,0.00887535063113605
-2.4302173187607E-05,1.41702980727132E-06,-0.52734375,0,0.00887535063113605
-1.88050980796106E-05,-1.12319149536688E-07,-0.52734375,0,0.00887535063113605
-2.55044869845733E-05,1.8875703062804E-06,-0.52734375,0,0.00887535063113605
-1.77668225660454E-05,5.71210284761037E-06,-0.52734375,0,0.00887535063113605
-2.22849466808839E-05,7.80038863013033E-06,-0.52734375,0,0.00887535063113605
-1.92350744327996E-05,8.69232735567493E-06,-0.52734375,0,0.00887535063113605
-2.3076967408997E-05,9.02072952158051E-06,-0.52734375,0,0.00887535063113605
-2.19176763494033E-05,8.87919850356411E-06,-0.52734375,0,0.00887535063113605
-2.50262437475612E-05,8.86338420968968E-06,-0.52734375,0,0.00887535063113605
-2.58196723734727E-05,1.08847470983164E-05,-0.52734375,0,0.00887535063113605
-2.56505300058052E-05,1.33368484966923E-05,-0.52734375,0,0.00887535063113605
-2.468724596838E-05,1.4736401681148E-05,-0.52734375,0,0.00887535063113605
-2.36229261645349E-05,1.54139324877178E-05,-0.52734375,0,0.00887535063113605
-2.53224989137379E-05,1.61073148774449E-05,-0.52734375,0,0.00887535063113605
-2.57241845247336E-05,1.57899667101447E-05,-0.52734375,0,0.00887535063113605
-2.74921912932768E-05,1.47767259477405E-05,-0.52734375,0,0.00887535063113605
-2.63829188043019E-05,1.49661209434271E-05,-0.52734375,0,0.00887535063113605
-2.70894488494378E-05,1.66783793247305E-05,-0.52734375,0,0.00887535063113605
-2.4913595552789E-05,1.79189901245991E-05,-0.52734375,0,0.00887535063113605
-2.51419569394784E-05,1.70863531820942E-05,-0.52734375,0,0.00887535063113605
-2.51749661401846E-05,1.59504033945268E-05,-0.52734375,0,0.00887535063113605
-2.68508993030991E-05,1.52095608427771E-05,-0.52734375,0,0.00887535063113605
-2.47903535637306E-05,1.39873054649797E-05,-0.52734375,0,0.00887535063113605
-2.32216443691868E-05,1.27118955788319E-05,-0.52734375,0,0.00887535063113605
-2.29525157919852E-05,1.12469961095485E-05,-0.52734375,0,0.00887535063113605
-2.4076558474917E-05,9.86137365543982E-06,-0.52734375,0,0.00887535063113605
-2.51338078669505E-05,1.03240836324403E-05,-0.52734375,0,0.00887535063113605
-2.62165704043582E-05,9.43867325986503E-06,-0.52734375,0,0.00887535063113605
-2.21957088797353E-05,7.19540230420535E-06,-0.52734375,0,0.00887535063113605
-3.08799753838684E-05,1.2513071851572E-05,-0.52734375,0,0.00887535063113605
-2.19544126593973E-05,1.34446172523894E-05,-0.52734375,0,0.00887535063113605
-2.69834981736494E-05,1.60027484525926E-05,-0.52734375,0,0.00887535063113605
-2.23195493163075E-05,1.28957817651099E-05,-0.52734375,0,0.00887535063113605
-2.42741716647288E-05,1.26581298900419E-05,-0.52734375,0,0.00887535063113605
-2.18328077608021E-05,1.17291228889371E-05,-0.52734375,0,0.00887535063113605
-2.47358002525289E-05,1.17406398203457E-05,-0.52734375,0,0.00887535063113605
-2.50438406510511E-05,1.02848853202886E-05,-0.52734375,0,0.00887535063113605
-2.56695693678921E-05,8.92375828698277E-06,-0.52734375,0,0.00887535063113605
-2.59118933172431E-05,9.86256327450974E-06,-0.52734375,0,0.00887535063113605
-2.51236924668774E-05,1.17260324259405E-05,-0.52734375,0,0.00887535063113605
-2.60799952229718E-05,1.24382249850896E-05,-0.52734375,0,0.00887535063113605
-2.5691682822071E-05,1.10967703221831E-05,-0.52734375,0,0.00887535063113605
-2.7662999855238E-05,1.11491453935741E-05,-0.52734375,0,0.00887535063113605
-2.67872383119538E-05,1.18629168355255E-05,-0.52734375,0,0.00887535063113605
-2.78595107374713E-05,1.28461433632765E-05,-0.52734375,0,0.00887535063113605
-2.55969225690933E-05,1.19456881293445E-05,-0.52734375,0,0.00887535063113605
-2.53113412327366E-05,1.12678262667032E-05,-0.52734375,0,0.00887535063113605
-2.42496480495902E-05,9.25440508581232E-06,-0.52734375,0,0.00887535063113605
-2.6396730390843E-05,7.10242329660105E-06,-0.52734375,0,0.00887535063113605
-2.58510499406839E-05,5.81291578782839E-06,-0.52734375,0,0.00887535063113605
-2.45397222897736E-05,7.25430390957627E-06,-0.52734375,0,0.00887535063113605
-2.25033254537266E-05,8.53237725095823E-06,-0.52734375,0,0.00887535063113605
-2.2619175069849E-05,8.53232359077083E-06,-0.52734375,0,0.00887535063113605
-2.2773390810471E-05,8.15482781035826E-06,-0.52734375,0,0.00887535063113605
-2.32679522014223E-05,8.41642122395569E-06,-0.52734375,0,0.00887535063113605
-1.88098929356784E-05,6.93533775120159E-06,-0.52734375,0,0.00887535063113605
-2.61572222370887E-05,1.09307247839752E-05,-0.52734375,0,0.00887535063113605
-1.96116707229521E-05,9.79787000687793E-06,-0.52734375,0,0.00887535063113605
-2.49571239692159E-05,1.09747297756257E-05,-0.52734375,0,0.00887535063113605
-2.06282584258588E-05,8.26306859380566E-06,-0.52734375,0,0.00887535063113605
-2.28230837819865E-05,9.38788798521273E-06,-0.52734375,0,0.00887535063113605
-2.07362190849381E-05,9.89254385785898E-06,-0.52734375,0,0.00887535063113605
-2.0963447241229E-05,1.15749708129442E-05,-0.52734375,0,0.00887535063113605
-2.04522893909598E-05,1.17199633677956E-05,-0.52734375,0,0.00887535063113605
-2.18834702536697E-05,1.1324712431815E-05,-0.52734375,0,0.00887535063113605
-2.33414139074739E-05,1.18682337415521E-05,-0.52734375,0,0.00887535063113605
-2.33918690355495E-05,1.32715858853771E-05,-0.52734375,0,0.00887535063113605
-2.51289638981689E-05,1.43964416565723E-05,-0.52734375,0,0.00887535063113605
-2.51599140028702E-05,1.28735264297575E-05,-0.52734375,0,0.00887535063113605
-2.61021341430023E-05,1.24184889500611E-05,-0.52734375,0,0.00887535063113605
-2.39462533500046E-05,1.24015068649896E-05,-0.52734375,0,0.00887535063113605
-2.32247220992576E-05,1.26471732073696E-05,-0.52734375,0,0.00887535063113605
-2.12076156458352E-05,1.04826112874434E-05,-0.52734375,0,0.00887535063113605
-2.25131334445905E-05,8.01237001724076E-06,-0.52734375,0,0.00887535063113605
-2.32952716032742E-05,6.31461807643063E-06,-0.52734375,0,0.00887535063113605
-2.57394021900836E-05,6.58098679195973E-06,-0.52734375,0,0.00887535063113605
-2.62515713984612E-05,6.25026586931199E-06,-0.52734375,0,0.00887535063113605
-2.61785116890678E-05,6.40981534161256E-06,-0.52734375,0,0.00887535063113605
-2.3873544705566E-05,8.91199033503653E-06,-0.52734375,0,0.00887535063113605
-2.28592798521277E-05,1.25707119877916E-05,-0.52734375,0,0.00887535063113605
-2.34234030358493E-05,1.41423033710453E-05,-0.52734375,0,0.00887535063113605
-2.51548190135509E-05,1.39030016725883E-05,-0.52734375,0,0.00887535063113605
-2.02892006200273E-05,1.00710894912481E-05,-0.52734375,0,0.00887535063113605
-2.75159400189295E-05,1.52465700011817E-05,-0.52734375,0,0.00887535063113605
-1.93102605408058E-05,1.40142674354138E-05,-0.52734375,0,0.00887535063113605
-2.47221450990764E-05,1.70402036019368E-05,-0.52734375,0,0.00887535063113605
-2.12350623769453E-05,1.34002038976178E-05,-0.52734375,0,0.00887535063113605
-2.53643083851784E-05,1.37409006129019E-05,-0.52734375,0,0.00887535063113605
-2.39481269090902E-05,1.1530708434293E-05,-0.52734375,0,0.00887535063113605
-2.51041765295668E-05,1.1476043255243E-05,-0.52734375,0,0.00887535063113605
-2.37216190726031E-05,1.07012810985907E-05,-0.52734375,0,0.00887535063113605
-2.26977699639974E-05,1.03364673122996E-05,-0.52734375,0,0.00887535063113605
-2.20032325159991E-05,1.10567898445879E-05,-0.52734375,0,0.00887535063113605
-2.20285764953587E-05,1.14187787403353E-05,-0.52734375,0,0.00887535063113605
-2.37201784329955E-05,1.19510868898942E-05,-0.52734375,0,0.00887535063113605
-2.30691948672757E-05,1.20891045298777E-05,-0.52734375,0,0.00887535063113605
-2.54927363130264E-05,1.27902485473896E-05,-0.52734375,0,0.00887535063113605
-2.56583716691239E-05,1.07026880868943E-05,-0.52734375,0,0.00887535063113605
-2.62978392129298E-05,9.40687459660694E-06,-0.52734375,0,0.00887535063113605
-2.39747314481065E-05,8.38706910144538E-06,-0.52734375,0,0.00887535063113605
-2.46352719841525E-05,8.5599567682948E-06,-0.52734375,0,0.00887535063113605
-2.42349415202625E-05,7.10578933649231E-06,-0.52734375,0,0.00887535063113605
-2.5814499167609E-05,6.58629414829193E-06,-0.52734375,0,0.00887535063113605
-2.58054933510721E-05,6.08902928433963E-06,-0.52734375,0,0.00887535063113605
-2.68700023298152E-05,6.6756160777004E-06,-0.52734375,0,0.00887535063113605
-2.6362360586063E-05,6.88387035552296E-06,-0.52734375,0,0.00887535063113605
-2.51227156695677E-05,8.80957122717518E-06,-0.52734375,0,0.00887535063113605
-2.30265159189003E-05,1.04853770608315E-05,-0.52734375,0,0.00887535063113605
-2.18795867112931E-05,9.88242936728057E-06,-0.52734375,0,0.00887535063113605
-1.8405986338621E-05,7.22745608072728E-06,-0.52734375,0,0.00887535063113605
-2.72810175374616E-05,1.15607708721654E-05,-0.52734375,0,0.00887535063113605
-2.27950458793202E-05,1.22659230328281E-05,-0.52734375,0,0.00887535063113605
-2.78025327133946E-05,1.40199190354906E-05,-0.52734375,0,0.00887535063113605
-2.3402080842061E-05,1.1056774383178E-05,-0.52734375,0,0.00887535063113605
-2.55809227382997E-05,1.40303418447729E-05,-0.52734375,0,0.00887535063113605
-2.43718295678264E-05,1.44986770465039E-05,-0.52734375,0,0.00887535063113605
-2.60693068412365E-05,1.40531801662291E-05,-0.52734375,0,0.00887535063113605
-2.62046451098286E-05,1.23650161185651E-05,-0.52734375,0,0.00887535063113605
-2.68335443251999E-05,1.11406779979006E-05,-0.52734375,0,0.00887535063113605
-2.663668783498E-05,1.03822430901346E-05,-0.52734375,0,0.00887535063113605
-2.42695350607391E-05,1.06594898170442E-05,-0.52734375,0,0.00887535063113605
-2.29805082199164E-05,1.19331789392163E-05,-0.52734375,0,0.00887535063113605
-2.14017836697167E-05,1.16978771984577E-05,-0.52734375,0,0.00887535063113605
-2.28350363613572E-05,1.1947781786148E-05,-0.52734375,0,0.00887535063113605
-2.17987562791677E-05,1.08960093712085E-05,-0.52734375,0,0.00887535063113605
-2.17789129237644E-05,9.81007360678632E-06,-0.52734375,0,0.00887535063113605
-2.02101327886339E-05,6.87704368829145E-06,-0.52734375,0,0.00887535063113605
-2.18776640394935E-05,5.82706570639857E-06,-0.52734375,0,0.00887535063113605
-2.26173997361911E-05,5.75942431169096E-06,-0.52734375,0,0.00887535063113605
-2.36858813877916E-05,5.99110944676795E-06,-0.52734375,0,0.00887535063113605
-2.30457389989169E-05,4.40782878285972E-06,-0.52734375,0,0.00887535063113605
-2.33961382036796E-05,3.93889695260441E-06,-0.52734375,0,0.00887535063113605
-2.2216243451112E-05,6.02930686000036E-06,-0.52734375,0,0.00887535063113605
-2.16885600821115E-05,9.85217138804728E-06,-0.52734375,0,0.00887535063113605
-2.11744918487966E-05,1.25137530631036E-05,-0.52734375,0,0.00887535063113605
-2.07895882340381E-05,1.36760172608774E-05,-0.52734375,0,0.00887535063113605
-1.64858283824287E-05,1.02014500953373E-05,-0.52734375,0,0.00887535063113605
-2.30093064601533E-05,1.3340813893592E-05,-0.52734375,0,0.00887535063113605
-1.61454954650253E-05,8.82627773535205E-06,-0.52734375,0,0.00887535063113605
-1.95707634702558E-05,1.13132300612051E-05,-0.52734375,0,0.00887535063113605
-1.78723585122498E-05,9.36206379265059E-06,-0.52734375,0,0.00887535063113605
-2.28542958211619E-05,1.31427868836909E-05,-0.52734375,0,0.00887535063113605
-2.16804946830962E-05,1.4982940228947E-05,-0.52734375,0,0.00887535063113605
-2.1540048692259E-05,1.8339009329793E-05,-0.52734375,0,0.00887535063113605
-2.12472823477583E-05,1.75899785972433E-05,-0.52734375,0,0.00887535063113605
-2.38477914535906E-05,1.44141413329635E-05,-0.52734375,0,0.00887535063113605
-2.6289000743418E-05,1.13231872092001E-05,-0.52734375,0,0.00887535063113605
-2.55601207754808E-05,9.45419014897197E-06,-0.52734375,0,0.00887535063113605
-2.38614593399689E-05,1.11215886136051E-05,-0.52734375,0,0.00887535063113605
-2.09477348107612E-05,1.18112257041503E-05,-0.52734375,0,0.00887535063113605
-2.19579560507555E-05,1.25371761896531E-05,-0.52734375,0,0.00887535063113605
-2.26300198846729E-05,1.20505337690702E-05,-0.52734375,0,0.00887535063113605
-2.54436199611519E-05,1.29343488879385E-05,-0.52734375,0,0.00887535063113605
-2.60949891526252E-05,1.1557219295355E-05,-0.52734375,0,0.00887535063113605
-2.76389764621854E-05,1.18437346827704E-05,-0.52734375,0,0.00887535063113605
-2.64720911218319E-05,1.30476291815285E-05,-0.52734375,0,0.00887535063113605
-2.52419740718324E-05,1.53072433022317E-05,-0.52734375,0,0.00887535063113605
-2.29715551540721E-05,1.57559206854785E-05,-0.52734375,0,0.00887535063113605
-2.36541673075408E-05,1.53675136971287E-05,-0.52734375,0,0.00887535063113605
-2.53006837738212E-05,1.41550453918171E-05,-0.52734375,0,0.00887535063113605
-2.70307791652158E-05,1.39066924020881E-05,-0.52734375,0,0.00887535063113605
-2.76996961474651E-05,1.41584350785706E-05,-0.52734375,0,0.00887535063113605
-2.81046613963554E-05,1.25474989545182E-05,-0.52734375,0,0.00887535063113605
-2.23153092520079E-05,9.40597419685218E-06,-0.52734375,0,0.00887535063113605
-3.21452935168054E-05,1.38662880999618E-05,-0.52734375,0,0.00887535063113605
-2.56314233411103E-05,1.13322503239033E-05,-0.52734375,0,0.00887535063113605
-3.140689295833E-05,1.41845193866175E-05,-0.52734375,0,0.00887535063113605
-2.58654872595798E-05,1.29901764012175E-05,-0.52734375,0,0.00887535063113605
-2.89931776933372E-05,1.38456589411362E-05,-0.52734375,0,0.00887535063113605
-2.62683861365076E-05,1.06477446024655E-05,-0.52734375,0,0.00887535063113605
-2.64068148680963E-05,9.53560083871707E-06,-0.52734375,0,0.00887535063113605
-2.40242425206816E-05,8.55250527820317E-06,-0.52734375,0,0.00887535063113605
-2.26843185373582E-05,7.20745947546675E-06,-0.52734375,0,0.00887535063113605
-2.17710239667213E-05,5.96395284446771E-06,-0.52734375,0,0.00887535063113605
-2.02626415557461E-05,4.84264319311478E-06,-0.52734375,0,0.00887535063113605
-2.0566672901623E-05,4.94231335324002E-06,-0.52734375,0,0.00887535063113605
-1.98229590750998E-05,4.00310909753898E-06,-0.52734375,0,0.00887535063113605
-2.14528226933908E-05,4.38342431152705E-06,-0.52734375,0,0.00887535063113605
-1.97968965949258E-05,5.41457666258793E-06,-0.52734375,0,0.00887535063113605
-2.07033554033842E-05,8.13656424725195E-06,-0.52734375,0,0.00887535063113605
-2.01672919502016E-05,8.94014101504581E-06,-0.52734375,0,0.00887535063113605
-2.28627541218884E-05,1.07267715065973E-05,-0.52734375,0,0.00887535063113605
-2.36802752624499E-05,1.10072924144333E-05,-0.52734375,0,0.00887535063113605
-2.52590125455754E-05,1.06937968666898E-05,-0.52734375,0,0.00887535063113605
-2.40243025473319E-05,1.170700397779E-05,-0.52734375,0,0.00887535063113605
-2.42585374508053E-05,1.46472866617842E-05,-0.52734375,0,0.00887535063113605
-2.40872923313873E-05,1.5609888578183E-05,-0.52734375,0,0.00887535063113605
-2.50865614361828E-05,1.45277026604163E-05,-0.52734375,0,0.00887535063113605
-2.57643023360288E-05,1.20965733003686E-05,-0.52734375,0,0.00887535063113605
-2.58702384599019E-05,1.02644062280888E-05,-0.52734375,0,0.00887535063113605
-2.08466990443412E-05,7.7627182690776E-06,-0.52734375,0,0.00887535063113605
-2.98543272947427E-05,1.05023200376309E-05,-0.52734375,0,0.00887535063113605
-2.16985281440429E-05,8.40444681671215E-06,-0.52734375,0,0.00887535063113605
-2.55139748333022E-05,1.22098599604215E-05,-0.52734375,0,0.00887535063113605
-2.171988489863E-05,1.14147587737534E-05,-0.52734375,0,0.00887535063113605
-2.55233699135715E-05,1.3205777577241E-05,-0.52734375,0,0.00887535063113605
-2.40409117395757E-05,1.28638321257313E-05,-0.52734375,0,0.00887535063113605
-2.57823812717106E-05,1.24126718219486E-05,-0.52734375,0,0.00887535063113605
-2.52742756856605E-05,9.98401537799509E-06,-0.52734375,0,0.00887535063113605
-2.43403628701344E-05,8.25101324153366E-06,-0.52734375,0,0.00887535063113605
-2.21508798858849E-05,7.90161175245885E-06,-0.52734375,0,0.00887535063113605
-1.90689934242982E-05,8.31004672363633E-06,-0.52734375,0,0.00887535063113605
-1.93472060345812E-05,9.26370375964325E-06,-0.52734375,0,0.00887535063113605
-1.89494821825065E-05,8.77312868396984E-06,-0.52734375,0,0.00887535063113605
-2.09867339435732E-05,8.86301222635666E-06,-0.52734375,0,0.00887535063113605
-2.07507582672406E-05,7.89130081102485E-06,-0.52734375,0,0.00887535063113605
-2.20778965740465E-05,8.44018086354481E-06,-0.52734375,0,0.00887535063113605
-2.07327429961879E-05,8.89758575794986E-06,-0.52734375,0,0.00887535063113605
-2.13477596844314E-05,1.00422330433503E-05,-0.52734375,0,0.00887535063113605
-2.02711235033348E-05,1.00123606898705E-05,-0.52734375,0,0.00887535063113605
-2.12445102079073E-05,1.03467318695039E-05,-0.52734375,0,0.00887535063113605
-2.18137774936622E-05,1.04499031294836E-05,-0.52734375,0,0.00887535063113605
-2.35084389714757E-05,1.10153623609222E-05,-0.52734375,0,0.00887535063113605
-2.41025300056208E-05,1.07565965663525E-05,-0.52734375,0,0.00887535063113605
-2.45794635702623E-05,1.03424599728896E-05,-0.52734375,0,0.00887535063113605
-2.37539370573359E-05,9.81365883490071E-06,-0.52734375,0,0.00887535063113605
-2.41447141888784E-05,9.20786169444909E-06,-0.52734375,0,0.00887535063113605
-2.09802074095933E-05,8.18767421151279E-06,-0.52734375,0,0.00887535063113605
-3.08396483887918E-05,1.38273144330014E-05,-0.52734375,0,0.00887535063113605
-2.43803751800442E-05,1.24926809803583E-05,-0.52734375,0,0.00887535063113605
-2.89168565359432E-05,1.3258991202747E-05,-0.52734375,0,0.00887535063113605
-2.41895650106017E-05,1.16199062176747E-05,-0.52734375,0,0.00887535063113605
-2.67538125626743E-05,1.29270911202184E-05,-0.52734375,0,0.00887535063113605
-2.3856384359533E-05,1.17882245831424E-05,-0.52734375,0,0.00887535063113605
-2.44424263655674E-05,1.11266917883768E-05,-0.52734375,0,0.00887535063113605
-2.39675191551214E-05,1.14617496365099E-05,-0.52734375,0,0.00887535063113605
-2.44685743382433E-05,1.30565131257754E-05,-0.52734375,0,0.00887535063113605
-2.56114944932051E-05,1.36550561364857E-05,-0.52734375,0,0.00887535063113605
-2.58284089795779E-05,1.35651371238055E-05,-0.52734375,0,0.00887535063113605
-2.58971504081273E-05,1.47497366924654E-05,-0.52734375,0,0.00887535063113605
-2.31815301958704E-05,1.5435465684277E-05,-0.52734375,0,0.00887535063113605
-2.39860564761329E-05,1.43519528137404E-05,-0.52734375,0,0.00887535063113605
-2.4400878828601E-05,1.06602019513957E-05,-0.52734375,0,0.00887535063113605
-2.67519808403449E-05,8.347939910891E-06,-0.52734375,0,0.00887535063113605
-2.55071354331449E-05,7.06207674738835E-06,-0.52734375,0,0.00887535063113605
-2.54693550232332E-05,8.58270777825965E-06,-0.52734375,0,0.00887535063113605
-2.41095822275383E-05,1.03301490526064E-05,-0.52734375,0,0.00887535063113605
-2.52821992035024E-05,1.13074747787323E-05,-0.52734375,0,0.00887535063113605
-2.45455939875683E-05,9.69886878010584E-06,-0.52734375,0,0.00887535063113605
-2.37811600527493E-05,8.43095040181652E-06,-0.52734375,0,0.00887535063113605
-2.24184605031041E-05,8.91379931999836E-06,-0.52734375,0,0.00887535063113605
-2.35822717513656E-05,1.02346884887083E-05,-0.52734375,0,0.00887535063113605
-2.45476767304353E-05,9.49379227677127E-06,-0.52734375,0,0.00887535063113605
-2.44327056861948E-05,7.37612299417378E-06,-0.52734375,0,0.00887535063113605
-1.94739059224958E-05,5.17797388965846E-06,-0.52734375,0,0.00887535063113605
-2.64839691226371E-05,7.48057436794625E-06,-0.52734375,0,0.00887535063113605
-1.8492688468541E-05,5.16724276167224E-06,-0.52734375,0,0.00887535063113605
-2.36998002947075E-05,5.32814556208905E-06,-0.52734375,0,0.00887535063113605
-2.09843456104863E-05,4.28670728069847E-06,-0.52734375,0,0.00887535063113605
-2.53948837780626E-05,6.13461043030838E-06,-0.52734375,0,0.00887535063113605
-2.38380180235254E-05,7.77309105615132E-06,-0.52734375,0,0.00887535063113605
-2.38969914789777E-05,1.06764300653595E-05,-0.52734375,0,0.00887535063113605
-2.23842362174764E-05,1.27605089801364E-05,-0.52734375,0,0.00887535063113605
-2.35885272559244E-05,1.4193099559634E-05,-0.52734375,0,0.00887535063113605
-2.51000947173452E-05,1.31704337036354E-05,-0.52734375,0,0.00887535063113605
-2.49887598329224E-05,1.09740867628716E-05,-0.52734375,0,0.00887535063113605
-2.58025411312701E-05,1.02915391835268E-05,-0.52734375,0,0.00887535063113605
-2.51075070991647E-05,1.01401501524379E-05,-0.52734375,0,0.00887535063113605
-2.69566571660107E-05,1.06523384602042E-05,-0.52734375,0,0.00887535063113605
-2.66289316641632E-05,1.07526602732833E-05,-0.52734375,0,0.00887535063113605
-2.79000469163293E-05,1.23361951409606E-05,-0.52734375,0,0.00887535063113605
-2.61360728472937E-05,1.36564831336727E-05,-0.52734375,0,0.00887535063113605
-2.58872314589098E-05,1.54535919136833E-05,-0.52734375,0,0.00887535063113605
-2.38507946050959E-05,1.62449359777384E-05,-0.52734375,0,0.00887535063113605
-2.35730658459943E-05,1.65456222021021E-05,-0.52734375,0,0.00887535063113605
-2.23249826376559E-05,1.5894200259936E-05,-0.52734375,0,0.00887535063113605
-2.33384762395872E-05,1.56627756950911E-05,-0.52734375,0,0.00887535063113605
-2.42828973568976E-05,1.57189024321269E-05,-0.52734375,0,0.00887535063113605
-2.59496446233243E-05,1.56273090397008E-05,-0.52734375,0,0.00887535063113605
-2.58631207543658E-05,1.52839620568557E-05,-0.52734375,0,0.00887535063113605
-2.44542716245633E-05,1.51076083056978E-05,-0.52734375,0,0.00887535063113605
-1.89361217053374E-05,1.14180083983229E-05,-0.52734375,0,0.00887535063113605
-2.66239694610704E-05,1.31161214085296E-05,-0.52734375,0,0.00887535063113605
-1.94978911167709E-05,4.37625158156152E-06,-0.52734375,0,0.00887535063113605
-2.42644855461549E-05,6.38217761661508E-06,-0.52734375,0,0.00887535063113605
-2.12867525988258E-05,6.88279988025897E-06,-0.52734375,0,0.00887535063113605
-2.41464131249813E-05,1.14625645437627E-05,-0.52734375,0,0.00887535063113605
-2.16851531149587E-05,9.56140684138518E-06,-0.52734375,0,0.00887535063113605
-2.25586245505838E-05,9.17229226615746E-06,-0.52734375,0,0.00887535063113605
-2.238410343125E-05,9.41469352255808E-06,-0.52734375,0,0.00887535063113605
-2.42764763243031E-05,1.11022272903938E-05,-0.52734375,0,0.00887535063113605
-2.59573644143529E-05,1.24979824249749E-05,-0.52734375,0,0.00887535063113605
-2.53234029514715E-05,1.28817500808509E-05,-0.52734375,0,0.00887535063113605
-2.53353646257892E-05,1.31581828100025E-05,-0.52734375,0,0.00887535063113605
-2.34131475735921E-05,1.16743658509222E-05,-0.52734375,0,0.00887535063113605
-2.36042469623499E-05,1.14407030196162E-05,-0.52734375,0,0.00887535063113605
-2.20190049731173E-05,1.03565680547035E-05,-0.52734375,0,0.00887535063113605
-2.32281054195482E-05,1.13421092464705E-05,-0.52734375,0,0.00887535063113605
-2.34164253924973E-05,1.12785082819755E-05,-0.52734375,0,0.00887535063113605
-2.49874447035836E-05,1.26879385788925E-05,-0.52734375,0,0.00887535063113605
-2.2580996301258E-05,1.22127967188135E-05,-0.52734375,0,0.00887535063113605
-2.11270762520144E-05,1.20904505820363E-05,-0.52734375,0,0.00887535063113605
-2.06775657716207E-05,1.13225423774566E-05,-0.52734375,0,0.00887535063113605
-2.23759379878175E-05,1.11893568828236E-05,-0.52734375,0,0.00887535063113605
-2.25857129407814E-05,1.04974396890611E-05,-0.52734375,0,0.00887535063113605
-2.3393782612402E-05,1.06641609818325E-05,-0.52734375,0,0.00887535063113605
-2.39794626395451E-05,1.10610471892869E-05,-0.52734375,0,0.00887535063113605
-2.45746687141946E-05,1.21083312478731E-05,-0.52734375,0,0.00887535063113605
-2.0156818209216E-05,1.21343964565312E-05,-0.52734375,0,0.00887535063113605
-2.90281968773343E-05,1.7333715732093E-05,-0.52734375,0,0.00887535063113605
-2.26601023314288E-05,1.01768155218451E-05,-0.52734375,0,0.00887535063113605
-2.7262556614005E-05,8.34753427625401E-06,-0.52734375,0,0.00887535063113605
-2.24892501137219E-05,5.08537823407096E-06,-0.52734375,0,0.00887535063113605
-2.643110929057E-05,8.46563034428982E-06,-0.52734375,0,0.00887535063113605
-2.58373493124964E-05,8.254830390797E-06,-0.52734375,0,0.00887535063113605
-2.6878858989221E-05,7.20149728294928E-06,-0.52734375,0,0.00887535063113605
-2.48217820626451E-05,4.309450105211E-06,-0.52734375,0,0.00887535063113605
-2.38768279814394E-05,3.46643128068536E-06,-0.52734375,0,0.00887535063113605
-2.39109194808407E-05,4.37053586210823E-06,-0.52734375,0,0.00887535063113605
-2.42618061747635E-05,5.31890145794023E-06,-0.52734375,0,0.00887535063113605
-2.65537728409981E-05,6.33001036476344E-06,-0.52734375,0,0.00887535063113605
-2.5341007130919E-05,5.57181374460924E-06,-0.52734375,0,0.00887535063113605
-2.51957571890671E-05,5.92819924349897E-06,-0.52734375,0,0.00887535063113605
-2.3876487830421E-05,4.84301835967926E-06,-0.52734375,0,0.00887535063113605
-2.5998153432738E-05,5.99996246819501E-06,-0.52734375,0,0.00887535063113605
-2.56261646427447E-05,6.82505105942255E-06,-0.52734375,0,0.00887535063113605
-2.61654458881821E-05,7.94505740486784E-06,-0.52734375,0,0.00887535063113605
-2.43192334892228E-05,7.84786971053109E-06,-0.52734375,0,0.00887535063113605
-2.45238043135032E-05,9.32782586460235E-06,-0.52734375,0,0.00887535063113605
-2.46934432652779E-05,9.89761429082137E-06,-0.52734375,0,0.00887535063113605
-2.62144567386713E-05,9.90774606179912E-06,-0.52734375,0,0.00887535063113605
-2.61760778812459E-05,9.23229526961222E-06,-0.52734375,0,0.00887535063113605
-2.60177021118579E-05,1.01905625342624E-05,-0.52734375,0,0.00887535063113605
-2.4753506295383E-05,1.04704358818708E-05,-0.52734375,0,0.00887535063113605
-2.36715441133128E-05,1.04754253698047E-05,-0.52734375,0,0.00887535063113605
-1.8253023881698E-05,9.13714848138625E-06,-0.52734375,0,0.00887535063113605
-2.50019802479073E-05,1.21604089144967E-05,-0.52734375,0,0.00887535063113605
-1.7675876733847E-05,7.9937226473703E-06,-0.52734375,0,0.00887535063113605
-2.25344665523153E-05,1.09821057776571E-05,-0.52734375,0,0.00887535063113605
-1.97452936845366E-05,1.07591586129274E-05,-0.52734375,0,0.00887535063113605
-2.33067112276331E-05,1.34167148644337E-05,-0.52734375,0,0.00887535063113605
-2.04135831154417E-05,1.21234988910146E-05,-0.52734375,0,0.00887535063113605
-2.01468046725495E-05,1.14528302219696E-05,-0.52734375,0,0.00887535063113605
-2.09059544431511E-05,1.17517929538735E-05,-0.52734375,0,0.00887535063113605
-2.26476331590675E-05,1.27727516883169E-05,-0.52734375,0,0.00887535063113605
-2.21432346734218E-05,1.3401712749328E-05,-0.52734375,0,0.00887535063113605
-2.00522354134591E-05,1.29898662635242E-05,-0.52734375,0,0.00887535063113605
-2.06887416425161E-05,1.33105804707156E-05,-0.52734375,0,0.00887535063113605
-2.09005374927074E-05,1.29269874378224E-05,-0.52734375,0,0.00887535063113605
-2.28429471462732E-05,1.3368318832363E-05,-0.52734375,0,0.00887535063113605
-2.22746366489446E-05,1.12996885945904E-05,-0.52734375,0,0.00887535063113605
-2.36400046560448E-05,8.58958537719445E-06,-0.52734375,0,0.00887535063113605
-2.30255154747283E-05,6.55346048006322E-06,-0.52734375,0,0.00887535063113605
-2.3562566639157E-05,7.53253743823734E-06,-0.52734375,0,0.00887535063113605
-2.16784355870914E-05,7.64148262533126E-06,-0.52734375,0,0.00887535063113605
-2.1838306565769E-05,7.79109177528881E-06,-0.52734375,0,0.00887535063113605
-2.20944621105446E-05,7.96630047261715E-06,-0.52734375,0,0.00887535063113605
-2.30924852075987E-05,9.51116544456454E-06,-0.52734375,0,0.00887535063113605
-2.23290189751424E-05,1.11908539111027E-05,-0.52734375,0,0.00887535063113605
-2.29112501983764E-05,1.2488952052081E-05,-0.52734375,0,0.00887535063113605
-2.42918031290174E-05,1.18222851597238E-05,-0.52734375,0,0.00887535063113605
-2.5826890123426E-05,1.0329369615647E-05,-0.52734375,0,0.00887535063113605
-2.09637328225654E-05,8.45057911647018E-06,-0.52734375,0,0.00887535063113605
-2.80943677353207E-05,1.34355404952657E-05,-0.52734375,0,0.00887535063113605
-1.89644251804566E-05,1.32768991534249E-05,-0.52734375,0,0.00887535063113605
-2.43183494603727E-05,1.55541911226464E-05,-0.52734375,0,0.00887535063113605
-2.1373338313424E-05,1.30150765471626E-05,-0.52734375,0,0.00887535063113605
-2.66750521404902E-05,1.55907600856153E-05,-0.52734375,0,0.00887535063113605
-2.54439146374352E-05,1.55814250319963E-05,-0.52734375,0,0.00887535063113605
-2.67192190221976E-05,1.48655581142521E-05,-0.52734375,0,0.00887535063113605
-2.59937205555616E-05,1.32069017126923E-05,-0.52734375,0,0.00887535063113605
-2.60495089605683E-05,1.36339494929416E-05,-0.52734375,0,0.00887535063113605
-2.52917889156379E-05,1.51906560859061E-05,-0.52734375,0,0.00887535063113605
-2.37627245951444E-05,1.53762321133399E-05,-0.52734375,0,0.00887535063113605
-2.51210549322423E-05,1.432859335182E-05,-0.52734375,0,0.00887535063113605
-2.49820968747372E-05,1.1898456250492E-05,-0.52734375,0,0.00887535063113605
-2.61223467532545E-05,1.07054129330209E-05,-0.52734375,0,0.00887535063113605
-2.37542844843119E-05,7.9412930062972E-06,-0.52734375,0,0.00887535063113605
-2.3414639144903E-05,6.96237657393795E-06,-0.52734375,0,0.00887535063113605
-2.15513900911901E-05,7.71544819144765E-06,-0.52734375,0,0.00887535063113605
-2.3067104848451E-05,9.19911417440744E-06,-0.52734375,0,0.00887535063113605
-2.29212528211065E-05,8.24557901069056E-06,-0.52734375,0,0.00887535063113605
-2.4123959519784E-05,8.61252192407846E-06,-0.52734375,0,0.00887535063113605
-2.35335082834354E-05,9.77648960542865E-06,-0.52734375,0,0.00887535063113605
-2.36488958762493E-05,1.22789469969575E-05,-0.52734375,0,0.00887535063113605
-2.30131354328478E-05,1.49756651808275E-05,-0.52734375,0,0.00887535063113605
-2.38929951592581E-05,1.75665172719164E-05,-0.52734375,0,0.00887535063113605
-2.38019929383881E-05,1.84986729436787E-05,-0.52734375,0,0.00887535063113605
-2.33637765632011E-05,1.69313370861346E-05,-0.52734375,0,0.00887535063113605
-1.86745492101181E-05,1.21161401693826E-05,-0.52734375,0,0.00887535063113605
-2.59627977357013E-05,1.64345692610368E-05,-0.52734375,0,0.00887535063113605
-1.9085508029093E-05,1.0968431524816E-05,-0.52734375,0,0.00887535063113605
-2.37208314501913E-05,1.23521849673125E-05,-0.52734375,0,0.00887535063113605
-1.99704027181724E-05,8.35114406072535E-06,-0.52734375,0,0.00887535063113605
-2.33787814067909E-05,9.45031024457421E-06,-0.52734375,0,0.00887535063113605
-2.21204918489093E-05,5.79393281441298E-06,-0.52734375,0,0.00887535063113605
-2.29967954510357E-05,4.29320971306879E-06,-0.52734375,0,0.00887535063113605
-2.21456011786358E-05,3.94187554775272E-06,-0.52734375,0,0.00887535063113605
-2.27339460252551E-05,5.70132351640495E-06,-0.52734375,0,0.00887535063113605
-2.27245709538693E-05,7.80602567829192E-06,-0.52734375,0,0.00887535063113605
-2.05262113013305E-05,7.47551985114114E-06,-0.52734375,0,0.00887535063113605
-2.06558470381424E-05,6.52857943350682E-06,-0.52734375,0,0.00887535063113605
-2.0470059098443E-05,4.70649547423818E-06,-0.52734375,0,0.00887535063113605
-2.21639675146434E-05,5.83497467232519E-06,-0.52734375,0,0.00887535063113605
-2.16266653296771E-05,6.21096296526957E-06,-0.52734375,0,0.00887535063113605
-2.41624838963617E-05,8.13658334664069E-06,-0.52734375,0,0.00887535063113605
-2.48532815021463E-05,9.0419662228669E-06,-0.52734375,0,0.00887535063113605
-2.60495580732822E-05,1.07703554022009E-05,-0.52734375,0,0.00887535063113605
-2.42532805714291E-05,1.09474749478977E-05,-0.52734375,0,0.00887535063113605
-2.34442686632974E-05,1.12092429844779E-05,-0.52734375,0,0.00887535063113605
-2.24608975258889E-05,9.29387897485867E-06,-0.52734375,0,0.00887535063113605
-2.41194848058512E-05,7.10578069629264E-06,-0.52734375,0,0.00887535063113605
-2.51968922384549E-05,5.91605476074619E-06,-0.52734375,0,0.00887535063113605
-2.56746898230631E-05,7.48973843656131E-06,-0.52734375,0,0.00887535063113605
-2.34337785514072E-05,8.25438473839313E-06,-0.52734375,0,0.00887535063113605
-2.12654813367408E-05,8.17032923805527E-06,-0.52734375,0,0.00887535063113605
-1.85305361810606E-05,6.96572078595636E-06,-0.52734375,0,0.00887535063113605
-2.80123804259347E-05,9.32083094085101E-06,-0.52734375,0,0.00887535063113605
-2.25552994379541E-05,5.76820775677334E-06,-0.52734375,0,0.00887535063113605
-2.68995263468241E-05,6.99040310792043E-06,-0.52734375,0,0.00887535063113605
-2.32571037486196E-05,6.71661973683513E-06,-0.52734375,0,0.00887535063113605
-2.53325742960442E-05,8.91625859367196E-06,-0.52734375,0,0.00887535063113605
-2.457477421558E-05,7.92816899775062E-06,-0.52734375,0,0.00887535063113605
-2.65153357759118E-05,8.37708739709342E-06,-0.52734375,0,0.00887535063113605
-2.56409584835637E-05,1.01428868219955E-05,-0.52734375,0,0.00887535063113605
-2.46901945502032E-05,1.16421779239317E-05,-0.52734375,0,0.00887535063113605
-2.42878613789799E-05,1.14677441160893E-05,-0.52734375,0,0.00887535063113605
-2.34244707826292E-05,1.03641395980958E-05,-0.52734375,0,0.00887535063113605
-2.45209666900337E-05,9.85011229204247E-06,-0.52734375,0,0.00887535063113605
-2.4585795472376E-05,8.76986632647458E-06,-0.52734375,0,0.00887535063113605
-2.58998734352645E-05,9.01819930732017E-06,-0.52734375,0,0.00887535063113605
-2.43492122535827E-05,9.02156079973793E-06,-0.52734375,0,0.00887535063113605
-2.39352102653356E-05,9.43134728004225E-06,-0.52734375,0,0.00887535063113605
-2.25186322495574E-05,9.30080841499148E-06,-0.52734375,0,0.00887535063113605
-2.38954253291013E-05,1.05023655123659E-05,-0.52734375,0,0.00887535063113605
-2.33361442951718E-05,1.10584187495988E-05,-0.52734375,0,0.00887535063113605
-2.3354594304692E-05,1.1330982488289E-05,-0.52734375,0,0.00887535063113605
-2.27631207962986E-05,1.13046908154502E-05,-0.52734375,0,0.00887535063113605
-2.26543270400725E-05,1.35918526211753E-05,-0.52734375,0,0.00887535063113605
-2.17057604459114E-05,1.51557087519905E-05,-0.52734375,0,0.00887535063113605
-2.30380937864538E-05,1.53656510519795E-05,-0.52734375,0,0.00887535063113605
-2.47113985096803E-05,1.52269103637082E-05,-0.52734375,0,0.00887535063113605
-2.5058949177037E-05,1.33653466036776E-05,-0.52734375,0,0.00887535063113605
-1.94700241991086E-05,7.74924137658672E-06,-0.52734375,0,0.00887535063113605
-2.79359283013036E-05,8.41245855554007E-06,-0.52734375,0,0.00887535063113605
-2.29899433179526E-05,3.56443456439592E-06,-0.52734375,0,0.00887535063113605
-2.96676607831614E-05,5.48599655303406E-06,-0.52734375,0,0.00887535063113605
-2.49958284257445E-05,2.59639500654885E-06,-0.52734375,0,0.00887535063113605
-2.68964940914884E-05,3.73647299056756E-06,-0.52734375,0,0.00887535063113605
-2.49473123403732E-05,4.85435612063156E-06,-0.52734375,0,0.00887535063113605
-2.62066423601937E-05,7.71998293203069E-06,-0.52734375,0,0.00887535063113605
-2.54978785960702E-05,7.7369177233777E-06,-0.52734375,0,0.00887535063113605
-2.58153340837453E-05,7.82062488724478E-06,-0.52734375,0,0.00887535063113605
-2.62556459347252E-05,8.74007855600212E-06,-0.52734375,0,0.00887535063113605
-2.54861151915975E-05,1.14057447717641E-05,-0.52734375,0,0.00887535063113605
-2.61349941865774E-05,1.44269197335234E-05,-0.52734375,0,0.00887535063113605
-2.55246086453553E-05,1.39038456836715E-05,-0.52734375,0,0.00887535063113605
-2.75080692517804E-05,1.26648246805416E-05,-0.52734375,0,0.00887535063113605
-2.66493170784088E-05,1.07495261545409E-05,-0.52734375,0,0.00887535063113605
-2.61617515207035E-05,1.16311257443158E-05,-0.52734375,0,0.00887535063113605
-2.33724786085077E-05,1.33553949126508E-05,-0.52734375,0,0.00887535063113605
-2.40386107179802E-05,1.55976722453488E-05,-0.52734375,0,0.00887535063113605
-2.42052792600589E-05,1.46710817716666E-05,-0.52734375,0,0.00887535063113605
-2.605538975331E-05,1.43503239087295E-05,-0.52734375,0,0.00887535063113605
-2.5765741156647E-05,1.36841299536172E-05,-0.52734375,0,0.00887535063113605
-2.54405695159221E-05,1.3159751688363E-05,-0.52734375,0,0.00887535063113605
-2.37885451497277E-05,1.25573451441596E-05,-0.52734375,0,0.00887535063113605
-2.27922937483527E-05,1.38107034217683E-05,-0.52734375,0,0.00887535063113605
-2.19801495404681E-05,1.46037555168732E-05,-0.52734375,0,0.00887535063113605
-2.20997553697089E-05,1.36929274958675E-05,-0.52734375,0,0.00887535063113605
-1.92161096492782E-05,1.10289165604627E-05,-0.52734375,0,0.00887535063113605
-2.79222440440208E-05,1.51459826156497E-05,-0.52734375,0,0.00887535063113605
-2.13924686249811E-05,1.08077392724226E-05,-0.52734375,0,0.00887535063113605
-2.56819348578574E-05,1.34566935230396E-05,-0.52734375,0,0.00887535063113605
-2.13446146517526E-05,1.08643507701345E-05,-0.52734375,0,0.00887535063113605
-2.35746229009237E-05,1.2972322110727E-05,-0.52734375,0,0.00887535063113605
-2.30978748732014E-05,1.16997789518791E-05,-0.52734375,0,0.00887535063113605
-2.50139728450449E-05,1.11567114799982E-05,-0.52734375,0,0.00887535063113605
-2.3804201191524E-05,1.0132037459698E-05,-0.52734375,0,0.00887535063113605
-2.33429400395835E-05,9.99090934783453E-06,-0.52734375,0,0.00887535063113605
-2.36220294027589E-05,1.0256656423735E-05,-0.52734375,0,0.00887535063113605
-2.38346638070652E-05,9.64840091910446E-06,-0.52734375,0,0.00887535063113605
-2.5326100512757E-05,1.12550542326062E-05,-0.52734375,0,0.00887535063113605
-2.48388387262821E-05,1.30800672195619E-05,-0.52734375,0,0.00887535063113605
-2.62146295426646E-05,1.56137066369411E-05,-0.52734375,0,0.00887535063113605
-2.52525351243094E-05,1.51568428918836E-05,-0.52734375,0,0.00887535063113605
-2.54847091127886E-05,1.5106827049749E-05,-0.52734375,0,0.00887535063113605
-2.35839343076805E-05,1.46244719871902E-05,-0.52734375,0,0.00887535063113605
-2.39129913097713E-05,1.45589610838215E-05,-0.52734375,0,0.00887535063113605
-2.26688553084387E-05,1.26023878692649E-05,-0.52734375,0,0.00887535063113605
-2.32029742619488E-05,1.14913054858334E-05,-0.52734375,0,0.00887535063113605
-2.2527032342623E-05,1.06313436845085E-05,-0.52734375,0,0.00887535063113605
-2.31549329328118E-05,1.06743982541957E-05,-0.52734375,0,0.00887535063113605
-2.31192407227354E-05,9.88340798357967E-06,-0.52734375,0,0.00887535063113605
-2.26841475523543E-05,1.02932717709336E-05,-0.52734375,0,0.00887535063113605
-2.25453732127789E-05,1.09269194581429E-05,-0.52734375,0,0.00887535063113605
-2.30099394684657E-05,1.0127710083907E-05,-0.52734375,0,0.00887535063113605
-1.86641300388146E-05,6.8282301981526E-06,-0.52734375,0,0.00887535063113605
-2.70255568466382E-05,1.08407493826235E-05,-0.52734375,0,0.00887535063113605
-2.18671575566987E-05,1.13861660793191E-05,-0.52734375,0,0.00887535063113605
-2.74232970696175E-05,1.4637619642599E-05,-0.52734375,0,0.00887535063113605
-2.35133029491408E-05,1.3417205082078E-05,-0.52734375,0,0.00887535063113605
-2.61075638263719E-05,1.45647709359764E-05,-0.52734375,0,0.00887535063113605
-2.47238021984231E-05,1.30469752548379E-05,-0.52734375,0,0.00887535063113605
-2.62216308328789E-05,1.18000198199297E-05,-0.52734375,0,0.00887535063113605
-2.50194807449589E-05,1.02049052657094E-05,-0.52734375,0,0.00887535063113605
-2.35543884627987E-05,9.88457304629264E-06,-0.52734375,0,0.00887535063113605
-2.24262275878573E-05,1.01579908005078E-05,-0.52734375,0,0.00887535063113605
-2.08895180549007E-05,9.30686474021059E-06,-0.52734375,0,0.00887535063113605
-2.13186085602501E-05,7.48213096812833E-06,-0.52734375,0,0.00887535063113605
-2.12783688766649E-05,5.35489425601554E-06,-0.52734375,0,0.00887535063113605
-2.41675043071155E-05,5.35592153028119E-06,-0.52734375,0,0.00887535063113605
-2.44666971411789E-05,5.35355638930923E-06,-0.52734375,0,0.00887535063113605
-2.50840530497953E-05,6.04960814598599E-06,-0.52734375,0,0.00887535063113605
-2.33012196986238E-05,6.21505159870139E-06,-0.52734375,0,0.00887535063113605
-2.45687606366118E-05,8.5122510427027E-06,-0.52734375,0,0.00887535063113605
-2.46292020165129E-05,1.09347984107444E-05,-0.52734375,0,0.00887535063113605
-2.48638134507928E-05,1.26694058053545E-05,-0.52734375,0,0.00887535063113605
-2.35629413509741E-05,1.39019093694515E-05,-0.52734375,0,0.00887535063113605
-2.44323091465048E-05,1.67479502124479E-05,-0.52734375,0,0.00887535063113605
-2.42033656832064E-05,1.81813175004208E-05,-0.52734375,0,0.00887535063113605
-2.3833319573896E-05,1.70309613167774E-05,-0.52734375,0,0.00887535063113605
-2.41473189817043E-05,1.47764185385313E-05,-0.52734375,0,0.00887535063113605
-2.38555021496722E-05,1.3108800885675E-05,-0.52734375,0,0.00887535063113605
-1.81202449311968E-05,1.0077466868097E-05,-0.52734375,0,0.00887535063113605
-2.45409646595363E-05,1.55015677592019E-05,-0.52734375,0,0.00887535063113605
-1.68989372468786E-05,1.22539468065952E-05,-0.52734375,0,0.00887535063113605
-2.16680418816395E-05,1.20583899843041E-05,-0.52734375,0,0.00887535063113605
-1.92783227248583E-05,8.60580621520057E-06,-0.52734375,0,0.00887535063113605
-2.36697469517821E-05,1.10832452264731E-05,-0.52734375,0,0.00887535063113605
-2.34879335039295E-05,1.03712018244551E-05,-0.52734375,0,0.00887535063113605
-2.62519315583631E-05,9.9087119451724E-06,-0.52734375,0,0.00887535063113605
-2.62336652667727E-05,8.35725131764775E-06,-0.52734375,0,0.00887535063113605
-2.58986492553959E-05,7.72099156165496E-06,-0.52734375,0,0.00887535063113605
-2.52166173595469E-05,8.46779312269064E-06,-0.52734375,0,0.00887535063113605
-2.32286511163693E-05,9.04973694559885E-06,-0.52734375,0,0.00887535063113605
-2.31140438700095E-05,9.33488718146691E-06,-0.52734375,0,0.00887535063113605
-2.24983741645701E-05,8.31236957310466E-06,-0.52734375,0,0.00887535063113605
-2.40328481595498E-05,9.41014423005981E-06,-0.52734375,0,0.00887535063113605
-2.2961958165979E-05,9.6557587312418E-06,-0.52734375,0,0.00887535063113605
-2.41286124946782E-05,1.02482181318919E-05,-0.52734375,0,0.00887535063113605
-2.28794269787613E-05,1.06645557025331E-05,-0.52734375,0,0.00887535063113605
-2.25928906729678E-05,1.22199689940317E-05,-0.52734375,0,0.00887535063113605
-2.07642351597315E-05,1.10938790385262E-05,-0.52734375,0,0.00887535063113605
-2.10640027944464E-05,1.01918267318979E-05,-0.52734375,0,0.00887535063113605
-2.04318148462335E-05,9.96862218016759E-06,-0.52734375,0,0.00887535063113605
-2.08311794267502E-05,9.8753180282074E-06,-0.52734375,0,0.00887535063113605
-2.07452267204644E-05,8.53216261020862E-06,-0.52734375,0,0.00887535063113605
-2.12470313272206E-05,9.19033664104063E-06,-0.52734375,0,0.00887535063113605
-2.04605184990214E-05,1.05754825199256E-05,-0.52734375,0,0.00887535063113605
-1.79203743755352E-05,1.12994566734415E-05,-0.52734375,0,0.00887535063113605
-1.35034015329438E-05,9.94243964669295E-06,-0.52734375,0,0.00887535063113605
-2.04487241717288E-05,1.28062083604163E-05,-0.52734375,0,0.00887535063113605
-1.80519728019135E-05,6.71346197123057E-06,-0.52734375,0,0.00887535063113605
-2.28859989874763E-05,7.83906398282852E-06,-0.52734375,0,0.00887535063113605
-2.13022631214699E-05,5.47140280104941E-06,-0.52734375,0,0.00887535063113605
-2.39398741541663E-05,6.88223690303857E-06,-0.52734375,0,0.00887535063113605
-2.30532968998887E-05,6.77814250593656E-06,-0.52734375,0,0.00887535063113605
-2.38559950958006E-05,8.12441248854157E-06,-0.52734375,0,0.00887535063113605
-2.34826420637546E-05,7.87726821727119E-06,-0.52734375,0,0.00887535063113605
-2.34529579756781E-05,8.39540643937653E-06,-0.52734375,0,0.00887535063113605
-2.25231160584372E-05,9.31853810470784E-06,-0.52734375,0,0.00887535063113605
-2.12899867619853E-05,9.031035915541E-06,-0.52734375,0,0.00887535063113605
-2.28171011258382E-05,8.92593016033061E-06,-0.52734375,0,0.00887535063113605
-2.34946692216909E-05,8.31321995065082E-06,-0.52734375,0,0.00887535063113605
-2.46996296482394E-05,9.65670278674224E-06,-0.52734375,0,0.00887535063113605
-2.37959866353776E-05,9.37746244744631E-06,-0.52734375,0,0.00887535063113605
-2.35863863053964E-05,9.07959474716336E-06,-0.52734375,0,0.00887535063113605
-2.17432407225715E-05,7.78899811848532E-06,-0.52734375,0,0.00887535063113605
-2.27613982133335E-05,8.75102614372736E-06,-0.52734375,0,0.00887535063113605
-2.37324748013634E-05,9.72946236288408E-06,-0.52734375,0,0.00887535063113605
-2.44599614234176E-05,1.14437871161499E-05,-0.52734375,0,0.00887535063113605
-2.37041967920959E-05,1.18683055916335E-05,-0.52734375,0,0.00887535063113605
-2.48706728598336E-05,1.23732697829837E-05,-0.52734375,0,0.00887535063113605
-2.58307318290463E-05,1.27711355162319E-05,-0.52734375,0,0.00887535063113605
-2.55498634942342E-05,1.34146557684289E-05,-0.52734375,0,0.00887535063113605
-2.28885219257791E-05,1.24176131066633E-05,-0.52734375,0,0.00887535063113605
-2.05101168830879E-05,1.06123115983792E-05,-0.52734375,0,0.00887535063113605
-1.7837201085058E-05,1.0222329365206E-05,-0.52734375,0,0.00887535063113605
-2.74516714853235E-05,1.64731100085191E-05,-0.52734375,0,0.00887535063113605
-2.26316733460408E-05,1.40655793074984E-05,-0.52734375,0,0.00887535063113605
-2.58475556620397E-05,1.52176107803825E-05,-0.52734375,0,0.00887535063113605
-2.26371721510077E-05,1.21752791528706E-05,-0.52734375,0,0.00887535063113605
-2.56927178270416E-05,1.05930193967652E-05,-0.52734375,0,0.00887535063113605
-2.43743488681503E-05,6.37981474937988E-06,-0.52734375,0,0.00887535063113605
-2.62160319834948E-05,5.12848055223003E-06,-0.52734375,0,0.00887535063113605
-2.60484393947991E-05,4.23130722992937E-06,-0.52734375,0,0.00887535063113605
-2.64187619904988E-05,4.64907043351559E-06,-0.52734375,0,0.00887535063113605
-2.69696047325851E-05,4.62508251075633E-06,-0.52734375,0,0.00887535063113605
-2.65648468484869E-05,2.71567682830209E-06,-0.52734375,0,0.00887535063113605
-2.63074580288958E-05,1.86025786774735E-07,-0.52734375,0,0.00887535063113605
-2.39371693169232E-05,-2.0765476165252E-06,-0.52734375,0,0.00887535063113605
-2.44396233028965E-05,6.36831089195766E-07,-0.52734375,0,0.00887535063113605
-2.44043185375631E-05,6.38489609627868E-06,-0.52734375,0,0.00887535063113605
-2.52011504926486E-05,1.50992063936428E-05,-0.52734375,0,0.00887535063113605
-2.31002777582034E-05,2.249071985716E-05,-0.52734375,0,0.00887535063113605
-2.43494268943323E-05,2.67768427875126E-05,-0.52734375,0,0.00887535063113605
-2.59688549704151E-05,2.39713481278159E-05,-0.52734375,0,0.00887535063113605
-2.86648646579124E-05,1.81230352609418E-05,-0.52734375,0,0.00887535063113605
-2.81771190202562E-05,1.30414282466518E-05,-0.52734375,0,0.00887535063113605
-2.62889698205981E-05,1.22408519018791E-05,-0.52734375,0,0.00887535063113605
-2.37528292927891E-05,1.33729699882679E-05,-0.52734375,0,0.00887535063113605
-2.38021311815828E-05,1.64497869263869E-05,-0.52734375,0,0.00887535063113605
-2.44815528276376E-05,2.02010432985844E-05,-0.52734375,0,0.00887535063113605
-2.41943107539555E-05,2.0979836335755E-05,-0.52734375,0,0.00887535063113605
-1.89357033377746E-05,8.14153281680774E-06,-0.52734375,0,0.00887535063113605
-2.71500466624275E-05,1.91250910575036E-06,-0.52734375,0,0.00887535063113605
-2.26659940381069E-05,-1.07532196125248E-05,-0.52734375,0,0.00887535063113605
-2.94184319500346E-05,-9.72113593888935E-06,-0.52734375,0,0.00887535063113605
-2.5224451746908E-05,-9.44831481319852E-06,-0.52734375,0,0.00887535063113605
-2.71333410637453E-05,1.81803136456438E-06,-0.52734375,0,0.00887535063113605
-2.44528928305954E-05,7.33864362700842E-06,-0.52734375,0,0.00887535063113605
-2.57167048403062E-05,9.36697051656665E-06,-0.52734375,0,0.00887535063113605
-2.56068487942684E-05,7.92383161751786E-06,-0.52734375,0,0.00887535063113605
-2.57538340520114E-05,8.10010260465788E-06,-0.52734375,0,0.00887535063113605
-2.60225406236714E-05,8.69393352331826E-06,-0.52734375,0,0.00887535063113605
-2.513417530281E-05,1.23279360195738E-05,-0.52734375,0,0.00887535063113605
-2.5959041522583E-05,2.13886669371277E-05,-0.52734375,0,0.00887535063113605
-2.55943778029177E-05,2.74607809842564E-05,-0.52734375,0,0.00887535063113605
-2.77357776212739E-05,2.89096133201383E-05,-0.52734375,0,0.00887535063113605
-2.76586015388602E-05,2.5159475626424E-05,-0.52734375,0,0.00887535063113605
-2.91015221591806E-05,2.31020821956918E-05,-0.52734375,0,0.00887535063113605
-2.85723963315832E-05,2.04033403861104E-05,-0.52734375,0,0.00887535063113605
-3.04679069813574E-05,1.90728005691199E-05,-0.52734375,0,0.00887535063113605
-2.98476988973562E-05,1.60845611389959E-05,-0.52734375,0,0.00887535063113605
-2.8844726330135E-05,1.43976385515998E-05,-0.52734375,0,0.00887535063113605
-2.69111860689009E-05,1.34372130560223E-05,-0.52734375,0,0.00887535063113605
-2.7768795916927E-05,1.41826794788358E-05,-0.52734375,0,0.00887535063113605
-2.72499382845126E-05,1.25004016808816E-05,-0.52734375,0,0.00887535063113605
-2.56925104622496E-05,1.01836358226137E-05,-0.52734375,0,0.00887535063113605
-2.45160626946017E-05,9.59852604864864E-06,-0.52734375,0,0.00887535063113605
-2.50490938924486E-05,1.05574008557596E-05,-0.52734375,0,0.00887535063113605
-2.08385463338345E-05,8.87454189069103E-06,-0.52734375,0,0.00887535063113605
-2.94681758532533E-05,1.3211132682045E-05,-0.52734375,0,0.00887535063113605
-2.12441173061961E-05,1.27166531456169E-05,-0.52734375,0,0.00887535063113605
-2.5018300220836E-05,1.7079821191146E-05,-0.52734375,0,0.00887535063113605
-2.03640211111633E-05,1.52884331328096E-05,-0.52734375,0,0.00887535063113605
-2.41194338741479E-05,1.64446973940358E-05,-0.52734375,0,0.00887535063113605
-2.37822969211265E-05,1.52056172737502E-05,-0.52734375,0,0.00887535063113605
-2.59193584497552E-05,1.37674396682996E-05,-0.52734375,0,0.00887535063113605
-2.45164992520586E-05,1.1844577784359E-05,-0.52734375,0,0.00887535063113605
-2.37349086091854E-05,1.15725833893521E-05,-0.52734375,0,0.00887535063113605
-2.29372835747199E-05,1.15918064693687E-05,-0.52734375,0,0.00887535063113605
-2.15258605749113E-05,1.00335864772205E-05,-0.52734375,0,0.00887535063113605
-2.21312566281995E-05,7.10063432052266E-06,-0.52734375,0,0.00887535063113605
-2.18198856600793E-05,3.89056413041544E-06,-0.52734375,0,0.00887535063113605
-2.44085567828733E-05,4.69015049020527E-06,-0.52734375,0,0.00887535063113605
-2.43871945713181E-05,6.96689903634251E-06,-0.52734375,0,0.00887535063113605
-2.58287109318189E-05,1.06042689367314E-05,-0.52734375,0,0.00887535063113605
-2.37615422520321E-05,9.99215808406007E-06,-0.52734375,0,0.00887535063113605
-2.27932414418319E-05,6.03969510848401E-06,-0.52734375,0,0.00887535063113605
-1.99986843654187E-05,4.61336867374484E-06,-0.52734375,0,0.00887535063113605
-1.96246437553782E-05,1.23765803436982E-05,-0.52734375,0,0.00887535063113605
-1.88026879186509E-05,2.09358895517653E-05,-0.52734375,0,0.00887535063113605
-2.003524605243E-05,2.28519274969585E-05,-0.52734375,0,0.00887535063113605
-2.10767993849004E-05,1.93311279872432E-05,-0.52734375,0,0.00887535063113605
-2.19317716982914E-05,1.59667779371375E-05,-0.52734375,0,0.00887535063113605
-2.1451602151501E-05,1.21513558042352E-05,-0.52734375,0,0.00887535063113605
-2.1315065168892E-05,8.57738905324368E-06,-0.52734375,0,0.00887535063113605
-1.8133263438358E-05,4.78576203022385E-06,-0.52734375,0,0.00887535063113605
-2.67630457528867E-05,7.28044096831582E-06,-0.52734375,0,0.00887535063113605
-2.12961494980846E-05,7.58711166781723E-06,-0.52734375,0,0.00887535063113605
-2.50486464210553E-05,1.00697161542485E-05,-0.52734375,0,0.00887535063113605
-2.05745236598887E-05,8.17560430732556E-06,-0.52734375,0,0.00887535063113605
-2.27116979658604E-05,7.3051573963312E-06,-0.52734375,0,0.00887535063113605
-2.07817229238572E-05,5.43892110727029E-06,-0.52734375,0,0.00887535063113605
-2.10420730581973E-05,5.86748683417682E-06,-0.52734375,0,0.00887535063113605
-1.9768982383539E-05,7.62174704505014E-06,-0.52734375,0,0.00887535063113605
-1.99221012735507E-05,9.21759601624217E-06,-0.52734375,0,0.00887535063113605
-2.01342973014107E-05,1.04977580122068E-05,-0.52734375,0,0.00887535063113605
-1.86059951374773E-05,1.15770835691364E-05,-0.52734375,0,0.00887535063113605
-1.91210474440595E-05,1.25138849398354E-05,-0.52734375,0,0.00887535063113605
-1.88518297363771E-05,1.1829146387754E-05,-0.52734375,0,0.00887535063113605
-2.04784337256569E-05,1.12906645881594E-05,-0.52734375,0,0.00887535063113605
-2.00691247300711E-05,1.14607264549704E-05,-0.52734375,0,0.00887535063113605
-2.16403841477586E-05,1.19128189908224E-05,-0.52734375,0,0.00887535063113605
-2.16689331864472E-05,1.0268461664964E-05,-0.52734375,0,0.00887535063113605
-2.35077786783222E-05,9.15044802241027E-06,-0.52734375,0,0.00887535063113605
-2.2974056264502E-05,8.70172880240716E-06,-0.52734375,0,0.00887535063113605
-2.35403822443914E-05,6.00555404162151E-06,-0.52734375,0,0.00887535063113605
-2.39045075431932E-05,-2.39075643548858E-06,-0.52734375,0,0.00887535063113605
-2.38259144680342E-05,-8.66260415932629E-06,-0.52734375,0,0.00887535063113605
-2.1606403606711E-05,-5.26655276189558E-06,-0.52734375,0,0.00887535063113605
-2.11194528674241E-05,2.54305109592678E-06,-0.52734375,0,0.00887535063113605
-2.20416332012974E-05,5.25474843016127E-06,-0.52734375,0,0.00887535063113605
-2.29533725359943E-05,6.94410744017659E-07,-0.52734375,0,0.00887535063113605
-1.86604211194208E-05,-3.10107407130999E-06,-0.52734375,0,0.00887535063113605
-2.72933393716812E-05,-1.45402464113431E-06,-0.52734375,0,0.00887535063113605
-2.21167210838757E-05,8.61539228935726E-06,-0.52734375,0,0.00887535063113605
-2.75405964202946E-05,1.41618838824797E-05,-0.52734375,0,0.00887535063113605
-2.45329611061607E-05,1.30908792925766E-05,-0.52734375,0,0.00887535063113605
-2.82094879366923E-05,6.33548870609957E-06,-0.52734375,0,0.00887535063113605
-2.68737039732514E-05,1.2141194929427E-06,-0.52734375,0,0.00887535063113605
-2.76973751169862E-05,9.72918655861577E-07,-0.52734375,0,0.00887535063113605
-2.63572255789768E-05,3.43235046784685E-06,-0.52734375,0,0.00887535063113605
-2.61095174209913E-05,4.78000674775103E-06,-0.52734375,0,0.00887535063113605
-2.59890857705614E-05,4.72602141599054E-06,-0.52734375,0,0.00887535063113605
-2.40810786635848E-05,5.56426130060572E-06,-0.52734375,0,0.00887535063113605
-2.32414677157067E-05,8.39221411297331E-06,-0.52734375,0,0.00887535063113605
-2.15813633985817E-05,1.29369655041955E-05,-0.52734375,0,0.00887535063113605
-2.32462443818804E-05,1.59063692990458E-05,-0.52734375,0,0.00887535063113605
-2.37385866057593E-05,1.71678384504048E-05,-0.52734375,0,0.00887535063113605
-2.63515194092179E-05,1.78505451913225E-05,-0.52734375,0,0.00887535063113605
-2.65684775513364E-05,1.76496378117008E-05,-0.52734375,0,0.00887535063113605
-2.7497204428073E-05,1.64375724125421E-05,-0.52734375,0,0.00887535063113605
-2.62195080722449E-05,1.5913681636448E-05,-0.52734375,0,0.00887535063113605
-2.63078345597023E-05,1.59530918608652E-05,-0.52734375,0,0.00887535063113605
-2.4794249839033E-05,1.74950182554312E-05,-0.52734375,0,0.00887535063113605
-2.41572233790066E-05,1.87763707799604E-05,-0.52734375,0,0.00887535063113605
-2.31280537263956E-05,1.63537570188055E-05,-0.52734375,0,0.00887535063113605
-2.25516523642E-05,1.1773404366977E-05,-0.52734375,0,0.00887535063113605
-2.13536732189823E-05,6.22491052126861E-06,-0.52734375,0,0.00887535063113605
-2.06496624741703E-05,2.37360694654853E-07,-0.52734375,0,0.00887535063113605
-1.70346120285103E-05,-2.86970521301555E-06,-0.52734375,0,0.00887535063113605
-2.44358016061597E-05,-6.68335951559129E-06,-0.52734375,0,0.00887535063113605
-1.97202862182166E-05,-9.45573447097559E-06,-0.52734375,0,0.00887535063113605
-2.57662977674045E-05,-6.60485966363922E-06,-0.52734375,0,0.00887535063113605
-2.47991974902106E-05,5.51608718524221E-06,-0.52734375,0,0.00887535063113605
-2.85853329842212E-05,1.77204892679583E-05,-0.52734375,0,0.00887535063113605
-2.60036904364824E-05,2.47507123276591E-05,-0.52734375,0,0.00887535063113605
-2.61098739429144E-05,2.40458666667109E-05,-0.52734375,0,0.00887535063113605
-2.53581456490792E-05,1.92959687410621E-05,-0.52734375,0,0.00887535063113605
-2.6394458473078E-05,1.30616353999358E-05,-0.52734375,0,0.00887535063113605
-2.72566812782316E-05,8.11985319160158E-06,-0.52734375,0,0.00887535063113605
-2.62730900431052E-05,6.49777439321042E-06,-0.52734375,0,0.00887535063113605
-2.64452683040872E-05,7.40331506676739E-06,-0.52734375,0,0.00887535063113605
-2.47482712438796E-05,9.47679563978454E-06,-0.52734375,0,0.00887535063113605
-2.45796072704252E-05,1.10054133983795E-05,-0.52734375,0,0.00887535063113605
-2.34222425206099E-05,1.19779851956991E-05,-0.52734375,0,0.00887535063113605
-2.43391314143082E-05,1.16333521873457E-05,-0.52734375,0,0.00887535063113605
-2.2236807126319E-05,1.09333077489282E-05,-0.52734375,0,0.00887535063113605
-2.22915241465671E-05,9.63091315497877E-06,-0.52734375,0,0.00887535063113605
-2.24331470235484E-05,8.73097997100558E-06,-0.52734375,0,0.00887535063113605
-2.42982241616119E-05,7.94597872300074E-06,-0.52734375,0,0.00887535063113605
-2.39407527260482E-05,8.17480122350389E-06,-0.52734375,0,0.00887535063113605
-2.35563875321532E-05,8.95686935109552E-06,-0.52734375,0,0.00887535063113605
-2.29147917707451E-05,9.58160944719566E-06,-0.52734375,0,0.00887535063113605
-2.37681033468107E-05,8.87331134435954E-06,-0.52734375,0,0.00887535063113605
-2.45811024797149E-05,6.9286229518184E-06,-0.52734375,0,0.00887535063113605
-2.51562105404446E-05,5.05877278556E-06,-0.52734375,0,0.00887535063113605
-2.08368073799647E-05,4.21180948251276E-06,-0.52734375,0,0.00887535063113605
-2.97322640108177E-05,8.37513653095812E-06,-0.52734375,0,0.00887535063113605
-2.26377542276168E-05,9.77019226411358E-06,-0.52734375,0,0.00887535063113605
-2.65836424659938E-05,1.12802836156334E-05,-0.52734375,0,0.00887535063113605
-2.01714174181689E-05,1.1061385521316E-05,-0.52734375,0,0.00887535063113605
-2.22402068175143E-05,1.36571952680242E-05,-0.52734375,0,0.00887535063113605
-2.0302217308199E-05,1.49322831930476E-05,-0.52734375,0,0.00887535063113605
-2.22200960706687E-05,1.36800881591626E-05,-0.52734375,0,0.00887535063113605
-2.26102420128882E-05,1.0410951290396E-05,-0.52734375,0,0.00887535063113605
-2.32165493798675E-05,9.34732270252425E-06,-0.52734375,0,0.00887535063113605
-2.37231579376385E-05,1.09707143565174E-05,-0.52734375,0,0.00887535063113605
-2.34856615861645E-05,1.2178309589217E-05,-0.52734375,0,0.00887535063113605
-2.36099785979604E-05,1.28231240523746E-05,-0.52734375,0,0.00887535063113605
-2.15112650039373E-05,1.31214328575879E-05,-0.52734375,0,0.00887535063113605
-2.27515574806603E-05,1.44641771839815E-05,-0.52734375,0,0.00887535063113605
-2.25040384975728E-05,1.58472375915153E-05,-0.52734375,0,0.00887535063113605
-2.40221361309523E-05,1.65839501278242E-05,-0.52734375,0,0.00887535063113605
-2.32074908126378E-05,1.62768374138977E-05,-0.52734375,0,0.00887535063113605
-2.44442217081087E-05,1.65802121045999E-05,-0.52734375,0,0.00887535063113605
-2.38225202338072E-05,1.61978823598474E-05,-0.52734375,0,0.00887535063113605
-2.58997733908473E-05,1.48073449963704E-05,-0.52734375,0,0.00887535063113605
-2.59757744061062E-05,1.4258213013818E-05,-0.52734375,0,0.00887535063113605
-2.56742714555003E-05,1.45478288686718E-05,-0.52734375,0,0.00887535063113605
-2.37632393691456E-05,1.43059960464598E-05,-0.52734375,0,0.00887535063113605
-2.30708137678448E-05,1.52236088979407E-05,-0.52734375,0,0.00887535063113605
-2.31151479965774E-05,1.57381946337409E-05,-0.52734375,0,0.00887535063113605
-2.30117875616997E-05,1.69855029525934E-05,-0.52734375,0,0.00887535063113605
-1.89408983715111E-05,1.35813552333275E-05,-0.52734375,0,0.00887535063113605
-2.63544388872106E-05,1.71502033481374E-05,-0.52734375,0,0.00887535063113605
-1.86178822332295E-05,1.07106934592593E-05,-0.52734375,0,0.00887535063113605
-2.29585439228686E-05,1.54420067701722E-05,-0.52734375,0,0.00887535063113605
-1.96040855371393E-05,1.20034164865501E-05,-0.52734375,0,0.00887535063113605
-2.2908909159014E-05,1.34737883854541E-05,-0.52734375,0,0.00887535063113605
-2.21502650674665E-05,1.3130261322658E-05,-0.52734375,0,0.00887535063113605
-2.41036195802735E-05,1.51805952555151E-05,-0.52734375,0,0.00887535063113605
