biceps_emg, triceps_emg, subject_position, position_estimate, brace_position
-2.37460499192821E-05,1.70687653735513E-05,1.7578125,0,0
-2.52233767241705E-05,1.91471190191805E-05,1.7578125,0,0
-2.41867273871321E-05,1.84692526090657E-05,1.7578125,0,0
-2.46407380473102E-05,1.59036444529193E-05,1.7578125,0,0
-2.22764592763269E-05,1.03209613371291E-05,1.7578125,0,0
-2.26554475375451E-05,5.47279796592193E-06,1.7578125,0,0
-2.07250559469685E-05,3.04979948850814E-06,1.7578125,0,0
-1.97887129615992E-05,4.7891976464598E-06,1.7578125,0,0
-1.84363088919781E-05,6.80605717207072E-06,1.7578125,0,0
-2.04353382287081E-05,7.31414320398471E-06,1.7578125,0,0
-2.14386636798736E-05,6.2377030189964E-06,1.7578125,0,0
-2.16689968510764E-05,4.66118262920645E-06,1.7578125,0,0
-2.04008338187123E-05,2.48449737227929E-06,1.7578125,0,0
-1.95918291865382E-05,1.03072875390353E-06,1.7578125,0,0
-1.67751368280733E-05,-2.01917123376916E-06,1.7578125,0,0
-2.40350891544949E-05,-4.36930986325024E-06,1.7578125,0,0
-1.81739669642411E-05,-1.510847823738E-06,1.7578125,0,0
-2.2891577827977E-05,8.26710731871572E-07,1.7578125,0,0
-2.12360027944669E-05,-7.08008656147285E-07,1.7578125,0,0
-2.40281096921535E-05,-1.14992451472062E-06,1.7578125,0,0
-2.16801363421837E-05,1.43585893397358E-07,1.7578125,0,0
-2.27007440116722E-05,6.22353127255337E-07,1.7578125,0,0
-2.29055258387234E-05,1.03280956409435E-06,1.7578125,0,0
-2.33370628848206E-05,2.86904128188326E-06,1.7578125,0,0
-2.40896970353788E-05,5.60981561648077E-06,1.7578125,0,0
-2.33441132877488E-05,8.56958922668127E-06,1.7578125,0,0
-2.41759189520963E-05,9.9000953923678E-06,1.7578125,0,0
-2.4051316358964E-05,9.54634379013442E-06,1.7578125,0,0
-2.54447859333595E-05,9.60715169640025E-06,1.7578125,0,0
-2.52341033046832E-05,1.07190662674839E-05,1.7578125,0,0
-2.68283856712515E-05,1.13683645395213E-05,1.7578125,0,0
-2.68925778073026E-05,1.08880230982322E-05,1.7578125,0,0
-2.80199965345673E-05,1.02405701909447E-05,1.7578125,0,0
-2.6894238544628E-05,1.08418889794848E-05,1.7578125,0,0
-2.63827041635523E-05,1.24035086628282E-05,1.7578125,0,0
-2.47325351665495E-05,1.20146587505587E-05,1.7578125,0,0
-2.32398742809892E-05,1.05141680251108E-05,1.7578125,0,0
-2.09062327485299E-05,1.11414501589024E-05,1.7578125,0,0
-2.07782068173401E-05,1.2388114555506E-05,1.7578125,0,0
-2.14651190617587E-05,1.31192173284944E-05,1.7578125,0,0
-2.11670485441573E-05,1.3964178833703E-05,1.7578125,0,0
-1.67643247550586E-05,8.82108543009963E-06,1.7578125,0,0
-2.41786019614665E-05,9.18925888981903E-06,1.7578125,0,0
-1.93644027604023E-05,4.2142655729549E-06,1.7578125,0,0
-2.43204030994093E-05,9.81001812760951E-06,1.7578125,0,0
-2.1662959625246E-05,1.03495422081323E-05,1.7578125,0,0
-2.51892670348752E-05,1.31443002828746E-05,1.7578125,0,0
-2.34723884204868E-05,1.201139184559E-05,1.7578125,0,0
-2.27937853196636E-05,1.31876395244035E-05,1.7578125,0,0
-2.1461239157361E-05,1.47494192788145E-05,1.7578125,0,0
-2.25507992581697E-05,1.56480055011343E-05,1.7578125,0,0
-2.44251896219794E-05,1.30658690977725E-05,1.7578125,0,0
-2.48765609285329E-05,9.86536178970709E-06,1.7578125,0,0
-2.564932583482E-05,9.94498350337381E-06,1.7578125,0,0
-2.51731598837068E-05,1.08700223790947E-05,1.7578125,0,0
-2.73489149549278E-05,1.40827669383725E-05,1.7578125,0,0
-2.82087894447614E-05,1.6058449546108E-05,1.7578125,0,0
-3.04453515127534E-05,1.77040146809304E-05,1.7578125,0,0
-2.98751256195828E-05,1.75245022546733E-05,1.7578125,0,0
-3.03418491967022E-05,1.84364016604377E-05,1.7578125,0,0
-2.91519063466694E-05,1.74949400388869E-05,1.7578125,0,0
-2.9197533876868E-05,1.65122182806954E-05,1.7578125,0,0
-2.89603794954019E-05,1.38797240651911E-05,1.7578125,0,0
-2.91461456072284E-05,1.20933509606402E-05,1.7578125,0,0
-2.75518832495436E-05,1.13682935989345E-05,1.7578125,0,0
-2.73168843705207E-05,1.11537246993976E-05,1.7578125,0,0
-2.88067294604843E-05,1.14359854705981E-05,1.7578125,0,0
-3.09695788018871E-05,1.2864878954133E-05,1.7578125,0,0
-2.55917784670601E-05,1.00822562671965E-05,1.7578125,0,0
-3.67793509212788E-05,1.28659712572698E-05,1.7578125,0,0
-2.76638347713742E-05,8.31615579954814E-06,1.7578125,0,0
-3.28090791299473E-05,1.23899908430758E-05,1.7578125,0,0
-2.66842162091052E-05,1.01223786259652E-05,1.7578125,0,0
-3.09093593386933E-05,1.01093282864895E-05,1.7578125,0,0
-2.91094820568105E-05,7.80189475335646E-06,1.7578125,0,0
-2.97332808258943E-05,8.13175302027958E-06,1.7578125,0,0
-2.70006275968626E-05,1.05009221442742E-05,1.7578125,0,0
-2.60406868619611E-05,1.33880039356882E-05,1.7578125,0,0
-2.61727836914361E-05,1.47835389725515E-05,1.7578125,0,0
-2.5267421733588E-05,1.37287897814531E-05,1.7578125,0,0
-2.69069169007707E-05,1.21316288641538E-05,1.7578125,0,0
-2.59777607425349E-05,8.63493005454075E-06,1.7578125,0,0
-2.65919879893772E-05,6.49334424451808E-06,1.7578125,0,0
-2.42048972722841E-05,4.63400056105456E-06,1.7578125,0,0
-2.45701849053148E-05,5.59135605726624E-06,1.7578125,0,0
-2.2634469132754E-05,6.3007491917233E-06,1.7578125,0,0
-2.4092907551676E-05,7.61671935833874E-06,1.7578125,0,0
-2.30528876272729E-05,8.44385795062408E-06,1.7578125,0,0
-2.36204850807553E-05,9.98287123366026E-06,1.7578125,0,0
-2.23716233449522E-05,1.01082850960665E-05,1.7578125,0,0
-2.11993701668689E-05,9.56628628046019E-06,1.7578125,0,0
-1.95519969565794E-05,8.5276406025514E-06,1.7578125,0,0
-2.0290006432333E-05,1.06434599729255E-05,1.7578125,0,0
-2.14956689887913E-05,1.49846791828168E-05,1.7578125,0,0
-2.217318797193E-05,1.69768791238312E-05,1.7578125,0,0
-1.73196203832049E-05,1.36127864607261E-05,1.7578125,0,0
-2.29690867854515E-05,1.83009269676404E-05,1.7578125,0,0
-1.63431723194662E-05,1.22086403280264E-05,1.7578125,0,0
-2.19078810914652E-05,1.44366113090655E-05,1.7578125,0,0
-1.90374812518712E-05,1.03812790257507E-05,1.7578125,0,0
-2.21859008888714E-05,1.3721309187531E-05,1.7578125,0,0
-2.0533574570436E-05,1.34373794935527E-05,1.7578125,0,0
-2.24348859774182E-05,1.30075441120425E-05,1.7578125,0,0
-2.29992147069424E-05,1.18570496852044E-05,1.7578125,0,0
-2.33318078244338E-05,1.16969631562824E-05,1.7578125,0,0
-2.25290332309669E-05,1.19026335596573E-05,1.7578125,0,0
-2.01880211534444E-05,1.26541272038594E-05,1.7578125,0,0
-2.04081570700509E-05,1.43353063322138E-05,1.7578125,0,0
-2.00722679437604E-05,1.32404593387037E-05,1.7578125,0,0
-2.18473469431046E-05,1.2922392670589E-05,1.7578125,0,0
-2.09592435567174E-05,1.17949666673667E-05,1.7578125,0,0
-2.12113045563456E-05,1.28053507069126E-05,1.7578125,0,0
-1.88980156963225E-05,1.16568844532594E-05,1.7578125,0,0
-1.84143391379621E-05,1.20316572065349E-05,1.7578125,0,0
-1.70210314536234E-05,1.30790349430754E-05,1.7578125,0,0
-1.76583398570074E-05,1.57676204253221E-05,1.7578125,0,0
-1.79203598236199E-05,1.66458521562163E-05,1.7578125,0,0
-1.91483959497418E-05,1.70932144101243E-05,1.7578125,0,0
-1.87654895853484E-05,1.70567655004561E-05,1.7578125,0,0
-1.84049786184914E-05,1.72978943737689E-05,1.7578125,0,0
-1.7792139260564E-05,1.55792713485425E-05,1.7578125,0,0
-1.78956670424668E-05,1.29174632093054E-05,1.7578125,0,0
-1.49997840708238E-05,7.91865659266477E-06,1.7578125,0,0
-2.19210814975668E-05,1.02829008028493E-05,1.7578125,0,0
-1.70737366715912E-05,7.74302770878421E-06,1.7578125,0,0
-1.98834168259054E-05,1.03369839052903E-05,1.7578125,0,0
-1.55941088451073E-05,9.56915209826548E-06,1.7578125,0,0
-1.65691017173231E-05,1.27784815049381E-05,1.7578125,0,0
-1.53859127749456E-05,1.14735030365409E-05,1.7578125,0,0
-1.72810450749239E-05,1.14302547444822E-05,1.7578125,0,0
-1.77598722075345E-05,1.27717858049436E-05,1.7578125,0,0
-1.89237980521284E-05,1.42577346196049E-05,1.7578125,0,0
-2.02648261620197E-05,1.4502851627185E-05,1.7578125,0,0
-2.02277769858483E-05,1.5266095942934E-05,1.7578125,0,0
-2.07845205295598E-05,1.70465627888916E-05,1.7578125,0,0
-2.11266124097165E-05,1.75408713403158E-05,1.7578125,0,0
-2.34884100791533E-05,1.87713394552702E-05,1.7578125,0,0
-2.36731193581363E-05,1.75928835233208E-05,1.7578125,0,0
-2.50396606134018E-05,1.54350364027778E-05,1.7578125,0,0
-2.46385625359835E-05,1.22771525639109E-05,1.7578125,0,0
-2.49813783739228E-05,1.29052423289977E-05,1.7578125,0,0
-2.25805561058223E-05,1.43828119689715E-05,1.7578125,0,0
-2.00381236936664E-05,1.62102405738551E-05,1.7578125,0,0
-1.78231275640428E-05,1.78947084350511E-05,1.7578125,0,0
-1.84830605576281E-05,2.10445487027755E-05,1.7578125,0,0
-1.87661698873853E-05,2.1554391423706E-05,1.7578125,0,0
-1.97900535567896E-05,1.74050255736802E-05,1.7578125,0,0
-2.14072206290439E-05,1.00034803836024E-05,1.7578125,0,0
-2.18167897401145E-05,3.83562610295485E-06,1.7578125,0,0
-1.62067935889354E-05,1.78831260200241E-06,1.7578125,0,0
-2.38140237343032E-05,3.02340436064696E-06,1.7578125,0,0
-2.03430245164782E-05,2.95174299935752E-06,1.7578125,0,0
-2.62904541159514E-05,1.52375241668778E-06,1.7578125,0,0
-2.44806324189994E-05,-1.35263792344631E-06,1.7578125,0,0
-2.77009257843019E-05,-5.02132024848834E-07,1.7578125,0,0
-2.56450457527535E-05,2.34680192079395E-06,1.7578125,0,0
-2.6364519726485E-05,4.99484576721443E-06,1.7578125,0,0
-2.64552709268173E-05,6.99013753546751E-06,1.7578125,0,0
-2.71330991381546E-05,8.40779102873057E-06,1.7578125,0,0
-2.61207369476324E-05,8.12726739241043E-06,1.7578125,0,0
-2.43776667048223E-05,7.01792532709078E-06,1.7578125,0,0
-2.5627545255702E-05,6.43729890725808E-06,1.7578125,0,0
-2.62055109487846E-05,7.57774068915751E-06,1.7578125,0,0
-2.73432087851688E-05,1.16843020805391E-05,1.7578125,0,0
-2.58123855019221E-05,1.49112647704897E-05,1.7578125,0,0
-2.61650948232273E-05,1.37224960781168E-05,1.7578125,0,0
-2.58415875578066E-05,9.12021096155513E-06,1.7578125,0,0
-2.72572087851586E-05,6.13934980719932E-06,1.7578125,0,0
-2.63506099145161E-05,5.84937015446485E-06,1.7578125,0,0
-2.6947382139042E-05,6.33885338174878E-06,1.7578125,0,0
-2.53999187407317E-05,6.95391463523265E-06,1.7578125,0,0
-2.47659227170516E-05,9.37173535930924E-06,1.7578125,0,0
-2.59640273725381E-05,1.18578091132804E-05,1.7578125,0,0
-2.84630768874194E-05,1.35249874801957E-05,1.7578125,0,0
-3.00041137961671E-05,1.45264975799364E-05,1.7578125,0,0
-3.00499214063166E-05,1.37681427077041E-05,1.7578125,0,0
-2.32741404033732E-05,9.78175921773072E-06,1.7578125,0,0
-3.12554730044212E-05,1.27703751786612E-05,1.7578125,0,0
-2.15322761505377E-05,1.0146605745831E-05,1.7578125,0,0
-2.83961762761464E-05,1.53541350300657E-05,1.7578125,0,0
-2.51521378231701E-05,1.41123964567669E-05,1.7578125,0,0
-2.90476127702277E-05,1.68861497513717E-05,1.7578125,0,0
-2.57577667071018E-05,1.66812351380941E-05,1.7578125,0,0
-2.67730829364154E-05,1.81300019903574E-05,1.7578125,0,0
-2.5880024622893E-05,1.92402876564302E-05,1.7578125,0,0
-2.56797302427003E-05,1.85073859029217E-05,1.7578125,0,0
-2.53321559284814E-05,1.47191249197931E-05,1.7578125,0,0
-2.41645793721545E-05,1.07190771814203E-05,1.7578125,0,0
-2.49632885243045E-05,9.89015370578272E-06,1.7578125,0,0
-2.38070660998346E-05,1.02330350273405E-05,1.7578125,0,0
-2.57987321674591E-05,1.28455276353634E-05,1.7578125,0,0
-2.58657437370857E-05,1.43613733598613E-05,1.7578125,0,0
-2.72576708084671E-05,1.65468427439919E-05,1.7578125,0,0
-2.4755147023825E-05,1.72623313119402E-05,1.7578125,0,0
-2.54694768955233E-05,1.81191062438302E-05,1.7578125,0,0
-2.52617937803734E-05,1.53132732521044E-05,1.7578125,0,0
-2.66030056081945E-05,1.01709474620293E-05,1.7578125,0,0
-2.5899627871695E-05,3.85966359317536E-06,1.7578125,0,0
-2.66023234871682E-05,2.20263791561592E-06,1.7578125,0,0
-2.54088445217349E-05,3.49720880876703E-06,1.7578125,0,0
-2.50826433330076E-05,3.32661397806078E-06,1.7578125,0,0
-2.50692573899869E-05,1.44420516789978E-06,1.7578125,0,0
-2.60993601841619E-05,1.97900658349681E-06,1.7578125,0,0
-2.03081835934427E-05,2.47703951572475E-06,1.7578125,0,0
-2.82871242234251E-05,2.53563302976545E-06,1.7578125,0,0
-2.12311624636641E-05,1.85208523362235E-06,1.7578125,0,0
-2.63733836618485E-05,4.56284169558785E-06,1.7578125,0,0
-2.15239542740164E-05,4.9456089072919E-06,1.7578125,0,0
-2.56324528891128E-05,6.42261420580326E-06,1.7578125,0,0
-2.58489908446791E-05,8.67197832121747E-06,1.7578125,0,0
-2.84644393104827E-05,1.15933689812664E-05,1.7578125,0,0
-2.76574210147373E-05,1.27078128571156E-05,1.7578125,0,0
-2.66677398030879E-05,1.10831442725612E-05,1.7578125,0,0
-2.66226343228482E-05,1.10725568447378E-05,1.7578125,0,0
-2.5549970814609E-05,1.22072287922492E-05,1.7578125,0,0
-2.56832045124611E-05,1.28096426124102E-05,1.7578125,0,0
-2.452515582263E-05,1.31956248878851E-05,1.7578125,0,0
-2.56949406320928E-05,1.43035167639027E-05,1.7578125,0,0
-2.3760383555782E-05,1.48896697282908E-05,1.7578125,0,0
-2.36253108596429E-05,1.56472615344683E-05,1.7578125,0,0
-2.21056579903234E-05,1.64999219123274E-05,1.7578125,0,0
-2.29278412007261E-05,1.71152132679708E-05,1.7578125,0,0
-2.10486759897321E-05,1.67815287568374E-05,1.7578125,0,0
-2.04523621505359E-05,1.75366549228784E-05,1.7578125,0,0
-1.92676325241337E-05,1.94560452655423E-05,1.7578125,0,0
-2.0211611627019E-05,2.01459843083285E-05,1.7578125,0,0
-2.02753326448146E-05,1.89650745596737E-05,1.7578125,0,0
-2.03390500246314E-05,1.76670819200808E-05,1.7578125,0,0
-2.07117391255451E-05,1.58564671437489E-05,1.7578125,0,0
-2.17453125515021E-05,1.10972005131771E-05,1.7578125,0,0
-1.92066236195387E-05,4.6215800466598E-06,1.7578125,0,0
-2.76692098850617E-05,6.19470893070684E-06,1.7578125,0,0
-2.02412993530743E-05,5.44292879567365E-06,1.7578125,0,0
-2.40178214880871E-05,5.61304841539823E-06,1.7578125,0,0
-1.98047891899478E-05,2.18807417695643E-06,1.7578125,0,0
-2.25114781642333E-05,3.86888268621988E-06,1.7578125,0,0
-2.20994334085844E-05,4.83406211060355E-06,1.7578125,0,0
-2.43833346758038E-05,7.25792824596283E-06,1.7578125,0,0
-2.42240075749578E-05,1.04000782812363E-05,1.7578125,0,0
-2.28857788897585E-05,1.38574241645983E-05,1.7578125,0,0
-2.03314284590306E-05,1.54175359057263E-05,1.7578125,0,0
-1.77846886799671E-05,1.61039115482708E-05,1.7578125,0,0
-1.84276141226292E-05,1.5685511243646E-05,1.7578125,0,0
-1.82030416908674E-05,1.28348920043209E-05,1.7578125,0,0
-2.00496106117498E-05,1.11883055069484E-05,1.7578125,0,0
-2.07374705496477E-05,1.14792692329502E-05,1.7578125,0,0
-2.38656666624593E-05,1.43909037433332E-05,1.7578125,0,0
-2.48430987994652E-05,1.53873625095002E-05,1.7578125,0,0
-2.6486271963222E-05,1.45444146255613E-05,1.7578125,0,0
-2.54478072747588E-05,1.22805358842015E-05,1.7578125,0,0
-2.56366074609105E-05,1.28745723486645E-05,1.7578125,0,0
-2.43313734245021E-05,1.53489272634033E-05,1.7578125,0,0
-2.37965050473576E-05,1.66909139807103E-05,1.7578125,0,0
-2.28711032832507E-05,1.28251240312238E-05,1.7578125,0,0
-2.26236752496334E-05,5.8508308029559E-06,1.7578125,0,0
-2.15418804145884E-05,1.91029926099873E-06,1.7578125,0,0
-2.19919893424958E-05,2.22852031583898E-06,1.7578125,0,0
-2.00171234610025E-05,2.32576599046297E-06,1.7578125,0,0
-2.89678755507339E-05,3.27818929690693E-06,1.7578125,0,0
-2.28300195885822E-05,2.51890105573693E-06,1.7578125,0,0
-2.89952331513632E-05,2.38064376389957E-06,1.7578125,0,0
-2.49774202529807E-05,1.31286935811659E-06,1.7578125,0,0
-2.71734734269558E-05,2.14094802686304E-06,1.7578125,0,0
-2.60690285358578E-05,2.75553043138643E-06,1.7578125,0,0
-2.87617804133333E-05,3.99801820094581E-06,1.7578125,0,0
-2.97466849588091E-05,4.76934656035155E-06,1.7578125,0,0
-3.01273303193739E-05,4.75284923595609E-06,1.7578125,0,0
-2.95822501357179E-05,5.75126705371076E-06,1.7578125,0,0
-2.81553657259792E-05,8.36051549413241E-06,1.7578125,0,0
-2.85218829958467E-05,9.04006901691901E-06,1.7578125,0,0
-2.64090140262851E-05,6.41211272522924E-06,1.7578125,0,0
-2.56737566814991E-05,3.84752092941199E-06,1.7578125,0,0
-2.35048846661812E-05,2.40488839153841E-06,1.7578125,0,0
-2.45944647758733E-05,1.90870218830241E-06,1.7578125,0,0
-2.3872602469055E-05,4.5155755401538E-07,1.7578125,0,0
-2.49398963205749E-05,-6.10703068559815E-07,1.7578125,0,0
-2.49986806011293E-05,-9.47809667195543E-07,1.7578125,0,0
-2.69612355623394E-05,5.75006595227023E-07,1.7578125,0,0
-2.67076866293792E-05,4.24808831667178E-06,1.7578125,0,0
-2.6521272957325E-05,8.7360158431693E-06,1.7578125,0,0
-2.59027747233631E-05,1.13964988486259E-05,1.7578125,0,0
-2.59872085734969E-05,1.1299729521852E-05,1.7578125,0,0
-2.50850425800309E-05,1.0111595656781E-05,1.7578125,0,0
-2.40147455770057E-05,9.88204556051642E-06,1.7578125,0,0
-2.002353539865E-05,7.47492958907969E-06,1.7578125,0,0
-2.94884066533996E-05,8.02524664322846E-06,1.7578125,0,0
-2.38511056522839E-05,2.38571965383017E-06,1.7578125,0,0
-2.91177348117344E-05,4.28091880166903E-06,1.7578125,0,0
-2.35398492804961E-05,5.00012629345292E-06,1.7578125,0,0
-2.43542417592835E-05,1.04227647170774E-05,1.7578125,0,0
-2.17640481423587E-05,1.03573402157053E-05,1.7578125,0,0
-2.26987176574767E-05,9.13099756871816E-06,1.7578125,0,0
-2.20190122490749E-05,1.06635352494777E-05,1.7578125,0,0
-2.20586025534431E-05,1.48448134495993E-05,1.7578125,0,0
-2.22595099330647E-05,1.7345408195979E-05,1.7578125,0,0
-2.09221198019804E-05,1.74807573785074E-05,1.7578125,0,0
-2.1145046048332E-05,1.66577356139896E-05,1.7578125,0,0
-1.98006146092666E-05,1.43484567161067E-05,1.7578125,0,0
-2.12281247513602E-05,1.39775020215893E-05,1.7578125,0,0
-2.08967740036314E-05,1.38557243190007E-05,1.7578125,0,0
-2.26547599595506E-05,1.52763350342866E-05,1.7578125,0,0
-2.28286098717945E-05,1.6481164493598E-05,1.7578125,0,0
-2.37211061175913E-05,1.75797013071133E-05,1.7578125,0,0
-2.12324030144373E-05,1.52187813000637E-05,1.7578125,0,0
-2.06647455343045E-05,1.26949480545591E-05,1.7578125,0,0
-2.04793395823799E-05,1.06504212453729E-05,1.7578125,0,0
-2.23787392314989E-05,1.14887880044989E-05,1.7578125,0,0
-2.42849819187541E-05,1.4941248082323E-05,1.7578125,0,0
-2.63161127804779E-05,1.75570785359014E-05,1.7578125,0,0
-2.67300074483501E-05,1.66644840646768E-05,1.7578125,0,0
-2.66132865363033E-05,1.50693658724776E-05,1.7578125,0,0
-2.12379036383936E-05,1.33478424686473E-05,1.7578125,0,0
-3.01905838568928E-05,1.85609460459091E-05,1.7578125,0,0
-2.26254996960051E-05,1.21216735351481E-05,1.7578125,0,0
-2.71051376330433E-05,1.2943237379659E-05,1.7578125,0,0
-2.35661136684939E-05,8.96340407052776E-06,1.7578125,0,0
-2.91237211058615E-05,1.25869901239639E-05,1.7578125,0,0
-2.71023855020758E-05,1.45122039612033E-05,1.7578125,0,0
-2.68934527412057E-05,1.68775568454294E-05,1.7578125,0,0
-2.55345348705305E-05,1.78472801053431E-05,1.7578125,0,0
-2.68386665993603E-05,1.82758212758927E-05,1.7578125,0,0
-2.79825089819497E-05,1.5300429367926E-05,1.7578125,0,0
-2.69464380835416E-05,9.42531823966419E-06,1.7578125,0,0
-2.72306751867291E-05,6.3245024648495E-06,1.7578125,0,0
-2.57111878454452E-05,6.71036832500249E-06,1.7578125,0,0
-2.6257006538799E-05,1.15781385829905E-05,1.7578125,0,0
-2.33650953305187E-05,1.37591796374181E-05,1.7578125,0,0
-2.24653213081183E-05,1.50820224007475E-05,1.7578125,0,0
-2.03969175345264E-05,1.46830061567016E-05,1.7578125,0,0
-2.17798678932013E-05,1.53901764861075E-05,1.7578125,0,0
-2.12136019399622E-05,1.40694774017902E-05,1.7578125,0,0
-2.15469517570455E-05,1.34118245114223E-05,1.7578125,0,0
-2.07691900868667E-05,1.223686922458E-05,1.7578125,0,0
-2.19590019696625E-05,1.16436367534334E-05,1.7578125,0,0
-2.24309369514231E-05,1.00726219898206E-05,1.7578125,0,0
-2.38565717154415E-05,8.14155464468058E-06,1.7578125,0,0
-2.45007777266437E-05,6.76299123369972E-06,1.7578125,0,0
-2.47609023062978E-05,6.64424578644685E-06,1.7578125,0,0
-1.97531935555162E-05,5.07253844261868E-06,1.7578125,0,0
-2.85753339994699E-05,7.38846665626625E-06,1.7578125,0,0
-2.26644551730715E-05,5.74565046917996E-06,1.7578125,0,0
-2.71153767243959E-05,7.11508482709178E-06,1.7578125,0,0
-2.17384058487369E-05,7.67033634474501E-06,1.7578125,0,0
-2.4676279281266E-05,1.30837261167471E-05,1.7578125,0,0
-2.35823026741855E-05,1.76900266524171E-05,1.7578125,0,0
-2.61499772022944E-05,1.84247801371384E-05,1.7578125,0,0
-2.64726459136E-05,1.64431585290004E-05,1.7578125,0,0
-2.60246324614855E-05,1.36045055114664E-05,1.7578125,0,0
-2.52325899054995E-05,1.16529299702961E-05,1.7578125,0,0
-2.39385171880713E-05,1.20627837532084E-05,1.7578125,0,0
-2.511959792173E-05,1.23109475680394E-05,1.7578125,0,0
-2.4627832317492E-05,8.8807810243452E-06,1.7578125,0,0
-2.62784378719516E-05,6.34767002338776E-06,1.7578125,0,0
-2.54279893852072E-05,6.21998378846911E-06,1.7578125,0,0
-2.52486224781023E-05,7.96228778199293E-06,1.7578125,0,0
-2.22984672291204E-05,9.7711299531511E-06,1.7578125,0,0
-2.14182746276492E-05,1.22615010695881E-05,1.7578125,0,0
-1.9801436792477E-05,1.41983100547804E-05,1.7578125,0,0
-2.17342512769392E-05,1.49659763337695E-05,1.7578125,0,0
-2.28363915084628E-05,1.35177124320762E-05,1.7578125,0,0
-2.32630391110433E-05,1.26892737171147E-05,1.7578125,0,0
-2.21617374336347E-05,1.39869671329507E-05,1.7578125,0,0
-2.26491665671347E-05,1.4957518033043E-05,1.7578125,0,0
-2.32211150432704E-05,1.45640842674766E-05,1.7578125,0,0
-2.38211578107439E-05,1.3727527402807E-05,1.7578125,0,0
-2.01552848011488E-05,8.56084443512373E-06,1.7578125,0,0
-2.82395849353634E-05,1.12905099740601E-05,1.7578125,0,0
-2.10093130590394E-05,8.81969663169002E-06,1.7578125,0,0
-2.60937176790321E-05,1.34398142108694E-05,1.7578125,0,0
-2.18906079680892E-05,1.14448894237285E-05,1.7578125,0,0
-2.51484780164901E-05,1.14581744128373E-05,1.7578125,0,0
-2.38466454902664E-05,1.05079134300468E-05,1.7578125,0,0
-2.59266726061469E-05,1.13400737973279E-05,1.7578125,0,0
-2.52290028583957E-05,1.06678444353747E-05,1.7578125,0,0
-2.46245617745444E-05,9.73834448814159E-06,1.7578125,0,0
-2.41500438278308E-05,9.53680228121812E-06,1.7578125,0,0
-2.29370525630657E-05,1.19111809908645E-05,1.7578125,0,0
-2.36483501794282E-05,1.51625145008438E-05,1.7578125,0,0
-2.29060860874597E-05,1.44784989970503E-05,1.7578125,0,0
-2.4457736799377E-05,1.27517359942431E-05,1.7578125,0,0
-2.3318772946368E-05,1.10760356619721E-05,1.7578125,0,0
-2.38869270106079E-05,1.1579783858906E-05,1.7578125,0,0
-2.15359305002494E-05,1.08397025542217E-05,1.7578125,0,0
-2.06269360205624E-05,1.08053000076325E-05,1.7578125,0,0
-1.86364359251456E-05,1.04923210528796E-05,1.7578125,0,0
-1.96103883354226E-05,1.08185922726989E-05,1.7578125,0,0
-1.96812216017861E-05,8.57810118759517E-06,1.7578125,0,0
-2.03708113986067E-05,5.18398883286864E-06,1.7578125,0,0
-2.00022477656603E-05,2.44425405071524E-06,1.7578125,0,0
-2.03514900931623E-05,1.83320707947132E-06,1.7578125,0,0
-2.00271824724041E-05,2.49703793997469E-06,1.7578125,0,0
-2.01833827304654E-05,4.74978605780052E-06,1.7578125,0,0
-1.75850291270763E-05,6.00635257796966E-06,1.7578125,0,0
-2.54665756074246E-05,9.94463607639773E-06,1.7578125,0,0
-2.18374716496328E-05,1.1389911378501E-05,1.7578125,0,0
-2.8733913495671E-05,1.37365786940791E-05,1.7578125,0,0
-2.49706445174525E-05,8.54100653668866E-06,1.7578125,0,0
-2.70226191787515E-05,4.73844238513266E-06,1.7578125,0,0
-2.47652242251206E-05,1.12995337531174E-06,1.7578125,0,0
-2.42431451624725E-05,1.03488298464072E-06,1.7578125,0,0
-2.25285220949445E-05,5.28099462826503E-06,1.7578125,0,0
-2.19389621634036E-05,1.23598492791643E-05,1.7578125,0,0
-2.28481785597978E-05,1.64806588145439E-05,1.7578125,0,0
-2.2914426153875E-05,1.58178536366904E-05,1.7578125,0,0
-2.34347171499394E-05,1.47873206515214E-05,1.7578125,0,0
-2.20656893361593E-05,1.4242867109715E-05,1.7578125,0,0
-2.27331947826315E-05,1.48345343404799E-05,1.7578125,0,0
-2.17484466702444E-05,1.48462586366804E-05,1.7578125,0,0
-2.32128641073359E-05,1.55201360030333E-05,1.7578125,0,0
-2.34911840379937E-05,1.41453492688015E-05,1.7578125,0,0
-2.44456859945785E-05,1.11377830762649E-05,1.7578125,0,0
-2.19725152419414E-05,7.80515074438881E-06,1.7578125,0,0
-2.14588326343801E-05,7.5757379818242E-06,1.7578125,0,0
-2.19179819396231E-05,8.07203286967706E-06,1.7578125,0,0
-2.3372340365313E-05,7.59093109081732E-06,1.7578125,0,0
-2.29028282774379E-05,5.43742407899117E-06,1.7578125,0,0
-2.24886498472188E-05,4.97998189530335E-06,1.7578125,0,0
-2.32552101806505E-05,6.50462106932537E-06,1.7578125,0,0
-2.48449086939218E-05,6.87003102939343E-06,1.7578125,0,0
-2.08306028071092E-05,4.76181821795763E-06,1.7578125,0,0
-2.90811585728079E-05,7.56738245399902E-06,1.7578125,0,0
-2.07911471079569E-05,8.32513433124404E-06,1.7578125,0,0
-2.54925889748847E-05,1.05929548226413E-05,1.7578125,0,0
-2.16668322536862E-05,7.48217507862137E-06,1.7578125,0,0
-2.63410838670097E-05,6.91226978233317E-06,1.7578125,0,0
-2.52919890044723E-05,6.41726865069359E-06,1.7578125,0,0
-2.58813142863801E-05,6.50406900604139E-06,1.7578125,0,0
-2.47195839619963E-05,6.74959892421612E-06,1.7578125,0,0
-2.57868377957493E-05,7.04965850673034E-06,1.7578125,0,0
-2.65689595835283E-05,6.83498683429207E-06,1.7578125,0,0
-2.41007546719629E-05,7.75354146753671E-06,1.7578125,0,0
-2.3885340851848E-05,1.11948484118329E-05,1.7578125,0,0
-2.36862451856723E-05,1.46062066050945E-05,1.7578125,0,0
-2.57614901784109E-05,1.69508875842439E-05,1.7578125,0,0
-2.50672092079185E-05,1.61189018399455E-05,1.7578125,0,0
-2.61590648733545E-05,1.47247137647355E-05,1.7578125,0,0
-2.44095881498652E-05,1.36659218696877E-05,1.7578125,0,0
-2.47916959779104E-05,1.41241316669038E-05,1.7578125,0,0
-2.43761860474478E-05,1.44993136927951E-05,1.7578125,0,0
-2.54596561717335E-05,1.46107822729391E-05,1.7578125,0,0
-2.37805234064581E-05,1.51644289871911E-05,1.7578125,0,0
-2.22638300328981E-05,1.6742744264775E-05,1.7578125,0,0
-2.04384450626094E-05,1.75454479176551E-05,1.7578125,0,0
-2.06060976779554E-05,1.86575525731314E-05,1.7578125,0,0
-2.03964755201014E-05,1.7249312804779E-05,1.7578125,0,0
-2.00476169993635E-05,1.29843128888751E-05,1.7578125,0,0
-1.69008344528265E-05,6.38332676317077E-06,1.7578125,0,0
-2.46347699430771E-05,6.74628654451226E-06,1.7578125,0,0
-2.02736355277011E-05,3.72956151295512E-06,1.7578125,0,0
-2.51260371442186E-05,7.54463962948648E-06,1.7578125,0,0
-2.11005371966166E-05,6.9152861215116E-06,1.7578125,0,0
-2.31785252253758E-05,8.34826005302602E-06,1.7578125,0,0
-2.20524852920789E-05,7.42839347367408E-06,1.7578125,0,0
-2.38080665440066E-05,8.74877878231928E-06,1.7578125,0,0
-2.36465111811413E-05,9.1278361651348E-06,1.7578125,0,0
-2.44075017690193E-05,9.57037173066055E-06,1.7578125,0,0
-2.57819738180842E-05,9.14842257770943E-06,1.7578125,0,0
-2.55254799412796E-05,7.87890621722909E-06,1.7578125,0,0
-2.54707665590104E-05,7.24820210962207E-06,1.7578125,0,0
-2.35420448007062E-05,5.55618407815928E-06,1.7578125,0,0
-2.37716230913065E-05,6.2394724409387E-06,1.7578125,0,0
-2.21763602894498E-05,7.59431213737116E-06,1.7578125,0,0
-2.20173169509508E-05,8.43133784655947E-06,1.7578125,0,0
-2.04261996259447E-05,5.77315859118244E-06,1.7578125,0,0
-2.20927413465688E-05,4.68364487460349E-06,1.7578125,0,0
-2.34993167396169E-05,5.3074463721714E-06,1.7578125,0,0
-2.56975581578445E-05,7.33057777324575E-06,1.7578125,0,0
-2.59646349149989E-05,9.37032291403739E-06,1.7578125,0,0
-2.71391782007413E-05,1.13389514808659E-05,1.7578125,0,0
-2.72456436505308E-05,8.97340942174196E-06,1.7578125,0,0
-2.69501779257553E-05,4.43585850007366E-06,1.7578125,0,0
-2.55026479862863E-05,2.68752637566649E-06,1.7578125,0,0
-2.42896330746589E-05,5.63961111765821E-06,1.7578125,0,0
-1.97389963432215E-05,9.67818050412461E-06,1.7578125,0,0
-2.85884852928575E-05,1.609198989172E-05,1.7578125,0,0
-2.27790715143783E-05,1.39241965371184E-05,1.7578125,0,0
-2.71930621238425E-05,1.31615433929255E-05,1.7578125,0,0
-2.07630873774178E-05,7.66012908570701E-06,1.7578125,0,0
-2.26782140089199E-05,8.57369195728097E-06,1.7578125,0,0
-2.10857524507446E-05,9.74349040916422E-06,1.7578125,0,0
-2.31209323828807E-05,1.01924542832421E-05,1.7578125,0,0
-2.35705701925326E-05,1.1414116670494E-05,1.7578125,0,0
-2.39132532442454E-05,1.4491573892883E-05,1.7578125,0,0
-2.37411604757654E-05,1.67703965416877E-05,1.7578125,0,0
-2.21077625610633E-05,1.63352997333277E-05,1.7578125,0,0
-2.1846726667718E-05,1.30341086332919E-05,1.7578125,0,0
-1.99893402168527E-05,7.53997073843493E-06,1.7578125,0,0
-2.18999430217082E-05,5.97539929003688E-06,1.7578125,0,0
-2.34888411796419E-05,6.88138607074507E-06,1.7578125,0,0
-2.68056101049297E-05,8.63828063302208E-06,1.7578125,0,0
-2.63940819422714E-05,9.4947308753035E-06,1.7578125,0,0
-2.65257494902471E-05,1.283272922592E-05,1.7578125,0,0
-2.43641206907341E-05,1.62771466420963E-05,1.7578125,0,0
-2.41669713432202E-05,1.77673991856864E-05,1.7578125,0,0
-2.31511876336299E-05,1.49413099279627E-05,1.7578125,0,0
-2.36155392485671E-05,1.22080036817351E-05,1.7578125,0,0
-2.43101585510885E-05,1.09164129753481E-05,1.7578125,0,0
-2.57678366324399E-05,1.06624256659416E-05,1.7578125,0,0
-2.57241372310091E-05,1.15180473585497E-05,1.7578125,0,0
-2.45644605456619E-05,1.2660749234783E-05,1.7578125,0,0
-1.98851848836057E-05,1.02048661574372E-05,1.7578125,0,0
-2.99557650578208E-05,1.47837054100819E-05,1.7578125,0,0
-2.42740079556825E-05,1.24481357488548E-05,1.7578125,0,0
-2.76646842394257E-05,1.47346763696987E-05,1.7578125,0,0
-2.08939691219712E-05,9.99255462375004E-06,1.7578125,0,0
-2.1263629605528E-05,1.03214460978052E-05,1.7578125,0,0
-1.9190032617189E-05,9.18059595278464E-06,1.7578125,0,0
-2.0715069695143E-05,1.20034810606739E-05,1.7578125,0,0
-1.97436565940734E-05,1.48666222230531E-05,1.7578125,0,0
-1.98384423129028E-05,1.45836247611442E-05,1.7578125,0,0
-2.07416032935726E-05,1.34318843265646E-05,1.7578125,0,0
-2.0215487893438E-05,1.4597851986764E-05,1.7578125,0,0
-2.05901105800876E-05,1.85077369678766E-05,1.7578125,0,0
-1.93470059457468E-05,1.91160906979349E-05,1.7578125,0,0
-2.00209960894426E-05,1.89426082215505E-05,1.7578125,0,0
-1.91600174730411E-05,1.83286119863624E-05,1.7578125,0,0
-2.12640134122921E-05,1.84154287126148E-05,1.7578125,0,0
-2.1773037587991E-05,1.65800174727337E-05,1.7578125,0,0
-2.39630826399662E-05,1.50047690112842E-05,1.7578125,0,0
-2.39450782828499E-05,1.07244632090442E-05,1.7578125,0,0
-2.47764437517617E-05,7.74298132455442E-06,1.7578125,0,0
-2.47962707362603E-05,7.40330233384157E-06,1.7578125,0,0
-2.67588784481632E-05,9.52509253693279E-06,1.7578125,0,0
-2.82233031612122E-05,1.16194696602179E-05,1.7578125,0,0
-2.84673060377827E-05,1.27076955322991E-05,1.7578125,0,0
-2.55676914093783E-05,1.31525157485157E-05,1.7578125,0,0
-2.34844974329462E-05,1.36226117319893E-05,1.7578125,0,0
-1.97523168026237E-05,1.06230081655667E-05,1.7578125,0,0
-2.85737842204981E-05,1.46963693623547E-05,1.7578125,0,0
-2.14026167668635E-05,1.106114450522E-05,1.7578125,0,0
-2.63174570136471E-05,1.27194725791924E-05,1.7578125,0,0
-2.38856355281314E-05,8.1047810454038E-06,1.7578125,0,0
-2.78303032246185E-05,9.62151352723595E-06,1.7578125,0,0
-2.54835849773372E-05,1.01744753919775E-05,1.7578125,0,0
-2.45355240622303E-05,1.11501240098733E-05,1.7578125,0,0
-2.2476584490505E-05,9.05163506104145E-06,1.7578125,0,0
-2.26975735131418E-05,6.67780204821611E-06,1.7578125,0,0
-2.46594026975799E-05,5.61773958906997E-06,1.7578125,0,0
-2.52389127126662E-05,7.15261330697103E-06,1.7578125,0,0
-2.63619895122247E-05,1.06483303170535E-05,1.7578125,0,0
-2.62402718362864E-05,1.1444265510363E-05,1.7578125,0,0
-2.93648008664604E-05,1.22669562188094E-05,1.7578125,0,0
-3.03984124911949E-05,1.14945314635406E-05,1.7578125,0,0
-3.15611760015599E-05,1.12195448309649E-05,1.7578125,0,0
-2.93534303636989E-05,9.85185397439636E-06,1.7578125,0,0
-2.83256340480875E-05,9.57294469117187E-06,1.7578125,0,0
-2.5863946575555E-05,8.23956634121714E-06,1.7578125,0,0
-2.55793729593279E-05,8.78098035173025E-06,1.7578125,0,0
-2.43236991082085E-05,8.58960265759379E-06,1.7578125,0,0
-2.5183415345964E-05,8.06620300863869E-06,1.7578125,0,0
-2.58139170909999E-05,6.8031722548767E-06,1.7578125,0,0
-2.55079412454506E-05,7.40528776077554E-06,1.7578125,0,0
-2.53083599091042E-05,8.79672461451264E-06,1.7578125,0,0
-2.62294306594413E-05,9.10214566829382E-06,1.7578125,0,0
-2.24678224185482E-05,5.86549367653788E-06,1.7578125,0,0
-3.24514367093798E-05,5.68009318158147E-06,1.7578125,0,0
-2.4345292331418E-05,2.02913975044794E-06,1.7578125,0,0
-2.95098943752237E-05,3.64720131074137E-06,1.7578125,0,0
-2.52077861659927E-05,2.90269872493809E-06,1.7578125,0,0
-2.75268193945521E-05,5.58818646823056E-06,1.7578125,0,0
-2.41701654886128E-05,3.72837621398503E-06,1.7578125,0,0
-2.45172614086187E-05,3.0364658414328E-06,1.7578125,0,0
-2.23998868023045E-05,3.88848502552719E-06,1.7578125,0,0
-2.05885116884019E-05,5.95112624068861E-06,1.7578125,0,0
-1.97885910893092E-05,6.35593187325867E-06,1.7578125,0,0
-1.93883061001543E-05,5.00223814015044E-06,1.7578125,0,0
-2.08977016882272E-05,3.38209861183714E-06,1.7578125,0,0
-1.94122876564506E-05,3.00904343930597E-06,1.7578125,0,0
-2.00441136257723E-05,6.90279330228805E-06,1.7578125,0,0
-1.92648221855052E-05,9.97747883957345E-06,1.7578125,0,0
-2.10439393413253E-05,1.15848170025856E-05,1.7578125,0,0
-2.02074952539988E-05,1.03244756246568E-05,1.7578125,0,0
-2.10655016417149E-05,9.77386935119284E-06,1.7578125,0,0
-1.96862401935505E-05,9.55697851168225E-06,1.7578125,0,0
-1.99341229745187E-05,1.10250330180861E-05,1.7578125,0,0
-1.9579783838708E-05,1.11460831249133E-05,1.7578125,0,0
-2.16099870158359E-05,1.10478804344893E-05,1.7578125,0,0
-2.25682615564438E-05,1.03392467281083E-05,1.7578125,0,0
-2.36967061937321E-05,9.64294486038852E-06,1.7578125,0,0
-2.40460049099056E-05,9.5711111498531E-06,1.7578125,0,0
-2.46652689384064E-05,1.02923158920021E-05,1.7578125,0,0
-2.15263808058808E-05,8.57884424476651E-06,1.7578125,0,0
-3.05586763715837E-05,1.24531898109126E-05,1.7578125,0,0
-2.14228330150945E-05,9.04180615179939E-06,1.7578125,0,0
-2.49440472543938E-05,1.06786774267675E-05,1.7578125,0,0
-2.05429823836312E-05,1.04641030702624E-05,1.7578125,0,0
-2.4140601453837E-05,1.38685536512639E-05,1.7578125,0,0
-2.26279698836152E-05,1.31275237436057E-05,1.7578125,0,0
-2.4631934138597E-05,1.1853385331051E-05,1.7578125,0,0
-2.55724826274673E-05,1.00223260233179E-05,1.7578125,0,0
-2.5921719498001E-05,8.05719446361763E-06,1.7578125,0,0
-2.55595368798822E-05,6.04018896410707E-06,1.7578125,0,0
-2.44679449679097E-05,5.87997692491626E-06,1.7578125,0,0
-2.42315381910885E-05,8.29293185233837E-06,1.7578125,0,0
-2.23449096665718E-05,1.07676687548519E-05,1.7578125,0,0
-2.41697343881242E-05,1.39020112328581E-05,1.7578125,0,0
-2.33980754273944E-05,1.55451780301519E-05,1.7578125,0,0
-2.37530875892844E-05,1.9049159163842E-05,1.7578125,0,0
-2.23599126911722E-05,2.24285213334952E-05,1.7578125,0,0
-2.37696021940792E-05,2.41272700804984E-05,1.7578125,0,0
-2.39695218624547E-05,2.1835534425918E-05,1.7578125,0,0
-2.57182909990661E-05,1.95328648260329E-05,1.7578125,0,0
-2.51634974119952E-05,2.00462200155016E-05,1.7578125,0,0
-2.4542496248614E-05,2.35294610320125E-05,1.7578125,0,0
-2.32756210607477E-05,2.48665328399511E-05,1.7578125,0,0
-2.39691362367012E-05,2.39987730310531E-05,1.7578125,0,0
-2.38564134633634E-05,2.25540952669689E-05,1.7578125,0,0
-2.28766348300269E-05,2.34579456446227E-05,1.7578125,0,0
-1.75783279701136E-05,1.84919263119809E-05,1.7578125,0,0
-2.56076164077967E-05,2.60815995716257E-05,1.7578125,0,0
-2.1130685126991E-05,2.00283557205694E-05,1.7578125,0,0
-2.7091198717244E-05,2.40472800214775E-05,1.7578125,0,0
-2.41441921389196E-05,1.7799738998292E-05,1.7578125,0,0
-2.61684199358569E-05,2.00950635189656E-05,1.7578125,0,0
-2.39822802541312E-05,1.89768252312206E-05,1.7578125,0,0
-2.59057633229531E-05,2.04333482543007E-05,1.7578125,0,0
-2.55503673542989E-05,1.77514593815431E-05,1.7578125,0,0
-2.42965197685407E-05,1.40831016324228E-05,1.7578125,0,0
-2.34462022490334E-05,1.10249193312484E-05,1.7578125,0,0
-2.32135680562351E-05,8.96413712325739E-06,1.7578125,0,0
-2.56825260294136E-05,9.58002783590928E-06,1.7578125,0,0
-2.58823656622553E-05,8.240210263466E-06,1.7578125,0,0
-2.61801378655946E-05,8.00165616965387E-06,1.7578125,0,0
-2.31408048421144E-05,5.98388760408852E-06,1.7578125,0,0
-2.16332718991907E-05,7.04101694282144E-06,1.7578125,0,0
-2.01741968339775E-05,6.44074134470429E-06,1.7578125,0,0
-2.31415324378759E-05,7.84987150836969E-06,1.7578125,0,0
-2.54444839811185E-05,8.23265872895718E-06,1.7578125,0,0
-2.77389481198043E-05,9.99087569653057E-06,1.7578125,0,0
-2.68214425886981E-05,9.49941477301763E-06,1.7578125,0,0
-2.6430185243953E-05,1.07840805867454E-05,1.7578125,0,0
-2.57910633081337E-05,1.23542313303915E-05,1.7578125,0,0
-2.46151375904446E-05,1.42367889566231E-05,1.7578125,0,0
-2.33427454077173E-05,1.42895623866934E-05,1.7578125,0,0
-2.2987209376879E-05,1.16831133709638E-05,1.7578125,0,0
-1.81101859197952E-05,6.70840290695196E-06,1.7578125,0,0
-2.52092850132613E-05,7.86717919254443E-06,1.7578125,0,0
-1.84747968887677E-05,5.35227172804298E-06,1.7578125,0,0
-2.32499260164332E-05,7.48608272260753E-06,1.7578125,0,0
-2.07470911846031E-05,3.60618378181243E-06,1.7578125,0,0
-2.47707394009922E-05,4.69675342174014E-06,1.7578125,0,0
-2.25382009375608E-05,5.68301675230032E-06,1.7578125,0,0
-2.29601700993953E-05,5.15228930453304E-06,1.7578125,0,0
-2.23624738282524E-05,3.22049004353175E-06,1.7578125,0,0
-2.32537677220535E-05,2.14756164496066E-06,1.7578125,0,0
-2.47795069299173E-05,1.88275760137913E-06,1.7578125,0,0
-2.51631608989555E-05,2.46740160037007E-06,1.7578125,0,0
-2.62064531852957E-05,4.84643760501058E-06,1.7578125,0,0
-2.44163165916689E-05,4.95809081257903E-06,1.7578125,0,0
-2.40374938584864E-05,5.45794182471582E-06,1.7578125,0,0
-2.26676002057502E-05,6.88376394464285E-06,1.7578125,0,0
-2.45302380790235E-05,9.45879401115235E-06,1.7578125,0,0
-2.46986583078979E-05,9.70191103988327E-06,1.7578125,0,0
-2.57180454354966E-05,9.92268178379163E-06,1.7578125,0,0
-2.4711433070479E-05,1.00958113762317E-05,1.7578125,0,0
-2.58839227171848E-05,1.14823969852296E-05,1.7578125,0,0
-2.59564076259267E-05,1.23499385153991E-05,1.7578125,0,0
-2.54444239544682E-05,1.28964293253375E-05,1.7578125,0,0
-2.31775047723204E-05,1.41485606945935E-05,1.7578125,0,0
-2.26300689973868E-05,1.51636277223588E-05,1.7578125,0,0
-2.26151987590129E-05,1.35985519591486E-05,1.7578125,0,0
-2.32467227760935E-05,1.01472833193839E-05,1.7578125,0,0
-2.1395799194579E-05,6.68427219352452E-06,1.7578125,0,0
-3.27262387145311E-05,1.10486062112614E-05,1.7578125,0,0
-2.66153347183717E-05,1.02868234534981E-05,1.7578125,0,0
-3.0522933229804E-05,1.02155700005824E-05,1.7578125,0,0
-2.59604275925085E-05,6.50431366011617E-06,1.7578125,0,0
-2.94760284305085E-05,7.65127060731174E-06,1.7578125,0,0
-2.82594428426819E-05,8.5744241005159E-06,1.7578125,0,0
-2.75770944426768E-05,9.0667936092359E-06,1.7578125,0,0
-2.47709758696146E-05,8.16397823655279E-06,1.7578125,0,0
-2.49240802077111E-05,7.8545444921474E-06,1.7578125,0,0
-2.51836499955971E-05,8.91931540536461E-06,1.7578125,0,0
-2.29439228860429E-05,1.13616233647917E-05,1.7578125,0,0
-2.27954478759784E-05,1.4249655578169E-05,1.7578125,0,0
-2.23693332372932E-05,1.33116755023366E-05,1.7578125,0,0
-2.44562434090767E-05,1.06746965684579E-05,1.7578125,0,0
-2.3006248738966E-05,9.67655250860844E-06,1.7578125,0,0
-2.2033418645151E-05,1.1785578863055E-05,1.7578125,0,0
-1.9582659660955E-05,1.2945189155289E-05,1.7578125,0,0
-2.04411098820856E-05,1.24053931358503E-05,1.7578125,0,0
-1.93673276953632E-05,1.02991025414667E-05,1.7578125,0,0
-1.98627803911222E-05,1.048609829013E-05,1.7578125,0,0
-2.00796930585057E-05,1.08199728856562E-05,1.7578125,0,0
-2.06120894290507E-05,1.01286559583968E-05,1.7578125,0,0
-2.02324481506366E-05,6.96059487381717E-06,1.7578125,0,0
-2.16031730815303E-05,2.23713595914887E-06,1.7578125,0,0
-2.29082434088923E-05,1.99921259991243E-07,1.7578125,0,0
-2.42110745602986E-05,3.10652967527858E-06,1.7578125,0,0
-1.94788826775039E-05,5.58043848286616E-06,1.7578125,0,0
-2.70061609626282E-05,7.93430899648229E-06,1.7578125,0,0
-1.95119428099133E-05,5.03575438415282E-06,1.7578125,0,0
-2.40672252402874E-05,5.77299260839936E-06,1.7578125,0,0
-1.94520889635896E-05,5.5153873290692E-06,1.7578125,0,0
-2.25921467063017E-05,7.35886078473413E-06,1.7578125,0,0
-2.13796574826119E-05,5.64460469831829E-06,1.7578125,0,0
-2.31502181122778E-05,3.53466293745441E-06,1.7578125,0,0
-2.33731097978307E-05,4.21326194555149E-06,1.7578125,0,0
-2.39510427491041E-05,6.540190497617E-06,1.7578125,0,0
-2.37312069657492E-05,7.55167138777324E-06,1.7578125,0,0
-2.13690782402409E-05,6.22019933871343E-06,1.7578125,0,0
-2.10237649298506E-05,4.99924271935015E-06,1.7578125,0,0
-2.0679577573901E-05,4.1329067244078E-06,1.7578125,0,0
-2.25338626478333E-05,4.255252861185E-06,1.7578125,0,0
-2.12569229915971E-05,4.74731723443256E-06,1.7578125,0,0
-2.23679671762511E-05,5.42134284842177E-06,1.7578125,0,0
-2.1931778974249E-05,4.19239449911402E-06,1.7578125,0,0
-2.33100272453157E-05,2.72585839411477E-06,1.7578125,0,0
-2.31079793593381E-05,1.4806997796768E-06,1.7578125,0,0
-2.37651947827544E-05,1.63839536071464E-06,1.7578125,0,0
-2.22999988181982E-05,3.20572007694864E-06,1.7578125,0,0
-2.25095136556774E-05,6.29216128800181E-06,1.7578125,0,0
-2.25725980271818E-05,7.86694454291137E-06,1.7578125,0,0
-2.30826644838089E-05,8.16150622995337E-06,1.7578125,0,0
-2.36531650443794E-05,7.79537367634475E-06,1.7578125,0,0
-2.46792005782481E-05,9.28560257307254E-06,1.7578125,0,0
-2.04265725187724E-05,8.55801226862241E-06,1.7578125,0,0
-2.86282865999965E-05,1.26068516692612E-05,1.7578125,0,0
-2.19348112295847E-05,1.12346315290779E-05,1.7578125,0,0
-2.86213526123902E-05,1.43547440529801E-05,1.7578125,0,0
-2.49401182372821E-05,1.01880332294968E-05,1.7578125,0,0
-2.76764985756017E-05,8.70470739755547E-06,1.7578125,0,0
-2.50072844210081E-05,7.58914256948628E-06,1.7578125,0,0
-2.60049273492768E-05,9.92253899312345E-06,1.7578125,0,0
-2.57727133430308E-05,1.17346507977345E-05,1.7578125,0,0
-2.51856818067608E-05,1.20551821964909E-05,1.7578125,0,0
-2.40374902205076E-05,1.1013466064469E-05,1.7578125,0,0
-2.21054833673406E-05,1.06750730992644E-05,1.7578125,0,0
-2.29206361836987E-05,1.21978737297468E-05,1.7578125,0,0
-2.31012472795555E-05,1.39096455313847E-05,1.7578125,0,0
-2.53746220550966E-05,1.7228050637641E-05,1.7578125,0,0
-2.49640270340024E-05,1.84370292117819E-05,1.7578125,0,0
-2.64284954027971E-05,1.78146838152315E-05,1.7578125,0,0
-2.53152593359118E-05,1.56865153257968E-05,1.7578125,0,0
-2.53373218583874E-05,1.5872032236075E-05,1.7578125,0,0
-2.30446948989993E-05,1.55237412400311E-05,1.7578125,0,0
-2.31355861615157E-05,1.51798467413755E-05,1.7578125,0,0
-2.27905184146948E-05,1.49837296703481E-05,1.7578125,0,0
-2.39095079450635E-05,1.6641793990857E-05,1.7578125,0,0
-2.29120250878623E-05,1.86685301741818E-05,1.7578125,0,0
-2.17345223063603E-05,2.12904978980077E-05,1.7578125,0,0
-2.29788493015803E-05,2.25767180381808E-05,1.7578125,0,0
-2.49110180448042E-05,2.2410053134081E-05,1.7578125,0,0
-2.00192698684987E-05,1.75461955223E-05,1.7578125,0,0
-2.71256267296849E-05,2.57699575740844E-05,1.7578125,0,0
-1.90193095477298E-05,1.9014685676666E-05,1.7578125,0,0
-2.53222769970307E-05,1.96211003640201E-05,1.7578125,0,0
-2.31184785661753E-05,1.2713850082946E-05,1.7578125,0,0
-2.64495065493975E-05,1.43856450449675E-05,1.7578125,0,0
-2.38915090449154E-05,1.33162448037183E-05,1.7578125,0,0
-2.58813779510092E-05,1.66305035236292E-05,1.7578125,0,0
-2.54403294093208E-05,1.74481720023323E-05,1.7578125,0,0
-2.43017020693515E-05,1.54971821757499E-05,1.7578125,0,0
-2.37335261772387E-05,1.12983034341596E-05,1.7578125,0,0
-2.34314084082143E-05,6.39360496279551E-06,1.7578125,0,0
-2.49818021984538E-05,4.50693232778576E-06,1.7578125,0,0
-2.35614734265255E-05,2.74335320682439E-06,1.7578125,0,0
-2.33251357713016E-05,4.04944512411021E-06,1.7578125,0,0
-2.07273624255322E-05,3.82783309760271E-06,1.7578125,0,0
-2.06167096621357E-05,5.21114634466358E-06,1.7578125,0,0
-1.92231364053441E-05,6.06112234891043E-06,1.7578125,0,0
-2.10752659768332E-05,1.1575706594158E-05,1.7578125,0,0
-2.09147638088325E-05,1.62458363774931E-05,1.7578125,0,0
-2.06782096938696E-05,1.77888960024575E-05,1.7578125,0,0
-1.88772519322811E-05,1.37852757688961E-05,1.7578125,0,0
-1.94796557480004E-05,1.21115435831598E-05,1.7578125,0,0
-2.00692538783187E-05,1.30779180835816E-05,1.7578125,0,0
-2.16174976230832E-05,1.53576474986039E-05,1.7578125,0,0
-2.17232245631749E-05,1.71413430507528E-05,1.7578125,0,0
-2.15497075259918E-05,1.79674643732142E-05,1.7578125,0,0
-1.7578915503691E-05,1.4036691027286E-05,1.7578125,0,0
-2.56061139225494E-05,1.8603199350764E-05,1.7578125,0,0
-2.15126110560959E-05,1.38027144203079E-05,1.7578125,0,0
-2.77755425486248E-05,2.02169321710244E-05,1.7578125,0,0
-2.43236299866112E-05,1.8171262126998E-05,1.7578125,0,0
-2.51178607868496E-05,2.01774637389462E-05,1.7578125,0,0
-2.15308136830572E-05,1.92175739357481E-05,1.7578125,0,0
-2.24132309085689E-05,1.93571086128941E-05,1.7578125,0,0
-2.28097578656161E-05,1.69528866535984E-05,1.7578125,0,0
-2.42126952798571E-05,1.37789211294148E-05,1.7578125,0,0
-2.54182468779618E-05,1.23775516840396E-05,1.7578125,0,0
-2.3888924260973E-05,1.22672963698278E-05,1.7578125,0,0
-2.21415702981176E-05,1.19261521831504E-05,1.7578125,0,0
-1.97558310901513E-05,9.17666511668358E-06,1.7578125,0,0
-2.08089022635249E-05,9.01987277757144E-06,1.7578125,0,0
-2.10586476896424E-05,8.69471841724589E-06,1.7578125,0,0
-2.31676822295412E-05,1.00249699244159E-05,1.7578125,0,0
-2.32647071243264E-05,8.74408033268992E-06,1.7578125,0,0
-2.4771779862931E-05,8.87483474798501E-06,1.7578125,0,0
-2.43528684222838E-05,1.02163503470365E-05,1.7578125,0,0
-2.53269408858614E-05,1.30460193759063E-05,1.7578125,0,0
-2.37345757341245E-05,1.30047774291597E-05,1.7578125,0,0
-2.22529579332331E-05,1.34617348521715E-05,1.7578125,0,0
-2.06786953640403E-05,1.48951758092153E-05,1.7578125,0,0
-1.91278541024076E-05,1.5587183952448E-05,1.7578125,0,0
-1.75130207935581E-05,1.26052136693033E-05,1.7578125,0,0
-1.79682392627001E-05,1.05936351246783E-05,1.7578125,0,0
-1.64926914294483E-05,9.56165331444936E-06,1.7578125,0,0
-2.313060213055E-05,1.41713089760742E-05,1.7578125,0,0
-1.67289217642974E-05,1.15640004878514E-05,1.7578125,0,0
-2.12432496482506E-05,1.29735617520055E-05,1.7578125,0,0
-1.99012702069012E-05,8.348760275112E-06,1.7578125,0,0
-2.43545255216304E-05,7.42340898796101E-06,1.7578125,0,0
-2.41105917666573E-05,5.7014999583771E-06,1.7578125,0,0
-2.59580501733581E-05,5.90842728342977E-06,1.7578125,0,0
-2.6929712475976E-05,6.75780665915227E-06,1.7578125,0,0
-2.72940669674426E-05,6.90565866534598E-06,1.7578125,0,0
-2.66671013378073E-05,5.92930700804573E-06,1.7578125,0,0
-2.59592470683856E-05,5.35701155968127E-06,1.7578125,0,0
-2.77365797956008E-05,6.09055041422835E-06,1.7578125,0,0
-2.85790065390756E-05,6.34825619272306E-06,1.7578125,0,0
-3.08327144011855E-05,9.09032223717077E-06,1.7578125,0,0
-3.09360293613281E-05,1.13361511466792E-05,1.7578125,0,0
-3.2264204492094E-05,1.20166751003126E-05,1.7578125,0,0
-3.17422272928525E-05,8.02434897195781E-06,1.7578125,0,0
-3.28426467604004E-05,4.87854867969872E-06,1.7578125,0,0
-3.2473722967552E-05,5.37363803232438E-06,1.7578125,0,0
-3.34636461047921E-05,9.7007996373577E-06,1.7578125,0,0
-3.33130992657971E-05,1.23378204079927E-05,1.7578125,0,0
-3.28727837768383E-05,1.33141538753989E-05,1.7578125,0,0
-3.05798639601562E-05,1.17139834401314E-05,1.7578125,0,0
-2.9483202524716E-05,8.36814251670148E-06,1.7578125,0,0
-3.04514469462447E-05,6.5405201894464E-06,1.7578125,0,0
-3.14869685098529E-05,6.08573463978246E-06,1.7578125,0,0
-2.4635724912514E-05,3.41252643920598E-06,1.7578125,0,0
-3.45074295182712E-05,2.72575562121347E-06,1.7578125,0,0
-2.64309946942376E-05,-1.18691033890173E-07,1.7578125,0,0
-3.38766294589732E-05,8.11534562217275E-07,1.7578125,0,0
-2.70136533799814E-05,1.00083991583233E-06,1.7578125,0,0
-2.77506333077326E-05,5.29994440512382E-06,1.7578125,0,0
-2.37191652558977E-05,6.22130983174429E-06,1.7578125,0,0
-2.48523901973385E-05,5.14417342856177E-06,1.7578125,0,0
-2.52282370638568E-05,5.18792694492731E-06,1.7578125,0,0
-2.70792297669686E-05,6.82776180838118E-06,1.7578125,0,0
-2.78312454611296E-05,7.04385547578568E-06,1.7578125,0,0
-2.54885508184088E-05,6.13761540080304E-06,1.7578125,0,0
-2.46288745984202E-05,6.9150278250163E-06,1.7578125,0,0
-2.29787237913115E-05,6.71053430778557E-06,1.7578125,0,0
-2.47954558290076E-05,7.12637074684608E-06,1.7578125,0,0
-2.34822055062978E-05,8.98262624104973E-06,1.7578125,0,0
-2.49501663347473E-05,1.15003304017591E-05,1.7578125,0,0
-2.51438650593627E-05,1.07314326669439E-05,1.7578125,0,0
-2.7798414521385E-05,8.78056835063035E-06,1.7578125,0,0
-2.64513564616209E-05,7.76253091316903E-06,1.7578125,0,0
-2.63553756667534E-05,8.42070676299045E-06,1.7578125,0,0
-2.57392366620479E-05,9.12206905923085E-06,1.7578125,0,0
-2.66927727352595E-05,9.72662837739335E-06,1.7578125,0,0
-2.49624408752425E-05,8.68506776896538E-06,1.7578125,0,0
-2.34070193982916E-05,6.07758011028636E-06,1.7578125,0,0
-2.33931423281319E-05,5.07663571625017E-06,1.7578125,0,0
-2.45734663621988E-05,6.92570438332041E-06,1.7578125,0,0
-1.99000733118737E-05,8.3070526670781E-06,1.7578125,0,0
-2.6783538487507E-05,1.37742126753437E-05,1.7578125,0,0
-1.86977358680451E-05,1.17365743790288E-05,1.7578125,0,0
-2.36363848671317E-05,1.32536379169323E-05,1.7578125,0,0
-2.03950930881547E-05,1.32623808895005E-05,1.7578125,0,0
-2.47518728428986E-05,1.54432309500407E-05,1.7578125,0,0
-2.28079625230748E-05,1.53348537423881E-05,1.7578125,0,0
-2.27298278332455E-05,1.60587478603702E-05,1.7578125,0,0
-2.01343100343365E-05,1.66488771355944E-05,1.7578125,0,0
-2.04065909201745E-05,1.67941016115947E-05,1.7578125,0,0
-2.22955150093185E-05,1.50653195305495E-05,1.7578125,0,0
-2.30297246162081E-05,1.31676079035969E-05,1.7578125,0,0
-2.42480509768939E-05,1.21169705380453E-05,1.7578125,0,0
-2.23323131649522E-05,1.12232019091607E-05,1.7578125,0,0
-2.14435094676446E-05,1.28096289699897E-05,1.7578125,0,0
-1.85702683666022E-05,1.45054118547705E-05,1.7578125,0,0
-1.99140849872492E-05,1.53502842294984E-05,1.7578125,0,0
-2.02230221475475E-05,1.32459908854798E-05,1.7578125,0,0
-2.23094430111814E-05,1.0402229236206E-05,1.7578125,0,0
-2.20177698793123E-05,6.66276991978521E-06,1.7578125,0,0
-2.31910089496523E-05,5.32239801032119E-06,1.7578125,0,0
-2.19347293750616E-05,5.52853089175187E-06,1.7578125,0,0
-2.14573883567937E-05,7.82668121246388E-06,1.7578125,0,0
-2.03892632271163E-05,1.0432296221552E-05,1.7578125,0,0
-2.05764536076458E-05,1.1207614079467E-05,1.7578125,0,0
-2.11394053621916E-05,9.9747830972774E-06,1.7578125,0,0
-2.23031674977392E-05,8.79062463354785E-06,1.7578125,0,0
-1.78476038854569E-05,6.94520485922112E-06,1.7578125,0,0
-2.40235494857188E-05,9.86692703008885E-06,1.7578125,0,0
-1.69175291375723E-05,8.91685613169102E-06,1.7578125,0,0
-2.32440124818822E-05,1.15553993964568E-05,1.7578125,0,0
-2.16734042624012E-05,6.91040850142599E-06,1.7578125,0,0
-2.59381849900819E-05,5.27765996594098E-06,1.7578125,0,0
-2.53663602052256E-05,5.82357142775436E-06,1.7578125,0,0
-2.63425190496491E-05,9.37336153583601E-06,1.7578125,0,0
-2.41553352680057E-05,1.27799949041218E-05,1.7578125,0,0
-2.22685230255593E-05,1.57694721565349E-05,1.7578125,0,0
-2.15357467823196E-05,1.82905296242097E-05,1.7578125,0,0
-2.11081860470586E-05,1.90309528989019E-05,1.7578125,0,0
-2.27376076509245E-05,1.7743624994182E-05,1.7578125,0,0
-2.18905879592057E-05,1.57059494085843E-05,1.7578125,0,0
-2.24981395149371E-05,1.74719752976671E-05,1.7578125,0,0
-2.19093053601682E-05,1.91177514352603E-05,1.7578125,0,0
-2.404632687103E-05,1.75790828507161E-05,1.7578125,0,0
-2.42326950683491E-05,1.34213141791406E-05,1.7578125,0,0
-2.58338277490111E-05,1.25565829875995E-05,1.7578125,0,0
-2.58570289588533E-05,1.23198742585373E-05,1.7578125,0,0
-2.6689624064602E-05,1.06287125163362E-05,1.7578125,0,0
-2.54849110206123E-05,7.2993352659978E-06,1.7578125,0,0
-2.4883931473596E-05,5.61805427423678E-06,1.7578125,0,0
-2.33490573009476E-05,5.12726819579257E-06,1.7578125,0,0
-2.24596988118719E-05,5.33534057467477E-06,1.7578125,0,0
-2.23111564991996E-05,7.4212989602529E-06,1.7578125,0,0
-2.3187045371742E-05,9.88149531622184E-06,1.7578125,0,0
-1.94761596503668E-05,6.94590244165738E-06,1.7578125,0,0
-2.68758467427688E-05,8.81617597769946E-06,1.7578125,0,0
-1.8435424863128E-05,8.01967416919069E-06,1.7578125,0,0
-2.13810162676964E-05,1.16686660476262E-05,1.7578125,0,0
-1.70441944646882E-05,9.21562514122343E-06,1.7578125,0,0
-2.21919508476276E-05,1.09245484054554E-05,1.7578125,0,0
-2.19273733819136E-05,1.05728240669123E-05,1.7578125,0,0
-2.36052637774264E-05,1.12849993456621E-05,1.7578125,0,0
-2.37979802477639E-05,1.07138494058745E-05,1.7578125,0,0
-2.53765410889173E-05,9.24509004107676E-06,1.7578125,0,0
-2.65724538621726E-05,7.66399443818955E-06,1.7578125,0,0
-2.51953006227268E-05,6.82139034324791E-06,1.7578125,0,0
-2.56426446867408E-05,6.0119364206912E-06,1.7578125,0,0
-2.46050349232974E-05,4.16576040151995E-06,1.7578125,0,0
-2.48023861786351E-05,5.62276818527607E-06,1.7578125,0,0
-2.22129310714081E-05,7.6274973253021E-06,1.7578125,0,0
-2.23192200792255E-05,9.01153180166148E-06,1.7578125,0,0
-2.15610616578488E-05,7.64153446652927E-06,1.7578125,0,0
-2.26380234380485E-05,8.351376891369E-06,1.7578125,0,0
-2.1831328922417E-05,1.01509722298943E-05,1.7578125,0,0
-2.34256767726038E-05,1.23862982945866E-05,1.7578125,0,0
-2.25330604735063E-05,1.23836607599515E-05,1.7578125,0,0
-2.11711103474954E-05,1.21307903100387E-05,1.7578125,0,0
-2.03611598408315E-05,1.2155564945715E-05,1.7578125,0,0
-2.182637945225E-05,1.15861957965535E-05,1.7578125,0,0
-2.31972426263383E-05,9.13850362849189E-06,1.7578125,0,0
-2.26548545469996E-05,7.0443829827127E-06,1.7578125,0,0
-1.86711113201454E-05,5.32870490133064E-06,1.7578125,0,0
-2.74119138339302E-05,8.31724810268497E-06,1.7578125,0,0
-2.19425455725286E-05,6.91561353960424E-06,1.7578125,0,0
-2.61370150838047E-05,7.79823858465534E-06,1.7578125,0,0
-2.01057828235207E-05,7.28657869331073E-06,1.7578125,0,0
-2.04487696464639E-05,9.124965799856E-06,1.7578125,0,0
-1.90234750334639E-05,9.43567738431739E-06,1.7578125,0,0
-2.13147141039371E-05,9.61653313424904E-06,1.7578125,0,0
-2.14866176975193E-05,1.04164400909212E-05,1.7578125,0,0
-2.1034120436525E-05,1.29632471725927E-05,1.7578125,0,0
-1.99573532881914E-05,1.55706893565366E-05,1.7578125,0,0
-1.92074985534418E-05,1.70402381627355E-05,1.7578125,0,0
-2.19945886783535E-05,1.65136152645573E-05,1.7578125,0,0
-2.42289952439023E-05,1.34019583128975E-05,1.7578125,0,0
-2.69499141722918E-05,1.2207171494083E-05,1.7578125,0,0
-2.54781007242855E-05,1.45720650834846E-05,1.7578125,0,0
-2.49379827437224E-05,1.90438422578154E-05,1.7578125,0,0
-2.38303273363272E-05,2.01374114112696E-05,1.7578125,0,0
-2.61232071352424E-05,1.96170058188727E-05,1.7578125,0,0
-2.67727191385347E-05,1.96579530893359E-05,1.7578125,0,0
-2.79496944131097E-05,2.0256731659174E-05,1.7578125,0,0
-2.70964246738004E-05,2.05883097805781E-05,1.7578125,0,0
-2.63958372670459E-05,2.1253983504721E-05,1.7578125,0,0
-2.4318589566974E-05,2.05599881155649E-05,1.7578125,0,0
-2.20978126890259E-05,2.07281445909757E-05,1.7578125,0,0
-2.08230085263494E-05,2.23474762606202E-05,1.7578125,0,0
-2.25496441998985E-05,2.33404771279311E-05,1.7578125,0,0
-1.94773638213519E-05,1.5753534171381E-05,1.7578125,0,0
-2.6479736334295E-05,1.81496943696402E-05,1.7578125,0,0
-1.92567767953733E-05,8.99616679816972E-06,1.7578125,0,0
-2.68914409389254E-05,1.39961066452088E-05,1.7578125,0,0
-2.6235113182338E-05,1.09084421637817E-05,1.7578125,0,0
-3.02528205793351E-05,1.54213103087386E-05,1.7578125,0,0
-2.68039075308479E-05,1.39963394758524E-05,1.7578125,0,0
-2.6472231184016E-05,1.23977224575356E-05,1.7578125,0,0
-2.58329691860126E-05,9.50679986999603E-06,1.7578125,0,0
-2.60317010543076E-05,8.49581647344166E-06,1.7578125,0,0
-2.6077548682224E-05,7.32987291485188E-06,1.7578125,0,0
-2.50638513534795E-05,6.48504692435381E-06,1.7578125,0,0
-2.4951832529041E-05,8.06029765954008E-06,1.7578125,0,0
-2.27268083108356E-05,8.42724148242269E-06,1.7578125,0,0
-2.25538242375478E-05,1.01119203463895E-05,1.7578125,0,0
-2.01068214664701E-05,8.57469331094762E-06,1.7578125,0,0
-2.06184940907406E-05,7.88263059803285E-06,1.7578125,0,0
-2.02017545234412E-05,5.88223019803991E-06,1.7578125,0,0
-2.20308356801979E-05,7.28541317585041E-06,1.7578125,0,0
-2.11157221201574E-05,7.53439735490247E-06,1.7578125,0,0
-2.10636535484809E-05,8.74332999956096E-06,1.7578125,0,0
-2.02839200937888E-05,8.66993559611728E-06,1.7578125,0,0
-2.13565854210174E-05,9.04861553863157E-06,1.7578125,0,0
-2.03165054699639E-05,7.62538138587843E-06,1.7578125,0,0
-1.94752010429511E-05,6.66076175548369E-06,1.7578125,0,0
-2.09933605219703E-05,5.15710053150542E-06,1.7578125,0,0
-2.25776457227767E-05,3.85800603908137E-06,1.7578125,0,0
-1.81159157364164E-05,2.09260178962722E-06,1.7578125,0,0
-2.49400673055789E-05,2.06330400942534E-06,1.7578125,0,0
-1.92385032278253E-05,1.36950791329582E-06,1.7578125,0,0
-2.56128605542472E-05,3.15672286888002E-06,1.7578125,0,0
-2.301550739503E-05,3.09223833028227E-06,1.7578125,0,0
-2.69262200163212E-05,3.57566477759974E-06,1.7578125,0,0
-2.5066134185181E-05,4.25118014391046E-06,1.7578125,0,0
-2.52514091698686E-05,4.54882592748618E-06,1.7578125,0,0
-2.36591513385065E-05,4.7346411520266E-06,1.7578125,0,0
-2.41545694734668E-05,5.03548471897375E-06,1.7578125,0,0
-2.57352639891906E-05,5.07676122651901E-06,1.7578125,0,0
-2.59667813224951E-05,4.80382868772722E-06,1.7578125,0,0
-2.77600902336417E-05,5.08665243614814E-06,1.7578125,0,0
-2.83694407698931E-05,5.70298107049894E-06,1.7578125,0,0
-3.06848269246984E-05,7.38416019885335E-06,1.7578125,0,0
-2.92562508548144E-05,9.07212233869359E-06,1.7578125,0,0
-2.85940568574006E-05,1.11509089038009E-05,1.7578125,0,0
-2.63740075752139E-05,1.38854202305083E-05,1.7578125,0,0
-2.77456492767669E-05,1.68326896528015E-05,1.7578125,0,0
-2.77080871455837E-05,1.75073200807674E-05,1.7578125,0,0
-2.78307634289376E-05,1.60093513841275E-05,1.7578125,0,0
-2.73116347671021E-05,1.32712339109275E-05,1.7578125,0,0
-2.83777517324779E-05,1.18572743303957E-05,1.7578125,0,0
-2.6988400350092E-05,1.18868738354649E-05,1.7578125,0,0
-2.55778304563137E-05,1.1082129276474E-05,1.7578125,0,0
-2.56385992543073E-05,9.1067040557391E-06,1.7578125,0,0
-2.76061728072818E-05,7.23509674571687E-06,1.7578125,0,0
-2.27355376409832E-05,6.11555287832743E-06,1.7578125,0,0
-3.02136777463602E-05,9.77136369328946E-06,1.7578125,0,0
-2.03110030270182E-05,1.01777468444197E-05,1.7578125,0,0
-2.66182014456717E-05,1.12729267129907E-05,1.7578125,0,0
-2.27207510761218E-05,5.65388700124458E-06,1.7578125,0,0
-2.67300856648944E-05,3.41462555297767E-06,1.7578125,0,0
-2.50274770223768E-05,2.78868287750811E-06,1.7578125,0,0
-2.73671575996559E-05,5.00782016388257E-06,1.7578125,0,0
-2.69116408162517E-05,5.99827399128117E-06,1.7578125,0,0
-2.74031626759097E-05,6.46242961011012E-06,1.7578125,0,0
-2.81648208328988E-05,6.79494314681506E-06,1.7578125,0,0
-2.78280622296734E-05,7.57726184019702E-06,1.7578125,0,0
-2.88687297143042E-05,9.86869417829439E-06,1.7578125,0,0
-2.69775209744694E-05,1.23103800433455E-05,1.7578125,0,0
-2.74967969744466E-05,1.62987016665284E-05,1.7578125,0,0
-2.6105855795322E-05,1.88368685485329E-05,1.7578125,0,0
-2.79681371466722E-05,1.87968234968139E-05,1.7578125,0,0
-2.67438699665945E-05,1.54466724779923E-05,1.7578125,0,0
-2.6905308914138E-05,1.40982092489139E-05,1.7578125,0,0
-2.50893972406629E-05,1.54735353135038E-05,1.7578125,0,0
-2.57238734775456E-05,1.70351213455433E-05,1.7578125,0,0
-2.52151203312678E-05,1.62061714945594E-05,1.7578125,0,0
-2.55165286944248E-05,1.75699333340162E-05,1.7578125,0,0
-2.39836426771944E-05,1.92156785487896E-05,1.7578125,0,0
-2.358872370678E-05,1.91660692507867E-05,1.7578125,0,0
-2.29999350267462E-05,1.73575190274278E-05,1.7578125,0,0
-2.27875061682425E-05,1.61720381584018E-05,1.7578125,0,0
-1.97738809220027E-05,1.29136160467169E-05,1.7578125,0,0
-2.8156784537714E-05,1.66941408679122E-05,1.7578125,0,0
-2.0726252841996E-05,1.17645959107904E-05,1.7578125,0,0
-2.51709425356239E-05,1.57656813826179E-05,1.7578125,0,0
-2.11842925637029E-05,1.1989873200946E-05,1.7578125,0,0
-2.32888542086584E-05,1.442715893063E-05,1.7578125,0,0
-2.13502225960838E-05,1.36661747092148E-05,1.7578125,0,0
-2.32867823797278E-05,1.36502840177855E-05,1.7578125,0,0
-2.32567963394104E-05,1.16823439384461E-05,1.7578125,0,0
-2.26569700316759E-05,1.16680303108296E-05,1.7578125,0,0
-2.23956230911426E-05,1.26958457258297E-05,1.7578125,0,0
-2.15344552998431E-05,1.27652074297657E-05,1.7578125,0,0
-2.19677549466724E-05,1.25617034427705E-05,1.7578125,0,0
-2.05786745937075E-05,1.04761584225344E-05,1.7578125,0,0
-2.15683139686007E-05,1.05487360997358E-05,1.7578125,0,0
-2.03835988941137E-05,1.0061559805763E-05,1.7578125,0,0
-2.07245630008401E-05,1.12931911644409E-05,1.7578125,0,0
-1.89928032341413E-05,1.03451611721539E-05,1.7578125,0,0
-1.96359833353199E-05,1.04759874375304E-05,1.7578125,0,0
-1.95640423044097E-05,9.76808769337367E-06,1.7578125,0,0
-2.10841644729953E-05,1.13876558316406E-05,1.7578125,0,0
-2.13788662222214E-05,1.16635383164976E-05,1.7578125,0,0
-2.34869476116728E-05,1.16178325697547E-05,1.7578125,0,0
-2.423562000331E-05,1.02975745903677E-05,1.7578125,0,0
-2.44652910623699E-05,8.77184356795624E-06,1.7578125,0,0
-2.50183657044545E-05,9.10378366825171E-06,1.7578125,0,0
-2.48162668867735E-05,1.04982418633881E-05,1.7578125,0,0
-1.89353158930317E-05,6.96872029948281E-06,1.7578125,0,0
-2.53095495281741E-05,8.52991161082173E-06,1.7578125,0,0
-1.74622382473899E-05,6.77522848491208E-06,1.7578125,0,0
-2.2213489501155E-05,1.16057290142635E-05,1.7578125,0,0
-1.88763460755581E-05,1.11678355096956E-05,1.7578125,0,0
-2.35596526181325E-05,1.19077667477541E-05,1.7578125,0,0
-2.30448076763423E-05,8.99917449714849E-06,1.7578125,0,0
-2.52523204835597E-05,7.17577722753049E-06,1.7578125,0,0
-2.47496227530064E-05,8.2770948210964E-06,1.7578125,0,0
-2.37616932281526E-05,1.23760037240572E-05,1.7578125,0,0
-2.25804069486912E-05,1.63545719260583E-05,1.7578125,0,0
-2.19415396713885E-05,1.86063934961567E-05,1.7578125,0,0
-2.30739733524388E-05,1.9730538042495E-05,1.7578125,0,0
-2.08719120564638E-05,1.78250593307894E-05,1.7578125,0,0
-2.02649007405853E-05,1.72279669641284E-05,1.7578125,0,0
-1.85965636774199E-05,1.72244617715478E-05,1.7578125,0,0
-2.00421654881211E-05,1.76658668351593E-05,1.7578125,0,0
-1.934772808454E-05,1.5483281458728E-05,1.7578125,0,0
-2.08068668143824E-05,1.20108297778643E-05,1.7578125,0,0
-2.03828221856384E-05,7.30209603716503E-06,1.7578125,0,0
-2.16083226405317E-05,4.29115652877954E-06,1.7578125,0,0
-2.17368688026909E-05,3.86487954529002E-06,1.7578125,0,0
-2.23249226110056E-05,7.97915890871082E-06,1.7578125,0,0
-2.08843048312701E-05,1.21647453852347E-05,1.7578125,0,0
-2.00302656594431E-05,1.43731786010903E-05,1.7578125,0,0
-1.96748715097783E-05,1.55255274876254E-05,1.7578125,0,0
-1.98656452994328E-05,1.47690170706483E-05,1.7578125,0,0
-1.66269073815783E-05,9.10987910174299E-06,1.7578125,0,0
-2.45127066591522E-05,1.06125198726659E-05,1.7578125,0,0
-2.13705734495306E-05,5.67134611628717E-06,1.7578125,0,0
-2.75414877251023E-05,7.75922489992809E-06,1.7578125,0,0
-2.33892860705964E-05,3.98124120692955E-06,1.7578125,0,0
-2.37368803936988E-05,6.13610245636664E-06,1.7578125,0,0
-2.01621351152426E-05,6.10438064541086E-06,1.7578125,0,0
-2.07099783438025E-05,7.19883746569394E-06,1.7578125,0,0
-2.17807701119455E-05,7.32196212993586E-06,1.7578125,0,0
-2.35273146245163E-05,6.54168707114877E-06,1.7578125,0,0
-2.40736881096382E-05,6.96829283697298E-06,1.7578125,0,0
-2.25569438043749E-05,8.74399302119855E-06,1.7578125,0,0
-2.32090660574613E-05,1.08370431917137E-05,1.7578125,0,0
-2.31421799981035E-05,1.00861007013009E-05,1.7578125,0,0
-2.46812141995179E-05,1.02226313174469E-05,1.7578125,0,0
-2.44414550252259E-05,9.28731788008008E-06,1.7578125,0,0
-2.66042225121055E-05,9.44464318308746E-06,1.7578125,0,0
-2.62182711594505E-05,9.18299974728143E-06,1.7578125,0,0
-2.54835595114855E-05,1.0737903721747E-05,1.7578125,0,0
-2.32916936511174E-05,1.15665470730164E-05,1.7578125,0,0
-2.46087874984369E-05,1.30582593556028E-05,1.7578125,0,0
-2.63985803030664E-05,1.50326259245048E-05,1.7578125,0,0
-2.84883390122559E-05,1.72845939232502E-05,1.7578125,0,0
-2.8756478059222E-05,1.69026698131347E-05,1.7578125,0,0
-2.75348029390443E-05,1.40816819111933E-05,1.7578125,0,0
-2.63391666521784E-05,1.09387729025912E-05,1.7578125,0,0
-2.66232855210546E-05,9.37002823775401E-06,1.7578125,0,0
-2.10964444704587E-05,7.91717320680618E-06,1.7578125,0,0
-2.92129661829676E-05,1.0807299076987E-05,1.7578125,0,0
-2.14548963413108E-05,6.73911017656792E-06,1.7578125,0,0
-2.67011146206642E-05,6.83164898873656E-06,1.7578125,0,0
-2.13523362617707E-05,4.19474599766545E-06,1.7578125,0,0
-2.38410721067339E-05,6.60813748254441E-06,1.7578125,0,0
-2.1213483705651E-05,8.47636874823365E-06,1.7578125,0,0
-2.20680722122779E-05,1.0790995474963E-05,1.7578125,0,0
-2.09096360777039E-05,1.15469256343204E-05,1.7578125,0,0
-2.20149759115884E-05,1.12346888272441E-05,1.7578125,0,0
-2.43579579546349E-05,1.08256635940052E-05,1.7578125,0,0
-2.42787100432906E-05,1.13190581032541E-05,1.7578125,0,0
-2.45315313804895E-05,1.29260160974809E-05,1.7578125,0,0
-2.32480433624005E-05,1.29498776004766E-05,1.7578125,0,0
-2.52464742516167E-05,1.2684402463492E-05,1.7578125,0,0
-2.48070882662432E-05,1.04799482869566E-05,1.7578125,0,0
-2.48609012487577E-05,9.50544654187979E-06,1.7578125,0,0
-2.23433271457907E-05,8.32109071779996E-06,1.7578125,0,0
-2.44281236518873E-05,8.21498815639643E-06,1.7578125,0,0
-2.63253787124995E-05,8.68058123160154E-06,1.7578125,0,0
-2.89967592834728E-05,1.07827772808378E-05,1.7578125,0,0
-2.81904358416796E-05,1.1660508789646E-05,1.7578125,0,0
-2.73378864221741E-05,9.73584246821702E-06,1.7578125,0,0
-2.56559342233231E-05,6.24498352408409E-06,1.7578125,0,0
-2.51028250204399E-05,5.37833011549083E-06,1.7578125,0,0
-2.4365283024963E-05,6.98304302204633E-06,1.7578125,0,0
-2.44178609136725E-05,7.98121254774742E-06,1.7578125,0,0
-2.13946623262018E-05,6.68849861540366E-06,1.7578125,0,0
-3.02282278425992E-05,9.20117781788576E-06,1.7578125,0,0
-2.15968520933529E-05,6.86354860590654E-06,1.7578125,0,0
-2.56012790487148E-05,8.67780636326643E-06,1.7578125,0,0
-2.11923015740467E-05,6.60538580632419E-06,1.7578125,0,0
-2.52714544330956E-05,7.19339232091443E-06,1.7578125,0,0
-2.45529990934301E-05,5.94992980040843E-06,1.7578125,0,0
-2.5922125132638E-05,5.19973582413513E-06,1.7578125,0,0
-2.47921161644626E-05,5.26304211234674E-06,1.7578125,0,0
-2.45691135205561E-05,4.59161356047844E-06,1.7578125,0,0
-2.5127688786597E-05,3.02597868540033E-06,1.7578125,0,0
-2.50923985731788E-05,1.73756609456177E-06,1.7578125,0,0
-2.71299359155819E-05,9.66837205851334E-07,1.7578125,0,0
-2.68030253209872E-05,3.37694586960424E-07,1.7578125,0,0
-2.74120247922838E-05,2.90483080789272E-06,1.7578125,0,0
-2.51091150857974E-05,5.923830485699E-06,1.7578125,0,0
-2.56277089647483E-05,7.90864851296647E-06,1.7578125,0,0
-2.4951097657322E-05,7.04082094671321E-06,1.7578125,0,0
-2.62334760918748E-05,6.575251063623E-06,1.7578125,0,0
-2.38903357967502E-05,6.75701539876172E-06,1.7578125,0,0
-2.24961895582965E-05,7.2866409936978E-06,1.7578125,0,0
-2.19705470954068E-05,6.80482480674982E-06,1.7578125,0,0
-2.35572497331304E-05,6.96216920914594E-06,1.7578125,0,0
-2.35510615311796E-05,6.85300165059743E-06,1.7578125,0,0
-2.40773097175406E-05,6.1725522755296E-06,1.7578125,0,0
-2.42950482061133E-05,6.88826730765868E-06,1.7578125,0,0
-2.4325359845534E-05,9.39404981181724E-06,1.7578125,0,0
-1.94842323253397E-05,8.17284035292687E-06,1.7578125,0,0
-2.64735772361746E-05,9.10702783585293E-06,1.7578125,0,0
-1.85028784471797E-05,1.93899859368685E-06,1.7578125,0,0
-2.34470699069789E-05,1.43554359510745E-06,1.7578125,0,0
-1.94562071555993E-05,-1.05060678379232E-06,1.7578125,0,0
-2.26785941777052E-05,1.21656626106414E-06,1.7578125,0,0
-2.12386930797948E-05,2.11548672268691E-06,1.7578125,0,0
-2.24869309022324E-05,4.97939845445217E-06,1.7578125,0,0
-2.2598629584536E-05,8.25696952233557E-06,1.7578125,0,0
-2.44219045271166E-05,9.68804397416534E-06,1.7578125,0,0
-2.63023830484599E-05,7.61195042287E-06,1.7578125,0,0
-2.59228218055796E-05,6.17611294728704E-06,1.7578125,0,0
-2.57613155554282E-05,7.56802637624787E-06,1.7578125,0,0
-2.50183220487088E-05,8.20996683614794E-06,1.7578125,0,0
-2.83826775557827E-05,1.06504030554788E-05,1.7578125,0,0
-2.93606626655674E-05,1.32832292365492E-05,1.7578125,0,0
-3.03651922877179E-05,1.71499541465892E-05,1.7578125,0,0
-2.77745766652515E-05,1.89863385458011E-05,1.7578125,0,0
-2.70600521616871E-05,1.95045504369773E-05,1.7578125,0,0
-2.46361687459284E-05,1.77129059011349E-05,1.7578125,0,0
-2.39306918956572E-05,1.63242239068495E-05,1.7578125,0,0
-2.2672196791973E-05,1.52612774400041E-05,1.7578125,0,0
-2.28714179684175E-05,1.6024485375965E-05,1.7578125,0,0
-2.22834514715942E-05,1.7240978195332E-05,1.7578125,0,0
-2.21741811401444E-05,1.83787287824089E-05,1.7578125,0,0
-2.23399310925743E-05,1.77896854438586E-05,1.7578125,0,0
-2.44999973801896E-05,1.56871938088443E-05,1.7578125,0,0
-2.01523944269866E-05,1.13000023702625E-05,1.7578125,0,0
-2.73234672931721E-05,1.39570047394955E-05,1.7578125,0,0
-1.91614217328606E-05,7.41757003197563E-06,1.7578125,0,0
-2.41756843024632E-05,9.95476602838608E-06,1.7578125,0,0
-2.12162140087457E-05,8.72235432325397E-06,1.7578125,0,0
-2.69500760623487E-05,1.31156066345284E-05,1.7578125,0,0
-2.60015240201028E-05,1.32548011606559E-05,1.7578125,0,0
-2.72883498837473E-05,1.26293898574659E-05,1.7578125,0,0
-2.65034377662232E-05,1.03603751995252E-05,1.7578125,0,0
-2.61707300523994E-05,9.56389885686804E-06,1.7578125,0,0
-2.57257433986524E-05,1.02546664493275E-05,1.7578125,0,0
-2.45477931457572E-05,1.03563615994062E-05,1.7578125,0,0
-2.5306204406661E-05,1.00128827398294E-05,1.7578125,0,0
-2.46062354563037E-05,8.20788136479678E-06,1.7578125,0,0
-2.59844746324234E-05,9.99982876237482E-06,1.7578125,0,0
-2.48689811996883E-05,1.31999549921602E-05,1.7578125,0,0
-2.60291235463228E-05,1.73348871612689E-05,1.7578125,0,0
-2.54311908065574E-05,1.72842283063801E-05,1.7578125,0,0
-2.72181459877174E-05,1.67010257428046E-05,1.7578125,0,0
-2.64879618043778E-05,1.61564439622452E-05,1.7578125,0,0
-2.68456951744156E-05,1.67021189554362E-05,1.7578125,0,0
-2.59253210970201E-05,1.5651623471058E-05,1.7578125,0,0
-2.67078448814573E-05,1.57932336151134E-05,1.7578125,0,0
-2.71336994046578E-05,1.51173280755756E-05,1.7578125,0,0
-2.78466413874412E-05,1.42718017741572E-05,1.7578125,0,0
-2.76886858046055E-05,1.56850182975177E-05,1.7578125,0,0
-2.67636223725276E-05,1.82110743480735E-05,1.7578125,0,0
-1.98934267245932E-05,1.48438839460141E-05,1.7578125,0,0
-2.70539258053759E-05,2.03003310161876E-05,1.7578125,0,0
-1.90715945791453E-05,1.44286159411422E-05,1.7578125,0,0
-2.40656518144533E-05,1.72603267856175E-05,1.7578125,0,0
-1.98886846192181E-05,1.28298033814644E-05,1.7578125,0,0
-2.3791850253474E-05,1.51949543578667E-05,1.7578125,0,0
-2.39985656662611E-05,1.24928519653622E-05,1.7578125,0,0
-2.59392945736181E-05,1.21887715067714E-05,1.7578125,0,0
-2.32666170632001E-05,1.29903964989353E-05,1.7578125,0,0
-2.09216959774494E-05,1.36992803163594E-05,1.7578125,0,0
-2.00978083739756E-05,1.35251257233904E-05,1.7578125,0,0
-2.02562514459714E-05,1.3104406207276E-05,1.7578125,0,0
-2.27257878577802E-05,1.4915453903086E-05,1.7578125,0,0
-2.31201520364266E-05,1.54349781951169E-05,1.7578125,0,0
-2.46941708610393E-05,1.73470307345269E-05,1.7578125,0,0
-2.27428718062583E-05,1.69171707966598E-05,1.7578125,0,0
-2.22974504140439E-05,1.76412268046988E-05,1.7578125,0,0
-1.99237911147065E-05,1.74182023329195E-05,1.7578125,0,0
-2.0668971046689E-05,1.89069542102516E-05,1.7578125,0,0
-2.0027664504596E-05,1.76213452505181E-05,1.7578125,0,0
-2.04939824470785E-05,1.51405210999656E-05,1.7578125,0,0
-1.88659032573923E-05,1.18535326691926E-05,1.7578125,0,0
-1.76384564838372E-05,1.28266428873758E-05,1.7578125,0,0
-1.66939753398765E-05,1.54971021402162E-05,1.7578125,0,0
-1.71422070707195E-05,1.73511762113776E-05,1.7578125,0,0
-1.70591611095006E-05,1.79091784957564E-05,1.7578125,0,0
-1.80141942109913E-05,1.82650492206449E-05,1.7578125,0,0
-1.48681410792051E-05,1.48487397382269E-05,1.7578125,0,0
-2.1197180103627E-05,2.00318809220335E-05,1.7578125,0,0
-1.70527891896199E-05,1.20279592010775E-05,1.7578125,0,0
-2.30894747801358E-05,1.16289220386534E-05,1.7578125,0,0
-2.23258048208663E-05,6.96696770319249E-06,1.7578125,0,0
-2.39312012126902E-05,1.11539256977267E-05,1.7578125,0,0
-2.07933280762518E-05,1.03975180536509E-05,1.7578125,0,0
-2.19227949855849E-05,1.11718391053728E-05,1.7578125,0,0
-2.27021955652162E-05,1.10443288576789E-05,1.7578125,0,0
-2.38418942899443E-05,1.01578034445993E-05,1.7578125,0,0
-2.46333638642682E-05,9.02736792340875E-06,1.7578125,0,0
-2.38856446230784E-05,9.49070454225875E-06,1.7578125,0,0
-2.41097986872774E-05,1.23892605188303E-05,1.7578125,0,0
-2.34880244533997E-05,1.2295685337449E-05,1.7578125,0,0
-2.5428624212509E-05,1.24619264170178E-05,1.7578125,0,0
-2.63810161413858E-05,1.13115174826817E-05,1.7578125,0,0
-2.84137186099542E-05,1.30017315314035E-05,1.7578125,0,0
-2.86980084638344E-05,1.28808678709902E-05,1.7578125,0,0
-2.99632065434707E-05,1.28535439216648E-05,1.7578125,0,0
-2.8066810045857E-05,1.05935405372293E-05,1.7578125,0,0
-2.67802934104111E-05,9.34492982196389E-06,1.7578125,0,0
-2.54730293818284E-05,7.22417826182209E-06,1.7578125,0,0
-2.56440853263484E-05,6.41778342469479E-06,1.7578125,0,0
-2.61255208897637E-05,5.85917587159202E-06,1.7578125,0,0
-2.6375089873909E-05,4.70297527499497E-06,1.7578125,0,0
-2.49376498686615E-05,3.05729963656631E-06,1.7578125,0,0
-2.42830847128062E-05,5.33234742761124E-06,1.7578125,0,0
-2.02838255063398E-05,7.38146127332584E-06,1.7578125,0,0
-2.9098224331392E-05,9.3664302767138E-06,1.7578125,0,0
-2.24833256652346E-05,4.06536082664388E-06,1.7578125,0,0
-2.83282624877756E-05,4.85631244373508E-06,1.7578125,0,0
-2.44055554503575E-05,6.54759469398414E-06,1.7578125,0,0
-2.53914568020264E-05,1.11477320388076E-05,1.7578125,0,0
-2.1500634829863E-05,1.01114819699433E-05,1.7578125,0,0
-2.38937209360301E-05,7.88215038483031E-06,1.7578125,0,0
-2.51597030000994E-05,7.41273788662511E-06,1.7578125,0,0
-2.61272161878878E-05,9.36421020014677E-06,1.7578125,0,0
-2.72348406724632E-05,1.13306659841328E-05,1.7578125,0,0
-2.67312534560915E-05,1.17576646516682E-05,1.7578125,0,0
-2.70192085736198E-05,1.15843931780546E-05,1.7578125,0,0
-2.57328338193474E-05,9.60067700361833E-06,1.7578125,0,0
-2.72266242973274E-05,8.35349874250824E-06,1.7578125,0,0
-2.711082015594E-05,6.0745232985937E-06,1.7578125,0,0
-2.91956348519307E-05,5.12816950504202E-06,1.7578125,0,0
-2.84975994873093E-05,6.47222850602702E-06,1.7578125,0,0
-2.92326130875153E-05,9.64925857260823E-06,1.7578125,0,0
-2.74741250905208E-05,9.2747068265453E-06,1.7578125,0,0
-2.56051862379536E-05,7.44405861041741E-06,1.7578125,0,0
-2.22012240556069E-05,6.80584707879461E-06,1.7578125,0,0
-2.130354369001E-05,8.71569864102639E-06,1.7578125,0,0
-2.091297210427E-05,1.04559794635861E-05,1.7578125,0,0
-2.13352177524939E-05,1.05366025309195E-05,1.7578125,0,0
-2.14125520869857E-05,9.41954567679204E-06,1.7578125,0,0
-2.23878687393153E-05,9.65984872891568E-06,1.7578125,0,0
-1.81246232386911E-05,8.02562135504559E-06,1.7578125,0,0
-2.53266389336204E-05,1.02416024674312E-05,1.7578125,0,0
-1.89323218364734E-05,5.58390320293256E-06,1.7578125,0,0
-2.38856955547817E-05,5.71593363929424E-06,1.7578125,0,0
-2.01496313820826E-05,3.05546609524754E-06,1.7578125,0,0
-2.11753667826997E-05,4.70803570351563E-06,1.7578125,0,0
-1.73351636476582E-05,2.63572133007983E-06,1.7578125,0,0
-1.86494980880525E-05,1.93390337699384E-06,1.7578125,0,0
-1.88324556802399E-05,3.01022305393417E-06,1.7578125,0,0
-1.83190804818878E-05,5.18663318871404E-06,1.7578125,0,0
-1.69547856785357E-05,5.27208203493501E-06,1.7578125,0,0
-1.51612493937137E-05,3.21564698424481E-06,1.7578125,0,0
-1.64774555742042E-05,2.37163908423099E-06,1.7578125,0,0
-1.71700667124242E-05,3.09534857478866E-06,1.7578125,0,0
-1.89930378837744E-05,5.20301546202973E-06,1.7578125,0,0
-1.75657205545576E-05,4.37602102465462E-06,1.7578125,0,0
-1.81205359695014E-05,4.08248160965741E-06,1.7578125,0,0
-1.72635373019148E-05,4.92503386340104E-06,1.7578125,0,0
-1.84012114914367E-05,7.71654686104739E-06,1.7578125,0,0
-1.77684451045934E-05,8.57076975080417E-06,1.7578125,0,0
-1.86076395038981E-05,9.19142894417746E-06,1.7578125,0,0
-1.8579155948828E-05,9.64844548434485E-06,1.7578125,0,0
-1.86674187716562E-05,1.11366070996155E-05,1.7578125,0,0
-1.68897677212954E-05,1.15427674245439E-05,1.7578125,0,0
-1.6715595847927E-05,1.15703105620923E-05,1.7578125,0,0
-1.87400419235928E-05,1.12144762169919E-05,1.7578125,0,0
-2.11928982025711E-05,1.00624220067402E-05,2.8125,0,0
-1.71682258951478E-05,8.45283557282528E-06,2.8125,0,0
-2.39754663198255E-05,1.34319216158474E-05,2.8125,0,0
-1.91619674296817E-05,1.25223477880354E-05,2.8125,0,0
-2.52187510341173E-05,1.41740592880524E-05,2.8125,0,0
-2.18065943045076E-05,1.04572009149706E-05,2.8125,0,0
-2.3740149117657E-05,1.19461428766954E-05,2.8125,0,0
-2.19618323171744E-05,1.29498939713812E-05,2.8125,0,0
-2.43093691096874E-05,1.35063082780107E-05,2.8125,0,0
-2.42968089878559E-05,1.37045744850184E-05,2.8125,0,0
-2.43527938437182E-05,1.32757950268569E-05,2.8125,0,0
-2.49864915531361E-05,1.03711208794266E-05,2.8125,0,0
-2.51015262620058E-05,7.54361280996818E-06,2.8125,0,0
-2.60956931015244E-05,8.33165995572926E-06,2.8125,0,0
-2.52824120252626E-05,1.02908879853203E-05,2.8125,0,0
-2.66061197180534E-05,1.31615806822083E-05,2.8125,0,0
-2.61877903540153E-05,1.39291714731371E-05,2.8125,0,0
-2.77803865174064E-05,1.42553844852955E-05,2.8125,0,0
-2.68155072262743E-05,1.2879154382972E-05,2.8125,0,0
-2.61180139204953E-05,1.23270401672926E-05,2.8125,0,0
-2.4144788767444E-05,1.32661280076718E-05,2.8125,0,0
-2.54992464761017E-05,1.50602327266824E-05,2.8125,0,0
-2.59035386989126E-05,1.23311920106062E-05,2.8125,0,0
-2.62447192653781E-05,8.33095236885129E-06,2.8125,0,0
-2.40611116169021E-05,6.88789987179916E-06,2.8125,0,0
-2.24241066462127E-05,7.61472483645775E-06,2.8125,0,0
-2.2027270460967E-05,8.58547355164774E-06,2.8125,0,0
-2.28118224185891E-05,8.52746870805277E-06,2.8125,0,0
-1.92018487723544E-05,7.09339155946509E-06,2.8125,0,0
-2.95177178486483E-05,1.13639807750587E-05,2.8125,0,0
-2.55612649198156E-05,9.9713461167994E-06,2.8125,0,0
-2.98441791528603E-05,1.18402085718117E-05,2.8125,0,0
-2.39829332713271E-05,1.18216185001074E-05,2.8125,0,0
-2.52494191954611E-05,1.50166852108669E-05,2.8125,0,0
-2.27607324632118E-05,1.52436514326837E-05,2.8125,0,0
-2.43294962274376E-05,1.37599645313458E-05,2.8125,0,0
-2.54214664892061E-05,1.16918663479737E-05,2.8125,0,0
-2.75163638434606E-05,1.12918050945154E-05,2.8125,0,0
-2.91493761324091E-05,1.39395824589883E-05,2.8125,0,0
-2.88453938992461E-05,1.84178061317652E-05,2.8125,0,0
-2.98697323160013E-05,2.099226367136E-05,2.8125,0,0
-2.9653081583092E-05,1.88324411283247E-05,2.8125,0,0
-3.1402669264935E-05,1.67604266607668E-05,2.8125,0,0
-3.07192749460228E-05,1.56550631800201E-05,2.8125,0,0
-3.14777644234709E-05,1.60605504788691E-05,2.8125,0,0
-3.01352320093429E-05,1.69089944392908E-05,2.8125,0,0
-3.12425545416772E-05,1.89419315574924E-05,2.8125,0,0
-3.08616654365323E-05,1.90417849808E-05,2.8125,0,0
-2.95711070066318E-05,1.74302203959087E-05,2.8125,0,0
-2.57162009802414E-05,1.50495798152406E-05,2.8125,0,0
-2.46562303800602E-05,1.35705286083976E-05,2.8125,0,0
-2.41984580497956E-05,1.37847055157181E-05,2.8125,0,0
-2.40078315982828E-05,1.58595266839257E-05,2.8125,0,0
-2.29808647418395E-05,1.63128042913741E-05,2.8125,0,0
-2.11800852412125E-05,1.57918275363045E-05,2.8125,0,0
-1.5396655726363E-05,1.21048778964905E-05,2.8125,0,0
-2.06723198061809E-05,1.53938581206603E-05,2.8125,0,0
-1.38200939545641E-05,8.92421030584956E-06,2.8125,0,0
-1.59887022164185E-05,1.15032598841935E-05,2.8125,0,0
-1.08744097815361E-05,8.5426181613002E-06,2.8125,0,0
-1.16424662337522E-05,1.20064823931898E-05,2.8125,0,0
-8.76515969139291E-06,1.21207776828669E-05,2.8125,0,0
-1.0135145203094E-05,1.11167901195586E-05,2.8125,0,0
-1.08348122012103E-05,9.35177286010003E-06,2.8125,0,0
-1.35801037686178E-05,9.11979986994993E-06,2.8125,0,0
-1.70377879840089E-05,9.27703422348714E-06,2.8125,0,0
-1.88665671885246E-05,9.10437029233435E-06,2.8125,0,0
-2.17104879993713E-05,8.38020332594169E-06,2.8125,0,0
-2.18298919207882E-05,5.38651920578559E-06,2.8125,0,0
-2.20650545088574E-05,5.80255209570169E-06,2.8125,0,0
-2.1146082872292E-05,7.2047173489409E-06,2.8125,0,0
-2.41369471041253E-05,8.81484720594017E-06,2.8125,0,0
-2.60616707237205E-05,7.13493682269473E-06,2.8125,0,0
-2.83380377368303E-05,6.6527663875604E-06,2.8125,0,0
-2.80329641100252E-05,5.63118237550952E-06,2.8125,0,0
-2.89296294795349E-05,6.14289683653624E-06,2.8125,0,0
-2.97164515359327E-05,6.70347617415246E-06,2.8125,0,0
-3.18765451083891E-05,7.69215330365114E-06,2.8125,0,0
-3.20691760862246E-05,8.19747219793499E-06,2.8125,0,0
-3.07947448163759E-05,8.86699581315042E-06,2.8125,0,0
-2.98953236779198E-05,8.7372491179849E-06,2.8125,0,0
-3.17582671414129E-05,8.09920766187133E-06,2.8125,0,0
-2.721548480622E-05,5.33801949131885E-06,2.8125,0,0
-3.80585152015556E-05,8.17771524452837E-06,2.8125,0,0
-2.80254644167144E-05,8.37658444652334E-06,2.8125,0,0
-3.54665644408669E-05,1.03376705737901E-05,2.8125,0,0
-2.96061552944593E-05,8.29054442874622E-06,2.8125,0,0
-3.22990126733202E-05,8.87494297785452E-06,2.8125,0,0
-2.91686428681714E-05,7.61766250434448E-06,2.8125,0,0
-3.14557037199847E-05,7.80602022132371E-06,2.8125,0,0
-3.06369365716819E-05,9.58242071646964E-06,2.8125,0,0
-3.02437347272644E-05,1.18575208034599E-05,2.8125,0,0
-2.98510294669541E-05,1.28849815155263E-05,2.8125,0,0
-2.85082842310658E-05,1.22680357890204E-05,2.8125,0,0
-2.86245285678888E-05,1.20347513075103E-05,2.8125,0,0
-2.47611715167295E-05,1.032987893268E-05,2.8125,0,0
-2.48190226557199E-05,9.28416557144374E-06,2.8125,0,0
-2.43345130002126E-05,9.46170075621922E-06,2.8125,0,0
-2.73646783170989E-05,1.13734886326711E-05,2.8125,0,0
-2.64133777818643E-05,1.20591184895602E-05,2.8125,0,0
-2.78705210803309E-05,1.31016722662025E-05,2.8125,0,0
-2.72703073278535E-05,1.46098836921738E-05,2.8125,0,0
-2.91623509838246E-05,1.5924968465697E-05,2.8125,0,0
-2.8779380954802E-05,1.65622695931233E-05,2.8125,0,0
-2.88357896351954E-05,1.73211028595688E-05,2.8125,0,0
-2.73713503702311E-05,1.70673501997953E-05,2.8125,0,0
-2.69961110461736E-05,1.67500020324951E-05,2.8125,0,0
-2.70729451585794E-05,1.58511393237859E-05,2.8125,0,0
-2.67828418145655E-05,1.30254347823211E-05,2.8125,0,0
-2.01751136046369E-05,7.76019714976428E-06,2.8125,0,0
-2.66425904555945E-05,1.12960151454899E-05,2.8125,0,0
-1.72180989466142E-05,1.08086296677357E-05,2.8125,0,0
-2.11660426430171E-05,1.5124167475733E-05,2.8125,0,0
-1.46211132232565E-05,1.36166681841132E-05,2.8125,0,0
-1.5870296920184E-05,1.38572904688772E-05,2.8125,0,0
-1.52808570419438E-05,1.04762548289727E-05,2.8125,0,0
-1.9362936654943E-05,8.64720823301468E-06,2.8125,0,0
-1.94171170733171E-05,8.60106047184672E-06,2.8125,0,0
-1.71303745446494E-05,8.71858446771512E-06,2.8125,0,0
-1.56467995111598E-05,7.20654452379677E-06,2.8125,0,0
-1.60300423885928E-05,6.55799249216216E-06,2.8125,0,0
-1.94312015082687E-05,7.71313534642104E-06,2.8125,0,0
-2.06118493224494E-05,7.46218120184494E-06,2.8125,0,0
-2.33961181947961E-05,7.55118162487634E-06,2.8125,0,0
-2.38774246099638E-05,6.9896450440865E-06,2.8125,0,0
-2.64882655756082E-05,6.7142218540539E-06,2.8125,0,0
-2.56288476521149E-05,4.68412099507987E-06,2.8125,0,0
-2.57633182627615E-05,4.39231598647893E-06,2.8125,0,0
-2.4240100174211E-05,4.58064960184856E-06,2.8125,0,0
-2.46998060902115E-05,5.72908447793452E-06,2.8125,0,0
-2.39542423514649E-05,5.02821558256983E-06,2.8125,0,0
-2.31971534958575E-05,4.13132556786877E-06,2.8125,0,0
-2.15034142456716E-05,5.08132688992191E-06,2.8125,0,0
-2.0314815628808E-05,7.16329077476985E-06,2.8125,0,0
-1.74252490978688E-05,8.07936248747865E-06,2.8125,0,0
-1.51922949953587E-05,8.47283718030667E-06,2.8125,0,0
-1.3246072740003E-05,7.4906570262101E-06,2.8125,0,0
-2.08349174499745E-05,1.15611373985303E-05,2.8125,0,0
-1.70201183209429E-05,8.56494170875521E-06,2.8125,0,0
-1.89935235539451E-05,8.85094414115883E-06,2.8125,0,0
-1.66955724125728E-05,7.77122386352858E-06,2.8125,0,0
-1.84976070158882E-05,9.93377034319565E-06,2.8125,0,0
-1.79969738383079E-05,9.58661985350773E-06,2.8125,0,0
-1.94899203052046E-05,9.22155413718428E-06,2.8125,0,0
-2.07659559237072E-05,8.65365018398734E-06,2.8125,0,0
-2.15729633055162E-05,8.26840732770506E-06,2.8125,0,0
-2.10613470699172E-05,9.30014448385919E-06,2.8125,0,0
-1.97084973478923E-05,1.18483667392866E-05,2.8125,0,0
-1.98472444026265E-05,1.35239297378575E-05,2.8125,0,0
-2.05457527044928E-05,1.35241434691125E-05,2.8125,0,0
-2.27232030738378E-05,1.50421165017178E-05,2.8125,0,0
-2.29127199418144E-05,1.69840695889434E-05,2.8125,0,0
-2.39610217249719E-05,1.79075996129541E-05,2.8125,0,0
-2.4060462237685E-05,1.58273142005783E-05,2.8125,0,0
-2.45622304646531E-05,1.49544375744881E-05,2.8125,0,0
-2.33194350585109E-05,1.64673856488662E-05,2.8125,0,0
-2.33179634960834E-05,1.98302750504809E-05,2.8125,0,0
-2.35469924518839E-05,2.07913890335476E-05,2.8125,0,0
-2.52689460467082E-05,1.91504859685665E-05,2.8125,0,0
-2.64888058154611E-05,1.58186885528266E-05,2.8125,0,0
-2.67546511167893E-05,1.40760885187774E-05,2.8125,0,0
-2.58722611761186E-05,1.50425394167542E-05,2.8125,0,0
-2.56534567597555E-05,1.72306499734987E-05,2.8125,0,0
-2.10891321330564E-05,1.40137017297093E-05,2.8125,0,0
-3.07976224576123E-05,1.78358841367299E-05,5.625,0,0
-2.31066878768615E-05,9.72682209976483E-06,5.625,0,0
-2.67107134277467E-05,1.13540372694843E-05,5.625,0,0
-2.1345815184759E-05,7.63118350732839E-06,5.625,0,0
-2.30245768761961E-05,1.09529901237693E-05,5.625,0,0
-2.00866033992497E-05,1.0099436622113E-05,5.625,0,0
-2.10059206438018E-05,1.0510138963582E-05,5.625,0,0
-2.06602398975519E-05,9.70293876889627E-06,5.625,0,0
-2.24386840272928E-05,9.19065223570215E-06,5.625,0,0
-2.40122044488089E-05,9.34988747758325E-06,5.625,0,0
-2.36424548347713E-05,9.10962171474239E-06,5.625,0,0
-2.48275628109695E-05,9.68886433838634E-06,5.625,0,0
-2.56173934758408E-05,8.67954076966271E-06,5.625,0,0
-2.89460185740609E-05,9.92260811472079E-06,5.625,0,0
-2.87756538455142E-05,1.01789946711506E-05,5.625,0,0
-2.89540112135001E-05,1.16115988930687E-05,5.625,0,0
-2.62232879322255E-05,1.00953884611954E-05,5.625,0,0
-2.69270094577223E-05,8.66961727297166E-06,5.625,0,0
-2.78448205790482E-05,6.50860465611913E-06,5.625,0,0
-3.00606498058187E-05,5.12242513650563E-06,5.625,0,0
-2.96362559311092E-05,1.34779634208826E-06,5.625,0,0
-3.09978859149851E-05,-1.99161164005091E-07,5.625,0,0
-3.06178008031566E-05,3.08949239524736E-07,5.625,0,0
-2.83171648334246E-05,2.15779800782911E-06,5.625,0,0
-2.63269594142912E-05,4.20234664488817E-06,5.625,0,0
-2.69216725428123E-05,5.95011806581169E-06,5.625,0,0
-2.39774035435403E-05,5.07002050653682E-06,5.625,0,0
-3.62770624633413E-05,7.91783349995967E-06,5.625,0,0
-2.89679628622252E-05,8.90952651388943E-06,5.625,0,0
-3.19103855872527E-05,1.13020705612144E-05,5.625,0,0
-2.55456179729663E-05,9.06270724954084E-06,5.625,0,0
-2.95790759992087E-05,9.51439051277703E-06,5.625,0,0
-2.87547591142356E-05,8.63308923726436E-06,5.625,0,0
-3.05882749671582E-05,8.99910446605645E-06,5.625,0,0
-2.87581642623991E-05,1.02618314485881E-05,5.625,0,0
-2.75357288046507E-05,1.1161152542627E-05,5.625,0,0
-2.77062445093179E-05,1.07261157609173E-05,5.625,0,0
-2.7957628844888E-05,9.58846885623643E-06,5.625,0,0
-2.9011333026574E-05,9.42051792662824E-06,5.625,0,0
-2.69432493951172E-05,8.02806971478276E-06,5.625,0,0
-2.72986308118561E-05,7.39322922527208E-06,5.625,0,0
-2.52353511314141E-05,7.47793774280581E-06,5.625,0,0
-2.53378002526006E-05,8.66598929860629E-06,5.625,0,0
-2.37400254263775E-05,8.57181385072181E-06,5.625,0,0
-2.57810734183295E-05,8.4168859757483E-06,5.625,0,0
-2.59375556197483E-05,8.42065855977125E-06,5.625,0,0
-2.72711913567036E-05,9.07666071725544E-06,5.625,0,0
-2.55325085163349E-05,8.87925398274092E-06,5.625,0,0
-2.43588765442837E-05,8.8509268607595E-06,5.625,0,0
-2.32642159971874E-05,8.68814640853088E-06,5.625,0,0
-2.38350294239353E-05,9.1978627096978E-06,5.625,0,0
-2.38248776440741E-05,1.04165392258437E-05,5.625,0,0
-2.3051414245856E-05,1.12821062430157E-05,5.625,0,0
-1.88112371688476E-05,9.38292487262515E-06,5.625,0,0
-2.6944213459501E-05,1.38909181259805E-05,5.625,0,0
-2.13921939575812E-05,1.04209648270626E-05,5.625,0,0
-2.70389773504576E-05,1.09461798274424E-05,5.625,0,0
-2.25032617890975E-05,7.87088720244356E-06,5.625,0,0
-2.2638269001618E-05,1.05006092780968E-05,5.625,0,0
-1.93456089618849E-05,1.22596893561422E-05,5.625,0,0
-2.1148232917767E-05,1.43244787977892E-05,5.625,0,0
-2.15196851058863E-05,1.50056939673959E-05,5.625,0,0
-2.23868610191857E-05,1.48612243719981E-05,5.625,0,0
-2.30854657274904E-05,1.21654675240279E-05,5.625,0,0
-2.22087783185998E-05,9.86855229712091E-06,5.625,0,0
-2.2925551093067E-05,9.73031637840904E-06,5.625,0,0
-2.25851854338543E-05,1.07199457488605E-05,5.625,0,0
-2.47028456215048E-05,1.4575061868527E-05,5.625,0,0
-2.47697316808626E-05,1.78164555109106E-05,5.625,0,0
-2.63934143731603E-05,2.04136031243252E-05,5.625,0,0
-2.56024504778907E-05,2.02472674573073E-05,5.625,0,0
-2.63657912000781E-05,2.01740622287616E-05,5.625,0,0
-2.44828715949552E-05,1.84859818546101E-05,5.625,0,0
-2.31665671890369E-05,1.65381334227277E-05,5.625,0,0
-2.1509753423743E-05,1.43374563776888E-05,5.625,0,0
-2.24521663767518E-05,1.43837569339667E-05,5.625,0,0
-2.30116911552614E-05,1.33437924887403E-05,5.625,0,0
-2.26598258450395E-05,1.12152238216368E-05,5.625,0,0
-2.14647479879204E-05,9.48247361520771E-06,5.625,0,0
-2.14550218515797E-05,1.00568513516919E-05,5.625,0,0
-1.64876182680018E-05,8.30736644275021E-06,5.625,0,0
-2.28770586545579E-05,1.0223393474007E-05,5.625,0,0
-1.65871715580579E-05,6.70992949380889E-06,5.625,0,0
-2.13368057302432E-05,1.09761185740354E-05,5.625,0,0
-1.924135540321E-05,1.2101720130886E-05,5.625,0,0
-2.1602951164823E-05,1.7091382687795E-05,5.625,0,0
-1.84832042577909E-05,1.70081439136993E-05,5.625,0,0
-1.89561651495751E-05,1.54491481225705E-05,5.625,0,0
-1.98814086616039E-05,1.40653073685826E-05,5.625,0,0
-2.21966911340132E-05,1.33365219880943E-05,5.625,0,0
-2.39823402807815E-05,1.28381589092896E-05,5.625,0,0
-2.38827651628526E-05,1.34023566715769E-05,5.625,0,0
-2.39164310187334E-05,1.59675255417824E-05,5.625,0,0
-2.27158016059548E-05,1.63800486916443E-05,5.625,0,0
-2.42992464336567E-05,1.54253557411721E-05,5.625,0,0
-2.43161484831944E-05,1.31677079480141E-05,5.625,0,0
-2.57365445577307E-05,1.24120833788766E-05,5.625,0,0
-2.57420051639201E-05,1.10707233034191E-05,5.625,0,0
-2.75019228865858E-05,1.04157734313048E-05,5.625,0,0
-2.71879980573431E-05,9.08045421965653E-06,5.625,0,0
-2.8026999643771E-05,9.75606963038445E-06,5.625,0,0
-2.81714128504973E-05,1.001248438115E-05,5.625,0,0
-2.83148037851788E-05,9.79887681751279E-06,5.625,0,0
-2.59274602285586E-05,1.00943170764367E-05,5.625,0,0
-2.36155810853234E-05,1.16968758447911E-05,5.625,0,0
-2.17414035432739E-05,1.2092637916794E-05,5.625,0,0
-2.16910411836579E-05,9.68208223639522E-06,5.625,0,0
-1.7840180589701E-05,6.14442114965641E-06,5.625,0,0
-2.50827561103506E-05,1.01376526799868E-05,5.625,0,0
-1.97031222342048E-05,9.51185120356968E-06,5.625,0,0
-2.60918968706392E-05,9.20379989111098E-06,5.625,0,0
-2.33328555623302E-05,4.81950291941757E-06,5.625,0,0
-2.61100849456852E-05,5.41114468433079E-06,5.625,0,0
-2.38667635130696E-05,6.78388960295706E-06,5.625,0,0
-2.32704824156826E-05,7.27207589079626E-06,5.625,0,0
-2.07796201721067E-05,6.40985990685294E-06,5.625,0,0
-2.06075219466584E-05,6.55723260933883E-06,5.625,0,0
-2.16630596696632E-05,7.40266659704503E-06,5.625,0,0
-2.12345621548593E-05,7.62200443205074E-06,5.625,0,0
-2.18871973629575E-05,6.70581675876747E-06,5.625,0,0
-2.14652663999004E-05,4.49802791990805E-06,5.625,0,0
-2.27460004680324E-05,4.21611957790446E-06,5.625,0,0
-2.16083262785105E-05,3.89389788324479E-06,5.625,0,0
-2.26339252549224E-05,3.04364289149817E-06,5.625,0,0
-2.21705231524538E-05,1.54432393628667E-06,5.625,0,0
-2.33911596296821E-05,2.34508138419187E-06,5.625,0,0
-2.25258445425425E-05,3.56205214302463E-06,5.625,0,0
-2.30075656872941E-05,4.88823161504115E-06,5.625,0,0
-2.32165039051324E-05,6.58404178466299E-06,5.625,0,0
-2.4902781660785E-05,8.39888616610551E-06,5.625,0,0
-2.50595912802964E-05,9.0582761913538E-06,5.625,0,0
-2.44415386987384E-05,8.91536183189601E-06,5.625,0,0
-2.28144399443408E-05,7.70519272919046E-06,5.625,0,0
-2.16034368349938E-05,8.15856856206665E-06,5.625,0,0
-1.84019718290074E-05,8.30613589641871E-06,5.625,0,0
-2.7021156711271E-05,1.2986762158107E-05,5.625,0,0
-2.16517073567957E-05,1.16016626634519E-05,5.625,0,0
-2.72232919087401E-05,1.28940391732613E-05,5.625,0,0
-2.47139851126121E-05,9.44724433793454E-06,5.625,0,0
-2.71768149104901E-05,9.61322712100809E-06,5.625,0,0
-2.48845917667495E-05,8.76039212016622E-06,5.625,0,0
-2.44744296651334E-05,9.4564602477476E-06,5.625,0,0
-2.25291496462887E-05,9.90341777651338E-06,5.625,0,0
-2.28235039685387E-05,1.1001032362401E-05,5.625,0,0
-2.31462090596324E-05,1.00993529486004E-05,5.625,0,0
-2.18729892367264E-05,9.03706677490845E-06,5.625,0,0
-2.29582747124368E-05,1.0170457244385E-05,5.625,0,0
-2.28956159844529E-05,9.95489790511783E-06,5.625,0,0
-2.42245150730014E-05,1.02858466561884E-05,5.625,0,0
-2.35233856074046E-05,1.07126688817516E-05,5.625,0,0
-2.47922289418057E-05,1.31434271679609E-05,5.625,0,0
-2.40668341575656E-05,1.45718695421237E-05,5.625,0,0
-2.50556076935027E-05,1.57487338583451E-05,5.625,0,0
-2.40679455600912E-05,1.46977026815875E-05,5.625,0,0
-2.506324017304E-05,1.38115392473992E-05,5.625,0,0
-2.63923739112215E-05,1.28538658827893E-05,5.625,0,0
-2.74582635029219E-05,1.26636523418711E-05,5.625,0,0
-2.60141623584786E-05,1.3606559150503E-05,5.625,0,0
-2.41687121160794E-05,1.39198809847585E-05,5.625,0,0
-2.21992395381676E-05,1.11634062704979E-05,5.625,0,0
-2.20773199544055E-05,8.6007921709097E-06,5.625,0,0
-1.81191935553215E-05,7.23642187949736E-06,5.625,0,0
-2.59894677583361E-05,1.26028744489304E-05,5.625,0,0
-1.92488205357222E-05,1.35502632474527E-05,5.625,0,0
-2.13884031836642E-05,1.61669249791885E-05,5.625,0,0
-1.67504676937824E-05,1.47336359077599E-05,5.625,0,0
-2.13843522942625E-05,1.60117942868965E-05,5.625,0,0
-2.04716543521499E-05,1.53466608026065E-05,5.625,0,0
-2.06695513043087E-05,1.46174297697144E-05,5.625,0,0
-2.01181064767297E-05,1.28710335047799E-05,5.625,0,0
-2.1645204469678E-05,1.10900991785456E-05,5.625,0,0
-2.3081587642082E-05,8.90364663064247E-06,5.625,0,0
-2.27396303671412E-05,7.31271120457677E-06,5.625,0,0
-2.28104254347272E-05,8.39701442600926E-06,5.625,0,0
-2.12501727219205E-05,9.11613369680708E-06,5.625,0,0
-2.2510701455758E-05,9.19328158488497E-06,5.625,0,0
-2.18187178688822E-05,7.68544668972027E-06,5.625,0,0
-2.2697844542563E-05,7.2042553256324E-06,5.625,0,0
-2.12498889595736E-05,7.46532577977632E-06,5.625,0,0
-2.09812005778076E-05,8.95317862159573E-06,5.625,0,0
-1.88706162589369E-05,9.27775909076445E-06,5.625,0,0
-1.9131457520416E-05,9.79964534053579E-06,5.625,0,0
-1.95193861145526E-05,9.20821821637219E-06,5.625,0,0
-2.09888294193661E-05,9.15190867090132E-06,5.625,0,0
-2.09681093110703E-05,1.03706352092559E-05,5.625,0,0
-2.07511875487398E-05,1.06843435787596E-05,5.625,0,0
-2.0265480998205E-05,1.00541956271627E-05,5.625,0,0
-2.00065223907586E-05,1.03659886008245E-05,5.625,0,0
-1.58090060722316E-05,1.04910768641275E-05,5.625,0,0
-2.28271437663352E-05,1.62056094268337E-05,5.625,0,0
-1.82016192411538E-05,1.17586641863454E-05,5.625,0,0
-2.32154816330876E-05,1.1899950550287E-05,5.625,0,0
-2.03912622964708E-05,8.85972440300975E-06,5.625,0,0
-2.12029353860999E-05,1.14358808787074E-05,5.625,0,0
-1.82550920726499E-05,1.38030272864853E-05,5.625,0,0
-1.9304532543174E-05,1.48055660247337E-05,5.625,0,0
-1.85452063306002E-05,1.30008529595216E-05,5.625,0,0
-1.73670159711037E-05,1.04101427496062E-05,5.625,0,0
-1.61883399414364E-05,8.43941870698472E-06,5.625,0,0
-1.54402259795461E-05,8.03272359917173E-06,5.625,0,0
-1.7891241441248E-05,8.42779081722256E-06,5.625,0,0
-1.94604344869731E-05,5.95420169702265E-06,5.625,0,0
-2.20253314182628E-05,5.05625530422549E-06,5.625,0,0
-2.18801615119446E-05,5.72695262235356E-06,5.625,0,0
-2.26359206862981E-05,7.21557580618537E-06,5.625,0,0
-2.1917183403275E-05,6.73079784974107E-06,5.625,0,0
-2.39080491155619E-05,9.3492944870377E-06,5.625,0,0
-2.54945698543452E-05,1.32565992316813E-05,5.625,0,0
-2.80157837551087E-05,1.43479901453247E-05,5.625,0,0
-2.82772507489426E-05,1.10993896669243E-05,5.625,0,0
-2.830790799635E-05,9.32148395804688E-06,5.625,0,0
-2.76269529422279E-05,9.50376579567092E-06,5.625,0,0
-2.76029586530058E-05,9.39379060582723E-06,5.625,0,0
-2.64674545178423E-05,7.42881866244716E-06,5.625,0,0
-2.48860960709862E-05,5.24439110449748E-06,5.625,0,0
-1.94629283214454E-05,5.4606530284218E-06,5.625,0,0
-2.70214422926074E-05,9.17110810405575E-06,5.625,0,0
-2.11427359317895E-05,9.53445851337165E-06,5.625,0,0
-2.72609795501921E-05,1.23307681860751E-05,5.625,0,0
-2.26483934966382E-05,1.23399659059942E-05,5.625,0,0
-2.52669324254384E-05,1.30063626784249E-05,5.625,0,0
-2.28595527005382E-05,1.15115954031353E-05,5.625,0,0
-2.35417955991579E-05,1.07715204649139E-05,5.625,0,0
-2.19367429963313E-05,1.04741011455189E-05,5.625,0,0
-2.24938321480295E-05,1.03747497632867E-05,5.625,0,0
-2.42321384575916E-05,1.08039612314315E-05,5.625,0,0
-2.46935742325149E-05,1.15104885480832E-05,5.625,0,0
-2.61575914919376E-05,1.1105297744507E-05,5.625,0,0
-2.57244282693136E-05,9.07696994545404E-06,5.625,0,0
-2.78800853266148E-05,8.76514150149887E-06,5.625,0,0
-2.72538618446561E-05,9.54760071181227E-06,5.625,0,0
-2.81731481663883E-05,1.0740736797743E-05,5.625,0,0
-2.70886121143121E-05,1.09825614345027E-05,5.625,0,0
-2.80831663985737E-05,1.2313208571868E-05,5.625,0,0
-2.73597852356033E-05,1.32085824589012E-05,5.625,0,0
-2.87513612420298E-05,1.37137267302023E-05,5.625,0,0
-2.90143998427084E-05,1.37103179440601E-05,5.625,0,0
-3.05147277686046E-05,1.38003606480197E-05,5.625,0,0
-3.08124945149757E-05,1.28099236462731E-05,5.625,0,0
-3.11249532387592E-05,1.21918192235171E-05,5.625,0,0
-3.15699689963367E-05,1.20399108709535E-05,5.625,0,0
-3.26908666465897E-05,1.2406638234097E-05,5.625,0,0
-2.70980199275073E-05,1.03288157333736E-05,5.625,0,0
-3.92936053685844E-05,1.3541540283768E-05,5.625,0,0
-3.02474491036264E-05,8.96811161510414E-06,5.625,0,0
-3.58348916051909E-05,1.16224546218291E-05,5.625,0,0
-2.95262270810781E-05,9.46910040511284E-06,5.625,0,0
-3.35916847689077E-05,1.31048955154256E-05,5.625,0,0
-3.12242227664683E-05,1.38444374897517E-05,5.625,0,0
-3.19887658406515E-05,1.40027941597509E-05,5.625,0,0
-2.93344273814E-05,1.28271112771472E-05,5.625,0,0
-2.9226706828922E-05,1.30122143673361E-05,5.625,0,0
-3.03338329104008E-05,1.40000383908045E-05,9.66796875,0,0
-2.92873228318058E-05,1.5632358554285E-05,9.66796875,0,0
-2.99250423267949E-05,1.78634873009287E-05,9.66796875,0,0
-2.88584087684285E-05,1.69548984558787E-05,9.66796875,0,0
-3.04415189020801E-05,1.68726564879762E-05,9.66796875,0,0
-2.77093513432192E-05,1.69155609910376E-05,9.66796875,0,0
-2.75673301075585E-05,1.78065201907884E-05,9.66796875,0,0
-2.56761959462892E-05,1.62654596351786E-05,9.66796875,0,0
-2.66436945821624E-05,1.55667585204355E-05,9.66796875,0,0
-2.4366932848352E-05,1.47980308611295E-05,9.66796875,0,0
-2.40348072111374E-05,1.61914940690622E-05,9.66796875,0,0
-2.24067225644831E-05,1.72443778865272E-05,9.66796875,0,0
-2.15074487641687E-05,1.81577288458357E-05,9.66796875,0,0
-1.79343842319213E-05,1.70388539117994E-05,9.66796875,0,0
-1.6621897884761E-05,1.65903820743551E-05,9.66796875,0,0
-1.78967802639818E-05,1.70907223946415E-05,9.66796875,0,0
-2.00407830561744E-05,1.66790887305979E-05,9.66796875,0,0
-1.70507719303714E-05,1.3613009286928E-05,9.66796875,0,0
-2.36310552281793E-05,1.92205334315076E-05,9.66796875,0,0
-1.69449758686824E-05,1.25338374346029E-05,9.66796875,0,0
-2.09437894227449E-05,1.37316510517849E-05,9.66796875,0,0
-1.81150062417146E-05,9.48542856349377E-06,9.66796875,0,0
-2.12333361560013E-05,1.07075684354641E-05,9.66796875,0,0
-1.99550049728714E-05,1.06302150015836E-05,9.66796875,0,0
-2.19305929931579E-05,1.17921399578336E-05,9.66796875,0,0
-2.28686130867573E-05,1.0411918083264E-05,9.66796875,0,0
-2.40096305788029E-05,8.7204225565074E-06,9.66796875,0,0
-2.40302433667239E-05,8.43326142785372E-06,9.66796875,0,0
-2.26596439460991E-05,9.5967625384219E-06,9.66796875,0,0
-2.23116239794763E-05,1.07356054286356E-05,9.66796875,0,0
-2.05248034035321E-05,8.30954559205566E-06,9.66796875,0,0
-2.1586394723272E-05,7.18849150871392E-06,9.66796875,0,0
-2.04736734303879E-05,7.38011613066192E-06,9.66796875,0,0
-2.01367511181161E-05,1.07046416815137E-05,9.66796875,0,0
-1.7738166206982E-05,1.16768633233733E-05,9.66796875,0,0
-1.83537649718346E-05,1.15477942017606E-05,9.66796875,0,0
-1.86300330824452E-05,9.89880845736479E-06,9.66796875,0,0
-1.9302193322801E-05,1.02989197330317E-05,9.66796875,0,0
-1.76880421349779E-05,9.25532913242932E-06,9.66796875,0,0
-1.81400173460133E-05,7.80796017352259E-06,9.66796875,0,0
-1.96180499187903E-05,7.3090573096124E-06,9.66796875,0,0
-2.15013405977516E-05,9.41163034440251E-06,9.66796875,0,0
-2.11280184885254E-05,9.94740184978582E-06,9.66796875,0,0
-1.99325677385787E-05,8.65026413521264E-06,9.66796875,0,0
-1.64831562869949E-05,5.59788395548821E-06,9.66796875,0,0
-2.48533560807118E-05,9.10449034563499E-06,9.66796875,0,0
-2.10922553378623E-05,1.11921590359998E-05,9.66796875,0,0
-2.55522263614694E-05,1.46882102853851E-05,9.66796875,0,0
-2.17922333831666E-05,1.20918257380254E-05,9.66796875,0,0
-2.35961724683875E-05,1.37999577418668E-05,9.66796875,0,0
-2.21612826862838E-05,1.51212898344966E-05,9.66796875,0,0
-2.38039738178486E-05,1.51709755300544E-05,9.66796875,0,0
-2.37364856729982E-05,1.2967927432328E-05,9.66796875,0,0
-2.43242884607753E-05,1.1437693501648E-05,9.66796875,0,0
-2.47994121309603E-05,1.06773231891566E-05,9.66796875,0,0
-2.37847161770333E-05,8.83416214492172E-06,9.66796875,0,0
-2.3584905648022E-05,6.92751200404018E-06,9.66796875,0,0
-2.22420803765999E-05,4.75214073958341E-06,9.66796875,0,0
-2.30959813052323E-05,6.15078215560061E-06,9.66796875,0,0
-2.20416513911914E-05,9.00460872799158E-06,9.66796875,0,0
-2.25386775127845E-05,1.10297896753764E-05,9.66796875,0,0
-2.16913376789307E-05,9.98574614641257E-06,9.66796875,0,0
-2.22519847739022E-05,9.16455064725596E-06,9.66796875,0,0
-2.04675234272145E-05,9.38376433623489E-06,9.66796875,0,0
-2.06068743864307E-05,1.07019077404402E-05,9.66796875,0,0
-2.15104319067905E-05,1.09866232378408E-05,9.66796875,0,0
-2.4031514840317E-05,1.09953834908083E-05,9.66796875,0,0
-2.44233833655017E-05,1.08575686681434E-05,9.66796875,0,0
-2.29186516662594E-05,9.90703938441584E-06,9.66796875,0,0
-2.25383701035753E-05,9.12653285922715E-06,9.66796875,0,0
-2.36176674661692E-05,8.9996938186232E-06,9.66796875,0,0
-1.91967501450563E-05,6.67778704155353E-06,9.66796875,0,0
-2.66275746980682E-05,9.47655826166738E-06,9.66796875,0,0
-1.99692312889965E-05,9.00340000953292E-06,9.66796875,0,0
-2.641653190949E-05,1.23609142974601E-05,9.66796875,0,0
-2.32857164519373E-05,1.04301725514233E-05,9.66796875,0,0
-2.64960235654144E-05,1.06638281067717E-05,9.66796875,0,0
-2.57654901361093E-05,8.37674997455906E-06,9.66796875,0,0
-2.83239060081542E-05,9.24496544030262E-06,9.66796875,0,0
-2.84424404526362E-05,1.02224803413264E-05,9.66796875,0,0
-2.8986618417548E-05,9.17586385185132E-06,9.66796875,0,0
-2.91298165393528E-05,9.19822559808381E-06,9.66796875,0,0
-2.73042023763992E-05,1.07310652310844E-05,9.66796875,0,0
-2.75701877399115E-05,1.21437678899383E-05,9.66796875,0,0
-2.68160547420848E-05,1.0601296708046E-05,9.66796875,0,0
-2.77965900750132E-05,1.008785693557E-05,9.66796875,0,0
-2.591791053419E-05,1.0035048944701E-05,9.66796875,0,0
-2.58842555922456E-05,1.01995856311987E-05,9.66796875,0,0
-2.38733009609859E-05,8.25859478936763E-06,9.66796875,0,0
-2.35197258007247E-05,7.46663499739952E-06,9.66796875,0,0
-2.1614021534333E-05,7.70817678130697E-06,9.66796875,0,0
-2.22637991100783E-05,8.1859398051165E-06,9.66796875,0,0
-2.11058359127492E-05,7.59576141717844E-06,9.66796875,0,0
-1.96004293684382E-05,6.61807507640333E-06,9.66796875,0,0
-1.87683272088179E-05,3.93190748582128E-06,9.66796875,0,0
-1.93942469195463E-05,2.63238894149254E-06,9.66796875,0,0
-2.04211701202439E-05,3.91823277823278E-06,9.66796875,0,0
-2.16750977415359E-05,5.29155204276321E-06,9.66796875,0,0
-1.70366583915893E-05,5.32387502971687E-06,9.66796875,0,0
-2.46985018748092E-05,6.21609660811373E-06,9.66796875,0,0
-1.97211375052575E-05,2.97478436550591E-06,9.66796875,0,0
-2.38019401876954E-05,4.44494480689173E-06,9.66796875,0,0
-1.9530845747795E-05,4.57967826150707E-06,9.66796875,0,0
-2.16041171370307E-05,6.56887550576357E-06,9.66796875,0,0
-1.91526178241475E-05,5.81214999328949E-06,9.66796875,0,0
-2.0490180759225E-05,7.49186665416346E-06,9.66796875,0,0
-2.17896722460864E-05,1.06470733953756E-05,9.66796875,0,0
-2.22407634282717E-05,1.16453284135787E-05,9.66796875,0,0
-2.08747296710499E-05,1.04860819192254E-05,9.66796875,0,0
-1.89540842256974E-05,1.09251996036619E-05,9.66796875,0,0
-2.0383857190609E-05,1.29686077343649E-05,9.66796875,0,0
-2.10965208680136E-05,1.18091220429051E-05,9.66796875,0,0
-2.30389159696642E-05,1.018967031996E-05,9.66796875,0,0
-2.30144487431971E-05,1.0229093277303E-05,9.66796875,0,0
-2.55699251283659E-05,1.24524949569604E-05,9.66796875,0,0
-2.73204295808682E-05,1.20921731650014E-05,9.66796875,0,0
-3.04699278785847E-05,9.88514329947066E-06,9.66796875,0,0
-3.02059452224057E-05,8.97879090189235E-06,9.66796875,0,0
-3.00584779324709E-05,1.13318674266338E-05,9.66796875,0,0
-2.99418898066506E-05,1.2374711332086E-05,9.66796875,0,0
-3.18754464387894E-05,1.19339974844479E-05,9.66796875,0,0
-3.26260778820142E-05,1.12584193630028E-05,9.66796875,0,0
-3.27134002873208E-05,1.23865138448309E-05,9.66796875,0,0
-3.19491555273999E-05,1.2788686035492E-05,9.66796875,0,0
-3.1065457733348E-05,1.0782248864416E-05,9.66796875,0,0
-2.57208357652416E-05,8.16916781332111E-06,9.66796875,0,0
-3.57942408300005E-05,1.08203284980846E-05,9.66796875,0,0
-2.55844952334883E-05,7.58021769797779E-06,9.66796875,0,0
-3.1862724426901E-05,1.04098899100791E-05,9.66796875,0,0
-2.6907355277217E-05,1.09716711449437E-05,9.66796875,0,0
-3.11265393975191E-05,1.48192893902888E-05,9.66796875,0,0
-2.87154180114158E-05,1.45247740874765E-05,9.66796875,0,0
-2.97503393085208E-05,1.33211087813834E-05,9.66796875,0,0
-2.84426914731739E-05,1.13706119009294E-05,9.66796875,0,0
-2.85421792796114E-05,1.19525584523217E-05,9.66796875,0,0
-2.98818613373442E-05,1.30890266518691E-05,9.66796875,0,0
-3.0420531402342E-05,1.40644651764887E-05,9.66796875,0,0
-3.189795097569E-05,1.37981587613467E-05,9.66796875,0,0
-3.02027547149919E-05,1.14155000119354E-05,9.66796875,0,0
-3.08283924823627E-05,1.08465255834744E-05,9.66796875,0,0
-2.84643447230337E-05,1.01129107861198E-05,9.66796875,0,0
-2.87104612652911E-05,9.58539567363914E-06,9.66796875,0,0
-2.67249961325433E-05,7.2059478952724E-06,9.66796875,0,0
-2.70074870059034E-05,6.95934249961283E-06,9.66796875,0,0
-2.41423422266962E-05,6.79798131386633E-06,9.66796875,0,0
-2.44146795012057E-05,6.96689994583721E-06,9.66796875,0,0
-2.38156208069995E-05,7.49823811929673E-06,9.66796875,0,0
-2.44225157075562E-05,1.0539525646891E-05,9.66796875,0,0
-2.48968190135201E-05,1.16205555968918E-05,9.66796875,0,0
-2.67666000581812E-05,9.19383182917954E-06,9.66796875,0,0
-2.76035498245619E-05,5.24800543644233E-06,9.66796875,0,0
-2.7715012038243E-05,2.75835873253527E-06,9.66796875,0,0
-2.1940095393802E-05,1.66696054293425E-06,9.66796875,0,0
-3.139908585581E-05,2.81452958006412E-06,9.66796875,0,0
-2.38933535001706E-05,3.95867073166301E-06,9.66796875,0,0
-2.77607032330707E-05,5.57348084839759E-06,9.66796875,0,0
-2.0503297491814E-05,5.0689595809672E-06,9.66796875,0,0
-2.27258515224094E-05,6.51135087537114E-06,9.66796875,0,0
-2.12494833249366E-05,8.25250208436046E-06,9.66796875,0,0
-2.24879458983196E-05,8.09459379524924E-06,9.66796875,0,0
-2.12445247598225E-05,7.52343248677789E-06,9.66796875,0,0
-2.09640329558169E-05,8.52403809403768E-06,9.66796875,0,0
-1.98785583052086E-05,1.06599691207521E-05,9.66796875,0,0
-1.65207547979662E-05,1.07557771116262E-05,9.66796875,0,0
-1.58294296852546E-05,9.09959908312885E-06,9.66796875,0,0
-1.47871924127685E-05,6.55743860988878E-06,9.66796875,0,0
-1.70574858202599E-05,5.99028180658934E-06,9.66796875,0,0
-1.64298489835346E-05,6.84437191011966E-06,9.66796875,0,0
-1.65608817042084E-05,7.95437790657161E-06,9.66796875,0,0
-1.36839762490126E-05,8.81930918694707E-06,9.66796875,0,0
-1.40626716529368E-05,8.83309985511005E-06,9.66796875,0,0
-1.48884864756837E-05,7.66993252909742E-06,9.66796875,0,0
-1.8133809135179E-05,7.25808558854624E-06,9.66796875,0,0
-1.84737000381574E-05,8.29868804430589E-06,9.66796875,0,0
-1.83069314516615E-05,9.15341661311686E-06,9.66796875,0,0
-1.78294667421142E-05,1.00788201962132E-05,9.66796875,0,0
-1.90849132195581E-05,1.17209665404516E-05,9.66796875,0,0
-1.99307305592811E-05,1.24423886518343E-05,9.66796875,0,0
-2.11487749766093E-05,1.28426245282753E-05,9.66796875,0,0
-1.82693129318068E-05,1.18172692964436E-05,9.66796875,0,0
-2.52470272243954E-05,1.81790528586134E-05,9.66796875,0,0
-1.70642324519577E-05,1.39527910505421E-05,9.66796875,0,0
-1.99695750779938E-05,1.39360918183229E-05,9.66796875,0,0
-1.66293539223261E-05,9.10040580492932E-06,9.66796875,0,0
-2.14443880395265E-05,1.12029119918589E-05,9.66796875,0,0
-2.12270460906439E-05,1.17527943075402E-05,9.66796875,0,0
-2.27073051064508E-05,1.26263958009076E-05,9.66796875,0,0
-2.31811973208096E-05,1.19497490231879E-05,9.66796875,0,0
-2.45183073275257E-05,1.17957551992731E-05,9.66796875,0,0
-2.64670761680463E-05,1.17807276183157E-05,9.66796875,0,0
-2.82534656435018E-05,1.122739740822E-05,9.66796875,0,0
-3.1391995435115E-05,1.14065205707448E-05,9.66796875,0,0
-3.14394092129078E-05,1.13059213617817E-05,9.66796875,0,0
-3.1830626539886E-05,1.33776384245721E-05,9.66796875,0,0
-3.01204563584179E-05,1.44114319482469E-05,9.66796875,0,0
-3.07399386656471E-05,1.50543874042341E-05,9.66796875,0,0
-2.98262020805851E-05,1.31192327899043E-05,9.66796875,0,0
-3.10559189529158E-05,1.24339130707085E-05,9.66796875,0,0
-3.05790454149246E-05,1.15015809569741E-05,9.66796875,0,0
-3.16892546834424E-05,1.12262914626626E-05,9.66796875,0,0
-3.14110366161913E-05,1.02954227259033E-05,9.66796875,0,0
-3.03515553241596E-05,9.9729895737255E-06,9.66796875,0,0
-2.77959297818597E-05,9.04123317013728E-06,9.66796875,0,0
-2.56904004345415E-05,9.13519488676684E-06,9.66796875,0,0
-2.30627247219672E-05,8.36845538287889E-06,9.66796875,0,0
-2.05186170205707E-05,7.64034484745935E-06,9.66796875,0,0
-1.52625962073216E-05,7.91342336015077E-06,9.66796875,0,0
-2.12654922506772E-05,1.27836556202965E-05,9.66796875,0,0
-1.59592309501022E-05,1.14965678221779E-05,9.66796875,0,0
-1.94921722140862E-05,1.31263313960517E-05,9.66796875,0,0
-1.47379732879926E-05,1.02407093436341E-05,9.66796875,0,0
-1.60060881171376E-05,1.09191514638951E-05,9.66796875,0,0
-1.56226014951244E-05,1.04157461464638E-05,9.66796875,0,0
-1.84378386620665E-05,9.57657084654784E-06,9.66796875,0,0
-1.85149528988404E-05,9.84799771686085E-06,9.66796875,0,0
-1.92978186532855E-05,1.06563902591006E-05,9.66796875,0,0
-2.06539352802793E-05,1.13664582386264E-05,9.66796875,0,0
-2.05765863938723E-05,1.1765423550969E-05,9.66796875,0,0
-2.1213596482994E-05,1.28133679027087E-05,9.66796875,0,0
-2.01530074264156E-05,1.25421265693149E-05,9.66796875,0,0
-2.18370460061124E-05,1.20690938274493E-05,9.66796875,0,0
-2.34890194406034E-05,1.02154344858718E-05,9.66796875,0,0
-2.66412953351391E-05,8.7642829385004E-06,9.66796875,0,0
-2.60815140791237E-05,6.99464180797804E-06,9.66796875,0,0
-2.57476003753254E-05,6.1820160226489E-06,9.66796875,0,0
-2.47351108555449E-05,6.01670080868644E-06,9.66796875,0,0
-2.57956562563777E-05,7.23844595995615E-06,9.66796875,0,0
-2.4927343474701E-05,7.89256773714442E-06,9.66796875,0,0
-2.38844495470403E-05,8.52607172419084E-06,9.66796875,0,0
-2.32959846471203E-05,9.01072962733451E-06,9.66796875,0,0
-2.43007161770947E-05,8.32370642456226E-06,9.66796875,0,0
-2.4329177904292E-05,7.16502654540818E-06,9.66796875,0,0
-2.32683232752606E-05,8.27958410809515E-06,9.66796875,0,0
-1.71526698977686E-05,8.57865597936325E-06,9.66796875,0,0
-2.38605243794154E-05,1.11363688120036E-05,9.66796875,0,0
-1.89540423889412E-05,8.1490034062881E-06,9.66796875,0,0
-2.49645363510353E-05,1.27495759443264E-05,9.66796875,0,0
-2.1188976461417E-05,1.24571788546746E-05,9.66796875,0,0
-2.37441618082812E-05,1.47395876410883E-05,9.66796875,0,0
-2.26965839829063E-05,1.43617835419718E-05,9.66796875,0,0
-2.58338277490111E-05,1.45076683111256E-05,9.66796875,0,0
-2.69761439994909E-05,1.34774463731446E-05,9.66796875,0,0
-2.69036827376112E-05,1.11493327494827E-05,9.66796875,0,0
-2.61979075730778E-05,9.63367801887216E-06,9.66796875,0,0
-2.59001335507492E-05,1.12640427687438E-05,9.66796875,0,0
-2.79188843705924E-05,1.59117644216167E-05,9.66796875,0,0
-2.71238714049105E-05,1.84120963240275E-05,9.66796875,0,0
-2.72732322628144E-05,1.90867303899722E-05,9.66796875,0,0
-2.59817697951803E-05,1.61658099386841E-05,14.4140625,0,0
-2.70373930106871E-05,1.34058536787052E-05,14.4140625,0,0
-2.5533798179822E-05,1.05986573544214E-05,14.4140625,0,0
-2.52860590990167E-05,1.00913912319811E-05,14.4140625,0,0
-2.39906112255994E-05,9.70161272562109E-06,14.4140625,0,0
-2.45596274908166E-05,9.88215106190182E-06,14.4140625,0,0
-2.37399108300451E-05,9.49865170696285E-06,14.4140625,0,0
-2.39056826103479E-05,8.9192544692196E-06,14.4140625,0,0
-2.39311248151353E-05,7.12324163032463E-06,14.4140625,0,0
-2.48223623202648E-05,6.64153185425675E-06,14.4140625,0,0
-2.46765248448355E-05,8.05789022706449E-06,14.4140625,0,0
-2.37393833231181E-05,8.63799050421221E-06,14.4140625,0,0
-1.87950954568805E-05,6.54633231533808E-06,14.4140625,0,0
-2.72248307737755E-05,9.14634620130528E-06,14.4140625,0,0
-2.11226688406896E-05,6.13961219642079E-06,14.4140625,0,0
-2.53211910603568E-05,7.76404249336338E-06,14.4140625,0,0
-2.05266496777767E-05,8.7623357103439E-06,14.4140625,0,0
-2.29925044550328E-05,1.09871816675877E-05,14.4140625,0,0
-2.16373337025288E-05,9.04305034055142E-06,14.4140625,0,0
-2.32949769269908E-05,8.00540510681458E-06,14.4140625,0,0
-2.36432788369711E-05,6.81653546052985E-06,14.4140625,0,0
-2.46667023020564E-05,5.96206336922478E-06,14.4140625,0,0
-2.50836492341477E-05,5.42246334589436E-06,14.4140625,0,0
-2.33988685067743E-05,5.98052611167077E-06,14.4140625,0,0
-2.35020434047328E-05,7.14322959538549E-06,14.4140625,0,0
-2.27559212362394E-05,6.34463640381E-06,14.4140625,0,0
-2.39599212363828E-05,6.8980234573246E-06,14.4140625,0,0
-2.35261850320967E-05,9.00469603948295E-06,14.4140625,0,0
-2.51216188189574E-05,1.30931493913522E-05,14.4140625,0,0
-2.36460255109705E-05,1.52421644088463E-05,14.4140625,0,0
-2.28930530283833E-05,1.56990936375223E-05,14.4140625,0,0
-2.14522642636439E-05,1.36375074362149E-05,14.4140625,0,0
-2.30660498345969E-05,1.10872688310337E-05,14.4140625,0,0
-2.44561742874794E-05,9.06708191905636E-06,14.4140625,0,0
-2.60276447079377E-05,9.68359381658956E-06,14.4140625,0,0
-2.5702649509185E-05,1.21745506476145E-05,14.4140625,0,0
-2.68214025709312E-05,1.46227548611932E-05,14.4140625,0,0
-2.74401918431977E-05,1.52656084537739E-05,14.4140625,0,0
-2.60678280028515E-05,1.58584698510822E-05,14.4140625,0,0
-2.02943265321665E-05,1.21035454867524E-05,14.4140625,0,0
-2.80354615824763E-05,1.64488701557275E-05,14.4140625,0,0
-2.04609004867962E-05,1.34839210659266E-05,14.4140625,0,0
-2.55144932452822E-05,1.89343154488597E-05,14.4140625,0,0
-1.98863690457074E-05,1.64743796631228E-05,14.4140625,0,0
-2.20403780986089E-05,1.77727124537341E-05,14.4140625,0,0
-2.10342932405183E-05,1.55694160639541E-05,14.4140625,0,0
-2.30302630370716E-05,1.51507947521168E-05,14.4140625,0,0
-2.20970596274128E-05,1.39596741064452E-05,14.4140625,0,0
-2.13475123018725E-05,1.37804418045562E-05,14.4140625,0,0
-2.12144404940773E-05,1.21913226394099E-05,14.4140625,0,0
-2.13377588806907E-05,1.07720006781165E-05,14.4140625,0,0
-2.38904485740932E-05,1.21188140838058E-05,14.4140625,0,0
-2.46020772465272E-05,1.29316895254306E-05,14.4140625,0,0
-2.70929158432409E-05,1.43277420647792E-05,14.4140625,0,0
-2.71376866294304E-05,1.38763725772151E-05,14.4140625,0,0
-2.90037078229943E-05,1.43176248457166E-05,14.4140625,0,0
-2.80405274679651E-05,1.27421353681711E-05,14.4140625,0,0
-2.83269055216806E-05,1.27435096146655E-05,14.4140625,0,0
-2.63640358753037E-05,1.14232589112362E-05,14.4140625,0,0
-2.64881145994877E-05,1.15004695544485E-05,14.4140625,0,0
-2.56980601989198E-05,1.18958932944224E-05,14.4140625,0,0
-2.58636628132081E-05,1.26858194562374E-05,14.4140625,0,0
-2.51001092692604E-05,1.21146822493756E-05,14.4140625,0,0
-2.44213060796028E-05,1.29319041661802E-05,14.4140625,0,0
-2.30291789193871E-05,1.37505548991612E-05,14.4140625,0,0
-2.23264923988609E-05,1.43412044053548E-05,14.4140625,0,0
-1.77155943674734E-05,8.86054476723075E-06,14.4140625,0,0
-2.57990668615093E-05,1.04659693533904E-05,14.4140625,0,0
-2.07748307730071E-05,6.53901952318847E-06,14.4140625,0,0
-2.63954552792711E-05,9.77479430730455E-06,14.4140625,0,0
-2.51407218456734E-05,6.45338195681688E-06,14.4140625,0,0
-2.92742715828354E-05,8.3893355622422E-06,14.4140625,0,0
-2.61279892583843E-05,8.63469449541299E-06,14.4140625,0,0
-2.49552031164058E-05,8.35843366076006E-06,14.4140625,0,0
-2.28019798669266E-05,6.87776309860055E-06,14.4140625,0,0
-2.12987233680906E-05,5.54899725102587E-06,14.4140625,0,0
-2.0150877389824E-05,4.72295005238266E-06,14.4140625,0,0
-1.87950081453891E-05,4.24092877437943E-06,14.4140625,0,0
-1.96859400602989E-05,5.09138999404968E-06,14.4140625,0,0
-2.03115178010194E-05,4.84871543449117E-06,14.4140625,0,0
-2.36932719417382E-05,6.25423217570642E-06,14.4140625,0,0
-2.3921955289552E-05,6.78925380270812E-06,14.4140625,0,0
-2.35663028433919E-05,6.79099775879877E-06,14.4140625,0,0
-2.02133833226981E-05,5.03899764225935E-06,14.4140625,0,0
-1.96088785742177E-05,4.02474370275741E-06,14.4140625,0,0
-1.8999287931365E-05,2.72524016509124E-06,14.4140625,0,0
-1.99310161406174E-05,4.62058460470871E-06,14.4140625,0,0
-1.94948606804246E-05,7.38784774512169E-06,14.4140625,0,0
-2.0490351744229E-05,8.41845576360356E-06,14.4140625,0,0
-2.15111613215413E-05,6.67906579110422E-06,14.4140625,0,0
-2.27357686526375E-05,6.55765370538575E-06,14.4140625,0,0
-2.29448287427658E-05,8.00189172878163E-06,14.4140625,0,0
-2.2995602193987E-05,8.82667427504202E-06,14.4140625,0,0
-1.83882930286927E-05,7.49699165680795E-06,14.4140625,0,0
-2.63798301602947E-05,1.11609169834992E-05,14.4140625,0,0
-2.10590023925761E-05,9.64249193202704E-06,14.4140625,0,0
-2.65731960098492E-05,1.15777747851098E-05,14.4140625,0,0
-2.32628372032195E-05,1.02054191302159E-05,14.4140625,0,0
-2.71895805781242E-05,1.30892231027246E-05,14.4140625,0,0
-2.76831669907551E-05,1.34947395054041E-05,14.4140625,0,0
-3.05311805277597E-05,1.36561793624423E-05,14.4140625,0,0
-3.01896488963393E-05,1.33817011374049E-05,14.4140625,0,0
-2.99834227917017E-05,1.34118690766627E-05,14.4140625,0,0
-2.92025943053886E-05,1.38385457830736E-05,14.4140625,0,0
-2.71253575192532E-05,1.4415164514503E-05,14.4140625,0,0
-2.60992947005434E-05,1.37808374347514E-05,14.4140625,0,0
-2.34898852795595E-05,1.15069933599443E-05,14.4140625,0,0
-2.31257454288425E-05,1.16461133075063E-05,14.4140625,0,0
-2.08774472412188E-05,1.32834275063942E-05,14.4140625,0,0
-1.98606703634141E-05,1.58808470587246E-05,14.4140625,0,0
-1.63169443112565E-05,1.49104271258693E-05,14.4140625,0,0
-1.5557574442937E-05,1.32492650664062E-05,14.4140625,0,0
-1.42040244099917E-05,1.23037125376868E-05,14.4140625,0,0
-1.51449848999619E-05,1.30424759845482E-05,14.4140625,0,0
-1.58371458383044E-05,1.24400348795461E-05,14.4140625,0,0
-1.63772019732278E-05,1.14326740003889E-05,14.4140625,0,0
-1.45923231684719E-05,8.78453556651948E-06,14.4140625,0,0
-1.49624111145386E-05,4.92554454467609E-06,14.4140625,0,0
-1.57192844199017E-05,4.38598499385989E-06,14.4140625,0,0
-1.75662553374423E-05,7.01663066138281E-06,14.4140625,0,0
-1.66263907885877E-05,7.49888567952439E-06,14.4140625,0,0
-2.47753996518441E-05,9.97259212454082E-06,14.4140625,0,0
-1.94754720723722E-05,5.02133070767741E-06,14.4140625,0,0
-2.29870347538963E-05,4.91067021357594E-06,14.4140625,0,0
-2.08806468435796E-05,4.06588969781296E-06,14.4140625,0,0
-2.50745652010664E-05,7.25117479305482E-06,14.4140625,0,0
-2.45545288635185E-05,8.1480275184731E-06,14.4140625,0,0
-2.52744612225797E-05,9.37170261749998E-06,14.4140625,0,0
-2.47130774368998E-05,1.03503425634699E-05,14.4140625,0,0
-2.53570706263417E-05,1.13523583422648E-05,14.4140625,0,0
-2.63014608208323E-05,1.12569923658157E-05,14.4140625,0,0
