biceps_emg, triceps_emg, subject_position, position_estimate, brace_position
6.5839930130096E-07,-1.95373359019868E-05,1.0546875,0,0
1.13464454898349E-06,-1.90933278645389E-05,1.0546875,0,0
3.03677370538935E-06,-1.93375708477106E-05,1.0546875,0,0
4.31864418715122E-06,-1.7767537428881E-05,1.0546875,0,0
5.29124827153282E-06,-1.84238415386062E-05,1.0546875,0,0
5.94212951909867E-06,-1.763588625181E-05,1.0546875,0,0
6.16823717791704E-06,-1.81205396074802E-05,1.0546875,0,0
4.8831552703632E-06,-1.75535606103949E-05,1.0546875,0,0
5.20336334375315E-06,-1.89850779861445E-05,1.0546875,0,0
7.04923922967282E-06,-1.88202975550666E-05,1.0546875,0,0
7.29630664864089E-06,-1.72255404322641E-05,1.0546875,0,0
4.92266008222941E-06,-1.50803280121181E-05,1.0546875,0,0
3.52706774719991E-06,-1.65603596542496E-05,1.0546875,0,0
3.5375908282731E-06,-1.82164112629835E-05,1.0546875,0,0
3.65828145731939E-06,-1.78783902811119E-05,1.0546875,0,0
2.31196440836356E-06,-1.29439522424946E-05,1.0546875,0,0
3.03030742543342E-06,-1.81128307303879E-05,1.0546875,0,0
1.86813019809051E-06,-1.41422269734903E-05,1.0546875,0,0
1.96307769328996E-06,-1.87408877536654E-05,1.0546875,0,0
1.23597897072614E-06,-1.74310280272039E-05,1.0546875,0,0
1.93394748748688E-06,-1.96493656403618E-05,1.0546875,0,0
1.09995323782641E-06,-1.84234177140752E-05,1.0546875,0,0
1.71690217598552E-08,-2.14488864003215E-05,1.0546875,0,0
-1.4193618653735E-06,-2.37647509493399E-05,1.0546875,0,0
-2.07335210689052E-06,-2.54034330282593E-05,1.0546875,0,0
-1.34317133415607E-06,-2.4524231776013E-05,1.0546875,0,0
-7.22575805411907E-07,-2.27877953875577E-05,1.0546875,0,0
-6.71755685743847E-07,-2.3947508452693E-05,1.0546875,0,0
-5.75291835502867E-07,-2.41752459260169E-05,1.0546875,0,0
1.40268730319804E-06,-2.42373334913282E-05,1.0546875,0,0
3.42845623890753E-06,-2.17632277781377E-05,1.0546875,0,0
3.93643404095201E-06,-2.22673388634576E-05,1.0546875,0,0
2.56499197348603E-06,-2.19330231630011E-05,1.0546875,0,0
8.15922760466492E-07,-2.19532794289989E-05,1.0546875,0,0
-4.09189311767477E-07,-2.08947949431604E-05,1.0546875,0,0
1.08293420453265E-06,-2.16253101825714E-05,1.0546875,0,0
4.44385386799695E-06,-2.04735642910236E-05,1.0546875,0,0
6.42972054265556E-06,-1.92154202522943E-05,1.0546875,0,0
5.74722298551933E-06,-1.81458417500835E-05,1.0546875,0,0
5.35180288352421E-06,-1.75430850504199E-05,1.0546875,0,0
6.84584256305243E-06,-1.698703817965E-05,1.0546875,0,0
7.95230971561978E-06,-1.74914148374228E-05,1.0546875,0,0
5.43899022886762E-06,-1.44336490848218E-05,1.0546875,0,0
6.56444672131329E-06,-2.03793897526339E-05,1.0546875,0,0
4.17415640185936E-06,-1.64567700267071E-05,1.0546875,0,0
6.12403255217941E-06,-2.23968727368629E-05,1.0546875,0,0
5.3718035815109E-06,-1.87252189789433E-05,1.0546875,0,0
7.59942622607923E-06,-1.79155613295734E-05,1.0546875,0,0
7.75582975620637E-06,-1.58628845383646E-05,1.0546875,0,0
8.99751285032835E-06,-1.82246149051934E-05,1.0546875,0,0
9.32287275645649E-06,-1.81032228283584E-05,1.0546875,0,0
8.89329021447338E-06,-1.61919851962011E-05,1.0546875,0,0
7.85596239438746E-06,-1.50799396578805E-05,1.0546875,0,0
6.65506695440854E-06,-1.4356632163981E-05,1.0546875,0,0
6.33275749351014E-06,-1.45219019032083E-05,1.0546875,0,0
5.17345642947475E-06,-1.27943549159681E-05,1.0546875,0,0
4.59945749753388E-06,-1.18285370263038E-05,1.0546875,0,0
2.98770873996546E-06,-1.02889407571638E-05,1.0546875,0,0
2.16767352867464E-06,-1.16289957077242E-05,1.0546875,0,0
1.45715421240311E-06,-1.1048863598262E-05,1.0546875,0,0
1.64445975769922E-06,-1.10538248918601E-05,1.0546875,0,0
1.30569162593019E-07,-1.05478220575606E-05,1.0546875,0,0
-1.1302079201414E-06,-1.12143798105535E-05,1.0546875,0,0
-5.23519418038632E-07,-1.06644865809358E-05,1.0546875,0,0
1.81530901954829E-06,-1.13012301881099E-05,1.0546875,0,0
3.70103225577623E-06,-1.22158626254532E-05,1.0546875,0,0
4.53065058536595E-06,-1.4597360859625E-05,1.0546875,0,0
3.63931212632451E-06,-1.70309485838516E-05,1.0546875,0,0
3.71206260751933E-06,-2.02860264835181E-05,1.0546875,0,0
3.00400165542669E-06,-1.93389751075301E-05,1.0546875,0,0
4.25003190684947E-06,-2.60229571722448E-05,1.0546875,0,0
3.50370942214795E-06,-1.49335492096725E-05,1.0546875,0,0
4.77601224702084E-06,-1.6008249076549E-05,1.0546875,0,0
4.76631703349995E-06,-9.70422024693107E-06,1.0546875,0,0
4.09526728617493E-06,-1.06204734038329E-05,1.0546875,0,0
1.05292622265551E-06,-9.80852928478271E-06,1.0546875,0,0
4.8622137427401E-08,-1.42046810651664E-05,1.0546875,0,0
3.97170708765771E-07,-1.56725673150504E-05,1.0546875,0,0
1.41286193411361E-06,-1.56059250002727E-05,1.0546875,0,0
2.41154248215025E-06,-1.52077755046776E-05,1.0546875,0,0
2.8091612875869E-06,-1.32765580929117E-05,1.0546875,0,0
2.08292362913198E-06,-1.38655786940944E-05,1.0546875,0,0
5.74573107314791E-07,-1.32574441522593E-05,1.0546875,0,0
9.1974067117917E-07,-1.39533940455294E-05,1.0546875,0,0
2.07505490834592E-06,-1.24954776765662E-05,1.0546875,0,0
2.38545089814579E-06,-1.39434705488384E-05,1.0546875,0,0
5.67296979170351E-07,-1.38321847771294E-05,1.0546875,0,0
-8.88989859504363E-07,-1.48101644299459E-05,1.0546875,0,0
-1.5338141565735E-06,-1.40793354148627E-05,1.0546875,0,0
-8.77881120686652E-07,-1.54542685777415E-05,1.0546875,0,0
8.94807044460322E-07,-1.62085125339217E-05,1.0546875,0,0
3.24590905620425E-06,-1.76383764483035E-05,1.0546875,0,0
3.82965481549036E-06,-1.6993601093418E-05,1.0546875,0,0
1.79906101038796E-06,-1.60931340360548E-05,1.0546875,0,0
2.31158125529873E-07,-1.63146523846081E-05,1.0546875,0,0
8.52963125907991E-07,-1.82993117050501E-05,1.0546875,0,0
1.29192327946726E-08,-1.78539721673587E-05,1.0546875,0,0
-4.06297374411224E-07,-2.74348567472771E-05,1.0546875,0,0
-8.15181522284547E-07,-2.29012384806992E-05,1.0546875,0,0
-5.92822061662446E-07,-2.77882827504072E-05,1.0546875,0,0
8.13319388726086E-07,-2.64279460679973E-05,1.0546875,0,0
3.05480557472038E-06,-2.92474360321648E-05,1.0546875,0,0
4.09706808568444E-06,-2.42919541051378E-05,1.0546875,0,0
3.96174709749175E-06,-2.07981738640228E-05,1.0546875,0,0
3.76985531147511E-06,-1.85830958798761E-05,1.0546875,0,0
4.40823259850731E-06,-1.95170578081161E-05,1.0546875,0,0
5.35403296453296E-06,-2.06349177460652E-05,1.0546875,0,0
6.15398448644555E-06,-1.95786269614473E-05,1.0546875,0,0
7.45304441807093E-06,-1.95349148270907E-05,1.0546875,0,0
7.88902889325982E-06,-1.88225221791072E-05,1.0546875,0,0
7.28077884559752E-06,-2.03403487830656E-05,1.0546875,0,0
5.71320470044157E-06,-1.99149581021629E-05,1.0546875,0,0
3.81804466087488E-06,-2.07970151677728E-05,1.0546875,0,0
3.02116018247034E-06,-1.94034346350236E-05,1.0546875,0,0
3.44434829457896E-06,-1.94330514204921E-05,1.0546875,0,0
4.19191292166943E-06,-1.89611582754878E-05,1.0546875,0,0
5.18318893227843E-06,-2.02860883291578E-05,1.0546875,0,0
5.6412268349959E-06,-1.99018195417011E-05,1.0546875,0,0
4.88643217977369E-06,-1.97369445231743E-05,1.0546875,0,0
4.02471005145344E-06,-1.99781679839361E-05,1.0546875,0,0
4.11106884712353E-06,-2.0334437067504E-05,1.0546875,0,0
4.81283814224298E-06,-1.80552269739565E-05,1.0546875,0,0
3.87237014365382E-06,-1.63500735652633E-05,1.0546875,0,0
1.89730633337604E-06,-1.39136254801997E-05,1.0546875,0,0
2.3240111204359E-06,-2.1158293748158E-05,1.0546875,0,0
1.48267031363503E-06,-1.84352284122724E-05,1.0546875,0,0
2.25176495405321E-06,-2.17481519939611E-05,1.0546875,0,0
1.58525665483467E-06,-1.80170500243548E-05,1.0546875,0,0
2.45434057433158E-06,-1.92065690498566E-05,1.0546875,0,0
2.81057668871654E-06,-1.63729309861083E-05,1.0546875,0,0
2.63204083239543E-06,-1.62760625244118E-05,1.0546875,0,0
3.10516452373122E-06,-1.59013798111118E-05,1.0546875,0,0
3.73268881048716E-06,-1.55754660227103E-05,1.0546875,0,0
3.52525239577517E-06,-1.45090307341889E-05,1.0546875,0,0
3.06855577036913E-06,-1.1642729077721E-05,1.0546875,0,0
3.0645765036752E-06,-9.84106281975983E-06,1.0546875,0,0
3.25767541653477E-06,-8.28917382023064E-06,1.0546875,0,0
4.19341540691676E-06,-1.14966715045739E-05,1.0546875,0,0
4.91960236104205E-06,-1.46595511978376E-05,1.0546875,0,0
5.19897821504856E-06,-1.71724004758289E-05,1.0546875,0,0
4.49072467745282E-06,-1.56191854330245E-05,1.0546875,0,0
3.0403250548261E-06,-1.40349657158367E-05,1.0546875,0,0
1.32358093196672E-06,-1.12621110019973E-05,1.0546875,0,0
1.49358868384297E-07,-1.06080697150901E-05,1.0546875,0,0
-4.75196884508478E-07,-1.22879182526958E-05,1.0546875,0,0
-1.31340200937302E-07,-1.76676967384992E-05,1.0546875,0,0
1.00848389195107E-07,-2.23647220991552E-05,1.0546875,0,0
-1.65555960052188E-07,-2.48978667514166E-05,1.0546875,0,0
-7.2453661914551E-07,-2.4018803742365E-05,1.0546875,0,0
-4.33874554062186E-08,-2.12740415008739E-05,1.0546875,0,0
1.36483606638649E-06,-1.33390140035772E-05,1.0546875,0,0
3.64193488167075E-06,-1.6604039046797E-05,1.0546875,0,0
4.21140612161253E-06,-1.0249800652673E-05,1.0546875,0,0
2.57981741924596E-06,-1.33236790134106E-05,1.0546875,0,0
6.3671762973172E-07,-7.93966319179162E-06,1.0546875,0,0
-4.44237997498931E-07,-9.66628886089893E-06,1.0546875,0,0
-8.62553193314852E-08,-1.19144633572432E-05,1.0546875,0,0
1.88917340437911E-06,-1.64924531418365E-05,1.0546875,0,0
2.901254219978E-06,-1.57262820721371E-05,1.0546875,0,0
3.12316706185811E-06,-1.37270117193111E-05,1.0546875,0,0
3.09105985252245E-06,-1.33227058540797E-05,1.0546875,0,0
2.62898333858175E-06,-1.36960197778535E-05,1.0546875,0,0
1.32152581500122E-06,-1.45058429552591E-05,1.0546875,0,0
1.13691532988014E-06,-1.35204754769802E-05,1.0546875,0,0
2.60028696175141E-06,-1.45225985761499E-05,1.0546875,0,0
4.09325775763136E-06,-1.54084173118463E-05,1.0546875,0,0
5.40256087333546E-06,-1.80128899955889E-05,1.0546875,0,0
5.29880753674661E-06,-1.73154967342271E-05,1.0546875,0,0
3.57099816028494E-06,-1.60374693223275E-05,1.0546875,0,0
1.89479010259674E-06,-1.20192562462762E-05,1.0546875,0,0
2.3050818072079E-06,-9.80787262960803E-06,1.0546875,0,0
4.32559045293601E-06,-8.89082548383158E-06,1.0546875,0,0
5.82640495849773E-06,-1.05877588794101E-05,1.0546875,0,0
4.86359294882277E-06,-1.2001071809209E-05,1.0546875,0,0
3.43377200806572E-06,-1.27188432088587E-05,1.0546875,0,0
3.43944861924683E-06,-1.36014150484698E-05,1.0546875,0,0
3.44395971296763E-06,-1.60946037794929E-05,1.0546875,0,0
2.03849663193978E-06,-1.44471550811431E-05,1.0546875,0,0
3.69657686860592E-06,-2.14169740502257E-05,1.0546875,0,0
5.3766007113154E-06,-1.72393356479006E-05,1.0546875,0,0
7.64835567679256E-06,-2.15985237446148E-05,1.0546875,0,0
6.06346111453604E-06,-1.92568531929282E-05,1.0546875,0,0
5.00593341712374E-06,-1.99309906747658E-05,1.0546875,0,0
5.93002732784953E-06,-1.7806112737162E-05,1.0546875,0,0
8.19855449663009E-06,-1.90337123058271E-05,1.0546875,0,0
7.66746234148741E-06,-1.88776775758015E-05,1.0546875,0,0
5.29450244357577E-06,-1.85400040209061E-05,1.0546875,0,0
4.06112258133362E-06,-1.8019602066488E-05,1.0546875,0,0
4.11445398640353E-06,-1.67845646501519E-05,1.0546875,0,0
4.69935775981867E-06,-1.69317954714643E-05,1.0546875,0,0
4.3216100493737E-06,-1.69726627063937E-05,1.0546875,0,0
3.99796317651635E-06,-1.79875951289432E-05,1.0546875,0,0
3.24215670843842E-06,-1.56985697685741E-05,1.0546875,0,0
2.68922531176941E-06,-1.54186745930929E-05,1.0546875,0,0
1.86365980425762E-06,-1.55230809468776E-05,1.0546875,0,0
1.33909270516597E-06,-1.79403541551437E-05,1.0546875,0,0
1.50924120134732E-06,-1.91106501006288E-05,1.0546875,0,0
2.02246928893146E-06,-2.11189144465607E-05,1.0546875,0,0
2.51915093940625E-06,-2.15248255699407E-05,1.0546875,0,0
3.20919980367762E-06,-2.12049544643378E-05,1.0546875,0,0
4.08934010920348E-06,-2.00531194423093E-05,1.0546875,0,0
4.4151770453027E-06,-1.95564498426393E-05,1.0546875,0,0
2.65235553342791E-06,-1.80466377059929E-05,1.0546875,0,0
6.12658084264694E-07,-1.59255159815075E-05,1.0546875,0,0
7.96516541612391E-09,-1.15790999188903E-05,1.0546875,0,0
3.87435449056284E-07,-1.61800489877351E-05,1.0546875,0,0
1.08490667116712E-06,-1.22862657008227E-05,1.0546875,0,0
1.19871253900783E-06,-1.65828259923728E-05,1.0546875,0,0
6.89992475599865E-07,-1.53222135850228E-05,1.0546875,0,0
7.11036562961453E-09,-1.7361437130603E-05,1.0546875,0,0
9.82693791229394E-07,-1.71087558555882E-05,1.0546875,0,0
3.55200040758064E-06,-1.77681686182041E-05,1.0546875,0,0
5.93646836932749E-06,-1.60657436936162E-05,1.0546875,0,0
7.5893303801422E-06,-1.58439870574512E-05,1.0546875,0,0
7.96216045273468E-06,-1.56719925143989E-05,1.0546875,0,0
6.91734885549522E-06,-1.4272607586463E-05,1.0546875,0,0
4.94079176860396E-06,-1.45424755828572E-05,1.0546875,0,0
4.08621372116613E-06,-1.44724635902094E-05,1.0546875,0,0
4.81030792798265E-06,-1.62487067427719E-05,1.0546875,0,0
5.09444862473174E-06,-1.7083169950638E-05,1.0546875,0,0
3.59145155925944E-06,-1.8136044673156E-05,1.0546875,0,0
1.3602068520413E-06,-1.59427872858942E-05,1.0546875,0,0
5.82339581001179E-08,-1.46197744470555E-05,1.0546875,0,0
5.17363162089168E-07,-1.45323119795648E-05,1.0546875,0,0
2.50643574872811E-06,-1.68406750162831E-05,1.0546875,0,0
3.38589302373293E-06,-1.71562114701374E-05,1.0546875,0,0
1.36282665152976E-06,-1.66234131029341E-05,1.0546875,0,0
-5.16716227139113E-07,-1.62359319801908E-05,1.0546875,0,0
-4.6494071170855E-07,-1.68979931913782E-05,1.0546875,0,0
-1.91322854448117E-07,-1.65856254170649E-05,1.0546875,0,0
2.94871767891891E-07,-1.67608995980117E-05,1.0546875,0,0
6.83809560086956E-07,-1.45647718454711E-05,1.0546875,0,0
9.64077230491966E-07,-2.04454900085693E-05,1.0546875,0,0
3.61589371777882E-07,-1.45120002343901E-05,1.0546875,0,0
8.34137040328642E-07,-1.82677194970893E-05,1.0546875,0,0
1.65751760050625E-06,-1.63497934408952E-05,1.0546875,0,0
3.20913477480644E-06,-1.92450079339324E-05,1.0546875,0,0
5.50460390513763E-06,-1.75825989572331E-05,1.0546875,0,0
7.2740735959087E-06,-1.83123611350311E-05,1.0546875,0,0
7.85652264312375E-06,-1.89627116924385E-05,1.0546875,0,0
6.20578657617443E-06,-2.05849955818849E-05,1.0546875,0,0
5.06496098751086E-06,-2.14021856663749E-05,1.0546875,0,0
6.22340121481102E-06,-1.81850336957723E-05,1.0546875,0,0
7.66147422837093E-06,-1.47176106111147E-05,1.0546875,0,0
7.52559708416811E-06,-1.1294237083348E-05,1.0546875,0,0
6.56067277304828E-06,-1.25811384350527E-05,1.0546875,0,0
7.01658836987917E-06,-1.4578809896193E-05,1.0546875,0,0
7.96611402620329E-06,-1.73105854628375E-05,1.0546875,0,0
7.72759449318983E-06,-1.61726238729898E-05,1.0546875,0,0
6.41737369733164E-06,-1.5425395758939E-05,1.0546875,0,0
5.36216430191416E-06,-1.49132865772117E-05,1.0546875,0,0
4.39243149230606E-06,-1.52516477101017E-05,1.0546875,0,0
4.04363800043939E-06,-1.37104725581594E-05,1.0546875,0,0
5.45535749552073E-06,-1.39147723530186E-05,1.0546875,0,0
7.30559850126156E-06,-1.35896807478275E-05,1.0546875,0,0
7.24689516573562E-06,-1.34210977194016E-05,1.0546875,0,0
5.25544874108164E-06,-1.49951729326858E-05,1.0546875,0,0
3.96370796806877E-06,-1.71025640156586E-05,1.0546875,0,0
3.95149936593953E-06,-1.51187095980276E-05,1.0546875,0,0
6.39637846688856E-06,-2.17364540731069E-05,1.0546875,0,0
5.68112545806798E-06,-1.62537453434197E-05,1.0546875,0,0
6.350612238748E-06,-1.89441634574905E-05,1.0546875,0,0
5.67034612686257E-06,-1.4667912182631E-05,1.0546875,0,0
7.06609171174932E-06,-1.57736067194492E-05,1.0546875,0,0
7.9017945608939E-06,-1.46203292388236E-05,1.0546875,0,0
8.69630730448989E-06,-1.66450627148151E-05,1.0546875,0,0
8.51142249302939E-06,-1.62948217621306E-05,1.0546875,0,0
7.35781213734299E-06,-1.54913832375314E-05,1.0546875,0,0
5.24634970133775E-06,-1.41342407005141E-05,1.0546875,0,0
3.29098065776634E-06,-1.22287237900309E-05,1.0546875,0,0
2.6930549665849E-06,-1.34788888317416E-05,1.0546875,0,0
2.06954268833215E-06,-1.5275083569577E-05,1.0546875,0,0
1.12957002329495E-06,-1.77025594894076E-05,1.0546875,0,0
-1.27463607668687E-07,-1.69761406141333E-05,1.0546875,0,0
-3.74097304245424E-08,-1.69273571373196E-05,1.0546875,0,0
2.08429042913849E-08,-1.48786621139152E-05,1.0546875,0,0
7.52966798245325E-07,-1.47434293467086E-05,1.0546875,0,0
1.73296393768396E-06,-1.48480512507376E-05,1.0546875,0,0
2.92210893348965E-06,-1.74207325471798E-05,1.0546875,0,0
3.98987594962819E-06,-1.76218691194663E-05,1.0546875,0,0
4.15754993809969E-06,-1.65437741088681E-05,1.0546875,0,0
2.69203655989259E-06,-1.58044895215426E-05,1.0546875,0,0
1.23945039831597E-06,-1.76892808667617E-05,1.0546875,0,0
-1.37726388516057E-07,-1.95435441128211E-05,1.0546875,0,0
-6.52110713872389E-07,-2.08744659175863E-05,1.0546875,0,0
5.65445930078567E-07,-1.79765411303379E-05,1.0546875,0,0
1.54108226979588E-06,-2.59322951023933E-05,1.0546875,0,0
1.25144401863508E-06,-1.92889401660068E-05,1.0546875,0,0
1.22099595500913E-06,-2.40291283262195E-05,1.0546875,0,0
2.15370164369233E-06,-2.13444400287699E-05,1.0546875,0,0
2.33219793699391E-06,-2.18024797504768E-05,1.0546875,0,0
2.49443610300659E-06,-1.7955861039809E-05,1.0546875,0,0
1.87224088676885E-06,-1.91345861821901E-05,1.0546875,0,0
2.26442102757574E-06,-1.92190436791861E-05,1.0546875,0,0
3.73787497665035E-06,-2.02438895939849E-05,1.0546875,0,0
4.8990059440257E-06,-2.1480040231836E-05,1.0546875,0,0
5.20971298101358E-06,-2.14901301660575E-05,1.0546875,0,0
5.19113382324576E-06,-2.27002619794803E-05,1.0546875,0,0
5.07810909766704E-06,-2.27703403652413E-05,1.0546875,0,0
4.98392046210938E-06,-2.45308292505797E-05,1.0546875,0,0
5.21247920914902E-06,-2.339696038689E-05,1.0546875,0,0
4.85766940983012E-06,-2.38165284827119E-05,1.0546875,0,0
4.05678792958497E-06,-2.24751456698868E-05,1.0546875,0,0
3.69389363186201E-06,-2.22045910049928E-05,1.0546875,0,0
4.36169329987024E-06,-2.06737531698309E-05,1.0546875,0,0
4.70752547698794E-06,-2.13561652344652E-05,1.0546875,0,0
3.40795986630837E-06,-2.03800809686072E-05,1.0546875,0,0
1.21583127565827E-06,-1.9635595890577E-05,1.0546875,0,0
5.92314563618856E-07,-1.8439648556523E-05,1.0546875,0,0
1.49072457134025E-06,-1.79895687324461E-05,1.0546875,0,0
2.52822906077199E-06,-1.66292393259937E-05,1.0546875,0,0
3.5533664686227E-06,-1.50772766573937E-05,1.0546875,0,0
4.07542984248721E-06,-1.14621252578218E-05,1.0546875,0,0
6.73464410283486E-06,-1.63615059136646E-05,1.0546875,0,0
5.8790960792976E-06,-1.23511335914372E-05,1.0546875,0,0
5.416072326625E-06,-1.50492569446214E-05,1.0546875,0,0
2.53385564974451E-06,-1.31753777168342E-05,1.0546875,0,0
3.04828586195072E-06,-1.58680195454508E-05,1.0546875,0,0
4.66803703602636E-06,-1.58987186296145E-05,1.0546875,0,0
5.48749085282907E-06,-1.69652594195213E-05,1.0546875,0,0
4.32768138125539E-06,-1.69968770933338E-05,1.0546875,0,0
3.66002882401517E-06,-1.84496748261154E-05,1.0546875,0,0
4.42185955762398E-06,-1.99343921849504E-05,1.0546875,0,0
5.58734154765261E-06,-1.9158867871738E-05,1.0546875,0,0
6.02742647970445E-06,-1.79322851181496E-05,1.0546875,0,0
5.30002625964698E-06,-1.48503650052589E-05,1.0546875,0,0
5.1990036809002E-06,-1.32084933284204E-05,1.0546875,0,0
6.05901914241258E-06,-1.152865934273E-05,1.0546875,0,0
7.40787845643354E-06,-1.25145725178299E-05,1.0546875,0,0
7.4121444413322E-06,-1.34402043840964E-05,1.0546875,0,0
6.48928835289553E-06,-1.66145855473587E-05,1.0546875,0,0
4.02183559344849E-06,-1.93998457689304E-05,1.0546875,0,0
4.94394726047176E-07,-2.26176216528984E-05,1.0546875,0,0
-1.37427480240149E-06,-2.43375561694847E-05,1.0546875,0,0
1.00510385436792E-06,-2.53687449003337E-05,1.0546875,0,0
2.78877473647299E-06,-2.42286896536825E-05,1.0546875,0,0
2.13677776628174E-06,-2.23821716645034E-05,1.0546875,0,0
-5.39842801572377E-07,-2.13249659282155E-05,1.0546875,0,0
-2.72645320364973E-06,-2.06917320610955E-05,1.0546875,0,0
-1.19847550195118E-06,-1.81051746039884E-05,1.0546875,0,0
-3.23414894864982E-07,-2.81060110864928E-05,1.0546875,0,0
9.27612688883528E-07,-2.3430735382135E-05,1.0546875,0,0
1.12749341951712E-06,-2.59780572378077E-05,1.0546875,0,0
2.61302193393931E-06,-1.88486337719951E-05,1.0546875,0,0
2.41902534980909E-06,-1.75295263034059E-05,1.0546875,0,0
3.82899861506303E-06,-1.36930411827052E-05,1.0546875,0,0
4.66784467789694E-06,-1.43693978316151E-05,1.0546875,0,0
5.3021658459329E-06,-1.46021693581133E-05,1.0546875,0,0
4.79169511891087E-06,-1.53091277752537E-05,1.0546875,0,0
3.47984928339429E-06,-1.63739878189517E-05,1.0546875,0,0
1.70437692759151E-06,-1.60411655087955E-05,1.0546875,0,0
-1.22231213595114E-07,-1.59126520884456E-05,1.0546875,0,0
-9.64495598054782E-07,-1.37481183628552E-05,1.0546875,0,0
-6.09394446016154E-09,-1.33935618578107E-05,1.0546875,0,0
1.67068094469869E-06,-1.12661664388725E-05,1.0546875,0,0
1.39309497626527E-06,-1.16643486762769E-05,1.0546875,0,0
5.45478997082682E-07,-1.08585400084849E-05,1.0546875,0,0
-5.18158529416723E-08,-1.13200885607512E-05,1.0546875,0,0
5.99390659772325E-07,-9.85008227871731E-06,1.0546875,0,0
6.48062098207447E-07,-9.88784631772432E-06,1.0546875,0,0
2.80712384892468E-07,-9.76119645201834E-06,1.0546875,0,0
4.74860222254847E-08,-1.0653750905476E-05,1.0546875,0,0
1.59091030127456E-07,-1.10644677988603E-05,1.0546875,0,0
4.63824960661441E-07,-1.12747266030055E-05,1.0546875,0,0
1.57629983732477E-06,-1.03649308584863E-05,1.0546875,0,0
1.1718489076884E-06,-1.06966190287494E-05,1.0546875,0,0
1.27730018562033E-07,-1.06457146102912E-05,1.0546875,0,0
1.51862820985116E-06,-1.62507094501052E-05,1.0546875,0,0
2.93065681944427E-06,-1.41348573379219E-05,1.0546875,0,0
2.04224352273741E-06,-1.7325945009361E-05,1.0546875,0,0
1.31821067839155E-07,-1.49920842886786E-05,1.0546875,0,0
-7.46940600038215E-07,-1.63430649990914E-05,1.0546875,0,0
-8.20223817754595E-08,-1.51254380398314E-05,1.0546875,0,0
1.32816921905032E-06,-1.39659368869616E-05,1.0546875,0,0
2.73814021056751E-06,-1.24246726045385E-05,1.0546875,0,0
3.23217795994424E-06,-1.28330484585604E-05,1.0546875,0,0
2.61793411482358E-06,-1.37988499773201E-05,1.0546875,0,0
2.94663482236501E-06,-1.3190907338867E-05,1.0546875,0,0
3.89583738069632E-06,-1.43576535265311E-05,1.0546875,0,0
4.01707484343206E-06,-1.63208660524106E-05,1.0546875,0,0
3.39900725521147E-06,-1.92580446309876E-05,1.0546875,0,0
3.85839348382433E-06,-1.93855848920066E-05,1.0546875,0,0
5.52481469640043E-06,-1.97081499209162E-05,1.0546875,0,0
6.633964858338E-06,-1.87423174793366E-05,1.0546875,0,0
6.44639112579171E-06,-1.85823901119875E-05,1.0546875,0,0
6.3716684053361E-06,-1.78535610757535E-05,1.0546875,0,0
7.40826726541854E-06,-1.76146459125448E-05,1.0546875,0,0
7.62882473281934E-06,-1.67076359502971E-05,1.0546875,0,0
5.52235724171624E-06,-1.69665545399766E-05,1.0546875,0,0
3.68711130249721E-06,-1.86021661647828E-05,1.0546875,0,0
3.56621853825345E-06,-2.05569376703352E-05,1.0546875,0,0
3.83212318411097E-06,-2.04325915547088E-05,1.0546875,0,0
4.32990054832771E-06,-1.82560852408642E-05,1.0546875,0,0
4.48762648375123E-06,-1.27949442685349E-05,1.0546875,0,0
6.52117569188704E-06,-1.75369168573525E-05,1.0546875,0,0
2.01863372240041E-06,-1.26516570162494E-05,1.0546875,0,0
-1.47586513321585E-06,-1.74723827512935E-05,1.0546875,0,0
-2.45900673689903E-06,-1.67897560459096E-05,1.0546875,0,0
1.3316245031092E-06,-2.02464325411711E-05,1.0546875,0,0
2.72573765869311E-06,-2.14765750570223E-05,1.0546875,0,0
2.33134733207407E-06,-2.41376583289821E-05,1.0546875,0,0
1.88934109246475E-06,-2.37354743148899E-05,1.0546875,0,0
2.12025861401344E-06,-2.38140200963244E-05,1.0546875,0,0
1.78149070961808E-06,-2.45096798607847E-05,1.0546875,0,0
2.11882053235968E-07,-2.38777574850246E-05,1.0546875,0,0
-1.30526495922823E-06,-2.27121618081583E-05,1.0546875,0,0
-2.02587398234755E-06,-2.03334839170566E-05,1.0546875,0,0
-1.29641546209314E-06,-2.04594143724535E-05,1.0546875,0,0
-4.90092190830183E-07,-2.06136319320649E-05,1.0546875,0,0
5.88412774504832E-07,-2.17154702113476E-05,1.0546875,0,0
1.29406589621794E-06,-1.86966990440851E-05,1.0546875,0,0
1.99074474949157E-06,-1.63542354130186E-05,1.0546875,0,0
1.43917782224889E-06,-1.489464284532E-05,1.0546875,0,0
8.75164744229551E-07,-1.53328273881925E-05,1.0546875,0,0
8.13025167190062E-07,-1.42629551191931E-05,1.0546875,0,0
2.71617636826704E-06,-1.32289178509382E-05,1.0546875,0,0
4.97357950735022E-06,-1.1683558113873E-05,1.0546875,0,0
5.96545987718855E-06,-1.21165785458288E-05,1.0546875,0,0
6.59265697322553E-06,-1.37030756377499E-05,1.0546875,0,0
6.95374501447077E-06,-1.4832075976301E-05,1.0546875,0,0
5.03561022924259E-06,-1.25296883197734E-05,1.0546875,0,0
6.76737636240432E-06,-1.85883945960086E-05,1.0546875,0,0
3.74379897039034E-06,-1.50976820805226E-05,1.0546875,0,0
3.31109617945913E-06,-1.73788193933433E-05,1.0546875,0,0
1.81272037025337E-06,-1.33702660605195E-05,1.0546875,0,0
3.29612407767854E-06,-1.48046865433571E-05,1.0546875,0,0
3.42280736731482E-06,-1.44959094541264E-05,1.0546875,0,0
5.43092255611555E-06,-1.54831250256393E-05,1.0546875,0,0
6.95894686941756E-06,-1.39861485877191E-05,1.0546875,0,0
6.51530626782915E-06,-1.39150533868815E-05,1.0546875,0,0
5.56156328457291E-06,-1.51363510667579E-05,1.0546875,0,0
5.52027404410183E-06,-1.4414871657209E-05,1.0546875,0,0
6.01363535679411E-06,-1.32471659526345E-05,1.0546875,0,0
4.6506638682331E-06,-1.23733361760969E-05,1.0546875,0,0
3.55987890543474E-06,-1.42341086757369E-05,1.0546875,0,0
3.27748352901835E-06,-1.51194599311566E-05,1.0546875,0,0
4.20566402681288E-06,-1.66356185218319E-05,1.0546875,0,0
4.83856638311408E-06,-1.60983217938337E-05,1.0546875,0,0
6.53741017231368E-06,-1.77425135916565E-05,1.0546875,0,0
7.43588270779583E-06,-1.94795411516679E-05,1.0546875,0,0
7.11453230906045E-06,-2.18899313040311E-05,1.0546875,0,0
5.86202259000856E-06,-2.06775712285889E-05,1.0546875,0,0
5.88069997320417E-06,-1.75792592926882E-05,1.0546875,0,0
5.79510287934681E-06,-1.4598931556975E-05,1.0546875,0,0
5.21000765729696E-06,-1.31488504848676E-05,1.0546875,0,0
4.32026081398362E-06,-1.31346814669087E-05,1.0546875,0,0
2.74965714197606E-06,-1.42290982694249E-05,1.0546875,0,0
1.7862710137706E-06,-1.21280054372619E-05,1.0546875,0,0
3.55127622242435E-06,-1.64211141964188E-05,1.0546875,0,0
4.21971844843938E-06,-1.31343094835756E-05,1.0546875,0,0
4.57972782896832E-06,-1.89446363947354E-05,1.0546875,0,0
4.45310433860868E-06,-1.80313054443104E-05,1.0546875,0,0
4.38962388216169E-06,-2.08533310797066E-05,1.0546875,0,0
2.92094750875549E-06,-1.94166477740509E-05,1.0546875,0,0
2.1027453840361E-06,-1.88234425877454E-05,1.0546875,0,0
2.31054787036555E-06,-1.74417546077166E-05,1.0546875,0,0
3.90754212276079E-06,-1.75057466549333E-05,1.0546875,0,0
5.45305556443054E-06,-1.77216570591554E-05,1.0546875,0,0
5.10161453348701E-06,-1.65239744092105E-05,1.0546875,0,0
3.25553264701739E-06,-1.6672976926202E-05,1.0546875,0,0
1.52456152591185E-06,-1.65974106494104E-05,1.0546875,0,0
1.15696730063064E-06,-1.78393875103211E-05,1.0546875,0,0
7.82657309628121E-07,-1.73152584466152E-05,1.0546875,0,0
9.51975891894108E-07,-1.90288992598653E-05,1.0546875,0,0
1.71999124631839E-06,-1.97048066183925E-05,1.0546875,0,0
1.97029748960631E-06,-2.10180460271658E-05,1.0546875,0,0
1.11815518266667E-06,-1.9275094018667E-05,1.0546875,0,0
7.06076775713882E-07,-1.65292804013006E-05,1.0546875,0,0
3.80727925630708E-07,-1.41730579343857E-05,1.0546875,0,0
1.01405316854652E-06,-1.54502467921702E-05,1.0546875,0,0
2.04836260309094E-06,-1.77628335222835E-05,1.0546875,0,0
2.29360966841341E-06,-2.08996589208255E-05,1.0546875,0,0
2.30162117986765E-06,-2.29850211326266E-05,1.0546875,0,0
2.97915630653733E-06,-2.37224630836863E-05,1.0546875,0,0
3.39533494297939E-06,-1.90465107152704E-05,1.0546875,0,0
3.92458241549321E-06,-2.77652106888127E-05,1.0546875,0,0
2.21856134885456E-06,-2.12066788662924E-05,1.0546875,0,0
3.96451378037455E-06,-2.50514094659593E-05,1.0546875,0,0
3.2927559914242E-06,-2.18008462979924E-05,1.0546875,0,0
3.4813824640878E-06,-2.57038409472443E-05,1.0546875,0,0
1.66885979524523E-06,-2.38640041061444E-05,1.0546875,0,0
8.33917290776753E-09,-2.42299702222226E-05,1.0546875,0,0
-1.34194415579714E-08,-2.10556972888298E-05,1.0546875,0,0
1.15668262878899E-06,-1.93038722500205E-05,1.0546875,0,0
1.59035300839605E-06,-1.86918150575366E-05,1.0546875,0,0
8.16443957774027E-07,-1.67615817190381E-05,1.0546875,0,0
9.33568003347318E-07,-1.62713677127613E-05,1.0546875,0,0
9.68348103924654E-07,-1.42089493238018E-05,1.0546875,0,0
1.47624371038546E-06,-1.39436278914218E-05,1.0546875,0,0
1.50760331507627E-06,-1.20846070785774E-05,1.0546875,0,0
1.39406108701223E-06,-1.31891492856084E-05,1.0546875,0,0
6.27285828613822E-07,-1.24488742585527E-05,1.0546875,0,0
1.00578986916844E-07,-1.32184159156168E-05,1.0546875,0,0
-9.42843257689674E-07,-1.18779507829458E-05,1.0546875,0,0
-1.13747751129267E-06,-1.18022417154862E-05,1.0546875,0,0
-9.10996647007778E-08,-1.07129317257204E-05,1.0546875,0,0
2.18782088268199E-06,-1.13334799607401E-05,1.0546875,0,0
2.86681733996375E-06,-1.16838482426829E-05,1.0546875,0,0
1.87186196853872E-06,-1.28479387058178E-05,1.0546875,0,0
1.79775327069365E-06,-1.38851037263521E-05,1.0546875,0,0
1.43525267048972E-06,-1.51210288095172E-05,1.0546875,0,0
9.59380827225687E-07,-1.21368657346466E-05,1.0546875,0,0
1.61110699536948E-06,-1.68094775290228E-05,1.0546875,0,0
1.16755666113022E-06,-1.43432725963066E-05,1.0546875,0,0
7.15258750005887E-07,-1.88778867595829E-05,1.0546875,0,0
6.31212841994966E-08,-1.41851587613928E-05,1.0546875,0,0
1.27936573335319E-07,-1.3884506188333E-05,1.0546875,0,0
1.1322389354973E-06,-1.26758677652106E-05,1.0546875,0,0
2.28443650485133E-06,-1.39823659992544E-05,1.0546875,0,0
2.01803072741313E-06,-1.33250578073785E-05,1.0546875,0,0
1.37033282499033E-06,-1.38796767714666E-05,1.0546875,0,0
1.70708187852142E-06,-1.58094826474553E-05,1.0546875,0,0
2.67345535576169E-06,-1.87073655979475E-05,1.0546875,0,0
2.9771103982057E-06,-2.22109465539688E-05,1.0546875,0,0
2.80910876426788E-06,-2.28522476390935E-05,1.0546875,0,0
3.49643255503906E-06,-2.39339169638697E-05,1.0546875,0,0
4.45618206867948E-06,-2.31689446081873E-05,1.0546875,0,0
4.76462628284935E-06,-2.28170629270608E-05,1.0546875,0,0
3.67338134310558E-06,-2.00221220438834E-05,1.0546875,0,0
2.11852147913305E-06,-1.91389335668646E-05,1.0546875,0,0
1.19016863209254E-06,-1.61950083565898E-05,1.0546875,0,0
1.6582606576776E-06,-1.17747522381251E-05,1.0546875,0,0
3.72793442693364E-06,-7.18034698365955E-06,1.0546875,0,0
5.96820927967201E-06,-7.3461214924464E-06,1.0546875,0,0
6.81320989315282E-06,-1.00220104286564E-05,1.0546875,0,0
5.84050849283813E-06,-1.38408813654678E-05,1.0546875,0,0
4.59919692730182E-06,-1.58619877765886E-05,1.0546875,0,0
5.6620265240781E-06,-1.55395337060327E-05,1.0546875,0,0
5.30051147507038E-06,-1.21274542834726E-05,1.0546875,0,0
7.42525025998475E-06,-1.8001959688263E-05,1.0546875,0,0
6.43722341919784E-06,-1.55465186253423E-05,1.0546875,0,0
8.70423355081584E-06,-2.00870199478231E-05,1.0546875,0,0
7.28629720470053E-06,-1.89319380297093E-05,1.0546875,0,0
6.73617478241795E-06,-2.20123783947201E-05,1.0546875,0,0
4.13391853726353E-06,-2.01660004677251E-05,1.0546875,0,0
3.47992659044394E-06,-1.94657368410844E-05,1.0546875,0,0
2.83328699879348E-06,-2.09590089070844E-05,1.0546875,0,0
2.67441146206693E-06,-2.4306180421263E-05,1.0546875,0,0
2.39106634580821E-06,-2.61058357864385E-05,1.0546875,0,0
2.40320082411927E-06,-2.67689101747237E-05,1.0546875,0,0
2.99757562061131E-06,-2.83882473013364E-05,1.0546875,0,0
3.11575627165439E-06,-2.74778540187981E-05,1.0546875,0,0
4.61233184978482E-06,-2.67789037025068E-05,1.0546875,0,0
5.90052468396607E-06,-2.52699846896576E-05,1.0546875,0,0
7.7787281043129E-06,-2.58557902270695E-05,1.0546875,0,0
8.1709049482015E-06,-2.43862632487435E-05,1.0546875,0,0
8.31611305329716E-06,-2.2001555407769E-05,1.0546875,0,0
6.40009739072411E-06,-1.73282114701578E-05,1.0546875,0,0
3.70236284652492E-06,-1.55959533003625E-05,1.0546875,0,0
1.79993412530166E-06,-1.62708984134952E-05,1.0546875,0,0
2.74844205705449E-06,-1.69515187735669E-05,1.0546875,0,0
4.42866803496145E-06,-1.49330053318408E-05,1.0546875,0,0
5.25227824255126E-06,-1.36633007059572E-05,1.0546875,0,0
5.31752721144585E-06,-1.39334706545924E-05,1.0546875,0,0
7.1831686909718E-06,-1.47997161548119E-05,1.0546875,0,0
8.30507724458585E-06,-1.12971429189201E-05,1.0546875,0,0
1.15392867883202E-05,-1.5014184100437E-05,1.0546875,0,0
6.34112575426116E-06,-1.14684244181262E-05,1.0546875,0,0
5.43365285921027E-06,-1.56625937961508E-05,1.0546875,0,0
3.26429108099546E-06,-1.36203998408746E-05,1.0546875,0,0
5.6903436416178E-06,-1.6687883544364E-05,1.0546875,0,0
5.91143862038734E-06,-1.66752124641789E-05,1.0546875,0,0
6.83331654727226E-06,-1.85759090527426E-05,1.0546875,0,0
7.34994819140411E-06,-1.82558669621358E-05,1.0546875,0,0
7.15065334588871E-06,-1.79567232407862E-05,1.0546875,0,0
5.65087202630821E-06,-1.72762775036972E-05,1.0546875,0,0
3.95719553125673E-06,-1.54193767230026E-05,1.0546875,0,0
4.33642208008678E-06,-1.54279659909662E-05,1.0546875,0,0
4.91713763040025E-06,-1.47586843013414E-05,1.0546875,0,0
6.1094033299014E-06,-1.5265757610905E-05,1.0546875,0,0
5.74855994273094E-06,-1.45676522151916E-05,1.0546875,0,0
4.71654720968218E-06,-1.58462371473433E-05,1.0546875,0,0
1.93710320672835E-06,-1.52847496792674E-05,1.0546875,0,0
1.67604468970239E-06,-1.55462385009741E-05,1.0546875,0,0
1.80928941517777E-06,-1.54730350914178E-05,1.0546875,0,0
5.46024921277422E-07,-1.64711655088468E-05,1.0546875,0,0
-9.37043637350143E-07,-1.62221804203E-05,1.0546875,0,0
4.98802705806156E-07,-1.68144961207872E-05,1.0546875,0,0
2.4191992906708E-06,-1.63872009579791E-05,1.0546875,0,0
3.81222071155207E-06,-1.48557064676424E-05,1.0546875,0,0
3.15653437610308E-06,-1.32159029817558E-05,1.0546875,0,0
1.1092008662672E-06,-1.35596055770293E-05,1.0546875,0,0
-3.79841537778702E-07,-1.39012890940649E-05,1.0546875,0,0
-1.13501278065087E-06,-2.12999802897684E-05,1.0546875,0,0
-9.25165977605502E-07,-1.76056619238807E-05,1.0546875,0,0
4.15665482478289E-07,-2.0759689505212E-05,1.0546875,0,0
7.65814945680177E-07,-1.71909196069464E-05,1.0546875,0,0
2.31004733564077E-07,-1.68316892086295E-05,1.0546875,0,0
1.4036742186363E-06,-1.54039589688182E-05,1.0546875,0,0
2.88708088191925E-06,-1.78902919287793E-05,1.0546875,0,0
3.21725269714079E-06,-1.86194538400741E-05,1.0546875,0,0
3.13033228849235E-06,-1.89223082998069E-05,1.0546875,0,0
3.78187269234331E-06,-1.91256312973564E-05,1.0546875,0,0
3.00351234727714E-06,-1.87241912499303E-05,1.0546875,0,0
1.8824097196557E-06,-1.85084190889029E-05,1.0546875,0,0
1.6598522734057E-06,-1.59604205691721E-05,1.0546875,0,0
1.82468784259981E-06,-1.42647013490205E-05,1.0546875,0,0
2.30031400860753E-06,-1.24309153761715E-05,1.0546875,0,0
3.38928930432303E-06,-1.49605330079794E-05,1.0546875,0,0
4.31986063631484E-06,-1.71009105542907E-05,1.0546875,0,0
3.73812554244068E-06,-1.99111709662247E-05,1.0546875,0,0
2.57058741226501E-06,-2.30733512580628E-05,1.0546875,0,0
2.41527732214308E-06,-2.90385887637967E-05,1.0546875,0,0
3.64658149010211E-06,-3.15663710352965E-05,1.0546875,0,0
3.7745553527202E-06,-2.88210540020373E-05,1.0546875,0,0
3.03461138173589E-06,-2.25860549107892E-05,1.0546875,0,0
2.58493741966959E-06,-1.71657156897709E-05,1.0546875,0,0
3.10552059090696E-06,-1.49192301250878E-05,1.0546875,0,0
3.55326437784242E-06,-1.67069174494827E-05,1.0546875,0,0
2.30706905313127E-06,-1.55314774019644E-05,1.0546875,0,0
2.11394171856227E-06,-2.17853357753484E-05,1.0546875,0,0
-2.30652418053978E-07,-1.55597881530412E-05,1.0546875,0,0
2.71446992883284E-07,-1.79579583345912E-05,1.0546875,0,0
-2.01249434894635E-07,-1.43346351251239E-05,1.0546875,0,0
1.41338588832696E-07,-1.75856748683145E-05,1.0546875,0,0
8.65843048813986E-07,-1.80773095053155E-05,1.0546875,0,0
2.88639944301394E-06,-2.0651423255913E-05,1.0546875,0,0
4.31769012720906E-06,-1.99982132471632E-05,1.0546875,0,0
5.528111159947E-06,-1.96662658709101E-05,1.0546875,0,0
6.35220931144431E-06,-1.91200069821207E-05,1.0546875,0,0
6.73733984513092E-06,-1.77517413249006E-05,1.0546875,0,0
7.19493027645512E-06,-1.79955241037533E-05,1.0546875,0,0
6.85985105519649E-06,-1.76283938344568E-05,1.0546875,0,0
5.70909787711571E-06,-1.9064227672061E-05,1.0546875,0,0
3.56503483089909E-06,-1.78291375050321E-05,1.0546875,0,0
2.88664568870445E-06,-1.81426912604366E-05,1.0546875,0,0
3.68924111171509E-06,-1.70999373949599E-05,1.0546875,0,0
4.83446547150379E-06,-1.6808220607345E-05,1.0546875,0,0
4.57811620435677E-06,-1.45044386954396E-05,1.0546875,0,0
4.31215539720142E-06,-1.48112849274185E-05,1.0546875,0,0
4.46209742221981E-06,-1.43729103001533E-05,1.0546875,0,0
4.5868232518842E-06,-1.43314273373107E-05,1.0546875,0,0
4.5111846702639E-06,-1.32585400933749E-05,1.0546875,0,0
4.75074239147943E-06,-1.13787864393089E-05,1.0546875,0,0
5.11984399054199E-06,-1.04204291346832E-05,1.0546875,0,0
5.11485495735542E-06,-1.09587817860302E-05,1.0546875,0,0
3.40306200996565E-06,-8.88209251570515E-06,1.0546875,0,0
3.91800858778879E-06,-1.20191643873113E-05,1.0546875,0,0
1.2115676781832E-06,-7.71764280216303E-06,1.0546875,0,0
-7.0706437327317E-07,-1.1183158676431E-05,1.0546875,0,0
-3.2331458896806E-06,-1.34217780214385E-05,1.0546875,0,0
-1.34940864882083E-06,-1.62213236762909E-05,1.0546875,0,0
1.88810929557803E-07,-1.5060825717228E-05,1.0546875,0,0
2.41764246311504E-06,-1.68875430972548E-05,1.0546875,0,0
2.82209111901466E-06,-1.81802279257681E-05,1.0546875,0,0
2.466778141752E-06,-1.71792871697107E-05,1.0546875,0,0
1.53226335442014E-06,-1.51531412484474E-05,1.0546875,0,0
4.06928592155964E-07,-1.31697042888845E-05,1.0546875,0,0
1.04445712167944E-06,-1.35710843096604E-05,1.0546875,0,0
2.70861141871137E-06,-1.45114445331274E-05,1.0546875,0,0
4.89689728055964E-06,-1.62202595674898E-05,1.0546875,0,0
5.37459027327714E-06,-1.69839677255368E-05,1.0546875,0,0
4.80868857266614E-06,-1.91298458958045E-05,1.0546875,0,0
3.35822414854192E-06,-2.01524544536369E-05,1.0546875,0,0
3.63868048225413E-06,-2.05788946914254E-05,1.0546875,0,0
4.59813099951134E-06,-1.91307863133261E-05,1.0546875,0,0
5.95370602241019E-06,-1.80144779733382E-05,1.0546875,0,0
6.85030545355403E-06,-1.72309664776549E-05,1.0546875,0,0
6.38984511169838E-06,-1.81884006451583E-05,1.0546875,0,0
4.60060482510016E-06,-1.79172984644538E-05,1.0546875,0,0
4.0067598092719E-06,-1.68060996657005E-05,1.0546875,0,0
4.35333049608744E-06,-1.62462456501089E-05,1.0546875,0,0
6.29322903478169E-06,-1.52499778778292E-05,1.0546875,0,0
6.40213374936138E-06,-1.25255610328168E-05,1.0546875,0,0
8.43375073600328E-06,-1.87231526069809E-05,1.0546875,0,0
5.34941818841617E-06,-1.61719526658999E-05,1.0546875,0,0
5.71657210457488E-06,-2.05512551474385E-05,1.0546875,0,0
2.76306627711165E-06,-1.74570377566852E-05,1.0546875,0,0
2.83508052234538E-06,-1.68455771927256E-05,1.0546875,0,0
1.66285860814241E-06,-1.25201813716558E-05,1.0546875,0,0
1.89722914001322E-06,-1.2050546501996E-05,1.0546875,0,0
1.03914896953938E-06,-1.28905130623025E-05,1.0546875,0,0
1.14854026378453E-06,-1.42830349432188E-05,1.0546875,0,0
2.61116861111077E-06,-1.48767439895892E-05,1.0546875,0,0
3.68883002010989E-06,-1.39184776344337E-05,1.0546875,0,0
5.78548360863351E-06,-1.40862712214584E-05,1.0546875,0,0
6.89450234858668E-06,-1.26995209939196E-05,1.0546875,0,0
6.59599845675984E-06,-1.20789600259741E-05,1.0546875,0,0
3.88546004614909E-06,-1.01134519354673E-05,1.0546875,0,0
2.7923190373258E-06,-1.00258348538773E-05,1.0546875,0,0
2.37789731727389E-06,-1.04811842902564E-05,1.0546875,0,0
2.32424099522177E-06,-1.37599017762113E-05,1.0546875,0,0
1.40151416871959E-06,-1.57973572640913E-05,1.0546875,0,0
1.38815346417687E-06,-1.79095786734251E-05,1.0546875,0,0
4.72343231194827E-07,-1.87185250979383E-05,1.0546875,0,0
3.27120119436586E-07,-2.00174617930315E-05,1.0546875,0,0
1.2142852483521E-06,-2.02936207642779E-05,1.0546875,0,0
2.45348246608046E-06,-1.9120896467939E-05,1.0546875,0,0
2.93336279355572E-06,-1.71502470038831E-05,1.0546875,0,0
3.37174060405232E-06,-1.67694634001236E-05,1.0546875,0,0
3.41217173627228E-06,-1.44268506119261E-05,1.0546875,0,0
4.03969397666515E-06,-1.9595803678385E-05,1.0546875,0,0
2.55159693551832E-06,-1.252341644431E-05,1.0546875,0,0
4.77429239253979E-06,-1.41931250254856E-05,1.0546875,0,0
5.08395714859944E-06,-9.44672228797572E-06,1.0546875,0,0
4.63655351268244E-06,-1.08039794213255E-05,1.0546875,0,0
2.73054388344463E-06,-1.06480119939079E-05,1.0546875,0,0
2.29749525715306E-06,-1.23534837257466E-05,1.0546875,0,0
2.05290120902646E-06,-1.14255026346655E-05,1.0546875,0,0
3.10630571220827E-06,-1.22248511615908E-05,1.0546875,0,0
3.9525634747406E-06,-1.29575482787914E-05,1.0546875,0,0
3.02273338093073E-06,-1.23652262118412E-05,1.0546875,0,0
2.29833199227869E-06,-1.47931550600333E-05,1.0546875,0,0
1.69107431702287E-06,-1.81032937689452E-05,1.0546875,0,0
1.49963364037831E-06,-2.27292293857317E-05,1.0546875,0,0
1.4287339809016E-06,-2.39954206335824E-05,1.0546875,0,0
2.52930476563051E-06,-2.57139527093386E-05,1.0546875,0,0
2.96255302600912E-06,-2.55115683103213E-05,1.0546875,0,0
3.45870034834661E-06,-2.68285839410964E-05,1.0546875,0,0
3.81539666705066E-06,-2.70787313638721E-05,1.0546875,0,0
4.2007231968455E-06,-2.86287522612838E-05,1.0546875,0,0
3.53021414412069E-06,-2.74582853307948E-05,1.0546875,0,0
2.26056431529287E-06,-2.377085002081E-05,1.0546875,0,0
1.12512134364806E-06,-1.9613040421973E-05,1.0546875,0,0
2.18441186916607E-07,-1.87963305506855E-05,1.0546875,0,0
-1.54012440134466E-07,-1.85905137186637E-05,1.0546875,0,0
2.57387625879346E-07,-1.93722935364349E-05,1.0546875,0,0
2.13804778326221E-08,-1.79747949005105E-05,1.0546875,0,0
6.36792265140684E-07,-2.6196366889053E-05,1.0546875,0,0
1.48017511492071E-06,-1.85312965186313E-05,1.0546875,0,0
2.82159180642338E-06,-2.03231084014988E-05,1.0546875,0,0
4.86352064399398E-06,-1.62165852088947E-05,1.0546875,0,0
4.65371704194695E-06,-1.89999664144125E-05,1.0546875,0,0
2.6870920919464E-06,-1.7808781194617E-05,1.0546875,0,0
1.4241433063944E-06,-1.90168575500138E-05,1.0546875,0,0
2.26525571633829E-06,-1.86823890544474E-05,1.0546875,0,0
3.43667647939583E-06,-1.92944698937936E-05,1.0546875,0,0
4.03549893235322E-06,-2.01988004846498E-05,1.0546875,0,0
4.6136292439769E-06,-1.97586523427162E-05,1.0546875,0,0
6.39674999547424E-06,-1.98076359083643E-05,1.0546875,0,0
8.70528219820699E-06,-1.74717206391506E-05,1.0546875,0,0
9.34086710913107E-06,-1.58843340614112E-05,1.0546875,0,0
8.67800190462731E-06,-1.35850996230147E-05,1.0546875,0,0
8.28749489301117E-06,-1.52140328282258E-05,1.0546875,0,0
9.05029082787223E-06,-1.51294652823708E-05,1.0546875,0,0
8.90839510248043E-06,-1.57060621859273E-05,1.0546875,0,0
7.43018881621538E-06,-1.46245138239465E-05,1.0546875,0,0
5.80427831664565E-06,-1.53477922140155E-05,1.0546875,0,0
5.38810763828224E-06,-1.54471035784809E-05,1.0546875,0,0
4.95714721182594E-06,-1.64525681611849E-05,1.0546875,0,0
2.79725372820394E-06,-1.65924648172222E-05,1.0546875,0,0
8.13532778920489E-07,-1.85568223969312E-05,1.0546875,0,0
7.94549180227477E-07,-2.03034596779617E-05,1.0546875,0,0
2.06384606826759E-06,-2.07298198802164E-05,1.0546875,0,0
1.76492051195964E-06,-1.66121863003355E-05,1.0546875,0,0
2.6533120944805E-06,-2.24226314458065E-05,1.0546875,0,0
2.48090714194404E-06,-1.50134710565908E-05,1.0546875,0,0
1.89486149793083E-06,-1.96453438547906E-05,1.0546875,0,0
-1.06959896584158E-06,-1.8274127796758E-05,1.0546875,0,0
-1.7115805803769E-06,-2.19095709326211E-05,1.0546875,0,0
-4.94289395192027E-07,-1.96309538296191E-05,1.0546875,0,0
1.82005294391274E-06,-1.94951244338881E-05,1.0546875,0,0
2.54010001299321E-06,-1.87392943189479E-05,1.0546875,0,0
1.38723623877013E-06,-2.05022115551401E-05,1.0546875,0,0
3.90806548011824E-07,-2.2598327632295E-05,1.0546875,0,0
4.13320805137118E-07,-2.21850586967776E-05,1.0546875,0,0
1.48300827618186E-07,-2.17691049329005E-05,1.0546875,0,0
-5.85876875902613E-07,-2.006479735428E-05,1.0546875,0,0
2.06637906785545E-09,-2.03809377126163E-05,1.0546875,0,0
1.31218655496923E-06,-1.86173474503448E-05,1.0546875,0,0
2.03223794414953E-06,-1.86410197784426E-05,1.0546875,0,0
1.99325700123154E-06,-1.66264835570473E-05,1.0546875,0,0
1.67308849086112E-06,-1.60812578542391E-05,1.0546875,0,0
8.27085898436053E-07,-1.35537184178247E-05,1.0546875,0,0
6.39818040326645E-07,-1.26657769214944E-05,1.0546875,0,0
-1.71845798035974E-07,-1.14451913759694E-05,1.0546875,0,0
-6.59251270462846E-07,-1.20376726044924E-05,1.0546875,0,0
-4.13633785001366E-07,-1.38579716804088E-05,1.0546875,0,0
3.0682940632687E-07,-1.61948901222786E-05,1.0546875,0,0
1.21565562949399E-06,-1.59712399181444E-05,1.0546875,0,0
2.33418859352241E-06,-1.44011710290215E-05,1.0546875,0,0
3.4005709039775E-06,-1.28264427985414E-05,1.0546875,0,0
5.62888499189285E-06,-2.00009762920672E-05,1.0546875,0,0
4.19874459112179E-06,-1.5934831026243E-05,1.0546875,0,0
2.23730739890016E-06,-1.53426008182578E-05,1.0546875,0,0
-1.28875706195686E-06,-9.6135363492067E-06,1.0546875,0,0
-1.48802337207599E-06,-9.72258658293867E-06,1.0546875,0,0
-8.95795437827474E-07,-7.9357532740687E-06,1.0546875,0,0
-4.36432060268999E-07,-8.85522058524657E-06,1.0546875,0,0
-3.37195672273083E-07,-1.00286779343151E-05,1.0546875,0,0
-6.70210624775791E-08,-1.1549860573723E-05,1.0546875,0,0
-8.34554100492824E-07,-1.19827163871378E-05,1.0546875,0,0
-2.17149295167474E-06,-1.10152277557063E-05,1.0546875,0,0
-1.98098746295727E-06,-1.20268314276473E-05,1.0546875,0,0
-8.15804526155262E-07,-1.30824846564792E-05,1.0546875,0,0
1.0567989647825E-06,-1.42469434649684E-05,1.0546875,0,0
2.2128851924208E-06,-1.24694397527492E-05,1.0546875,0,0
2.91873288915667E-06,-1.13215855890303E-05,1.0546875,0,0
2.59034663940838E-06,-9.04688113223528E-06,1.0546875,0,0
2.36920163843024E-06,-9.12528594199102E-06,1.0546875,0,0
2.81661186818383E-06,-1.07467349153012E-05,1.0546875,0,0
4.56245652458165E-06,-1.38513505589799E-05,1.0546875,0,0
6.06016146775801E-06,-1.43828310683602E-05,1.0546875,0,0
6.27886947768275E-06,-1.51156264109886E-05,1.0546875,0,0
5.94692119193496E-06,-1.5749319572933E-05,1.0546875,0,0
6.92878484187531E-06,-1.6451171177323E-05,1.0546875,0,0
8.35283117339714E-06,-1.53680903167697E-05,1.0546875,0,0
7.97430038801394E-06,-1.47221835504752E-05,1.0546875,0,0
4.21752702095546E-06,-1.37527758852229E-05,1.0546875,0,0
6.13589600106934E-06,-2.28315402637236E-05,1.0546875,0,0
5.64146057513426E-06,-2.13135062949732E-05,1.0546875,0,0
7.8989196481416E-06,-2.37675612879684E-05,1.0546875,0,0
7.4249924182368E-06,-1.86898596439278E-05,1.0546875,0,0
8.51291224535089E-06,-1.77521742443787E-05,1.0546875,0,0
8.24168364488287E-06,-1.52748652908485E-05,1.0546875,0,0
8.169726243068E-06,-1.64148896146799E-05,1.0546875,0,0
7.44892122384044E-06,-1.67666421475587E-05,1.0546875,0,0
7.00505415807129E-06,-1.73630269273417E-05,1.0546875,0,0
6.93254241923569E-06,-1.8384958821116E-05,1.0546875,0,0
6.6420934672351E-06,-1.97274021047633E-05,1.0546875,0,0
6.79032655170886E-06,-2.1139709133422E-05,1.0546875,0,0
7.05994989402825E-06,-1.88083158718655E-05,1.0546875,0,0
7.72308794694254E-06,-1.71352585311979E-05,1.0546875,0,0
6.94222671882017E-06,-1.62807264132425E-05,1.0546875,0,0
5.21637230121996E-06,-1.80432725755963E-05,1.0546875,0,0
3.06960441776027E-06,-1.73490498127649E-05,1.0546875,0,0
2.69833822130749E-06,-1.73838780028746E-05,1.0546875,0,0
2.91066817226238E-06,-1.70518887898652E-05,1.0546875,0,0
3.62634750672441E-06,-1.79287180799292E-05,1.0546875,0,0
3.55861811840441E-06,-1.7438569557271E-05,1.0546875,0,0
2.51135384132795E-06,-1.66816553246463E-05,1.0546875,0,0
1.3489598131855E-06,-1.62539490702329E-05,1.0546875,0,0
2.53038683695195E-06,-1.64413395395968E-05,1.0546875,0,0
4.72739156975877E-06,-1.6362639144063E-05,1.0546875,0,0
5.56937175133498E-06,-1.69367958733346E-05,1.0546875,0,0
3.40195424541889E-06,-1.33462526719086E-05,1.0546875,0,0
3.78839081349724E-06,-1.94879230548395E-05,1.0546875,0,0
2.66331039711076E-06,-1.61046573339263E-05,1.0546875,0,0
5.12089127369109E-06,-2.10035304917255E-05,1.0546875,0,0
4.07990091844113E-06,-1.92311872524442E-05,1.0546875,0,0
3.46344495483208E-06,-1.96047712961445E-05,1.0546875,0,0
1.68956580637314E-06,-1.66887548402883E-05,1.0546875,0,0
6.4789179532454E-07,-1.89364818652393E-05,1.0546875,0,0
4.11122954346865E-07,-2.02981318579987E-05,1.0546875,0,0
9.66256152423739E-07,-2.20480433199555E-05,1.0546875,0,0
1.8182149688073E-06,-2.33062728511868E-05,1.0546875,0,0
2.9571458526334E-06,-2.21402515308E-05,1.0546875,0,0
4.00568660552381E-06,-2.152186971216E-05,1.0546875,0,0
3.3882729439938E-06,-2.01450493477751E-05,1.0546875,0,0
2.38318466472265E-06,-2.04882253456162E-05,1.0546875,0,0
1.73333148723032E-06,-1.96281762327999E-05,1.0546875,0,0
2.01390935217205E-06,-1.99690730369184E-05,1.0546875,0,0
2.15209024645446E-06,-1.69754712260328E-05,1.0546875,0,0
2.99815701509942E-06,-1.47993787322775E-05,1.0546875,0,0
3.1126062367548E-06,-1.3989256331115E-05,1.0546875,0,0
3.29183808389644E-06,-1.65742076205788E-05,1.0546875,0,0
3.61769639312115E-06,-1.84085947694257E-05,1.0546875,0,0
5.33475076736067E-06,-1.92475363292033E-05,1.0546875,0,0
6.57747659715824E-06,-1.86598499567481E-05,1.0546875,0,0
4.23580468122964E-06,-1.93761916307267E-05,1.0546875,0,0
9.00357065347634E-07,-1.93981595657533E-05,1.0546875,0,0
4.79379991702444E-07,-1.88994927157182E-05,1.0546875,0,0
9.68251356425753E-07,-1.64766061061528E-05,1.0546875,0,0
1.33851858663547E-06,-2.51217697950779E-05,1.0546875,0,0
1.80819301931479E-06,-2.13431540032616E-05,1.0546875,0,0
2.40018039221468E-06,-2.51805522566428E-05,1.0546875,0,0
1.66997347150755E-06,-2.09060399356531E-05,1.0546875,0,0
2.30107548304659E-06,-2.25664534809766E-05,1.0546875,0,0
2.97827000395046E-06,-2.03207309823483E-05,1.0546875,0,0
3.39936877935543E-06,-1.91152048500953E-05,1.0546875,0,0
4.130519755563E-06,-1.6588848666288E-05,1.0546875,0,0
5.27488009538502E-06,-1.67241705639753E-05,1.0546875,0,0
6.18495141679887E-06,-1.65408328030026E-05,1.0546875,0,0
6.50062793283723E-06,-1.43013885463006E-05,1.0546875,0,0
6.22790139459539E-06,-1.34387009893544E-05,1.0546875,0,0
5.07009690409177E-06,-1.2569158570841E-05,1.0546875,0,0
4.45201976617682E-06,-1.53029868670274E-05,1.0546875,0,0
3.97688563680276E-06,-1.68533715623198E-05,1.0546875,0,0
3.52049482899019E-06,-1.88009671546752E-05,1.0546875,0,0
2.96217717732361E-06,-1.7422351447749E-05,1.0546875,0,0
2.73315777121752E-06,-1.75461209437344E-05,1.0546875,0,0
2.29461966227973E-06,-1.67532343766652E-05,1.0546875,0,0
1.87841624210705E-06,-1.78867903741775E-05,1.0546875,0,0
1.55884526975569E-06,-1.85705994226737E-05,1.0546875,0,0
2.23629490392341E-06,-1.79605776793323E-05,1.0546875,0,0
3.64204856850847E-06,-1.50970445247367E-05,1.0546875,0,0
4.85665214000619E-06,-1.37448560053599E-05,1.0546875,0,0
6.30394833933678E-06,-1.32189661599114E-05,1.0546875,0,0
6.88504633217235E-06,-1.35525315272389E-05,1.0546875,0,0
4.75093293061946E-06,-1.13243577288813E-05,1.0546875,0,0
5.07770437252475E-06,-1.69588111020857E-05,1.0546875,0,0
1.14841111553687E-06,-1.49920379044488E-05,1.0546875,0,0
6.48514628664998E-07,-1.88257236004574E-05,1.0546875,0,0
-1.85249689366174E-06,-1.72445015778067E-05,1.0546875,0,0
-5.78411857077299E-07,-1.83344109245809E-05,1.0546875,0,0
3.21723092611137E-07,-1.44800160342129E-05,1.0546875,0,0
4.87721308672917E-07,-1.3164475603844E-05,1.0546875,0,0
-1.70306441305001E-06,-1.25188007586985E-05,1.0546875,0,0
-1.70464636539691E-06,-1.3462559763866E-05,1.0546875,0,0
-4.459105085175E-08,-1.51395970533486E-05,1.0546875,0,0
9.17394402222271E-07,-1.63013537530787E-05,1.0546875,0,0
1.07271830529498E-06,-1.83275351446355E-05,1.0546875,0,0
4.50928581585686E-07,-1.90125720109791E-05,1.0546875,0,0
6.68389191105234E-07,-2.03164254344301E-05,1.0546875,0,0
4.5565917616841E-07,-2.01049515453633E-05,1.0546875,0,0
1.43911825034593E-06,-2.08352412300883E-05,1.0546875,0,0
2.67558561972692E-06,-1.95387492567534E-05,1.0546875,0,0
4.76115519632003E-06,-1.86119432328269E-05,1.0546875,0,0
4.98256304126699E-06,-1.68485621543368E-05,1.0546875,0,0
4.65424818685278E-06,-1.65703404491069E-05,1.0546875,0,0
3.71243118024722E-06,-1.62589949468384E-05,1.0546875,0,0
3.30995453623473E-06,-1.67422003869433E-05,1.0546875,0,0
3.46534716300084E-06,-1.63848344527651E-05,1.0546875,0,0
4.95141466672067E-06,-1.65348010341404E-05,1.0546875,0,0
5.92867445448064E-06,-1.54808931256412E-05,1.0546875,0,0
6.41811448076623E-06,-1.32982504510437E-05,1.0546875,0,0
3.80396068067057E-06,-9.54223833105061E-06,1.0546875,0,0
3.71868782167439E-06,-1.49825445987517E-05,1.0546875,0,0
1.13125111056434E-06,-1.45832564157899E-05,1.0546875,0,0
2.81445136351977E-06,-1.84274740604451E-05,1.0546875,0,0
2.53376651926374E-06,-1.68609094544081E-05,1.0546875,0,0
3.77755509362032E-06,-1.84138516488019E-05,1.0546875,0,0
3.41079771715158E-06,-1.78051286638947E-05,1.0546875,0,0
3.32847253048385E-06,-1.94593030755641E-05,1.0546875,0,0
2.54467886406928E-06,-1.95779193745693E-05,1.0546875,0,0
2.45197247750184E-06,-1.95008451555623E-05,1.0546875,0,0
2.20147717300279E-06,-1.98509533220204E-05,1.0546875,0,0
1.37150743739767E-06,-1.96403798327083E-05,1.0546875,0,0
9.3045679250281E-07,-2.00037175090984E-05,1.0546875,0,0
1.07750940969709E-06,-2.00846916413866E-05,1.0546875,0,0
2.12866370929987E-06,-2.06017157324823E-05,1.0546875,0,0
2.1241653485049E-06,-1.8928434656118E-05,1.0546875,0,0
1.63114452789159E-06,-1.85678090929287E-05,1.0546875,0,0
5.1487415930751E-07,-1.80926090251887E-05,1.0546875,0,0
6.16319482560357E-07,-1.88188623724272E-05,1.0546875,0,0
5.21466404279636E-07,-1.90612026926829E-05,1.0546875,0,0
1.55125781020615E-06,-2.01031853066524E-05,1.0546875,0,0
3.41517693414062E-06,-1.87340665434022E-05,1.0546875,0,0
5.32222838955931E-06,-1.73632724909112E-05,1.0546875,0,0
5.94380344409728E-06,-1.69411650858819E-05,1.0546875,0,0
7.23927769286092E-06,-1.71208284882596E-05,1.0546875,0,0
8.58490238897502E-06,-1.5725285265944E-05,1.0546875,0,0
8.53593701322097E-06,-1.31176948343636E-05,1.0546875,0,0
4.7611906666134E-06,-1.10334904093179E-05,1.0546875,0,0
5.72656563235796E-06,-1.61929019668605E-05,1.0546875,0,0
3.88146145269275E-06,-1.1833922144433E-05,1.0546875,0,0
6.82660993334139E-06,-1.42597718877369E-05,1.0546875,0,0
6.87042302160989E-06,-1.27405464809272E-05,1.0546875,0,0
7.02093029758544E-06,-1.49308052641572E-05,1.0546875,0,0
4.57938403997105E-06,-1.67499747476541E-05,1.0546875,0,0
3.87146428693086E-06,-1.96790624613641E-05,1.0546875,0,0
4.43482258560834E-06,-1.98820598598104E-05,1.0546875,0,0
5.81980202696286E-06,-1.99484329641564E-05,1.0546875,0,0
7.02269744579098E-06,-1.8627782992553E-05,1.0546875,0,0
7.99915324023459E-06,-1.52465845530969E-05,1.0546875,0,0
7.95797404862242E-06,-1.43839661177481E-05,1.0546875,0,0
6.66777623337111E-06,-1.56110618263483E-05,1.0546875,0,0
6.29732630841318E-06,-1.83933807420544E-05,1.0546875,0,0
5.21968331668177E-06,-1.96589371626033E-05,1.0546875,0,0
3.19462765219214E-06,-2.24335126404185E-05,1.0546875,0,0
6.83285350078222E-07,-2.30892019317253E-05,1.0546875,0,0
1.89695765584474E-06,-2.23927436309168E-05,1.0546875,0,0
3.65383107236994E-06,-1.91682302101981E-05,1.0546875,0,0
3.7543445614574E-06,-1.73510343302041E-05,1.0546875,0,0
2.26010547521582E-06,-1.72065028891666E-05,1.0546875,0,0
1.38689654249902E-06,-1.88108897418715E-05,1.0546875,0,0
1.42297631100519E-06,-1.9938708646805E-05,1.0546875,0,0
2.17353272091714E-06,-2.0749006580445E-05,1.0546875,0,0
1.82569635853724E-06,-2.0377605324029E-05,1.0546875,0,0
2.88810156234831E-06,-1.96394394151866E-05,1.0546875,0,0
4.22752009399119E-06,-1.44146806633216E-05,1.0546875,0,0
6.38546407571994E-06,-1.85577373486012E-05,1.0546875,0,0
5.28008786204737E-06,-1.16140190584701E-05,1.0546875,0,0
6.07689617027063E-06,-1.51682970681577E-05,1.0546875,0,0
4.24090649175923E-06,-1.16498540592147E-05,1.0546875,0,0
3.65497726306785E-06,-1.44299046951346E-05,1.0546875,0,0
3.46063075085112E-06,-1.31079850689275E-05,1.0546875,0,0
4.80494873045245E-06,-1.34724878080306E-05,1.0546875,0,0
4.35373294749297E-06,-1.29984282466467E-05,1.0546875,0,0
2.38272832575603E-06,-1.35873106046347E-05,1.0546875,0,0
1.90744049177738E-06,-1.39583762575057E-05,1.0546875,0,0
3.09500683215447E-06,-1.24832222354598E-05,1.0546875,0,0
4.67935342385317E-06,-1.1807063856395E-05,1.0546875,0,0
4.50222387371468E-06,-1.03785514511401E-05,1.0546875,0,0
3.95273946196539E-06,-1.14496479000081E-05,1.0546875,0,0
3.23737981489103E-06,-1.22154424389009E-05,1.0546875,0,0
2.86141835204035E-06,-1.4878803085594E-05,1.0546875,0,0
1.61022057909577E-06,-1.44925606946344E-05,1.0546875,0,0
5.31135128767346E-07,-1.44658606586745E-05,1.0546875,0,0
-1.93394864567153E-08,-1.40421425385284E-05,1.0546875,0,0
5.6562441841379E-07,-1.75517907337053E-05,1.0546875,0,0
1.2335626706772E-06,-2.11416245292639E-05,1.0546875,0,0
2.16508306039032E-06,-2.35302759392653E-05,1.0546875,0,0
2.12180634662218E-06,-2.31138874369208E-05,1.0546875,0,0
1.63828076438222E-06,-2.29653542191954E-05,1.0546875,0,0
1.97636586563021E-06,-2.39391629293095E-05,1.0546875,0,0
1.44301543514302E-06,-2.56623734458117E-05,1.0546875,0,0
-6.65643426600582E-07,-1.94502135855146E-05,1.0546875,0,0
-5.86247836054099E-07,-2.50626380875474E-05,1.0546875,0,0
6.05627235472639E-07,-1.63672029884765E-05,1.0546875,0,0
-7.49802921973242E-08,-2.15918080357369E-05,1.0546875,0,0
-1.48524713949882E-06,-1.61202842718922E-05,1.0546875,0,0
-1.6902495190152E-06,-1.77445435838308E-05,1.0546875,0,0
-1.21946641229442E-06,-1.45750909723574E-05,1.0546875,0,0
-1.20729691843735E-06,-1.5978941519279E-05,1.0546875,0,0
-5.78020205921348E-07,-1.46698985190596E-05,1.0546875,0,0
4.19064036805139E-07,-1.38549539769883E-05,1.0546875,0,0
1.27008308936638E-06,-1.40558522616629E-05,1.0546875,0,0
1.46141258028365E-06,-1.39083513204241E-05,1.0546875,0,0
1.14411864160502E-06,-1.62230644491501E-05,1.0546875,0,0
1.20208630960406E-06,-1.64687844517175E-05,1.40625,0,0
1.41464829539473E-06,-1.74824272107799E-05,1.40625,0,0
2.09259110306448E-06,-1.48192439155537E-05,1.40625,0,0
3.04719378618756E-06,-1.48853059727116E-05,1.40625,0,0
4.33757713835803E-06,-1.33352714328794E-05,1.40625,0,0
4.7859152800811E-06,-1.42643984872848E-05,1.40625,0,0
4.38674123870442E-06,-1.29244526760885E-05,1.40625,0,0
3.76396178580762E-06,-1.27701296150917E-05,1.40625,0,0
3.2791090234241E-06,-1.28608999148128E-05,1.40625,0,0
3.38826794177294E-06,-1.57657414092682E-05,1.40625,0,0
3.0708865779161E-06,-1.73027983692009E-05,1.40625,0,0
2.71203862212133E-06,-1.70841067301808E-05,1.40625,0,0
4.63103788206354E-06,-1.56470632646233E-05,1.40625,0,0
6.5498588810442E-06,-1.55322813952807E-05,1.40625,0,0
5.5713271649438E-06,-1.43321485666092E-05,1.40625,0,0
6.89129501552088E-06,-2.10696452995762E-05,1.40625,0,0
3.37353390023054E-06,-1.69238082889933E-05,1.40625,0,0
5.00157375427079E-06,-2.05134474526858E-05,1.40625,0,0
4.7196886043821E-06,-1.81715386133874E-05,1.40625,0,0
5.61453589398297E-06,-2.06565910048084E-05,1.40625,0,0
5.06212927575689E-06,-1.90397422556998E-05,1.40625,0,0
6.43760904495139E-06,-1.89163347386057E-05,1.40625,0,0
7.87006047175964E-06,-1.72323234437499E-05,1.40625,0,0
8.20319564809324E-06,-1.49291572597576E-05,1.40625,0,0
6.5363656176487E-06,-1.22631163321785E-05,1.40625,0,0
4.65919765701983E-06,-1.02632693597116E-05,1.40625,0,0
4.89014792037779E-06,-1.15405109681888E-05,1.40625,0,0
5.4696815823263E-06,-1.24545631479123E-05,1.40625,0,0
6.23076539341128E-06,-1.47937771544093E-05,1.40625,0,0
5.24526831213734E-06,-1.48000217450317E-05,1.40625,0,0
4.27563827543054E-06,-1.64471857715398E-05,1.40625,0,0
2.78014545074257E-06,-1.66847075888654E-05,1.40625,0,0
2.3874415546743E-06,-1.71197461895645E-05,1.40625,0,0
2.40233657677891E-06,-1.61961306730518E-05,1.40625,0,0
3.09926781483227E-06,-1.7345737433061E-05,1.40625,0,0
2.51316714638961E-06,-1.84771088242996E-05,1.40625,0,0
2.1160340111237E-06,-2.16633670788724E-05,1.40625,0,0
9.35620391828706E-07,-2.46348627115367E-05,1.40625,0,0
2.44418867367813E-08,-2.51508827204816E-05,1.40625,0,0
8.62895319642121E-07,-2.19996927626198E-05,1.40625,0,0
2.30325872507819E-06,-1.76227786141681E-05,1.40625,0,0
2.58934142038925E-06,-1.26718077808619E-05,1.40625,0,0
1.30533908304642E-06,-2.02246446860954E-05,1.40625,0,0
-2.14592864722363E-06,-2.06367312785005E-05,1.40625,0,0
-5.07150787143473E-07,-2.77584513241891E-05,1.40625,0,0
1.00778231626464E-06,-2.79728756140685E-05,1.40625,0,0
2.59170064964565E-06,-2.94978908641497E-05,1.40625,0,0
2.68914072876214E-06,-2.3662169041927E-05,1.40625,0,0
2.83663280242763E-06,-1.95431057363749E-05,1.40625,0,0
8.90994897417841E-07,-1.58729126269463E-05,1.40625,0,0
-9.98757627712621E-07,-1.42111366585596E-05,1.40625,0,0
-1.10074302028806E-06,-1.41690898090019E-05,1.40625,0,0
6.36345163229635E-08,-1.40479232868529E-05,1.40625,0,0
2.12117242881504E-06,-1.42447324833483E-05,1.40625,0,0
2.69508518613293E-06,-1.37005854412564E-05,1.40625,0,0
2.04632851819042E-06,-1.57191298058024E-05,1.40625,0,0
9.27571932152205E-07,-1.64187222253531E-05,1.40625,0,0
1.75327488705079E-06,-1.72989057318773E-05,1.40625,0,0
2.99966518468864E-06,-1.63198019436095E-05,1.40625,0,0
3.32359854837705E-06,-1.72526015376206E-05,1.40625,0,0
2.2571437057195E-06,-1.76209832716268E-05,1.40625,0,0
2.0177292299195E-06,-1.80313745659078E-05,1.40625,0,0
1.83289193955716E-06,-1.67320758919232E-05,1.40625,0,0
2.20821607399557E-06,-1.662641443545E-05,1.40625,0,0
4.22773246100405E-06,-1.64889497682452E-05,1.40625,0,0
6.88148566041491E-06,-1.64866396517027E-05,1.40625,0,0
8.2481110439403E-06,-1.45560279634083E-05,1.40625,0,0
7.90276226325659E-06,-1.37085671667592E-05,1.40625,0,0
5.03737737744814E-06,-1.34878000608296E-05,1.40625,0,0
5.71362079426763E-06,-2.0330497136456E-05,1.40625,0,0
2.85126384369505E-06,-1.74705382960383E-05,1.40625,0,0
4.99769612360979E-06,-2.14500869333278E-05,1.40625,0,0
5.03612545799115E-06,-1.79101207322674E-05,1.40625,0,0
6.74969714964391E-06,-1.90758364624344E-05,1.40625,0,0
5.7827605814964E-06,-1.91252165677724E-05,1.40625,0,0
3.84969189326512E-06,-2.04889984161127E-05,1.40625,0,0
9.77917466116196E-07,-1.84329073817935E-05,1.40625,0,0
5.08658558828756E-07,-1.73489806911675E-05,1.40625,0,0
1.71514807334461E-06,-1.80776169145247E-05,1.40625,0,0
1.92887910088757E-06,-1.77393940248294E-05,1.40625,0,0
1.26760301100148E-06,-1.75165896507679E-05,1.40625,0,0
-2.07220082870663E-07,-1.74721644725651E-05,1.40625,0,0
-1.19348828775401E-06,-1.91627332242206E-05,1.40625,0,0
-2.2622120923188E-06,-1.80019942490617E-05,1.40625,0,0
-1.32231707539177E-06,-1.83653573913034E-05,1.40625,0,0
6.97248436765108E-09,-1.80515307874884E-05,1.40625,0,0
1.85999329005426E-06,-1.84938890015474E-05,1.40625,0,0
2.16866214941547E-06,-1.70117400557501E-05,1.40625,0,0
1.73443004314322E-06,-1.56947644427419E-05,1.40625,0,0
8.21255184746406E-07,-1.40445508804987E-05,1.40625,0,0
7.0857328182683E-07,-1.50552823470207E-05,1.40625,0,0
1.02995750239643E-06,-1.60659292305354E-05,1.40625,0,0
2.52046697823971E-06,-1.62348405865487E-05,1.40625,0,0
3.4400859476591E-06,-1.43817451316863E-05,1.40625,0,0
3.28046803588222E-06,-1.45845970109804E-05,1.40625,0,0
1.51029098560684E-06,-1.40297579491744E-05,1.40625,0,0
2.11743713407486E-06,-1.91344970517093E-05,1.40625,0,0
2.64447135123191E-06,-1.31704373416142E-05,1.40625,0,0
2.79107007372659E-06,-1.75291152118007E-05,1.40625,0,0
4.21575464315538E-07,-1.52458123920951E-05,1.40625,0,0
9.06978073089704E-07,-1.61088701133849E-05,1.40625,0,0
2.92640629595553E-06,-1.46894526551478E-05,1.40625,0,0
4.70943859909312E-06,-1.61043717525899E-05,1.40625,0,0
5.3072935770615E-06,-1.56359219545266E-05,1.40625,0,0
5.46460751138511E-06,-1.55501838889904E-05,1.40625,0,0
4.42680811829632E-06,-1.75108507391997E-05,1.40625,0,0
3.45646958521684E-06,-1.92674069694476E-05,1.40625,0,0
4.12748022426968E-06,-2.0331042833277E-05,1.40625,0,0
4.5576839511341E-06,-1.98799698409857E-05,1.40625,0,0
4.07822426495841E-06,-2.11961578315822E-05,1.40625,0,0
2.84916700366011E-06,-2.2099300622358E-05,1.40625,0,0
3.14129601974855E-06,-2.43081140069989E-05,1.40625,0,0
5.17293983648415E-06,-2.35022980632493E-05,1.40625,0,0
6.78279366184142E-06,-2.33780883718282E-05,1.40625,0,0
5.31222622157657E-06,-2.1951336748316E-05,1.40625,0,0
3.67802817891061E-06,-2.21083355427254E-05,1.40625,0,0
4.00319549953565E-06,-2.24795530812116E-05,1.40625,0,0
5.41151302968501E-06,-2.32424918067409E-05,1.40625,0,0
6.82002064422704E-06,-2.1558727894444E-05,1.40625,0,0
6.77769594403799E-06,-2.03179242816987E-05,1.40625,0,0
6.7271198531671E-06,-2.05724845727673E-05,1.40625,0,0
7.74120508140186E-06,-1.99364567379234E-05,1.40625,0,0
7.2177726906375E-06,-1.43025145007414E-05,1.40625,0,0
1.10423625301337E-05,-1.92597090062918E-05,1.40625,0,0
9.97825281956466E-06,-1.34607107611373E-05,1.40625,0,0
1.22547044156818E-05,-1.8044731405098E-05,1.40625,0,0
8.32346540846629E-06,-1.54588960867841E-05,1.40625,0,0
6.21729532213067E-06,-1.56464739120565E-05,1.40625,0,0
5.36502739123534E-06,-1.19045334940893E-05,1.40625,0,0
6.47690148980473E-06,-1.10095061245374E-05,1.40625,0,0
6.01553347223671E-06,-9.67962932918454E-06,1.40625,0,0
4.27304257755168E-06,-1.01142850326141E-05,1.40625,0,0
1.31803619751736E-06,-1.08048798210802E-05,1.40625,0,0
-5.93144534377643E-07,-1.2065953342244E-05,1.40625,0,0
7.6529983061846E-07,-1.51534341057413E-05,1.40625,0,0
1.12721056666487E-06,-1.67429752764292E-05,1.40625,0,0
3.2481563039255E-07,-1.86201286851428E-05,1.40625,0,0
-1.10370024231088E-06,-1.73076732608024E-05,1.40625,0,0
-6.3766719904379E-07,-1.72727632161696E-05,1.40625,0,0
-5.63357332339365E-07,-1.64327320817392E-05,1.40625,0,0
3.37418583740146E-07,-1.71437113749562E-05,1.40625,0,0
9.74638396655791E-07,-1.52958255057456E-05,1.40625,0,0
3.40360202244483E-06,-1.53458513523219E-05,1.40625,0,0
5.85708266953588E-06,-1.56234254973242E-05,1.40625,0,0
6.31326520306175E-06,-1.56514124682872E-05,1.40625,0,0
5.8199498198519E-06,-1.41088812597445E-05,1.40625,0,0
5.9172880355618E-06,-1.34568535941071E-05,1.40625,0,0
4.5550441427622E-06,-1.5128348422877E-05,1.40625,0,0
3.45145508617861E-06,-1.75981458596652E-05,1.40625,0,0
3.27683119394351E-06,-1.37630486278795E-05,1.40625,0,0
4.89798412672826E-06,-1.76911526068579E-05,1.40625,0,0
4.05727905672393E-06,-1.03391912489315E-05,1.40625,0,0
4.39933501183987E-06,-1.36023500090232E-05,1.40625,0,0
3.52393794855743E-06,-1.24761027109344E-05,1.40625,0,0
4.65921903014532E-06,-1.61598345584935E-05,1.40625,0,0
3.65388200407324E-06,-1.48436611198122E-05,1.40625,0,0
1.90138086963998E-06,-1.51479980559088E-05,1.40625,0,0
1.76113189809257E-07,-1.47691716847476E-05,1.40625,0,0
-9.52146137933596E-07,-1.55425259436015E-05,1.40625,0,0
-4.17537847852145E-07,-1.63029162649764E-05,1.40625,0,0
3.97367401205884E-08,-1.56881815200904E-05,1.40625,0,0
-9.26696770875424E-07,-1.62403666763566E-05,1.40625,0,0
-2.53601501754019E-06,-1.6832736946526E-05,1.40625,0,0
-2.31169315156876E-06,-1.86308134288993E-05,1.40625,0,0
-1.11890881271393E-06,-1.72372438100865E-05,1.40625,0,0
7.55772248339781E-07,-1.78978643816663E-05,1.40625,0,0
1.93319851859997E-06,-1.89448219316546E-05,1.40625,0,0
2.39355244957551E-06,-2.17992328543914E-05,1.40625,0,0
1.80613722022827E-06,-2.23321749217575E-05,1.40625,0,0
2.22467906496604E-06,-2.27225573325995E-05,1.40625,0,0
4.26974747824715E-06,-2.16817879845621E-05,1.40625,0,0
6.06984031037427E-06,-2.25636340474011E-05,1.40625,0,0
6.17433170191362E-06,-2.27092823479325E-05,1.40625,0,0
5.96451263845665E-06,-2.10876314667985E-05,1.40625,0,0
5.00758551424951E-06,-1.90291757462546E-05,1.40625,0,0
4.44859369963524E-06,-1.84385044121882E-05,1.40625,0,0
4.08343612434692E-06,-1.48449880725821E-05,1.40625,0,0
5.41148801858071E-06,-2.02986775548197E-05,1.40625,0,0
4.10503298553522E-06,-1.36714452310116E-05,1.40625,0,0
5.5564541980857E-06,-1.66122354130493E-05,1.40625,0,0
5.21142692377907E-06,-1.26682016343693E-05,1.40625,0,0
6.46877606413909E-06,-1.43917477544164E-05,1.40625,0,0
5.98637188886642E-06,-1.26651038954151E-05,1.40625,0,0
7.15202395440429E-06,-1.35446771309944E-05,1.40625,0,0
8.54186237120302E-06,-1.47595474118134E-05,1.40625,0,0
9.51987567532342E-06,-1.59295868797926E-05,1.40625,0,0
9.61740533966804E-06,-1.67344405781478E-05,1.40625,0,0
8.5746305558132E-06,-1.6111291188281E-05,1.40625,0,0
7.07645585862338E-06,-1.50510768435197E-05,1.40625,0,0
5.4738120525144E-06,-1.28992651298176E-05,1.40625,0,0
5.3369190027297E-06,-1.3768027201877E-05,1.40625,0,0
5.129593773745E-06,-1.3576834135165E-05,1.40625,0,0
5.4395432016463E-06,-1.51554040712654E-05,1.40625,0,0
4.63917149318149E-06,-1.5437710317201E-05,1.40625,0,0
3.74947103409795E-06,-1.77488564077066E-05,1.40625,0,0
2.94016626867233E-06,-1.84253003681079E-05,1.40625,0,0
2.72932607003895E-06,-1.76532867044443E-05,1.40625,0,0
2.05061996894074E-06,-1.56546684593195E-05,1.40625,0,0
1.93628306988103E-06,-1.62659835041268E-05,1.40625,0,0
1.8013374756265E-06,-1.73759635799797E-05,1.40625,0,0
1.95801248992211E-06,-1.8831766283256E-05,1.40625,0,0
1.22487335829646E-06,-1.92795341718011E-05,1.40625,0,0
7.93027439272009E-08,-1.94363692571642E-05,1.40625,0,0
-3.92084217537558E-07,-1.60720246640267E-05,1.40625,0,0
-3.33304001287615E-07,-2.21699501707917E-05,1.40625,0,0
-1.7240162719645E-07,-1.58244038175326E-05,1.40625,0,0
-1.42534156566398E-06,-1.93552914424799E-05,1.40625,0,0
-2.31877834266925E-06,-1.46660986501956E-05,1.40625,0,0
-2.55290842687828E-06,-1.51433941937285E-05,1.40625,0,0
-1.64182904427435E-06,-1.12764510049601E-05,1.40625,0,0
5.27163820152055E-07,-1.17174859042279E-05,1.40625,0,0
2.09095901482215E-06,-1.32043405756122E-05,1.40625,0,0
1.31475326270447E-06,-1.45920321301674E-05,1.40625,0,0
-2.3179897823411E-07,-1.59215251187561E-05,1.40625,0,0
-8.32989826449193E-07,-1.67444522958249E-05,1.40625,0,0
-1.64359889254229E-07,-1.73816824826645E-05,1.40625,0,0
4.68618679860811E-07,-1.55172128870618E-05,1.40625,0,0
-2.94931254529729E-07,-1.60790641530184E-05,1.40625,0,0
-4.2982998138541E-07,-1.52516877278686E-05,1.40625,0,0
1.25690132790623E-06,-1.48965109474375E-05,1.40625,0,0
3.01479667541571E-06,-1.28134042824968E-05,1.40625,0,0
2.95284166895726E-06,-1.45901776704704E-05,1.40625,0,0
2.34801086662628E-06,-1.50555470099789E-05,1.40625,0,0
2.42856731347274E-06,-1.44581581480452E-05,1.40625,0,0
1.50766754813958E-06,-1.20189415611094E-05,1.40625,0,0
-6.56994757264329E-07,-1.15926641228725E-05,1.40625,0,0
-8.27260464575375E-07,-1.27272460304084E-05,1.40625,0,0
5.02702448557102E-07,-1.59982973855222E-05,1.40625,0,0
1.14591159672273E-06,-1.91703657037579E-05,1.40625,0,0
1.49581558162026E-06,-1.93829346244456E-05,1.40625,0,0
2.65823956624445E-07,-1.43088072945829E-05,1.40625,0,0
-5.25962263964175E-07,-1.89900856639724E-05,1.40625,0,0
-1.17591685011575E-06,-1.23264389912947E-05,1.40625,0,0
5.9639205574058E-07,-1.51489994095755E-05,1.40625,0,0
1.93390701497265E-06,-1.1371604159649E-05,1.40625,0,0
1.76223852577095E-06,-1.12593997982913E-05,1.40625,0,0
5.83984956392669E-07,-7.74695945437998E-06,1.40625,0,0
4.28779969752213E-07,-9.96796552499291E-06,1.40625,0,0
1.41213297411014E-06,-1.27813482322381E-05,1.40625,0,0
2.21444065573451E-06,-1.59397386596538E-05,1.40625,0,0
3.48794037563493E-06,-1.80199876922416E-05,1.40625,0,0
4.6331965677382E-06,-1.8595694200485E-05,1.40625,0,0
5.00810756420833E-06,-1.92035840882454E-05,1.40625,0,0
5.2095665523666E-06,-1.71879510162398E-05,1.40625,0,0
5.20175308338366E-06,-1.56075657287147E-05,1.40625,0,0
5.50491495232563E-06,-1.1669118066493E-05,1.40625,0,0
6.07193760515656E-06,-1.06736570160137E-05,1.40625,0,0
6.06924868407077E-06,-1.02860285551287E-05,1.40625,0,0
5.13978284288896E-06,-1.38344103106647E-05,1.40625,0,0
3.25911810250545E-06,-1.73372882272815E-05,1.40625,0,0
1.95197958419158E-06,-2.11361129913712E-05,1.40625,0,0
2.2690601326758E-06,-2.21380305447383E-05,1.40625,0,0
3.08402331938851E-06,-2.20950714719947E-05,3.1640625,0,0
3.55770725946059E-06,-2.07942612178158E-05,3.1640625,0,0
3.09746292259661E-06,-2.01985967578366E-05,3.1640625,0,0
2.32864476856776E-06,-2.04652860702481E-05,3.1640625,0,0
2.216974962721E-06,-2.10514444916043E-05,3.1640625,0,0
1.63154493293405E-06,-1.67568941833451E-05,3.1640625,0,0
3.772002628466E-06,-2.43181129917502E-05,3.1640625,0,0
4.87763054479728E-06,-2.1445161110023E-05,3.1640625,0,0
5.72905582885141E-06,-2.8400871087797E-05,3.1640625,0,0
4.82347059005406E-06,-2.31131780310534E-05,3.1640625,0,0
3.79683547180321E-06,-2.29653687711107E-05,3.1640625,0,0
4.55767258245032E-06,-2.06356580747524E-05,3.1640625,0,0
6.76442550684442E-06,-2.06620534299873E-05,3.1640625,0,0
7.49603213989758E-06,-1.92447514564265E-05,3.1640625,0,0
5.79126617594738E-06,-1.89862603292568E-05,3.1640625,0,0
3.60653257303056E-06,-1.82195381057682E-05,3.1640625,0,0
2.93582456833974E-06,-1.60364397743251E-05,3.1640625,0,0
4.24383097197278E-06,-1.54034314618912E-05,3.1640625,0,0
7.18238197805476E-06,-1.36819498948171E-05,3.1640625,0,0
9.20769161893986E-06,-1.43297929753317E-05,3.1640625,0,0
8.27493568067439E-06,-1.32466348077287E-05,3.1640625,0,0
6.19274032942485E-06,-1.41506361615029E-05,3.1640625,0,0
5.69532585359411E-06,-1.38076748044114E-05,3.1640625,0,0
6.88402542436961E-06,-1.58054754137993E-05,3.1640625,0,0
6.97866880727815E-06,-1.71701212821063E-05,3.1640625,0,0
6.07617857895093E-06,-2.02593455469469E-05,3.1640625,0,0
5.77145146962721E-06,-2.19918238144601E-05,3.1640625,0,0
5.56223039893666E-06,-2.39090531977126E-05,3.1640625,0,0
5.22485561305075E-06,-2.38824268308235E-05,3.1640625,0,0
5.47797162653296E-06,-2.3487782527809E-05,3.1640625,0,0
5.33930096935364E-06,-2.39178789342986E-05,3.1640625,0,0
5.9874673752347E-06,-2.49276017711964E-05,3.1640625,0,0
5.15496594744036E-06,-1.94654257938964E-05,3.1640625,0,0
6.1885325521871E-06,-2.50459852395579E-05,3.1640625,0,0
3.36268362843839E-06,-1.41068658194854E-05,3.1640625,0,0
6.22669631411554E-06,-1.64784978551324E-05,3.1640625,0,0
5.96024483456858E-06,-1.05626768345246E-05,3.1640625,0,0
5.84444069318124E-06,-1.43108081829268E-05,3.1640625,0,0
4.0991008063429E-06,-1.43382139867754E-05,3.1640625,0,0
4.21808726969175E-06,-1.60343843162991E-05,3.1640625,0,0
5.45887724001659E-06,-1.48883354995633E-05,3.1640625,0,0
6.58979206491495E-06,-1.474857890571E-05,3.1640625,0,0
6.42635313852225E-06,-1.5670226275688E-05,3.1640625,0,0
5.18981505592819E-06,-1.51245521919918E-05,3.1640625,0,0
3.75601052837737E-06,-1.63774784596171E-05,3.1640625,0,0
1.72196109815559E-06,-1.571105531184E-05,3.1640625,0,0
1.85009025699401E-06,-1.59707888087723E-05,3.1640625,0,0
2.33981131714245E-06,-1.46962402141071E-05,3.1640625,0,0
2.45973296841839E-06,-1.69376307894709E-05,3.1640625,0,0
1.62967535288772E-06,-1.61036605277332E-05,3.1640625,0,0
1.54384019879217E-06,-1.61873649631161E-05,3.1640625,0,0
8.0970556837201E-07,-1.55804045789409E-05,3.1640625,0,0
2.41075952089886E-07,-1.66251084010582E-05,3.1640625,0,0
2.56966700362682E-07,-1.6157975551323E-05,3.1640625,0,0
8.64483638451929E-07,-1.75130298885051E-05,3.1640625,0,0
5.13037889504631E-07,-1.86304932867642E-05,3.1640625,0,0
7.52451057906001E-07,-1.87918594747316E-05,3.1640625,0,0
1.7750610368239E-06,-1.75316108652623E-05,3.1640625,0,0
2.9331999940041E-06,-1.64588727784576E-05,3.1640625,0,0
1.63953484388912E-06,-1.31064052766305E-05,3.1640625,0,0
8.7099181200756E-07,-1.91986910067499E-05,3.1640625,0,0
-7.05727131844469E-07,-1.57814829435665E-05,3.1640625,0,0
-1.33903315102657E-08,-1.91606213775231E-05,3.1640625,0,0
-3.44339355251577E-07,-1.71970114024589E-05,3.1640625,0,0
1.20783238344302E-06,-1.98596262634965E-05,3.1640625,0,0
1.92672132470761E-06,-1.87979949259898E-05,3.1640625,0,0
2.01330067284289E-06,-1.95003485714551E-05,3.1640625,0,0
1.7265659835175E-06,-1.80348542926367E-05,3.1640625,0,0
1.20919469281944E-06,-1.6823325495352E-05,3.1640625,0,0
2.39988906969302E-07,-1.60742238222156E-05,3.1640625,0,0
-5.52402411813091E-07,-1.48740582517348E-05,3.1640625,0,0
4.51007025503714E-07,-1.54351164383115E-05,3.1640625,0,0
2.25035637413384E-06,-1.59299124788959E-05,3.1640625,0,0
3.24244228977477E-06,-1.78321806743043E-05,3.1640625,0,0
3.07104778585199E-06,-1.81453815457644E-05,3.1640625,0,0
3.47557102031715E-06,-1.96562323253602E-05,3.1640625,0,0
4.37976177636301E-06,-1.98927627934609E-05,3.1640625,0,0
5.24613642483018E-06,-2.11744591069873E-05,3.1640625,0,0
4.79972140965401E-06,-2.0175262761768E-05,3.1640625,0,0
3.82259349862579E-06,-1.95309348782757E-05,3.1640625,0,0
3.34618630404293E-06,-1.75324312294833E-05,3.1640625,0,0
3.06632546198671E-06,-1.70824041560991E-05,3.1640625,0,0
1.55768975673709E-06,-1.86290890269447E-05,3.1640625,0,0
1.02754245290271E-06,-2.15158379432978E-05,3.1640625,0,0
1.5229953760354E-06,-2.16283460758859E-05,3.1640625,0,0
2.38785878536874E-06,-1.92598163266666E-05,3.1640625,0,0
2.86201475319103E-06,-1.34833117044764E-05,3.1640625,0,0
5.37636788067175E-06,-1.88912999874447E-05,3.1640625,0,0
5.51416087546386E-06,-1.52347902258043E-05,3.1640625,0,0
5.62029799766606E-06,-1.9867904484272E-05,3.1640625,0,0
3.90800823879545E-06,-1.54231238411739E-05,3.1640625,0,0
3.72399040315941E-06,-1.57047434186097E-05,3.1640625,0,0
4.10957409258117E-06,-1.49387733472395E-05,3.1640625,0,0
4.80878316011513E-06,-1.65282599482453E-05,3.1640625,0,0
5.15898364028544E-06,-1.4211855159374E-05,3.1640625,0,0
5.17369699082337E-06,-1.27385856103501E-05,3.1640625,0,0
4.55377676189528E-06,-1.42315884659183E-05,3.1640625,0,0
3.13464715873124E-06,-1.44901032399503E-05,3.1640625,0,0
2.72538727585925E-06,-1.59997889568331E-05,3.1640625,0,0
3.57821409124881E-06,-1.80050956259947E-05,3.1640625,0,0
4.4002736103721E-06,-2.09772679227171E-05,3.1640625,0,0
3.30678244608862E-06,-2.07264365599258E-05,3.1640625,0,0
2.46943159254442E-06,-2.14466399484081E-05,3.1640625,0,0
2.96162238555553E-06,-2.10725829674629E-05,3.1640625,0,0
4.14332635045866E-06,-2.19413905142574E-05,3.1640625,0,0
3.91653247788781E-06,-2.1117248252267E-05,3.1640625,0,0
2.93282482743962E-06,-2.0507502995315E-05,3.1640625,0,0
3.09419920085929E-06,-1.88642843568232E-05,3.1640625,0,0
4.64597997051897E-06,-1.85249155038036E-05,3.1640625,0,0
6.11811265116557E-06,-1.83815318450797E-05,3.1640625,0,0
6.19120874034707E-06,-1.81335399247473E-05,3.1640625,0,0
5.15736564921099E-06,-1.7599762941245E-05,3.1640625,0,0
3.15017018692743E-06,-1.85032331501134E-05,3.1640625,0,0
1.50349808336614E-06,-1.47065738929086E-05,3.1640625,0,0
2.78064339909179E-06,-2.07670473173494E-05,3.1640625,0,0
2.83490908259409E-06,-1.57376325660152E-05,3.1640625,0,0
2.77666254078213E-06,-1.91927156265592E-05,3.1640625,0,0
1.67434711784153E-06,-1.49986344695208E-05,3.1640625,0,0
4.03386081870849E-07,-1.74509423231939E-05,3.1640625,0,0
7.54183361095784E-07,-1.78830341610592E-05,3.1640625,0,0
3.75937861463171E-06,-1.99255755433114E-05,3.1640625,0,0
5.10678910359275E-06,-1.92024417629E-05,3.1640625,0,0
3.89273964174208E-06,-1.82430776476394E-05,3.1640625,0,0
3.23825634040986E-06,-1.72656473296229E-05,3.1640625,0,0
4.704711955128E-06,-1.58320599439321E-05,3.1640625,0,0
5.94543826082372E-06,-1.66536192409694E-05,3.1640625,0,0
5.9746694205387E-06,-1.76335306605324E-05,3.1640625,0,0
5.41681311005959E-06,-1.99056048586499E-05,3.1640625,0,0
4.29715328209568E-06,-1.93224059330532E-05,3.1640625,0,0
3.38736117555527E-06,-2.04431253223447E-05,3.1640625,0,0
3.21868424180138E-06,-2.07738212338882E-05,3.1640625,0,0
3.84331133318483E-06,-2.24224586418131E-05,3.1640625,0,0
4.49576555183739E-06,-2.12020731851226E-05,3.1640625,0,0
4.72492592962226E-06,-1.99649548449088E-05,3.1640625,0,0
3.93252639696584E-06,-1.82401508936891E-05,3.1640625,0,0
4.20389278588118E-06,-1.79912512976443E-05,3.1640625,0,0
5.45493048775825E-06,-1.78597019839799E-05,3.1640625,0,0
5.9533022067626E-06,-1.71116153069306E-05,3.1640625,0,0
4.6808800107101E-06,-1.46225893331575E-05,3.1640625,0,0
3.81281256522925E-06,-1.35073150886456E-05,3.1640625,0,0
3.12566521643021E-06,-1.15862358143204E-05,3.1640625,0,0
4.98301369589171E-06,-1.74873475771165E-05,3.1640625,0,0
3.64314041689795E-06,-1.48357448779279E-05,3.1640625,0,0
3.5878167636838E-06,-1.8043938325718E-05,3.1640625,0,0
2.25888925342588E-06,-1.64122720889281E-05,3.1640625,0,0
2.6950206120091E-06,-1.84938362508547E-05,3.1640625,0,0
5.21480023962795E-06,-1.66648060258012E-05,3.1640625,0,0
6.98643134455779E-06,-1.6282499927911E-05,3.1640625,0,0
4.81401821161853E-06,-1.51958083733916E-05,3.1640625,0,0
2.35392553804559E-06,-1.51601034303894E-05,3.1640625,0,0
2.03595209313789E-06,-1.5247157534759E-05,3.1640625,0,0
3.32204353981069E-06,-1.44690993693075E-05,3.1640625,0,0
4.47272759629413E-06,-1.43997467603185E-05,3.1640625,0,0
3.86178953704075E-06,-1.31102278828621E-05,3.1640625,0,0
2.74404533229244E-06,-1.31810647872044E-05,3.1640625,0,0
2.57713395512837E-06,-1.2986649380764E-05,3.1640625,0,0
3.67958500646637E-06,-1.4793579794059E-05,3.1640625,0,0
4.36719346907921E-06,-1.45753947435878E-05,3.1640625,0,0
4.33995683124522E-06,-1.42059798236005E-05,3.1640625,0,0
3.88107264370774E-06,-1.28431183838984E-05,3.1640625,0,0
4.43245426140493E-06,-1.37942461151397E-05,3.1640625,0,0
4.96111488246243E-06,-1.54121044033673E-05,3.1640625,0,0
4.27422082793782E-06,-1.79419403139036E-05,3.1640625,0,0
1.69292059126747E-06,-1.97464305529138E-05,3.1640625,0,0
1.87890094593968E-08,-2.0043156837346E-05,3.1640625,0,0
-2.7147163450536E-07,-1.75065997609636E-05,3.1640625,0,0
3.53059476765338E-07,-1.55968609760748E-05,3.1640625,0,0
-4.11070317341E-07,-1.3346540981729E-05,3.1640625,0,0
-1.76016521891142E-06,-2.02751580218319E-05,3.1640625,0,0
-1.91209346667165E-06,-1.64936318469699E-05,3.1640625,0,0
9.13432018023741E-07,-1.9187486032024E-05,3.1640625,0,0
3.67172810911143E-06,-1.66409845405724E-05,3.1640625,0,0
3.91693311030394E-06,-1.8812794223777E-05,3.1640625,0,0
2.86059230347746E-06,-1.73121552506927E-05,3.1640625,0,0
3.81569680030225E-06,-1.70536404766608E-05,3.1640625,0,0
5.90693343838211E-06,-1.51680778799346E-05,3.1640625,0,0
6.34072785032913E-06,-1.36055577968364E-05,3.1640625,0,0
5.69682833884144E-06,-1.33932826429373E-05,3.1640625,0,0
4.69341739517404E-06,-1.40467845994863E-05,3.1640625,0,0
4.42611099060741E-06,-1.54467688844306E-05,3.1640625,0,0
4.91384071210632E-06,-1.59031314979075E-05,3.1640625,0,0
4.53554548585089E-06,-1.90513655979885E-05,3.1640625,0,0
2.1801199636684E-06,-2.19048233702779E-05,3.1640625,0,0
-1.82752515343054E-07,-2.49279037234373E-05,3.1640625,0,0
1.36473101974843E-06,-2.316158679605E-05,3.1640625,0,0
5.75998910790076E-06,-2.03302461159183E-05,3.1640625,0,0
7.4881190812448E-06,-1.77620804606704E-05,3.1640625,0,0
4.90500906380476E-06,-1.76969169842778E-05,3.1640625,0,0
2.50564335146919E-06,-1.63929489644943E-05,3.1640625,0,0
2.17764431909018E-06,-1.53782530105673E-05,3.1640625,0,0
2.26835595640296E-06,-1.42408871397492E-05,3.1640625,0,0
2.87762554762594E-06,-1.48778208313161E-05,3.1640625,0,0
4.04556612920715E-06,-1.73747812368674E-05,3.1640625,0,0
3.87034879167913E-06,-1.83959182322724E-05,3.1640625,0,0
2.99488374366774E-06,-1.36277094497927E-05,3.1640625,0,0
4.38832739746431E-06,-1.96020937437424E-05,3.1640625,0,0
2.67758468908141E-06,-1.72936106537236E-05,3.1640625,0,0
4.02713749281247E-06,-2.41615107370308E-05,3.1640625,0,0
5.48069328942802E-06,-2.0593772205757E-05,3.1640625,0,0
6.54120412946213E-06,-1.92726092791418E-05,3.1640625,0,0
5.83938481213409E-06,-1.55483940034173E-05,3.1640625,0,0
6.30967360848445E-06,-1.35166937980102E-05,3.1640625,0,0
7.20616299076937E-06,-1.04416822068742E-05,3.1640625,0,0
6.75073670208803E-06,-1.03819493233459E-05,3.1640625,0,0
5.92588912695646E-06,-1.29727850435302E-05,3.1640625,0,0
4.53874463346438E-06,-1.45740359585034E-05,3.1640625,0,0
3.41445047524758E-06,-1.62429623742355E-05,3.1640625,0,0
2.03182253244449E-06,-1.62786691362271E-05,3.1640625,0,0
1.57294550717779E-06,-1.74777560459916E-05,3.1640625,0,0
1.58131058469735E-06,-1.65849996847101E-05,3.1640625,0,0
2.20793685912213E-06,-1.69732556969393E-05,3.1640625,0,0
3.29003432852915E-06,-1.62389314937172E-05,3.1640625,0,0
4.39018231190857E-06,-1.67061880347319E-05,3.1640625,0,0
3.86211559089134E-06,-1.60332492669113E-05,3.1640625,0,0
2.24718291974568E-06,-1.67001289810287E-05,3.1640625,0,0
7.89870227890788E-07,-1.71469710039673E-05,3.1640625,0,0
1.32552273157671E-07,-1.80860242835479E-05,3.1640625,0,0
7.94928325831279E-07,-1.77353558683535E-05,3.1640625,0,0
1.3091174650981E-06,-1.68810965988087E-05,3.1640625,0,0
8.69370751388487E-07,-1.55291036207927E-05,3.1640625,0,0
2.1400883554179E-07,-1.38539253384806E-05,3.1640625,0,0
-9.51321908360114E-07,-1.17361159936991E-05,3.1640625,0,0
-8.27777057565982E-07,-1.85865228559123E-05,3.1640625,0,0
1.12004499897012E-06,-1.5195843843685E-05,3.1640625,0,0
1.87955492947367E-06,-1.48906447066111E-05,3.1640625,0,0
1.46000036238547E-06,-1.11048975668382E-05,3.1640625,0,0
-3.6930217106601E-08,-1.35173804665101E-05,3.1640625,0,0
-1.21735774882836E-06,-1.35465897983522E-05,3.1640625,0,0
-8.09212792773906E-07,-1.53285509441048E-05,3.1640625,0,0
9.85377255346975E-07,-1.63691565830959E-05,3.1640625,0,0
3.18291449730168E-06,-1.65583460329799E-05,3.1640625,0,0
4.74463195132557E-06,-1.53502969624242E-05,3.1640625,0,0
4.80681592307519E-06,-1.31477281684056E-05,3.1640625,0,0
4.03587682740181E-06,-1.20602944662096E-05,3.1640625,0,0
3.78863774130878E-06,-1.11548943095841E-05,3.1640625,0,0
3.70114344150352E-06,-1.27231560327346E-05,3.1640625,0,0
3.74260525859427E-06,-1.37974147946807E-05,3.1640625,0,0
4.3664704207913E-06,-1.62100168381585E-05,3.1640625,0,0
5.39285611012019E-06,-1.64235752890818E-05,3.1640625,0,0
5.65977461519651E-06,-1.64761495398125E-05,3.1640625,0,0
4.8763313316158E-06,-1.54520421347115E-05,3.1640625,0,0
3.3940348203032E-06,-1.59557439474156E-05,3.1640625,0,0
2.61150489677675E-06,-1.67147354659392E-05,3.1640625,0,0
3.09315987578884E-06,-1.84697382792365E-05,3.1640625,0,0
4.79024720334564E-06,-1.97513181774411E-05,3.1640625,0,0
5.85355519433506E-06,-2.16483713302296E-05,3.1640625,0,0
5.37642790732207E-06,-2.35781262745149E-05,3.1640625,0,0
4.62160915049026E-06,-2.43131034949329E-05,3.1640625,0,0
4.07909965360886E-06,-1.89040056284284E-05,5.2734375,0,0
6.46756370770163E-06,-2.61307377513731E-05,5.2734375,0,0
4.86895123685827E-06,-1.95876400539419E-05,5.2734375,0,0
4.41200154455146E-06,-2.61104341916507E-05,5.2734375,0,0
2.02239061763976E-06,-2.25726362259593E-05,5.2734375,0,0
1.50185530856106E-06,-2.40741592278937E-05,5.2734375,0,0
8.52200969347905E-07,-2.02616738533834E-05,5.2734375,0,0
3.65290475201618E-07,-2.03624840651173E-05,5.2734375,0,0
1.45601660506145E-07,-1.85014941962436E-05,5.2734375,0,0
-1.8899346798662E-07,-1.65514684340451E-05,5.2734375,0,0
-7.80288644364191E-07,-1.47775535879191E-05,5.2734375,0,0
2.76014560540716E-07,-1.31308115669526E-05,5.2734375,0,0
2.26865381591779E-06,-1.42702538141748E-05,5.2734375,0,0
2.44044281316746E-06,-1.36136668515974E-05,5.2734375,0,0
2.21632581087761E-06,-1.49965890159365E-05,5.2734375,0,0
2.87883563032665E-06,-1.54320659930818E-05,5.2734375,0,0
3.81899735657498E-06,-1.72029322129674E-05,5.2734375,0,0
2.86377871816512E-06,-1.54512890730985E-05,5.2734375,0,0
1.23394636375451E-06,-1.71234387380537E-05,5.2734375,0,0
-2.77442723017884E-07,-1.78773170773638E-05,5.2734375,0,0
-6.95176197496039E-07,-1.82251351361629E-05,5.2734375,0,0
-1.67044993304444E-06,-1.60704603331396E-05,5.2734375,0,0
-1.70326893567108E-06,-1.60510899149813E-05,5.2734375,0,0
-1.07600179433121E-07,-1.76460162037984E-05,5.2734375,0,0
2.71792202966026E-07,-2.06811637326609E-05,5.2734375,0,0
3.34471423002469E-07,-2.25765397772193E-05,5.2734375,0,0
1.82013104677026E-06,-2.1651456336258E-05,5.2734375,0,0
2.32893171414617E-06,-1.47182117871125E-05,5.2734375,0,0
3.53727591573261E-06,-1.94397780433064E-05,5.2734375,0,0
3.28474720845406E-06,-1.38414725370239E-05,5.2734375,0,0
3.84866825697827E-06,-1.87753939826507E-05,5.2734375,0,0
3.06873585032008E-06,-1.54561403178377E-05,5.2734375,0,0
3.31298383571266E-06,-1.79403377842391E-05,5.2734375,0,0
3.21978200190642E-06,-1.80596853169845E-05,5.2734375,0,0
3.70917950931471E-06,-2.06194417842198E-05,5.2734375,0,0
4.55110148323001E-06,-2.13133171200752E-05,5.2734375,0,0
6.05831610300811E-06,-2.31476278713671E-05,5.2734375,0,0
7.99074041424319E-06,-2.46099261858035E-05,5.2734375,0,0
9.18869591259863E-06,-2.32579677685862E-05,5.2734375,0,0
9.16601675271522E-06,-2.29078323172871E-05,5.2734375,0,0
7.79063338995911E-06,-2.09591780730989E-05,5.2734375,0,0
6.76808440402965E-06,-1.95110369531903E-05,5.2734375,0,0
6.18846570432652E-06,-1.63922231877223E-05,5.2734375,0,0
6.1201781136333E-06,-1.63372478709789E-05,5.2734375,0,0
5.92151991440915E-06,-1.49693851199117E-05,5.2734375,0,0
6.12946769251721E-06,-1.47871851368109E-05,5.2734375,0,0
6.83959206071449E-06,-1.37464967338019E-05,5.2734375,0,0
8.45339400257217E-06,-1.46727843457484E-05,5.2734375,0,0
9.17661782295909E-06,-1.5203788279905E-05,5.2734375,0,0
7.73916963225929E-06,-1.64627635967918E-05,5.2734375,0,0
5.07166123497882E-06,-1.66627487487858E-05,5.2734375,0,0
3.03767524201248E-06,-1.56429341586772E-05,5.2734375,0,0
1.26879979234218E-06,-1.3186625437811E-05,5.2734375,0,0
4.94039966270066E-07,-1.14902622954105E-05,5.2734375,0,0
8.26888765459444E-07,-9.55764062382514E-06,5.2734375,0,0
2.86157160189759E-06,-1.29915451907436E-05,5.2734375,0,0
3.88039870813373E-06,-8.70382518769475E-06,5.2734375,0,0
3.55369934368355E-06,-9.68794029176934E-06,5.2734375,0,0
3.07065647575655E-06,-6.83634971210267E-06,5.2734375,0,0
1.66661027378723E-06,-9.14528663997771E-06,5.2734375,0,0
-8.52521182537203E-08,-9.87740986602148E-06,5.2734375,0,0
-6.32961473456817E-07,-1.16809378596372E-05,5.2734375,0,0
3.3691890166665E-08,-1.28658175526652E-05,5.2734375,0,0
7.01997748819849E-07,-1.35942900669761E-05,5.2734375,0,0
6.81736366914265E-07,-1.35189184220508E-05,5.2734375,0,0
5.52741539650015E-07,-1.38966097438242E-05,5.2734375,0,0
1.84620284926496E-06,-1.61663156177383E-05,5.2734375,0,0
2.8004790237901E-06,-1.70701587194344E-05,5.2734375,0,0
1.73644230017089E-06,-1.73661373992218E-05,5.2734375,0,0
4.29108325761263E-07,-1.61679472512333E-05,5.2734375,0,0
9.16117244287307E-07,-1.76139092218364E-05,5.2734375,0,0
2.83568488157471E-06,-1.899857124954E-05,5.2734375,0,0
3.84567465516739E-06,-2.01710863620974E-05,5.2734375,0,0
3.91642652175506E-06,-1.89315524039557E-05,5.2734375,0,0
4.24660493081319E-06,-1.76613193616504E-05,5.2734375,0,0
5.0524154175946E-06,-1.61937714437954E-05,5.2734375,0,0
4.97624205308966E-06,-1.78062600753037E-05,5.2734375,0,0
4.86359294882277E-06,-2.05552332772641E-05,5.2734375,0,0
5.54271173314191E-06,-2.10323451028671E-05,5.2734375,0,0
5.81004269406549E-06,-1.94521653611446E-05,5.2734375,0,0
5.32719013790484E-06,-1.78231639438309E-05,5.2734375,0,0
3.9438700696337E-06,-1.4571496649296E-05,5.2734375,0,0
5.3531825869868E-06,-2.22798789764056E-05,5.2734375,0,0
4.14451551478123E-06,-1.84560303750914E-05,5.2734375,0,0
4.31181979365647E-06,-2.20021374843782E-05,5.2734375,0,0
2.78560332844791E-06,-2.01576785912039E-05,5.2734375,0,0
5.00069018016802E-06,-2.25707608478842E-05,5.2734375,0,0
5.18044635100523E-06,-1.93404848687351E-05,5.2734375,0,0
3.82046710001305E-06,-1.77061192516703E-05,5.2734375,0,0
8.77044897151791E-07,-1.62864398589591E-05,5.2734375,0,0
-4.02619804162896E-08,-1.69701088452712E-05,5.2734375,0,0
1.73398927927337E-06,-1.78355439857114E-05,5.2734375,0,0
3.12761085297097E-06,-1.62015658133896E-05,5.2734375,0,0
3.37409983330872E-06,-1.57376962306444E-05,5.2734375,0,0
3.49970764546015E-06,-1.66765239555389E-05,5.2734375,0,0
4.63999231214984E-06,-1.95583070308203E-05,5.2734375,0,0
4.22516086473479E-06,-1.91663166333456E-05,5.2734375,0,0
2.67372229245666E-06,-1.95994380192133E-05,5.2734375,0,0
1.17867205062794E-06,-1.86623547051568E-05,5.2734375,0,0
2.55747318078647E-06,-1.91352810361423E-05,5.2734375,0,0
4.30672571383184E-06,-1.91750295925885E-05,5.2734375,0,0
5.09083110955544E-06,-2.01324801309966E-05,5.2734375,0,0
4.38637152910815E-06,-1.90414666576544E-05,5.2734375,0,0
3.35900813297485E-06,-1.91285107575823E-05,5.2734375,0,0
1.96015957953932E-06,-1.92985880858032E-05,5.2734375,0,0
1.53422888615751E-06,-1.77384536073077E-05,5.2734375,0,0
1.15166426439828E-06,-1.39319463414722E-05,5.2734375,0,0
5.85355451221403E-07,-1.25500391732203E-05,5.2734375,0,0
8.3658062521863E-07,-1.33595776787843E-05,5.2734375,0,0
1.2717407571472E-06,-2.05223313969327E-05,5.2734375,0,0
8.44095211505191E-07,-1.73994885699358E-05,5.2734375,0,0
3.66830704479071E-07,-2.19229423237266E-05,5.2734375,0,0
-6.09028404596756E-07,-2.11737606150564E-05,5.2734375,0,0
-6.62269712847774E-07,-2.31166959565599E-05,5.2734375,0,0
1.26993620597204E-06,-2.19381490751402E-05,5.2734375,0,0
2.31774720305111E-06,-2.27783784794156E-05,5.2734375,0,0
1.41017301302782E-06,-2.1904801542405E-05,5.2734375,0,0
2.87614909666445E-07,-2.12090653803898E-05,5.2734375,0,0
-2.96891784046238E-07,-2.07059929380193E-05,5.2734375,0,0
8.33829801649699E-07,-1.915764187288E-05,5.2734375,0,0
2.69480801762256E-06,-1.87652840395458E-05,5.2734375,0,0
3.4605309338076E-06,-1.77624788193498E-05,5.2734375,0,0
3.22177652378741E-06,-1.68841816048371E-05,5.2734375,0,0
3.09194501824095E-06,-1.37932729558088E-05,5.2734375,0,0
2.34184585679031E-06,-1.36331891553709E-05,5.2734375,0,0
6.51139259844058E-07,-1.31801898533013E-05,5.2734375,0,0
9.50450456116414E-08,-1.33178455143934E-05,5.2734375,0,0
5.05136142692209E-07,-1.29424934129929E-05,5.2734375,0,0
1.69987913523073E-06,-1.39999519888079E-05,5.2734375,0,0
3.92907895729877E-06,-1.39373687488842E-05,5.2734375,0,0
5.36693778485642E-06,-1.50850228237687E-05,5.2734375,0,0
4.36481013821322E-06,-1.58565635501873E-05,5.2734375,0,0
3.20285516863805E-06,-1.73427597474074E-05,5.2734375,0,0
2.92886647912383E-06,-1.93364430742804E-05,5.2734375,0,0
3.68541077477857E-06,-2.02971896214876E-05,5.2734375,0,0
4.62391972178011E-06,-1.59248302225024E-05,5.2734375,0,0
6.84589576849248E-06,-2.13305029319599E-05,5.2734375,0,0
5.90077434026171E-06,-1.55966372403782E-05,5.2734375,0,0
8.26804534881376E-06,-2.03618310479214E-05,5.2734375,0,0
8.81875348568428E-06,-1.62842879944947E-05,5.2734375,0,0
1.0467022548255E-05,-1.81011237145867E-05,5.2734375,0,0
1.05664385046111E-05,-1.5721012459835E-05,5.2734375,0,0
1.06253392004874E-05,-1.59636438183952E-05,5.2734375,0,0
9.95557911664946E-06,-1.46048596434412E-05,5.2734375,0,0
1.06399602373131E-05,-1.52122020153911E-05,5.2734375,0,0
1.19383666969952E-05,-1.55823472596239E-05,5.2734375,0,0
1.20927197713172E-05,-1.34389729282702E-05,5.2734375,0,0
1.05769413494272E-05,-1.32992627186468E-05,5.2734375,0,0
7.40479890737333E-06,-1.34404353957507E-05,5.2734375,0,0
6.16482975601684E-06,-1.47739137901226E-05,5.2734375,0,0
6.29065561952302E-06,-1.23669233289547E-05,5.2734375,0,0
6.89849457558012E-06,-1.1591000657063E-05,5.2734375,0,0
6.84845826981473E-06,-9.83095651463373E-06,5.2734375,0,0
8.17299496702617E-06,-1.05018934846157E-05,5.2734375,0,0
8.23899154056562E-06,-1.06055622381973E-05,5.2734375,0,0
6.15383396507241E-06,-1.27507873912691E-05,5.2734375,0,0
3.17183162223955E-06,-1.27522525872337E-05,5.2734375,0,0
2.04049979402043E-06,-1.24852122098673E-05,5.2734375,0,0
2.36479809245793E-06,-1.12966254164348E-05,5.2734375,0,0
2.43544377553917E-06,-1.197493293148E-05,5.2734375,0,0
5.78734272949077E-07,-1.34943102239049E-05,5.2734375,0,0
1.274844407817E-07,-1.42384351420333E-05,5.2734375,0,0
9.61846922109544E-07,-1.14577042040764E-05,5.2734375,0,0
1.60910360591515E-06,-1.64973025675863E-05,5.2734375,0,0
1.92840161616914E-06,-1.36768576339819E-05,5.2734375,0,0
2.33161381402169E-06,-1.7629088688409E-05,5.2734375,0,0
1.25465521705337E-06,-1.57218109961832E-05,5.2734375,0,0
8.07194311391868E-08,-1.76047069544438E-05,5.2734375,0,0
-2.03181869551372E-07,-1.67189518833766E-05,5.2734375,0,0
1.09122549929452E-06,-1.82663497980684E-05,7.03125,0,0
2.98100053441885E-06,-1.95909833564656E-05,7.03125,0,0
4.46444073531893E-06,-2.13963467103895E-05,7.03125,0,0
4.52684707852313E-06,-2.35291608987609E-05,7.03125,0,0
3.84275290343794E-06,-2.55407212534919E-05,7.03125,0,0
3.70043403563614E-06,-2.78288971458096E-05,7.03125,0,0
4.0456720853399E-06,-2.75401635008166E-05,7.03125,0,0
4.32186789112166E-06,-2.70312393695349E-05,7.03125,0,0
3.56802092937869E-06,-2.52108548011165E-05,7.03125,0,0
2.71311796495866E-06,-2.51996170845814E-05,7.03125,0,0
2.96609550787252E-06,-2.37438107433263E-05,7.03125,0,0
3.46829892805545E-06,-2.37761578318896E-05,7.03125,0,0
2.90128309643478E-06,-2.39543805946596E-05,7.03125,0,0
1.76560899944889E-06,-2.425827915431E-05,7.03125,0,0
5.68781729270995E-07,-2.27785567403771E-05,7.03125,0,0
1.21630978355824E-06,-2.17708548007067E-05,7.03125,0,0
2.52286690738401E-06,-1.95429856830742E-05,7.03125,0,0
2.71502062787476E-06,-1.72330110217445E-05,7.03125,0,0
1.50146729538392E-06,-1.51435824591317E-05,7.03125,0,0
-1.75893160303531E-06,-1.43008919621934E-05,7.03125,0,0
-3.80225424123637E-06,-1.15844777610619E-05,7.03125,0,0
-4.76928425996448E-06,-1.69632039614953E-05,7.03125,0,0
-2.66230426859693E-06,-1.5082725440152E-05,7.03125,0,0
-3.39924736181274E-06,-1.95627690118272E-05,7.03125,0,0
-3.17807416649885E-06,-1.67828202393139E-05,7.03125,0,0
-4.89417288918048E-06,-1.82993517228169E-05,7.03125,0,0
-3.85266503144521E-06,-1.78294721990824E-05,7.03125,0,0
-2.90685989057238E-06,-1.87348432518775E-05,7.03125,0,0
-3.27410702993802E-06,-1.60335621330887E-05,7.03125,0,0
-3.71381815966743E-06,-1.33241628645919E-05,7.03125,0,0
-2.66587403530139E-06,-1.34599586090189E-05,7.03125,0,0
-1.276325406252E-06,-1.43618581205374E-05,7.03125,0,0
-6.26616724730411E-07,-1.58661387104075E-05,7.03125,0,0
-3.44317186318222E-07,-1.58422699314542E-05,7.03125,0,0
-1.07732739706989E-06,-1.63103541126475E-05,7.03125,0,0
-8.75045429893362E-07,-1.4254404050007E-05,7.03125,0,0
-6.3772006342333E-07,-1.38401292133494E-05,7.03125,0,0
1.83757506988513E-07,-1.44319474202348E-05,7.03125,0,0
9.38738025979546E-07,-1.71535448316718E-05,7.03125,0,0
2.92157369585766E-06,-1.72312356880866E-05,7.03125,0,0
5.3546696108242E-06,-1.69121303770226E-05,7.03125,0,0
6.90614933773759E-06,-1.62650976562873E-05,7.03125,0,0
5.20847834195592E-06,-1.73601183632854E-05,7.03125,0,0
3.07137179333949E-06,-1.93328269233461E-05,7.03125,0,0
2.29524380301882E-06,-2.0725536160171E-05,7.03125,0,0
1.94106405615457E-06,-1.8133479898097E-05,7.03125,0,0
2.07709899768815E-06,-1.55542711581802E-05,7.03125,0,0
3.1155450415099E-06,-1.3890818991058E-05,7.03125,0,0
5.51772609469481E-06,-2.09171976166544E-05,7.03125,0,0
5.53827203475521E-06,-1.55019315570826E-05,7.03125,0,0
6.74068405714934E-06,-1.8181597624789E-05,7.03125,0,0
6.35034393781098E-06,-1.83752199518494E-05,7.03125,0,0
5.34775381311192E-06,-2.27203036047285E-05,7.03125,0,0
4.05607624998083E-06,-2.17050092032878E-05,7.03125,0,0
5.56892928216257E-06,-2.15982800000347E-05,7.03125,0,0
7.10443237039726E-06,-1.99045880435733E-05,7.03125,0,0
7.28993018128676E-06,-1.88252015504986E-05,7.03125,0,0
5.99976374360267E-06,-1.85534117917996E-05,7.03125,0,0
4.17754608861287E-06,-1.89156580745475E-05,7.03125,0,0
3.23325912177097E-06,-2.11021124414401E-05,7.03125,0,0
3.33964271703735E-06,-1.99715486814966E-05,7.03125,0,0
3.62892274097248E-06,-1.79702365130652E-05,7.03125,0,0
3.95816823584028E-06,-1.51573658513371E-05,7.03125,0,0
5.65137588637299E-06,-1.61065272550331E-05,7.03125,0,0
6.46460466668941E-06,-1.6100730135804E-05,7.03125,0,0
6.62386173644336E-06,-1.59916580741992E-05,7.03125,0,0
6.31234115644475E-06,-1.43771430884954E-05,7.03125,0,0
5.85548650633427E-06,-1.33673738673679E-05,7.03125,0,0
5.31906925971271E-06,-1.18952848424669E-05,7.03125,0,0
6.05478362558642E-06,-1.29867339637713E-05,7.03125,0,0
6.37399125480442E-06,-1.40374877446447E-05,7.03125,0,0
5.18056822329527E-06,-1.49559000419686E-05,7.03125,0,0
3.0326843898365E-06,-1.52393704411224E-05,7.03125,0,0
2.4060393570835E-06,-1.48285862451303E-05,7.03125,0,0
2.72314105131954E-06,-1.18413399832207E-05,7.03125,0,0
3.73755733562575E-06,-1.81564355443697E-05,7.03125,0,0
2.00177737497143E-06,-1.53656565089477E-05,7.03125,0,0
2.50886455432919E-06,-1.91504168469692E-05,7.03125,0,0
1.40534746151388E-06,-1.83132688107435E-05,7.03125,0,0
5.87365263982065E-07,-2.13978910323931E-05,7.03125,0,0
3.04444370158308E-07,-2.0557892639772E-05,7.03125,0,0
4.44227282514476E-07,-2.0382225557114E-05,7.03125,0,0
-4.36197296949103E-07,-1.89366273843916E-05,7.03125,0,0
-1.92962011169584E-06,-1.81000395969022E-05,7.03125,0,0
-1.16943158445793E-06,-1.72507316165138E-05,7.03125,0,0
1.60678303018358E-06,-1.54595145431813E-05,7.03125,0,0
4.3486179492902E-06,-1.57573267642874E-05,7.03125,0,0
4.15316526414244E-06,-1.66465124493698E-05,7.03125,0,0
2.27826399168407E-06,-1.89595684787491E-05,7.03125,0,0
1.44540138080629E-06,-1.87675323104486E-05,7.03125,0,0
2.62631328951102E-06,-1.81537016032962E-05,7.03125,0,0
4.17218279835652E-06,-1.57175745698623E-05,7.03125,0,0
5.10681138621294E-06,-1.55346697283676E-05,7.03125,0,0
4.81617598779849E-06,-1.67100188264158E-05,7.03125,0,0
4.64264030597406E-06,-1.92532388609834E-05,7.03125,0,0
5.0133476179326E-06,-1.85280841833446E-05,7.03125,0,0
5.12416181663866E-06,-1.57181020767894E-05,7.03125,0,0
4.70121494799969E-06,-1.38384175443207E-05,7.03125,0,0
5.33559568793862E-06,-1.384261304338E-05,7.03125,0,0
6.79797722114017E-06,-1.38358809635974E-05,7.03125,0,0
6.94859136274317E-06,-1.33884841488907E-05,7.03125,0,0
4.34377943747677E-06,-1.00828692666255E-05,7.03125,0,0
5.68070527151576E-06,-1.52339634951204E-05,7.03125,0,0
4.32078923040535E-06,-1.23821928355028E-05,7.03125,0,0
6.58543694953551E-06,-1.4453895346378E-05,7.03125,0,0
5.47915351489792E-06,-1.2068975593138E-05,7.03125,0,0
4.36848722529248E-06,-1.26382537928293E-05,7.03125,0,0
2.16565968003124E-06,-1.11994204416987E-05,7.03125,0,0
2.34302819990262E-06,-1.22375822684262E-05,7.03125,0,0
2.79788378065859E-06,-1.24768066598335E-05,7.03125,0,0
3.75659737983369E-06,-1.28310330183012E-05,7.03125,0,0
4.60829778603511E-06,-1.30349480969016E-05,7.03125,0,0
4.94849109600182E-06,-1.38840232466464E-05,7.03125,0,0
4.93384504807182E-06,-1.64326156664174E-05,7.03125,0,0
3.67235361409257E-06,-1.65981455211295E-05,7.03125,0,0
3.10324230667902E-06,-1.59092032845365E-05,7.03125,0,0
2.58940508501837E-06,-1.44843206726364E-05,7.03125,0,0
2.89033118860971E-06,-1.51591420944897E-05,7.03125,0,0
3.0170244826877E-06,-1.49329671330634E-05,7.03125,0,0
3.47823629454069E-06,-1.6122447050293E-05,7.03125,0,0
3.72614363186585E-06,-1.69224440469407E-05,7.03125,0,0
4.67056725028669E-06,-1.75954428414116E-05,7.03125,0,0
4.780118160852E-06,-1.61201060109306E-05,7.03125,0,0
4.98550070915371E-06,-1.5215758139675E-05,7.03125,0,0
5.11374537381926E-06,-1.5335863281507E-05,7.03125,0,0
5.32753392690211E-06,-1.64476005011238E-05,7.03125,0,0
5.81596759730019E-06,-1.74302731466014E-05,7.03125,0,0
7.10041376805748E-06,-1.59760984388413E-05,7.03125,0,0
6.12754729445442E-06,-1.06188126665074E-05,7.03125,0,0
7.52305913920281E-06,-1.33850326164975E-05,7.03125,0,0
3.78243680643209E-06,-9.02277224668069E-06,7.03125,0,0
5.09140818394371E-06,-1.28575538838049E-05,7.03125,0,0
4.77339654025855E-06,-1.20767517728382E-05,7.03125,0,0
7.20834896128508E-06,-1.63696950039594E-05,7.03125,0,0
6.15956332694623E-06,-1.70332787092775E-05,7.03125,0,0
4.5619708544109E-06,-1.92902552953456E-05,7.03125,0,0
2.94308233605989E-06,-1.91074723261409E-05,7.03125,0,0
2.45751107286196E-06,-1.84238979272777E-05,7.03125,0,0
2.45294177148025E-06,-1.83695829036878E-05,7.03125,0,0
1.54694760112761E-06,-1.86308407137403E-05,7.03125,0,0
1.48322908444243E-06,-2.02283408725634E-05,7.03125,0,0
1.12746658942342E-06,-2.07833072636276E-05,7.03125,0,0
1.12398538476555E-06,-2.21835125557845E-05,7.03125,0,0
7.84333622050326E-07,-2.10907910513924E-05,7.03125,0,0
1.66540849022567E-06,-2.08688852580963E-05,7.03125,0,0
2.28954195335973E-06,-1.9193832486053E-05,7.03125,0,0
3.43675537806121E-06,-1.96867404156365E-05,7.03125,0,0
3.35478671331657E-06,-2.06945878744591E-05,7.03125,0,0
2.68519170276704E-06,-2.25449493882479E-05,7.03125,0,0
9.18411046768597E-07,-2.23857568926178E-05,7.03125,0,0
1.42694716487313E-07,-2.21265017898986E-05,7.03125,0,0
1.78730374500446E-06,-2.15167510759784E-05,7.03125,0,0
4.5229326133267E-06,-2.13875664485386E-05,7.03125,0,0
5.07636286783963E-06,-2.10565249290084E-05,7.03125,0,0
3.7973466078256E-06,-2.20828515011817E-05,7.03125,0,0
2.33771197599708E-06,-1.80946153705008E-05,7.03125,0,0
3.79261655325536E-06,-2.48306077992311E-05,7.03125,0,0
3.41988652508007E-06,-1.78864975168835E-05,7.03125,0,0
4.00878025175189E-06,-2.29371635214193E-05,7.03125,0,0
3.73837588085735E-06,-1.93267223949078E-05,7.03125,0,0
2.82783935290354E-06,-2.34721246670233E-05,7.03125,0,0
1.35235347897833E-06,-2.37931362789823E-05,7.03125,0,0
1.63619165505224E-06,-2.45196006289916E-05,7.03125,0,0
2.63435708802717E-06,-2.03406871150946E-05,7.03125,0,0
4.22226503360434E-06,-1.71764841070399E-05,7.03125,0,0
5.87541035201866E-06,-1.63374970725272E-05,7.03125,0,0
6.2704839365324E-06,-1.6156929632416E-05,7.03125,0,0
5.16938143846346E-06,-1.81022242031759E-05,8.4375,0,0
2.91832293441985E-06,-1.73764128703624E-05,8.4375,0,0
1.26258942145796E-06,-1.74198103195522E-05,8.4375,0,0
8.57025611367135E-07,-1.60873623826774E-05,8.4375,0,0
1.37334973260295E-06,-1.77365764102433E-05,8.4375,0,0
1.56477028667723E-06,-1.68731858138926E-05,8.4375,0,0
2.25095550376864E-06,-1.6993231838569E-05,8.4375,0,0
2.50805396717624E-06,-1.56172700371826E-05,8.4375,0,0
2.49206800617685E-06,-1.52804550452856E-05,8.4375,0,0
2.20599804379162E-06,-1.3646973457071E-05,8.4375,0,0
1.57224599206529E-06,-1.38004161271965E-05,8.4375,0,0
1.57811189183121E-06,-1.3453544852382E-05,8.4375,0,0
3.59054320142604E-06,-1.36946819111472E-05,8.4375,0,0
5.56871782464441E-06,-1.37794531838153E-05,8.4375,0,0
4.77443245472386E-06,-1.47516229844769E-05,8.4375,0,0
2.9959776384203E-06,-1.26848908621469E-05,8.4375,0,0
4.38774486610782E-06,-1.74475117091788E-05,8.4375,0,0
4.4493922359834E-06,-1.29760564959724E-05,8.4375,0,0
5.5742789299984E-06,-1.69376380654285E-05,8.4375,0,0
3.01524710266676E-06,-1.39772591865039E-05,8.4375,0,0
1.95625602827931E-06,-1.39763878905796E-05,8.4375,0,0
2.03554668587458E-06,-1.22049195852014E-05,8.4375,0,0
2.54980841418728E-06,-1.34009969769977E-05,8.4375,0,0
1.40190252295724E-06,-1.25495180327562E-05,8.4375,0,0
4.30498971581983E-07,-1.23822119348915E-05,8.4375,0,0
1.24328482797864E-06,-1.21483381008147E-05,8.4375,0,0
2.73309888143558E-06,-1.09911743493285E-05,8.4375,0,0
3.5683449368662E-06,-1.21348239190411E-05,8.4375,0,0
3.40424480782531E-06,-1.35672798933228E-05,8.4375,0,0
3.15027614306018E-06,-1.53499531734269E-05,8.4375,0,0
2.64284858531028E-06,-1.48836361404392E-05,8.4375,0,0
2.45374553742295E-06,-1.70397397596389E-05,8.4375,0,0
2.29488432523794E-06,-1.75686418515397E-05,8.4375,0,0
3.59719342668541E-06,-1.84009295480791E-05,8.4375,0,0
4.37875041825464E-06,-1.74820488609839E-05,8.4375,0,0
3.71650003216928E-06,-1.65509300131816E-05,8.4375,0,0
2.38588404499751E-06,-1.50166888488457E-05,8.4375,0,0
2.49354275183578E-06,-1.48505714605562E-05,8.4375,0,0
2.39776977650763E-06,-1.40731599458377E-05,8.4375,0,0
1.4973536508478E-06,-1.42591243275092E-05,8.4375,0,0
1.43875604408095E-06,-1.42697263072478E-05,8.4375,0,0
2.45480305238743E-06,-1.37893030114355E-05,8.4375,0,0
3.00371493722196E-06,-1.1040772733395E-05,8.4375,0,0
4.24733934778487E-06,-1.59251048899023E-05,8.4375,0,0
2.116931227647E-06,-1.37325423565926E-05,8.4375,0,0
1.96522501028085E-06,-1.85692115337588E-05,8.4375,0,0
1.98716156774026E-06,-1.79038797796238E-05,8.4375,0,0
2.6330124001106E-06,-2.05322066904046E-05,8.4375,0,0
1.35556956593064E-06,-1.90843984455569E-05,8.4375,0,0
5.66621622510866E-07,-1.89052570931381E-05,8.4375,0,0
5.606630679722E-07,-1.81787436304148E-05,8.4375,0,0
6.19740490037657E-07,-1.83659340109443E-05,8.4375,0,0
6.64664298710704E-07,-1.81667292054044E-05,8.4375,0,0
-4.06940301900249E-07,-1.62584201461868E-05,8.4375,0,0
-1.31533943203976E-06,-1.5373825590359E-05,8.4375,0,0
-1.91504932445241E-06,-1.49322795550688E-05,8.4375,0,0
-1.91492949852545E-06,-1.60426097863819E-05,8.4375,0,0
-1.98696511688468E-06,-1.5752601029817E-05,8.4375,0,0
-8.81550988651725E-07,-1.6909076293814E-05,8.4375,0,0
4.32518930892911E-07,-1.73153148352867E-05,8.4375,0,0
1.27934185911727E-06,-1.88220219570212E-05,8.4375,0,0
2.11438054975588E-06,-1.86099532584194E-05,8.4375,0,0
3.44248155670357E-06,-1.83176016435027E-05,8.4375,0,0
4.07310153605067E-06,-1.64193897944642E-05,8.4375,0,0
4.41059501099517E-06,-1.55511843331624E-05,8.4375,0,0
4.9558975661057E-06,-1.45163903653156E-05,8.4375,0,0
5.81949461775366E-06,-1.46820111694979E-05,8.4375,0,0
6.57576856610831E-06,-1.63343793246895E-05,8.4375,0,0
6.96461074767285E-06,-1.75641453097342E-05,8.4375,0,0
6.39069594399189E-06,-1.34712408907944E-05,8.4375,0,0
8.70808344188845E-06,-1.81138057087082E-05,8.4375,0,0
5.34053970113746E-06,-1.19275046017719E-05,8.4375,0,0
6.55421854389715E-06,-1.37075039674528E-05,8.4375,0,0
4.92202116220142E-06,-1.02047342807055E-05,8.4375,0,0
4.58830754723749E-06,-1.39079556902288E-05,8.4375,0,0
3.68183350474283E-06,-1.34263973450288E-05,8.4375,0,0
5.32466219738126E-06,-1.49988491102704E-05,8.4375,0,0
7.05722732163849E-06,-1.57480008056154E-05,8.4375,0,0
8.81981395650655E-06,-1.63191998581169E-05,8.4375,0,0
9.67179857980227E-06,-1.65454093803419E-05,8.4375,0,0
8.9457280409988E-06,-1.59250193974003E-05,8.4375,0,0
8.3244976849528E-06,-1.66745976457605E-05,8.4375,0,0
7.84560052125016E-06,-1.68138612934854E-05,8.4375,0,0
9.3379603640642E-06,-1.81329869519686E-05,8.4375,0,0
1.00192864920245E-05,-1.70968905877089E-05,8.4375,0,0
9.44515613809926E-06,-1.75266704900423E-05,8.4375,0,0
7.2930010901473E-06,-1.62811993504874E-05,8.4375,0,0
6.76366198604228E-06,-1.72231066244422E-05,8.4375,0,0
7.81852577347308E-06,-1.84841246664291E-05,8.4375,0,0
9.93767207546625E-06,-2.12539252970601E-05,8.4375,0,0
1.00180404842831E-05,-2.30369878408965E-05,8.4375,0,0
8.03392504167277E-06,-2.50373359449441E-05,8.4375,0,0
5.3497669796343E-06,-2.48217256739736E-05,8.4375,0,0
3.79608059120073E-06,-2.364236752328E-05,8.4375,0,0
2.49964637077937E-06,-2.2923251890461E-05,8.4375,0,0
1.91657977666182E-06,-2.27247855946189E-05,8.4375,0,0
5.62821071525832E-07,-1.78332265932113E-05,8.4375,0,0
-6.90139870584972E-07,-2.57477349805413E-05,8.4375,0,0
-3.01139061775757E-06,-2.15355394175276E-05,8.4375,0,0
-2.34198068937985E-06,-2.81689772236859E-05,8.4375,0,0
-4.76501384127914E-07,-2.35486368183047E-05,8.4375,0,0
1.30790135699499E-06,-2.3952308765729E-05,8.4375,0,0
2.79644541478774E-06,-2.17891665670322E-05,8.4375,0,0
3.61115462510497E-06,-2.23017850657925E-05,8.4375,0,0
3.12281895276101E-06,-2.10493708436843E-05,8.4375,0,0
2.05939522857079E-06,-2.33553855650825E-05,8.4375,0,0
1.55099655785307E-06,-2.63275724137202E-05,8.4375,0,0
5.54238511085714E-07,-2.57125684584025E-05,8.4375,0,0
4.04211903060059E-07,-2.33567207033047E-05,8.4375,0,0
1.03512195437361E-06,-1.8675193132367E-05,8.4375,0,0
1.34763570258656E-06,-1.70186485775048E-05,8.4375,0,0
1.70673217780859E-06,-1.4684554116684E-05,8.4375,0,0
2.69904489869077E-06,-1.54627941810759E-05,8.4375,0,0
3.65561209036969E-06,-1.54180470417487E-05,8.4375,0,0
4.10233678849181E-06,-1.79649869096465E-05,8.4375,0,0
4.07292236559442E-06,-1.76250887307106E-05,8.4375,0,0
3.1171571208688E-06,-1.78731643245555E-05,8.4375,0,0
2.6243292268191E-06,-1.73590397025691E-05,8.4375,0,0
4.09211770602269E-06,-1.74329125002259E-05,8.4375,0,0
6.61990452499595E-06,-1.69751110661309E-05,8.4375,0,0
8.6727632151451E-06,-1.78475420398172E-05,8.4375,0,0
9.62575632001972E-06,-1.76487119460944E-05,8.4375,0,0
8.63007880980149E-06,-1.57841732288944E-05,8.4375,0,0
6.11718996879063E-06,-1.32306340674404E-05,8.4375,0,0
9.77045692707179E-06,-2.03232903004391E-05,8.4375,0,0
8.15319617686328E-06,-1.76355770236114E-05,8.4375,0,0
7.28400209482061E-06,-2.08448436751496E-05,8.4375,0,0
3.94503194911522E-06,-1.88865360541968E-05,8.4375,0,0
5.15288456881535E-06,-2.14206629607361E-05,8.4375,0,0
6.54177119940869E-06,-1.96585406229133E-05,8.4375,0,0
8.020295354072E-06,-1.96374930965249E-05,8.4375,0,0
6.48658260615775E-06,-1.87231198651716E-05,8.4375,0,0
4.94853748023161E-06,-1.93234245671192E-05,8.4375,0,0
3.8633565964119E-06,-1.95591492229141E-05,8.4375,0,0
3.43771171174012E-06,-1.7384849343216E-05,8.4375,0,0
4.10699931308045E-06,-1.65092133102007E-05,8.4375,0,0
4.37837752542691E-06,-1.65496676345356E-05,8.4375,0,0
4.17653927797801E-06,-1.83650299732108E-05,8.4375,0,0
2.55765576184785E-06,-1.73549015016761E-05,8.4375,0,0
1.87969021681056E-06,-1.71111769304844E-05,8.4375,0,0
1.22847745842591E-06,-1.53545843204483E-05,8.4375,0,0
2.0189643237245E-06,-1.40436723086168E-05,8.4375,0,0
2.86531894744257E-06,-1.18986245070118E-05,8.4375,0,0
4.04060574510368E-06,-1.32864879560657E-05,8.4375,0,0
4.19277557739406E-06,-1.5325906133512E-05,8.4375,0,0
5.12047108713887E-06,-1.68415153893875E-05,8.4375,0,0
6.09493054071208E-06,-1.6253759895335E-05,8.4375,0,0
5.75587455386994E-06,-1.6341904483852E-05,8.4375,0,0
3.63350477528002E-06,-1.68894257512875E-05,8.4375,0,0
2.97364363177621E-06,-1.71235315065132E-05,8.4375,0,0
2.05380661100207E-06,-1.32109507831046E-05,8.4375,0,0
1.57586396198894E-06,-1.78461177711142E-05,8.4375,0,0
-6.41888817654035E-08,-1.28477850012132E-05,8.4375,0,0
1.9231221415339E-07,-1.75385121110594E-05,8.4375,0,0
-1.71183148722776E-06,-1.68456190294819E-05,8.4375,0,0
-2.87349257632741E-06,-2.15028667298611E-05,8.4375,0,0
-3.28676924254978E-06,-2.20311430894071E-05,8.4375,0,0
-7.62166450840596E-07,-2.24957857426489E-05,8.4375,0,0
2.06829395210661E-06,-2.06869972316781E-05,8.4375,0,0
4.31621356256073E-06,-1.90785849554231E-05,8.4375,0,0
5.45496504855691E-06,-1.61504976858851E-05,8.4375,0,0
5.780755145679E-06,-1.33966605062597E-05,8.4375,0,0
6.30892191111343E-06,-1.44352698043804E-05,8.4375,0,0
5.40269456905662E-06,-1.43785237014527E-05,8.4375,0,0
4.25428470407496E-06,-1.44703735713847E-05,9.66796875,0,0
3.01489740195393E-06,-1.36806429509306E-05,9.66796875,0,0
2.2498197722598E-06,-1.47778828250011E-05,9.66796875,0,0
1.65483788805432E-06,-1.30422422444099E-05,9.66796875,0,0
1.90052764992288E-06,-1.18295920401579E-05,9.66796875,0,0
2.04364937417267E-06,-1.10753235276206E-05,9.66796875,0,0
2.87351372207922E-06,-1.37985043693334E-05,9.66796875,0,0
3.22952405440446E-06,-1.65093060786603E-05,9.66796875,0,0
3.20089930028189E-06,-1.87076075235382E-05,9.66796875,0,0
2.40608801505005E-06,-1.89342990779551E-05,9.66796875,0,0
5.16663419602992E-07,-1.89283564395737E-05,9.66796875,0,0
-1.07504877178144E-06,-1.69948743860004E-05,9.66796875,0,0
-1.55867485318595E-06,-1.4352383914229E-05,9.66796875,0,0
-3.97061825196943E-07,-1.07767273220816E-05,9.66796875,0,0
-5.93091101563914E-07,-1.52662978507578E-05,9.66796875,0,0
-1.69465965882409E-06,-1.09135326056276E-05,9.66796875,0,0
-1.96434575627791E-06,-1.33509938677889E-05,9.66796875,0,0
1.7103864990986E-07,-1.26061522678356E-05,9.66796875,0,0
4.85535963434813E-07,-1.49981433423818E-05,9.66796875,0,0
-3.41997889563572E-07,-1.36701082738E-05,9.66796875,0,0
-1.33791684220341E-06,-1.31353081087582E-05,9.66796875,0,0
-1.2974102219232E-06,-1.20816239359556E-05,9.66796875,0,0
-6.16148611243261E-07,-1.33755756905884E-05,9.66796875,0,0
-6.57049810115495E-08,-1.43377883432549E-05,9.66796875,0,0
8.50423731435512E-08,-1.32254026539158E-05,9.66796875,0,0
6.10054541994032E-07,-1.30089847516501E-05,9.66796875,0,0
1.19727701530792E-06,-1.28989413497038E-05,9.66796875,0,0
1.01617172276747E-06,-1.38505638460629E-05,9.66796875,0,0
8.77609579674754E-07,-1.32295799630811E-05,9.66796875,0,0
1.24638722809323E-06,-1.48406452353811E-05,9.66796875,0,0
2.25358053285163E-06,-1.57686754391762E-05,9.66796875,0,0
2.24379232349747E-06,-1.6664254872012E-05,9.66796875,0,0
1.83268491582567E-06,-1.63917793543078E-05,9.66796875,0,0
2.43408999267558E-06,-1.78638892975869E-05,9.66796875,0,0
2.8857998586318E-06,-1.86043453140883E-05,9.66796875,0,0
2.48108244704781E-06,-2.00578342628432E-05,9.66796875,0,0
2.40282747654419E-06,-2.07609991775826E-05,9.66796875,0,0
1.37862878091255E-06,-1.96716409845976E-05,9.66796875,0,0
2.03987170266373E-07,-1.77685069502331E-05,9.66796875,0,0
-1.56399536876961E-07,-1.74855122168083E-05,9.66796875,0,0
1.33589836082137E-07,-1.48331318996497E-05,9.66796875,0,0
8.53565381930821E-07,-2.01783495867858E-05,9.66796875,0,0
2.11174528885749E-06,-1.30906164486078E-05,9.66796875,0,0
3.78011441171111E-06,-1.62704218382714E-05,9.66796875,0,0
3.86148940378916E-06,-1.5260515283444E-05,9.66796875,0,0
1.24069595131004E-06,-1.91828366951086E-05,9.66796875,0,0
4.00633865638156E-07,-1.81290924956556E-05,9.66796875,0,0
2.73894988822576E-06,-1.87723107956117E-05,9.66796875,0,0
4.90602678837604E-06,-1.71437350218184E-05,9.66796875,0,0
5.10201425640844E-06,-1.66650352184661E-05,9.66796875,0,0
4.22329821958556E-06,-1.65067958732834E-05,9.66796875,0,0
3.71318060388148E-06,-1.67472589964746E-05,9.66796875,0,0
3.4340091588092E-06,-1.91413528227713E-05,9.66796875,0,0
2.65848598246521E-06,-1.97075169126038E-05,9.66796875,0,0
1.89055845112307E-06,-2.06078020710265E-05,9.66796875,0,0
2.760787083389E-06,-2.01547045435291E-05,9.66796875,0,0
4.27120130552794E-06,-2.21180944208754E-05,9.66796875,0,0
5.46596993444837E-06,-2.17316937778378E-05,9.66796875,0,0
6.13943302596454E-06,-2.25879284698749E-05,9.66796875,0,0
6.03249236519332E-06,-2.12024442589609E-05,9.66796875,0,0
6.0800853134424E-06,-1.93547166418284E-05,9.66796875,0,0
6.84554106555879E-06,-1.69764789461624E-05,9.66796875,0,0
7.28653003534419E-06,-1.68376755027566E-05,9.66796875,0,0
7.22669710739865E-06,-1.65973560797283E-05,9.66796875,0,0
6.63136506773299E-06,-1.77376623469172E-05,9.66796875,0,0
5.58117608306929E-06,-1.78355403477326E-05,9.66796875,0,0
4.01762690671603E-06,-1.72774016391486E-05,9.66796875,0,0
1.77163963144267E-06,-1.3487429896486E-05,9.66796875,0,0
3.0405435609282E-06,-1.73072185134515E-05,9.66796875,0,0
4.95932363264728E-06,-1.09272377812886E-05,9.66796875,0,0
7.83819359639892E-06,-1.56511796376435E-05,9.66796875,0,0
7.0262453846226E-06,-1.46696947922464E-05,9.66796875,0,0
5.002192210668E-06,-1.67440521181561E-05,9.66796875,0,0
3.25697055814089E-06,-1.53794444486266E-05,9.66796875,0,0
4.00321641791379E-06,-1.7120320990216E-05,9.66796875,0,0
3.89661136068753E-06,-1.63131608132971E-05,9.66796875,0,0
2.53828102358966E-06,-1.55971665662946E-05,9.66796875,0,0
1.43459203627572E-06,-1.57765407493571E-05,9.66796875,0,0
1.19332980830222E-06,-1.62687301781261E-05,9.66796875,0,0
2.33967671192659E-06,-1.84421551239211E-05,9.66796875,0,0
3.40137057719403E-06,-2.00576323550195E-05,9.66796875,0,0
3.5297955491842E-06,-2.2753476514481E-05,9.66796875,0,0
2.57218107435619E-06,-2.21055342990439E-05,9.66796875,0,0
2.19042431126582E-06,-2.16498374356888E-05,9.66796875,0,0
2.11573978958768E-06,-1.99656205950305E-05,9.66796875,0,0
2.71397948381491E-06,-2.06252152565867E-05,9.66796875,0,0
3.08491144096479E-06,-1.97063272935338E-05,9.66796875,0,0
2.98240161100694E-06,-1.91448598343413E-05,9.66796875,0,0
2.51369806392177E-06,-1.83167267095996E-05,9.66796875,0,0
2.59470425589825E-06,-2.08567525987746E-05,9.66796875,0,0
2.90035677608103E-06,-2.44561197177973E-05,9.66796875,0,0
2.61579225480091E-06,-2.75289803539636E-05,9.66796875,0,0
2.2587594230572E-06,-2.71162680292036E-05,9.66796875,0,0
1.96893893189554E-06,-2.51310266321525E-05,9.66796875,0,0
1.50748564919923E-06,-1.78222617250867E-05,9.66796875,0,0
2.11819019568793E-06,-2.41821635427186E-05,9.66796875,0,0
2.26588554141927E-06,-1.79661838046741E-05,9.66796875,0,0
2.83011763713148E-06,-2.35273346333997E-05,9.66796875,0,0
1.71779663560301E-06,-1.86957731784787E-05,9.66796875,0,0
5.27023075846955E-07,-1.88188878382789E-05,9.66796875,0,0
-7.93085973782581E-07,-1.45715512189781E-05,9.66796875,0,0
-5.49965761820204E-07,-1.55163470481057E-05,9.66796875,0,0
-3.35793572503462E-07,-1.51179210661212E-05,9.66796875,0,0
2.09124607408739E-07,-1.4958191968617E-05,9.66796875,0,0
1.40258555347827E-06,-1.3918815056968E-05,9.66796875,0,0
2.90009302261751E-06,-1.20791792141972E-05,9.66796875,0,0
3.81832160201157E-06,-1.25052974908613E-05,9.66796875,0,0
3.16459022542404E-06,-1.25367660075426E-05,9.66796875,0,0
2.36593086810899E-06,-1.52606517076492E-05,9.66796875,0,0
2.40816370933317E-06,-1.54072731675114E-05,9.66796875,0,0
2.89833997157984E-06,-1.65740384545643E-05,9.66796875,0,0
2.80158405985276E-06,-1.48553208418889E-05,9.66796875,0,0
3.94077096643741E-06,-1.48511217048508E-05,9.66796875,0,0
5.1058959797956E-06,-1.33678677229909E-05,9.66796875,0,0
5.00285523230559E-06,-1.42329463415081E-05,9.66796875,0,0
3.80342657990695E-06,-1.49091647472233E-05,9.66796875,0,0
3.18633715323813E-06,-1.63200857059564E-05,9.66796875,0,0
3.16632463182032E-06,-1.50642563312431E-05,9.66796875,0,0
4.09242920795805E-06,-1.38010691443924E-05,9.66796875,0,0
4.8415245146316E-06,-1.35063492052723E-05,9.66796875,0,0
3.99410964746494E-06,-1.42213993967744E-05,9.66796875,0,0
2.9950303996884E-06,-1.2148648238508E-05,9.66796875,0,0
4.38821052739513E-06,-1.7716818547342E-05,9.66796875,0,0
4.4493672248791E-06,-1.40483098221011E-05,9.66796875,0,0
7.39620281819953E-06,-1.7946355001186E-05,9.66796875,0,0
7.67645269661443E-06,-1.66888985404512E-05,9.66796875,0,0
7.76375418354291E-06,-1.79023936652811E-05,9.66796875,0,0
6.72724218020448E-06,-1.59197988978121E-05,9.66796875,0,0
6.12752637607628E-06,-1.56302594405133E-05,9.66796875,0,0
6.56557222100673E-06,-1.42237531690625E-05,9.66796875,0,0
