biceps_emg, triceps_emg, subject_position, position_estimate, brace_position
7.66067478252808E-06,-1.9065160813625E-05,0.52734375,0,0
6.51867412670981E-06,-2.0200090148137E-05,0.52734375,0,0
6.01312103754026E-06,-2.00383838091511E-05,0.52734375,0,0
5.76203683522181E-06,-1.92521929420764E-05,0.52734375,0,0
4.4541911847773E-06,-1.79024846147513E-05,0.52734375,0,0
3.71882993022155E-06,-1.79095513885841E-05,0.52734375,0,0
4.11451719628531E-06,-1.74431334016845E-05,0.52734375,0,0
4.85115015180781E-06,-1.77045094460482E-05,0.52734375,0,0
3.33496655002818E-06,-1.65724159160163E-05,0.52734375,0,0
2.39339988183929E-06,-1.89912279893178E-05,0.52734375,0,0
2.39069390772784E-06,-2.117673830071E-05,0.52734375,0,0
3.98343490815023E-06,-2.32353559113108E-05,0.52734375,0,0
4.55832059742534E-06,-2.2944703232497E-05,0.52734375,0,0
4.70887107439921E-06,-2.38248776440741E-05,0.52734375,0,0
4.98510507895844E-06,-2.37182684941217E-05,0.52734375,0,0
6.13981274000253E-06,-2.38211196119664E-05,0.52734375,0,0
5.89744695389527E-06,-2.29447359743062E-05,0.52734375,0,0
4.31779699283652E-06,-2.12805098271929E-05,0.52734375,0,0
2.14777696783131E-06,-1.98969446500996E-05,0.52734375,0,0
2.63156175606127E-06,-1.88183548743837E-05,0.52734375,0,0
3.41842269335757E-06,-1.32052200569888E-05,0.52734375,0,0
3.50656068803801E-06,-1.66682148119435E-05,0.52734375,0,0
-7.35116714167816E-07,-1.09980428533163E-05,0.52734375,0,0
-2.15606883102737E-06,-1.57636059157085E-05,0.52734375,0,0
-2.46920853896881E-06,-1.2353863894532E-05,0.52734375,0,0
2.57011066651103E-07,-1.33492721943185E-05,0.52734375,0,0
1.06271147615189E-06,-1.09436496131821E-05,0.52734375,0,0
7.53229357997043E-07,-1.0596710126265E-05,0.52734375,0,0
2.1919426274053E-07,-9.01817020348972E-06,0.52734375,0,0
-2.4233270323748E-07,-9.35827665671241E-06,0.52734375,0,0
1.59347777639596E-07,-1.29327972899773E-05,0.52734375,0,0
4.03318267672148E-08,-1.6326421246049E-05,0.52734375,0,0
-7.29137525468104E-07,-1.83354404725833E-05,0.52734375,0,0
-1.91281583283853E-06,-1.58322472998407E-05,0.52734375,0,0
-2.68724966190348E-06,-1.42338030855171E-05,0.52734375,0,0
-3.56955570168793E-06,-1.31280994537519E-05,0.52734375,0,0
-3.97729763790267E-06,-1.45955227708328E-05,0.52734375,0,0
-4.13351244787918E-06,-1.33516323330696E-05,0.52734375,0,0
-3.64422476195614E-06,-1.26573631860083E-05,0.52734375,0,0
-3.85769681088277E-06,-1.20683362183627E-05,0.52734375,0,0
-4.04445654567098E-06,-1.31892102217535E-05,0.52734375,0,0
-3.95914912587614E-06,-1.29239933812642E-05,0.52734375,0,0
-3.98588872485561E-06,-1.34405308926944E-05,0.52734375,0,0
-5.15494502906222E-06,-1.36305625346722E-05,0.52734375,0,0
-5.67195547773736E-06,-1.50154337461572E-05,0.52734375,0,0
-4.98695499118185E-06,-1.69092618307332E-05,0.52734375,0,0
-3.29357862938195E-06,-1.90418322745245E-05,0.52734375,0,0
-1.4871117173243E-06,-1.71577139553847E-05,0.52734375,0,0
-2.66556116912398E-06,-2.52999834629009E-05,0.52734375,0,0
-2.37487256526947E-06,-2.09357112908037E-05,0.52734375,0,0
-1.90059529359132E-06,-2.67785708274459E-05,0.52734375,0,0
-2.66078018285043E-07,-2.39536766457604E-05,0.52734375,0,0
3.35048611077582E-07,-2.6526024157647E-05,0.52734375,0,0
4.32045084153287E-07,-2.51977289735805E-05,0.52734375,0,0
8.10641950010904E-07,-2.61756904365029E-05,0.52734375,0,0
1.24201710605121E-06,-2.58444124483503E-05,0.52734375,0,0
2.04421417038247E-06,-2.43968934228178E-05,0.52734375,0,0
2.76444507107954E-06,-2.0858989955741E-05,0.52734375,0,0
1.40607437515428E-06,-1.69790546351578E-05,0.52734375,0,0
3.50668187820702E-08,-1.6420939573436E-05,0.52734375,0,0
1.00841354822023E-07,-1.54467961692717E-05,0.52734375,0,0
8.98823316219932E-07,-1.60966392286355E-05,0.52734375,0,0
1.43008651320997E-06,-1.48177532537375E-05,0.52734375,0,0
1.3594856227428E-06,-1.42708695420879E-05,0.52734375,0,0
1.63960521604167E-06,-1.05235412775073E-05,0.52734375,0,0
2.69554925580451E-06,-9.52752816374414E-06,0.52734375,0,0
3.68717292076326E-06,-9.60416491579963E-06,0.52734375,0,0
3.29340491589392E-06,-1.18643829409848E-05,0.52734375,0,0
2.69724205281818E-06,-1.4465526874119E-05,0.52734375,0,0
2.8948275030416E-06,-1.8491737137083E-05,0.52734375,0,0
3.97206986235688E-06,-1.96468372450909E-05,0.52734375,0,0
3.85386647394625E-06,-1.97459248738596E-05,0.52734375,0,0
3.26345025314367E-06,-1.94839085452259E-05,0.52734375,0,0
3.42963744515146E-06,-1.82348576345248E-05,0.52734375,0,0
3.11784424411599E-06,-1.22698074846994E-05,0.52734375,0,0
4.46466447101557E-06,-1.54281879076734E-05,0.52734375,0,0
2.74576837000495E-06,-8.78037099028006E-06,0.52734375,0,0
2.68537655756518E-06,-1.156731377705E-05,0.52734375,0,0
2.58517047768692E-06,-1.12051675387193E-05,0.52734375,0,0
5.06281003254117E-06,-1.72305008163676E-05,0.52734375,0,0
5.62473769605276E-06,-1.79035578184994E-05,0.52734375,0,0
5.00091891808552E-06,-1.86641809705179E-05,0.52734375,0,0
3.9062661016942E-06,-1.64845569088357E-05,0.52734375,0,0
3.12179463435314E-06,-1.30563512357185E-05,0.52734375,0,0
1.68000383382605E-06,-1.27655112009961E-05,0.52734375,0,0
4.76946752314689E-07,-1.69731993082678E-05,0.52734375,0,0
2.98000600196247E-06,-2.45185456151376E-05,0.52734375,0,0
6.35895548839471E-06,-2.73813620879082E-05,0.52734375,0,0
6.21557728663902E-06,-2.53107409662334E-05,0.52734375,0,0
2.5659894618002E-06,-1.97678818949498E-05,0.52734375,0,0
4.39200647406324E-07,-1.88123740372248E-05,0.52734375,0,0
1.87126431683282E-07,-1.96270557353273E-05,0.52734375,0,0
1.4831367707302E-06,-2.13282601180254E-05,0.52734375,0,0
3.37161645802553E-06,-2.000581662287E-05,0.52734375,0,0
4.50477955382667E-06,-1.89881993719609E-05,0.52734375,0,0
3.41585541718814E-06,-1.7032523828675E-05,0.52734375,0,0
2.00649401449482E-06,-1.59961346071213E-05,0.52734375,0,0
2.87281909550074E-06,-1.52687698573573E-05,0.52734375,0,0
5.05930029248702E-06,-1.53450801008148E-05,0.52734375,0,0
4.93734296469484E-06,-1.47468081195257E-05,0.52734375,0,0
3.61191200681787E-06,-1.41649470606353E-05,0.52734375,0,0
1.76982632638101E-06,-1.29414975162945E-05,0.52734375,0,0
2.51736014433845E-06,-1.81110790435923E-05,0.52734375,0,0
2.80018502962776E-06,-1.21228740681545E-05,0.52734375,0,0
3.22488699566748E-06,-1.45000667544082E-05,0.52734375,0,0
1.05992285170942E-06,-1.29162335724686E-05,0.52734375,0,0
1.35856771521503E-06,-1.59682804223849E-05,0.52734375,0,0
2.80478889180813E-06,-1.4554259905708E-05,0.52734375,0,0
3.84325812774478E-06,-1.53504079207778E-05,0.52734375,0,0
2.84894895230536E-06,-1.79876478796359E-05,0.52734375,0,0
2.29891702474561E-06,-2.16717708099168E-05,0.52734375,0,0
3.9779074541002E-06,-2.39049422816606E-05,0.52734375,0,0
5.67270944884513E-06,-2.35698898904957E-05,0.52734375,0,0
5.72308590562898E-06,-2.48849100898951E-05,0.52734375,0,0
4.41794782091165E-06,-2.64135778706986E-05,0.52734375,0,0
3.23522840517398E-06,-2.82443379546748E-05,0.52734375,0,0
1.83045062840392E-06,-2.60823617281858E-05,0.52734375,0,0
9.24572475469176E-07,-2.38466909650015E-05,0.52734375,0,0
6.050942715774E-07,-2.00587928702589E-05,0.52734375,0,0
1.15751936391462E-06,-1.7016373021761E-05,0.52734375,0,0
1.9456961126707E-06,-1.43662718983251E-05,0.52734375,0,0
3.74681872017391E-06,-1.37390779855195E-05,0.52734375,0,0
5.02275543112773E-06,-1.27986295410665E-05,0.52734375,0,0
4.47774255007971E-06,-1.43798115459504E-05,0.52734375,0,0
3.44510976901802E-06,-1.65635647135787E-05,0.52734375,0,0
3.68137511941313E-06,-1.65553974511568E-05,0.52734375,0,0
4.64221602669568E-06,-1.28536948977853E-05,0.52734375,0,0
6.82423660691711E-06,-1.05524386526668E-05,0.52734375,0,0
6.92512185196392E-06,-9.82566234597471E-06,0.52734375,0,0
8.3085933511029E-06,-1.56194182636682E-05,0.52734375,0,0
3.95004053643788E-06,-1.36294765979983E-05,0.52734375,0,0
5.45042803423712E-06,-1.60196032084059E-05,0.52734375,0,0
4.34583034802927E-06,-1.52291704580421E-05,0.52734375,0,0
5.73243596591055E-06,-1.77728907146957E-05,0.52734375,0,0
3.4670947570703E-06,-1.75531840795884E-05,0.52734375,0,0
9.41963946843316E-07,-1.99499208974885E-05,0.52734375,0,0
-9.73976398199738E-07,-2.35237421293277E-05,0.52734375,0,0
5.83752182592434E-07,-2.60158176388359E-05,0.52734375,0,0
2.76997707260307E-06,-2.52610898314742E-05,0.52734375,0,0
2.7203720947E-06,-2.13152852666099E-05,0.52734375,0,0
2.21949676415534E-06,-1.81408522621496E-05,0.52734375,0,0
1.55044256189285E-06,-1.60571398737375E-05,0.52734375,0,0
2.8453014238039E-06,-1.67718608281575E-05,0.52734375,0,0
3.84136546927039E-06,-1.67146426974796E-05,0.52734375,0,0
4.58922295365483E-06,-1.65073815878714E-05,0.52734375,0,0
3.84351642424008E-06,-1.37227216328029E-05,0.52734375,0,0
3.69727536053688E-06,-1.07506357380771E-05,0.52734375,0,0
1.5202139138637E-06,-8.50158357934561E-06,0.52734375,0,0
-1.81322661774175E-07,-9.91422166407574E-06,0.52734375,0,0
-1.03970727138858E-07,-1.16921919470769E-05,0.52734375,0,0
1.66577729032724E-06,-1.33815501612844E-05,0.52734375,0,0
2.50038692684029E-06,-1.59962855832418E-05,0.52734375,0,0
3.25060887007567E-06,-1.68699025380192E-05,0.52734375,0,0
2.61106106336229E-06,-1.41050395541242E-05,0.52734375,0,0
1.38417192374618E-06,-1.16843739306205E-05,0.52734375,0,0
4.25314880203587E-07,-1.11766166810412E-05,0.52734375,0,0
4.32863743071721E-07,-2.04583975573769E-05,0.52734375,0,0
7.73004501297692E-07,-2.18236527871341E-05,0.52734375,0,0
1.74869535385369E-06,-2.50553166551981E-05,0.52734375,0,0
2.30468754125468E-06,-2.29476318054367E-05,0.52734375,0,0
3.02930016005121E-06,-2.19916382775409E-05,0.52734375,0,0
3.62716900781379E-06,-1.68959013535641E-05,0.52734375,0,0
4.19707566834404E-06,-1.42239978231373E-05,0.52734375,0,0
4.08800906370743E-06,-1.24614161904901E-05,0.52734375,0,0
3.45467947227007E-06,-1.26207187349792E-05,0.52734375,0,0
2.68599251285195E-06,-1.2935268387082E-05,0.52734375,0,0
2.30359137276537E-06,-1.27651410366525E-05,0.52734375,0,0
3.31605497194687E-06,-1.31348087961669E-05,0.52734375,0,0
4.30553609476192E-06,-1.29643522086553E-05,0.52734375,0,0
4.16149623561068E-06,-1.35853115352802E-05,0.52734375,0,0
3.52913411916234E-06,-1.28044757730095E-05,0.52734375,0,0
3.63190019925241E-06,-1.39316061904537E-05,0.52734375,0,0
3.39283519679157E-06,-1.45726862683659E-05,0.52734375,0,0
1.86008935543214E-06,-1.605514989933E-05,0.52734375,0,0
4.10088688340693E-07,-1.71458359545795E-05,0.52734375,0,0
1.17386196052394E-06,-1.89316742762458E-05,0.52734375,0,0
2.87837110590772E-06,-1.78176869667368E-05,0.52734375,0,0
2.75989850706537E-06,-1.49286643136293E-05,0.52734375,0,0
1.73315140727937E-06,-1.2559487913677E-05,0.52734375,0,0
2.5937556529243E-06,-1.45818457895075E-05,0.52734375,0,0
4.15733347836067E-06,-1.80400093086064E-05,0.52734375,0,0
4.22820630774368E-06,-1.83354768523714E-05,0.52734375,0,0
1.89355750990217E-06,-1.21065040730173E-05,0.52734375,0,0
1.80297320184764E-06,-1.48674471347476E-05,0.52734375,0,0
3.33628975113243E-07,-8.16007468529278E-06,0.52734375,0,0
8.50353785608604E-07,-1.18774314614711E-05,0.52734375,0,0
2.37834658634029E-08,-1.02376552604255E-05,0.52734375,0,0
5.38037227215682E-07,-1.30780854306067E-05,0.52734375,0,0
7.52906203160819E-07,-1.27661951410118E-05,0.52734375,0,0
7.76000206315075E-07,-1.50303067130153E-05,0.52734375,0,0
1.20574532047613E-06,-1.51379790622741E-05,0.52734375,0,0
3.40074893756537E-06,-1.42565804708283E-05,0.52734375,0,0
4.75247452413896E-06,-1.37748738779919E-05,0.52734375,0,0
3.84373879569466E-06,-1.21731673061731E-05,0.52734375,0,0
2.43512295128312E-06,-1.08194808490225E-05,0.52734375,0,0
6.61042292904312E-07,-8.47450974106323E-06,0.52734375,0,0
-1.07520668279903E-06,-8.11840891401516E-06,0.52734375,0,0
-5.37330606675823E-07,-7.27649239706807E-06,0.52734375,0,0
3.4659531138459E-06,-9.92504828900564E-06,0.52734375,0,0
7.37804748496274E-06,-1.24735670397058E-05,0.52734375,0,0
8.41423570818733E-06,-1.54921253852081E-05,0.52734375,0,0
7.11285156285157E-06,-1.55387224367587E-05,0.52734375,0,0
5.91131538385525E-06,-1.53156888700323E-05,0.52734375,0,0
5.48787238585646E-06,-1.47285891216598E-05,0.52734375,0,0
7.23351513443049E-06,-1.52540887938812E-05,0.52734375,0,0
8.23782556835795E-06,-1.71813426277367E-05,0.52734375,0,0
7.29510884411866E-06,-2.18584827962331E-05,0.52734375,0,0
6.22757988821832E-06,-2.4963619580376E-05,0.52734375,0,0
6.19087313680211E-06,-2.57650608546101E-05,0.52734375,0,0
3.39228199663921E-06,-2.08135079446947E-05,0.52734375,0,0
2.87796092379722E-06,-2.98887025564909E-05,0.52734375,0,0
8.10830727004941E-07,-2.39417495322414E-05,0.52734375,0,0
3.20637263939716E-06,-2.96716116281459E-05,0.52734375,0,0
2.35519428315456E-06,-2.19283065234777E-05,0.52734375,0,0
2.60438559962495E-06,-1.97642348211957E-05,0.52734375,0,0
1.01996488410805E-06,-1.54706722241826E-05,0.52734375,0,0
-2.93067650147805E-08,-1.77856109075947E-05,0.52734375,0,0
-4.43719841314305E-07,-1.69479790201876E-05,0.52734375,0,0
8.42538327106013E-07,-1.59409974003211E-05,0.52734375,0,0
2.31882449952536E-06,-1.63916174642509E-05,0.52734375,0,0
1.74764761595725E-06,-1.57546583068324E-05,0.52734375,0,0
9.85685119303525E-07,-1.51636431837687E-05,0.52734375,0,0
3.80806227440189E-07,-1.391420391883E-05,0.52734375,0,0
8.91007346126571E-07,-1.71355986822164E-05,0.52734375,0,0
1.46227500863461E-06,-1.75191908056149E-05,0.52734375,0,0
3.32568083649676E-06,-1.86570650839712E-05,0.52734375,0,0
4.87236047774786E-06,-1.77268138941145E-05,0.52734375,0,0
4.51027017334127E-06,-1.97549070435343E-05,0.52734375,0,0
1.29713453134173E-06,-1.99965943465941E-05,0.52734375,0,0
-1.09136442461022E-06,-2.13594448723597E-05,0.52734375,0,0
-1.00106751688145E-06,-2.11882997973589E-05,0.52734375,0,0
9.15277666990733E-07,-2.32433503697393E-05,0.52734375,0,0
1.79121843757457E-06,-2.40215722442372E-05,0.52734375,0,0
1.83628162631067E-06,-2.21736645471537E-05,0.52734375,0,0
1.43000568186835E-06,-1.90653227036819E-05,0.52734375,0,0
1.70807345512003E-06,-1.85420030902606E-05,0.52734375,0,0
9.56445205702039E-07,-1.49994884850457E-05,0.52734375,0,0
1.09001905457262E-06,-1.95530028577195E-05,0.52734375,0,0
9.03726117940096E-07,-1.38934237838839E-05,0.52734375,0,0
2.33599712373689E-06,-2.04762709472561E-05,0.52734375,0,0
2.05689684662502E-06,-2.03700874408241E-05,0.52734375,0,0
3.22569576383103E-07,-2.39299824897898E-05,0.52734375,0,0
-3.45595019268785E-08,-2.16667194763431E-05,0.52734375,0,0
1.1855778438985E-06,-2.0787911125808E-05,0.52734375,0,0
1.28879776184476E-06,-1.89342790690716E-05,0.52734375,0,0
2.60711232158428E-07,-1.89741604117444E-05,0.52734375,0,0
-1.06999732452095E-06,-1.79177532118047E-05,0.52734375,0,0
-9.4064347422318E-07,-1.59578412421979E-05,0.52734375,0,0
2.94259933752983E-07,-1.73301032191375E-05,0.52734375,0,0
7.68212828461401E-07,-2.00241047423333E-05,0.52734375,0,0
1.06661536847241E-06,-2.46551517193438E-05,0.52734375,0,0
2.13904490919958E-06,-2.45536648435518E-05,0.52734375,0,0
2.71589192379906E-06,-2.46736235567369E-05,0.52734375,0,0
2.09159497899236E-06,-2.22245707846014E-05,0.52734375,0,0
1.75399986801494E-06,-2.10596408578567E-05,0.52734375,0,0
2.3616400994797E-06,-2.0033388864249E-05,0.52734375,0,0
3.37758501700591E-06,-2.20795718632871E-05,0.52734375,0,0
3.57985663868021E-06,-2.28397293540183E-05,0.52734375,0,0
4.08149662689539E-06,-2.34030976571376E-05,0.52734375,0,0
5.31633031641832E-06,-2.19674529944314E-05,0.52734375,0,0
5.21319225299521E-06,-2.0980702174711E-05,0.52734375,0,0
3.2260163607134E-06,-2.06095137400553E-05,0.52734375,0,0
1.51541701143287E-06,-1.93007072084583E-05,0.52734375,0,0
6.87058616222203E-07,-1.45787589644897E-05,0.52734375,0,0
1.48733818150504E-06,-2.08271339943167E-05,0.52734375,0,0
1.88659055311291E-06,-1.72475047293119E-05,0.52734375,0,0
1.83430665856577E-06,-2.39782912103692E-05,0.52734375,0,0
1.47775222103519E-06,-2.27698856178904E-05,0.52734375,0,0
3.22671053254453E-06,-2.35577936109621E-05,0.52734375,0,0
5.38474614586448E-06,-2.10478046938078E-05,0.52734375,0,0
4.95062386107747E-06,-2.07507673621876E-05,0.52734375,0,0
3.32088279719756E-06,-1.69407649082132E-05,0.52734375,0,0
2.93682933261152E-06,-1.55198940774426E-05,0.52734375,0,0
3.91575940739131E-06,-1.56536516442429E-05,0.52734375,0,0
4.04808088205755E-06,-1.48774661283824E-05,0.52734375,0,0
3.05738194583682E-06,-1.60116323968396E-05,0.52734375,0,0
2.80717654277396E-06,-1.57302602019627E-05,0.52734375,0,0
3.57280009666283E-06,-1.56513906404143E-05,0.52734375,0,0
4.4221528696653E-06,-1.32930472318549E-05,0.52734375,0,0
4.91417995363008E-06,-1.34500842250418E-05,0.52734375,0,0
4.72977308163536E-06,-1.22010587801924E-05,0.52734375,0,0
3.50128652826243E-06,-1.11628742160974E-05,0.52734375,0,0
1.59021101353574E-06,-9.17592933546985E-06,0.52734375,0,0
2.37193660268531E-07,-9.34291529119946E-06,0.52734375,0,0
-3.05173614378873E-07,-8.48820491228253E-06,0.52734375,0,0
-5.5571529600229E-09,-9.97056031337706E-06,0.52734375,0,0
1.802615656743E-06,-1.14268677862128E-05,0.52734375,0,0
2.62305820797337E-06,-1.17833733384032E-05,0.52734375,0,0
2.08249321076437E-06,-1.10905675683171E-05,0.52734375,0,0
3.59248178938287E-06,-1.04387936517014E-05,0.52734375,0,0
5.03353976455401E-06,-6.96316874382319E-06,0.52734375,0,0
8.08355707704322E-06,-9.06249351828592E-06,0.52734375,0,0
6.03178023084183E-06,-8.0375784818898E-06,0.52734375,0,0
6.10362894803984E-06,-1.27241928566946E-05,0.52734375,0,0
5.66910239285789E-06,-1.22363362606848E-05,0.52734375,0,0
7.62818081057048E-06,-1.34788670038688E-05,0.52734375,0,0
7.18968885848881E-06,-1.33289786390378E-05,0.52734375,0,0
6.0102938732598E-06,-1.48851868289057E-05,0.52734375,0,0
5.25034056408913E-06,-1.45621788760764E-05,0.52734375,0,0
4.24779500463046E-06,-1.42152130138129E-05,0.52734375,0,0
3.11906501337944E-06,-1.41104364956846E-05,0.52734375,0,0
1.94848621504207E-06,-1.45031735883094E-05,0.52734375,0,0
1.74375838923879E-06,-1.61110237968387E-05,0.52734375,0,0
1.89754916846141E-06,-1.62899541464867E-05,0.52734375,0,0
2.4046430553426E-06,-1.68519582075533E-05,0.52734375,0,0
2.29622241931793E-06,-1.60812160174828E-05,0.52734375,0,0
2.90301363747858E-06,-1.54181507241447E-05,0.52734375,0,0
4.49511526312563E-06,-1.32354907691479E-05,0.52734375,0,0
5.87504791838001E-06,-1.22835836009472E-05,0.52734375,0,0
3.84642908102251E-06,-1.16400215119938E-05,0.52734375,0,0
3.88889048963392E-07,-1.1667150829453E-05,0.52734375,0,0
-9.65171921052388E-07,-1.10966775537236E-05,0.52734375,0,0
-5.39916378272665E-08,-1.20533677545609E-05,0.52734375,0,0
-2.8424355491552E-07,-1.37891292979475E-05,0.52734375,0,0
-2.33249906500532E-07,-1.59159808390541E-05,0.52734375,0,0
1.25249039228947E-06,-1.69702198036248E-05,0.52734375,0,0
3.0451981274382E-06,-1.76639496203279E-05,0.52734375,0,0
2.45232263296202E-06,-1.67422913364135E-05,0.52734375,0,0
1.90356581697415E-06,-2.68297917500604E-05,0.52734375,0,0
8.72239127147623E-07,-2.72114175459137E-05,0.52734375,0,0
3.23127937917889E-06,-3.4220443922095E-05,0.52734375,0,0
3.54710346073261E-06,-2.59665939665865E-05,0.52734375,0,0
5.96056815993506E-06,-1.87294317584019E-05,0.52734375,0,0
8.05188483354868E-06,-1.01641935543739E-05,0.52734375,0,0
9.24882988329045E-06,-9.73894657363417E-06,0.52734375,0,0
7.12972314431681E-06,-1.06604566099122E-05,0.52734375,0,0
4.48477430836647E-06,-1.28458568724454E-05,0.52734375,0,0
3.73702368960949E-06,-1.43571014632471E-05,0.52734375,0,0
3.31433830069727E-06,-1.32799605125911E-05,0.52734375,0,0
2.77178901342268E-06,-1.3767959899269E-05,0.52734375,0,0
3.42087673743663E-06,-1.45627946039895E-05,0.52734375,0,0
5.72794351683115E-06,-1.73970438481774E-05,0.52734375,0,0
6.63203172734939E-06,-1.73336848092731E-05,0.52734375,0,0
6.51514073979342E-06,-1.87893401744077E-05,0.52734375,0,0
6.09359130976372E-06,-1.94833082787227E-05,0.52734375,0,0
6.33425088381046E-06,-2.17113392864121E-05,0.52734375,0,0
4.5850797505409E-06,-2.1267429474392E-05,0.52734375,0,0
1.35367486109317E-06,-2.12267168535618E-05,0.52734375,0,0
-9.43572558753658E-07,-2.21600203076378E-05,0.52734375,0,0
-9.53933636083093E-07,-2.57577976299217E-05,0.52734375,0,0
2.17134843438771E-08,-2.59288099186961E-05,0.52734375,0,0
2.75669049187854E-06,-2.34022645599907E-05,0.52734375,0,0
4.74241187475855E-06,-2.10095768125029E-05,0.52734375,0,0
4.06616663894965E-06,-2.12130034924485E-05,0.52734375,0,0
1.36661424221529E-06,-1.64804314408684E-05,0.52734375,0,0
1.0106354011441E-06,-2.18317036342341E-05,0.52734375,0,0
3.94822336602374E-07,-1.34090487335925E-05,0.52734375,0,0
1.89128513738979E-06,-1.53836990648415E-05,0.52734375,0,0
1.5974362668203E-06,-9.93950015981682E-06,0.52734375,0,0
2.08618121178006E-06,-1.15129569167038E-05,0.52734375,0,0
2.18356535697239E-06,-9.23171046451898E-06,0.52734375,0,0
8.48582658363739E-07,-1.06694742498803E-05,0.52734375,0,0
-7.78565947712195E-07,-1.24607222460327E-05,0.52734375,0,0
-2.56821948596553E-07,-1.41081991387182E-05,0.52734375,0,0
9.21791695418506E-07,-1.44788700708887E-05,0.52734375,0,0
1.44279692904092E-06,-1.26220165839186E-05,0.52734375,0,0
2.97499627777142E-06,-1.19147407531273E-05,0.52734375,0,0
4.98419967698283E-06,-1.15768543764716E-05,0.52734375,0,0
6.37811172055081E-06,-1.51228960021399E-05,0.52734375,0,0
6.25951906840783E-06,-1.81442264874931E-05,0.52734375,0,0
5.66161043025204E-06,-2.31288468057755E-05,0.52734375,0,0
4.66596020487486E-06,-2.53123234870145E-05,0.52734375,0,0
3.35511117555143E-06,-2.78970492217923E-05,0.52734375,0,0
1.60744025379245E-06,-2.78427087323507E-05,0.52734375,0,0
1.16776345748804E-06,-2.63959555013571E-05,0.52734375,0,0
1.89857792065595E-06,-2.26045231102034E-05,0.52734375,0,0
2.49770801019622E-06,-2.10613306990126E-05,0.52734375,0,0
2.63746005657595E-06,-1.97294029931072E-05,0.52734375,0,0
3.36194693772995E-06,-1.828760105127E-05,0.52734375,0,0
4.74117268822738E-06,-1.58326129167108E-05,0.52734375,0,0
4.81893857795512E-06,-1.50951582327252E-05,0.52734375,0,0
1.76100229509757E-06,-1.39049825520488E-05,0.52734375,0,0
1.58549383399986E-07,-1.93241794477217E-05,0.52734375,0,0
-2.03497120310203E-06,-1.14552240120247E-05,0.52734375,0,0
-8.10793608252425E-07,-1.15413495223038E-05,0.52734375,0,0
-2.64724076259881E-06,-8.40164193505188E-06,0.52734375,0,0
-2.35315633290156E-06,-9.50397497945232E-06,0.52734375,0,0
-4.41654464111707E-07,-6.29086434855708E-06,0.52734375,0,0
4.44579484337737E-07,-6.45564023216139E-06,0.52734375,0,0
-1.09314419205475E-06,-8.35899572848575E-06,0.52734375,0,0
-2.25518851948436E-06,-1.26412851386704E-05,0.52734375,0,0
-2.308314151378E-06,-1.58489110617666E-05,0.52734375,0,0
-2.22956214201986E-06,-1.53230666910531E-05,0.52734375,0,0
-1.81580253411084E-06,-1.21329239846091E-05,0.52734375,0,0
-1.29951342842105E-06,-6.69893370286445E-06,0.52734375,0,0
-7.69063944972004E-07,-5.09732808495755E-06,0.52734375,0,0
-1.15531474875752E-06,-5.21545734954998E-06,0.52734375,0,0
-1.07883693090116E-06,-8.50572632771218E-06,0.52734375,0,0
-3.90916142123388E-07,-1.09778065962018E-05,0.52734375,0,0
6.79671700254403E-07,-1.49214765770012E-05,0.52734375,0,0
1.61054890668311E-06,-1.69056020240532E-05,0.52734375,0,0
2.70605733021512E-06,-1.95752782019554E-05,0.52734375,0,0
1.44275793445559E-06,-2.09082263609162E-05,0.52734375,0,0
-3.38964269985809E-07,-2.20798610826023E-05,0.52734375,0,0
-2.40220742853126E-07,-2.26954271056456E-05,0.52734375,0,0
3.56144226998367E-07,-2.22445469262311E-05,0.52734375,0,0
1.89781573567416E-07,-2.03635754587594E-05,0.52734375,0,0
4.41667140194113E-07,-1.96396576939151E-05,0.52734375,0,0
1.09752750176995E-06,-1.53851851791842E-05,0.52734375,0,0
1.67046800925164E-06,-2.08144665521104E-05,0.52734375,0,0
2.01317902792653E-06,-1.5013674783404E-05,0.52734375,0,0
3.76642174160224E-06,-2.0692996258731E-05,0.52734375,0,0
3.71484361494367E-06,-1.97194458451122E-05,0.52734375,0,0
1.8787949329635E-06,-2.47366460826015E-05,0.52734375,0,0
1.79188748461456E-06,-2.46410418185405E-05,0.52734375,0,0
4.45156774731004E-06,-2.35875977523392E-05,0.52734375,0,0
5.99293616687646E-06,-2.04693969863001E-05,0.52734375,0,0
5.26709027326433E-06,-2.05756659852341E-05,0.52734375,0,0
3.81695690521155E-06,-2.17354827327654E-05,0.52734375,0,0
3.32735135089024E-06,-2.10008984140586E-05,0.52734375,0,0
3.40529550157953E-06,-2.15142990782624E-05,0.52734375,0,0
1.73842931872059E-06,-2.14638639590703E-05,0.52734375,0,0
-9.48732292727072E-07,-2.27503824135056E-05,0.52734375,0,0
-2.06113509193528E-06,-2.09363424801268E-05,0.52734375,0,0
-1.19110109153553E-06,-2.09685331356013E-05,0.52734375,0,0
-4.94099879233545E-07,-1.99316564248875E-05,0.52734375,0,0
-8.18850622863465E-08,-1.91564104170538E-05,0.52734375,0,0
8.23179107101168E-07,-1.55144134623697E-05,0.52734375,0,0
2.07102857530117E-06,-1.37553852255223E-05,0.52734375,0,0
2.03184322344896E-06,-1.28113897517323E-05,0.52734375,0,0
1.7790540596252E-06,-1.43433153425576E-05,0.52734375,0,0
2.71779049398901E-06,-1.59401843120577E-05,0.52734375,0,0
4.75138813271769E-06,-1.87752939382335E-05,0.52734375,0,0
6.31720740784658E-06,-2.29045363084879E-05,0.52734375,0,0
5.83354722039076E-06,-2.58732106885873E-05,0.52734375,0,0
3.93870368498028E-06,-2.10944253922207E-05,0.52734375,0,0
4.83199801237788E-06,-2.84245634247782E-05,0.52734375,0,0
4.13594534620643E-06,-1.95510565390578E-05,0.52734375,0,0
6.91322156853857E-06,-2.34540220844792E-05,0.52734375,0,0
6.13728934695246E-06,-1.48124445331632E-05,0.52734375,0,0
6.83400048728799E-06,-1.43643765113666E-05,0.52734375,0,0
5.72249336983077E-06,-1.07015366666019E-05,0.52734375,0,0
4.14811984228436E-06,-1.11855806608219E-05,0.52734375,0,0
1.91536855709273E-06,-9.34732906898716E-06,0.52734375,0,0
-1.54673912788894E-07,-8.48816944198916E-06,0.52734375,0,0
-6.56480324323638E-07,-9.28889130591415E-06,0.52734375,0,0
1.10372695871774E-06,-1.01394980447367E-05,0.52734375,0,0
3.37585674969887E-06,-1.42318294820143E-05,0.52734375,0,0
4.29073088525911E-06,-1.71204137586756E-05,0.52734375,0,0
5.28570626556757E-06,-2.03360214072745E-05,0.52734375,0,0
5.77436685489374E-06,-1.89078418770805E-05,0.52734375,0,0
6.08215304964688E-06,-1.82973763003247E-05,0.52734375,0,0
5.42825591764995E-06,-1.52491065819049E-05,0.52734375,0,0
4.71524754175334E-06,-1.63607037393376E-05,0.52734375,0,0
2.57165379480284E-06,-1.65369347087108E-05,0.52734375,0,0
2.13080852518033E-06,-1.65850051416783E-05,0.52734375,0,0
4.09757330999128E-06,-1.51380781971966E-05,0.52734375,0,0
5.92690594203305E-06,-1.65130986715667E-05,0.52734375,0,0
4.09048971050652E-06,-1.69522081705509E-05,0.52734375,0,0
1.54810197727784E-06,-1.83762786036823E-05,0.52734375,0,0
1.41969053402136E-06,-2.00087197299581E-05,0.52734375,0,0
2.76546802524535E-06,-2.06504155357834E-05,0.52734375,0,0
1.50207858951035E-06,-1.73172975337366E-05,0.52734375,0,0
1.59954652190208E-06,-2.48118140007136E-05,0.52734375,0,0
2.12625809581368E-06,-1.87611094588647E-05,0.52734375,0,0
4.03419971917174E-06,-2.36287942243507E-05,0.52734375,0,0
2.69592055701651E-06,-2.01112070499221E-05,0.52734375,0,0
1.43798717999744E-06,-2.13008770515444E-05,0.52734375,0,0
8.99119754649291E-07,-2.02895334950881E-05,0.52734375,0,0
1.19723279112804E-06,-2.11168135137996E-05,0.52734375,0,0
5.39041536740115E-07,-1.81611158041051E-05,0.52734375,0,0
6.15487465438491E-07,-1.58913808263605E-05,0.52734375,0,0
1.39483256589301E-06,-1.67766775120981E-05,0.52734375,0,0
1.49208983657445E-06,-1.85912740562344E-05,0.52734375,0,0
1.29045349694934E-06,-1.99628611881053E-05,0.52734375,0,0
1.78438040165929E-06,-1.87891582754673E-05,0.52734375,0,0
2.56751332017302E-06,-1.99365476873936E-05,0.52734375,0,0
1.85376165973139E-06,-1.89301917998819E-05,0.52734375,0,0
4.04604435289002E-07,-1.82183612196241E-05,0.52734375,0,0
-1.0195024060522E-06,-1.56378737301566E-05,0.52734375,0,0
-8.70154224230646E-07,-1.63224431162234E-05,0.52734375,0,0
3.22091921134415E-07,-1.55967409227742E-05,0.52734375,0,0
1.50062635384529E-06,-1.44194891618099E-05,0.52734375,0,0
1.12529676243867E-06,-1.18121561172302E-05,0.52734375,0,0
4.0351875441047E-07,-1.17707886602147E-05,0.52734375,0,0
9.93847038444073E-07,-1.23846193673671E-05,0.52734375,0,0
3.43647343470366E-06,-1.32637615024578E-05,0.52734375,0,0
3.71040505342535E-06,-1.36973794724327E-05,0.52734375,0,0
2.77542881121917E-06,-1.49718298416701E-05,0.52734375,0,0
2.31115609494736E-06,-1.43085280797095E-05,0.52734375,0,0
3.03011847790913E-06,-2.08305482374271E-05,0.52734375,0,0
1.3630021840072E-06,-1.57591894094367E-05,0.52734375,0,0
1.08541894405789E-06,-1.92265015357407E-05,0.52734375,0,0
5.61354909223155E-07,-1.68302212841809E-05,0.52734375,0,0
1.6877814914551E-06,-1.81745763256913E-05,0.52734375,0,0
2.44778357227915E-06,-1.60208473971579E-05,0.52734375,0,0
2.53165967478708E-06,-1.55299112520879E-05,0.52734375,0,0
1.32741683955828E-06,-1.42317612699117E-05,0.52734375,0,0
1.27204259570135E-06,-1.48044582601869E-05,0.52734375,0,0
2.18016043618263E-06,-1.63112872542115E-05,0.52734375,0,0
1.73328282926377E-06,-1.75399873114657E-05,0.52734375,0,0
5.95875178532879E-07,-1.87940167961642E-05,0.52734375,0,0
3.00067654279701E-07,-1.70915882335976E-05,0.52734375,0,0
1.28231977214455E-06,-1.6151723684743E-05,0.52734375,0,0
2.25665121433849E-06,-1.44548021125956E-05,0.52734375,0,0
3.37794836013927E-06,-1.50233263411792E-05,0.52734375,0,0
3.28872056343243E-06,-1.49273055285448E-05,0.52734375,0,0
2.72765032605093E-06,-1.68435926752863E-05,0.52734375,0,0
3.09242977891699E-06,-1.70810671988875E-05,0.52734375,0,0
4.30075533586205E-06,-1.85897824849235E-05,0.52734375,0,0
3.99346026824787E-06,-1.98456655198243E-05,0.52734375,0,0
2.91857668344164E-06,-1.98318448383361E-05,0.52734375,0,0
2.54905785368464E-06,-1.84122727659997E-05,0.52734375,0,0
3.28529563375923E-06,-1.81079212779878E-05,0.52734375,0,0
4.62766956843552E-06,-1.74995766428765E-05,0.52734375,0,0
4.45900923295994E-06,-1.67956477525877E-05,0.52734375,0,0
3.55035740540188E-06,-1.26780660139048E-05,0.52734375,0,0
6.46676971882698E-06,-1.79809667315567E-05,0.52734375,0,0
5.4394913604483E-06,-1.37316892505623E-05,0.52734375,0,0
3.95464257962885E-06,-1.60871077241609E-05,0.52734375,0,0
1.91739786714606E-06,-1.26901040857774E-05,0.52734375,0,0
2.40951521846E-06,-1.64849316206528E-05,0.52734375,0,0
3.78007439394423E-06,-1.85523931577336E-05,0.52734375,0,0
4.66957271783031E-06,-2.00138365471503E-05,0.52734375,0,0
3.87100180887501E-06,-1.83080010174308E-05,0.52734375,0,0
2.96828852697217E-06,-1.75778804987203E-05,0.52734375,0,0
2.34147250921524E-06,-1.71456649695756E-05,0.52734375,0,0
1.98944258045231E-06,-1.58306502271444E-05,0.52734375,0,0
1.35889183638938E-06,-1.50915011545294E-05,0.52734375,0,0
6.14107136698294E-07,-1.37337510750513E-05,0.52734375,0,0
1.45913134019793E-06,-1.48397530210786E-05,0.52734375,0,0
2.28362023335649E-06,-1.64804514497519E-05,0.52734375,0,0
1.63196034463908E-06,-1.91715043911245E-05,0.52734375,0,0
-4.16436343186888E-08,-1.75827226485126E-05,0.52734375,0,0
2.79527256452639E-07,-1.59933661052492E-05,0.52734375,0,0
2.41889119934058E-06,-1.34744395836606E-05,0.52734375,0,0
4.29765896114986E-06,-1.26131171782617E-05,0.52734375,0,0
4.77850653624046E-06,-1.17582612801925E-05,0.52734375,0,0
6.14286454947433E-06,-1.30488388094818E-05,0.52734375,0,0
6.54839914204786E-06,-1.32894165290054E-05,0.52734375,0,0
5.00949363413383E-06,-1.22271676445962E-05,0.52734375,0,0
4.19739217250026E-06,-1.34481124405283E-05,0.52734375,0,0
5.08228822582169E-06,-1.68202823260799E-05,0.52734375,0,0
4.21587310484028E-06,-1.48380404425552E-05,0.52734375,0,0
5.08305265611853E-06,-2.0436509657884E-05,0.52734375,0,0
4.11752353102202E-06,-1.44894211189239E-05,0.52734375,0,0
7.30291412764927E-06,-1.95321790670278E-05,0.52734375,0,0
6.21307890469325E-06,-1.76827234099619E-05,0.52734375,0,0
5.00935539093916E-06,-1.88912417797837E-05,0.52734375,0,0
3.92875335819554E-06,-1.63472359417938E-05,0.52734375,0,0
5.70185784454225E-06,-1.60017116286326E-05,0.52734375,0,0
5.43001488040318E-06,-1.48238250403665E-05,0.52734375,0,0
3.84737131753354E-06,-1.63916447490919E-05,0.52734375,0,0
3.60529088538897E-06,-2.01062666747021E-05,0.52734375,0,0
3.77358924197324E-06,-2.34715353144566E-05,0.52734375,0,0
3.74567139260762E-06,-2.63115489360644E-05,0.52734375,0,0
2.8731833481288E-06,-2.5145358449663E-05,0.52734375,0,0
2.20491779145959E-06,-2.33518385357456E-05,0.52734375,0,0
6.16347676896112E-07,-2.05689211725257E-05,0.52734375,0,0
2.35017537875137E-07,-2.14451356441714E-05,0.52734375,0,0
9.19358399187331E-07,-2.09719073609449E-05,0.52734375,0,0
1.38671532567969E-06,-2.07761586352717E-05,0.52734375,0,0
-9.36436833853804E-07,-1.89979509741534E-05,0.52734375,0,0
-2.78798643194023E-06,-1.78906084329356E-05,0.52734375,0,0
-2.69727570412215E-06,-1.47145265145809E-05,0.52734375,0,0
-1.17395279630728E-06,-1.25908145491849E-05,0.52734375,0,0
-1.69723534781951E-06,-1.22594656204456E-05,0.52734375,0,0
-3.00686133414274E-06,-1.44868999996106E-05,0.52734375,0,0
-3.40975179824454E-06,-1.61407460836926E-05,0.52734375,0,0
-2.4348546503461E-06,-1.65101737366058E-05,0.52734375,0,0
1.58569370967143E-08,-1.13086134660989E-05,0.52734375,0,0
1.56173541654425E-06,-1.52669490489643E-05,0.52734375,0,0
2.93946345664153E-06,-1.36307480715914E-05,0.52734375,0,0
3.08931657855283E-06,-2.2118065317045E-05,0.52734375,0,0
3.16272985401156E-06,-2.50156099355081E-05,0.52734375,0,0
1.461866304453E-06,-2.87196507997578E-05,0.52734375,0,0
1.32144544195967E-08,-2.37732565437909E-05,0.52734375,0,0
3.0316485322146E-08,-2.13255734706763E-05,0.52734375,0,0
2.34431058743212E-06,-1.94535587070277E-05,0.52734375,0,0
4.87633906232077E-06,-1.79326980287442E-05,0.52734375,0,0
6.75200681143906E-06,-1.69276463566348E-05,0.52734375,0,0
7.0266296461341E-06,-1.66659192473162E-05,0.52734375,0,0
6.24662152404198E-06,-1.7195217878907E-05,0.52734375,0,0
6.61524882161757E-06,-1.40327911140048E-05,0.52734375,0,0
7.05978209225577E-06,-1.19990909297485E-05,0.52734375,0,0
7.01965336702415E-06,-1.04075124909286E-05,0.52734375,0,0
6.30920840194449E-06,-1.13349879029556E-05,0.52734375,0,0
6.12298345004092E-06,-1.0831867257366E-05,0.52734375,0,0
6.10222923569381E-06,-1.23842319226242E-05,0.52734375,0,0
4.92200251756003E-06,-1.37003626150545E-05,0.52734375,0,0
3.42110274687002E-06,-1.51938047565636E-05,0.52734375,0,0
3.75456193069112E-06,-1.50961614053813E-05,0.52734375,0,0
5.13366512677749E-06,-1.56598180183209E-05,0.52734375,0,0
6.48012246529106E-06,-1.70608163898578E-05,0.52734375,0,0
6.73520253258175E-06,-2.02045539481333E-05,0.52734375,0,0
6.31181410426507E-06,-2.17285469261697E-05,0.52734375,0,0
5.39238271812792E-06,-2.0524852516246E-05,0.52734375,0,0
3.25628116115695E-06,-1.44296664075227E-05,0.52734375,0,0
4.52428002972738E-06,-1.92009356396738E-05,0.52734375,0,0
3.33756952386466E-06,-1.0556960660324E-05,0.52734375,0,0
4.75304477731697E-06,-8.87869191501522E-06,0.52734375,0,0
5.23226299264934E-06,-5.14992552780313E-06,0.52734375,0,0
7.2824104790925E-06,-1.25658416436636E-05,0.52734375,0,0
7.70564565755194E-06,-1.58315197040793E-05,0.52734375,0,0
7.32500711819739E-06,-1.9195464119548E-05,0.52734375,0,0
5.6609728744661E-06,-1.90394530363847E-05,0.52734375,0,0
4.60737737739692E-06,-1.8760583770927E-05,0.52734375,0,0
4.95361609864631E-06,-1.72032396221766E-05,0.52734375,0,0
4.80836843053112E-06,-1.50832411236479E-05,0.52734375,0,0
3.9971691876417E-06,-1.55817724589724E-05,0.52734375,0,0
2.96691177936736E-06,-1.47332475535222E-05,0.52734375,0,0
3.33448610945197E-06,-1.34048414111021E-05,0.52734375,0,0
3.56901364284568E-06,-1.03523443613085E-05,0.52734375,0,0
3.75523541151779E-06,-1.11911222120398E-05,0.52734375,0,0
4.0477229958924E-06,-1.17536983452737E-05,0.52734375,0,0
4.09573613069369E-06,-1.46413049151306E-05,0.52734375,0,0
3.59634964297584E-06,-1.60704857989913E-05,0.52734375,0,0
4.67850350105437E-06,-1.64713801495964E-05,0.52734375,0,0
5.34230048288009E-06,-1.33444509629044E-05,0.52734375,0,0
4.57452779301093E-06,-1.24054658954265E-05,0.52734375,0,0
2.98812301480211E-06,-1.33769699459663E-05,0.52734375,0,0
1.83732640834933E-06,-1.61698062584037E-05,0.52734375,0,0
1.08337667370506E-06,-1.77203855855623E-05,0.52734375,0,0
9.39310609737731E-07,-1.87103250937071E-05,0.52734375,0,0
6.83922678490489E-07,-1.59277806233149E-05,0.52734375,0,0
3.07025743495615E-07,-2.15896488953149E-05,0.52734375,0,0
-5.93690003825031E-07,-1.31989063447691E-05,0.52734375,0,0
6.93788535954809E-07,-1.60213821800426E-05,0.52734375,0,0
2.72857460004161E-06,-1.23357513075462E-05,0.52734375,0,0
4.62564821646083E-06,-1.30245252876193E-05,0.52734375,0,0
6.02178306507994E-06,-1.15636485134019E-05,0.52734375,0,0
7.03287196301972E-06,-1.3118818969815E-05,0.52734375,0,0
7.20277648724732E-06,-1.31749129650416E-05,0.52734375,0,0
7.22065988156828E-06,-1.50449759530602E-05,0.52734375,0,0
6.19084403297165E-06,-1.77381825778866E-05,0.52734375,0,0
4.16906095779268E-06,-1.80304359673755E-05,0.52734375,0,0
4.05340097131557E-06,-1.70080002135364E-05,0.52734375,0,0
5.36042080057086E-06,-1.43671713885851E-05,0.52734375,0,0
4.97437940794043E-06,-1.54711233335547E-05,0.52734375,0,0
2.52826794167049E-06,-1.71536303241737E-05,0.52734375,0,0
5.27852023424202E-07,-2.08347828447586E-05,0.52734375,0,0
3.19025161843456E-07,-2.09722693398362E-05,0.52734375,0,0
1.31539525227709E-06,-2.04105581360636E-05,0.52734375,0,0
2.03160993805795E-06,-1.74329652509186E-05,0.52734375,0,0
2.66346137323126E-06,-1.53796481754398E-05,0.52734375,0,0
2.82188557321206E-06,-1.33360854306375E-05,0.52734375,0,0
2.33019090956077E-06,-1.46860338645638E-05,0.52734375,0,0
1.00426177596091E-06,-1.71628398675239E-05,0.52734375,0,0
-1.32797185870004E-06,-1.89202746696537E-05,0.52734375,0,0
-2.16842181544052E-06,-1.82916628546081E-05,0.52734375,0,0
-5.56058694201056E-07,-1.64791435963707E-05,0.52734375,0,0
5.44227930276975E-07,-1.29508816826274E-05,0.52734375,0,0
-2.78648286666794E-07,-1.75764471350703E-05,0.52734375,0,0
-1.8212134591522E-06,-1.18733414637973E-05,0.52734375,0,0
-6.93384890837478E-07,-1.53772725752788E-05,0.52734375,0,0
2.23649863073661E-06,-1.46204383781878E-05,0.52734375,0,0
3.87753061659168E-06,-1.74104770849226E-05,0.52734375,0,0
3.94753806176595E-06,-1.66798854479566E-05,0.52734375,0,0
3.90412787965033E-06,-1.96483088075183E-05,0.52734375,0,0
2.25385360863584E-06,-2.10582438739948E-05,0.52734375,0,0
1.48715366776742E-06,-2.19684952753596E-05,0.52734375,0,0
1.4579010212401E-06,-2.30324385483982E-05,0.52734375,0,0
1.13654868982849E-06,-2.37302538153017E-05,0.52734375,0,0
8.22549168333353E-07,-2.4696986656636E-05,0.52734375,0,0
5.28839336766396E-07,-2.2792872186983E-05,0.52734375,0,0
7.80333323291416E-07,-2.29111974476837E-05,0.52734375,0,0
3.89063892214381E-09,-2.43038557528052E-05,0.52734375,0,0
-1.72026295786054E-06,-2.74487083515851E-05,0.52734375,0,0
-2.37815356740612E-06,-2.56776984315366E-05,0.52734375,0,0
-7.96141250702931E-07,-2.25746389332926E-05,0.52734375,0,0
7.64313199397293E-07,-1.95113334484631E-05,0.52734375,0,0
1.78210791546007E-06,-2.03234376385808E-05,0.52734375,0,0
1.89859167676332E-06,-2.12770046346122E-05,0.52734375,0,0
1.95597749552689E-06,-2.10969628824387E-05,0.52734375,0,0
2.86380463876412E-06,-1.87275200005388E-05,0.52734375,0,0
3.63628487320966E-06,-1.65188412211137E-05,0.52734375,0,0
3.54380722455971E-06,-1.43232728078146E-05,0.52734375,0,0
2.91268702312664E-06,-1.29974960145773E-05,0.52734375,0,0
1.7661593574303E-06,-1.07756886791321E-05,0.52734375,0,0
2.51989035859879E-06,-1.68461228895467E-05,0.52734375,0,0
1.65978588029247E-06,-1.61121242854279E-05,0.52734375,0,0
1.52806421738205E-06,-1.93678752111737E-05,0.52734375,0,0
5.09616995714168E-07,-1.57563536049565E-05,0.52734375,0,0
1.38106344138578E-07,-1.70815183082595E-05,0.52734375,0,0
-6.2988782190132E-08,-1.7556860257173E-05,0.52734375,0,0
1.0720209502324E-06,-1.75298555404879E-05,0.52734375,0,0
1.53680912262644E-06,-1.42605440487387E-05,0.52734375,0,0
1.83767303951754E-06,-1.42312055686489E-05,0.52734375,0,0
3.45691319125763E-06,-1.57366503117373E-05,0.52734375,0,0
5.89776800552499E-06,-1.55472644109977E-05,0.52734375,0,0
7.52013738747337E-06,-1.5581035768264E-05,0.52734375,0,0
6.50483752906439E-06,-1.4638345419371E-05,0.52734375,0,0
3.7060833619762E-06,-1.52476586663397E-05,0.52734375,0,0
8.35715638913825E-07,-1.45119329317822E-05,0.52734375,0,0
1.18924924663588E-06,-1.45165940921288E-05,0.52734375,0,0
3.72985869034892E-06,-1.27008988783928E-05,0.52734375,0,0
5.44147815162432E-06,-1.20091681310441E-05,0.52734375,0,0
5.23413427799824E-06,-1.1211197488592E-05,0.52734375,0,0
5.03543287777575E-06,-1.12216921479558E-05,0.52734375,0,0
4.22618950324249E-06,-1.02433396023116E-05,0.52734375,0,0
2.16550188270048E-06,-9.71340523392428E-06,0.52734375,0,0
1.55263094825386E-07,-8.96375786396675E-06,0.52734375,0,0
-6.74052671456593E-08,-9.21321225177962E-06,0.52734375,0,0
7.46828845876735E-07,-9.99179155769525E-06,0.52734375,0,0
1.65347910296987E-06,-1.14457552626845E-05,0.52734375,0,0
2.58238674177846E-06,-1.25493033920066E-05,0.52734375,0,0
3.41710074280854E-06,-2.02757873921655E-05,0.52734375,0,0
8.99713541002711E-07,-1.6590385712334E-05,0.52734375,0,0
-2.88237487211518E-07,-1.74286324181594E-05,0.52734375,0,0
-2.01471948457765E-06,-1.5611614799127E-05,0.52734375,0,0
-3.02848934552458E-06,-1.98539164557587E-05,0.52734375,0,0
-4.083809471922E-06,-2.15112559089903E-05,0.52734375,0,0
-4.26154656452127E-06,-2.36106025113259E-05,0.52734375,0,0
-4.38205688624294E-06,-2.39358323597116E-05,0.52734375,0,0
-5.00873511555255E-06,-2.23380229726899E-05,0.52734375,0,0
-6.93323227096698E-06,-2.07315461011603E-05,0.52734375,0,0
-8.13657334219897E-06,-2.1712190573453E-05,0.52734375,0,0
-5.98746100877179E-06,-2.61948880506679E-05,0.52734375,0,0
-3.29972272083978E-06,-2.83941408270039E-05,0.52734375,0,0
-2.35585753216583E-06,-2.91339874820551E-05,0.52734375,0,0
-2.51317192123679E-06,-2.70570508291712E-05,0.52734375,0,0
-1.63292088473099E-06,-2.61017430602806E-05,0.52734375,0,0
6.31059037914383E-07,-2.46466515818611E-05,0.52734375,0,0
3.93697200706811E-06,-2.36408559430856E-05,0.52734375,0,0
5.68801306144451E-06,-2.17056167457486E-05,0.52734375,0,0
5.79831339564407E-06,-2.15436757571297E-05,0.52734375,0,0
6.29129908702453E-06,-2.1134363123565E-05,0.52734375,0,0
7.45642682886682E-06,-1.9747973055928E-05,0.52734375,0,0
6.91073455527658E-06,-1.81812119990354E-05,0.52734375,0,0
5.32190097146668E-06,-1.9043962311116E-05,0.52734375,0,0
4.49231401944417E-06,-1.93790474440902E-05,0.52734375,0,0
4.55630652140826E-06,-1.90660157386446E-05,0.52734375,0,0
3.67710367754626E-06,-1.49668385347468E-05,0.52734375,0,0
4.03922012992552E-06,-1.98500783881173E-05,0.52734375,0,0
1.16112360615261E-07,-1.15830889626523E-05,0.52734375,0,0
-1.0592549415378E-06,-1.25976994240773E-05,0.52734375,0,0
-2.23231882046093E-06,-7.37640539227868E-06,0.52734375,0,0
-3.43582144068932E-07,-8.18750413600355E-06,0.52734375,0,0
1.46165245951124E-06,-6.64120443616412E-06,0.52734375,0,0
2.00445606424182E-06,-1.01159794212435E-05,0.52734375,0,0
5.03901844695065E-07,-1.37915212690132E-05,0.52734375,0,0
4.51927775202421E-07,-1.76702615135582E-05,0.52734375,0,0
2.63343576989428E-06,-1.95232369151199E-05,0.52734375,0,0
5.07567665408715E-06,-1.80364677362377E-05,0.52734375,0,0
6.6443249124859E-06,-1.66216541401809E-05,0.52734375,0,0
7.90783269621897E-06,-1.67320758919232E-05,0.52734375,0,0
9.07758203538833E-06,-2.14384963328484E-05,0.52734375,0,0
8.20442619442474E-06,-2.16640710277716E-05,0.52734375,0,0
7.03413752489723E-06,-1.84699565579649E-05,0.52734375,0,0
5.96880227021757E-06,-1.26072718558135E-05,0.52734375,0,0
5.41328154213261E-06,-1.12357174657518E-05,0.52734375,0,0
4.04325737690669E-06,-1.14934773591813E-05,0.52734375,0,0
3.51001403942064E-06,-1.37190190798719E-05,0.52734375,0,0
3.14355611408246E-06,-1.53432538354537E-05,0.52734375,0,0
3.07823529510642E-06,-1.67300913744839E-05,0.52734375,0,0
3.20482217830431E-06,-1.60138461069437E-05,0.52734375,0,0
3.68753967450175E-06,-1.84033779078163E-05,0.52734375,0,0
3.87020872949506E-06,-2.28883072850294E-05,0.52734375,0,0
2.06442041417176E-06,-2.75172096735332E-05,0.52734375,0,0
-6.68852067065018E-07,-2.40801109612221E-05,0.52734375,0,0
-1.24167991089053E-06,-3.04540226352401E-05,0.52734375,0,0
-1.36211860990443E-06,-1.52426118802396E-05,0.52734375,0,0
-8.74922591265204E-07,-1.62296128110029E-05,0.52734375,0,0
1.4562135675078E-07,-8.90033697942272E-06,0.52734375,0,0
6.51545065011305E-07,-1.42955314004212E-05,0.52734375,0,0
2.08653136724024E-06,-1.49001098179724E-05,0.52734375,0,0
3.55526822204411E-06,-1.88337526196847E-05,0.52734375,0,0
5.13577742822235E-06,-1.88104950211709E-05,0.52734375,0,0
6.09931475992198E-06,-1.82974563358584E-05,0.52734375,0,0
5.42394400326884E-06,-1.72275558725232E-05,0.52734375,0,0
3.69348754247767E-06,-1.38088817038806E-05,0.52734375,0,0
3.14596081807395E-06,-1.13446467366884E-05,0.52734375,0,0
3.96932455259957E-06,-7.05813636159291E-06,0.52734375,0,0
4.16628654420492E-06,-8.1083744589705E-06,0.52734375,0,0
3.08383960145875E-06,-9.00228951650206E-06,0.52734375,0,0
1.91433582585887E-06,-1.16974051707075E-05,0.52734375,0,0
2.50734387918783E-06,-9.31210979615571E-06,0.52734375,0,0
3.54898361365485E-06,-1.04341870610369E-05,0.52734375,0,0
3.25704309034336E-06,-1.14686445158441E-05,0.52734375,0,0
1.92255811271025E-06,-1.38826362672262E-05,0.52734375,0,0
1.52154370880453E-06,-1.40493102662731E-05,0.52734375,0,0
2.16715716305771E-06,-1.55665566126117E-05,0.52734375,0,0
3.04586774291238E-06,-1.47887230923516E-05,0.52734375,0,0
4.1673006307974E-06,-1.44953337439802E-05,0.52734375,0,0
4.59331022284459E-06,-1.56760124809807E-05,0.52734375,0,0
3.29730573866982E-06,-1.99709338630782E-05,0.52734375,0,0
1.2093214536435E-06,-1.92200222954853E-05,0.52734375,0,0
2.02251158043509E-06,-2.6340720069129E-05,0.52734375,0,0
3.20862022817892E-06,-1.73334574355977E-05,0.52734375,0,0
5.20658113600803E-06,-2.05122341867536E-05,0.52734375,0,0
4.5955944187881E-06,-1.70891817106167E-05,0.52734375,0,0
3.90109289583052E-06,-1.93034902622458E-05,0.52734375,0,0
3.84331224267953E-06,-1.4893673323968E-05,0.52734375,0,0
3.81204563382198E-06,-1.44994110087282E-05,0.52734375,0,0
2.16569947042444E-06,-1.3912950635131E-05,0.52734375,0,0
1.68905535247177E-06,-1.52142683873535E-05,0.52734375,0,0
1.7927357021108E-06,-1.70140501722926E-05,0.52734375,0,0
1.2278234180485E-06,-1.7393233065377E-05,0.52734375,0,0
7.27827284663363E-07,-1.90753780771047E-05,0.52734375,0,0
8.82326958162594E-07,-1.80912375071784E-05,0.52734375,0,0
1.87632883807964E-06,-1.82177936949302E-05,0.52734375,0,0
2.77652952718199E-06,-1.65578367159469E-05,0.52734375,0,0
3.97729536416591E-06,-1.81070827238727E-05,0.52734375,0,0
4.68239022666239E-06,-1.79957496584393E-05,0.52734375,0,0
5.25426321473788E-06,-1.98761899810052E-05,0.52734375,0,0
5.06777223563404E-06,-2.02388800971676E-05,0.52734375,0,0
4.17484670833801E-06,-2.0527408196358E-05,0.52734375,0,0
3.43206784236827E-06,-1.83109114004765E-05,0.52734375,0,0
3.3781193451432E-06,-1.81819705176167E-05,0.52734375,0,0
3.9367378121824E-06,-1.85946337296627E-05,0.52734375,0,0
4.61289664599462E-06,-1.82530111487722E-05,0.52734375,0,0
4.77272078569513E-06,-1.48492526932387E-05,0.52734375,0,0
4.78798074254883E-06,-1.27168605104089E-05,0.52734375,0,0
3.26771078107413E-06,-1.14745034807129E-05,0.52734375,0,0
5.17116313858423E-06,-1.85847566172015E-05,0.52734375,0,0
4.80776952827E-06,-1.62405431183288E-05,0.52734375,0,0
3.93968366552144E-06,-1.62196320161456E-05,0.52734375,0,0
6.49269225050375E-07,-1.12749439722393E-05,0.52734375,0,0
1.2567294334076E-06,-1.25783026305726E-05,0.52734375,0,0
2.24759492084559E-06,-1.29212312458549E-05,0.52734375,0,0
1.96191467694007E-06,-1.55268899106886E-05,0.52734375,0,0
-9.13066628527304E-07,-1.73049702425487E-05,0.52734375,0,0
-1.98275461116282E-06,-1.82617568498245E-05,0.52734375,0,0
8.42637291498249E-07,-1.96603850781685E-05,0.52734375,0,0
4.71843577543041E-06,-2.05349060706794E-05,0.52734375,0,0
6.55129088045214E-06,-2.10047019209014E-05,0.52734375,0,0
5.43614896741929E-06,-1.91290782822762E-05,0.52734375,0,0
3.89372416975675E-06,-1.80281858774833E-05,0.52734375,0,0
1.85962039722654E-06,-1.67341477208538E-05,0.52734375,0,0
6.79439210671262E-07,-1.6550377040403E-05,0.52734375,0,0
1.36507151182741E-06,-1.48501585499616E-05,0.52734375,0,0
3.38417976308847E-06,-1.51465819726582E-05,0.52734375,0,0
3.4306842735532E-06,-1.65684796229471E-05,0.52734375,0,0
2.25357143790461E-06,-1.90223254321609E-05,0.52734375,0,0
8.36448180052685E-07,-1.93997366295662E-05,0.52734375,0,0
3.49359282836303E-07,-1.90273331099888E-05,0.52734375,0,0
7.7178106039355E-07,-1.82613184733782E-05,0.52734375,0,0
2.6550203529041E-06,-1.83358188223792E-05,0.52734375,0,0
4.09572749049403E-06,-1.85129447345389E-05,0.52734375,0,0
3.97028452425729E-06,-1.75119948835345E-05,0.52734375,0,0
2.046688905466E-06,-1.21145358207286E-05,0.52734375,0,0
1.32026127630525E-06,-1.72275122167775E-05,0.52734375,0,0
-9.59608087214292E-07,-1.27404937302344E-05,0.52734375,0,0
-1.25371371950678E-07,-1.63882814376848E-05,0.52734375,0,0
-1.72859301983408E-07,-1.45954873005394E-05,0.52734375,0,0
5.67621270874952E-07,-1.56162514031166E-05,0.52734375,0,0
1.05409696971037E-06,-1.40766223921673E-05,0.52734375,0,0
1.93237565326854E-06,-1.55212710524211E-05,0.52734375,0,0
1.49908669300203E-06,-1.68841179402079E-05,0.52734375,0,0
6.76724937420659E-07,-1.93880750885E-05,0.52734375,0,0
2.78783772955649E-07,-2.12372069654521E-05,0.52734375,0,0
1.2486490277297E-06,-2.14519841392757E-05,0.52734375,0,0
3.82710322810453E-06,-2.20623278437415E-05,0.52734375,0,0
4.89787862534286E-06,-2.09851368708769E-05,0.52734375,0,0
3.67980715054728E-06,-2.01179991563549E-05,0.52734375,0,0
1.88335059192468E-06,-1.87239747901913E-05,0.52734375,0,0
2.20274887396954E-06,-1.88148169399938E-05,0.52734375,0,0
2.06389222512371E-06,-1.70005641848547E-05,0.52734375,0,0
1.30279318000248E-06,-1.7609945643926E-05,0.52734375,0,0
1.22999858831463E-06,-1.86462038982427E-05,0.52734375,0,0
1.9458859696897E-06,-2.02620540221687E-05,0.52734375,0,0
2.64405025518499E-06,-1.99410278582945E-05,0.52734375,0,0
5.18781916980515E-06,-1.77777401404455E-05,0.52734375,0,0
7.5615521382133E-06,-1.46730471897172E-05,0.52734375,0,0
6.44619922240963E-06,-1.51832782648853E-05,0.52734375,0,0
5.17640637553995E-06,-1.84499349416001E-05,0.52734375,0,0
6.40668395135435E-06,-2.27738273679279E-05,0.52734375,0,0
5.30473471371806E-06,-1.91789476957638E-05,0.52734375,0,0
5.84218287258409E-06,-2.40145327552455E-05,0.52734375,0,0
2.63388301391387E-06,-1.28457222672296E-05,0.52734375,0,0
5.73060424358118E-06,-1.75594141182955E-05,0.52734375,0,0
5.67038387089269E-06,-1.50195037349476E-05,0.52734375,0,0
4.04931734010461E-06,-1.85124663403258E-05,0.52734375,0,0
3.17152313300539E-07,-1.68831720657181E-05,0.52734375,0,0
5.77845128191257E-07,-1.87845744221704E-05,0.52734375,0,0
2.58381055573409E-06,-1.86632514669327E-05,0.52734375,0,0
5.39739585292409E-06,-1.93892628885806E-05,0.52734375,0,0
7.59157592256088E-06,-1.92650531971594E-05,0.52734375,0,0
7.8981502156239E-06,-1.77430538315093E-05,0.52734375,0,0
6.75766204949468E-06,-1.76615212694742E-05,0.52734375,0,0
5.67933011552668E-06,-1.47819891935796E-05,0.52734375,0,0
6.88534919390804E-06,-1.37628221636987E-05,0.52734375,0,0
6.69728433422279E-06,-1.22488363558659E-05,0.52734375,0,0
5.5119012358773E-06,-1.44076320793829E-05,0.52734375,0,0
4.55745021099574E-06,-1.39922021844541E-05,0.52734375,0,0
6.2966696532385E-06,-1.5787678421475E-05,0.52734375,0,0
8.08209642855218E-06,-1.60616054927232E-05,0.52734375,0,0
9.06210152606945E-06,-1.66042409546208E-05,0.52734375,0,0
7.50420394979301E-06,-1.55711022671312E-05,0.52734375,0,0
5.71439250052208E-06,-1.63010518008377E-05,0.52734375,0,0
5.06836431668489E-06,-1.49806819536025E-05,0.52734375,0,0
5.30139914189931E-06,-1.29534364532446E-05,0.52734375,0,0
5.08795073983492E-06,-1.16410446935333E-05,0.52734375,0,0
4.5343990677793E-06,-1.28290439533885E-05,0.52734375,0,0
2.73927776106575E-06,-1.16033088488621E-05,0.52734375,0,0
4.11766859542695E-06,-1.66810368682491E-05,0.52734375,0,0
4.10547136198147E-06,-1.29483523778617E-05,0.52734375,0,0
5.6968074204633E-06,-1.57539525389439E-05,0.52734375,0,0
5.57328712602612E-06,-1.44045025081141E-05,0.52734375,0,0
5.04172112414381E-06,-1.74784236151027E-05,0.52734375,0,0
2.52948689194454E-06,-1.72284362633945E-05,0.52734375,0,0
1.2131306448282E-06,-1.78425543708727E-05,0.52734375,0,0
8.25597339826345E-07,-1.62690830620704E-05,0.52734375,0,0
9.2797236561637E-08,-1.61631505761761E-05,0.52734375,0,0
-6.84032613662566E-07,-1.67306407092838E-05,0.52734375,0,0
2.20121574301402E-08,-1.61007756105391E-05,0.52734375,0,0
1.38299412810738E-06,-1.71946012414992E-05,0.52734375,0,0
8.91484035037138E-07,-1.77211113623343E-05,0.52734375,0,0
-9.50142009514821E-08,-1.82972980837803E-05,0.52734375,0,0
-4.44570140700762E-08,-1.66746158356545E-05,0.52734375,0,0
1.98160182662832E-06,-1.81685263669351E-05,0.52734375,0,0
4.09229187425808E-06,-1.97677290998399E-05,0.52734375,0,0
4.6766244850005E-06,-2.0522184058791E-05,0.52734375,0,0
2.60007709584897E-06,-1.7454089174862E-05,0.52734375,0,0
9.44679470649135E-07,-1.53648379637161E-05,0.52734375,0,0
1.11718645712244E-06,-1.55306624947116E-05,0.52734375,0,0
2.97575888907886E-06,-1.79208818735788E-05,0.52734375,0,0
4.66075061922311E-06,-1.94128642760916E-05,0.52734375,0,0
5.13662462253706E-06,-1.98889338207664E-05,0.52734375,0,0
4.39477935287869E-06,-2.0526993466774E-05,0.52734375,0,0
2.99383304991352E-06,-2.26445481530391E-05,0.52734375,0,0
4.06817491693801E-07,-1.8235052266391E-05,0.52734375,0,0
-4.68284355292781E-07,-2.3309474272537E-05,0.52734375,0,0
-1.34204924506776E-06,-1.39133007905912E-05,0.52734375,0,0
1.95349926457311E-07,-1.89582588063786E-05,0.52734375,0,0
2.20136939788063E-06,-1.59951996465679E-05,0.52734375,0,0
3.36226889885438E-06,-1.81788655027049E-05,0.52734375,0,0
3.05627645502682E-06,-1.46893517012359E-05,0.52734375,0,0
2.75383581538335E-06,-1.49155384860933E-05,0.52734375,0,0
1.02462990980712E-06,-1.39162566483719E-05,0.52734375,0,0
-1.82600058451499E-06,-1.4764650586585E-05,0.52734375,0,0
-3.31119599650265E-06,-1.79812232090626E-05,0.52734375,0,0
-2.28995645557006E-06,-2.102571852447E-05,0.52734375,0,0
-3.90019664564534E-07,-2.33139307965757E-05,0.52734375,0,0
3.34848067495841E-07,-2.03592226171168E-05,0.52734375,0,0
5.30662930486869E-07,-1.82808234967524E-05,0.52734375,0,0
1.25533188111149E-06,-1.62616597663146E-05,0.52734375,0,0
1.92273296306666E-06,-1.81189825525507E-05,0.52734375,0,0
2.03477634386218E-06,-1.69628274306888E-05,0.52734375,0,0
2.24564746531541E-06,-1.68741571542341E-05,0.52734375,0,0
2.19822663893865E-06,-1.62085125339217E-05,0.52734375,0,0
1.63328968483256E-06,-1.80541865120176E-05,0.52734375,0,0
4.56867923048776E-07,-1.82957082870416E-05,0.52734375,0,0
-7.72866428633279E-08,-1.8442420696374E-05,0.52734375,0,0
3.21687423365802E-07,-1.75287823367398E-05,0.52734375,0,0
8.00294060354645E-07,-1.76403918885626E-05,0.52734375,0,0
5.41446581792115E-07,-1.71953670360381E-05,0.52734375,0,0
1.73796209423926E-07,-1.52373277160223E-05,0.52734375,0,0
1.37840061142924E-07,-1.07865980680799E-05,0.52734375,0,0
9.81311245595862E-07,-1.26250452012755E-05,0.52734375,0,0
1.79966173163848E-06,-6.72867690809653E-06,0.52734375,0,0
2.80839617516904E-06,-1.0869466677832E-05,0.52734375,0,0
4.0429777072859E-06,-1.11430344986729E-05,0.52734375,0,0
4.39994619227946E-06,-1.40323654704844E-05,0.52734375,0,0
4.14561964134919E-06,-1.29094323710888E-05,0.52734375,0,0
2.97610449706553E-06,-1.46551010402618E-05,0.52734375,0,0
1.71674946614075E-06,-1.47885648402735E-05,0.52734375,0,0
4.6782918872168E-08,-1.38802206492983E-05,0.52734375,0,0
-1.06625259377324E-06,-1.34496540340479E-05,0.52734375,0,0
3.23007071756365E-07,-1.56776222866029E-05,0.52734375,0,0
4.12512417824473E-06,-2.10426769626793E-05,0.52734375,0,0
7.80977006797912E-06,-2.38861630350584E-05,0.52734375,0,0
8.04444334789878E-06,-2.47016851062654E-05,0.52734375,0,0
5.78675826545805E-06,-2.18038894672645E-05,0.52734375,0,0
4.87410534333321E-06,-1.98507823370164E-05,0.52734375,0,0
6.20426726527512E-06,-1.85890876309713E-05,0.52734375,0,0
5.79323250349262E-06,-2.08805686270352E-05,0.52734375,0,0
3.73603688785806E-06,-2.11940587178105E-05,0.52734375,0,0
4.03459534936701E-06,-1.96714572666679E-05,0.52734375,0,0
5.75094918531249E-06,-1.49380402945098E-05,0.52734375,0,0
4.65695984530612E-06,-1.07254027170711E-05,0.52734375,0,0
1.40657812153222E-06,-7.28514942238689E-06,0.52734375,0,0
6.31843533938081E-07,-6.26137398285209E-06,0.52734375,0,0
3.45474290952552E-06,-5.79846118853311E-06,0.52734375,0,0
5.52754772797925E-06,-6.49956655252026E-06,0.52734375,0,0
2.97673068416771E-06,-1.00984407254145E-05,0.52734375,0,0
2.56750581684173E-06,-1.78438021976035E-05,0.52734375,0,0
4.90094350880099E-07,-1.60968429554487E-05,0.52734375,0,0
1.12684961095511E-06,-1.66278077813331E-05,0.52734375,0,0
-1.57854788085388E-06,-1.68557653523749E-05,0.52734375,0,0
-1.38648647407535E-06,-2.30015921260929E-05,0.52734375,0,0
-5.41732674719242E-07,-2.75686306849821E-05,0.52734375,0,0
1.24132895962248E-06,-2.94411602226319E-05,0.52734375,0,0
1.8757144744086E-06,-2.56095590884797E-05,0.52734375,0,0
2.07881589631143E-06,-1.99982641788665E-05,0.52734375,0,0
2.41968609770993E-06,-1.56885835167486E-05,0.52734375,0,0
2.11402743843792E-06,-1.28343417600263E-05,0.52734375,0,0
1.6314365893777E-06,-1.27569983305875E-05,0.52734375,0,0
1.9942083326896E-06,-1.41277332659229E-05,0.52734375,0,0
4.16153170590405E-06,-1.8037064364762E-05,0.52734375,0,0
4.34449248132296E-06,-2.09450299735181E-05,0.52734375,0,0
2.60709998656239E-06,-2.26531665248331E-05,0.52734375,0,0
7.30469935206202E-07,-2.13669954973739E-05,0.52734375,0,0
6.46265846171445E-07,-2.00823069462786E-05,0.52734375,0,0
-1.43899526960922E-07,-1.68026963365264E-05,0.52734375,0,0
-1.10735254565952E-06,-1.33162466227077E-05,0.52734375,0,0
-4.54513809700074E-07,-1.28513802337693E-05,0.52734375,0,0
1.18991511044442E-06,-1.45662752402131E-05,0.52734375,0,0
1.10993585167307E-06,-1.53807959577534E-05,0.52734375,0,0
6.58405667763873E-07,-1.56239148054738E-05,0.52734375,0,0
-9.36096569148503E-08,-1.40710853884229E-05,0.52734375,0,0
-3.87933795309436E-07,-1.37930837809108E-05,0.52734375,0,0
4.23188367904004E-07,-1.32110062622814E-05,0.52734375,0,0
5.65077868941444E-07,-2.03434574359562E-05,0.52734375,0,0
-4.79792561236536E-08,-1.66029749379959E-05,0.52734375,0,0
-5.83694941269641E-07,-2.08137789741158E-05,0.52734375,0,0
-7.99439987986261E-07,-1.94260392163415E-05,0.52734375,0,0
-2.93388552563556E-07,-2.00996128114639E-05,0.52734375,0,0
1.46639592912834E-06,-1.8570141037344E-05,0.52734375,0,0
1.76923549588537E-06,-1.96190212591318E-05,0.52734375,0,0
-3.18200960691684E-07,-1.82455569301965E-05,0.52734375,0,0
-2.29607576329727E-06,-1.50973573909141E-05,0.52734375,0,0
-2.96034158964176E-06,-1.30185999296373E-05,0.52734375,0,0
-2.34889171224495E-06,-1.30863063532161E-05,0.52734375,0,0
-4.76242291824747E-07,-1.59397550305584E-05,0.52734375,0,0
1.94720132640214E-06,-1.80187198566273E-05,0.52734375,0,0
3.47316745319404E-06,-2.09097634069622E-05,0.52734375,0,0
3.86502370020025E-06,-2.13357143366011E-05,0.52734375,0,0
2.971341018565E-06,-2.15054224099731E-05,0.52734375,0,0
1.4695295931233E-06,-2.03568342840299E-05,0.52734375,0,0
6.40860093881201E-07,-2.18762706936104E-05,0.52734375,0,0
1.72356669736473E-06,-2.34527378779603E-05,0.52734375,0,0
3.62661353392468E-06,-2.48856704274658E-05,0.52734375,0,0
5.23717108080746E-06,-2.32440052059246E-05,0.52734375,0,0
6.20959644948016E-06,-1.97119825315895E-05,0.52734375,0,0
4.31510761700338E-06,-1.71400297404034E-05,0.52734375,0,0
2.95818631457223E-06,-1.75682998815319E-05,0.52734375,0,0
4.41223255620571E-06,-1.76924568222603E-05,0.52734375,0,0
5.9677176977857E-06,-1.75448149093427E-05,0.52734375,0,0
5.02762713949778E-06,-1.2923591384606E-05,0.52734375,0,0
7.43323289498221E-06,-1.90553764696233E-05,0.52734375,0,0
5.82859547648695E-06,-1.68473306985106E-05,0.52734375,0,0
6.85929308019695E-06,-2.07940793188754E-05,0.52734375,0,0
5.52371739104274E-06,-1.59915107360575E-05,0.52734375,0,0
6.83566122461343E-06,-1.7245107301278E-05,0.52734375,0,0
7.83994619268924E-06,-1.64911434694659E-05,0.52734375,0,0
8.92802199814469E-06,-1.82250714715337E-05,0.52734375,0,0
8.83167103893356E-06,-1.98592715605628E-05,0.52734375,0,0
9.08255515241763E-06,-2.20391902985284E-05,0.52734375,0,0
9.02863848750712E-06,-2.24442828766769E-05,0.52734375,0,0
7.49454056858667E-06,-2.19907578866696E-05,0.52734375,0,0
5.48138677913812E-06,-2.34085910051363E-05,0.52734375,0,0
4.36875961895566E-06,-2.34169274335727E-05,0.52734375,0,0
5.11111329615233E-06,-2.27192977035884E-05,0.52734375,0,0
5.07933100379887E-06,-1.89285638043657E-05,0.52734375,0,0
5.32471403857926E-06,-1.71332339959918E-05,0.52734375,0,0
4.88609703097609E-06,-1.47139571708976E-05,0.52734375,0,0
4.04078627980198E-06,-1.3577026038547E-05,0.52734375,0,0
2.18935701923328E-06,-1.18988064059522E-05,0.52734375,0,0
2.31250987781095E-06,-1.30347643789719E-05,0.52734375,0,0
3.23780750477454E-06,-1.51325884871767E-05,0.52734375,0,0
2.76194896287052E-06,-1.76836092578014E-05,0.52734375,0,0
1.83070665116247E-06,-1.72078161995159E-05,0.52734375,0,0
2.35625907407666E-06,-1.45550984598231E-05,0.52734375,0,0
4.05439868700341E-06,-1.12082507257583E-05,0.52734375,0,0
6.38452820567181E-06,-1.21269922601641E-05,0.52734375,0,0
5.03569117427105E-06,-1.37654678837862E-05,0.52734375,0,0
4.53107350040227E-06,-1.95267839444568E-05,0.52734375,0,0
-2.58885194170944E-07,-1.28926876641344E-05,0.52734375,0,0
1.57451461291203E-06,-1.50154164657579E-05,0.52734375,0,0
2.66534175352717E-06,-1.31999049699516E-05,0.52734375,0,0
4.37812104792101E-06,-1.44183768497896E-05,0.52734375,0,0
2.01541615751921E-06,-1.20270706247538E-05,0.52734375,0,0
1.35625396069372E-06,-1.17171184683684E-05,0.52734375,0,0
5.99809197865397E-07,-1.03531183412997E-05,0.52734375,0,0
-2.16852356516029E-07,-1.05764020190691E-05,0.52734375,0,0
4.81298521037843E-08,-1.17717836474185E-05,0.52734375,0,0
1.09189869590409E-07,-1.39727444548043E-05,0.52734375,0,0
8.76435535701603E-07,-1.72285617736634E-05,0.52734375,0,0
9.33512922074442E-07,-1.66209247254301E-05,0.52734375,0,0
7.87865076290473E-07,-1.51915301103145E-05,0.52734375,0,0
-4.50361085313489E-07,-1.2392292774166E-05,0.52734375,0,0
-1.11232407107309E-06,-1.38935893119196E-05,0.52734375,0,0
-3.03182446259598E-06,-1.5682315279264E-05,0.52734375,0,0
-4.23149367634323E-06,-1.76559497049311E-05,0.52734375,0,0
-3.39651774083904E-06,-1.7359787307214E-05,0.52734375,0,0
-5.66267544854782E-07,-1.79855287569808E-05,0.52734375,0,0
3.5030851108786E-07,-1.81764407898299E-05,0.52734375,0,0
-3.16189670002132E-07,-1.91507788258605E-05,0.52734375,0,0
-8.12525115634344E-07,-1.91375929716742E-05,0.52734375,0,0
-4.80595986118715E-07,-1.80255865416257E-05,0.52734375,0,0
2.24236785584253E-07,-1.70405128301354E-05,0.52734375,0,0
1.89493016478082E-06,-1.95274769794196E-05,0.52734375,0,0
3.01801287605485E-06,-1.94736949197249E-05,0.52734375,0,0
5.02305465488462E-06,-2.71387089014752E-05,0.52734375,0,0
4.79281061416259E-06,-1.89461279660463E-05,0.52734375,0,0
5.96690460952232E-06,-2.34442231885623E-05,0.52734375,0,0
4.11651899412391E-06,-1.91746494238032E-05,0.52734375,0,0
2.70613168140699E-06,-2.04879725060891E-05,0.52734375,0,0
3.31109595208545E-06,-1.75583700183779E-05,0.52734375,0,0
3.42134353559231E-06,-1.73056923813419E-05,0.52734375,0,0
2.09061181521975E-06,-1.50200094140018E-05,0.52734375,0,0
3.55980631638886E-07,-1.39538096846081E-05,0.52734375,0,0
-4.10557248642363E-07,-1.28926003526431E-05,0.52734375,0,0
-2.87496732198633E-07,-1.11605904749013E-05,0.52734375,0,0
4.95521646826091E-07,-1.29808668134501E-05,0.52734375,0,0
7.52512335111533E-07,-1.24327834782889E-05,0.52734375,0,0
4.8743225988801E-07,-1.1393357453926E-05,0.52734375,0,0
7.16511181053647E-07,-7.93992421677103E-06,0.52734375,0,0
1.62048240781587E-06,-8.28111933515174E-06,0.52734375,0,0
1.72604882209271E-06,-8.38223331811605E-06,0.52734375,0,0
1.6408804413004E-06,-1.12186207843479E-05,0.52734375,0,0
2.07132575269497E-06,-1.27314633573405E-05,0.52734375,0,0
3.14437670567713E-06,-1.74577598954784E-05,0.52734375,0,0
4.0346149035031E-06,-2.34039780480089E-05,0.52734375,0,0
5.1117162911396E-06,-2.90537518594647E-05,0.52734375,0,0
6.1885575632914E-06,-2.87818857032107E-05,0.52734375,0,0
6.38225628790678E-06,-2.58065920206718E-05,0.52734375,0,0
4.89308877149597E-06,-2.38125139730982E-05,0.52734375,0,0
3.35073673340958E-06,-2.4402952476521E-05,0.52734375,0,0
3.12725774165301E-06,-2.09674326470122E-05,0.52734375,0,0
4.71733937956742E-06,-2.99319308396662E-05,0.52734375,0,0
3.0118653739919E-06,-2.11335645872168E-05,0.52734375,0,0
3.51417156707612E-06,-2.28644566959701E-05,0.52734375,0,0
2.6460816116014E-06,-1.73906810232438E-05,0.52734375,0,0
1.96334872271109E-06,-1.96037635760149E-05,0.52734375,0,0
1.51464246300748E-06,-1.57926260726526E-05,0.52734375,0,0
1.22202641250624E-06,-1.85411627171561E-05,0.52734375,0,0
1.84784835255414E-06,-2.05149572138907E-05,0.52734375,0,0
2.59322109741333E-06,-2.14552419492975E-05,0.52734375,0,0
1.79056701199443E-06,-2.09034988074563E-05,0.52734375,0,0
2.12301279134408E-06,-2.01034308702219E-05,0.52734375,0,0
5.3775988817506E-06,-2.13561252166983E-05,0.52734375,0,0
8.67485414346447E-06,-2.03132058231859E-05,0.52734375,0,0
1.01461073427345E-05,-2.08116416615667E-05,0.52734375,0,0
1.00399320217548E-05,-1.90359787666239E-05,0.52734375,0,0
9.99591247818898E-06,-1.98960678972071E-05,0.52734375,0,0
1.07411378849065E-05,-1.84913988050539E-05,0.52734375,0,0
1.13654214146663E-05,-1.86143061000621E-05,0.52734375,0,0
1.03550755738979E-05,-1.64113189384807E-05,0.52734375,0,0
9.60326815402368E-06,-1.61341649800306E-05,0.52734375,0,0
9.29562429519137E-06,-1.33948742586654E-05,0.52734375,0,0
9.2123782451381E-06,-1.198612517328E-05,0.52734375,0,0
9.36675405682763E-06,-9.98654650175013E-06,0.52734375,0,0
8.80735296959756E-06,-9.66168317972915E-06,0.52734375,0,0
6.03918351771426E-06,-1.00631532404805E-05,0.52734375,0,0
3.64962602361629E-06,-1.09298680399661E-05,0.52734375,0,0
3.13579039357137E-06,-9.96428934740834E-06,0.52734375,0,0
4.57667147202301E-06,-1.46270558616379E-05,0.52734375,0,0
3.46323986377683E-06,-1.13021260403912E-05,0.52734375,0,0
2.96138705380145E-06,-1.28706633404363E-05,0.52734375,0,0
5.98854398958792E-07,-9.20902130019385E-06,0.52734375,0,0
1.08907590856688E-06,-9.01351995707955E-06,0.52734375,0,0
1.04506261777715E-06,-9.16705084819114E-06,0.52734375,0,0
-2.8796481643667E-08,-1.24887392303208E-05,0.52734375,0,0
-1.78534367023531E-06,-1.68256538017886E-05,0.52734375,0,0
-2.59491912402154E-06,-2.09353256650502E-05,0.52734375,0,0
-1.31092781430198E-06,-2.11845326703042E-05,0.52734375,0,0
2.8757680681224E-08,-1.8837328752852E-05,0.52734375,0,0
1.91314697417511E-07,-1.60668823809829E-05,0.52734375,0,0
-1.33172613914212E-06,-1.34649790197727E-05,0.52734375,0,0
-2.87440548163431E-06,-1.47636983456323E-05,0.52734375,0,0
-3.39933603754616E-06,-1.57579761435045E-05,0.52734375,0,0
-2.09718200494535E-06,-1.64519569807453E-05,0.52734375,0,0
-6.1772794879289E-07,-1.6257257811958E-05,0.52734375,0,0
5.77639923449169E-07,-1.91299823200097E-05,0.52734375,0,0
4.00268731937103E-07,-2.30188179557445E-05,0.52734375,0,0
5.41955728294852E-07,-2.71927438006969E-05,0.52734375,0,0
1.31754609355994E-06,-2.71778353635455E-05,0.52734375,0,0
3.45913986166124E-06,-2.29342513193842E-05,0.52734375,0,0
4.98445297125727E-06,-1.52261200128123E-05,0.52734375,0,0
4.08975256505073E-06,-1.00489241958712E-05,0.52734375,0,0
2.34825029110652E-06,-1.0575984561001E-05,0.52734375,0,0
1.00616250620078E-06,-1.50226196637959E-05,0.52734375,0,0
1.08893800643273E-06,-1.53754335769918E-05,0.52734375,0,0
2.20545985030185E-06,-2.14800093090162E-05,0.52734375,0,0
1.88170633919071E-06,-1.81130017153919E-05,0.52734375,0,0
1.83970132638933E-06,-2.48958021984436E-05,0.52734375,0,0
2.90212665277068E-06,-2.18302466237219E-05,0.52734375,0,0
4.49967001259211E-06,-2.46792951656971E-05,0.52734375,0,0
5.10475865667104E-06,-2.31375597650185E-05,0.52734375,0,0
4.39414725406095E-06,-2.26277406909503E-05,0.52734375,0,0
2.820113877533E-06,-1.97722038137726E-05,0.52734375,0,0
1.88116462140897E-06,-1.78945920197293E-05,0.52734375,0,0
2.46143258664233E-06,-1.78018290171167E-05,0.52734375,0,0
3.53808468389616E-06,-1.64530956681119E-05,0.52734375,0,0
3.85654902856913E-06,-1.4458732039202E-05,0.52734375,0,0
4.28224257120746E-06,-1.02292460724129E-05,0.52734375,0,0
4.99579073220957E-06,-1.07861651486019E-05,0.52734375,0,0
5.4362608352676E-06,-1.10556820800412E-05,0.52734375,0,0
6.41910264675971E-06,-1.05724448076217E-05,0.52734375,0,0
7.17293278285069E-06,-7.39691176931956E-06,0.52734375,0,0
5.5813084145484E-06,-8.36104118207004E-06,0.52734375,0,0
1.94090057448193E-06,-9.3911539806868E-06,0.52734375,0,0
-7.27504698261328E-07,-1.08243566501187E-05,0.52734375,0,0
-1.19358389838453E-06,-1.13982532639056E-05,0.52734375,0,0
5.99657937527809E-07,-1.38943923957413E-05,0.52734375,0,0
3.0963083190727E-06,-1.58027014549589E-05,0.52734375,0,0
2.89682020593318E-06,-1.64971879712539E-05,0.52734375,0,0
-5.05363857428165E-07,-1.47838336488348E-05,0.52734375,0,0
-2.00466320166015E-06,-1.29320442283642E-05,0.52734375,0,0
1.4048833918423E-07,-1.03666770883137E-05,0.52734375,0,0
3.08248741021089E-06,-1.49512470670743E-05,0.52734375,0,0
5.10961990585201E-06,-1.19885362437344E-05,0.52734375,0,0
2.05661444852012E-06,-1.46794500324177E-05,0.52734375,0,0
-5.99734903516946E-07,-1.16967185022077E-05,0.52734375,0,0
-3.57660638883317E-08,-1.22295086839586E-05,0.52734375,0,0
2.80363883575774E-06,-1.15380689749145E-05,0.52734375,0,0
3.55400061380351E-06,-1.26429004012607E-05,0.52734375,0,0
2.21651248466515E-06,-1.23040927064721E-05,0.52734375,0,0
6.74113778131868E-07,-1.15905913844472E-05,0.52734375,0,0
-3.11512764028521E-07,-1.07050072983839E-05,0.52734375,0,0
1.82069342713476E-07,-1.08206068034633E-05,0.52734375,0,0
2.03341528504097E-06,-1.22647088574013E-05,0.52734375,0,0
4.25776215706719E-06,-1.2467811757233E-05,0.52734375,0,0
4.89681815452059E-06,-1.34659094328526E-05,0.52734375,0,0
4.34472804045072E-06,-1.33555549837183E-05,0.52734375,0,0
3.61411025551206E-06,-1.3660410331795E-05,0.52734375,0,0
3.04081504509668E-06,-1.22248966363259E-05,0.52734375,0,0
2.28652902478643E-06,-1.24975358630763E-05,0.52734375,0,0
1.54095016569045E-06,-1.28659530673758E-05,0.52734375,0,0
8.24676305910543E-07,-1.42465532917413E-05,0.52734375,0,0
7.60466662086401E-07,-1.37726301545626E-05,0.52734375,0,0
1.29948966787197E-06,-1.43315373861697E-05,0.52734375,0,0
2.30528212341596E-06,-1.68426431628177E-05,0.52734375,0,0
2.72058946393372E-06,-2.10668185900431E-05,0.52734375,0,0
1.31632532429649E-06,-2.41899197135353E-05,0.52734375,0,0
-2.77038509466365E-07,-2.45901210291777E-05,0.52734375,0,0
-2.05161245503405E-06,-2.10902762773912E-05,0.52734375,0,0
-4.20673995904508E-06,-3.23728636431042E-05,0.52734375,0,0
-3.75352806258888E-06,-2.59074677160243E-05,0.52734375,0,0
-1.85102169325546E-06,-2.90146672341507E-05,0.52734375,0,0
2.46883530508057E-07,-2.35315401369007E-05,0.52734375,0,0
2.53895535706761E-07,-2.61815694102552E-05,0.52734375,0,0
-1.12765781068447E-06,-2.50152424996486E-05,0.52734375,0,0
-2.17056890505773E-06,-2.52367008215515E-05,0.52734375,0,0
-4.96912599956545E-09,-2.28531134780496E-05,0.52734375,0,0
3.66437166121614E-06,-2.2725282178726E-05,0.52734375,0,0
6.24472477284144E-06,-2.31448484555585E-05,0.52734375,0,0
7.75871194491629E-06,-2.05169817490969E-05,0.52734375,0,0
8.63997047417797E-06,-1.89757520274725E-05,0.52734375,0,0
8.84697237779619E-06,-1.9450922991382E-05,0.52734375,0,0
7.2781735980243E-06,-2.26863376155961E-05,0.52734375,0,0
5.28773261976312E-06,-2.03814579435857E-05,0.52734375,0,0
3.52648316948034E-06,-1.81448394869221E-05,0.52734375,0,0
2.6949937819154E-06,-1.56842252181377E-05,0.52734375,0,0
3.18037609758903E-06,-1.76390094566159E-05,0.52734375,0,0
3.95371489503304E-06,-1.89745624084026E-05,0.52734375,0,0
2.49282288677932E-06,-2.17170018004254E-05,0.52734375,0,0
3.53549751253013E-07,-2.21537720790366E-05,0.52734375,0,0
-2.15729745178805E-08,-2.22166308958549E-05,0.52734375,0,0
9.64857122198737E-07,-2.19317025766941E-05,0.52734375,0,0
1.74987553691608E-06,-2.39985347434413E-05,0.52734375,0,0
2.31077137868851E-06,-2.45747305598343E-05,0.52734375,0,0
3.42540283782E-06,-2.33695827773772E-05,0.52734375,0,0
2.84747852674627E-06,-1.77157126017846E-05,0.52734375,0,0
2.62823891716835E-06,-2.42194619204383E-05,0.52734375,0,0
-2.77857708397278E-07,-1.69686682056636E-05,0.52734375,0,0
1.90974014913081E-06,-2.08728233701549E-05,0.52734375,0,0
4.74199123345898E-06,-1.5880821592873E-05,0.52734375,0,0
6.89001581122284E-06,-1.74655378941679E-05,0.52734375,0,0
5.3373819355329E-06,-1.54047629621346E-05,0.52734375,0,0
4.23306119046174E-06,-1.5774043276906E-05,0.52734375,0,0
4.63993001176277E-06,-1.46734146255767E-05,0.52734375,0,0
4.75822025691741E-06,-1.43366260090261E-05,0.52734375,0,0
4.19866046286188E-06,-1.38014147523791E-05,0.52734375,0,0
3.97120538764284E-06,-1.23119025374763E-05,0.52734375,0,0
4.72013789476478E-06,-1.3688519175048E-05,0.52734375,0,0
4.56125917480676E-06,-1.5209936464089E-05,0.52734375,0,0
3.62777245754842E-06,-1.88659851119155E-05,0.52734375,0,0
3.12881184072467E-06,-1.86485467565944E-05,0.52734375,0,0
3.5801697322313E-06,-1.86036540981149E-05,0.52734375,0,0
3.26711096931831E-06,-1.75761451828294E-05,0.52734375,0,0
2.76562968792859E-06,-1.90159189514816E-05,0.52734375,0,0
2.47349271376152E-06,-1.73056305357022E-05,0.52734375,0,0
3.40238921126002E-06,-1.61335083248559E-05,0.52734375,0,0
3.22991991197341E-06,-1.47223954627407E-05,0.52734375,0,0
2.22010135075834E-06,-1.58584443852305E-05,0.52734375,0,0
2.12443228519987E-06,-1.56855348905083E-05,0.52734375,0,0
3.05380899590091E-06,-1.41189275382203E-05,0.52734375,0,0
3.17795479531924E-06,-1.16855508167646E-05,0.52734375,0,0
1.41027658173698E-06,-9.82357050816063E-06,0.52734375,0,0
-8.1552167330301E-07,-9.96676862996537E-06,0.52734375,0,0
-1.02950320979289E-06,-1.6332560335286E-05,0.52734375,0,0
-5.68862560612615E-07,-1.4801057659497E-05,0.52734375,0,0
-8.82167284999014E-07,-1.61993757501477E-05,0.52734375,0,0
-5.60323826448439E-07,-1.30690077639883E-05,0.52734375,0,0
-1.65684184594284E-07,-1.46417814903543E-05,0.52734375,0,0
1.09642417100986E-06,-1.63506556418724E-05,0.52734375,0,0
2.49282516051608E-06,-1.76967732841149E-05,0.52734375,0,0
2.45241039920074E-06,-1.63660715770675E-05,0.52734375,0,0
1.71142482940922E-06,-1.6094969396363E-05,0.52734375,0,0
8.01607711764518E-07,-1.66627123689977E-05,0.52734375,0,0
-4.74986961762625E-07,-1.76729263330344E-05,0.52734375,0,0
-1.51977633322531E-06,-2.05651867872803E-05,0.52734375,0,0
-5.22516927503602E-07,-2.23079514398705E-05,0.52734375,0,0
1.67785606208781E-06,-2.29117176786531E-05,0.52734375,0,0
2.24759378397721E-06,-2.12743962038076E-05,0.52734375,0,0
9.56453391154355E-07,-2.1527197532123E-05,0.52734375,0,0
1.25903369507796E-07,-2.06204585992964E-05,0.52734375,0,0
-3.34281139657833E-07,-1.83753563760547E-05,0.52734375,0,0
-2.5028392691695E-09,-1.53967903315788E-05,0.52734375,0,0
2.21783102460904E-06,-1.53392629727023E-05,0.52734375,0,0
4.93133529744227E-06,-1.45955218613381E-05,0.52734375,0,0
5.28752843820257E-06,-1.36905373437912E-05,0.52734375,0,0
3.2160526188818E-06,-1.32042687255307E-05,0.52734375,0,0
1.82075530119619E-06,-1.12267243821407E-05,0.52734375,0,0
2.69947736342147E-06,-9.78215211944189E-06,0.52734375,0,0
3.72209069610108E-06,-1.05724093373283E-05,0.52734375,0,0
2.99029147754482E-06,-8.45152953843353E-06,0.52734375,0,0
4.92020353703992E-06,-1.21195917017758E-05,0.52734375,0,0
4.69968517791131E-06,-1.01036184787517E-05,0.52734375,0,0
4.94056212119176E-06,-1.33841158458381E-05,0.52734375,0,0
3.19594801112544E-06,-1.44587575050537E-05,0.52734375,0,0
3.66654580830073E-06,-2.19201356230769E-05,0.52734375,0,0
4.39050836575916E-06,-2.629259324749E-05,0.52734375,0,0
5.97901635046583E-06,-2.79826854239218E-05,0.52734375,0,0
6.50200581731042E-06,-2.62468565779272E-05,0.52734375,0,0
6.03059788772953E-06,-2.39495584537508E-05,0.52734375,0,0
6.45399904897204E-06,-2.23943297896767E-05,0.52734375,0,0
6.34951720712706E-06,-2.1310841475497E-05,0.52734375,0,0
5.91988009546185E-06,-2.10693087865366E-05,0.52734375,0,0
5.53508107259404E-06,-1.93025516637135E-05,0.52734375,0,0
5.27459997101687E-06,-1.77332985913381E-05,0.52734375,0,0
5.12971155330888E-06,-1.68501464941073E-05,0.52734375,0,0
4.94214646096225E-06,-2.02642258955166E-05,0.52734375,0,0
3.26534677697055E-06,-2.24973246076843E-05,0.52734375,0,0
1.38584755404736E-06,-2.26596184802474E-05,0.52734375,0,0
1.64511141065304E-06,-2.09904501389246E-05,0.52734375,0,0
3.84504664907581E-06,-2.14816409425111E-05,0.52734375,0,0
3.89942260881071E-06,-2.22264097828884E-05,0.52734375,0,0
2.39838163906825E-06,-2.12648228625767E-05,0.52734375,0,0
1.47511991599458E-06,-1.98324760276591E-05,0.52734375,0,0
1.6561413076488E-06,-1.94365420611575E-05,0.52734375,0,0
2.68082521870383E-06,-1.79151193151483E-05,0.52734375,0,0
3.58071883965749E-06,-1.69267623277847E-05,0.52734375,0,0
2.04534649128618E-06,-1.31961933220737E-05,0.52734375,0,0
3.82204098059447E-06,-1.61499938258203E-05,0.52734375,0,0
5.57264684175607E-06,-9.2156606115168E-06,0.52734375,0,0
7.06496484781383E-06,-1.26889772218419E-05,0.52734375,0,0
4.08151572628412E-06,-1.04311366158072E-05,0.52734375,0,0
1.02197839169094E-06,-1.36767166623031E-05,0.52734375,0,0
-7.21016931493068E-07,-1.21991915875697E-05,0.52734375,0,0
-8.71717588779575E-07,-1.27894709294196E-05,0.52734375,0,0
-9.55417363002198E-07,-1.13333362605772E-05,0.52734375,0,0
1.85418130627113E-07,-9.99353596853325E-06,0.52734375,0,0
1.50925302477845E-06,-9.73650912783341E-06,0.52734375,0,0
9.82371034297103E-07,-1.06889092421625E-05,0.52734375,0,0
-4.00273336254031E-07,-1.41390755743487E-05,0.52734375,0,0
-1.57803390266054E-06,-1.60548188432585E-05,0.52734375,0,0
-2.01694297174981E-06,-1.71701703948202E-05,0.52734375,0,0
-1.7551877817823E-06,-1.47873106470797E-05,0.52734375,0,0
-6.08886182362767E-07,-1.50928390212357E-05,0.52734375,0,0
-5.17652608778008E-07,-1.41605069075013E-05,0.52734375,0,0
-1.20614686238696E-06,-1.36530316012795E-05,0.52734375,0,0
-1.48776405239914E-06,-1.24332727864385E-05,0.52734375,0,0
-4.31282842328073E-07,-1.43766201290418E-05,0.52734375,0,0
8.46562613787682E-07,-1.48327517308644E-05,0.52734375,0,0
2.21904770114634E-06,-1.48283097587409E-05,0.52734375,0,0
3.03208685181744E-06,-1.5836531019886E-05,0.52734375,0,0
3.25744326801214E-06,-1.85205462912563E-05,0.52734375,0,0
2.58311683865031E-06,-1.79189428308746E-05,0.52734375,0,0
1.27109046843543E-06,-1.46818010762217E-05,0.52734375,0,0
9.57061274675652E-07,-1.07707173810923E-05,0.52734375,0,0
1.87624891623273E-06,-1.5930409063003E-05,0.52734375,0,0
1.6739127204346E-06,-1.19874694064492E-05,0.52734375,0,0
1.20519121082907E-06,-1.38098248498864E-05,0.52734375,0,0
3.43636401112235E-07,-1.17482932182611E-05,0.52734375,0,0
1.59233650265378E-06,-1.3850471987098E-05,0.52734375,0,0
4.36845130025176E-06,-1.43602301250212E-05,0.52734375,0,0
6.15844919593656E-06,-1.59494993567932E-05,0.52734375,0,0
6.38895926385885E-06,-1.66383561008843E-05,0.52734375,0,0
4.41394104200299E-06,-1.8048342099064E-05,0.52734375,0,0
1.76693470166356E-06,-1.7805774405133E-05,0.52734375,0,0
7.96968151917099E-07,-1.63106124091428E-05,0.52734375,0,0
2.57069837061863E-06,-1.65387755259871E-05,0.52734375,0,0
5.31164732819889E-06,-1.62177329912083E-05,0.52734375,0,0
6.40154530628934E-06,-1.68629467225401E-05,0.52734375,0,0
4.42050441051833E-06,-1.59019728016574E-05,0.52734375,0,0
1.3261073945614E-06,-1.60927666001953E-05,0.52734375,0,0
-1.39626521900027E-07,-1.57942031364655E-05,0.52734375,0,0
5.52214373783499E-07,-1.76594148797449E-05,0.52734375,0,0
2.22813059735927E-06,-1.88694866665173E-05,0.52734375,0,0
3.75908143723791E-06,-1.90706814464647E-05,0.52734375,0,0
4.57135456599644E-06,-1.77204638021067E-05,0.52734375,0,0
4.47013871962554E-06,-1.75149125425378E-05,0.52734375,0,0
3.40427027367696E-06,-1.64371358550852E-05,0.52734375,0,0
2.14456531466567E-06,-1.4427177120524E-05,0.52734375,0,0
1.8354137409915E-06,-1.35965346999001E-05,0.52734375,0,0
2.89580589196703E-06,-1.44665946208988E-05,0.52734375,0,0
4.48067567049293E-06,-1.21153379950556E-05,0.52734375,0,0
5.87002659813152E-06,-1.66985810210463E-05,0.52734375,0,0
3.33647813022253E-06,-1.05897215689765E-05,0.52734375,0,0
5.06215610585059E-06,-1.33438343254966E-05,0.52734375,0,0
6.26026758254739E-06,-1.4209342225513E-05,0.52734375,0,0
8.05229774414329E-06,-2.17172855627723E-05,0.52734375,0,0
7.14570933268988E-06,-2.59812295553274E-05,0.52734375,0,0
5.8971272665076E-06,-2.82994060398778E-05,0.52734375,0,0
4.42514010501327E-06,-2.4615130314487E-05,0.52734375,0,0
4.48324499302544E-06,-1.94953281607013E-05,0.52734375,0,0
4.66811115984456E-06,-1.72535746969515E-05,0.52734375,0,0
3.06375500258582E-06,-1.67024481925182E-05,0.52734375,0,0
6.93832589604426E-07,-1.87138211913407E-05,0.52734375,0,0
-9.87461930890277E-07,-1.9783672541962E-05,0.52734375,0,0
-7.23409982583689E-07,-2.05865762836766E-05,0.52734375,0,0
-1.19976220958051E-07,-1.95619650185108E-05,0.52734375,0,0
1.55868531237502E-06,-1.94843669305556E-05,0.52734375,0,0
3.45648459187942E-06,-1.74852666532388E-05,0.52734375,0,0
5.26451458426891E-06,-1.65931924129836E-05,0.52734375,0,0
4.77989169667126E-06,-1.62568994710455E-05,0.52734375,0,0
3.91299545299262E-06,-1.79192029463593E-05,0.52734375,0,0
3.66108497473761E-06,-1.96028304344509E-05,0.52734375,0,0
3.82102325602318E-06,-2.11163969652262E-05,0.52734375,0,0
3.71091823581082E-06,-1.9592134776758E-05,0.52734375,0,0
5.76030515730963E-06,-1.90661230590194E-05,0.52734375,0,0
7.33343858883018E-06,-2.09138070204062E-05,0.52734375,0,0
6.82189374856534E-06,-2.11672286241082E-05,0.52734375,0,0
5.0402045417286E-06,-1.53765249706339E-05,0.52734375,0,0
7.15715304977493E-06,-2.00345129997004E-05,0.52734375,0,0
4.95388530907803E-06,-1.38592567964224E-05,0.52734375,0,0
5.54927419216256E-06,-1.87098285095999E-05,0.52734375,0,0
3.26183953802683E-06,-1.70591356436489E-05,0.52734375,0,0
2.22417929762742E-06,-2.21563223021803E-05,0.52734375,0,0
9.6764927093318E-07,-2.17216675082454E-05,0.52734375,0,0
1.00273086900415E-06,-2.34901926887687E-05,0.52734375,0,0
8.93292678938451E-07,-2.23167280637426E-05,0.52734375,0,0
1.64115522238717E-06,-2.15306117752334E-05,0.52734375,0,0
2.70335954155598E-06,-2.07584034797037E-05,0.52734375,0,0
2.92914864985505E-06,-1.88715384865645E-05,0.52734375,0,0
3.51230482920073E-06,-1.89017882803455E-05,0.52734375,0,0
3.87934642276377E-06,-1.77574311237549E-05,0.52734375,0,0
4.05784749091254E-06,-1.81555424205726E-05,0.52734375,0,0
3.17306808028661E-06,-1.66171030286932E-05,0.52734375,0,0
3.09701317746658E-06,-1.80523802555399E-05,0.52734375,0,0
3.04997502098558E-06,-1.76397679751972E-05,0.52734375,0,0
2.58410386777541E-06,-1.73441767401528E-05,0.52734375,0,0
2.72229442543903E-07,-1.47497994475998E-05,0.52734375,0,0
-7.24386666206556E-07,-1.5384990547318E-05,0.52734375,0,0
-7.56252745759411E-07,-1.58342481881846E-05,0.52734375,0,0
-1.59537614763394E-06,-1.54901354108006E-05,0.52734375,0,0
-3.11331473312748E-06,-1.44694513437571E-05,0.52734375,0,0
-3.04439799947431E-06,-1.48587723742821E-05,0.52734375,0,0
-9.24489597764477E-07,-1.48185372381704E-05,0.52734375,0,0
2.20045603782637E-06,-1.39534031404764E-05,0.52734375,0,0
2.86137606053671E-06,-9.82990059128497E-06,0.52734375,0,0
4.58839167549741E-06,-1.41702930704923E-05,0.52734375,0,0
4.49415119874175E-06,-1.14045014925068E-05,0.52734375,0,0
5.76194724999368E-06,-1.46691090776585E-05,0.52734375,0,0
4.85647933601285E-06,-1.32431032398017E-05,0.52734375,0,0
5.62245986657217E-06,-1.4770243979001E-05,0.52734375,0,0
7.93360777606722E-06,-1.32826116896467E-05,0.52734375,0,0
1.17801964734099E-05,-1.29663867483032E-05,0.52734375,0,0
1.41658474603901E-05,-1.33186758830561E-05,0.52734375,0,0
1.38129917104379E-05,-1.50323894558824E-05,0.52734375,0,0
1.29329291667091E-05,-1.63615877681877E-05,0.52734375,0,0
1.25399674288929E-05,-1.61737934831763E-05,0.52734375,0,0
1.24917296489002E-05,-1.6281170246657E-05,0.52734375,0,0
1.10612691059941E-05,-1.57423255586764E-05,0.52734375,0,0
8.07943251857068E-06,-1.67273901752196E-05,0.52734375,0,0
4.70250870421296E-06,-1.63448057719506E-05,0.52734375,0,0
3.04813192997244E-06,-1.58763068611734E-05,0.52734375,0,0
2.63029733105213E-06,-1.37728511617752E-05,0.52734375,0,0
2.11450969800353E-06,-1.40698602990597E-05,0.52734375,0,0
-9.8240457191423E-07,-1.62871565407841E-05,0.52734375,0,0
-4.36580785390106E-06,-1.91641629498918E-05,0.52734375,0,0
-6.21796652922058E-06,-1.95319043996278E-05,0.52734375,0,0
-6.84768656356027E-06,-1.96138771570986E-05,0.52734375,0,0
-6.39346671960084E-06,-1.87791119969916E-05,0.52734375,0,0
-5.0193261813547E-06,-1.7129768821178E-05,0.52734375,0,0
-2.99177963825059E-06,-1.50754531205166E-05,0.52734375,0,0
-2.14502438211639E-06,-1.42099797812989E-05,0.52734375,0,0
-1.76154651398974E-06,-1.29372983792564E-05,0.52734375,0,0
-1.60321656039741E-06,-1.94315143744461E-05,0.52734375,0,0
8.18308251382405E-07,-1.61764928634511E-05,0.52734375,0,0
-1.20710168971527E-07,-1.94543899851851E-05,0.52734375,0,0
-1.66950633229135E-06,-1.6978117855615E-05,0.52734375,0,0
-2.75911224889569E-06,-1.9814138795482E-05,0.52734375,0,0
-2.28677822633472E-06,-2.04461939574685E-05,0.52734375,0,0
-1.2593882274814E-06,-2.17160431930097E-05,0.52734375,0,0
-7.17696536867152E-07,-2.00851591216633E-05,0.52734375,0,0
1.483293488036E-07,-1.8136252037948E-05,0.52734375,0,0
1.05619687928993E-06,-1.5634584997315E-05,0.52734375,0,0
9.18046453080024E-07,-1.4438256584981E-05,0.52734375,0,0
1.19477454063599E-06,-1.60953513841378E-05,0.52734375,0,0
2.07701100407576E-06,-1.59220435307361E-05,0.52734375,0,0
2.1227144770819E-06,-1.61473126354394E-05,0.52734375,0,0
1.95216580323176E-06,-1.64399280038197E-05,0.52734375,0,0
2.35342645282799E-06,-1.92171992239309E-05,0.52734375,0,0
3.27943325828528E-06,-1.86836368811782E-05,0.52734375,0,0
3.41751933774503E-06,-1.69987742992816E-05,0.52734375,0,0
3.8384218896681E-06,-1.41112877827254E-05,0.52734375,0,0
5.66426251680241E-06,-1.4677704712085E-05,0.52734375,0,0
6.76137688060408E-06,-1.58459934027633E-05,0.52734375,0,0
6.38114534012857E-06,-1.55539346451405E-05,0.52734375,0,0
6.72713122185087E-06,-1.31366359710228E-05,0.52734375,0,0
6.71774068905506E-06,-1.29802583614946E-05,0.52734375,0,0
5.36628249392379E-06,-1.3948546438769E-05,0.52734375,0,0
3.73809803022596E-06,-1.35983473228407E-05,0.52734375,0,0
9.30055705339328E-07,-1.04995824585785E-05,0.52734375,0,0
1.96201071389623E-07,-1.59367173182545E-05,0.52734375,0,0
-1.0914330914602E-06,-1.46706433952204E-05,0.52734375,0,0
-1.08813196675328E-06,-1.92965708265547E-05,0.52734375,0,0
-2.35115453506296E-06,-1.71967149071861E-05,0.52734375,0,0
-2.46020954364212E-06,-1.81732648343313E-05,0.52734375,0,0
-3.85453040507855E-06,-1.8581116819405E-05,0.52734375,0,0
-5.12771293870173E-06,-2.04537591343978E-05,0.52734375,0,0
-5.74720024815178E-06,-1.92289753613295E-05,0.52734375,0,0
-4.98163717566058E-06,-1.80665156221949E-05,0.52734375,0,0
-2.7296478037897E-06,-1.9337185221957E-05,0.52734375,0,0
-1.0395802974017E-06,-2.1438881958602E-05,0.52734375,0,0
-6.94863672379142E-07,-2.27888285735389E-05,0.52734375,0,0
-1.5419524288518E-06,-2.14356823562412E-05,0.52734375,0,0
-2.45760247707949E-06,-2.20600395550719E-05,0.52734375,0,0
-2.86918339043041E-06,-2.24294508370804E-05,0.52734375,0,0
-2.17266847357678E-06,-2.29786110139685E-05,0.52734375,0,0
-1.26966006064322E-06,-2.08378642128082E-05,0.52734375,0,0
8.0726607620818E-08,-1.97326553461608E-05,0.52734375,0,0
1.84474379238964E-06,-2.05619162443327E-05,0.52734375,0,0
2.92786717182025E-06,-2.31274025281891E-05,0.52734375,0,0
2.67955601884751E-06,-2.17542201426113E-05,0.52734375,0,0
3.18157344736392E-06,-1.87262703548186E-05,0.87890625,0,0
3.94714743379154E-06,-1.73229254869511E-05,0.87890625,0,0
4.5724345909548E-06,-1.92481984413462E-05,0.87890625,0,0
5.89554292673711E-06,-2.1518899302464E-05,0.87890625,0,0
6.16099487160682E-06,-2.1441956050694E-05,0.87890625,0,0
5.30602937942604E-06,-1.60523886734154E-05,0.87890625,0,0
8.99686438060598E-06,-2.12698560062563E-05,0.87890625,0,0
7.97539814811898E-06,-1.44676878335304E-05,0.87890625,0,0
8.99864789971616E-06,-1.90558075701119E-05,0.87890625,0,0
8.23526806925656E-06,-1.56590285769198E-05,0.87890625,0,0
8.67729795572814E-06,-1.78235895873513E-05,0.87890625,0,0
8.12476719147526E-06,-1.46193242471782E-05,0.87890625,0,0
7.49276705391821E-06,-1.49690204125363E-05,0.87890625,0,0
6.19881529928534E-06,-1.53105320350733E-05,0.87890625,0,0
5.50330241821939E-06,-1.59691808221396E-05,0.87890625,0,0
4.62144362245454E-06,-1.65224555530585E-05,0.87890625,0,0
4.26806900577503E-06,-1.61039333761437E-05,0.87890625,0,0
4.88567184220301E-06,-1.70269595400896E-05,0.87890625,0,0
4.32479282608256E-06,-1.60988874995383E-05,0.87890625,0,0
4.05898163080565E-06,-1.65839919645805E-05,0.87890625,0,0
4.31999933425686E-06,-1.59009287017398E-05,0.87890625,0,0
5.61963406653376E-06,-1.82481198862661E-05,0.87890625,0,0
5.777577371191E-06,-1.76378052856307E-05,0.87890625,0,0
5.28899590790388E-06,-1.72446780197788E-05,0.87890625,0,0
4.66224764750223E-06,-1.60769250214798E-05,0.87890625,0,0
4.7698313210276E-06,-1.61478528752923E-05,0.87890625,0,0
4.91114269607351E-06,-1.36264507091255E-05,0.87890625,0,0
5.12738688485115E-06,-1.09191432784428E-05,0.87890625,0,0
3.97914936911548E-06,-8.57233499118593E-06,0.87890625,0,0
3.0746975880902E-06,-9.55499854171649E-06,0.87890625,0,0
2.72256284006289E-06,-1.02658050309401E-05,0.87890625,0,0
1.30774026274594E-06,-8.54678364703432E-06,0.87890625,0,0
-1.07309801933297E-06,-7.52333835407626E-06,0.87890625,0,0
-2.61519062405569E-06,-1.28432511701249E-05,0.87890625,0,0
-1.80722418008372E-06,-1.22776409625658E-05,0.87890625,0,0
-6.30548186109081E-07,-1.36872513394337E-05,0.87890625,0,0
-7.42007159715286E-07,-1.21607699838933E-05,0.87890625,0,0
-1.20471804621047E-06,-1.459809300286E-05,0.87890625,0,0
-1.89102934200491E-06,-1.55361194629222E-05,0.87890625,0,0
-2.73927389571327E-06,-1.47567952808458E-05,0.87890625,0,0
-2.35870993492426E-06,-1.35757536554593E-05,0.87890625,0,0
-5.96548886733217E-07,-1.3197869520809E-05,0.87890625,0,0
7.98006112745497E-07,-1.32747773022857E-05,0.87890625,0,0
1.25090025449026E-06,-1.38514833452064E-05,0.87890625,0,0
3.6270267855798E-07,-1.54120443767169E-05,0.87890625,0,0
-1.83695840405562E-06,-1.52281427290291E-05,0.87890625,0,0
-3.55355950887315E-06,-1.58031089085853E-05,0.87890625,0,0
-4.01304623665055E-06,-1.70458042703103E-05,0.87890625,0,0
-3.10189921037818E-06,-1.9280723790871E-05,0.87890625,0,0
-1.00662100521731E-06,-2.05464566533919E-05,0.87890625,0,0
1.72752754679095E-06,-2.18489640246844E-05,0.87890625,0,0
3.81714562536217E-06,-2.21499813051196E-05,0.87890625,0,0
4.76908553537214E-06,-2.24959094339283E-05,0.87890625,0,0
5.93546883465024E-06,-2.17973865801468E-05,0.87890625,0,0
7.5315906542528E-06,-1.94099211512366E-05,0.87890625,0,0
8.00058933236869E-06,-1.7037409634213E-05,0.87890625,0,0
6.19475122221047E-06,-1.71376668731682E-05,0.87890625,0,0
3.38220206685946E-06,-1.82477797352476E-05,0.87890625,0,0
2.28511407840415E-06,-1.89152833627304E-05,0.87890625,0,0
3.13046916744497E-06,-1.55016186909052E-05,0.87890625,0,0
5.23977723787539E-06,-2.23434362851549E-05,0.87890625,0,0
4.79151185572846E-06,-1.5910287402221E-05,0.87890625,0,0
5.98276074015303E-06,-1.972591780941E-05,0.87890625,0,0
5.73167517359252E-06,-1.84643176908139E-05,0.87890625,0,0
6.08120899414644E-06,-2.08831297641154E-05,0.87890625,0,0
5.68304494663607E-06,-1.79636990651488E-05,0.87890625,0,0
5.7153747548E-06,-1.80203987838468E-05,0.87890625,0,0
5.93630056755501E-06,-1.72445761563722E-05,0.87890625,0,0
5.98977158006164E-06,-1.6755879187258E-05,0.87890625,0,0
6.29259784545866E-06,-1.74935848917812E-05,0.87890625,0,0
5.64541505809757E-06,-1.82019375642994E-05,0.87890625,0,0
4.50602237833664E-06,-1.87616406037705E-05,0.87890625,0,0
3.32321792484436E-06,-1.70713283296209E-05,0.87890625,0,0
3.44452223544067E-06,-1.78735845111078E-05,0.87890625,0,0
3.0826095098746E-06,-1.79897251655348E-05,0.87890625,0,0
1.51286099026038E-06,-1.86927045433549E-05,0.87890625,0,0
-1.93452521557447E-07,-1.70027014974039E-05,0.87890625,0,0
-7.37268592843066E-08,-1.69247286976315E-05,0.87890625,0,0
2.43041171188452E-07,-1.58702168846503E-05,0.87890625,0,0
-8.71169504534919E-07,-1.54131903400412E-05,0.87890625,0,0
-1.61575633228495E-06,-1.39610847327276E-05,0.87890625,0,0
-2.73271268724784E-07,-1.37593451654539E-05,0.87890625,0,0
9.19822070954979E-07,-1.31056867758161E-05,0.87890625,0,0
5.36825950803177E-07,-1.30073558466393E-05,0.87890625,0,0
-1.53757389398379E-06,-1.25159558592713E-05,0.87890625,0,0
-4.032539891341E-06,-1.17198960651876E-05,0.87890625,0,0
-3.38576637659571E-06,-1.02406020232593E-05,0.87890625,0,0
-3.27709267367027E-06,-1.55347024701769E-05,0.87890625,0,0
6.44196290977561E-07,-1.28731880977284E-05,0.87890625,0,0
1.06116772258247E-06,-1.54347635543672E-05,0.87890625,0,0
1.90617026873952E-06,-1.27495895867469E-05,0.87890625,0,0
6.90016804583138E-07,-1.31508504637168E-05,0.87890625,0,0
6.70466249630408E-07,-1.22081537483609E-05,0.87890625,0,0
8.45975705487945E-07,-1.2438760677469E-05,0.87890625,0,0
2.00066256184073E-06,-1.38704881464946E-05,0.87890625,0,0
2.84862335320213E-06,-1.62681080837501E-05,0.87890625,0,0
2.35862194131187E-06,-1.74870729097165E-05,0.87890625,0,0
2.05904643735266E-06,-1.81170780706452E-05,0.87890625,0,0
2.57023907579423E-06,-1.88027588592377E-05,0.87890625,0,0
3.55516795025324E-06,-1.67565776791889E-05,0.87890625,0,0
4.48573473477154E-06,-1.55232100951253E-05,0.87890625,0,0
6.55140138405841E-06,-1.47390337588149E-05,0.87890625,0,0
8.47167575557251E-06,-1.46242782648187E-05,0.87890625,0,0
1.06480656540953E-05,-1.27078064906527E-05,0.87890625,0,0
1.23240188258933E-05,-1.35410127768409E-05,0.87890625,0,0
1.41859782161191E-05,-1.56712685566163E-05,0.87890625,0,0
1.4918113265594E-05,-1.70727089425782E-05,0.87890625,0,0
1.48124927363824E-05,-1.5089730368345E-05,0.87890625,0,0
1.48284198075999E-05,-1.26217819342855E-05,0.87890625,0,0
1.43279430631083E-05,-1.19235719466815E-05,0.87890625,0,0
1.2995508768654E-05,-1.44763489515753E-05,0.87890625,0,0
1.35178834170802E-05,-1.76561097759986E-05,0.87890625,0,0
1.4264785022533E-05,-1.98178640857805E-05,0.87890625,0,0
9.48269826039905E-06,-1.75538152689114E-05,0.87890625,0,0
9.6487792689004E-06,-2.62871890299721E-05,0.87890625,0,0
2.90625393972732E-06,-2.02939354494447E-05,0.87890625,0,0
5.94934272157843E-06,-2.27869713853579E-05,0.87890625,0,0
2.53558050644642E-06,-1.98819579964038E-05,0.87890625,0,0
3.03960769088008E-06,-2.4047845727182E-05,0.87890625,0,0
3.39264005333462E-07,-2.220886926807E-05,0.87890625,0,0
-3.82918273089672E-07,-2.13846378755989E-05,0.87890625,0,0
-3.26756094182201E-07,-1.91220151464222E-05,0.87890625,0,0
8.18014996184502E-07,-1.93303167179693E-05,0.87890625,0,0
9.50680487221689E-07,-1.98301095224451E-05,0.87890625,0,0
-3.60684623501584E-07,-1.8842561985366E-05,0.87890625,0,0
-5.87520617045811E-07,-1.86318338819547E-05,0.87890625,0,0
-9.87007751973579E-07,-1.84187283593928E-05,0.87890625,0,0
-2.63964665236927E-07,-2.19928806473035E-05,0.87890625,0,0
-5.52989035895735E-07,-2.30389578064205E-05,0.87890625,0,0
1.3173353181628E-06,-2.32133315876126E-05,0.87890625,0,0
2.3564725779579E-06,-2.00398899323773E-05,0.87890625,0,0
4.28426892540301E-06,-1.98776870092843E-05,0.87890625,0,0
4.49907156507834E-06,-1.9577340935939E-05,0.87890625,0,0
4.77676621812861E-06,-2.00975391635438E-05,0.87890625,0,0
3.62009859600221E-06,-1.84893488039961E-05,0.87890625,0,0
4.18978697780403E-06,-1.74803171830717E-05,0.87890625,0,0
4.42255486632348E-06,-1.64156845130492E-05,0.87890625,0,0
3.44424825016176E-06,-1.71946358022979E-05,0.87890625,0,0
1.56685450747318E-06,-1.67868329299381E-05,0.87890625,0,0
8.47537592107983E-07,-1.65935562108643E-05,0.87890625,0,0
4.24567360823858E-07,-1.41707405418856E-05,0.87890625,0,0
-2.24171728291367E-07,-1.95874981727684E-05,0.87890625,0,0
-4.34629896517436E-07,-1.47143355206936E-05,0.87890625,0,0
-1.06584245429531E-07,-1.98843572434271E-05,0.87890625,0,0
-2.35372976931103E-06,-1.8004326193477E-05,0.87890625,0,0
-4.4000439629599E-06,-2.10207399504725E-05,0.87890625,0,0
-4.57786336482968E-06,-1.95905176951783E-05,0.87890625,0,0
-4.00905173592037E-06,-1.81439081643475E-05,0.87890625,0,0
-2.7059315925726E-06,-1.70119765243726E-05,0.87890625,0,0
-1.1686724832316E-07,-1.84608088602545E-05,0.87890625,0,0
1.83071665560419E-06,-2.01228467631154E-05,0.87890625,0,0
2.4091161776596E-06,-1.95465308934217E-05,0.87890625,0,0
3.00142687592597E-06,-1.95473512576427E-05,0.87890625,0,0
3.63657841262466E-06,-1.89900165423751E-05,0.87890625,0,0
3.4933341339638E-06,-1.98084017029032E-05,0.87890625,0,0
1.99982991944125E-06,-1.89619677257724E-05,0.87890625,0,0
-1.82151666194841E-07,-2.01857965294039E-05,0.87890625,0,0
-2.01310785996611E-06,-2.01734910660889E-05,0.87890625,0,0
-2.09348786484043E-06,-2.0697823856608E-05,0.87890625,0,0
-6.0620448039117E-07,-1.84800464921864E-05,0.87890625,0,0
1.05292167518201E-06,-1.78628270077752E-05,0.87890625,0,0
1.00365741673158E-06,-1.89558104466414E-05,0.87890625,0,0
6.91054708568117E-07,-2.05243268283084E-05,0.87890625,0,0
1.83349175131298E-06,-1.82322419277625E-05,0.87890625,0,0
2.8791064323741E-06,-1.46215470522293E-05,0.87890625,0,0
1.97111262423277E-06,-1.29513746287557E-05,0.87890625,0,0
5.52881544990669E-07,-1.34699912450742E-05,0.87890625,0,0
-1.09362645162037E-06,-1.26769600683474E-05,0.87890625,0,0
-3.25231098941003E-06,-2.00850590772461E-05,0.87890625,0,0
-3.28753458234132E-06,-1.7419191863155E-05,2.63671875,0,0
-1.5078252317835E-06,-1.90610608115094E-05,2.63671875,0,0
1.45267347306799E-06,-1.46320335261407E-05,2.63671875,0,0
3.72024283024075E-06,-1.60443323693471E-05,2.63671875,0,0
2.46072045229084E-06,-1.59122337208828E-05,2.63671875,0,0
2.08991468753084E-06,-1.70539824466687E-05,2.63671875,0,0
3.68659175364883E-06,-1.68981023307424E-05,2.63671875,0,0
5.47666149941506E-06,-1.73417010955745E-05,2.63671875,0,0
5.90938452660339E-06,-1.81545110535808E-05,2.63671875,0,0
4.34924822911853E-06,-1.63471249834402E-05,2.63671875,0,0
3.05592357108253E-06,-1.48787457874278E-05,2.63671875,0,0
3.6834114780504E-06,-1.49084426084301E-05,2.63671875,0,0
4.33668265031883E-06,-1.67195976246148E-05,2.63671875,0,0
1.92109177987732E-06,-1.51407002704218E-05,2.63671875,0,0
-1.2583469697347E-06,-1.31366141431499E-05,2.63671875,0,0
-1.42916110235092E-06,-1.12146126411972E-05,2.63671875,0,0
1.29454770103621E-06,-1.31104761749157E-05,2.63671875,0,0
3.70992506759649E-06,-1.51859467223403E-05,2.63671875,0,0
3.45102671417408E-06,-1.75647182913963E-05,2.63671875,0,0
1.13137855350942E-06,-1.82660332939122E-05,2.63671875,0,0
-3.96681969050405E-07,-1.87805544555886E-05,2.63671875,0,0
5.44582917427761E-07,-1.7601299987291E-05,2.63671875,0,0
2.54823817158467E-06,-1.72544841916533E-05,2.63671875,0,0
2.60648334915459E-06,-1.83835745701799E-05,2.63671875,0,0
1.8463792912371E-06,-1.99957230506698E-05,2.63671875,0,0
1.77022832303919E-06,-1.75441236933693E-05,2.63671875,0,0
3.96278346670442E-06,-2.40603803831618E-05,2.63671875,0,0
5.28105783814681E-06,-1.70415405591484E-05,2.63671875,0,0
5.55803580937209E-06,-2.31621525017545E-05,2.63671875,0,0
3.70109933101048E-06,-2.2198213628144E-05,2.63671875,0,0
3.00625197269255E-06,-2.60790093307151E-05,2.63671875,0,0
2.30140904022846E-06,-2.41424368141452E-05,2.63671875,0,0
1.14816384666483E-06,-2.42294790950837E-05,2.63671875,0,0
8.34094919355266E-07,-2.27450418606168E-05,2.63671875,0,0
1.85734938895621E-06,-2.2338343114825E-05,2.63671875,0,0
2.90437560579448E-06,-2.11409515031846E-05,2.63671875,0,0
2.67806012743677E-06,-1.88682224688819E-05,2.63671875,0,0
1.66611857821408E-06,-1.92866555153159E-05,2.63671875,0,0
5.61013564492896E-07,-1.8377340893494E-05,2.63671875,0,0
3.64223808446695E-07,-1.81117011379683E-05,2.63671875,0,0
1.33039111460675E-06,-1.48003273352515E-05,2.63671875,0,0
2.84564862340631E-06,-1.35822092488525E-05,2.63671875,0,0
3.78664572053822E-06,-1.18609932542313E-05,2.63671875,0,0
3.46846150023339E-06,-1.28110104924417E-05,2.63671875,0,0
2.29389684136549E-06,-1.17138224595692E-05,2.63671875,0,0
2.45517412622576E-06,-1.13312589746783E-05,2.63671875,0,0
2.95054883281409E-06,-1.07516216303338E-05,2.63671875,0,0
2.11686278817069E-06,-1.21186712931376E-05,2.63671875,0,0
1.49496236190316E-06,-1.21123612188967E-05,2.63671875,0,0
9.57089241637732E-07,-1.21693256005528E-05,2.63671875,0,0
2.0873413575373E-07,-1.06400511867832E-05,2.63671875,0,0
1.32051741275063E-06,-1.00300967460498E-05,2.63671875,0,0
3.13611667479563E-06,-8.60270029079402E-06,2.63671875,0,0
6.15488852417911E-06,-1.36144926727866E-05,2.63671875,0,0
6.25919756203075E-06,-1.22984656627523E-05,2.63671875,0,0
6.0005995692336E-06,-1.5000981875346E-05,2.63671875,0,0
3.8961320569797E-06,-1.38894465635531E-05,2.63671875,0,0
1.83387953711645E-06,-1.39500625664368E-05,2.63671875,0,0
9.28216991269437E-07,-1.15230695882929E-05,2.63671875,0,0
2.7314006274537E-06,-1.20857084766612E-05,2.63671875,0,0
3.67867323802784E-06,-1.24429043353302E-05,2.63671875,0,0
2.81490065390244E-06,-1.23492227430688E-05,2.63671875,0,0
1.93264531844761E-06,-1.25313490570989E-05,2.63671875,0,0
1.39664803100459E-06,-1.25242358990363E-05,2.63671875,0,0
7.6157994044479E-07,-1.35458722070325E-05,2.63671875,0,0
-2.38483437442483E-08,-1.53852452058345E-05,2.63671875,0,0
-4.50228867521218E-08,-1.8582946722745E-05,2.63671875,0,0
2.42569996089514E-07,-1.99610822164686E-05,2.63671875,0,0
1.70157557022321E-06,-2.13617549889022E-05,2.63671875,0,0
3.35585377797543E-06,-2.01459679374238E-05,2.63671875,0,0
3.5947768992628E-06,-1.73107109731063E-05,2.63671875,0,0
2.53509529102303E-06,-1.43658789966139E-05,2.63671875,0,0
2.36199480241339E-06,-1.52086040543509E-05,2.63671875,0,0
1.89451338883373E-06,-1.68775204656413E-05,2.63671875,0,0
1.9616097688413E-06,-1.76280555024277E-05,2.63671875,0,0
3.72940735360316E-06,-1.70266539498698E-05,2.63671875,0,0
4.63424703411874E-06,-1.63319073180901E-05,2.63671875,0,0
3.37160849994689E-06,-1.58506063598907E-05,2.63671875,0,0
3.18565980705898E-06,-1.65959954756545E-05,2.63671875,0,0
4.21958975493908E-06,-1.48287490446819E-05,2.63671875,0,0
6.52466587780509E-06,-2.18929035327164E-05,2.63671875,0,0
4.07159586757189E-06,-1.8983209884027E-05,2.63671875,0,0
3.43015153703163E-06,-2.41662291955436E-05,2.63671875,0,0
1.8608095615491E-06,-2.15036816371139E-05,2.63671875,0,0
1.95588995666185E-06,-2.2659787646262E-05,2.63671875,0,0
2.21123286792135E-06,-1.75927270902321E-05,2.63671875,0,0
3.5999860301672E-06,-1.68665683304425E-05,2.63671875,0,0
5.23528296980658E-06,-1.70694056578213E-05,2.63671875,0,0
5.68777841181145E-06,-1.75740169652272E-05,2.63671875,0,0
4.86873477711924E-06,-1.72090767591726E-05,2.63671875,0,0
4.12277404393535E-06,-1.48357048601611E-05,2.63671875,0,0
4.95996710014879E-06,-1.38830664582201E-05,2.63671875,0,0
5.90689614909934E-06,-1.30776998048532E-05,2.63671875,0,0
6.25771644990891E-06,-1.43731676871539E-05,2.63671875,0,0
5.81117365072714E-06,-1.43241368277813E-05,2.63671875,0,0
6.0480515458039E-06,-1.65322198881768E-05,2.63671875,0,0
5.78125172978616E-06,-1.70599232660607E-05,2.63671875,0,0
4.58249905932462E-06,-1.82151579792844E-05,2.63671875,0,0
2.89922377305629E-06,-1.74250726558967E-05,2.63671875,0,0
2.88746514343075E-06,-1.82759522431297E-05,2.63671875,0,0
3.1860022318142E-06,-1.76955854840344E-05,2.63671875,0,0
3.21598940900003E-06,-1.53174478327855E-05,2.63671875,0,0
3.43814849657065E-06,-1.13320656964788E-05,2.63671875,0,0
4.17112551076571E-06,-1.11309282146976E-05,2.63671875,0,0
5.0866287892859E-06,-1.4066501535126E-05,2.63671875,0,0
6.33198669675039E-06,-1.73751395777799E-05,2.63671875,0,0
5.70579004488536E-06,-1.64883767865831E-05,2.63671875,0,0
7.219132839964E-06,-2.57671472354559E-05,2.63671875,0,0
4.59399143437622E-06,-2.14238207263406E-05,2.63671875,0,0
6.78103378959349E-06,-2.27753225772176E-05,2.63671875,0,0
5.02043667438556E-06,-1.9013081328012E-05,2.63671875,0,0
4.55845247415709E-06,-2.37834519793978E-05,2.63671875,0,0
2.53588586929254E-06,-2.29527322517242E-05,2.63671875,0,0
2.00767817659653E-06,-2.27478521992452E-05,2.63671875,0,0
2.24282780436624E-06,-2.1490412109415E-05,2.63671875,0,0
2.66967708739685E-06,-2.08583514904603E-05,2.63671875,0,0
2.51259552896954E-06,-2.01522379938979E-05,2.63671875,0,0
1.79207802375458E-06,-1.76805515366141E-05,2.63671875,0,0
2.45588580582989E-06,-1.62094111146871E-05,2.63671875,0,0
1.84144573722733E-06,-1.46138163472642E-05,2.63671875,0,0
-2.4679751575718E-08,-1.5452720617759E-05,2.63671875,0,0
-2.32694651458587E-06,-1.52594984683674E-05,2.63671875,0,0
-2.03264175979712E-06,-1.79394191945903E-05,2.63671875,0,0
-3.71286745348698E-07,-1.88154899660731E-05,2.63671875,0,0
1.84640805400704E-06,-1.95700267795473E-05,2.63671875,0,0
2.34559865930351E-06,-1.66570553119527E-05,2.63671875,0,0
2.01326542992319E-06,-1.35012232931331E-05,2.63671875,0,0
1.93975111528744E-07,-1.02774911283632E-05,2.63671875,0,0
-4.29429945825177E-07,-8.17944146547234E-06,2.63671875,0,0
-6.50799620416365E-07,-6.0127567849122E-06,2.63671875,0,0
-1.11699046101421E-06,-5.25262248629588E-06,2.63671875,0,0
-5.6439546369802E-07,-4.03661260861554E-06,2.63671875,0,0
-1.54850567923859E-08,-4.87310444441391E-06,2.63671875,0,0
-1.23712780464302E-07,-6.02407317273901E-06,2.63671875,0,0
1.89111602821868E-07,-8.61179341882234E-06,2.63671875,0,0
1.4486289501292E-06,-6.71467842039419E-06,2.63671875,0,0
2.12884242500877E-06,-9.65186882240232E-06,2.63671875,0,0
7.74070201714494E-07,-1.18819052659092E-05,2.63671875,0,0
-1.13778389732033E-06,-1.73412900039693E-05,2.63671875,0,0
-1.61203388415743E-06,-2.23524239117978E-05,2.63671875,0,0
-1.28750377825781E-06,-2.70558884949423E-05,2.63671875,0,0
2.92886909392109E-07,-2.767415571725E-05,2.63671875,0,0
2.34087724493293E-06,-2.58419167948887E-05,2.63671875,0,0
3.54899043486512E-06,-2.48673786700238E-05,2.63671875,0,0
3.38223480866873E-06,-2.3854450773797E-05,2.63671875,0,0
2.8324377581157E-06,-2.42023943428649E-05,2.63671875,0,0
3.08347421196231E-06,-2.43489866988966E-05,2.63671875,0,0
3.20486174132384E-06,-2.43304948526202E-05,2.63671875,0,0
3.10747941512091E-06,-2.22060261876322E-05,2.63671875,0,0
3.60720946446236E-06,-1.82783041964285E-05,2.63671875,0,0
4.63952937934664E-06,-1.33122457555146E-05,2.63671875,0,0
4.90445199829992E-06,-1.14578260763665E-05,2.63671875,0,0
4.72652163807652E-06,-1.21848133858293E-05,2.63671875,0,0
5.11883808940183E-06,-1.52919292304432E-05,2.63671875,0,0
5.02803777635563E-06,-1.91262479347643E-05,2.63671875,0,0
3.70426914741984E-06,-2.24669620365603E-05,2.63671875,0,0
2.26907059186487E-06,-2.21939590119291E-05,2.63671875,0,0
1.79090579877084E-06,-1.98554807866458E-05,2.63671875,0,0
1.77646074916993E-06,-1.82964286068454E-05,2.63671875,0,0
2.67745349447068E-07,-1.69445011124481E-05,2.63671875,0,0
-6.77968785112171E-07,-1.29049185488839E-05,2.63671875,0,0
-5.76137551888678E-07,-1.76245102920802E-05,2.63671875,0,0
-1.61580786084414E-07,-1.20776448966353E-05,2.63671875,0,0
-2.28830487003506E-07,-1.42234184750123E-05,2.63671875,0,0
-5.58105057280045E-07,-1.03569054772379E-05,2.63671875,0,0
-2.43531212618109E-06,-1.30575472212513E-05,2.63671875,0,0
-3.50151799466403E-06,-1.25433625726146E-05,2.63671875,0,0
-3.30806142301299E-06,-1.41674709084327E-05,5.2734375,0,0
-2.27972054744896E-06,-1.53743440023391E-05,5.2734375,0,0
-1.3933331501903E-06,-1.67456182680326E-05,5.2734375,0,0
2.35389933322949E-07,-1.75305431184825E-05,5.2734375,0,0
1.85572116606636E-06,-1.65043293236522E-05,5.2734375,0,0
2.49482263825485E-06,-1.56705918925582E-05,5.2734375,0,0
1.98321458810824E-06,-1.56085261551198E-05,5.2734375,0,0
1.21878497338912E-06,-1.77398287632968E-05,5.2734375,0,0
1.73009948412073E-06,-1.74060824065236E-05,5.2734375,0,0
2.78721404356475E-06,-1.82267576747108E-05,5.2734375,0,0
4.04704633183428E-06,-1.74413198692491E-05,5.2734375,0,0
4.54418068329687E-06,-1.79582111741183E-05,5.2734375,0,0
4.75893375551095E-06,-1.74815650098026E-05,5.2734375,0,0
4.69337282993365E-06,-1.76934554474428E-05,5.2734375,0,0
4.10867914979463E-06,-1.67561720445519E-05,5.2734375,0,0
2.97130623039266E-06,-1.7299062164966E-05,5.2734375,0,0
1.72956004007574E-06,-1.70424864336383E-05,5.2734375,0,0
1.7952727375814E-06,-1.65683431987418E-05,5.2734375,0,0
3.26861390931299E-06,-1.68685419339454E-05,5.2734375,0,0
3.2861125873751E-06,-1.7443708202336E-05,5.2734375,0,0
3.67017719327123E-06,-1.27943576444522E-05,5.2734375,0,0
7.20219486538554E-06,-1.71429073816398E-05,5.2734375,0,0
5.44946260561119E-06,-1.27114208225976E-05,5.2734375,0,0
3.43151373272121E-06,-1.59008322953014E-05,5.2734375,0,0
2.88883734356205E-06,-1.15045522761648E-05,5.2734375,0,0
4.03623516831431E-06,-1.23716599773616E-05,5.2734375,0,0
4.79376876683091E-06,-1.05213302958873E-05,5.2734375,0,0
5.59824184165336E-06,-1.34721885842737E-05,5.2734375,0,0
5.29840417584637E-06,-1.63910008268431E-05,5.2734375,0,0
4.18356012232834E-06,-1.95461252587847E-05,5.2734375,0,0
2.47787647822406E-06,-2.3008115022094E-05,5.2734375,0,0
1.85977660294157E-06,-2.62501980614616E-05,5.2734375,0,0
2.94963570013351E-06,-2.88521787297213E-05,5.2734375,0,0
2.68039184447844E-06,-2.79031119134743E-05,5.2734375,0,0
1.5004184206191E-06,-2.72454890364315E-05,5.2734375,0,0
1.24847952065466E-06,-2.53434009209741E-05,5.2734375,0,0
1.92837683243852E-06,-2.66775950876763E-05,5.2734375,0,0
1.62557478233794E-06,-2.58522995864041E-05,5.2734375,0,0
5.78867400236049E-07,-2.37388812820427E-05,5.2734375,0,0
-3.28532877347243E-07,-2.0024148398079E-05,5.2734375,0,0
2.7640157895803E-07,-2.00181111722486E-05,5.2734375,0,0
7.3672924827406E-07,-2.02274295588722E-05,5.2734375,0,0
-3.66492258763174E-07,-1.98325851670234E-05,5.2734375,0,0
-1.54794247464451E-06,-1.86857760127168E-05,5.2734375,0,0
-8.89854334218398E-07,-1.77825513674179E-05,5.2734375,0,0
1.55843110860587E-07,-1.51315525727114E-05,5.2734375,0,0
4.73220239882721E-07,-1.38549694383983E-05,5.2734375,0,0
-8.19626563952625E-07,-1.0630320502969E-05,5.2734375,0,0
-2.34692819844895E-07,-1.54797799041262E-05,5.2734375,0,0
1.2019243058603E-06,-1.33492640088662E-05,5.2734375,0,0
1.57534418576688E-06,-1.78644550032914E-05,5.2734375,0,0
2.44411489802587E-06,-1.69224840647075E-05,5.2734375,0,0
3.82872440241044E-06,-1.73894095496507E-05,5.2734375,0,0
4.92509752803016E-06,-1.3160026355763E-05,5.2734375,0,0
3.85572229788522E-06,-1.29604177345755E-05,5.2734375,0,0
2.93948551188805E-06,-1.44566774906707E-05,5.2734375,0,0
2.51404458140314E-06,-1.61887655849569E-05,5.2734375,0,0
2.22522862713959E-06,-1.7079370081774E-05,5.2734375,0,0
2.38665575125196E-06,-1.85687385965139E-05,5.2734375,0,0
2.85278724732052E-06,-2.15690470213303E-05,5.2734375,0,0
3.83119459002046E-06,-2.10606722248485E-05,5.2734375,0,0
4.10451411880786E-06,-1.96892706298968E-05,5.2734375,0,0
3.20386175189924E-06,-1.75913264683913E-05,5.2734375,0,0
2.07772473004297E-06,-1.61021234816872E-05,5.2734375,0,0
3.49380366060359E-06,-1.3720549759455E-05,5.2734375,0,0
6.42217219137819E-06,-1.42655744639342E-05,5.2734375,0,0
8.5514448073809E-06,-1.42604567372473E-05,5.2734375,0,0
8.36408526083687E-06,-1.44886053021764E-05,5.2734375,0,0
6.73990462018992E-06,-1.29508480313234E-05,5.2734375,0,0
5.26095436725882E-06,-1.16167084343033E-05,5.2734375,0,0
5.11287498738966E-06,-1.05170911410823E-05,5.2734375,0,0
4.89609647047473E-06,-1.02834392237128E-05,5.2734375,0,0
4.22138145950157E-06,-1.03018837762647E-05,5.2734375,0,0
4.17831597587792E-06,-1.13587830128381E-05,5.2734375,0,0
3.66394965567451E-06,-1.14447102532722E-05,5.2734375,0,0
6.28939460511901E-06,-1.69022659974871E-05,5.2734375,0,0
6.12931307841791E-06,-1.44945706779254E-05,5.2734375,0,0
7.35361709303106E-06,-1.88258309208322E-05,5.2734375,0,0
5.97219968767604E-06,-1.67767320817802E-05,5.2734375,0,0
4.60997307527578E-06,-1.87919868039899E-05,5.2734375,0,0
3.43921351486642E-06,-1.87872356036678E-05,5.2734375,0,0
4.9548707465874E-06,-1.95887660083827E-05,5.2734375,0,0
6.45333193460829E-06,-1.92263487406308E-05,5.2734375,0,0
6.67343783788965E-06,-2.01659659069264E-05,5.2734375,0,0
5.89199407841079E-06,-2.17888518818654E-05,5.2734375,0,0
4.95609401696129E-06,-2.06294771487592E-05,5.2734375,0,0
5.7873476180248E-06,-1.79645303433063E-05,5.2734375,0,0
7.12386827217415E-06,-1.43425759233651E-05,5.2734375,0,0
7.04038802723517E-06,-1.27873445308069E-05,5.2734375,0,0
5.22166101291077E-06,-1.04356686279061E-05,5.2734375,0,0
5.25129735251539E-06,-1.06610859802458E-05,5.2734375,0,0
6.18871581536951E-06,-1.20619488370721E-05,5.2734375,0,0
6.35751530353446E-06,-1.51835638462217E-05,5.2734375,0,0
5.13750319441897E-06,-1.70438506756909E-05,5.2734375,0,0
3.57856310984062E-06,-1.95915181393502E-05,5.2734375,0,0
1.80939218807907E-06,-1.92559673450887E-05,5.2734375,0,0
1.27958617213153E-06,-1.8374379578745E-05,5.2734375,0,0
1.84446992079756E-06,-1.8857499526348E-05,5.2734375,0,0
2.48897981691698E-06,-1.96543951460626E-05,5.2734375,0,0
2.54634119301045E-06,-1.93357973330421E-05,5.2734375,0,0
2.4892324290704E-06,-1.92527695617173E-05,5.2734375,0,0
2.59020839621371E-06,-1.63327367772581E-05,5.2734375,0,0
2.88292653749522E-06,-2.55945524259005E-05,5.2734375,0,0
3.97610875779719E-07,-2.20139263547026E-05,5.2734375,0,0
-3.25650582055914E-08,-2.53244706982514E-05,5.2734375,0,0
-4.0280670532411E-07,-2.03077906917315E-05,5.2734375,0,0
1.45063665968337E-06,-2.08551300602267E-05,5.2734375,0,0
2.91585934064642E-06,-1.89335914910771E-05,5.2734375,0,0
4.32723118137801E-06,-1.96950313693378E-05,5.2734375,0,0
3.86001511287759E-06,-1.90800019481685E-05,5.2734375,0,0
2.15685963667056E-06,-1.88102094398346E-05,5.2734375,0,0
1.73867726971366E-06,-1.776034332579E-05,5.2734375,0,0
2.59853572970314E-06,-1.6872660125955E-05,5.2734375,0,0
3.91480625694385E-06,-1.87814748642268E-05,5.2734375,0,0
3.68761561730935E-06,-1.84417131094961E-05,5.2734375,0,0
2.49144204644836E-06,-1.82334351848112E-05,5.2734375,0,0
5.93438926443923E-07,-1.53124856296927E-05,5.2734375,0,0
-4.68435189304728E-07,-1.39624262374127E-05,5.2734375,0,0
-5.96020015564136E-07,-1.35960608531605E-05,5.2734375,0,0
1.40460724651348E-06,-1.7717855371302E-05,5.2734375,0,0
3.89254910260206E-06,-2.02110913960496E-05,5.2734375,0,0
3.9080105125322E-06,-2.06519034691155E-05,5.2734375,0,0
1.43609690894664E-06,-1.82976982614491E-05,5.2734375,0,0
3.52627608890543E-07,-1.57107770064613E-05,5.2734375,0,0
1.39842632052023E-06,-1.13351761683589E-05,5.2734375,0,0
3.05685944113065E-06,-8.02704562374856E-06,5.2734375,0,0
4.571714271151E-06,-7.55234350435785E-06,5.2734375,0,0
5.09361279910081E-06,-1.049600996339E-05,5.2734375,0,0
3.81316840503132E-06,-9.68367203313392E-06,5.2734375,0,0
4.62812022306025E-06,-1.41186674227356E-05,5.2734375,0,0
2.10012444767926E-06,-1.24498465083889E-05,5.2734375,0,0
3.89155002267216E-06,-1.7247653886443E-05,5.2734375,0,0
3.9463552639063E-06,-1.52198954310734E-05,5.2734375,0,0
2.87235548057652E-06,-1.5994235582184E-05,5.2734375,0,0
3.73818295429373E-07,-1.62338619702496E-05,5.2734375,0,0
-5.70613778450024E-08,-1.70482271641959E-05,5.2734375,0,0
1.28611986838223E-06,-1.65122783073457E-05,5.2734375,0,0
3.41405711878906E-06,-1.61364605446579E-05,5.2734375,0,0
4.61280842500855E-06,-1.56118057930144E-05,5.2734375,0,0
3.88918078897404E-06,-1.42004028020892E-05,5.2734375,0,0
2.5030192318809E-06,-1.37146034830948E-05,5.2734375,0,0
1.00138254310878E-06,-1.27096764117596E-05,5.2734375,0,0
6.03407841026637E-07,-1.2371869161143E-05,5.2734375,0,0
5.87619865655142E-07,-1.25245287563303E-05,5.2734375,0,0
1.69414681749913E-06,-1.42487278935732E-05,5.2734375,0,0
2.4888629468478E-06,-1.30830430862261E-05,5.2734375,0,0
1.67988503108063E-06,-1.18796970127732E-05,5.2734375,0,0
-2.59188567497404E-07,-1.1021980753867E-05,5.2734375,0,0
1.13545306490437E-09,-1.21561561172712E-05,5.2734375,0,0
7.14797863565764E-07,-1.31964206957491E-05,5.2734375,0,0
4.64147433376638E-07,-1.54407971422188E-05,5.2734375,0,0
-3.99464624933898E-07,-1.82277708518086E-05,5.2734375,0,0
-1.17235208563216E-06,-1.99545593204675E-05,5.2734375,0,0
-1.9868602976203E-06,-1.99631558643887E-05,5.2734375,0,0
-2.63962328972411E-06,-1.93713894987013E-05,5.2734375,0,0
-2.2986578187556E-06,-1.59181508934125E-05,5.2734375,0,0
-2.91070750790823E-06,-2.18612331082113E-05,5.2734375,0,0
-1.28721092096384E-06,-1.58510283654323E-05,5.2734375,0,0
-2.9571579034382E-06,-2.08153960556956E-05,5.2734375,0,0
-4.48375840278459E-06,-1.90827158803586E-05,5.2734375,0,0
-5.08407310917391E-06,-2.25470175791997E-05,5.2734375,0,0
-3.57155659003183E-06,-2.07517423405079E-05,5.2734375,0,0
-2.25904727813031E-06,-2.1883935914957E-05,5.2734375,0,0
-2.40902318182634E-06,-2.16431144508533E-05,5.2734375,0,0
-3.08032304019434E-06,-2.16583066503517E-05,7.734375,0,0
-2.23747201744118E-06,-2.23778715735534E-05,7.734375,0,0
4.16834012639811E-07,-2.26915526582161E-05,7.734375,0,0
3.22777532346663E-06,-2.34847375395475E-05,7.734375,0,0
3.78348909180204E-06,-2.24684245040407E-05,7.734375,0,0
1.74996478108369E-06,-2.3643327949685E-05,7.734375,0,0
4.14102572676711E-07,-2.33373139053583E-05,7.734375,0,0
1.37615597850527E-06,-2.44772199948784E-05,7.734375,0,0
4.45333807874704E-06,-2.28438693739008E-05,7.734375,0,0
6.90217393639614E-06,-2.25134572247043E-05,7.734375,0,0
8.10429719422245E-06,-2.04649149964098E-05,7.734375,0,0
7.52221376387752E-06,-1.89596230484312E-05,7.734375,0,0
5.57368639420019E-06,-1.56774331117049E-05,7.734375,0,0
3.33390221385343E-06,-1.44164569064742E-05,7.734375,0,0
2.08159963221988E-06,-1.44655550684547E-05,7.734375,0,0
1.26401482702931E-06,-1.66412810358452E-05,7.734375,0,0
8.54163261010399E-07,-1.83841548277996E-05,7.734375,0,0
1.71964995843155E-06,-1.90909704542719E-05,7.734375,0,0
1.89933064120851E-06,-1.592703301867E-05,7.734375,0,0
2.18985019273532E-06,-2.31699814321473E-05,7.734375,0,0
9.15304212867341E-07,-1.83963038580259E-05,7.734375,0,0
1.53268081248825E-06,-2.10681428143289E-05,7.734375,0,0
2.00001773009717E-06,-1.58544007717865E-05,7.734375,0,0
3.52413326254464E-06,-1.81707819137955E-05,7.734375,0,0
4.27113354817266E-06,-1.60292456712341E-05,7.734375,0,0
4.49760727860848E-06,-1.61431744345464E-05,7.734375,0,0
4.68415191789973E-06,-1.51279864439857E-05,7.734375,0,0
6.39266545476858E-06,-1.38241302920505E-05,7.734375,0,0
7.93117033026647E-06,-1.31775996123906E-05,7.734375,0,0
7.90136346040526E-06,-1.39348640004755E-05,7.734375,0,0
6.39944164504413E-06,-1.68391470651841E-05,7.734375,0,0
5.40309065399924E-06,-1.65298042702489E-05,7.734375,0,0
6.37852963336627E-06,-1.63485692610266E-05,7.734375,0,0
8.23443679109914E-06,-1.5326726497733E-05,7.734375,0,0
1.01492669273284E-05,-1.73192929651123E-05,7.734375,0,0
1.05159097074647E-05,-1.62637425091816E-05,7.734375,0,0
9.32132843445288E-06,-1.47650243889075E-05,7.734375,0,0
7.00584678270388E-06,-1.36680209834594E-05,7.734375,0,0
5.91412572248373E-06,-1.61689313245006E-05,7.734375,0,0
5.090888862469E-06,-1.72916443261784E-05,7.734375,0,0
4.14996520703426E-06,-1.82178191607818E-05,7.734375,0,0
2.53099960900727E-06,-1.68522037711227E-05,7.734375,0,0
1.14109798232676E-06,-1.65571018442279E-05,7.734375,0,0
3.95062585312189E-07,-1.68000642588595E-05,7.734375,0,0
-1.58865177013467E-07,-1.59955598064698E-05,7.734375,0,0
-4.06398697805344E-07,-1.1309201909171E-05,7.734375,0,0
-3.19497388545642E-07,-1.63184922712389E-05,7.734375,0,0
1.94217932403262E-07,-1.43987717819982E-05,7.734375,0,0
-1.09052427887946E-06,-1.85402332135709E-05,7.734375,0,0
-1.19960475331027E-06,-1.60038562171394E-05,7.734375,0,0
7.97329335000541E-07,-1.8253438611282E-05,7.734375,0,0
2.34243611885177E-06,-1.76693356479518E-05,7.734375,0,0
2.21953496293281E-06,-1.93041523743887E-05,7.734375,0,0
1.0919567472456E-07,-2.09400295716478E-05,7.734375,0,0
-7.80366178787517E-07,-2.20631281990791E-05,7.734375,0,0
-3.13026440323938E-08,-1.90861192095326E-05,7.734375,0,0
1.46946854329144E-06,-1.42556382343173E-05,7.734375,0,0
3.76803177459806E-06,-1.23558575069183E-05,7.734375,0,0
4.95980521009187E-06,-1.24636871987605E-05,7.734375,0,0
4.53909024145105E-06,-1.42380840770784E-05,7.734375,0,0
4.17376077166409E-06,-1.38555815283326E-05,7.734375,0,0
4.27391114499187E-06,-1.57854192366358E-05,7.734375,0,0
4.58792101198924E-06,-1.73287971847458E-05,7.734375,0,0
5.35972731086076E-06,-1.89410638995469E-05,7.734375,0,0
6.00623070567963E-06,-1.79631297214655E-05,7.734375,0,0
6.30148315394763E-06,-1.78418013092596E-05,7.734375,0,0
5.17799344379455E-06,-1.64537796081277E-05,7.734375,0,0
2.92657568934374E-06,-1.48660983541049E-05,7.734375,0,0
1.89458364729944E-06,-1.33189787447918E-05,7.734375,0,0
1.47391506288841E-06,-1.44197583722416E-05,7.734375,0,0
1.1365349550374E-08,-1.69458635355113E-05,7.734375,0,0
-1.71009748584083E-08,-1.9321241779835E-05,7.734375,0,0
2.68053355512166E-07,-1.61992502398789E-05,7.734375,0,0
-3.97561564113857E-07,-2.25038384087384E-05,7.734375,0,0
