biceps_emg, triceps_emg, subject_position, position_estimate, brace_position
-1.36882317747222E-05,7.09201503923396E-06,2.28515625,0,0
-1.33998146338854E-05,8.35841728985542E-06,2.28515625,0,0
-1.3931742614659E-05,1.06520010376698E-05,2.28515625,0,0
-1.46551074067247E-05,1.33499515868607E-05,2.28515625,0,0
-1.44254008773714E-05,1.47138835018268E-05,2.28515625,0,0
-1.48513263411587E-05,1.40674610520364E-05,2.28515625,0,0
-1.84431082743686E-05,1.32896766444901E-05,2.28515625,0,0
-2.00355025299359E-05,1.28434039652348E-05,2.28515625,0,0
-2.13894145417726E-05,1.37629513119464E-05,2.28515625,0,0
-2.0342235075077E-05,1.26976774481591E-05,2.28515625,0,0
-2.21024947677506E-05,1.120865726989E-05,2.28515625,0,0
-2.32395123020979E-05,9.86305985861691E-06,2.28515625,0,0
-2.55489412666066E-05,1.0957568520098E-05,2.28515625,0,0
-2.56343373621348E-05,1.11959152491181E-05,2.28515625,0,0
-2.66252263827482E-05,1.0023252798419E-05,2.28515625,0,0
-2.60100678133313E-05,8.49039406602969E-06,2.28515625,0,0
-2.50066786975367E-05,8.88962495082524E-06,2.28515625,0,0
-2.34959406952839E-05,1.03075990409707E-05,2.28515625,0,0
-2.33367845794419E-05,1.17799427243881E-05,2.28515625,0,0
-2.35439401876647E-05,1.19371497930842E-05,2.28515625,0,0
-2.40234858210897E-05,1.24790267364006E-05,2.28515625,0,0
-1.89297097676899E-05,1.04791379271774E-05,2.28515625,0,0
-2.715757182159E-05,1.43786492117215E-05,2.28515625,0,0
-2.01263283088338E-05,1.0083288543683E-05,2.28515625,0,0
-2.3226441044244E-05,1.20566774057806E-05,2.28515625,0,0
-1.87986079254188E-05,8.40125721879303E-06,2.28515625,0,0
-2.30349960474996E-05,8.56074893818004E-06,2.28515625,0,0
-2.21766476897756E-05,5.38622043677606E-06,2.28515625,0,0
-2.24516625166871E-05,2.71102999249706E-06,2.28515625,0,0
-2.10868693102384E-05,1.08728795567004E-06,2.28515625,0,0
-2.18423174374038E-05,2.57679812420974E-06,2.28515625,0,0
-2.36940904869698E-05,3.67019106306543E-06,2.28515625,0,0
-2.4418643079116E-05,3.31302771883202E-06,2.28515625,0,0
-2.53744910878595E-05,3.7820070701855E-06,2.28515625,0,0
-2.34869476116728E-05,3.94913240597816E-06,2.28515625,0,0
-2.27297823585104E-05,6.59714214634732E-06,2.28515625,0,0
-2.02640912903007E-05,8.01361875346629E-06,2.28515625,0,0
-2.13543698919239E-05,9.30291480472079E-06,2.28515625,0,0
-2.2055482986616E-05,9.29592351894826E-06,2.28515625,0,0
-2.45428309426643E-05,1.07296800706536E-05,2.28515625,0,0
-2.43063223024365E-05,1.0505094905966E-05,2.28515625,0,0
-2.49141576205147E-05,1.03853453765623E-05,2.28515625,0,0
-2.4028062398429E-05,1.03289494290948E-05,2.28515625,0,0
-2.38543070736341E-05,1.140562017099E-05,2.28515625,0,0
-2.27219534281176E-05,1.15326920422376E-05,2.28515625,0,0
-2.42344212892931E-05,1.09317516034935E-05,2.28515625,0,0
-2.62342600763077E-05,9.06806690181838E-06,2.28515625,0,0
-2.52225272561191E-05,6.94795153322048E-06,2.28515625,0,0
-1.87904061021982E-05,6.29418082098709E-06,2.28515625,0,0
-2.67037976300344E-05,1.1894586350536E-05,2.28515625,0,0
-2.08602868951857E-05,1.34834708660492E-05,2.28515625,0,0
-2.64532391156536E-05,1.61057814693777E-05,2.28515625,0,0
-2.38738339248812E-05,1.54217323142802E-05,2.28515625,0,0
-2.77819563052617E-05,1.73581702256342E-05,2.28515625,0,0
-2.50138182309456E-05,1.89852016774239E-05,2.28515625,0,0
-2.55150516750291E-05,1.96128257812234E-05,2.28515625,0,0
-2.48812248173635E-05,1.88666472240584E-05,2.28515625,0,0
-2.50141438300489E-05,1.68426813615952E-05,2.28515625,0,0
-2.63819711108226E-05,1.30198723127251E-05,2.28515625,0,0
-2.75010661425767E-05,8.55305370350834E-06,2.28515625,0,0
-2.86942104139598E-05,7.50685330785927E-06,2.28515625,0,0
-2.71948592853732E-05,9.80611912382301E-06,2.28515625,0,0
-2.90737661998719E-05,1.33803587232251E-05,2.28515625,0,0
-2.96037360385526E-05,1.49753914229223E-05,2.28515625,0,0
-3.09009956254158E-05,1.52244811033597E-05,2.28515625,0,0
-2.88718565570889E-05,1.39228577609174E-05,2.28515625,0,0
-2.87527873297222E-05,1.20236554721487E-05,2.28515625,0,0
-2.764094460872E-05,7.68810059526004E-06,2.28515625,0,0
-2.8323409424047E-05,2.00887939172389E-06,2.28515625,0,0
-2.76155187748373E-05,-2.46483887167415E-06,2.28515625,0,0
-2.83029639831511E-05,-2.95737800115603E-06,2.28515625,0,0
-2.93878420052351E-05,-1.32064053559589E-06,2.28515625,0,0
-3.11156509269495E-05,-7.10875895038043E-07,2.28515625,0,0
-3.13109449052718E-05,-3.69515362308448E-07,2.28515625,0,0
-3.08091475744732E-05,3.1007944016892E-06,2.28515625,0,0
-2.40978915826418E-05,5.30768102180446E-06,2.28515625,0,0
-3.34634351020213E-05,9.12810628506122E-06,2.28515625,0,0
-2.43273007072276E-05,9.051148481376E-06,2.28515625,0,0
-3.15030229103286E-05,1.14424792627688E-05,2.28515625,0,0
-2.77878280030563E-05,1.15503853521659E-05,2.28515625,0,0
-3.08473536279053E-05,1.43633815241628E-05,2.28515625,0,0
-2.59698517766083E-05,1.69926588569069E-05,2.28515625,0,0
-2.42942187469453E-05,1.86829802260036E-05,2.28515625,0,0
-2.15359141293447E-05,1.8684735550778E-05,2.28515625,0,0
-2.05881951842457E-05,1.73965381691232E-05,2.28515625,0,0
-1.99018031707965E-05,1.66324607562274E-05,2.28515625,0,0
-1.75220375240315E-05,1.73817952600075E-05,2.28515625,0,0
-1.67435591720277E-05,1.88385420187842E-05,2.28515625,0,0
-1.47260361700319E-05,1.8923985408037E-05,2.28515625,0,0
-1.62872638611589E-05,1.78837799467146E-05,2.28515625,0,0
-1.52839511429193E-05,1.54244025907246E-05,2.28515625,0,0
-1.62490305228857E-05,1.36418793772464E-05,2.28515625,0,0
-1.39892017614329E-05,1.27247658383567E-05,2.28515625,0,0
-1.41752325362177E-05,1.23332165458123E-05,2.28515625,0,0
-1.35768623295007E-05,1.10901846710476E-05,2.28515625,0,0
-1.60372128448216E-05,1.09131096905912E-05,2.28515625,0,0
-1.59218416229123E-05,1.23465542856138E-05,2.28515625,0,0
-1.54973458847962E-05,1.52191387314815E-05,2.28515625,0,0
-1.52277725646854E-05,1.63336535479175E-05,2.28515625,0,0
-1.73911885212874E-05,1.51579697558191E-05,2.28515625,0,0
-1.91550807357999E-05,1.41481150421896E-05,2.28515625,0,0
-1.99652276933193E-05,1.42030548886396E-05,2.28515625,0,0
-1.59616811288288E-05,1.40113797897357E-05,2.28515625,0,0
-2.28725166380173E-05,2.09923564398196E-05,2.28515625,0,0
-1.94400818145368E-05,1.46885549838771E-05,2.28515625,0,0
-2.53623766184319E-05,1.55128291225992E-05,2.28515625,0,0
-2.09904228540836E-05,1.16323008114705E-05,2.28515625,0,0
-2.273261998198E-05,1.17589434012189E-05,2.28515625,0,0
-2.38464708672836E-05,1.00417073554127E-05,2.28515625,0,0
-2.82107939710841E-05,1.16922810775577E-05,2.28515625,0,0
-2.91003216261743E-05,1.28381107060704E-05,2.28515625,0,0
-2.78999359579757E-05,1.34096944748308E-05,2.28515625,0,0
-2.6845989850699E-05,1.33690336951986E-05,2.28515625,0,0
-2.55722734436858E-05,1.3545953152061E-05,2.28515625,0,0
-2.47889929596568E-05,1.34813872136874E-05,2.28515625,0,0
-2.22186990868067E-05,1.03979291452561E-05,2.28515625,0,0
-2.26249630941311E-05,8.6398322309833E-06,2.28515625,0,0
-2.33666451094905E-05,6.73676549922675E-06,2.28515625,0,0
-2.638359546836E-05,7.18806177246734E-06,2.28515625,0,0
-2.72625857178355E-05,5.87841395827127E-06,2.28515625,0,0
-2.86829708784353E-05,5.11827602167614E-06,2.28515625,0,0
-2.75409929599846E-05,3.72512658941559E-06,2.28515625,0,0
-2.80100284726359E-05,5.27858674104209E-06,2.28515625,0,0
-2.88209848804399E-05,7.76982233219314E-06,2.28515625,0,0
-3.10786563204601E-05,9.95564369077329E-06,2.28515625,0,0
-3.12222546199337E-05,8.93030028237263E-06,2.28515625,0,0
-3.00254105241038E-05,7.14206544216722E-06,2.28515625,0,0
-2.8176595151308E-05,6.30113299848745E-06,2.28515625,0,0
-2.71363223873777E-05,7.30427518647048E-06,2.28515625,0,0
-2.09516838367563E-05,7.23173116057296E-06,2.28515625,0,0
-2.91600626951549E-05,9.45007013797294E-06,2.28515625,0,0
-2.1995154384058E-05,6.05696277489187E-06,2.28515625,0,0
-2.81598913716152E-05,9.20608727028593E-06,2.28515625,0,0
-2.41426441789372E-05,8.96148958418053E-06,2.28515625,0,0
-2.81335251202108E-05,9.45187184697716E-06,2.28515625,0,0
-2.61757886619307E-05,9.06197874428472E-06,2.28515625,0,0
-2.71916378551396E-05,1.08708291008952E-05,2.28515625,0,0
-2.64206319116056E-05,1.19270616778522E-05,2.28515625,0,0
-2.68223939201562E-05,1.31134574985481E-05,2.28515625,0,0
-2.75392631010618E-05,1.40121910590096E-05,2.28515625,0,0
-2.72198576567462E-05,1.34886067826301E-05,2.28515625,0,0
-2.83404642686946E-05,1.31914712255821E-05,2.28515625,0,0
-2.75441889243666E-05,9.92126842902508E-06,2.28515625,0,0
-2.95756763080135E-05,5.50532513443613E-06,2.28515625,0,0
-3.06032052321825E-05,2.18451327782532E-06,2.28515625,0,0
-3.31319570250344E-05,3.90124159821426E-06,2.28515625,0,0
-3.02908374578692E-05,6.95055632604635E-06,2.28515625,0,0
-2.87857055809582E-05,9.07117646420375E-06,2.28515625,0,0
-2.70592663582647E-05,7.99296412878903E-06,2.28515625,0,0
-2.71999815595336E-05,7.10179165253066E-06,2.28515625,0,0
-2.55314844253007E-05,8.14931627246551E-06,2.28515625,0,0
-2.64366026385687E-05,1.09298180177575E-05,2.28515625,0,0
-2.68417097686324E-05,1.38467630677042E-05,2.28515625,0,0
-2.70019063464133E-05,1.66320041898871E-05,2.28515625,0,0
-2.55533796007512E-05,1.72894142451696E-05,2.28515625,0,0
-2.34989911405137E-05,1.5782350601512E-05,2.28515625,0,0
-1.73057742358651E-05,1.15631510198E-05,2.28515625,0,0
-2.33782739087474E-05,1.75121404026868E-05,2.28515625,0,0
-1.63945078384131E-05,1.49365478137042E-05,2.28515625,0,0
-2.11321075767046E-05,1.88659614650533E-05,2.28515625,0,0
-1.79815415322082E-05,1.78202262759442E-05,2.28515625,0,0
-2.11941478482913E-05,2.18004897760693E-05,2.28515625,0,0
-2.00664635485737E-05,2.34155468206154E-05,2.28515625,0,0
-2.16974749491783E-05,2.4283332095365E-05,2.28515625,0,0
-2.06900585908443E-05,2.04894004127709E-05,2.28515625,0,0
-1.88065805559745E-05,1.71817519003525E-05,2.28515625,0,0
-1.74587257788517E-05,1.77228284883313E-05,2.28515625,0,0
-1.64527027664008E-05,1.97790632228134E-05,2.28515625,0,0
-1.75772220245562E-05,2.10893231269438E-05,2.28515625,0,0
-1.77289985003881E-05,1.89978691196302E-05,2.28515625,0,0
-2.02261489903321E-05,1.70934872585349E-05,2.28515625,0,0
-2.10655889532063E-05,1.48699464261881E-05,2.28515625,0,0
-2.32650090765674E-05,1.51205586007563E-05,2.28515625,0,0
-2.31302128668176E-05,1.51676322275307E-05,2.28515625,0,0
-2.49105778493686E-05,1.65916080732131E-05,2.28515625,0,0
-2.40913468587678E-05,1.79457965714391E-05,2.28515625,0,0
-2.29194010898937E-05,2.13925795833347E-05,2.28515625,0,0
-2.04768002731726E-05,2.33419195865281E-05,2.28515625,0,0
-2.06257282115985E-05,2.3071035684552E-05,2.28515625,0,0
-2.15147229027934E-05,1.92920888366643E-05,2.28515625,0,0
-2.26501742872642E-05,1.25040314742364E-05,2.28515625,0,0
-2.34736580750905E-05,4.59064904134721E-06,2.28515625,0,0
-2.36345003941096E-05,1.1681277101161E-06,2.28515625,0,0
-1.89373440662166E-05,1.93892924471584E-06,2.28515625,0,0
-2.66216757154325E-05,2.0166819467704E-06,2.28515625,0,0
-1.96276032511378E-05,5.13885481723264E-07,2.28515625,0,0
-2.37203203141689E-05,9.63334400694293E-07,2.28515625,0,0
-1.89266429515556E-05,2.75513514225167E-07,2.28515625,0,0
-2.10768375836778E-05,-6.38995558688293E-08,2.28515625,0,0
-1.91596318472875E-05,-1.87047032795817E-06,2.28515625,0,0
-1.91896524484036E-05,-3.88057105737971E-06,2.28515625,0,0
-1.67191010405077E-05,-2.26563361138687E-06,2.28515625,0,0
-1.48619155879715E-05,1.97235794985318E-06,2.28515625,0,0
-1.38118803079124E-05,5.90349554840941E-06,2.28515625,0,0
-1.44382602229598E-05,6.41452243144158E-06,2.28515625,0,0
-1.74376509676222E-05,6.22433481112239E-06,2.28515625,0,0
-1.80169390660012E-05,7.42490510674543E-06,2.28515625,0,0
-1.92536645045038E-05,9.66113384492928E-06,2.28515625,0,0
-1.78014961420558E-05,1.13136857180507E-05,2.28515625,0,0
-1.84498094313312E-05,1.17201343527995E-05,2.28515625,0,0
-1.78509781108005E-05,1.1006195563823E-05,2.28515625,0,0
-1.92592215171317E-05,1.08556459963438E-05,2.28515625,0,0
-1.82414642040385E-05,1.26665718198637E-05,2.28515625,0,0
-1.936075022968E-05,1.58617385750404E-05,2.28515625,0,0
-1.93030500668101E-05,1.77195470314473E-05,2.28515625,0,0
-1.95038792298874E-05,1.73952594195725E-05,2.28515625,0,0
-1.88236717804102E-05,1.55455090862233E-05,2.28515625,0,0
-1.91457856999477E-05,1.24825000966666E-05,2.28515625,0,0
-1.99405913008377E-05,1.11407816802966E-05,2.28515625,0,0
-2.21944846998667E-05,1.13231835712213E-05,2.28515625,0,0
-1.86589804798132E-05,9.65777780947974E-06,2.28515625,0,0
-2.49259610427544E-05,1.47999498949503E-05,2.28515625,0,0
-1.65317105711438E-05,1.47748323797714E-05,2.28515625,0,0
-2.1270003344398E-05,2.00900722120423E-05,2.28515625,0,0
-1.82470012077829E-05,1.84791351784952E-05,2.28515625,0,0
-2.28069584409241E-05,1.99944624910131E-05,2.28515625,0,0
-2.22441685764352E-05,1.97473982552765E-05,2.28515625,0,0
-2.32289585255785E-05,2.04424959520111E-05,2.28515625,0,0
-2.27119235205464E-05,1.93466257769614E-05,2.28515625,0,0
-2.37581771216355E-05,1.82898074854165E-05,2.28515625,0,0
-2.61646036960883E-05,1.58780894707888E-05,2.28515625,0,0
-2.80801159533439E-05,1.15204502435517E-05,2.28515625,0,0
-3.00828705803724E-05,7.91964157542679E-06,2.28515625,0,0
-2.81228694802849E-05,4.4948719732929E-06,2.28515625,0,0
-2.77728377113817E-05,2.43359363594209E-06,2.28515625,0,0
-2.66737370111514E-05,5.14235750870284E-07,2.28515625,0,0
-2.85202913801186E-05,1.93972414308519E-06,2.28515625,0,0
-2.90101379505359E-05,2.56672137766145E-06,2.28515625,0,0
-3.12710872094613E-05,2.79402092928649E-06,2.28515625,0,0
-3.14150602207519E-05,1.53794383095374E-06,2.28515625,0,0
-3.35573349730112E-05,2.36822461374686E-06,2.28515625,0,0
-3.4349945053691E-05,4.72493320557987E-06,2.28515625,0,0
-3.5071174352197E-05,8.46461898618145E-06,2.28515625,0,0
-3.45779008057434E-05,9.54898223426426E-06,2.28515625,0,0
-3.41989943990484E-05,7.51324023440247E-06,2.28515625,0,0
-3.25539331242908E-05,4.78741367260227E-06,2.28515625,0,0
-3.14819735649507E-05,4.15907925344072E-06,2.28515625,0,0
-2.46283634623978E-05,5.20128560310695E-06,2.28515625,0,0
-3.2804880902404E-05,9.03367254068144E-06,2.28515625,0,0
-2.29308752750512E-05,9.25509448279627E-06,2.28515625,0,0
-3.13979289785493E-05,1.21701132229646E-05,2.28515625,0,0
-2.8419455702533E-05,1.24616099128616E-05,2.28515625,0,0
-3.3473002986284E-05,1.13262140075676E-05,2.28515625,0,0
-3.03699580399552E-05,9.49853165366221E-06,2.28515625,0,0
-2.99490147881443E-05,9.60016859608004E-06,2.28515625,0,0
-2.72729739663191E-05,9.34825857257238E-06,2.28515625,0,0
-2.78690513368929E-05,1.02883786894381E-05,2.28515625,0,0
-3.00991232506931E-05,1.29378222482046E-05,2.28515625,0,0
-3.06468609778676E-05,1.51666808960726E-05,2.28515625,0,0
-3.1555347959511E-05,1.68528877111385E-05,2.28515625,0,0
-2.84701072814642E-05,1.75944314833032E-05,2.28515625,0,0
-2.77146718872245E-05,1.84678719961084E-05,2.28515625,0,0
-2.44246330112219E-05,1.84168475243496E-05,2.28515625,0,0
-2.43051235884195E-05,1.88363574125106E-05,2.28515625,0,0
-2.25454168685246E-05,1.89665697689634E-05,2.28515625,0,0
-2.41698580794036E-05,1.90054306585807E-05,2.28515625,0,0
-2.29876259254524E-05,1.67883008543868E-05,2.28515625,0,0
-2.40289336943533E-05,1.25458991533378E-05,2.28515625,0,0
-2.47512398345862E-05,9.12362611416029E-06,2.28515625,0,0
-2.80513504549162E-05,8.31602392281638E-06,2.28515625,0,0
-2.96345460810699E-05,7.56496956455521E-06,2.28515625,0,0
-3.0104509278317E-05,6.9888246798655E-06,2.28515625,0,0
-2.91248798021115E-05,6.48843160888646E-06,2.28515625,0,0
-2.90617117570946E-05,6.27917142992374E-06,2.28515625,0,0
-2.42498717852868E-05,6.26353721600026E-06,2.28515625,0,0
-3.54823459929321E-05,1.04791015473893E-05,2.28515625,0,0
-2.69089669018285E-05,9.20194361242466E-06,2.28515625,0,0
-3.1084353395272E-05,9.70199289440643E-06,2.28515625,0,0
-2.64187510765623E-05,8.50898231874453E-06,2.28515625,0,0
-3.1137893529376E-05,9.21969603950856E-06,2.28515625,0,0
-2.98815393762197E-05,7.91259026300395E-06,2.28515625,0,0
-3.22121850331314E-05,8.70967869559536E-06,2.28515625,0,0
-3.09280840156134E-05,9.96583003143314E-06,2.28515625,0,0
-2.91291198664112E-05,1.03871525425348E-05,2.28515625,0,0
-2.80188742181053E-05,9.76503179117572E-06,2.28515625,0,0
-2.69252268481068E-05,8.47611408971716E-06,2.28515625,0,0
-2.79021387541434E-05,8.00219095253851E-06,2.28515625,0,0
-2.61118075286504E-05,8.74910983839072E-06,2.28515625,0,0
-2.53907437581802E-05,1.10095124910004E-05,2.28515625,0,0
-2.17365668504499E-05,1.16359524326981E-05,2.28515625,0,0
-2.26867214223603E-05,1.21372204375803E-05,2.28515625,0,0
-2.36551604757551E-05,1.32537879835581E-05,2.28515625,0,0
-2.63121946773026E-05,1.52827524289023E-05,2.28515625,0,0
-2.52357858698815E-05,1.51279518831871E-05,2.28515625,0,0
-2.49726308538811E-05,1.36124190248665E-05,2.28515625,0,0
-2.23937659029616E-05,1.11565150291426E-05,2.28515625,0,0
-2.11273600143613E-05,9.40392692427849E-06,2.28515625,0,0
-1.9257668100181E-05,7.81603466748493E-06,2.28515625,0,0
-1.95603042811854E-05,8.48371109896107E-06,2.28515625,0,0
-1.9046990928473E-05,1.05408116723993E-05,2.28515625,0,0
-1.76594912772998E-05,1.1341086064931E-05,2.28515625,0,0
-1.40577722049784E-05,8.56133465276798E-06,2.28515625,0,0
-2.00292342924513E-05,1.22086375995423E-05,2.28515625,0,0
-1.60483141371515E-05,9.6536023193039E-06,2.28515625,0,0
-2.04560456040781E-05,1.17850368042127E-05,2.28515625,0,0
-1.75626191776246E-05,9.71309054875746E-06,2.28515625,0,0
-1.88638805411756E-05,1.14180556920473E-05,2.28515625,0,0
-1.73224088939605E-05,1.09475267890957E-05,2.28515625,0,0
-1.86998950084671E-05,1.1956702110183E-05,2.28515625,0,0
-1.79697617568308E-05,1.13430842247908E-05,2.28515625,0,0
-1.6773237803136E-05,1.08594931589323E-05,2.28515625,0,0
-1.61175594257656E-05,1.01391888165381E-05,2.28515625,0,0
-1.59710562002147E-05,9.47384341998259E-06,2.28515625,0,0
-1.83759784704307E-05,1.09412385427277E-05,2.28515625,0,0
-1.99775713554118E-05,1.24520338431466E-05,2.28515625,0,0
-2.2649632228422E-05,1.34085084937396E-05,2.28515625,0,0
-2.27210020966595E-05,1.10156142909545E-05,2.28515625,0,0
-2.37503863900201E-05,8.87625901668798E-06,2.28515625,0,0
-2.30026962526608E-05,6.41652241029078E-06,2.28515625,0,0
-2.32430120377103E-05,6.72870919515844E-06,2.28515625,0,0
-2.25149706238881E-05,8.66852042236133E-06,2.28515625,0,0
-2.34466842812253E-05,1.15247366920812E-05,2.28515625,0,0
-2.37206295423675E-05,1.05995586636709E-05,2.28515625,0,0
-2.51018700510031E-05,7.94363495515427E-06,2.28515625,0,0
-2.54211663559545E-05,7.7724143920932E-06,2.28515625,0,0
-2.4102657334879E-05,1.1782211913669E-05,2.28515625,0,0
-2.22766539081931E-05,1.42113385663833E-05,2.28515625,0,0
-2.05415126401931E-05,1.22128903967678E-05,2.28515625,0,0
-1.56649966811528E-05,7.77314016886521E-06,2.28515625,0,0
-2.23779024963733E-05,1.28602951008361E-05,2.28515625,0,0
-1.70330422406551E-05,1.3619383025798E-05,2.28515625,0,0
-2.08232922886964E-05,1.70547755260486E-05,2.28515625,0,0
-1.66847567015793E-05,1.35042209876701E-05,2.28515625,0,0
-1.84494201675989E-05,1.09969860204728E-05,2.28515625,0,0
-1.80570496013388E-05,6.1827854551666E-06,2.28515625,0,0
-2.07359789783368E-05,9.28434928937349E-07,2.28515625,0,0
-2.21732516365591E-05,-3.11389385387884E-06,2.28515625,0,0
-2.33314767683623E-05,-2.47753428084252E-06,2.28515625,0,0
-2.36861196754035E-05,1.64589152973349E-06,2.28515625,0,0
-2.22249382204609E-05,7.23035009286832E-06,2.28515625,0,0
-2.16884873225354E-05,1.18151410788414E-05,2.28515625,0,0
-2.07380653591827E-05,1.10320488602156E-05,2.28515625,0,0
-2.16529642784735E-05,6.51358550385339E-06,2.28515625,0,0
-2.07485354621895E-05,9.50281105360773E-07,2.28515625,0,0
-2.1815809304826E-05,3.69326116356206E-08,2.28515625,0,0
-2.14812589547364E-05,2.10315602089395E-06,2.28515625,0,0
-2.17647611862049E-05,4.80396010971162E-06,2.28515625,0,0
-2.05069900403032E-05,5.03038836541236E-06,2.28515625,0,0
-2.15736617974471E-05,5.69389658267028E-06,2.28515625,0,0
-2.19433713937178E-05,7.96006406744709E-06,2.28515625,0,0
-2.19279809243744E-05,1.16627152237925E-05,2.28515625,0,0
-2.1569410819211E-05,1.21558268801891E-05,2.28515625,0,0
-2.28134103963384E-05,9.48700653680135E-06,2.28515625,0,0
-2.41189536609454E-05,5.41903682460543E-06,2.28515625,0,0
-2.44787152041681E-05,2.18342051994114E-06,2.28515625,0,0
-2.00214071810478E-05,1.35047253380094E-08,2.28515625,0,0
-2.83059362118365E-05,1.19948111887425E-07,2.28515625,0,0
-2.0867712009931E-05,1.8455788222127E-06,2.28515625,0,0
-2.49108270509169E-05,4.5376305024547E-06,2.28515625,0,0
-1.92471561604179E-05,7.12336668584612E-06,2.28515625,0,0
-2.02354331122478E-05,1.09780448838137E-05,2.28515625,0,0
-1.76986868609674E-05,1.50334981299238E-05,2.28515625,0,0
-1.96521141333506E-05,1.72075051523279E-05,2.28515625,0,0
-1.96006021724315E-05,1.78110312845092E-05,2.28515625,0,0
-2.04728567041457E-05,1.76132216438418E-05,2.28515625,0,0
-2.19390440179268E-05,1.71670508279931E-05,2.28515625,0,0
-2.29320557991741E-05,1.69777576957131E-05,2.28515625,0,0
-2.60375600191765E-05,1.54038025357295E-05,2.28515625,0,0
-2.74083358817734E-05,1.31322640299913E-05,2.28515625,0,0
-3.03997603623429E-05,1.3057011528872E-05,2.28515625,0,0
-3.01207546726801E-05,1.45673548104241E-05,2.28515625,0,0
-3.02894604828907E-05,1.49589668581029E-05,2.28515625,0,0
-2.76278824458132E-05,1.42492235681857E-05,2.28515625,0,0
-2.77299404842779E-05,1.35831069201231E-05,2.28515625,0,0
-2.64823338511633E-05,1.16724922918365E-05,2.28515625,0,0
-2.70154887402896E-05,9.44539533520583E-06,2.28515625,0,0
-2.78621155302972E-05,9.50730191107141E-06,2.28515625,0,0
-3.13495547743514E-05,1.01625209936174E-05,2.28515625,0,0
-3.28522837662604E-05,1.04903301689774E-05,2.28515625,0,0
-3.19923419738188E-05,1.28872597997542E-05,2.28515625,0,0
-2.93612338282401E-05,1.57999802468112E-05,2.28515625,0,0
-2.69527645286871E-05,1.6807513020467E-05,2.28515625,0,0
-2.05726919375593E-05,1.46787624544231E-05,2.28515625,0,0
-3.07857881125528E-05,2.23701463255566E-05,2.28515625,0,0
-2.58382315223571E-05,1.62342712428654E-05,2.28515625,0,0
-3.06659821944777E-05,1.5453635569429E-05,2.28515625,0,0
-2.5575956897228E-05,1.07934502011631E-05,2.28515625,0,0
-2.75556394626619E-05,1.64222747116582E-05,2.28515625,0,0
-2.39542659983272E-05,1.92473871720722E-05,2.28515625,0,0
-2.41699490288738E-05,1.9086328393314E-05,2.28515625,0,0
-2.33127757383045E-05,1.40828024086659E-05,2.28515625,0,0
-2.41035741055384E-05,9.8989657999482E-06,2.28515625,0,0
-2.56971379712923E-05,7.42031579648028E-06,2.28515625,0,0
-2.60156029980863E-05,5.09643132318161E-06,2.28515625,0,0
-2.63414422079222E-05,6.4666760408727E-06,2.28515625,0,0
-2.5043587811524E-05,9.09510436031269E-06,2.28515625,0,0
-2.6589625122142E-05,1.20353261081618E-05,2.28515625,0,0
-2.56051644100808E-05,1.15833263407694E-05,2.28515625,0,0
-2.62504563579569E-05,1.26861905300757E-05,2.28515625,0,0
-2.44321581703844E-05,1.33967359943199E-05,2.28515625,0,0
-2.41851957980543E-05,1.51184422065853E-05,2.28515625,0,0
-2.28486151172547E-05,1.41373375299736E-05,2.28515625,0,0
-2.57661540672416E-05,1.27139383039321E-05,2.28515625,0,0
-2.76631944871042E-05,1.01226296465029E-05,2.28515625,0,0
-2.83667704934487E-05,9.36870128498413E-06,2.28515625,0,0
-2.72667421086226E-05,1.07600744740921E-05,2.28515625,0,0
-2.77011949947337E-05,1.2542699550977E-05,2.28515625,0,0
-2.89426534436643E-05,1.04737673609634E-05,2.28515625,0,0
-3.08586641040165E-05,9.71844838204561E-06,2.28515625,0,0
-2.57294759649085E-05,1.10419168777298E-05,2.28515625,0,0
-3.4997003240278E-05,1.69736831594491E-05,2.28515625,0,0
-2.47000662056962E-05,1.43790357469697E-05,2.28515625,0,0
-3.20628532790579E-05,1.75902696355479E-05,2.28515625,0,0
-2.71305671049049E-05,1.45517315104371E-05,2.28515625,0,0
-3.0267136025941E-05,1.41320597322192E-05,2.28515625,0,0
-2.68413405137835E-05,1.31377164507285E-05,2.28515625,0,0
-2.82697965303669E-05,1.46055899676867E-05,2.28515625,0,0
-2.64393802353879E-05,1.47646132973023E-05,2.28515625,0,0
-2.48355499934405E-05,1.37511915454525E-05,2.28515625,0,0
-2.5028793970705E-05,1.33947742142482E-05,2.28515625,0,0
-2.47569532803027E-05,1.30702219394152E-05,2.28515625,0,0
-2.56771454587579E-05,1.25758051581215E-05,2.28515625,0,0
-2.30368623306276E-05,1.1139703929075E-05,2.28515625,0,0
-2.37972399190767E-05,1.30806292872876E-05,2.28515625,0,0
-2.35706065723207E-05,1.54193257912993E-05,2.28515625,0,0
-2.57858773693442E-05,1.69311060744803E-05,2.28515625,0,0
-2.28641347348457E-05,1.4539042240358E-05,2.28515625,0,0
-2.1108828150318E-05,1.37155293487012E-05,2.28515625,0,0
-1.72768213815289E-05,1.46313013829058E-05,2.28515625,0,0
-1.70408620761009E-05,1.60364343173569E-05,2.28515625,0,0
-1.65170804393711E-05,1.56056048581377E-05,2.28515625,0,0
-1.82992771442514E-05,1.52347292896593E-05,2.28515625,0,0
-1.94044696399942E-05,1.42541375680594E-05,2.28515625,0,0
-2.08758574444801E-05,1.37310826175963E-05,2.28515625,0,0
-2.04934458452044E-05,1.31812803374487E-05,2.28515625,0,0
-2.01096718228655E-05,1.09196644189069E-05,2.28515625,0,0
-1.75930654222611E-05,7.50173421693034E-06,2.28515625,0,0
-2.53270463872468E-05,1.2603839422809E-05,2.28515625,0,0
-1.98827910935506E-05,1.38958566822112E-05,2.28515625,0,0
-2.4599921744084E-05,1.69163322425447E-05,2.28515625,0,0
-2.09695026569534E-05,1.22686205941136E-05,2.28515625,0,0
-2.24255309149157E-05,9.32558668864658E-06,2.28515625,0,0
-1.83151842065854E-05,7.50515209801961E-06,2.28515625,0,0
-1.71547781064874E-05,9.34113268158399E-06,2.28515625,0,0
-1.57963713718345E-05,1.12569941848051E-05,2.28515625,0,0
-1.58525836013723E-05,1.32049581225147E-05,2.28515625,0,0
-1.65648016263731E-05,1.36013895826181E-05,2.28515625,0,0
-1.59863702720031E-05,1.26030763567542E-05,2.28515625,0,0
-1.80267106770771E-05,1.20707691166899E-05,2.28515625,0,0
-1.94169479073025E-05,1.0552782441664E-05,2.28515625,0,0
-2.21327227336587E-05,9.95757000055164E-06,2.28515625,0,0
-2.21875689021545E-05,8.73850058269454E-06,2.28515625,0,0
-2.37720705626998E-05,8.66033587954007E-06,2.28515625,0,0
-2.38474385696463E-05,8.66247864905745E-06,2.28515625,0,0
-2.56727435044013E-05,9.77385479927761E-06,2.28515625,0,0
-2.57580250035971E-05,9.93899902823614E-06,2.28515625,0,0
-2.61736186075723E-05,1.09754746517865E-05,2.28515625,0,0
-2.48437190748518E-05,1.20203740152647E-05,2.28515625,0,0
-2.46132785832742E-05,1.20339791465085E-05,2.28515625,0,0
-2.45765022555133E-05,1.03867196230567E-05,2.28515625,0,0
-2.55115428444697E-05,8.70002531883074E-06,2.28515625,0,0
-2.53569251071895E-05,7.78954654379049E-06,2.28515625,0,0
-2.46986128331628E-05,9.13575786398724E-06,2.28515625,0,0
-1.93365485756658E-05,9.94545644061873E-06,2.28515625,0,0
-2.69503889285261E-05,1.46439906529849E-05,2.28515625,0,0
-2.08146502700401E-05,9.38897119340254E-06,2.28515625,0,0
-2.78690840787021E-05,9.20428647077642E-06,2.28515625,0,0
-2.52541849476984E-05,7.71213308325969E-06,2.28515625,0,0
-2.77477520285174E-05,1.2021660040773E-05,2.28515625,0,0
-2.47630214289529E-05,1.34333504320239E-05,2.28515625,0,0
-2.51952551479917E-05,1.28807605506154E-05,2.28515625,0,0
-2.3530252292403E-05,1.16150285975891E-05,2.28515625,0,0
-2.23561582970433E-05,1.25528631542693E-05,2.28515625,0,0
-2.11443093576236E-05,1.49941533891251E-05,2.28515625,0,0
-2.0272733308957E-05,1.65909641509643E-05,2.28515625,0,0
-2.28887984121684E-05,1.6853895431268E-05,2.28515625,0,0
-2.48523319896776E-05,1.27340681501664E-05,2.28515625,0,0
-2.8135162210674E-05,8.28703741717618E-06,2.28515625,0,0
-2.78470706689404E-05,5.53851850781939E-06,2.28515625,0,0
-2.85921269096434E-05,7.42420616006712E-06,2.28515625,0,0
-2.76010287052486E-05,1.00632287285407E-05,2.28515625,0,0
-3.00015581160551E-05,1.18372081487905E-05,2.28515625,0,0
-3.10080431518145E-05,1.03666161521687E-05,2.28515625,0,0
-3.24280845234171E-05,8.28768679639325E-06,2.28515625,0,0
-3.04716140817618E-05,6.77562093187589E-06,2.28515625,0,0
-2.87034235952888E-05,8.2681708590826E-06,2.28515625,0,0
-2.71588469331618E-05,1.04255796031794E-05,2.28515625,0,0
-2.79238774965052E-05,1.2042144589941E-05,2.28515625,0,0
-2.87309030682081E-05,1.39243293233449E-05,2.28515625,0,0
-2.81959801213816E-05,1.33330822791322E-05,2.28515625,0,0
-2.21996142499847E-05,8.03833972895518E-06,2.28515625,0,0
-3.17979720421135E-05,1.11506915345672E-05,2.28515625,0,0
-2.46837444137782E-05,1.00936831586296E-05,2.28515625,0,0
-3.08356065943372E-05,1.41436494232039E-05,2.28515625,0,0
-2.67268460447667E-05,1.33942330649006E-05,2.28515625,0,0
-2.98364629998105E-05,1.73069111042423E-05,2.28515625,0,0
-2.71319167950423E-05,1.88986850844231E-05,2.28515625,0,0
-2.83439130726038E-05,2.01325801754138E-05,2.28515625,0,0
-2.79863816103898E-05,1.78517275344348E-05,2.28515625,0,0
-2.88519186142366E-05,1.50118394230958E-05,2.28515625,0,0
-3.00160154438345E-05,1.33445601022686E-05,2.28515625,0,0
-2.91389369522221E-05,1.20690237963572E-05,2.28515625,0,0
-2.8633679903578E-05,1.24420075735543E-05,2.28515625,0,0
-2.59562930295942E-05,1.29129221022595E-05,2.28515625,0,0
-2.67920822807355E-05,1.49568431879743E-05,2.28515625,0,0
-2.61745335592423E-05,1.5720286683063E-05,2.28515625,0,0
-2.73424320766935E-05,1.5876445104368E-05,2.28515625,0,0
-2.49608128797263E-05,1.36250100695179E-05,2.28515625,0,0
-2.41302532231202E-05,1.18293237392209E-05,2.28515625,0,0
-2.21751088247402E-05,9.67788946582004E-06,2.28515625,0,0
-2.25613312068162E-05,7.72287603467703E-06,2.28515625,0,0
-2.05750766326673E-05,4.66805158794159E-06,2.28515625,0,0
-1.98037269001361E-05,3.78228560293792E-06,2.28515625,0,0
-1.87791483767796E-05,4.2933938857459E-06,2.28515625,0,0
-1.85140470421175E-05,4.11192650062731E-06,2.28515625,0,0
-1.90084720088635E-05,1.47284231388767E-06,2.28515625,0,0
-2.02300489036134E-05,6.13485667599889E-07,2.28515625,0,0
-1.66366971825482E-05,2.88563978756429E-06,2.28515625,0,0
-2.29242286877707E-05,5.35105937160552E-06,2.28515625,0,0
-1.65599794854643E-05,4.78108631796204E-06,2.28515625,0,0
-2.08676246984396E-05,4.82681070934632E-06,2.28515625,0,0
-1.80214810825419E-05,5.5622745094297E-06,2.28515625,0,0
-1.94732656382257E-05,7.32859416530118E-06,2.28515625,0,0
-1.5557367078145E-05,8.2790957094403E-06,2.28515625,0,0
-1.63648583111353E-05,8.78675655258121E-06,2.28515625,0,0
-1.69847025972558E-05,8.53053370519774E-06,2.28515625,0,0
-1.92141214938601E-05,8.61533953866456E-06,2.28515625,0,0
-2.24252999032615E-05,8.90219325810904E-06,2.28515625,0,0
-2.38946995523293E-05,7.24599431123352E-06,2.28515625,0,0
-2.58151139860274E-05,6.02187583353953E-06,2.28515625,0,0
-2.51008532359265E-05,7.73567535361508E-06,2.28515625,0,0
-2.54026672337204E-05,1.177992180601E-05,2.28515625,0,0
-2.42217247432563E-05,1.38529576361179E-05,2.28515625,0,0
-2.61062214121921E-05,1.35506588776479E-05,2.28515625,0,0
-2.74860503850505E-05,1.25532333186129E-05,2.28515625,0,0
-3.05031971947756E-05,1.23701938719023E-05,2.28515625,0,0
-2.95010831905529E-05,1.21111334010493E-05,2.28515625,0,0
-2.7416461307439E-05,1.11235658550868E-05,2.28515625,0,0
-2.40813988057198E-05,9.37722052185563E-06,2.28515625,0,0
-2.29154775297502E-05,9.21795981412288E-06,2.28515625,0,0
-2.15110721910605E-05,1.15313578135101E-05,2.28515625,0,0
-2.08627297979547E-05,1.08945350802969E-05,2.28515625,0,0
-2.01240436581429E-05,7.00302598488634E-06,2.28515625,0,0
-1.90771697816672E-05,3.79655330107198E-06,2.28515625,0,0
-1.56622954818886E-05,2.73029240815958E-06,2.28515625,0,0
-2.26434112846619E-05,5.96762492932612E-06,2.28515625,0,0
-1.90576593013247E-05,6.64239087200258E-06,2.28515625,0,0
-2.53988437179942E-05,6.15616636423511E-06,2.28515625,0,0
-2.34464987443062E-05,4.20368905906798E-06,2.28515625,0,0
-2.44294224103214E-05,3.39787129632896E-06,2.28515625,0,0
-2.1178058887017E-05,4.43137423644657E-06,2.28515625,0,0
-2.2600184820476E-05,6.37974562778254E-06,2.28515625,0,0
-2.32200909522362E-05,7.83258110459428E-06,2.28515625,0,0
-2.43887170654489E-05,8.81939286045963E-06,2.28515625,0,0
-2.56162693403894E-05,8.34841284813592E-06,2.28515625,0,0
-2.54497790592723E-05,8.35762421047548E-06,2.28515625,0,0
-2.48238357016817E-05,1.01521682154271E-05,2.28515625,0,0
-2.30586829275126E-05,1.18902216854622E-05,2.28515625,0,0
-2.35348361457E-05,1.27909324874054E-05,2.28515625,0,0
-2.24891064135591E-05,1.45306548802182E-05,2.28515625,0,0
-2.38856573560042E-05,1.76031317096204E-05,2.28515625,0,0
-2.5070028641494E-05,1.87766654562438E-05,2.28515625,0,0
-2.83823446807219E-05,1.66922673088266E-05,2.28515625,0,0
-2.90413299808279E-05,1.14925569505431E-05,2.28515625,0,0
-3.05706234939862E-05,6.91035847921739E-06,2.28515625,0,0
-3.09624738292769E-05,4.63861715616076E-06,2.28515625,0,0
-3.1053332349984E-05,3.47035324921308E-06,2.28515625,0,0
-2.97792685159948E-05,4.45077330368804E-06,2.28515625,0,0
-3.0061624784139E-05,8.10461642686278E-06,2.28515625,0,0
-2.96718353638425E-05,1.08765952973044E-05,2.28515625,0,0
-2.85120859189192E-05,1.19805872600409E-05,2.28515625,0,0
-2.23245333472732E-05,1.23748932310264E-05,2.28515625,0,0
-3.1608095014235E-05,2.1041701984359E-05,2.28515625,0,0
-2.37416807067348E-05,1.93855157704093E-05,2.28515625,0,0
-2.95825830107788E-05,2.05398828256875E-05,2.28515625,0,0
-2.56981620623264E-05,1.61948100867448E-05,2.28515625,0,0
-2.91857049887767E-05,1.67443758982699E-05,2.28515625,0,0
-2.63097244896926E-05,1.53099408635171E-05,2.28515625,0,0
-2.75243291980587E-05,1.65314449986909E-05,2.28515625,0,0
-2.68466683337465E-05,1.69827217177954E-05,2.28515625,0,0
-2.5303008442279E-05,1.58484817802673E-05,2.28515625,0,0
-2.27935088332742E-05,1.39914563987986E-05,2.28515625,0,0
-2.09075969905825E-05,1.22263581943116E-05,2.28515625,0,0
-2.21373975364259E-05,1.15510028990684E-05,2.28515625,0,0
-2.14040082937572E-05,9.17121997190407E-06,2.28515625,0,0
-2.24749765038723E-05,7.34770628696424E-06,2.28515625,0,0
-2.13410712603945E-05,5.26843950865441E-06,2.28515625,0,0
-2.35596744460054E-05,6.14072632743046E-06,2.28515625,0,0
-2.35939587582834E-05,8.02989688963862E-06,2.28515625,0,0
-2.50930024776608E-05,1.20603353934712E-05,2.28515625,0,0
-2.36301257245941E-05,1.41137888931553E-05,2.28515625,0,0
-2.3449725631508E-05,1.47389855555957E-05,2.28515625,0,0
-2.20299098145915E-05,1.49160659930203E-05,2.28515625,0,0
-2.27510754484683E-05,1.78729660547106E-05,2.28515625,0,0
-2.34856725001009E-05,1.99142050405499E-05,2.28515625,0,0
-2.48002070293296E-05,1.87570440175477E-05,2.28515625,0,0
-2.37125823332462E-05,1.59985884238267E-05,2.28515625,0,0
-2.17924534808844E-05,1.48331992022577E-05,2.28515625,0,0
-1.6498684999533E-05,1.02108560895431E-05,2.28515625,0,0
-2.36544492508983E-05,1.0173513146583E-05,2.28515625,0,0
-1.72380405274453E-05,8.41261510231561E-07,2.28515625,0,0
-1.96472901734523E-05,1.64016682902002E-06,2.28515625,0,0
-1.51910362546914E-05,-8.02859972282022E-07,2.28515625,0,0
-1.63068871188443E-05,3.10783070744947E-06,2.28515625,0,0
-1.34883557620924E-05,4.70682198283612E-06,2.28515625,0,0
-1.39844432851532E-05,6.55287431072793E-06,2.28515625,0,0
-1.50248388308682E-05,6.86848534314777E-06,2.28515625,0,0
-1.79847211256856E-05,8.37218976812437E-06,2.28515625,0,0
-1.95208231161814E-05,1.09908814920345E-05,2.28515625,0,0
-1.76882822415791E-05,1.27710600281716E-05,2.28515625,0,0
-1.65155779541237E-05,1.40612628456438E-05,2.28515625,0,0
-1.57709491759306E-05,1.18000016300357E-05,2.28515625,0,0
-1.78936516022077E-05,8.91858417162439E-06,2.28515625,0,0
-1.77202491613571E-05,5.4668334996677E-06,2.28515625,0,0
-1.8466089386493E-05,5.95077790421783E-06,2.28515625,0,0
-1.81552986759925E-05,7.93281924416078E-06,2.28515625,0,0
-2.0249592125765E-05,1.1987091966148E-05,2.28515625,0,0
-2.06268759939121E-05,1.48311537486734E-05,2.28515625,0,0
-2.17564174818108E-05,1.78693917405326E-05,2.28515625,0,0
-2.15352811210323E-05,1.7930655303644E-05,2.28515625,0,0
-2.23099359573098E-05,1.52571246871958E-05,2.28515625,0,0
-2.2282973077381E-05,1.14388449219405E-05,2.28515625,0,0
-2.1662874132744E-05,1.14273043436697E-05,2.28515625,0,0
-1.99168862309307E-05,1.34213141791406E-05,2.28515625,0,0
-1.89378915820271E-05,1.34152969621937E-05,2.28515625,0,0
-1.64862540259492E-05,1.06320376289659E-05,2.28515625,0,0
-2.47168572968803E-05,1.73182561411522E-05,2.28515625,0,0
-1.98955531232059E-05,1.65308210853254E-05,2.28515625,0,0
-2.27925465878798E-05,1.9133296518703E-05,2.28515625,0,0
-1.86103607120458E-05,1.63696950039594E-05,2.28515625,0,0
-2.17610540858004E-05,1.76289922819706E-05,2.28515625,0,0
-2.14665324165253E-05,1.58945185830817E-05,2.28515625,0,0
-2.28418757615145E-05,1.59080445882864E-05,2.28515625,0,0
-2.36400774156209E-05,1.55549096234608E-05,2.28515625,0,0
-2.51449400821002E-05,1.5921668818919E-05,2.28515625,0,0
-2.62176708929474E-05,1.67858161148615E-05,2.28515625,0,0
-2.5912893761415E-05,1.68359310919186E-05,2.28515625,0,0
-2.65922299149679E-05,1.66773279488552E-05,2.28515625,0,0
-2.66912284132559E-05,1.4780262063141E-05,2.28515625,0,0
-2.89907566184411E-05,1.4356061910803E-05,2.28515625,0,0
-2.90103853330947E-05,1.30095977510791E-05,2.28515625,0,0
-2.88893061224371E-05,1.17797335406067E-05,2.28515625,0,0
-2.66506685875356E-05,8.26739324111259E-06,2.28515625,0,0
-2.71470889856573E-05,5.20929643244017E-06,2.28515625,0,0
-2.70195523626171E-05,1.91734966392687E-06,2.28515625,0,0
-2.68256990239024E-05,3.39933990289865E-07,2.28515625,0,0
-2.40626904997043E-05,-9.24670644053549E-07,2.28515625,0,0
-2.30091136472765E-05,-3.48899618529686E-07,2.28515625,0,0
-2.17935958062299E-05,2.19241201193654E-06,2.28515625,0,0
-2.05240285140462E-05,6.71827501719235E-06,2.28515625,0,0
-2.03710023924941E-05,1.02915209936327E-05,2.28515625,0,0
-2.12740742426831E-05,1.06308980321046E-05,2.28515625,0,0
-1.83893589564832E-05,5.18051501785521E-06,2.28515625,0,0
-2.69027223112062E-05,6.43016164758592E-06,2.28515625,0,0
-2.10680318559753E-05,8.82354470377322E-06,2.28515625,0,0
-2.49413114943309E-05,1.57576432684436E-05,2.28515625,0,0
-2.10580037673935E-05,1.47804794323747E-05,2.28515625,0,0
-2.55791728704935E-05,1.44625892062322E-05,2.28515625,0,0
-2.50439279625425E-05,1.17034642244107E-05,2.28515625,0,0
-2.50360753852874E-05,1.15696739158011E-05,2.28515625,0,0
-2.38439552049385E-05,1.19230171549134E-05,2.28515625,0,0
-2.44814473262522E-05,1.1918498785235E-05,2.28515625,0,0
-2.64053160208277E-05,9.68234417086933E-06,2.28515625,0,0
-2.73385521722957E-05,7.35154617359512E-06,2.28515625,0,0
-2.87167604255956E-05,7.11031589162303E-06,2.28515625,0,0
-2.74482081294991E-05,7.79465790401446E-06,2.28515625,0,0
-2.8018579541822E-05,1.01847554105916E-05,2.28515625,0,0
-2.6919678930426E-05,1.10847768155509E-05,2.28515625,0,0
-2.74457834166242E-05,1.10664786916459E-05,2.28515625,0,0
-2.57589090324473E-05,9.41689631872578E-06,2.28515625,0,0
-2.54660226346459E-05,8.94817821972538E-06,2.28515625,0,0
-2.38381435337942E-05,8.10799429018516E-06,2.28515625,0,0
-2.44033290073276E-05,8.30200860946206E-06,2.28515625,0,0
-2.44917082454776E-05,7.23116636436316E-06,2.28515625,0,0
-2.50504199357238E-05,6.48803552394384E-06,2.28515625,0,0
-2.34195540542714E-05,5.59336513106246E-06,2.28515625,0,0
-2.31513186008669E-05,5.50144022781751E-06,2.28515625,0,0
-2.54337501246482E-05,5.72498083784012E-06,2.28515625,0,0
-2.65896651399089E-05,5.53120707991184E-06,2.28515625,0,0
-2.06936965696514E-05,4.63855303678429E-06,2.28515625,0,0
-2.79681480606087E-05,6.70076497044647E-06,2.28515625,0,0
-1.94329040823504E-05,6.60819023323711E-06,2.28515625,0,0
-2.43287431658246E-05,1.0034652405011E-05,2.28515625,0,0
-2.02036735572619E-05,1.02924232123769E-05,2.28515625,0,0
-2.46423696808051E-05,1.14399372250773E-05,2.28515625,0,0
-2.45384871959686E-05,1.09691245597787E-05,2.28515625,0,0
-2.77138442470459E-05,1.12547295429977E-05,2.28515625,0,0
-2.66253900917945E-05,1.20142622108688E-05,2.28515625,0,0
-2.53462694672635E-05,1.36103572003776E-05,2.28515625,0,0
-2.4984881747514E-05,1.47941791510675E-05,2.28515625,0,0
-2.43016074819025E-05,1.49898005474824E-05,2.28515625,0,0
-2.43084868998267E-05,1.563386831549E-05,2.28515625,0,0
-2.1728219508077E-05,1.61343486979604E-05,2.28515625,0,0
-2.15372419916093E-05,1.78035352291772E-05,2.28515625,0,0
-1.95319335034583E-05,1.90535683941562E-05,2.28515625,0,0
-2.08517121791374E-05,1.96981181943556E-05,2.28515625,0,0
-2.06705026357668E-05,1.84990858542733E-05,2.28515625,0,0
-2.23259721678915E-05,1.81491250259569E-05,2.28515625,0,0
-2.20118599827401E-05,1.78618956852006E-05,2.28515625,0,0
-2.42491896642605E-05,1.60967774718301E-05,2.28515625,0,0
-2.5027973606484E-05,1.10360706457868E-05,2.28515625,0,0
-2.75696002063341E-05,5.22139271197375E-06,2.28515625,0,0
-2.91283176920842E-05,2.58371528616408E-06,2.28515625,0,0
-2.98007489618612E-05,5.42238740308676E-06,2.28515625,0,0
-2.89963754767086E-05,9.37353161134524E-06,2.28515625,0,0
-2.81291668215999E-05,1.17968056656537E-05,2.28515625,0,0
-2.32982747547794E-05,1.33359271785594E-05,2.28515625,0,0
-3.34667129209265E-05,2.01507209567353E-05,2.28515625,0,0
-2.61929380940273E-05,1.66786230693106E-05,2.28515625,0,0
-3.287320578238E-05,2.04546649911208E-05,2.28515625,0,0
-2.77633262157906E-05,1.70577932294691E-05,2.28515625,0,0
-2.95114641630789E-05,1.55245961650508E-05,2.28515625,0,0
-2.60103206528584E-05,1.03478714663652E-05,2.28515625,0,0
-2.70645396085456E-05,8.99217229743954E-06,2.28515625,0,0
-2.69546853814973E-05,8.81648429640336E-06,2.28515625,0,0
-2.71725621132646E-05,9.92533932731021E-06,2.28515625,0,0
-2.80805525108008E-05,1.05995441117557E-05,2.28515625,0,0
-2.86102986137848E-05,9.23396237340057E-06,2.28515625,0,0
-2.955510171887E-05,8.57463783177082E-06,2.28515625,0,0
-2.66153165284777E-05,7.2465231824026E-06,2.28515625,0,0
-2.64298723777756E-05,8.1944535850198E-06,2.28515625,0,0
-2.5527839170536E-05,8.91493709787028E-06,2.28515625,0,0
-2.79770556517178E-05,1.14667955131154E-05,2.28515625,0,0
-2.75608417723561E-05,1.26218892546603E-05,2.28515625,0,0
-2.82959590549581E-05,1.45142130349996E-05,2.28515625,0,0
-2.65086855506524E-05,1.38791565404972E-05,2.28515625,0,0
-2.69317351921927E-05,1.30049329527537E-05,2.28515625,0,0
-2.6368630642537E-05,1.1872021786985E-05,2.28515625,0,0
-2.68547410087194E-05,1.26680097309873E-05,2.28515625,0,0
-2.60582892224193E-05,1.36574117277632E-05,2.28515625,0,0
-2.60117358266143E-05,1.44593605000409E-05,2.28515625,0,0
-2.51576511800522E-05,1.41841956065036E-05,2.28515625,0,0
-2.32073216466233E-05,1.28163073895848E-05,2.28515625,0,0
-1.74510860233568E-05,8.59152169141453E-06,2.28515625,0,0
-2.48780688707484E-05,1.21787770694937E-05,2.28515625,0,0
-1.88384783541551E-05,1.03152151496033E-05,2.28515625,0,0
-2.17929100472247E-05,1.42799926834414E-05,2.28515625,0,0
-1.62438755069161E-05,1.33874618768459E-05,2.28515625,0,0
-1.85000317287631E-05,1.42470034916187E-05,2.28515625,0,0
-1.7444866898586E-05,1.42806329677114E-05,2.28515625,0,0
-1.86621564353118E-05,1.81714767677477E-05,2.28515625,0,0
-1.85585195140447E-05,2.07576613320271E-05,2.28515625,0,0
-1.93829782801913E-05,2.27573000302073E-05,2.28515625,0,0
-2.02064456971129E-05,2.40602057601791E-05,2.28515625,0,0
-1.95701813936466E-05,2.36859032156644E-05,2.28515625,0,0
-1.92782972590066E-05,2.27692635235144E-05,2.28515625,0,0
-1.73705157067161E-05,2.12113518500701E-05,2.28515625,0,0
-1.86883917194791E-05,2.09373556572245E-05,2.28515625,0,0
-1.85656208486762E-05,1.91450089914724E-05,2.28515625,0,0
-1.9569421056076E-05,1.76854537130566E-05,2.28515625,0,0
-1.90349073818652E-05,1.36113822009065E-05,2.28515625,0,0
-1.98971301870188E-05,7.67500296205981E-06,2.28515625,0,0
-1.78877635335084E-05,3.87237236054716E-07,2.28515625,0,0
-1.79177077370696E-05,-2.43659951593145E-06,2.28515625,0,0
-1.86792913154932E-05,-1.11110523448588E-06,2.28515625,0,0
-2.17113956750836E-05,4.12139615946217E-06,2.28515625,0,0
-2.42005462496309E-05,9.04524040379329E-06,2.28515625,0,0
-2.45599712798139E-05,1.05112849269062E-05,2.28515625,0,0
-2.26884676521877E-05,8.90764658834087E-06,2.28515625,0,0
-2.11077131098136E-05,6.18719695921754E-06,2.28515625,0,0
-1.62132728291908E-05,3.96830500903889E-06,2.28515625,0,0
-2.23590523091843E-05,6.38087885818095E-06,2.28515625,0,0
-1.59756073117023E-05,4.93585230287863E-06,2.28515625,0,0
-1.92928782780655E-05,5.44963359061512E-06,2.28515625,0,0
-1.53829369082814E-05,7.12287783244392E-06,2.28515625,0,0
-1.79342841875041E-05,1.0087777809531E-05,2.28515625,0,0
-1.67131911439355E-05,1.01903769973433E-05,2.28515625,0,0
-1.84488599188626E-05,1.02808289739187E-05,2.28515625,0,0
-1.90346599993063E-05,1.11042581920628E-05,2.28515625,0,0
-2.08181227208115E-05,1.18825628305785E-05,2.28515625,0,0
-2.25651456275955E-05,1.0375139027019E-05,2.28515625,0,0
-2.34261897276156E-05,7.73072770243743E-06,2.28515625,0,0
-2.52085010288283E-05,6.11884888712666E-06,2.28515625,0,0
-2.43786525970791E-05,4.11575092584826E-06,2.28515625,0,0
-2.48805154114962E-05,2.12301279134408E-06,2.28515625,0,0
-2.39646578847896E-05,1.0316285852241E-06,2.28515625,0,0
-2.45287319557974E-05,3.37026926899853E-06,2.28515625,0,0
-2.31544818234397E-05,7.19187028153101E-06,2.28515625,0,0
-2.44264665525407E-05,1.04415912574041E-05,2.28515625,0,0
-2.49586482823361E-05,1.17722129289177E-05,2.28515625,0,0
-2.62975590885617E-05,1.16456712930813E-05,2.28515625,0,0
-2.5759412892512E-05,1.01914683909854E-05,2.28515625,0,0
-2.61664881691104E-05,1.0623016351019E-05,2.28515625,0,0
-2.63686251855688E-05,1.33385401568376E-05,2.28515625,0,0
-2.61206369032152E-05,1.52532802530914E-05,2.28515625,0,0
-2.44171806116356E-05,1.51561080201645E-05,2.28515625,0,0
-2.42330006585689E-05,1.52051570694312E-05,2.28515625,0,0
-2.20675156015204E-05,1.16860692287446E-05,2.28515625,0,0
-3.18605634674896E-05,1.62717278726632E-05,2.28515625,0,0
-2.22697090066504E-05,1.18338120955741E-05,2.28515625,0,0
-2.4064554963843E-05,1.46215343193035E-05,2.28515625,0,0
-1.87011937669013E-05,1.21105840662494E-05,2.28515625,0,0
-2.21375903493026E-05,1.42868229886517E-05,2.28515625,0,0
-2.02626724785659E-05,1.23434510896914E-05,2.28515625,0,0
-2.11096321436344E-05,1.17148729259497E-05,2.28515625,0,0
-2.00957110791933E-05,1.04799146356527E-05,2.28515625,0,0
-2.06336972041754E-05,1.09241764221224E-05,2.28515625,0,0
-2.13298735616263E-05,1.10717655843473E-05,2.28515625,0,0
-2.05071173695615E-05,9.73173973761732E-06,2.28515625,0,0
-2.15918680623872E-05,1.01719979284098E-05,2.28515625,0,0
-2.12407558137784E-05,1.00535526144085E-05,2.28515625,0,0
-2.30300065595657E-05,1.08422136690933E-05,2.28515625,0,0
-2.26694992306875E-05,9.8977834568359E-06,2.28515625,0,0
-2.40241133724339E-05,9.95685695670545E-06,2.28515625,0,0
-2.2592999812332E-05,8.64670255396049E-06,2.28515625,0,0
-2.2960213755141E-05,8.51385811984073E-06,2.28515625,0,0
-2.15421732718823E-05,7.194814770628E-06,2.28515625,0,0
-2.26910033234162E-05,7.43178907214315E-06,2.28515625,0,0
-2.19602879951708E-05,7.22141658116016E-06,2.28515625,0,0
-2.02757692022715E-05,6.77307616570033E-06,2.28515625,0,0
-1.71121337189106E-05,6.37542689219117E-06,2.28515625,0,0
-1.79148591996636E-05,6.54330960969673E-06,2.28515625,0,0
-2.1091203961987E-05,5.32129342900589E-06,2.28515625,0,0
-2.29451925406465E-05,4.93224160891259E-06,2.28515625,0,0
-1.81228624569485E-05,4.78928222946706E-06,2.28515625,0,0
-2.532828693802E-05,8.85412282514153E-06,2.28515625,0,0
-1.93104715435766E-05,8.61702756083105E-06,2.28515625,0,0
-2.51816909440095E-05,8.51839467941318E-06,2.28515625,0,0
-2.26542269956553E-05,7.41923167879577E-06,2.28515625,0,0
-2.57822757703252E-05,8.0700037869974E-06,2.28515625,0,0
-2.43479917116929E-05,8.59618467075052E-06,2.28515625,0,0
-2.64246937149437E-05,8.90505634743022E-06,2.28515625,0,0
-2.63183210336138E-05,7.36988158678287E-06,2.28515625,0,0
-2.65408798441058E-05,7.25589825378847E-06,2.28515625,0,0
-2.66692495642928E-05,8.03938746685162E-06,2.28515625,0,0
-2.58143372775521E-05,9.38568246056093E-06,2.28515625,0,0
-2.68602034338983E-05,1.12904453999363E-05,2.28515625,0,0
-2.64772152149817E-05,1.2015737411275E-05,2.28515625,0,0
-2.79314535873709E-05,1.21363900689175E-05,2.28515625,0,0
-2.65929957095068E-05,1.06618163044914E-05,2.28515625,0,0
-2.65510516328504E-05,9.10592007130617E-06,2.28515625,0,0
-2.44484181166627E-05,8.08290678833146E-06,2.28515625,0,0
-2.4053597371676E-05,9.75144575932063E-06,2.28515625,0,0
-2.27611126319971E-05,1.21056764328387E-05,2.28515625,0,0
-2.46546060225228E-05,1.38829309435096E-05,2.28515625,0,0
-2.58460568147711E-05,1.3364226106205E-05,2.28515625,0,0
-2.6492447432247E-05,1.04590453702258E-05,2.28515625,0,0
-2.54458300332772E-05,7.53512222217978E-06,2.28515625,0,0
-2.55899631156353E-05,6.68305301587679E-06,2.28515625,0,0
-2.46656600211281E-05,7.39494453227962E-06,2.28515625,0,0
-2.37406820815522E-05,7.96848598838551E-06,2.28515625,0,0
-1.94736658158945E-05,6.26406563242199E-06,2.28515625,0,0
-2.75366292044055E-05,1.00847173598595E-05,2.28515625,0,0
-2.11575661523966E-05,9.00828490557615E-06,2.28515625,0,0
-2.61110417341115E-05,1.091286958399E-05,2.28515625,0,0
-2.25890271394746E-05,1.10279943328351E-05,2.28515625,0,0
-2.70392920356244E-05,1.23664276543423E-05,2.28515625,0,0
-2.60451524809469E-05,1.11834269773681E-05,2.28515625,0,0
-2.76935552392388E-05,1.09821694422862E-05,2.28515625,0,0
-2.70880136667984E-05,1.16314176921151E-05,2.28515625,0,0
-2.84192992694443E-05,1.36183180075022E-05,2.28515625,0,0
-3.01871532428777E-05,1.46405227496871E-05,2.28515625,0,0
-2.98242357530398E-05,1.5279298168025E-05,2.28515625,0,0
-3.08283706544898E-05,1.57427366502816E-05,2.28515625,0,0
-3.0606326617999E-05,1.45907742989948E-05,2.28515625,0,0
-3.15488869091496E-05,1.34816891659284E-05,2.28515625,0,0
-2.82174605672481E-05,1.25562301036553E-05,2.28515625,0,0
-2.72452416538727E-05,1.31786955535063E-05,2.28515625,0,0
-2.60651067947038E-05,1.25463093354483E-05,2.28515625,0,0
-2.66504230239661E-05,1.1446699318185E-05,2.28515625,0,0
-2.40278168348596E-05,1.03306410892401E-05,2.28515625,0,0
-2.46906784013845E-05,1.02652893474442E-05,2.28515625,0,0
-2.5752935471246E-05,9.64765695243841E-06,2.28515625,0,0
-2.58425789070316E-05,1.04948121588677E-05,2.28515625,0,0
-2.24459254241083E-05,1.12191219159286E-05,2.28515625,0,0
-1.97197296074592E-05,1.1673600965878E-05,2.28515625,0,0
-1.92930365301436E-05,1.2519271876954E-05,2.28515625,0,0
-2.13517032534583E-05,1.36751741592889E-05,2.28515625,0,0
-1.975912891794E-05,1.2246472579136E-05,2.28515625,0,0
-3.01453583233524E-05,1.76845296664396E-05,2.28515625,0,0
-2.69892698270269E-05,1.18804728117539E-05,2.28515625,0,0
-3.36206612701062E-05,1.21187122203992E-05,2.28515625,0,0
-3.02482021652395E-05,8.41879409563262E-06,2.28515625,0,0
-3.305728387204E-05,1.1385059224267E-05,2.28515625,0,0
-2.96189064101782E-05,1.34805677589611E-05,2.28515625,0,0
-2.89190084004076E-05,1.55923644342693E-05,2.28515625,0,0
-2.7489897547639E-05,1.38420482471702E-05,2.28515625,0,0
-2.76443497568835E-05,1.32869645312894E-05,2.28515625,0,0
-2.7769710868597E-05,1.52497841554577E-05,2.28515625,0,0
-2.52604131674161E-05,1.6993628378259E-05,2.28515625,0,0
-2.39813762163976E-05,1.78445152414497E-05,2.28515625,0,0
-2.30665573326405E-05,1.66103036463028E-05,2.28515625,0,0
-2.44517941609956E-05,1.69360264408169E-05,2.28515625,0,0
-2.27201144298306E-05,1.65408418979496E-05,2.28515625,0,0
-2.37650601775385E-05,1.76827306859195E-05,2.28515625,0,0
-2.36345131270355E-05,1.70371095009614E-05,2.28515625,0,0
-2.50062676059315E-05,1.62985688803019E-05,2.28515625,0,0
-2.34346007346176E-05,1.32747818497592E-05,2.28515625,0,0
-2.31382000492886E-05,1.03821394077386E-05,2.28515625,0,0
-2.25467447307892E-05,8.00554971647216E-06,2.28515625,0,0
-2.37348522205139E-05,1.02282401712728E-05,2.28515625,0,0
-2.40251738432562E-05,1.48773333421559E-05,2.28515625,0,0
-2.3219981812872E-05,1.75124041561503E-05,2.28515625,0,0
-2.09012396226171E-05,1.57256272359518E-05,2.28515625,0,0
-1.95078282558825E-05,1.32554096126114E-05,2.28515625,0,0
-1.5813533536857E-05,1.18629859571229E-05,2.28515625,0,0
-2.25583953579189E-05,1.9314877135912E-05,2.28515625,0,0
-1.71938281710027E-05,1.69844188349089E-05,2.28515625,0,0
-2.23299794015475E-05,1.89449128811248E-05,2.28515625,0,0
-2.12339091376634E-05,1.60269155458082E-05,2.28515625,0,0
-2.48800915869651E-05,1.71536230482161E-05,2.28515625,0,0
-2.46494655584684E-05,1.72361214936245E-05,2.28515625,0,0
-2.65705839410657E-05,1.78055324795423E-05,2.28515625,0,0
-2.72841371042887E-05,1.51048870975501E-05,2.28515625,0,0
-2.86733738903422E-05,1.15425700641936E-05,2.28515625,0,0
-2.94802794087445E-05,8.04374212748371E-06,2.28515625,0,0
-2.86021986539708E-05,6.49872526992112E-06,2.28515625,0,0
-2.81031716440339E-05,8.90020237420686E-06,2.28515625,0,0
-2.62776211457094E-05,1.10028868220979E-05,2.28515625,0,0
-2.64771297224797E-05,1.14740332719521E-05,2.28515625,0,0
-2.50059893005528E-05,8.62840443005553E-06,2.28515625,0,0
-2.4231387214968E-05,7.7289168984862E-06,2.28515625,0,0
-2.1199812181294E-05,6.66349660605192E-06,2.28515625,0,0
-2.12247832678258E-05,6.22663719695993E-06,2.28515625,0,0
-2.22971666516969E-05,5.14947168994695E-06,2.28515625,0,0
-2.46521649387432E-05,5.70540896660532E-06,2.28515625,0,0
-2.52535937761422E-05,4.9562031563255E-06,2.28515625,0,0
-2.69784559350228E-05,4.48523360319086E-06,2.28515625,0,0
-2.87782168015838E-05,5.84167219130904E-06,2.28515625,0,0
-3.10141476802528E-05,7.5090706559422E-06,2.28515625,0,0
-3.10766299662646E-05,7.76085016696015E-06,2.28515625,0,0
-3.03995602735085E-05,9.74800605035853E-06,2.28515625,0,0
-2.57258616329636E-05,9.4035694928607E-06,2.28515625,0,0
-3.77625256078318E-05,1.28165520436596E-05,2.28515625,0,0
-2.99695402645739E-05,8.66426307766233E-06,2.28515625,0,0
-3.6613448173739E-05,9.71121880866122E-06,2.28515625,0,0
-3.18262536893599E-05,6.93087122272118E-06,2.28515625,0,0
-3.55143019987736E-05,9.68404037848813E-06,2.28515625,0,0
-3.26612971548457E-05,1.04548835224705E-05,2.28515625,0,0
-3.44320105796214E-05,1.05444969449309E-05,2.28515625,0,0
-3.39063517458271E-05,8.80050811247202E-06,2.28515625,0,0
-3.37785277224611E-05,8.45122394821374E-06,2.28515625,0,0
-3.4569478884805E-05,8.51390541356523E-06,2.28515625,0,0
-3.3887703466462E-05,7.86590771895135E-06,2.28515625,0,0
-3.27191264659632E-05,7.81861217546975E-06,2.28515625,0,0
-2.75658931059297E-05,6.10824827163015E-06,2.28515625,0,0
-2.54179485636996E-05,4.97116252518026E-06,2.28515625,0,0
-2.12284994631773E-05,3.42101452588395E-06,2.28515625,0,0
-1.95196880667936E-05,3.79191124011413E-06,2.28515625,0,0
-1.65264518727781E-05,3.68804057870875E-06,2.28515625,0,0
-1.79073085746495E-05,4.46548574473127E-06,2.28515625,0,0
-1.67798116308404E-05,4.48066975877737E-06,2.28515625,0,0
-1.75596906046849E-05,5.97677990299417E-06,2.28515625,0,0
-1.76604589796625E-05,6.87258807374747E-06,2.28515625,0,0
-1.88578796951333E-05,8.56972201290773E-06,2.28515625,0,0
-1.80451133928727E-05,9.77293620962882E-06,2.28515625,0,0
-1.64831872098148E-05,8.93157903192332E-06,2.28515625,0,0
-1.43961997309816E-05,7.9486808317597E-06,2.28515625,0,0
-1.54470762936398E-05,9.90281569102081E-06,2.28515625,0,0
-1.57022877829149E-05,1.13121732283616E-05,2.28515625,0,0
-2.43113881879253E-05,1.61780408234335E-05,2.28515625,0,0
-1.96826749743195E-05,1.01723489933647E-05,2.28515625,0,0
-2.05887845368125E-05,1.05151593743358E-05,2.28515625,0,0
-1.70196599356132E-05,8.53941583045525E-06,2.28515625,0,0
-2.11445076274686E-05,1.13461319415364E-05,2.28515625,0,0
-2.14849405892892E-05,1.14863523776876E-05,2.28515625,0,0
-2.28234548558248E-05,1.21800585475285E-05,2.28515625,0,0
-2.23741990339477E-05,1.17555127872038E-05,2.28515625,0,0
-2.27126329264138E-05,1.14194635898457E-05,2.28515625,0,0
-2.33694954658858E-05,1.10251539808814E-05,2.28515625,0,0
-2.31266476475867E-05,9.96252765617101E-06,2.28515625,0,0
-2.3167329345597E-05,1.02014728327049E-05,2.28515625,0,0
-2.0890087398584E-05,1.04684650068521E-05,2.28515625,0,0
-2.02735209313687E-05,1.20079794214689E-05,2.28515625,0,0
-1.78945629158989E-05,1.20864642667584E-05,2.28515625,0,0
-1.64676675922237E-05,1.2184494153189E-05,2.28515625,0,0
-1.36749904413591E-05,9.46614545682678E-06,2.28515625,0,0
-1.31584665723494E-05,7.45059560358641E-06,2.28515625,0,0
-1.23010331662954E-05,5.96073641645489E-06,2.28515625,0,0
-1.35522905111429E-05,5.65022901355405E-06,2.28515625,0,0
-1.40410793392221E-05,4.761370291817E-06,2.28515625,0,0
-1.39709081850015E-05,5.29567932971986E-06,2.28515625,0,0
-1.31550532387337E-05,6.01176270720316E-06,2.28515625,0,0
-1.37148253998021E-05,6.47356546323863E-06,2.28515625,0,0
-1.43599509101477E-05,7.31383624952286E-06,2.28515625,0,0
-1.52027459989768E-05,8.46234615892172E-06,2.28515625,0,0
-1.15869024739368E-05,7.10494396116701E-06,2.28515625,0,0
-1.63050535775255E-05,1.00369461506489E-05,2.28515625,0,0
-1.3241608030512E-05,7.56861209083581E-06,2.28515625,0,0
-1.70098828675691E-05,8.4822922872263E-06,2.28515625,0,0
-1.45291514854762E-05,4.47227102995384E-06,2.28515625,0,0
-1.68243332154816E-05,3.4898471312772E-06,2.28515625,0,0
-1.59401151904603E-05,2.43875979322183E-06,2.28515625,0,0
-1.70073108165525E-05,2.18400828089216E-06,2.28515625,0,0
-1.70918738149339E-05,2.10171265280223E-06,2.28515625,0,0
-1.7686135834083E-05,4.06754134019138E-06,2.28515625,0,0
-1.90066421055235E-05,6.84961014485452E-06,2.28515625,0,0
-2.02993742277613E-05,7.64910328143742E-06,2.28515625,0,0
-2.32470938499318E-05,8.82316999195609E-06,2.28515625,0,0
-2.49580898525892E-05,1.06586694528232E-05,2.28515625,0,0
-2.66682982328348E-05,1.34624442580389E-05,2.28515625,0,0
-2.67052455455996E-05,1.43008246595855E-05,2.28515625,0,0
-2.8989701604587E-05,1.52235525092692E-05,2.28515625,0,0
-2.97212482109899E-05,1.62263804668328E-05,2.28515625,0,0
-3.07613663608208E-05,1.78055379365105E-05,2.28515625,0,0
-3.07958543999121E-05,1.84240707312711E-05,2.28515625,0,0
-3.15293691528495E-05,2.040212166321E-05,2.28515625,0,0
-3.05884386762045E-05,2.12570103030885E-05,2.28515625,0,0
-3.0113258617348E-05,2.07096745725721E-05,2.28515625,0,0
-2.91338692477439E-05,1.88731555681443E-05,2.28515625,0,0
-2.92169461317826E-05,1.63018739840481E-05,2.28515625,0,0
-3.17653721140232E-05,1.45896810863633E-05,2.28515625,0,0
-3.3168114896398E-05,1.26665017887717E-05,2.28515625,0,0
-2.58377858699532E-05,9.66398056334583E-06,2.28515625,0,0
-3.67986904166173E-05,1.37410579554853E-05,2.28515625,0,0
-3.0396713555092E-05,1.04711589301587E-05,2.28515625,0,0
-4.01944998884574E-05,1.30341195472283E-05,2.28515625,0,0
-3.50110167346429E-05,9.92075183603447E-06,2.28515625,0,0
-3.76552052330226E-05,1.02166004580795E-05,2.28515625,0,0
-3.40935876010917E-05,9.57263546297327E-06,2.28515625,0,0
-3.64553525287192E-05,1.05743883977993E-05,2.28515625,0,0
-3.59442165063228E-05,1.00562983789132E-05,2.28515625,0,0
-3.56407654180657E-05,8.44956775836181E-06,2.28515625,0,0
-3.49233559973072E-05,6.77732214171556E-06,2.28515625,0,0
-3.31694063788746E-05,5.60210219191504E-06,2.28515625,0,0
-3.36990524374414E-05,7.22230470273644E-06,2.28515625,0,0
-3.25526161759626E-05,1.00152574304957E-05,2.28515625,0,0
-3.47978384525049E-05,1.33230450956034E-05,2.28515625,0,0
-3.3817210351117E-05,1.30776561491075E-05,2.28515625,0,0
-3.48676039720885E-05,1.28868505271384E-05,2.28515625,0,0
-3.21043662552256E-05,1.32407039927784E-05,2.28515625,0,0
-3.20046201522928E-05,1.42147282531369E-05,2.28515625,0,0
-3.00236824841704E-05,1.3670523003384E-05,2.28515625,0,0
-3.02718399325386E-05,1.58827169798315E-05,2.28515625,0,0
-2.82676501228707E-05,1.79062317329226E-05,2.28515625,0,0
-2.81200154859107E-05,1.85675653483486E-05,2.28515625,0,0
-2.7267564291833E-05,1.77125675691059E-05,2.28515625,0,0
-2.69600313913543E-05,1.66539812198607E-05,2.28515625,0,0
-2.59013741015224E-05,1.59608280227985E-05,2.28515625,0,0
-2.58976160694147E-05,1.56184687511995E-05,2.28515625,0,0
-2.14008268812904E-05,1.29292802739656E-05,2.28515625,0,0
-2.93029588647187E-05,1.8650978745427E-05,2.28515625,0,0
-1.96314558706945E-05,1.56553505803458E-05,2.28515625,0,0
-2.3850358047639E-05,2.12078575714258E-05,2.28515625,0,0
-1.97697681869613E-05,1.83189786184812E-05,2.28515625,0,0
-2.31625435844762E-05,1.7105441656895E-05,2.28515625,0,0
-2.12868035305291E-05,1.27885423353291E-05,2.28515625,0,0
-2.27102482313057E-05,1.14113727249787E-05,2.28515625,0,0
-2.21830196096562E-05,9.95497248368338E-06,2.28515625,0,0
-2.22277194552589E-05,1.04273385659326E-05,2.28515625,0,0
-2.2602362150792E-05,1.21218963613501E-05,2.28515625,0,0
-2.14259343920276E-05,1.21484827104723E-05,2.28515625,0,0
-2.18079312617192E-05,1.12525221993565E-05,2.28515625,0,0
-2.07667144422885E-05,1.01144032669254E-05,2.28515625,0,0
-2.20260808418971E-05,1.21567791211419E-05,2.28515625,0,0
-2.1490601284313E-05,1.31107144625275E-05,2.28515625,0,0
-2.36835057876306E-05,1.41732871270506E-05,2.28515625,0,0
-2.30910882237367E-05,1.31280175992288E-05,2.28515625,0,0
-2.33282171393512E-05,1.32766153910779E-05,2.28515625,0,0
-2.15008294617292E-05,1.21814337035175E-05,2.28515625,0,0
-2.24202904064441E-05,1.21150214908994E-05,2.28515625,0,0
-2.22376020246884E-05,1.15773127618013E-05,2.28515625,0,0
-2.22421676880913E-05,1.30257667478872E-05,2.28515625,0,0
-2.13921011891216E-05,1.53337568917777E-05,2.28515625,0,0
-2.11367714655353E-05,1.86158522410551E-05,2.28515625,0,0
-2.03220643015811E-05,2.04798234335613E-05,2.28515625,0,0
-1.89144120668061E-05,2.00074719032273E-05,2.28515625,0,0
-1.29655045384425E-05,1.37485521918279E-05,2.28515625,0,0
-1.73018179339124E-05,1.92866482393583E-05,2.28515625,0,0
-1.40312868097681E-05,1.28630153994891E-05,2.28515625,0,0
-1.99368496396346E-05,1.37332954182057E-05,2.28515625,0,0
-1.68785427376861E-05,9.90257831290364E-06,2.28515625,0,0
-1.83075644599739E-05,1.07621635834221E-05,2.28515625,0,0
-1.74957094714046E-05,6.97766972734826E-06,2.28515625,0,0
-1.86160359589849E-05,5.56468194190529E-06,2.28515625,0,0
-1.83713855221868E-05,3.54115286427259E-06,2.28515625,0,0
-1.89666279766243E-05,5.20524781677523E-06,2.28515625,0,0
-2.06903041544138E-05,8.83018492459087E-06,2.28515625,0,0
-2.17621345655061E-05,1.18291673061321E-05,2.28515625,0,0
-2.24715640797513E-05,1.40711499625468E-05,2.28515625,0,0
-2.20666861423524E-05,1.32812710944563E-05,2.28515625,0,0
-2.34855488088215E-05,1.32625218611793E-05,2.28515625,0,0
-2.25320236495463E-05,1.15131388156442E-05,2.28515625,0,0
-2.19516605284298E-05,1.17621448225691E-05,2.28515625,0,0
-1.9313556549605E-05,1.11865319922799E-05,2.28515625,0,0
-1.79621602001134E-05,1.148294450104E-05,2.28515625,0,0
-1.59213195729535E-05,9.39109486353118E-06,2.28515625,0,0
-1.55841007654089E-05,8.98248708836036E-06,2.28515625,0,0
-1.51145313793677E-05,9.48228534980444E-06,2.28515625,0,0
-1.61172793013975E-05,1.24268563013175E-05,2.28515625,0,0
-1.69424820342101E-05,1.39496969495667E-05,2.28515625,0,0
-1.78546197275864E-05,1.39488411150523E-05,2.28515625,0,0
-1.74726665136404E-05,1.30008756968891E-05,2.28515625,0,0
-1.75570257852087E-05,1.26856475617387E-05,2.28515625,0,0
-1.62183641805314E-05,9.53924882196588E-06,2.28515625,0,0
-2.43245267483871E-05,1.20908871394931E-05,2.28515625,0,0
-1.93534306163201E-05,7.97982374933781E-06,2.28515625,0,0
-2.31352059927303E-05,1.10608489194419E-05,2.28515625,0,0
-2.1659065168933E-05,7.61049250286305E-06,2.28515625,0,0
-2.62262710748473E-05,6.54052928439341E-06,2.28515625,0,0
-2.57421615970088E-05,4.28920566264424E-06,2.28515625,0,0
-2.5810672013904E-05,5.58283772988943E-06,2.28515625,0,0
-2.42842415900668E-05,6.44456395093584E-06,2.28515625,0,0
-2.37389031099156E-05,5.28908594787936E-06,2.28515625,0,0
-2.35185889323475E-05,1.3011027704124E-06,2.28515625,0,0
-2.30916739383247E-05,-4.42745340478723E-06,2.28515625,0,0
-2.48980122705689E-05,-7.76777324063005E-06,2.28515625,0,0
-2.48618416662794E-05,-7.72715247876477E-06,2.28515625,0,0
-2.47502302954672E-05,-3.07530854115612E-06,2.28515625,0,0
-2.23827282752609E-05,1.73368175637734E-06,2.28515625,0,0
-2.28191365749808E-05,6.69654218654614E-06,2.28515625,0,0
-2.19824232772226E-05,8.30202225188259E-06,2.28515625,0,0
-2.16854841710301E-05,8.90378032636363E-06,2.28515625,0,0
-2.02300379896769E-05,8.30586122901877E-06,2.28515625,0,0
-2.15507061511744E-05,9.73765691014705E-06,2.28515625,0,0
-2.28942863031989E-05,1.21763123388519E-05,2.28515625,0,0
-2.42058958974667E-05,1.38870200316887E-05,2.28515625,0,0
-2.36993491853355E-05,1.06721290649148E-05,2.28515625,0,0
-2.39377204707125E-05,6.50680931357783E-06,2.28515625,0,0
-2.40226727328263E-05,5.57228759134887E-06,2.28515625,0,0
-2.30615078180563E-05,8.46640250529163E-06,2.28515625,0,0
-1.93352734640939E-05,9.95208665699465E-06,2.28515625,0,0
-2.90542593575083E-05,1.26632976389374E-05,2.28515625,0,0
-2.32372258324176E-05,6.66183859721059E-06,2.28515625,0,0
-2.61621298704995E-05,7.1353861130774E-06,2.28515625,0,0
-2.11570877581835E-05,2.00797035176947E-06,2.28515625,0,0
-2.40599092649063E-05,-5.72903786633105E-08,2.28515625,0,0
-2.18251134356251E-05,-1.7572326669324E-06,2.28515625,0,0
-2.26902157010045E-05,1.34426397835341E-06,2.28515625,0,0
-2.27915788855171E-05,4.92471417601337E-06,2.28515625,0,0
-2.38330630963901E-05,8.75626392371487E-06,2.28515625,0,0
-2.47606767516118E-05,1.23523204820231E-05,2.28515625,0,0
-2.42350524786161E-05,1.38871155286324E-05,2.28515625,0,0
-2.45632927544648E-05,1.4929296412447E-05,2.28515625,0,0
-2.34634335356532E-05,1.42857143146102E-05,2.28515625,0,0
-2.50353205046849E-05,1.38959439937025E-05,2.28515625,0,0
-2.40259778365726E-05,1.23478121167864E-05,2.28515625,0,0
-2.430268250464E-05,1.29891277538263E-05,2.28515625,0,0
-2.26786123675993E-05,1.2089923984604E-05,2.28515625,0,0
-2.26973861572333E-05,1.09479287857539E-05,2.28515625,0,0
-2.05487740458921E-05,1.08262347566779E-05,2.28515625,0,0
-2.03697691176785E-05,1.31557471831911E-05,2.28515625,0,0
-2.05824635486351E-05,1.33080184241408E-05,2.28515625,0,0
-2.18804434553022E-05,1.21605808089953E-05,2.28515625,0,0
-2.16400258068461E-05,1.17256058729254E-05,2.28515625,0,0
-2.1832951460965E-05,1.4160776117933E-05,2.28515625,0,0
-2.22882845264394E-05,1.57442427735077E-05,2.28515625,0,0
-2.40957233472727E-05,1.53331602632534E-05,2.28515625,0,0
-2.01555631065276E-05,1.07538826341624E-05,2.28515625,0,0
-2.75824149866821E-05,1.30549024106585E-05,2.28515625,0,0
-2.04337302420754E-05,7.517511221522E-06,2.28515625,0,0
-2.74910635198466E-05,9.4252200142364E-06,2.28515625,0,0
-2.4908871637308E-05,5.61629985895706E-06,2.28515625,0,0
-2.88888859358849E-05,7.00401506037451E-06,2.28515625,0,0
-2.7926482289331E-05,6.00976591158542E-06,2.28515625,0,0
-2.99379044008674E-05,7.88011675467715E-06,2.28515625,0,0
-2.94421461148886E-05,8.53694655233994E-06,2.28515625,0,0
-2.96673679258674E-05,1.09072170744184E-05,2.28515625,0,0
-2.99435141641879E-05,1.36679964271025E-05,2.28515625,0,0
-2.88462852040539E-05,1.4539267795044E-05,2.28515625,0,0
-2.93185275950236E-05,1.55364796228241E-05,2.28515625,0,0
-2.87903349089902E-05,1.64099710673327E-05,2.28515625,0,0
-2.93453103950014E-05,2.026177571679E-05,2.28515625,0,0
-2.5880759494612E-05,2.24846426135628E-05,2.28515625,0,0
-2.53305970545625E-05,2.31422854994889E-05,2.28515625,0,0
-2.48301112151239E-05,1.9861314285663E-05,2.28515625,0,0
-2.71779426839203E-05,1.78006484929938E-05,2.28515625,0,0
-2.68856256298022E-05,1.52329448610544E-05,2.28515625,0,0
-2.83401259366656E-05,1.40078036565683E-05,2.28515625,0,0
-2.80768454103963E-05,1.29638947328203E-05,2.28515625,0,0
-2.80924268736271E-05,1.2688598872046E-05,2.28515625,0,0
-2.68338390014833E-05,9.87277144304244E-06,2.28515625,0,0
-2.57059764408041E-05,8.21352750790538E-06,2.28515625,0,0
-2.40939280047314E-05,1.04158698377432E-05,2.28515625,0,0
-2.31429112318438E-05,1.48451108543668E-05,2.28515625,0,0
-1.92100942513207E-05,1.45744315886986E-05,2.28515625,0,0
-2.76658010989195E-05,2.08295932679903E-05,2.28515625,0,0
-2.18897021113662E-05,1.52219690789934E-05,2.28515625,0,0
-2.70738419203553E-05,1.70725561474683E-05,2.28515625,0,0
-2.28292410611175E-05,1.21635748655535E-05,2.28515625,0,0
-2.5799497961998E-05,1.25972510431893E-05,2.28515625,0,0
-2.53260459430749E-05,1.01757823358639E-05,2.28515625,0,0
-2.73913410637761E-05,1.13040941869258E-05,2.28515625,0,0
-2.62589273916092E-05,1.17495674203383E-05,2.28515625,0,0
-2.49234290095046E-05,1.15810171337216E-05,2.28515625,0,0
-2.45304090640275E-05,1.05989092844538E-05,2.28515625,0,0
-2.41875604842789E-05,8.66978007252328E-06,2.28515625,0,0
-2.53041289397515E-05,6.82887139191735E-06,2.28515625,0,0
-2.57126557698939E-05,3.44625300385815E-06,2.28515625,0,0
-2.80498043139232E-05,2.96101552521577E-06,3.1640625,0,0
-2.72852848866023E-05,2.97141059490968E-06,3.1640625,0,0
-2.82067830994492E-05,5.22287564308499E-06,3.1640625,0,0
-2.7364656489226E-05,6.16811576037435E-06,3.1640625,0,0
-2.87443635897944E-05,8.54443896969315E-06,3.1640625,0,0
-2.83012977888575E-05,8.00261022959603E-06,3.1640625,0,0
-2.91146261588437E-05,7.81983544584364E-06,3.1640625,0,0
-2.87863604171434E-05,9.07718185771955E-06,3.1640625,0,0
-2.96799898933386E-05,1.38771183628705E-05,3.1640625,0,0
-3.00398169201799E-05,1.69222985277884E-05,3.1640625,0,0
-3.1945513910614E-05,1.72103518707445E-05,3.1640625,0,0
-3.33652860717848E-05,1.50634296005592E-05,3.1640625,0,0
-3.26508088619448E-05,1.27232651720988E-05,3.1640625,0,0
-2.53235157288145E-05,1.02304438769352E-05,3.1640625,0,0
-3.65196938219015E-05,1.52825923578348E-05,3.1640625,0,0
-2.90824409603374E-05,1.29863756228588E-05,3.1640625,0,0
-3.59441364707891E-05,1.56578244059347E-05,3.1640625,0,0
-3.02897897199728E-05,1.22601013572421E-05,3.1640625,0,0
-3.36175507982261E-05,1.25939777717576E-05,3.1640625,0,0
-3.11500989482738E-05,1.28629426399129E-05,3.1640625,0,0
-3.30335096805356E-05,1.68825554283103E-05,3.1640625,0,0
-3.11779440380633E-05,1.95645279745804E-05,3.1640625,0,0
-2.92156073555816E-05,2.049897921097E-05,3.1640625,0,0
-2.72525194304762E-05,2.10748985409737E-05,3.1640625,0,0
-2.46203890128527E-05,2.05194446607493E-05,3.1640625,0,0
-2.49322256422602E-05,1.98860925593181E-05,3.1640625,0,0
-2.38108605117304E-05,1.78735299414257E-05,3.1640625,0,0
-2.51115943683544E-05,1.76693265530048E-05,3.1640625,0,0
-2.32532966037979E-05,1.70225976034999E-05,3.1640625,0,0
-2.48991782427765E-05,1.69814320543082E-05,3.1640625,0,0
-2.45208684646059E-05,1.43521365316701E-05,3.1640625,0,0
-2.55331615335308E-05,1.182313553727E-05,3.1640625,0,0
-2.21585378312739E-05,1.02632629932486E-05,3.1640625,0,0
-2.08826822927222E-05,1.17523932203767E-05,3.1640625,0,0
-1.85631834028754E-05,1.42641156344325E-05,3.1640625,0,0
-1.79377711901907E-05,1.76249031937914E-05,3.1640625,0,0
-1.68621409102343E-05,1.85439457709435E-05,3.1640625,0,0
-1.70806488313247E-05,1.77105539478362E-05,3.1640625,0,0
-1.78449554368854E-05,1.61507196025923E-05,3.1640625,0,0
-1.82996573130367E-05,1.54612971527968E-05,3.1640625,0,0
-1.50145260704448E-05,1.27894109027693E-05,3.1640625,0,0
-2.20372221519938E-05,1.79364014911698E-05,3.1640625,0,0
-1.79129256139277E-05,1.2840258932556E-05,3.1640625,0,0
-2.19326502701733E-05,1.48085619002813E-05,3.1640625,0,0
-1.88563881238224E-05,9.00093255040701E-06,3.1640625,0,0
-1.96851306100143E-05,8.12943380879005E-06,3.1640625,0,0
-1.69856630236609E-05,7.34722289053025E-06,3.1640625,0,0
-1.78088776010554E-05,9.79188735072967E-06,3.1640625,0,0
-1.83076645043911E-05,1.02783460533828E-05,3.1640625,0,0
-1.87740515684709E-05,1.00864399428247E-05,3.1640625,0,0
-1.78237514774082E-05,8.90274168341421E-06,3.1640625,0,0
-1.60874460561899E-05,6.58512999507366E-06,3.1640625,0,0
-1.65953370014904E-05,5.90756326346309E-06,3.1640625,0,0
-1.68673195730662E-05,6.14333248449839E-06,3.1640625,0,0
-1.88456342584686E-05,8.42623012431432E-06,3.1640625,0,0
-1.80682363861706E-05,7.53560880184523E-06,3.1640625,0,0
-1.79603139258688E-05,6.18536387264612E-06,3.1640625,0,0
-1.75005516211968E-05,4.59335160485352E-06,3.1640625,0,0
-2.0170349671389E-05,6.49416369924438E-06,3.1640625,0,0
-2.17571141547523E-05,7.63008392823394E-06,3.1640625,0,0
-2.42716178036062E-05,8.41076689539477E-06,3.1640625,0,0
-2.56083112617489E-05,7.62224499339936E-06,3.1640625,0,0
-2.65797389147338E-05,7.52534424464102E-06,3.1640625,0,0
-2.64363807218615E-05,6.72898841003189E-06,3.1640625,0,0
-2.7358481020201E-05,5.31598061570548E-06,3.1640625,0,0
-2.87213624687865E-05,3.13188979816914E-06,3.1640625,0,0
-3.01454911095789E-05,3.04986451737932E-06,3.1640625,0,0
-2.35382758546621E-05,4.25578491558554E-06,3.1640625,0,0
-3.19160280923825E-05,6.35660171610652E-06,3.1640625,0,0
-2.06780423468445E-05,5.68844825465931E-06,3.1640625,0,0
-2.47483494604239E-05,8.68002280185465E-06,3.1640625,0,0
-1.88420472113648E-05,9.98903215077007E-06,3.1640625,0,0
-2.30535079026595E-05,1.06542456705938E-05,3.1640625,0,0
-2.29654870054219E-05,1.0913076948782E-05,3.1640625,0,0
-2.50656885327771E-05,1.26691738842055E-05,3.1640625,0,0
-2.28222543228185E-05,1.3205036339059E-05,3.1640625,0,0
-2.17561591853155E-05,1.09186794361449E-05,3.1640625,0,0
-2.19558260141639E-05,7.89426303526852E-06,3.1640625,0,0
-2.18494351429399E-05,8.19018350739498E-06,3.1640625,0,0
-2.38679895119276E-05,1.05553235698608E-05,3.1640625,0,0
-2.29000306717353E-05,1.00372944871197E-05,3.1640625,0,0
-2.31945978157455E-05,9.2367463366827E-06,3.1640625,0,0
-1.96850942302262E-05,1.02855465229368E-05,3.1640625,0,0
-1.84260006790282E-05,1.2502260688052E-05,3.1640625,0,0
-1.57076719915494E-05,1.3166003554943E-05,3.1640625,0,0
-1.70092953339918E-05,1.46078473335365E-05,3.1640625,0,0
-1.73289008671418E-05,1.66301124409074E-05,3.1640625,0,0
-1.8888304111897E-05,1.77654073922895E-05,3.1640625,0,0
-1.77037054527318E-05,1.67983489518519E-05,3.1640625,0,0
-1.72858817677479E-05,1.53290075104451E-05,3.1640625,0,0
-1.6177051293198E-05,1.3416271940514E-05,3.1640625,0,0
-1.64950306498213E-05,1.26952763821464E-05,3.1640625,0,0
-1.79716134880437E-05,1.46890715768677E-05,3.1640625,0,0
-1.98412999452557E-05,1.52834527398227E-05,3.1640625,0,0
-1.62291889864719E-05,8.82382482814137E-06,3.1640625,0,0
-2.30014829867287E-05,1.01085624919506E-05,3.1640625,0,0
-1.77032361534657E-05,5.04399349665619E-06,3.1640625,0,0
-2.21326881728601E-05,6.70413464831654E-06,3.1640625,0,0
-1.91702056326903E-05,3.92585570807569E-06,3.1640625,0,0
-2.16469743463676E-05,7.06680157236406E-06,3.1640625,0,0
-2.04170755750965E-05,6.91789591655834E-06,3.1640625,0,0
-2.18325312744128E-05,8.01535497885197E-06,3.1640625,0,0
-2.07504526770208E-05,9.25017593544908E-06,3.1640625,0,0
-1.9570363292587E-05,1.16755300041405E-05,3.1640625,0,0
-1.86205925274407E-05,1.27088824228849E-05,3.1640625,0,0
-1.76496978383511E-05,1.14217009468121E-05,3.1640625,0,0
-1.87996956810821E-05,9.96242670225911E-06,3.1640625,0,0
-1.95294360310072E-05,9.10132257558871E-06,3.1640625,0,0
-2.26607280637836E-05,1.12952166091418E-05,3.1640625,0,0
-2.36675132327946E-05,1.17456893349299E-05,3.1640625,0,0
-2.54233691521222E-05,1.13584610517137E-05,3.1640625,0,0
-2.4418737666565E-05,9.06213244888932E-06,3.1640625,0,0
-2.46412109845551E-05,9.86198301689001E-06,3.1640625,0,0
-2.38460070249857E-05,1.29205236589769E-05,3.1640625,0,0
-2.47422940446995E-05,1.69631584867602E-05,3.1640625,0,0
-2.33227874559816E-05,1.81101077032508E-05,3.1640625,0,0
-2.09127501875628E-05,1.98700090550119E-05,3.1640625,0,0
-1.8654900486581E-05,2.03603231057059E-05,3.1640625,0,0
-1.93206451513106E-05,1.8485277905711E-05,3.1640625,0,0
-2.03222389245639E-05,1.39951516757719E-05,3.1640625,0,0
-2.13072544283932E-05,9.53309790929779E-06,3.1640625,0,0
-1.82481489900965E-05,6.82347399560967E-06,3.1640625,0,0
-2.73737241514027E-05,1.21591629067552E-05,3.1640625,0,0
-2.26256270252634E-05,1.25334636322805E-05,3.1640625,0,0
-2.71340140898246E-05,1.43977413245011E-05,3.1640625,0,0
-2.29899305850267E-05,1.22255887617939E-05,3.1640625,0,0
-2.54882979788817E-05,1.200605493068E-05,3.1640625,0,0
-2.54401365964441E-05,1.07735131678055E-05,3.1640625,0,0
-2.80779222521232E-05,8.76416197570506E-06,3.1640625,0,0
-2.79419073194731E-05,5.19313789482112E-06,3.1640625,0,0
-2.82913169940002E-05,7.43267548841686E-07,3.1640625,0,0
-2.76643550023437E-05,-3.27966927216039E-06,3.1640625,0,0
-2.54817659879336E-05,-3.82828511646949E-06,3.1640625,0,0
-2.45233441091841E-05,-3.97268280494245E-07,3.1640625,0,0
-2.31963203987107E-05,1.97854569705669E-06,3.1640625,0,0
-2.45049250224838E-05,8.89005036697199E-07,3.1640625,0,0
-2.39040655287681E-05,-3.2029158774094E-06,3.1640625,0,0
-2.52052741416264E-05,-5.42892621524516E-06,3.1640625,0,0
-2.46938980126288E-05,-6.16574743617093E-06,3.1640625,0,0
-2.53888010774972E-05,-4.39238965554978E-06,3.1640625,0,0
-2.40542030951474E-05,-9.17962097446434E-07,3.1640625,0,0
-2.46638155658729E-05,3.62609557669202E-06,3.1640625,0,0
-2.37137319345493E-05,6.16615443504998E-06,3.1640625,0,0
-2.34831113630207E-05,6.94278742230381E-06,3.1640625,0,0
-2.29908528126543E-05,8.07110427558655E-06,3.1640625,0,0
-2.38265238294844E-05,1.06074567156611E-05,3.1640625,0,0
-2.43367976509035E-05,1.0853595995286E-05,3.1640625,0,0
-2.43054146267241E-05,1.03430584204034E-05,3.1640625,0,0
-1.97421977645718E-05,1.0198004929407E-05,3.1640625,0,0
-2.85846999759087E-05,1.5051222362672E-05,3.1640625,0,0
-2.25301919272169E-05,1.25744400065742E-05,3.1640625,0,0
-2.77832623396534E-05,1.72087129612919E-05,3.1640625,0,0
-2.31206249736715E-05,1.73466305568581E-05,3.1640625,0,0
-2.52736754191574E-05,2.10713460546685E-05,3.1640625,0,0
-2.35692768910667E-05,2.15359359572176E-05,3.1640625,0,0
-2.54654787568143E-05,2.05951837415341E-05,3.1640625,0,0
-2.63803776761051E-05,1.76705143530853E-05,3.1640625,0,0
-2.82757810055045E-05,1.45090207297471E-05,3.1640625,0,0
-2.85942351183621E-05,1.24415109894471E-05,3.1640625,0,0
-2.63202982750954E-05,1.3559209946834E-05,3.1640625,0,0
-2.58326726907399E-05,1.68351270986022E-05,3.1640625,0,0
-2.44300044869306E-05,1.70378752955003E-05,3.1640625,0,0
-2.49154290941078E-05,1.5913032257231E-05,3.1640625,0,0
-2.27973723667674E-05,1.24842699733563E-05,3.1640625,0,0
-2.36323558056029E-05,1.00413262771326E-05,3.1640625,0,0
-2.42554142459994E-05,9.07824050955242E-06,3.1640625,0,0
-2.73828809440602E-05,1.20963850349654E-05,3.1640625,0,0
-2.74338744929992E-05,1.44396972245886E-05,4.74609375,0,0
-2.74199046543799E-05,1.50267378558055E-05,4.74609375,0,0
-2.61687382590026E-05,1.26506283777417E-05,4.74609375,0,0
-2.69107058556983E-05,1.07397236206452E-05,4.74609375,0,0
-2.70540240308037E-05,1.10147775558289E-05,4.74609375,0,0
-2.72810339083662E-05,1.37128236019635E-05,4.74609375,0,0
-2.59089210885577E-05,1.38955801958218E-05,4.74609375,0,0
-2.54559727181913E-05,1.05143744804082E-05,4.74609375,0,0
-2.19210905925138E-05,7.23315588402329E-06,4.74609375,0,0
-3.16800651489757E-05,1.20803442769102E-05,4.74609375,0,0
-2.41318903135834E-05,1.15177372208564E-05,4.74609375,0,0
-2.86157828668365E-05,1.50216446854756E-05,4.74609375,0,0
-2.42652276938315E-05,1.69831819221145E-05,4.74609375,0,0
-2.76667306025047E-05,1.99239839275833E-05,4.74609375,0,0
-2.42691439780174E-05,2.0188312191749E-05,4.74609375,0,0
-2.45086648646975E-05,2.12112845474621E-05,4.74609375,0,0
-2.32749407587107E-05,2.14822121051839E-05,4.74609375,0,0
-2.36215182667365E-05,2.1176418158575E-05,4.74609375,0,0
-2.49844833888346E-05,1.97370954992948E-05,4.74609375,0,0
-2.45419523707824E-05,1.71924257301725E-05,4.74609375,0,0
-2.46177387452917E-05,1.59986739163287E-05,4.74609375,0,0
-2.27531782002188E-05,1.59826031449484E-05,4.74609375,0,0
-2.34960407397011E-05,1.68984934134642E-05,4.74609375,0,0
-2.20196816371754E-05,1.62443157023517E-05,4.74609375,0,0
-2.22838170884643E-05,1.50992282215157E-05,4.74609375,0,0
-2.03436175070237E-05,1.33986413857201E-05,4.74609375,0,0
-2.147395935026E-05,1.28993106045527E-05,4.74609375,0,0
-2.14873944059946E-05,1.25706674225512E-05,4.74609375,0,0
-2.30735004151938E-05,1.41092441481305E-05,4.74609375,0,0
-2.24432642426109E-05,1.46814873005496E-05,4.74609375,0,0
-2.28028075071052E-05,1.31116930788266E-05,4.74609375,0,0
-2.25550302275224E-05,1.14467720777611E-05,4.74609375,0,0
-2.36911473621149E-05,1.1624379112618E-05,4.74609375,0,0
-2.38765533140395E-05,1.09842058009235E-05,4.74609375,0,0
-2.41990801441716E-05,9.34988565859385E-06,4.74609375,0,0
-2.22154721996048E-05,6.94228356223903E-06,4.74609375,0,0
-3.34897558786906E-05,9.34401668928331E-06,4.74609375,0,0
-2.69309184659505E-05,5.74578371015377E-06,4.74609375,0,0
-3.16575533361174E-05,8.10500478110043E-06,4.74609375,0,0
-2.78004681604216E-05,8.25915049063042E-06,4.74609375,0,0
-3.13307355099823E-05,9.79597643890884E-06,4.74609375,0,0
-2.85656242340337E-05,9.13734857022064E-06,4.74609375,0,0
-2.80925105471397E-05,1.01302466646302E-05,4.74609375,0,0
-2.61713958025211E-05,1.189759314002E-05,4.74609375,0,0
-2.67317482212093E-05,1.26581471704412E-05,4.74609375,0,0
-2.96031648758799E-05,1.18713078336441E-05,4.74609375,0,0
-3.12957417918369E-05,1.0616590770951E-05,4.74609375,0,0
-3.33139178110287E-05,1.05562003227533E-05,4.74609375,0,0
-3.15652978315484E-05,1.01726773209521E-05,4.74609375,0,0
-3.08568487525918E-05,1.0540742550802E-05,4.74609375,0,0
-2.80158728855895E-05,1.13697442429839E-05,4.74609375,0,0
-2.82610999420285E-05,1.35504633362871E-05,4.74609375,0,0
-2.67684172285954E-05,1.34220354084391E-05,4.74609375,0,0
-2.65833150479011E-05,1.24958041851642E-05,4.74609375,0,0
-2.48333399213152E-05,1.15018701762892E-05,4.74609375,0,0
-2.59345924860099E-05,1.14366002890165E-05,4.74609375,0,0
-2.64034279098269E-05,1.05594881461002E-05,4.74609375,0,0
-2.72195284196641E-05,1.00079387266305E-05,4.74609375,0,0
-2.5594608814572E-05,8.9431086962577E-06,4.74609375,0,0
-2.37527165154461E-05,8.81632604432525E-06,4.74609375,0,0
-2.19236935663503E-05,1.00408897196758E-05,4.74609375,0,0
-2.1539350200328E-05,9.94186757452553E-06,4.74609375,0,0
-1.66236768563977E-05,7.88854686106788E-06,4.74609375,0,0
-2.28081189561635E-05,1.18894440674921E-05,4.74609375,0,0
-1.64785360539099E-05,9.50080539041664E-06,4.74609375,0,0
-2.09246391023044E-05,9.94663878373103E-06,4.74609375,0,0
-1.8787854060065E-05,6.08707478022552E-06,4.74609375,0,0
-2.2921092750039E-05,5.92285232414724E-06,4.74609375,0,0
-2.12428149097832E-05,5.94176299273386E-06,4.74609375,0,0
-2.03666750167031E-05,8.8122969827964E-06,4.74609375,0,0
-1.69501236086944E-05,9.56443363975268E-06,4.74609375,0,0
-1.54146910062991E-05,7.94522384239826E-06,4.74609375,0,0
-1.55421203089645E-05,5.6207327361335E-06,4.74609375,0,0
-1.61471052706474E-05,4.70863960799761E-06,4.74609375,0,0
-1.88010326382937E-05,5.6978083193826E-06,4.74609375,0,0
-2.02367082238197E-05,5.38141193828778E-06,4.74609375,0,0
-2.19791327253915E-05,5.62797640668578E-06,4.74609375,0,0
-2.09774152608588E-05,5.71120108361356E-06,4.74609375,0,0
-2.20937199628679E-05,6.46989974484313E-06,4.74609375,0,0
-2.09791942324955E-05,5.91921025261399E-06,4.74609375,0,0
-2.13889907172415E-05,6.81533811075496E-06,4.74609375,0,0
-2.09733880183194E-05,8.27875737741124E-06,4.74609375,0,0
-2.20899783016648E-05,1.07342721094028E-05,4.74609375,0,0
-2.19873309106333E-05,1.10713672256679E-05,4.74609375,0,0
-2.30253826885019E-05,9.76988303591497E-06,4.74609375,0,0
-2.19505182030844E-05,7.63262141845189E-06,4.74609375,0,0
-2.06670410989318E-05,7.45871238905238E-06,4.74609375,0,0
-2.02627834369196E-05,1.03000093076844E-05,4.74609375,0,0
-2.12027280213078E-05,1.31640326799243E-05,4.74609375,0,0
-1.75728000613162E-05,9.38500943448162E-06,4.74609375,0,0
-2.49534368776949E-05,1.04691189335426E-05,4.74609375,0,0
-1.87830028153257E-05,5.71476630284451E-06,4.74609375,0,0
-2.30522418860346E-05,1.02185149444267E-05,4.74609375,0,0
-1.99371315829922E-05,8.44660735310754E-06,4.74609375,0,0
-2.2899470422999E-05,9.04710304894252E-06,4.74609375,0,0
-1.89599923032802E-05,6.70053032081341E-06,4.74609375,0,0
-1.68084243341582E-05,8.14950908534229E-06,4.74609375,0,0
-1.43288707477041E-05,9.34190666157519E-06,4.74609375,0,0
-1.33574758365285E-05,8.66651589603862E-06,4.74609375,0,0
-1.39401272463147E-05,7.01394492352847E-06,4.74609375,0,0
-1.37676024678512E-05,7.14882253305404E-06,4.74609375,0,0
-1.39743715408258E-05,9.90308035397902E-06,4.74609375,0,0
-1.19768010335974E-05,9.75423608906567E-06,4.74609375,0,0
-1.19048436317826E-05,8.31895249575609E-06,4.74609375,0,0
-1.05716726466198E-05,6.50587890049792E-06,4.74609375,0,0
-1.24001671792939E-05,7.13633835403016E-06,4.74609375,0,0
-1.43854394991649E-05,5.51206767340773E-06,4.74609375,0,0
-1.98131056095008E-05,4.63623746327357E-06,4.74609375,0,0
-2.35823081311537E-05,3.94311655327328E-06,4.74609375,0,0
-2.68873573077144E-05,5.56602662982186E-06,4.74609375,0,0
-2.7274474632577E-05,7.39866163712577E-06,4.74609375,0,0
-2.74958929367131E-05,9.89970794762485E-06,4.74609375,0,0
-2.68737749138381E-05,1.10400551420753E-05,4.74609375,0,0
-2.67394443653757E-05,1.06914931166102E-05,4.74609375,0,0
-2.76044356724015E-05,9.94998936221236E-06,4.74609375,0,0
-2.98149225272937E-05,1.08843669295311E-05,4.74609375,0,0
-2.51781893894076E-05,9.40072095545474E-06,4.74609375,0,0
-3.6203953641234E-05,1.30829484987771E-05,4.74609375,0,0
-2.86083868559217E-05,9.29531142901396E-06,4.74609375,0,0
-3.7010289815953E-05,1.14854492494487E-05,4.74609375,0,0
-3.30317052430473E-05,9.62118519964861E-06,4.74609375,0,0
-3.58394463546574E-05,1.24089210657985E-05,4.74609375,0,0
-3.20800754707307E-05,1.3586730347015E-05,4.74609375,0,0
-3.22566593240481E-05,1.38147943289368E-05,4.74609375,0,0
-2.89355575660011E-05,1.30418311528047E-05,4.74609375,0,0
-2.57760802924167E-05,1.34775527840247E-05,4.74609375,0,0
-2.45808441832196E-05,1.28082992887357E-05,4.74609375,0,0
-2.4970304366434E-05,1.14094655145891E-05,4.74609375,0,0
-2.68654621322639E-05,1.1687617188727E-05,4.74609375,0,0
-2.40967619902221E-05,1.11555800685892E-05,4.74609375,0,0
-2.29211254918482E-05,1.09097154563642E-05,4.74609375,0,0
-2.06201784749283E-05,1.01139703474473E-05,4.74609375,0,0
-2.31591875490267E-05,1.11913941509556E-05,4.74609375,0,0
-2.32623406191124E-05,1.15268558147363E-05,4.74609375,0,0
-2.40552362811286E-05,1.23336549222586E-05,4.74609375,0,0
-2.13600142160431E-05,1.24966109069646E-05,4.74609375,0,0
-2.03137551579857E-05,1.3485261661117E-05,4.74609375,0,0
-1.79017424670747E-05,1.37116248879465E-05,4.74609375,0,0
-1.79032067535445E-05,1.53625987877604E-05,4.74609375,0,0
-1.74881115526659E-05,1.71028968907194E-05,4.74609375,0,0
-1.81477789737983E-05,1.88154554052744E-05,4.74609375,0,0
-1.7839445717982E-05,2.10340767807793E-05,4.74609375,0,0
-1.75510831468273E-05,2.22682028834242E-05,4.74609375,0,0
-1.37852193802246E-05,1.61865900736302E-05,4.74609375,0,0
-2.04331772692967E-05,2.29139695875347E-05,4.74609375,0,0
-1.85402586794226E-05,1.89867296285229E-05,4.74609375,0,0
-2.4537461285945E-05,2.36819232668495E-05,4.74609375,0,0
-2.12867998925503E-05,1.77396541403141E-05,4.74609375,0,0
-2.17440265259938E-05,1.77076562977163E-05,4.74609375,0,0
-2.13023813557811E-05,1.28879773910739E-05,4.74609375,0,0
-2.37181939155562E-05,1.24740072351415E-05,4.74609375,0,0
-2.26638530875789E-05,1.1813343007816E-05,4.74609375,0,0
-2.13054972846294E-05,1.04646969703026E-05,4.74609375,0,0
-2.27283999265637E-05,7.98939345258987E-06,4.74609375,0,0
-2.63091078522848E-05,4.81949791719671E-06,4.74609375,0,0
-3.09901843138505E-05,4.3986319724354E-06,4.74609375,0,0
-3.2309428206645E-05,4.74772059533279E-06,4.74609375,0,0
-3.37033634423278E-05,7.38050357540487E-06,4.74609375,0,0
-3.33494135702495E-05,6.7157347984903E-06,4.74609375,0,0
-3.36626726493705E-05,6.76474019201123E-06,4.74609375,0,0
-3.15622710331809E-05,5.38680978934281E-06,4.74609375,0,0
-3.05052926705685E-05,6.72507349008811E-06,4.74609375,0,0
-2.88347018795321E-05,7.29354451323161E-06,4.74609375,0,0
-2.92446802632185E-05,9.68702352110995E-06,4.74609375,0,0
-2.92345939669758E-05,1.05437138699926E-05,7.20703125,0,0
-3.03922861348838E-05,1.21327766464674E-05,7.20703125,0,0
-3.12156626023352E-05,1.30084335978609E-05,7.20703125,0,0
-3.10471150442027E-05,1.48900080603198E-05,7.20703125,0,0
-2.9614533559652E-05,1.61873686010949E-05,7.20703125,0,0
-2.84108391497284E-05,1.54317385749891E-05,7.20703125,0,0
-2.29937704716576E-05,1.24115376820555E-05,7.20703125,0,0
-3.25869477819651E-05,1.81126652023522E-05,7.20703125,0,0
-2.54806800512597E-05,1.3702456271858E-05,7.20703125,0,0
-3.23838685289957E-05,1.5312563846237E-05,7.20703125,0,0
-2.78935203823494E-05,1.14354006655049E-05,7.20703125,0,0
-3.08645867335144E-05,1.26163022287074E-05,7.20703125,0,0
-2.7015603336622E-05,1.14972299343208E-05,7.20703125,0,0
-2.73285822913749E-05,1.2543132470455E-05,7.20703125,0,0
-2.55303166341037E-05,1.31478400362539E-05,7.20703125,0,0
-2.37057502090465E-05,1.33632283905172E-05,7.20703125,0,0
-2.13959665416041E-05,1.23666131912614E-05,7.20703125,0,0
-1.90494483831571E-05,9.84594043984544E-06,7.20703125,0,0
-1.88987833098508E-05,8.489780157106E-06,7.20703125,0,0
-1.71521933225449E-05,7.14839416104951E-06,7.20703125,0,0
-1.84734963113442E-05,8.52829816722078E-06,7.20703125,0,0
-1.70423136296449E-05,9.36117703531636E-06,7.20703125,0,0
-1.88002595677972E-05,1.14181493700016E-05,7.20703125,0,0
-1.89342099474743E-05,1.20034874271369E-05,7.20703125,0,0
-2.14342162507819E-05,1.25586320791626E-05,7.20703125,0,0
-2.04961288545746E-05,1.12122606878984E-05,7.20703125,0,0
-2.05601900233887E-05,1.14309850687278E-05,7.20703125,0,0
-1.82212370418711E-05,1.14911281343666E-05,7.20703125,0,0
-1.79061244125478E-05,1.23554682431859E-05,7.20703125,0,0
-1.81741561391391E-05,1.13299256554455E-05,7.20703125,0,0
-1.78686168510467E-05,1.04062037280528E-05,7.20703125,0,0
-1.62193464348093E-05,1.24247262647259E-05,7.20703125,0,0
-1.5980780517566E-05,1.46368793139118E-05,7.20703125,0,0
-1.56975565914763E-05,1.18440102596651E-05,7.20703125,0,0
-2.53677844739286E-05,1.52581515067141E-05,7.20703125,0,0
-2.3230430088006E-05,1.10473938548239E-05,7.20703125,0,0
-2.72380202659406E-05,1.50492323882645E-05,7.20703125,0,0
-2.27643067773897E-05,1.14990716610919E-05,7.20703125,0,0
-2.15080817724811E-05,1.353157676931E-05,7.20703125,0,0
-1.98191846720874E-05,1.22553728942876E-05,7.20703125,0,0
-2.30740424740361E-05,1.2395720659697E-05,7.20703125,0,0
-2.39093624259112E-05,1.19324349725503E-05,7.20703125,0,0
-2.27064174396219E-05,1.24843263620278E-05,7.20703125,0,0
-2.11855567613384E-05,1.34699284899398E-05,7.20703125,0,0
-2.07632710953476E-05,1.29301197375753E-05,7.20703125,0,0
-2.3008331481833E-05,1.19233227451332E-05,7.20703125,0,0
-2.3639518985874E-05,9.04664739209693E-06,7.20703125,0,0
-2.52182817348512E-05,8.73616409080569E-06,7.20703125,0,0
-2.52482277574018E-05,8.60168347571744E-06,7.20703125,0,0
-2.65898070210824E-05,9.77873332885792E-06,7.20703125,0,0
-2.57153405982535E-05,8.43379257275956E-06,7.20703125,0,0
-2.5433415430598E-05,8.7327834989992E-06,7.20703125,0,0
-2.42241858359193E-05,9.20162892725784E-06,7.20703125,0,0
-2.51715573540423E-05,1.11489825940225E-05,7.20703125,0,0
-2.54168608080363E-05,1.10736564238323E-05,7.20703125,0,0
-2.53335274464916E-05,9.57082738750614E-06,7.20703125,0,0
-2.41345078393351E-05,7.4024733294209E-06,7.20703125,0,0
-2.50576922553591E-05,7.34909963284736E-06,7.20703125,0,0
-2.8664024284808E-05,7.30836791262846E-06,7.20703125,0,0
-3.06497677229345E-05,5.48324487681384E-06,7.20703125,0,0
-2.46311246883124E-05,3.43740271091519E-06,7.20703125,0,0
-3.54321164195426E-05,4.5407323341351E-06,7.20703125,0,0
-2.89023046207149E-05,3.84542090614559E-06,7.20703125,0,0
-3.66259009751957E-05,6.8339791141625E-06,7.20703125,0,0
-3.11609037453309E-05,6.74240118314628E-06,7.20703125,0,0
-3.49910915247165E-05,5.26376288689789E-06,7.20703125,0,0
-3.25969704135787E-05,3.52284632754163E-06,7.20703125,0,0
-3.31957016896922E-05,3.99441341869533E-06,7.20703125,0,0
-3.09186725644395E-05,6.47571869194508E-06,7.20703125,0,0
-2.98064333037473E-05,8.21564572106581E-06,7.20703125,0,0
-2.87928069155896E-05,7.81414291850524E-06,7.20703125,0,0
-2.65539238171186E-05,5.58742158318637E-06,7.20703125,0,0
-2.69382089754799E-05,4.70575514555094E-06,7.20703125,0,0
-2.4986324206111E-05,6.83853704686044E-06,7.20703125,0,0
-2.47280604526168E-05,1.07025707620778E-05,7.20703125,0,0
-2.19595531234518E-05,1.26195027405629E-05,7.20703125,0,0
-2.25671228690771E-05,1.22743531392189E-05,7.20703125,0,0
-2.08727833523881E-05,1.21638740893104E-05,7.20703125,0,0
-2.17502711166162E-05,1.37416564029991E-05,7.20703125,0,0
-2.12298982660286E-05,1.31609212985495E-05,7.20703125,0,0
-2.40707649936667E-05,1.06944462459069E-05,7.20703125,0,0
-2.42080222960794E-05,9.87824842013652E-06,7.20703125,0,0
-2.45860519498819E-05,1.05386170616839E-05,7.20703125,0,0
-2.42291098402347E-05,1.00059060059721E-05,7.20703125,0,0
-2.36593787121819E-05,9.40066456678323E-06,7.20703125,0,0
-2.13297316804528E-05,1.00951492640888E-05,7.20703125,0,0
-2.00581689568935E-05,1.12380294012837E-05,7.20703125,0,0
-1.63656713993987E-05,9.79716423898935E-06,7.20703125,0,0
-2.24041141336784E-05,1.45955200423487E-05,7.20703125,0,0
-1.51901458593784E-05,1.03037182270782E-05,7.20703125,0,0
-1.73276403074851E-05,9.65520666795783E-06,7.20703125,0,0
-1.24594689623336E-05,4.33565537605318E-06,7.20703125,0,0
-1.47882792589371E-05,4.77429057355039E-06,7.20703125,0,0
-1.3868141650164E-05,6.47951446808293E-06,7.20703125,0,0
-1.5248987438099E-05,8.70751591719454E-06,7.20703125,0,0
-1.53906312334584E-05,8.13599581306335E-06,7.20703125,0,0
-1.70239363797009E-05,8.57907525642077E-06,7.20703125,0,0
-1.88960129889892E-05,1.03413949545939E-05,7.20703125,0,0
-1.8827024177881E-05,1.06750003396883E-05,7.20703125,0,0
-1.95038701349404E-05,1.06160196082783E-05,7.20703125,0,0
-1.99330061150249E-05,1.00898623713874E-05,7.20703125,0,0
-2.31657541007735E-05,1.07029663922731E-05,7.20703125,0,0
-2.35009865718894E-05,1.03377233244828E-05,7.20703125,0,0
-2.40957706409972E-05,1.02470648926101E-05,7.20703125,0,0
-2.33632890740409E-05,8.46065177029232E-06,7.20703125,0,0
-2.51569508691318E-05,8.35144419397693E-06,7.20703125,0,0
-2.55442355410196E-05,9.05873002920998E-06,7.20703125,0,0
-2.6599893317325E-05,1.07387213574839E-05,7.20703125,0,0
-2.45954634010559E-05,1.07682180896518E-05,7.20703125,0,0
-2.23332481255056E-05,9.95699065242661E-06,7.20703125,0,0
-2.08185392693849E-05,8.78225455380743E-06,7.20703125,0,0
-2.07772936846595E-05,8.28347674541874E-06,7.20703125,0,0
-2.07481716643088E-05,7.63712796469918E-06,7.20703125,0,0
-2.11251153814374E-05,6.42852319288068E-06,7.20703125,0,0
-1.81217237695819E-05,3.69211215911491E-06,7.20703125,0,0
-2.63797683146549E-05,5.60467424293165E-06,7.20703125,0,0
-1.99535552383168E-05,6.21311437498662E-06,7.20703125,0,0
-2.31131743930746E-05,1.00331226349226E-05,7.20703125,0,0
-1.98314410226885E-05,1.06814231912722E-05,7.20703125,0,0
-2.40715926338453E-05,1.20240129035665E-05,7.20703125,0,0
-2.36096148000797E-05,1.41663122121827E-05,7.20703125,0,0
-2.52992103924043E-05,1.6885587683646E-05,7.20703125,0,0
-2.52538775384892E-05,1.8226848624181E-05,7.20703125,0,0
-2.5832736355369E-05,1.81729301402811E-05,7.20703125,0,0
-2.62247667706106E-05,1.71928841155022E-05,7.20703125,0,0
-2.47978168772534E-05,1.65537167049479E-05,7.20703125,0,0
-2.37995118368417E-05,1.66954723681556E-05,7.20703125,0,0
-2.22568996832706E-05,1.59626688400749E-05,7.20703125,0,0
-2.47152911470039E-05,1.4856162124488E-05,7.20703125,0,0
-2.62976154772332E-05,1.3858123566024E-05,7.20703125,0,0
-2.82699656963814E-05,1.4060466128285E-05,7.20703125,0,0
-2.68058120127534E-05,1.39196135933162E-05,7.20703125,0,0
-2.67097075266065E-05,1.37648130476009E-05,7.20703125,0,0
-2.38688753597671E-05,1.3292074072524E-05,7.20703125,0,0
-2.18600962398341E-05,1.28844339997158E-05,7.20703125,0,0
-2.02830779016949E-05,1.20645008792053E-05,7.20703125,0,0
-2.1149477106519E-05,1.32616405608132E-05,7.20703125,0,0
-2.1895844838582E-05,1.52673710545059E-05,7.20703125,0,0
-2.35077750403434E-05,1.39377052619238E-05,7.20703125,0,0
-2.50853063334944E-05,1.050849823514E-05,7.20703125,0,0
-2.55145459959749E-05,9.86451141216094E-06,7.20703125,0,0
-1.98878842638806E-05,7.46732484913082E-06,7.20703125,0,0
-2.7321451852913E-05,9.6134845080087E-06,7.20703125,0,0
-1.99559999600751E-05,7.0682872319594E-06,7.20703125,0,0
-2.60941160377115E-05,1.21054872579407E-05,7.20703125,0,0
-2.26984266191721E-05,1.28457950268057E-05,7.20703125,0,0
-2.64972477452829E-05,1.444823192287E-05,7.20703125,0,0
-2.54210790444631E-05,1.23106283353991E-05,7.20703125,0,0
-2.67575142061105E-05,1.17677036541863E-05,7.20703125,0,0
-2.64183054241585E-05,1.13984269773937E-05,7.20703125,0,0
-2.67919749603607E-05,1.13332398541388E-05,7.20703125,0,0
-2.78046372841345E-05,1.13926898848149E-05,7.20703125,0,0
-2.7990092348773E-05,1.00600946097984E-05,7.20703125,0,0
-2.81041848211316E-05,1.02224585134536E-05,7.20703125,0,0
-2.53375364991371E-05,1.12864427137538E-05,7.20703125,0,0
-2.51395904342644E-05,1.28751207739697E-05,7.20703125,0,0
-2.28500521188835E-05,1.11966528493213E-05,7.20703125,0,0
-2.45234841713682E-05,8.35620357975131E-06,7.20703125,0,0
-2.6701334718382E-05,5.41974304724135E-06,7.20703125,0,0
-3.03117431030842E-05,5.74961904931115E-06,7.20703125,0,0
-2.99555176752619E-05,7.59708336772746E-06,7.20703125,0,0
-3.00022184092086E-05,9.85471706371754E-06,7.20703125,0,0
-2.8723843570333E-05,9.64438368100673E-06,7.20703125,0,0
-2.82617111224681E-05,9.15880173124606E-06,7.20703125,0,0
-2.69586998911109E-05,9.55272480496205E-06,7.20703125,0,0
-2.54669212154113E-05,1.10399923869409E-05,7.20703125,0,0
-2.28098979278002E-05,1.13832074930542E-05,7.20703125,0,0
-2.24868672376033E-05,1.05291528598173E-05,7.20703125,0,0
-1.96247783605941E-05,9.11652114155004E-06,7.20703125,0,0
-3.06096007989254E-05,1.29699210447143E-05,7.20703125,0,0
-2.80471558653517E-05,9.37211734708399E-06,7.20703125,0,0
-3.44455002050381E-05,1.06978122857981E-05,7.20703125,0,0
-2.91326359729283E-05,9.01106341189006E-06,7.20703125,0,0
-3.05248358927201E-05,1.1639368494798E-05,7.20703125,0,0
-2.93760804197518E-05,1.18170491987257E-05,7.20703125,0,0
-3.11950570903718E-05,1.20488248285255E-05,7.20703125,0,0
-2.98873783322051E-05,9.21425089472905E-06,7.20703125,0,0
-2.69277370534837E-05,8.23807386041153E-06,7.20703125,0,0
-2.43099639192224E-05,9.43128998187603E-06,7.20703125,0,0
-2.26397587539395E-05,9.78774369286839E-06,7.20703125,0,0
-2.40328954532743E-05,1.08397207441158E-05,7.20703125,0,0
-2.35801726375939E-05,1.17657855298603E-05,7.20703125,0,0
-2.44334696617443E-05,1.4063262824493E-05,7.20703125,0,0
-2.45487099164166E-05,1.44014820762095E-05,7.20703125,0,0
-2.71076896751765E-05,1.36803810164565E-05,7.20703125,0,0
-2.72150264208904E-05,1.10319178929785E-05,7.20703125,0,0
-2.87085822492372E-05,1.07332098195911E-05,7.20703125,0,0
-2.80639469565358E-05,1.10993360067368E-05,7.20703125,0,0
-2.84819234366296E-05,1.2177446478745E-05,7.20703125,0,0
-2.74319590971572E-05,1.29671025206335E-05,7.20703125,0,0
-2.7228299586568E-05,1.43661645779503E-05,7.20703125,0,0
-2.72874513029819E-05,1.28086567201535E-05,7.20703125,0,0
-2.91452142846538E-05,1.03299689726555E-05,7.20703125,0,0
-3.04766072076745E-05,9.37266850087326E-06,7.20703125,0,0
-2.98280647257343E-05,1.08855547296116E-05,7.20703125,0,0
-2.20430283661699E-05,9.38871562539134E-06,7.20703125,0,0
-3.12330557790119E-05,1.29647542053135E-05,7.20703125,0,0
-2.44449311139761E-05,8.83720349520445E-06,7.20703125,0,0
-3.14687749778386E-05,1.1215964150324E-05,7.20703125,0,0
-2.77022318186937E-05,9.72749148786534E-06,7.20703125,0,0
-3.12103475152981E-05,1.10219125417643E-05,7.20703125,0,0
-2.75693728326587E-05,1.00251909316285E-05,7.20703125,0,0
-2.77804811048554E-05,1.00178003776819E-05,7.20703125,0,0
-2.72368488367647E-05,8.48259060148848E-06,7.20703125,0,0
-2.69176453002729E-05,7.56140889279777E-06,7.20703125,0,0
-2.53500838880427E-05,6.7890150603489E-06,7.20703125,0,0
-2.30922578339232E-05,6.03170929025509E-06,7.20703125,0,0
-2.335594217584E-05,7.18842056812719E-06,7.20703125,0,0
-2.27191194426268E-05,8.42518693389138E-06,7.20703125,0,0
-2.64065583905904E-05,1.02980247902451E-05,7.20703125,0,0
-2.89412309939507E-05,9.83011614152929E-06,7.20703125,0,0
-3.23724125337321E-05,8.52916218718747E-06,7.20703125,0,0
-3.04634486383293E-05,5.68020323044038E-06,7.20703125,0,0
-2.91383621515706E-05,5.52925439478713E-06,7.20703125,0,0
-2.61781042354414E-05,6.84655969962478E-06,7.20703125,0,0
-2.63024212472374E-05,9.27931523619918E-06,7.20703125,0,0
-2.51806359301554E-05,9.48505658016074E-06,7.20703125,0,0
-2.46084237005562E-05,8.75310615811031E-06,7.20703125,0,0
-2.36609157582279E-05,9.88726515060989E-06,7.20703125,0,0
-2.41927227762062E-05,1.32620298245456E-05,7.20703125,0,0
-2.4802237021504E-05,1.46370766742621E-05,7.20703125,0,0
-2.48293708864367E-05,1.42587423397345E-05,7.20703125,0,0
-1.96292512555374E-05,9.66876723396126E-06,7.20703125,0,0
-2.74467893177643E-05,1.32130717247492E-05,7.20703125,0,0
-1.89192232937785E-05,9.58059627009789E-06,7.20703125,0,0
-2.08918008866021E-05,1.11556164483773E-05,7.20703125,0,0
-1.4241961252992E-05,6.42821214569267E-06,7.20703125,0,0
-1.43300194395124E-05,6.33262243354693E-06,7.20703125,0,0
-1.01495188573608E-05,6.77009711580467E-06,7.20703125,0,0
-1.07226151158102E-05,1.07684536487795E-05,7.20703125,0,0
-9.89873205980984E-06,1.26244303828571E-05,7.20703125,0,0
-8.44281476020115E-06,1.31187425722601E-05,7.20703125,0,0
-6.95253356752801E-06,1.31528395286296E-05,7.20703125,0,0
-6.43135990685551E-06,1.22936180559918E-05,7.20703125,0,0
-8.07037577033043E-06,1.21215744002257E-05,7.20703125,0,0
-7.23374296285328E-06,1.16408464236883E-05,7.20703125,0,0
-8.36131948744878E-06,1.36386224767193E-05,7.20703125,0,0
-8.20772038423456E-06,1.5328772860812E-05,7.20703125,0,0
-1.06115394373774E-05,1.84722121048253E-05,7.20703125,0,0
-1.06962606878369E-05,1.9727116523427E-05,7.20703125,0,0
-1.28686933749123E-05,2.05747255677124E-05,7.20703125,0,0
-1.36671160362312E-05,2.05090327654034E-05,7.20703125,0,0
-1.54892477439716E-05,2.03096969926264E-05,7.20703125,0,0
-1.57251251948765E-05,1.73146927409107E-05,7.20703125,0,0
-1.70293860719539E-05,1.37203051053802E-05,7.20703125,0,0
-1.715016514936E-05,1.01826753962087E-05,7.20703125,0,0
-1.89342117664637E-05,9.52846312429756E-06,7.20703125,0,0
-2.14487608900527E-05,1.15783423098037E-05,7.20703125,0,0
-2.29641482292209E-05,1.3206323274062E-05,7.20703125,0,0
-1.75755812961143E-05,1.07591549749486E-05,7.20703125,0,0
-2.33736263908213E-05,1.60743620654102E-05,7.20703125,0,0
-1.67465514095966E-05,1.3810496966471E-05,7.20703125,0,0
-2.28463868552353E-05,1.58170278155012E-05,9.84375,0,0
-2.08579658647068E-05,1.05119715954061E-05,9.84375,0,0
-2.42639580392279E-05,1.20542044896865E-05,9.84375,0,0
-2.07695738936309E-05,1.28845058497973E-05,9.84375,0,0
-2.05342184926849E-05,1.27266266645165E-05,9.84375,0,0
-1.94753829418914E-05,1.04497194115538E-05,9.84375,0,0
-1.9196397261112E-05,9.26714801607886E-06,9.84375,0,0
-1.98051839106483E-05,1.02655512819183E-05,9.84375,0,0
-2.02815936063416E-05,1.0889563782257E-05,9.84375,0,0
-2.17624055949273E-05,1.03376460174331E-05,9.84375,0,0
-2.06090462597786E-05,7.83460291131632E-06,9.84375,0,0
-2.14027204492595E-05,8.4206840256229E-06,9.84375,0,0
-2.10621456062654E-05,1.05686494862312E-05,9.84375,0,0
-2.40495210164227E-05,1.39917092383257E-05,9.84375,0,0
-2.52059635386104E-05,1.44837613333948E-05,9.84375,0,0
-2.6707406505011E-05,1.43971765282913E-05,9.84375,0,0
-2.55727536568884E-05,1.36537646540091E-05,9.84375,0,0
-2.58024665527046E-05,1.41933332997723E-05,9.84375,0,0
-2.44141920120455E-05,1.39068251883145E-05,9.84375,0,0
-2.45515802816954E-05,1.42907392728375E-05,9.84375,0,0
-2.54070164373843E-05,1.41389546115533E-05,9.84375,0,0
-2.71105745923705E-05,1.3250753909233E-05,9.84375,0,0
-2.79535597655922E-05,1.18390016723424E-05,9.84375,0,0
-2.84970956272446E-05,1.0911634490185E-05,9.84375,0,0
-2.25999592657899E-05,1.02223875728669E-05,9.84375,0,0
-3.19934588333126E-05,1.67371599673061E-05,9.84375,0,0
-2.55555714829825E-05,1.44453151733615E-05,9.84375,0,0
-3.46434062521439E-05,1.56415371748153E-05,9.84375,0,0
-3.26074914482888E-05,1.28378660519957E-05,9.84375,0,0
-3.64276020263787E-05,1.40345791805885E-05,9.84375,0,0
-3.46797060046811E-05,1.38498826345312E-05,9.84375,0,0
-3.77479409507941E-05,1.52213824549108E-05,9.84375,0,0
-3.8351474358933E-05,1.64277826115722E-05,9.84375,0,0
-3.99144482798874E-05,1.77235597220715E-05,9.84375,0,0
-4.1340561438119E-05,1.91501221706858E-05,9.84375,0,0
-4.10379034292419E-05,1.88866870303173E-05,9.84375,0,0
-4.18374584114645E-05,1.79152793862158E-05,9.84375,0,0
-3.93901427742094E-05,1.55542766151484E-05,9.84375,0,0
-3.83134974981658E-05,1.40541424116236E-05,9.84375,0,0
-3.56851669494063E-05,1.19191990961554E-05,9.84375,0,0
-3.61444836016744E-05,1.09716738734278E-05,9.84375,0,0
-3.29033464367967E-05,8.64245066622971E-06,9.84375,0,0
-3.09878378175199E-05,6.13500151303015E-06,9.84375,0,0
-2.73412242677296E-05,3.99615373680717E-06,9.84375,0,0
-2.55287668551318E-05,5.21350648341468E-06,9.84375,0,0
-2.16271328099538E-05,7.31958198230132E-06,9.84375,0,0
-1.93964006030001E-05,9.06441891856957E-06,9.84375,0,0
-1.76947469299193E-05,9.32322382141138E-06,9.84375,0,0
-1.73396510945167E-05,9.8810605777544E-06,9.84375,0,0
-1.56706973939436E-05,1.07648638731916E-05,9.84375,0,0
-1.44661207741592E-05,9.52255504671484E-06,9.84375,0,0
-1.1887755135831E-05,6.27159170107916E-06,9.84375,0,0
-1.60026029334404E-05,1.07358864624985E-05,9.84375,0,0
-1.0338634638174E-05,1.02208796306513E-05,9.84375,0,0
-1.2833375876653E-05,1.03343445516657E-05,9.84375,0,0
-1.04457003544667E-05,7.65167987992754E-06,9.84375,0,0
-1.12818961497396E-05,9.01065504876897E-06,9.84375,0,0
-9.96618382487213E-06,1.02164203781285E-05,9.84375,0,0
-1.11514436866855E-05,1.1377062946849E-05,9.84375,0,0
-1.25693923109793E-05,1.07680170913227E-05,9.84375,0,0
-1.41639566209051E-05,1.04696382550173E-05,9.84375,0,0
-1.5251820514095E-05,1.07223149825586E-05,9.84375,0,0
-1.72056606970727E-05,1.05834733403753E-05,9.84375,0,0
-2.12652339541819E-05,9.67958112596534E-06,9.84375,0,0
-2.36711639445275E-05,8.14679242466809E-06,9.84375,0,0
-2.57770825555781E-05,8.43219277157914E-06,9.84375,0,0
-2.53711186815053E-05,8.7203716248041E-06,9.84375,0,0
-2.58119634963805E-05,7.83922860136954E-06,9.84375,0,0
-2.55326140177203E-05,4.82530776935164E-06,9.84375,0,0
-2.85256337519968E-05,4.2988058339688E-06,9.84375,0,0
-3.18548627546988E-05,5.47886793356156E-06,9.84375,0,0
-3.44070358551107E-05,7.06910168446484E-06,9.84375,0,0
-3.47971035807859E-05,7.09041205482208E-06,9.84375,0,0
-3.55677184415981E-05,6.67595350023475E-06,9.84375,0,0
-3.55238407792058E-05,6.96105644237832E-06,9.84375,0,0
-3.47643617715221E-05,8.43117686599726E-06,9.84375,0,0
-3.28327660099603E-05,1.02171652542893E-05,9.84375,0,0
-3.17247322527692E-05,1.23335257740109E-05,9.84375,0,0
-2.37938493228285E-05,9.37266668188386E-06,9.84375,0,0
-3.21894513035659E-05,1.25869910334586E-05,9.84375,0,0
-2.24087725655409E-05,9.63966158451512E-06,9.84375,0,0
-2.87723287328845E-05,1.26147897390183E-05,9.84375,0,0
-2.27458822337212E-05,8.59999363456154E-06,9.84375,0,0
-2.52526006079279E-05,8.06018670118647E-06,9.84375,0,0
-2.23881088459166E-05,7.6702817750629E-06,9.84375,0,0
-2.34850704146083E-05,1.03497550298925E-05,9.84375,0,0
-2.26026913878741E-05,9.56603798840661E-06,9.84375,0,0
-2.43379163293866E-05,8.36003619042458E-06,9.84375,0,0
-2.6634132154868E-05,9.37551521928981E-06,9.84375,0,0
-2.6161478672293E-05,1.11038370960159E-05,9.84375,0,0
-2.64385653281352E-05,1.18197058327496E-05,9.84375,0,0
-2.45999763137661E-05,1.08543863461819E-05,9.84375,0,0
-2.48559990723152E-05,1.1452243597887E-05,9.84375,0,0
-2.14967203646665E-05,1.18838634080021E-05,9.84375,0,0
-2.04777061298955E-05,1.36646031023702E-05,9.84375,0,0
-1.82963012775872E-05,1.40624051709892E-05,9.84375,0,0
-2.01821439986816E-05,1.59182236529887E-05,9.84375,0,0
-1.94931762962369E-05,1.58649963850621E-05,9.84375,0,0
-1.90062128240243E-05,1.52328884723829E-05,9.84375,0,0
-1.60196032084059E-05,1.3801137356495E-05,9.84375,0,0
-1.47018490679329E-05,1.3638251402881E-05,9.84375,0,0
-1.36103190016001E-05,1.33132461996865E-05,9.84375,0,0
-1.53718938236125E-05,1.38824207169819E-05,9.84375,0,0
-1.74232663994189E-05,1.43352854138357E-05,9.84375,0,0
-1.78844165930059E-05,1.47930450111744E-05,9.84375,0,0
-1.26952509162948E-05,1.1698083653755E-05,9.84375,0,0
-1.83605334314052E-05,1.59955161507241E-05,9.84375,0,0
-1.72275449585868E-05,1.14660642793751E-05,9.84375,0,0
-2.40224308072357E-05,1.34571046146448E-05,9.84375,0,0
-2.35614497796632E-05,8.70996154844761E-06,9.84375,0,0
-2.71009103016695E-05,9.89397813100368E-06,9.84375,0,0
-2.60734996118117E-05,9.23624065762851E-06,9.84375,0,0
-2.60974393313518E-05,9.66715924732853E-06,9.84375,0,0
-2.37156345974654E-05,8.14655504655093E-06,9.84375,0,0
-2.25515905185603E-05,6.83164262227365E-06,9.84375,0,0
-2.32700131164165E-05,5.80933829041896E-06,9.84375,0,0
-2.39323780988343E-05,4.9747195589589E-06,9.84375,0,0
-2.39786204474512E-05,6.24717858954682E-06,9.84375,0,0
-2.15988675336121E-05,6.63326227368088E-06,9.84375,0,0
-2.16373337025288E-05,6.66222240397474E-06,9.84375,0,0
-2.14245937968371E-05,3.93748996430077E-06,9.84375,0,0
-2.23085207835538E-05,2.68636631517438E-06,9.84375,0,0
-2.05090891540749E-05,2.0247568954801E-06,9.84375,0,0
-1.89085149031598E-05,3.99087275582133E-06,9.84375,0,0
-1.58555558300577E-05,4.32183469456504E-06,9.84375,0,0
-1.5190878912108E-05,5.07632285007276E-06,9.84375,0,0
-1.39231005960028E-05,5.38345057066181E-06,9.84375,0,0
-1.24312600746634E-05,6.25613711235928E-06,9.84375,0,0
-1.11192593976739E-05,6.50716674499563E-06,9.84375,0,0
-1.13550449896138E-05,7.64798369345954E-06,9.84375,0,0
-1.15272287075641E-05,8.79223625815939E-06,9.84375,0,0
-1.20395243357052E-05,9.69772463577101E-06,9.84375,0,0
-9.41215057537192E-06,8.87087026057998E-06,9.84375,0,0
-1.3861999832443E-05,1.22923211165471E-05,9.84375,0,0
-1.15878847282147E-05,7.96384938439587E-06,9.84375,0,0
-1.44392643051106E-05,8.99371752893785E-06,9.84375,0,0
-1.27574139696662E-05,6.7065775510855E-06,9.84375,0,0
-1.50595897139283E-05,7.65403547120513E-06,9.84375,0,0
-1.59554874699097E-05,7.15842952558887E-06,9.84375,0,0
-1.79313992703101E-05,7.81508060754277E-06,9.84375,0,0
-1.85568624146981E-05,8.93666401680093E-06,9.84375,0,0
-2.06914755835896E-05,1.12321504275315E-05,9.84375,0,0
-2.46905656240415E-05,1.23802528833039E-05,9.84375,0,0
-2.81736847682623E-05,1.20762833830668E-05,9.84375,0,0
-3.13335112878121E-05,1.32219665829325E-05,9.84375,0,0
-3.28586975228973E-05,1.48365797940642E-05,9.84375,0,0
-3.48339417541865E-05,1.65585461218143E-05,9.84375,0,0
-3.54514995706268E-05,1.47839618875878E-05,9.84375,0,0
-3.65352534572594E-05,1.38799568958348E-05,9.84375,0,0
-3.59015139110852E-05,1.42628259709454E-05,9.84375,0,0
-3.53564355464187E-05,1.52976081153611E-05,9.84375,0,0
-3.3660646295175E-05,1.4395942343981E-05,9.84375,0,0
-3.22439154842868E-05,1.43653142004041E-05,9.84375,0,0
-3.02990702039097E-05,1.40411884785863E-05,9.84375,0,0
-3.01672916975804E-05,1.44133846333716E-05,9.84375,0,0
-3.05209250655025E-05,1.49523857544409E-05,9.84375,0,0
-3.10398936562706E-05,1.58042948896764E-05,9.84375,0,0
-3.11305338982493E-05,1.52411021190346E-05,9.84375,0,0
-3.17143385473173E-05,1.40861302497797E-05,9.84375,0,0
-2.76030532404548E-05,9.51820220507216E-06,9.84375,0,0
-3.99739510612562E-05,1.22455148812151E-05,9.84375,0,0
-2.95987956633326E-05,8.27280655357754E-06,9.84375,0,0
-3.44571271853056E-05,1.06953648355557E-05,9.84375,0,0
-2.73980040219612E-05,7.84755502536427E-06,9.84375,0,0
-3.11886360577773E-05,1.08718277260778E-05,9.84375,0,0
-2.9977185477037E-05,1.11681265480001E-05,9.84375,0,0
-3.31339688273147E-05,1.08198955786065E-05,9.84375,0,0
-3.28671085298993E-05,8.87611713551451E-06,9.84375,0,0
-3.36220291501377E-05,8.61754597281106E-06,9.84375,0,0
-3.4242282708874E-05,8.87877467903309E-06,9.84375,0,0
-3.20014332828578E-05,7.12230439603445E-06,9.84375,0,0
-3.17511512548663E-05,5.58969577468815E-06,9.84375,0,0
-3.07180889649317E-05,5.47435047337785E-06,9.84375,0,0
-3.30702496285085E-05,9.4026490842225E-06,9.84375,0,0
-3.21899242408108E-05,1.19848446047399E-05,9.84375,0,0
-3.32506751874462E-05,1.24371163110482E-05,9.84375,0,0
-3.10437535517849E-05,1.02120447991183E-05,9.84375,0,0
-3.12406700686552E-05,1.12717116280692E-05,9.84375,0,0
-2.92057338810992E-05,1.19678552437108E-05,9.84375,0,0
-3.017400194949E-05,1.07724235931528E-05,9.84375,0,0
-2.9237060516607E-05,9.51655692915665E-06,9.84375,0,0
-2.83875324385008E-05,1.06421894088271E-05,9.84375,0,0
-2.53484322456643E-05,1.02509739008383E-05,9.84375,0,0
-2.41528068727348E-05,8.34608636068879E-06,9.84375,0,0
-2.38287284446415E-05,5.86613623454468E-06,9.84375,0,0
-2.25962485274067E-05,4.21523827753845E-06,9.84375,0,0
-1.76051744347205E-05,4.66665596832172E-06,9.84375,0,0
-2.51833607762819E-05,1.00920087788836E-05,9.84375,0,0
-1.97038680198602E-05,1.02055983006721E-05,9.84375,0,0
-2.27378550334834E-05,9.03595264389878E-06,9.84375,0,0
-1.59754181368044E-05,9.54267034103395E-06,9.84375,0,0
-1.5269877621904E-05,1.29817326524062E-05,9.84375,0,0
-1.11518284029444E-05,1.48915305544506E-05,9.84375,0,0
-9.76244336925447E-06,1.42546687129652E-05,9.84375,0,0
-6.40781854599481E-06,1.27479952425347E-05,9.84375,0,0
-4.53375287179369E-06,1.31386859720806E-05,9.84375,0,0
-4.8223359954136E-06,1.52376223923056E-05,9.84375,0,0
-6.30661952527589E-06,1.66490553965559E-05,9.84375,0,0
-8.60361797094811E-06,1.72520922205877E-05,9.84375,0,0
-8.51908043841831E-06,1.75862587639131E-05,9.84375,0,0
-1.12339803308714E-05,1.8633259969647E-05,9.84375,0,0
-1.31191691252752E-05,1.91092185559683E-05,9.84375,0,0
-1.68151145771844E-05,1.88764624908799E-05,9.84375,0,0
-1.81465402420145E-05,1.80682527570752E-05,9.84375,0,0
-2.14067913475446E-05,1.74868728208821E-05,9.84375,0,0
-2.33911723626079E-05,1.81195173354354E-05,9.84375,0,0
-2.68736239377176E-05,2.03310228243936E-05,9.84375,0,0
-2.8356138500385E-05,2.15208765439456E-05,9.84375,0,0
-2.89929666905664E-05,2.12091763387434E-05,9.84375,0,0
-2.7707195840776E-05,2.09578811336542E-05,9.84375,0,0
-2.74793146672891E-05,2.10791167774005E-05,9.84375,0,0
-2.87945167656289E-05,2.02948758669663E-05,9.84375,0,0
-3.0530893127434E-05,1.82293733814731E-05,9.84375,0,0
-2.43699014390586E-05,1.34553965835948E-05,9.84375,0,0
-3.35874647134915E-05,2.04976095119491E-05,9.84375,0,0
-2.550626595621E-05,1.82565072464058E-05,9.84375,0,0
-3.33345124090556E-05,2.11235983442748E-05,9.84375,0,0
-2.8137086701463E-05,1.42452117870562E-05,9.84375,0,0
-3.016280970769E-05,1.3416686670098E-05,9.84375,0,0
-2.4979432055261E-05,1.20654140118859E-05,9.84375,0,0
-2.46626550506335E-05,1.43135703183361E-05,9.84375,0,0
-2.30575460591353E-05,1.43452680276823E-05,9.84375,0,0
-2.33651098824339E-05,1.34443062052014E-05,9.84375,0,0
-2.43324811890488E-05,1.29020672829938E-05,9.84375,0,0
-2.35423394769896E-05,1.22603714771685E-05,9.84375,0,0
-2.38703414652264E-05,1.17391709864023E-05,9.84375,0,0
-2.19547146116383E-05,9.2580357886618E-06,9.84375,0,0
-2.23691076826071E-05,8.97327208804199E-06,9.84375,0,0
-1.91905000974657E-05,7.60124657972483E-06,9.84375,0,0
-1.84697582881199E-05,7.66914490668569E-06,9.84375,0,0
-1.51035037561087E-05,6.96175175107783E-06,9.84375,0,0
-1.44598216138547E-05,7.19683703209739E-06,9.84375,0,0
-1.19051701403805E-05,5.79836387260002E-06,9.84375,0,0
-1.20443837658968E-05,6.57375221635448E-06,9.84375,0,0
-1.14488657345646E-05,6.51935988571495E-06,9.84375,0,0
-1.32150644276408E-05,6.51681602903409E-06,9.84375,0,0
-1.37840361276176E-05,6.27990266366396E-06,9.84375,0,0
-1.45715603139251E-05,6.45356703898869E-06,9.84375,0,0
-1.53509354277048E-05,6.43580642645247E-06,9.84375,0,0
-1.81377145054284E-05,5.71369946555933E-06,9.84375,0,0
-1.86890465556644E-05,3.02283842756879E-06,9.84375,0,0
-2.93664525088388E-05,5.02097009302815E-06,9.84375,0,0
-2.6468336727703E-05,5.2986520131526E-06,9.84375,0,0
-3.21554216498043E-05,6.96669485478196E-06,9.84375,0,0
-2.74512203759514E-05,8.9342893261346E-06,9.84375,0,0
-2.64146365225315E-05,9.93607500276994E-06,9.84375,0,0
-2.24711984628811E-05,6.939061677258E-06,9.84375,0,0
-2.34152812481625E-05,5.94795255892677E-06,9.84375,0,0
-2.38393095060019E-05,6.0631095948338E-06,12.83203125,0,0
-2.44579841819359E-05,6.5805843405542E-06,12.83203125,0,0
-2.5070632545976E-05,6.91836430632975E-06,12.83203125,0,0
-2.50908997259103E-05,7.40336008675513E-06,12.83203125,0,0
-2.66375882347347E-05,8.42753615870606E-06,12.83203125,0,0
-2.65200906142127E-05,8.37681091070408E-06,12.83203125,0,0
-2.88741430267692E-05,7.87068893259857E-06,12.83203125,0,0
-3.09145616483875E-05,7.99415647634305E-06,12.83203125,0,0
-3.49297188222408E-05,9.38950779527659E-06,12.83203125,0,0
-3.53278192051221E-05,1.00128645499353E-05,12.83203125,0,0
-3.48855173797347E-05,1.1119521332148E-05,12.83203125,0,0
-3.10156756313518E-05,1.23626196000259E-05,12.83203125,0,0
-2.85777441604296E-05,1.29952977658832E-05,12.83203125,0,0
-2.60419546975754E-05,1.22615574582596E-05,12.83203125,0,0
-2.53542220889358E-05,1.01404111774173E-05,12.83203125,0,0
-2.57952906395076E-05,6.28907218924724E-06,12.83203125,0,0
-2.63392266788287E-05,2.87271154775226E-06,12.83203125,0,0
-2.4683757146704E-05,2.36258688346425E-06,12.83203125,0,0
-2.22438684431836E-05,4.41533711637021E-06,12.83203125,0,0
-1.70315197465243E-05,5.18606429977808E-06,12.83203125,0,0
-2.53605321631767E-05,7.86584405432222E-06,12.83203125,0,0
-2.18105396925239E-05,6.00294333708007E-06,12.83203125,0,0
-2.74664325843332E-05,7.23776156519307E-06,12.83203125,0,0
-2.43653375946451E-05,6.82391646478209E-06,12.83203125,0,0
-2.74349004030228E-05,6.8905865191482E-06,12.83203125,0,0
-2.6088619051734E-05,6.16189799984568E-06,12.83203125,0,0
-2.66022343566874E-05,7.01325143381837E-06,12.83203125,0,0
-2.6460736989975E-05,7.21222886568285E-06,12.83203125,0,0
-2.71984590654029E-05,7.3598685048637E-06,12.83203125,0,0
-2.81404154520715E-05,7.2953603194037E-06,12.83203125,0,0
-2.90791049337713E-05,6.10985989624169E-06,12.83203125,0,0
-3.15743418468628E-05,5.50339336768957E-06,12.83203125,0,0
-3.23239546560217E-05,5.64601805308484E-06,12.83203125,0,0
-3.33484204020351E-05,7.97118900663918E-06,12.83203125,0,0
-3.11147487082053E-05,1.04413538792869E-05,12.83203125,0,0
-3.0331981179188E-05,1.17923082143534E-05,12.83203125,0,0
-2.90353946184041E-05,1.108744800149E-05,12.83203125,0,0
-2.9586104574264E-05,1.13490004878258E-05,12.83203125,0,0
-2.71402950602351E-05,1.25745709738112E-05,12.83203125,0,0
-2.5759376512724E-05,1.42268891067943E-05,12.83203125,0,0
-2.40840399783337E-05,1.40897236633464E-05,12.83203125,0,0
-2.38372449530289E-05,1.35961818159558E-05,12.83203125,0,0
-2.24334871745668E-05,1.56131682160776E-05,12.83203125,0,0
-2.08676246984396E-05,1.77009242179338E-05,12.83203125,0,0
-2.0360377675388E-05,1.63820550369564E-05,12.83203125,0,0
-2.08343572012382E-05,1.4696133803227E-05,12.83203125,0,0
-1.81231189344544E-05,1.22449200716801E-05,12.83203125,0,0
-2.62456342170481E-05,1.76866888068616E-05,12.83203125,0,0
-2.05256383196684E-05,1.25105561892269E-05,12.83203125,0,0
-2.46978415816557E-05,1.48870076372987E-05,12.83203125,0,0
-2.05666201509302E-05,1.49988936755108E-05,12.83203125,0,0
-2.37224194279406E-05,2.04979678528616E-05,12.83203125,0,0
-2.32437087106518E-05,1.92994193639606E-05,12.83203125,0,0
-2.50506254815264E-05,1.71725769178011E-05,12.83203125,0,0
-2.59745793300681E-05,1.54602421389427E-05,12.83203125,0,0
-2.77777780866018E-05,1.55753605213249E-05,12.83203125,0,0
-2.90010339085711E-05,1.59550490934635E-05,12.83203125,0,0
-2.96284815703984E-05,1.4467478649749E-05,12.83203125,0,0
-3.24987886415329E-05,1.365162734146E-05,12.83203125,0,0
-3.44038089679088E-05,1.25573924378841E-05,12.83203125,0,0
-3.76763309759554E-05,1.37897868626169E-05,12.83203125,0,0
-3.86445135518443E-05,1.46748734550783E-05,12.83203125,0,0
-4.13256311730947E-05,1.56780006363988E-05,12.83203125,0,0
-4.12691733799875E-05,1.38850000439561E-05,12.83203125,0,0
-4.1930175939342E-05,1.25863825815031E-05,12.83203125,0,0
-4.08153973694425E-05,1.00044335340499E-05,12.83203125,0,0
-4.160761818639E-05,8.52609537105309E-06,12.83203125,0,0
-4.13957095588557E-05,6.90570823280723E-06,12.83203125,0,0
-4.26683072873857E-05,6.12368376096128E-06,12.83203125,0,0
-4.33010100095999E-05,6.16262468611239E-06,12.83203125,0,0
-4.43656208517496E-05,7.29914836483658E-06,12.83203125,0,0
-4.40784933743998E-05,6.88749832988833E-06,12.83203125,0,0
-4.296560655348E-05,6.99701104167616E-06,12.83203125,0,0
-3.27688430843409E-05,7.231188192236E-06,12.83203125,0,0
-4.45767946075648E-05,1.18191001092782E-05,12.83203125,0,0
-3.08023300021887E-05,1.02486419564229E-05,12.83203125,0,0
-3.73717048205435E-05,1.10948931251187E-05,12.83203125,0,0
-2.72064626187785E-05,9.45183728617849E-06,12.83203125,0,0
-2.85485202766722E-05,1.09320553747239E-05,12.83203125,0,0
-2.003850931942E-05,1.24649095596396E-05,12.83203125,0,0
-1.65576293511549E-05,1.41587079269812E-05,12.83203125,0,0
-9.73707756202202E-06,1.29281770568923E-05,12.83203125,0,0
-4.47768070443999E-06,1.25535689221579E-05,12.83203125,0,0
-7.82703395429962E-08,1.44354698932148E-05,12.83203125,0,0
4.97206428917707E-06,1.63256609084783E-05,12.83203125,0,0
5.89170531384298E-06,1.80443275894504E-05,12.83203125,0,0
7.38718154025264E-06,1.75463737832615E-05,12.83203125,0,0
3.5780910820904E-06,1.47401169670047E-05,12.83203125,0,0
3.47329864780477E-06,1.08371286842157E-05,12.83203125,0,0
