biceps_emg, triceps_emg, subject_position, position_estimate, brace_position
3.88882926927181E-06,-2.56953571806662E-05,1.93359375,0,0
4.12470126320841E-06,-2.43632748606615E-05,1.93359375,0,0
3.64881157111085E-06,-2.19480534724426E-05,1.93359375,0,0
4.18783565692138E-06,-2.17980777961202E-05,1.93359375,0,0
5.37148298462853E-06,-2.10562775464496E-05,1.93359375,0,0
6.26245082457899E-06,-2.30781897698762E-05,1.93359375,0,0
5.5473487918789E-06,-2.17623055505101E-05,1.93359375,0,0
4.42811642642482E-06,-2.10918769880664E-05,1.93359375,0,0
3.93891014027759E-06,-1.98049237951636E-05,1.93359375,0,0
4.35382207797375E-06,-2.23788501898525E-05,1.93359375,0,0
4.1351604522788E-06,-2.30049754463835E-05,1.93359375,0,0
4.23949313699268E-06,-2.38269858527929E-05,1.93359375,0,0
4.99864518133109E-06,-2.31725407502381E-05,1.93359375,0,0
6.25203847448574E-06,-2.22081835090648E-05,1.93359375,0,0
6.68711390972021E-06,-1.93848845810862E-05,1.93359375,0,0
5.65464597457321E-06,-1.87156183528714E-05,1.93359375,0,0
4.63089781987946E-06,-1.72133095475147E-05,1.93359375,0,0
6.08373966315412E-06,-1.28398341985303E-05,1.93359375,0,0
5.57020530322916E-06,-7.65107961342437E-06,1.93359375,0,0
7.28886834622244E-06,-1.16013670776738E-05,1.93359375,0,0
5.96621248405427E-06,-1.05654244180187E-05,1.93359375,0,0
9.32489183469443E-06,-1.28577557916287E-05,1.93359375,0,0
8.40862321638269E-06,-1.07477890196606E-05,1.93359375,0,0
7.56735926188412E-06,-1.2237948794791E-05,1.93359375,0,0
3.60292051482247E-06,-1.36851667775773E-05,1.93359375,0,0
2.08970686799148E-06,-1.57510585268028E-05,1.93359375,0,0
1.18640639357181E-06,-1.41237233037828E-05,1.93359375,0,0
1.9983882282304E-07,-1.29744184960146E-05,1.93359375,0,0
-7.63311959417479E-07,-1.45473040902289E-05,1.93359375,0,0
-6.18839862909226E-07,-1.56381211127155E-05,1.93359375,0,0
2.08841015592043E-06,-1.49044108184171E-05,1.93359375,0,0
2.73252521765244E-06,-1.32078866954544E-05,1.93359375,0,0
1.96476503333543E-06,-1.43830466186046E-05,1.93359375,0,0
3.77218384528533E-07,-1.53625314851524E-05,1.93359375,0,0
3.46686846341981E-07,-1.65583514899481E-05,1.93359375,0,0
6.21389801835903E-07,-1.57313188537955E-05,1.93359375,0,0
1.60881222655007E-06,-1.52439461089671E-05,1.93359375,0,0
1.42687588322588E-06,-1.53916371345986E-05,1.93359375,0,0
1.89766876701469E-06,-1.66695954249008E-05,1.93359375,0,0
2.91068568003539E-06,-1.70949588209623E-05,1.93359375,0,0
3.24562552123098E-06,-1.93024297914235E-05,1.93359375,0,0
1.00565375760198E-06,-2.0250601664884E-05,1.93359375,0,0
-9.09446100649802E-07,-1.88124140549917E-05,1.93359375,0,0
-6.93249376126914E-07,-1.94012282008771E-05,1.93359375,0,0
3.75562223098314E-07,-2.14509072975488E-05,1.93359375,0,0
2.33492528423085E-06,-1.53473683894845E-05,1.93359375,0,0
4.8462948143424E-06,-1.90139162441483E-05,1.93359375,0,0
4.69311044071219E-06,-1.1287259439996E-05,1.93359375,0,0
2.52162317337934E-06,-1.61570023919921E-05,1.93359375,0,0
1.11174142602977E-06,-1.21020384540316E-05,1.93359375,0,0
3.00747069559293E-06,-1.48741992234136E-05,1.93359375,0,0
3.77316223421076E-06,-1.50174601003528E-05,1.93359375,0,0
3.02910052596417E-06,-1.67999751283787E-05,1.93359375,0,0
1.98847192223184E-06,-1.74396427610191E-05,1.93359375,0,0
1.01893624560034E-06,-1.9809545847238E-05,1.93359375,0,0
4.94542689466471E-07,-2.14337087527383E-05,1.93359375,0,0
5.73772979350906E-07,-2.14536612475058E-05,1.93359375,0,0
1.30645321405609E-06,-2.15017735172296E-05,1.93359375,0,0
2.47264665631519E-06,-1.93258638319094E-05,1.93359375,0,0
3.61514867108781E-06,-1.85043518285966E-05,1.93359375,0,0
4.01251782022882E-06,-1.57280883286148E-05,1.93359375,0,0
3.48920616488613E-06,-1.6055979358498E-05,1.93359375,0,0
2.413850324956E-06,-1.59130013344111E-05,1.93359375,0,0
2.48446463047003E-06,-1.65633391588926E-05,1.93359375,0,0
3.20718027069233E-06,-1.43060169648379E-05,1.93359375,0,0
3.77173500965E-06,-1.37450615511625E-05,1.93359375,0,0
3.74671594727261E-06,-1.37058241307386E-05,1.93359375,0,0
3.50349819200346E-06,-1.47496466524899E-05,1.93359375,0,0
2.87419720734761E-06,-1.426909420843E-05,1.93359375,0,0
2.89384206553223E-06,-1.51526273839409E-05,1.93359375,0,0
3.42511430062586E-06,-1.61860371008515E-05,1.93359375,0,0
3.3025642096618E-06,-1.63239910762059E-05,1.93359375,0,0
1.77159165559715E-06,-1.37708047986962E-05,1.93359375,0,0
2.3831064481783E-06,-2.11028727790108E-05,1.93359375,0,0
2.99251814794843E-06,-1.97377339645755E-05,1.93359375,0,0
4.48705895905732E-06,-2.55500599450897E-05,1.93359375,0,0
3.10952418658417E-06,-2.18400400626706E-05,1.93359375,0,0
2.43337763095042E-06,-2.21173813770292E-05,1.93359375,0,0
2.20334572986758E-06,-2.13440598599846E-05,1.93359375,0,0
2.22929224946711E-06,-2.19536668737419E-05,1.93359375,0,0
1.35392497213616E-06,-1.82663534360472E-05,1.93359375,0,0
1.5632497252227E-06,-1.35742411657702E-05,1.93359375,0,0
2.31056719712797E-06,-1.08635240394506E-05,1.93359375,0,0
2.57215992860438E-06,-9.77696345216827E-06,1.93359375,0,0
1.95970528693579E-06,-1.14264003059361E-05,1.93359375,0,0
3.32368358613166E-07,-1.21252378448844E-05,1.93359375,0,0
-1.83838096745603E-07,-1.2951959433849E-05,1.93359375,0,0
1.24977725590725E-06,-1.07929154182784E-05,1.93359375,0,0
3.64060974789027E-06,-1.03579286587774E-05,1.93359375,0,0
4.14624810218811E-06,-9.94577840174316E-06,1.93359375,0,0
3.66312269761693E-06,-1.3094638234179E-05,1.93359375,0,0
3.48679122907924E-06,-1.65671463037143E-05,1.93359375,0,0
3.78965773961681E-06,-1.94760195881827E-05,1.93359375,0,0
2.95476138489903E-06,-1.9132607121719E-05,1.93359375,0,0
1.88646265542047E-06,-1.749944385665E-05,1.93359375,0,0
1.12663917661848E-06,-1.53539258462843E-05,1.93359375,0,0
9.8639645784715E-07,-1.37953256853507E-05,1.93359375,0,0
3.69461787386172E-07,-1.28939054775401E-05,1.93359375,0,0
-2.94883164997373E-07,-1.36596554511925E-05,1.93359375,0,0
1.48933295918141E-07,-1.28174724522978E-05,1.93359375,0,0
1.23259826523281E-06,-1.86953748197993E-05,1.93359375,0,0
1.9402934867685E-06,-1.55351135617821E-05,1.93359375,0,0
2.23296342483081E-06,-2.04905572900316E-05,1.93359375,0,0
2.90245498035802E-06,-1.88854828593321E-05,1.93359375,0,0
3.10486893795314E-06,-2.02253377210582E-05,1.93359375,0,0
3.77844958165952E-06,-1.77373603946762E-05,1.93359375,0,0
3.5216114611103E-06,-1.67675152624724E-05,1.93359375,0,0
3.82520011044107E-06,-1.55500056280289E-05,1.93359375,0,0
4.3478225961735E-06,-1.60187391884392E-05,1.93359375,0,0
3.71284863831534E-06,-1.83752999873832E-05,1.93359375,0,0
3.04314335153322E-06,-2.02477931452449E-05,1.93359375,0,0
2.82963310382911E-06,-2.09934387385147E-05,1.93359375,0,0
2.4529904294468E-06,-1.92317311302759E-05,1.93359375,0,0
2.16321814150433E-06,-1.88490721484413E-05,1.93359375,0,0
3.58824172508321E-06,-1.70560251717689E-05,1.93359375,0,0
5.67210372537375E-06,-1.65715773619013E-05,1.93359375,0,0
7.12589007889619E-06,-1.51328567881137E-05,1.93359375,0,0
7.72150542616146E-06,-1.60210238391301E-05,1.93359375,0,0
7.91344882600242E-06,-1.6768617570051E-05,1.93359375,0,0
7.90494050306734E-06,-1.6739084458095E-05,1.93359375,0,0
7.84217445470858E-06,-1.38327750391909E-05,1.93359375,0,0
7.06656146576279E-06,-1.30591570268734E-05,1.93359375,0,0
7.18787077857996E-06,-1.36824146466097E-05,1.93359375,0,0
8.11764039099216E-06,-1.51713684317656E-05,1.93359375,0,0
7.28059148968896E-06,-1.72787458723178E-05,1.93359375,0,0
5.67617371416418E-06,-1.80219994945219E-05,1.93359375,0,0
3.39194070875237E-06,-1.32043142002658E-05,1.93359375,0,0
4.98232520840247E-06,-1.83800566446735E-05,1.93359375,0,0
4.87677243654616E-06,-1.49944016811787E-05,1.93359375,0,0
5.89771843806375E-06,-1.99788391910261E-05,1.93359375,0,0
2.86190629594785E-06,-1.72281015693443E-05,1.93359375,0,0
1.93604296327976E-06,-1.78939317265758E-05,1.93359375,0,0
2.66058714259998E-06,-1.55160741996951E-05,1.93359375,0,0
5.56332588530495E-06,-1.77650290424936E-05,1.93359375,0,0
6.59875013298006E-06,-1.76420107891317E-05,1.93359375,0,0
5.83189103053883E-06,-1.66511308634654E-05,1.93359375,0,0
4.64642789665959E-06,-1.65900037245592E-05,1.93359375,0,0
2.45620663008594E-06,-1.73871958395466E-05,1.93359375,0,0
7.23595405816013E-07,-1.8459026250639E-05,1.93359375,0,0
3.33897730797617E-07,-1.71681094798259E-05,1.93359375,0,0
1.35304026116501E-06,-1.60430899995845E-05,1.93359375,0,0
1.82111546109809E-06,-1.27804441945045E-05,1.93359375,0,0
2.58736486102862E-06,-1.29691006804933E-05,1.93359375,0,0
2.35621746469405E-06,-1.27465864352416E-05,1.93359375,0,0
1.72188617852953E-06,-1.3090975699015E-05,1.93359375,0,0
1.85064163815696E-06,-1.17211611723178E-05,1.93359375,0,0
2.63921583609772E-06,-1.21625198516995E-05,1.93359375,0,0
8.67924256908736E-07,-1.22841129268636E-05,1.93359375,0,0
-1.35888615204749E-06,-1.35696027427912E-05,1.93359375,0,0
-1.22543474390113E-06,-1.43405768540106E-05,1.93359375,0,0
1.78343839252193E-06,-1.57842860062374E-05,1.93359375,0,0
4.93525658384897E-06,-1.72562231455231E-05,1.93359375,0,0
4.37218614024459E-06,-1.83283154910896E-05,1.93359375,0,0
2.73548323548312E-07,-1.33500770971295E-05,1.93359375,0,0
-6.6385814534442E-07,-1.84326745511498E-05,1.93359375,0,0
-1.36170854148077E-06,-1.53396504174452E-05,1.93359375,0,0
-1.01506714145216E-06,-2.11773913179059E-05,1.93359375,0,0
-1.64744176345266E-06,-1.98788402485661E-05,1.93359375,0,0
-1.52524660279596E-06,-2.14635547308717E-05,1.93359375,0,0
-8.84573182702297E-07,-1.71437441167654E-05,1.93359375,0,0
7.8808773196215E-07,-1.64663324540015E-05,1.93359375,0,0
3.12183351525164E-06,-1.5707566490164E-05,1.93359375,0,0
5.6317612688872E-06,-1.64117318490753E-05,1.93359375,0,0
6.33174749964383E-06,-1.71960327861598E-05,1.93359375,0,0
5.48605203221086E-06,-1.79450616997201E-05,1.93359375,0,0
5.70539168620599E-06,-1.99180485651596E-05,1.93359375,0,0
6.17034311289899E-06,-1.94203785213176E-05,1.93359375,0,0
6.2457556850859E-06,-1.92413899640087E-05,1.93359375,0,0
6.422840669984E-06,-1.80572860699613E-05,1.93359375,0,0
6.99399106451892E-06,-1.92484749277355E-05,1.93359375,0,0
6.99795782566071E-06,-1.90898226719582E-05,1.93359375,0,0
6.10014058111119E-06,-2.1895853933529E-05,1.93359375,0,0
4.87401530335774E-06,-2.48070246016141E-05,1.93359375,0,0
5.35427943759714E-06,-2.87597285932861E-05,1.93359375,0,0
7.39233291824348E-06,-3.00592328130733E-05,1.93359375,0,0
9.52989557845285E-06,-3.19323225994594E-05,1.93359375,0,0
1.04615319287404E-05,-3.12319461954758E-05,1.93359375,0,0
9.3859252956463E-06,-2.67782070295652E-05,1.93359375,0,0
7.7873446571175E-06,-2.16932530747727E-05,1.93359375,0,0
6.62491356706596E-06,-2.12817321880721E-05,1.93359375,0,0
4.61568288301351E-06,-1.86419783858582E-05,1.93359375,0,0
5.40893552170019E-06,-2.71792014245875E-05,1.93359375,0,0
2.77832987194415E-06,-2.17833257920574E-05,1.93359375,0,0
4.63644119008677E-06,-2.66091119556222E-05,1.93359375,0,0
4.61762874692795E-06,-2.20903002627892E-05,1.93359375,0,0
5.65147593079018E-06,-2.38233515119646E-05,1.93359375,0,0
3.00950387099874E-06,-2.12916365853744E-05,1.93359375,0,0
8.1393591244705E-07,-2.31478825298836E-05,1.93359375,0,0
5.11047346662963E-08,-2.2868174710311E-05,1.93359375,0,0
8.90931232788716E-07,-2.17992255784338E-05,1.93359375,0,0
2.38845200328797E-06,-2.08397850656183E-05,1.93359375,0,0
3.82282178179594E-06,-1.88925132533768E-05,1.93359375,0,0
5.45974580745678E-06,-1.78020200110041E-05,1.93359375,0,0
5.94276343690581E-06,-1.45310632433393E-05,1.93359375,0,0
6.65112929709721E-06,-1.28772144307732E-05,1.93359375,0,0
6.26279324933421E-06,-1.07950936580892E-05,1.93359375,0,0
5.37738242201158E-06,-1.27384164443356E-05,1.93359375,0,0
3.7050203900435E-06,-1.29263407870894E-05,1.93359375,0,0
3.50804157278617E-06,-1.4873405234539E-05,1.93359375,0,0
2.74260014521133E-06,-1.51733347593108E-05,1.93359375,0,0
1.23225311199349E-06,-1.57664453581674E-05,1.93359375,0,0
-6.33050717624428E-07,-1.43419792948407E-05,1.93359375,0,0
-6.51970367471222E-07,-1.4481028301816E-05,1.93359375,0,0
7.03690091086173E-07,-1.44844725582516E-05,1.93359375,0,0
2.04548496185453E-06,-1.62534124683589E-05,1.93359375,0,0
1.71367173606995E-06,-1.88981848623371E-05,1.93359375,0,0
-1.45439443599571E-07,-2.03301751753315E-05,1.93359375,0,0
1.90349815909485E-08,-1.64907323778607E-05,1.93359375,0,0
1.42691078508506E-06,-2.40560111706145E-05,1.93359375,0,0
1.3599295698441E-06,-1.94496587937465E-05,1.93359375,0,0
-1.56803787376703E-06,-2.23106053454103E-05,1.93359375,0,0
-3.11358144244878E-06,-1.63996610353934E-05,1.93359375,0,0
-3.29351723848959E-06,-1.75635286723264E-05,1.93359375,0,0
-2.47874118031177E-06,-1.47404243762139E-05,1.93359375,0,0
-2.07917423722392E-06,-1.59369410539512E-05,1.93359375,0,0
-1.12678094410512E-06,-1.77541442099027E-05,1.93359375,0,0
-1.82398423476116E-07,-2.04011321329745E-05,1.93359375,0,0
6.78062576753291E-07,-2.29617889999645E-05,1.93359375,0,0
1.70167970736657E-06,-2.33505597861949E-05,1.93359375,0,0
1.46965169278701E-06,-2.47382176894462E-05,1.93359375,0,0
4.91589730700071E-07,-2.55959621426882E-05,1.93359375,0,0
1.38743189381785E-06,-2.78173229162348E-05,1.93359375,0,0
4.03998501496972E-06,-2.74940211966168E-05,1.93359375,0,0
4.93958077640855E-06,-2.87702187051764E-05,1.93359375,0,0
3.88917715099524E-06,-2.69746815320104E-05,1.93359375,0,0
3.2166906294151E-06,-2.44237053266261E-05,1.93359375,0,0
4.50498191639781E-06,-2.02882147277705E-05,1.93359375,0,0
5.80506002734182E-06,-1.97850822587498E-05,1.93359375,0,0
5.93363301959471E-06,-1.92938823602162E-05,1.93359375,0,0
5.69945814277162E-06,-1.61886600835714E-05,1.93359375,0,0
5.15837746206671E-06,-1.01405385066755E-05,1.93359375,0,0
4.86776934849331E-06,-7.5577058851195E-06,1.93359375,0,0
5.79452853344264E-06,-7.48769707570318E-06,1.93359375,0,0
5.94396260567009E-06,-8.31001580081647E-06,1.93359375,0,0
3.38478093908634E-06,-6.1590876612172E-06,1.93359375,0,0
2.75296815743786E-06,-8.80943662195932E-06,1.93359375,0,0
-1.44819296110654E-07,-7.741329682176E-06,1.93359375,0,0
1.0790856777021E-06,-1.09213706309674E-05,1.93359375,0,0
5.36247284799174E-07,-1.17853915071464E-05,1.93359375,0,0
2.88836213258037E-06,-1.41109358082758E-05,1.93359375,0,0
4.38046390627278E-06,-1.27071334645734E-05,1.93359375,0,0
5.98453834754764E-06,-1.13461355795152E-05,1.93359375,0,0
5.79637435293989E-06,-1.02984176919563E-05,1.93359375,0,0
4.93643528898247E-06,-1.09548427644768E-05,1.93359375,0,0
4.92698200105224E-06,-1.21325638247072E-05,1.93359375,0,0
5.7037323131226E-06,-1.22093970276183E-05,1.93359375,0,0
5.80300547881052E-06,-1.26338109112112E-05,1.93359375,0,0
3.89602018913138E-06,-1.29430418382981E-05,1.93359375,0,0
3.20135450238013E-06,-1.37595925480127E-05,1.93359375,0,0
3.62237392437237E-06,-1.28856063383864E-05,1.93359375,0,0
5.13975874127937E-06,-1.19087080747704E-05,1.93359375,0,0
5.91667048865929E-06,-1.11302224468091E-05,1.93359375,0,0
6.17273235548055E-06,-1.2771449291904E-05,1.93359375,0,0
5.22188929608092E-06,-1.40114989335416E-05,1.93359375,0,0
4.25689904659521E-06,-1.3673993635166E-05,1.93359375,0,0
2.7177443371329E-06,-1.27871571748983E-05,1.93359375,0,0
3.24958273267839E-06,-1.35924228743534E-05,1.93359375,0,0
4.54501150670694E-06,-1.34476840685238E-05,1.93359375,0,0
4.95562971991603E-06,-1.23511745186988E-05,1.93359375,0,0
4.71095199827687E-06,-1.15883976832265E-05,1.93359375,0,0
5.42475208931137E-06,-1.18564184958814E-05,1.93359375,0,0
5.3008538998256E-06,-9.11672123038443E-06,1.93359375,0,0
6.76648141961778E-06,-1.27089824673021E-05,1.93359375,0,0
4.34601588494843E-06,-8.73326007422293E-06,1.93359375,0,0
6.74100465403171E-06,-9.90516855381429E-06,1.93359375,0,0
6.11157975072274E-06,-8.26743143989006E-06,1.93359375,0,0
6.60396335661062E-06,-1.11141062006936E-05,1.93359375,0,0
5.36684638063889E-06,-1.08741915028077E-05,1.93359375,0,0
3.4196298202005E-06,-1.27596549646114E-05,1.93359375,0,0
1.82281246452476E-06,-1.50119085446931E-05,1.93359375,0,0
2.27192890633887E-06,-1.70544681168394E-05,1.93359375,0,0
2.54895894613583E-06,-1.74707547557773E-05,1.93359375,0,0
2.27850568990107E-06,-1.75074019352905E-05,1.93359375,0,0
1.9849649106618E-06,-1.94418244063854E-05,1.93359375,0,0
2.01793591259047E-06,-2.04797779588262E-05,1.93359375,0,0
3.27778298014891E-06,-2.15696309169289E-05,1.93359375,0,0
2.48788455792237E-06,-2.06996155611705E-05,1.93359375,0,0
1.50157131884043E-06,-2.031255280599E-05,1.93359375,0,0
9.87319253908936E-07,-1.88485937542282E-05,1.93359375,0,0
1.16059868560114E-06,-1.79068847501185E-05,1.93359375,0,0
2.45294813794317E-07,-1.57728100020904E-05,1.93359375,0,0
1.85968119126301E-07,-1.44126279337797E-05,1.93359375,0,0
1.11000599645195E-06,-1.26591303342138E-05,1.93359375,0,0
3.62374817086675E-06,-1.32017721625743E-05,1.93359375,0,0
4.79769778394257E-06,-1.492759474786E-05,1.93359375,0,0
3.7617185171257E-06,-1.54394747369224E-05,1.93359375,0,0
1.89120896720851E-06,-1.41497075674124E-05,1.93359375,0,0
1.05080937373714E-06,-1.29959471451002E-05,1.93359375,0,0
1.24439532100951E-06,-1.10334940472967E-05,1.93359375,0,0
1.85317048817524E-06,-1.72468571690843E-05,1.93359375,0,0
1.03237744042417E-06,-1.55085726873949E-05,1.93359375,0,0
5.56948371865928E-08,-1.8183445718023E-05,1.93359375,0,0
-1.07514415503829E-06,-1.5438143236679E-05,1.93359375,0,0
-1.36677681439323E-06,-1.63878321473021E-05,1.93359375,0,0
-1.02110402622202E-06,-1.56796540977666E-05,1.93359375,0,0
-2.84494205970987E-07,-1.8420856576995E-05,1.93359375,0,0
-1.88743172202521E-07,-1.97811586986063E-05,1.93359375,0,0
1.70689347100961E-08,-2.02108549274271E-05,1.93359375,0,0
9.66158950177487E-07,-1.8423317669658E-05,1.93359375,0,0
1.44147543323925E-06,-1.54823992488673E-05,1.93359375,0,0
7.98098710674822E-07,-1.53981272887904E-05,1.93359375,0,0
2.48972071403841E-07,-1.56947317009326E-05,1.93359375,0,0
5.23036646882247E-07,-1.56663572852267E-05,1.93359375,0,0
1.19785113383841E-06,-1.27088887893478E-05,1.93359375,0,0
1.98377711058129E-06,-1.09282364064711E-05,1.93359375,0,0
2.39646033151075E-06,-8.90706360223703E-06,1.93359375,0,0
2.10495659302978E-06,-9.48923388932599E-06,1.93359375,0,0
8.33564968161227E-07,-1.04215450846823E-05,1.93359375,0,0
-1.14693570196778E-07,-1.26167342386907E-05,1.93359375,0,0
5.39759071216395E-07,-1.37008810270345E-05,1.93359375,0,0
3.14812268698006E-06,-1.54954250319861E-05,1.93359375,0,0
5.07833146912162E-06,-1.69034829013981E-05,1.93359375,0,0
5.06569176650373E-06,-1.82185813173419E-05,1.93359375,0,0
4.23868959842366E-06,-2.07763023354346E-05,1.93359375,0,0
4.15746535509243E-06,-2.42506248468999E-05,1.93359375,0,0
4.21980894316221E-06,-2.19077246583765E-05,1.93359375,0,0
7.05124875821639E-06,-3.28763526340481E-05,1.93359375,0,0
6.35237938695354E-06,-2.83686913462589E-05,1.93359375,0,0
6.05139757681172E-06,-3.59337536792737E-05,1.93359375,0,0
5.19674495080835E-06,-3.01855525322026E-05,1.93359375,0,0
8.29155578685459E-06,-3.01317832054337E-05,1.93359375,0,0
9.9304133982514E-06,-2.81805696431547E-05,1.93359375,0,0
1.02790718301549E-05,-3.07665832224302E-05,1.93359375,0,0
8.46838338475209E-06,-2.93445264105685E-05,1.93359375,0,0
6.8276654019428E-06,-2.72400156973163E-05,1.93359375,0,0
6.44201190880267E-06,-2.38387201534351E-05,1.93359375,0,0
6.21027629676973E-06,-1.96158071048558E-05,1.93359375,0,0
6.15903809375595E-06,-1.83120155270444E-05,1.93359375,0,0
5.41040117241209E-06,-1.73816715687281E-05,1.93359375,0,0
4.69863562102546E-06,-1.92302559298696E-05,1.93359375,0,0
3.58598299499135E-06,-1.73519729287364E-05,1.93359375,0,0
3.57770340997376E-06,-1.69497707247501E-05,1.93359375,0,0
3.97978874389082E-06,-1.41725822686567E-05,1.93359375,0,0
5.0111448217649E-06,-1.37667211674852E-05,1.93359375,0,0
4.21016966356547E-06,-1.14776703412645E-05,1.93359375,0,0
2.17731849261327E-06,-1.0967543857987E-05,1.93359375,0,0
1.29063653275807E-06,-1.00754250524915E-05,1.93359375,0,0
3.08589164887962E-06,-1.16294286272023E-05,1.93359375,0,0
4.48224182036938E-06,-1.27098828670569E-05,1.93359375,0,0
4.49071058028494E-06,-1.48642457133974E-05,1.93359375,0,0
3.70535599358846E-06,-1.64834727911511E-05,1.93359375,0,0
2.33396076509962E-06,-1.7274753190577E-05,1.93359375,0,0
5.50940910670761E-07,-1.10471992229577E-05,1.93359375,0,0
1.03215882063523E-06,-1.38180685098632E-05,1.93359375,0,0
1.35486277486052E-06,-1.1564437954803E-05,1.93359375,0,0
2.08345227292739E-06,-1.91957224160433E-05,1.93359375,0,0
2.53914140557754E-06,-1.738697210385E-05,1.93359375,0,0
1.39074518301641E-06,-1.73863882082514E-05,1.93359375,0,0
-7.0219283543338E-07,-1.49101751958369E-05,1.93359375,0,0
-2.45710538138155E-07,-1.53854434756795E-05,1.93359375,0,0
1.6718099686841E-06,-1.46027196024079E-05,1.93359375,0,0
2.37082826970436E-06,-1.53015935211442E-05,1.93359375,0,0
1.28758142636798E-06,-1.70040566445095E-05,1.93359375,0,0
-3.28119028836227E-07,-1.69067607203033E-05,1.93359375,0,0
-8.69667928782292E-07,-1.65939090948086E-05,1.93359375,0,0
-8.6602319981921E-08,-1.61187617777614E-05,1.93359375,0,0
5.05103571413201E-07,-1.84371456271037E-05,1.93359375,0,0
1.08484732308511E-08,-2.07591765502002E-05,1.93359375,0,0
-1.11282292891701E-06,-2.44485290750163E-05,1.93359375,0,0
-1.74968624833127E-06,-2.40195349761052E-05,1.93359375,0,0
-1.20523407076689E-06,-2.22448725253344E-05,1.93359375,0,0
-4.15130244846296E-07,-1.93512387340888E-05,1.93359375,0,0
-5.16579575560172E-07,-1.9242157577537E-05,1.93359375,0,0
-1.63207266723475E-06,-1.93125433725072E-05,1.93359375,0,0
-2.17585329664871E-06,-1.99685473489808E-05,1.93359375,0,0
-5.6708995543886E-07,-2.09270183404442E-05,1.93359375,0,0
2.45960427491809E-06,-2.24213636101922E-05,1.93359375,0,0
4.05911305279005E-06,-2.05865035241004E-05,1.93359375,0,0
3.41047689289553E-06,-1.63419172167778E-05,1.93359375,0,0
2.18167588172946E-06,-9.80631375568919E-06,1.93359375,0,0
2.30259433919855E-06,-1.27476932902937E-05,1.93359375,0,0
-8.04471596893563E-07,-8.64855792315211E-06,1.93359375,0,0
-1.10699807009951E-06,-1.19794931379147E-05,1.93359375,0,0
3.14716373850388E-07,-1.1094306501036E-05,1.93359375,0,0
3.23386075251619E-06,-1.35141672217287E-05,1.93359375,0,0
4.98031658935361E-06,-1.28816336655291E-05,1.93359375,0,0
4.76860031994875E-06,-1.57388785737567E-05,1.93359375,0,0
4.79333448311081E-06,-1.80979932338232E-05,1.93359375,0,0
6.18113790551433E-06,-1.92171537491959E-05,1.93359375,0,0
5.96177460465697E-06,-1.93322393897688E-05,1.93359375,0,0
4.46828880740213E-06,-1.82935345947044E-05,1.93359375,0,0
4.39462610302144E-06,-1.73359676409746E-05,1.93359375,0,0
4.99454426972079E-06,-1.66550580615876E-05,1.93359375,0,0
5.51901166545576E-06,-1.91077360796044E-05,1.93359375,0,0
4.96869051858084E-06,-1.99602491193218E-05,1.93359375,0,0
3.99036161979893E-06,-1.91987892321777E-05,1.93359375,0,0
3.48253001902776E-06,-1.60165818670066E-05,1.93359375,0,0
5.07173899677582E-06,-1.54788358486257E-05,1.93359375,0,0
6.86825433149352E-06,-1.55665602505906E-05,1.93359375,0,0
6.94618483976228E-06,-1.65137189469533E-05,1.93359375,0,0
5.66794915357605E-06,-1.58236452989513E-05,1.93359375,0,0
5.01935755892191E-06,-1.49246097862488E-05,1.93359375,0,0
5.87317890676786E-06,-1.36201433633687E-05,1.93359375,0,0
6.81102392263711E-06,-1.37126198751503E-05,1.93359375,0,0
6.65263814880745E-06,-1.51518206621404E-05,1.93359375,0,0
6.75510136716184E-06,-1.65440051205223E-05,1.93359375,0,0
6.66125652060146E-06,-1.40218216984067E-05,1.93359375,0,0
8.70131952979136E-06,-2.0458952349145E-05,1.93359375,0,0
4.05073615183937E-06,-1.62075048137922E-05,1.93359375,0,0
4.23326491727494E-06,-2.08574110729387E-05,1.93359375,0,0
2.94044912152458E-06,-1.89510010386584E-05,1.93359375,0,0
4.14071109844372E-06,-2.10278885788284E-05,1.93359375,0,0
5.22663276569801E-06,-2.10989092011005E-05,1.93359375,0,0
8.00302677816944E-06,-2.45581341005163E-05,1.93359375,0,0
8.41985274746548E-06,-2.5721121346578E-05,1.93359375,0,0
6.6231104938197E-06,-2.59282787737902E-05,1.93359375,0,0
3.97405119656469E-06,-2.6813901058631E-05,1.93359375,0,0
2.58786394624622E-06,-2.70291238848586E-05,1.93359375,0,0
3.11003464048554E-06,-2.6526024157647E-05,1.93359375,0,0
3.71634905604878E-06,-2.32246093219146E-05,1.93359375,0,0
4.86184217152186E-06,-2.09623485716293E-05,1.93359375,0,0
4.94537607664824E-06,-1.84454020200064E-05,1.93359375,0,0
4.78998481412418E-06,-1.93667874555103E-05,1.93359375,0,0
2.81089523923583E-06,-1.89619331649737E-05,1.93359375,0,0
7.20993000413728E-07,-1.89989150385372E-05,1.93359375,0,0
-1.22463552543195E-06,-1.68891292560147E-05,1.93359375,0,0
3.20702838507714E-07,-1.50462028614129E-05,1.93359375,0,0
2.49342838287703E-06,-1.30547896333155E-05,1.93359375,0,0
3.42882867698791E-06,-1.29249947349308E-05,1.93359375,0,0
2.58097747973807E-06,-1.37931328936247E-05,1.93359375,0,0
2.37493350141449E-06,-1.50812848005444E-05,1.93359375,0,0
3.19377068080939E-06,-1.57408030645456E-05,1.93359375,0,0
4.36827667726902E-06,-1.54839781316696E-05,1.93359375,0,0
4.0878139770939E-06,-1.15887532956549E-05,1.93359375,0,0
4.74888656754047E-06,-1.61695825227071E-05,1.93359375,0,0
2.27047939915792E-06,-1.21706370919128E-05,1.93359375,0,0
2.63082870333164E-06,-1.55327870743349E-05,1.93359375,0,0
8.94306197096739E-07,-1.3875756849302E-05,1.93359375,0,0
2.12539134736289E-06,-1.50951227624319E-05,1.93359375,0,0
1.98203952095355E-06,-1.26854347399785E-05,1.93359375,0,0
1.22133440072503E-06,-1.31160022647236E-05,1.93359375,0,0
1.00446300166368E-06,-1.27299299492734E-05,1.93359375,0,0
2.28212684305618E-06,-1.40935999297653E-05,1.93359375,0,0
3.53736140823457E-06,-1.59201536007458E-05,1.93359375,0,0
4.41941710960236E-06,-1.55474681378109E-05,1.93359375,0,0
5.17787202625186E-06,-1.56364967551781E-05,1.93359375,0,0
4.16720831708517E-06,-1.50508658407489E-05,1.93359375,0,0
3.93890877603553E-06,-1.54812660184689E-05,1.93359375,0,0
4.39878158431384E-06,-1.46684369610739E-05,1.93359375,0,0
5.14869316248223E-06,-1.44739169627428E-05,1.93359375,0,0
4.06397248298163E-06,-1.14926069727517E-05,1.93359375,0,0
2.26595057029044E-06,-1.06058787423535E-05,1.93359375,0,0
-2.58491326121657E-08,-1.07117193692829E-05,1.93359375,0,0
-3.17665040938664E-08,-1.29005902635981E-05,1.93359375,0,0
1.06838263036479E-06,-1.4970973097661E-05,1.93359375,0,0
1.40683175686718E-06,-1.6939966371865E-05,1.93359375,0,0
1.2914964599986E-06,-1.65611272677779E-05,1.93359375,0,0
2.42381906900846E-06,-1.60596828209236E-05,1.93359375,0,0
3.26373879033781E-06,-1.65562632901128E-05,1.93359375,0,0
3.71653936781513E-06,-1.75350378412986E-05,1.93359375,0,0
3.1310087251768E-06,-1.33374114739127E-05,1.93359375,0,0
4.18885383624001E-06,-1.72605396073777E-05,1.93359375,0,0
2.75589013654098E-06,-1.10808914541849E-05,1.93359375,0,0
3.30454054164875E-06,-1.48508415804827E-05,1.93359375,0,0
2.43235353991622E-06,-1.29887548609986E-05,1.93359375,0,0
1.43975330502144E-06,-1.67007638083305E-05,1.93359375,0,0
-1.09340987819451E-06,-1.69379127328284E-05,1.93359375,0,0
-1.43922682127595E-06,-1.88419380720006E-05,1.93359375,0,0
-1.72467980519286E-06,-1.79008584382245E-05,1.93359375,0,0
-1.60741240051721E-06,-1.7553615180077E-05,1.93359375,0,0
-7.47043202409259E-07,-1.76459216163494E-05,1.93359375,0,0
-5.66541359603434E-07,-1.6995787518681E-05,1.93359375,0,0
-6.67386245822854E-07,-1.80964343599044E-05,1.93359375,0,0
1.3324840608675E-07,-1.87580317287939E-05,1.93359375,0,0
3.05857611238025E-06,-2.08204546652269E-05,1.93359375,0,0
4.45950854555122E-06,-2.06215099751716E-05,1.93359375,0,0
3.43009423886542E-06,-2.19889880099799E-05,1.93359375,0,0
1.89476236300834E-06,-2.11835013033124E-05,1.93359375,0,0
2.46656259150768E-06,-2.11502847378142E-05,1.93359375,0,0
3.97042413169402E-06,-1.9457824237179E-05,1.93359375,0,0
5.26241592524457E-06,-1.89832571777515E-05,1.93359375,0,0
5.03605315316236E-06,-1.88276790140662E-05,1.93359375,0,0
4.61436138721183E-06,-1.98155576072168E-05,1.93359375,0,0
4.34450430475408E-06,-1.98072066268651E-05,1.93359375,0,0
4.67884865429369E-06,-1.97473909793189E-05,1.93359375,0,0
4.58147633253247E-06,-1.94545409613056E-05,1.93359375,0,0
4.63077867607353E-06,-1.98971374629764E-05,1.93359375,0,0
3.67616644325608E-06,-1.56577607413055E-05,1.93359375,0,0
4.69907854494522E-06,-2.15967429539887E-05,1.93359375,0,0
2.96514372166712E-06,-1.6132724340423E-05,1.93359375,0,0
3.61656680070155E-06,-2.10387770493981E-05,1.93359375,0,0
2.62489697888668E-06,-1.7708416635287E-05,1.93359375,0,0
3.64021275345294E-06,-1.90058835869422E-05,1.93359375,0,0
2.74014541901124E-06,-1.64815901371185E-05,1.93359375,0,0
2.11627366297762E-06,-1.71187493833713E-05,1.93359375,0,0
1.45530748341116E-06,-1.62689320859499E-05,1.93359375,0,0
1.56457497269002E-06,-1.60474519361742E-05,1.93359375,0,0
2.64907112068613E-06,-1.60428462550044E-05,1.93359375,0,0
2.84000793726591E-06,-1.53998644236708E-05,1.93359375,0,0
2.65617745753843E-06,-1.65876062965253E-05,1.93359375,0,0
1.93028404282813E-06,-1.77396541403141E-05,1.93359375,0,0
3.01158547699742E-06,-2.09373720281292E-05,1.93359375,0,0
4.78350011690054E-06,-2.10097550734645E-05,1.93359375,0,0
5.15055944561027E-06,-2.0999457774451E-05,1.93359375,0,0
3.23702579407836E-06,-1.84576492756605E-05,1.93359375,0,0
2.46274657911272E-06,-1.77225520019419E-05,1.93359375,0,0
3.36819380208908E-06,-1.63750828505727E-05,1.93359375,0,0
5.55613087271922E-06,-1.75227269210154E-05,1.93359375,0,0
6.03462649451103E-06,-1.72447544173338E-05,1.93359375,0,0
5.15972078574123E-06,-1.63533477461897E-05,1.93359375,0,0
5.22753953191568E-06,-1.40557731356239E-05,1.93359375,0,0
6.11550512985559E-06,-1.30429971250123E-05,1.93359375,0,0
5.90296394875622E-06,-1.35062709887279E-05,1.93359375,0,0
4.65333914689836E-06,-1.40836145874346E-05,1.93359375,0,0
3.27007774103549E-06,-1.22742203529924E-05,1.93359375,0,0
5.82628717893385E-06,-1.75252225744771E-05,1.93359375,0,0
6.14411283095251E-06,-1.38681525641005E-05,1.93359375,0,0
7.68199697631644E-06,-1.73355783772422E-05,1.93359375,0,0
8.18955959402956E-06,-1.54792451212415E-05,1.93359375,0,0
9.07926278159721E-06,-1.86078541446477E-05,1.93359375,0,0
7.68023619457381E-06,-1.8311278836336E-05,1.93359375,0,0
6.58094586469815E-06,-1.92227671504952E-05,1.93359375,0,0
5.61897786610643E-06,-1.82140302058542E-05,1.93359375,0,0
5.13991562911542E-06,-1.71274132299004E-05,1.93359375,0,0
5.6204235079349E-06,-1.67005237017293E-05,1.93359375,0,0
5.16504815095686E-06,-1.57764679897809E-05,1.93359375,0,0
3.97628264181549E-06,-1.53980781760765E-05,1.93359375,0,0
2.34954927691433E-06,-1.32258173834998E-05,1.93359375,0,0
1.16520629944716E-06,-1.25567912618862E-05,1.93359375,0,0
1.02991657513485E-06,-1.17971130748629E-05,1.93359375,0,0
2.36827008848195E-06,-1.41878681461094E-05,1.93359375,0,0
3.40981182489486E-06,-1.55425223056227E-05,1.93359375,0,0
3.41484292221139E-06,-1.73826556419954E-05,1.93359375,0,0
1.49559434703406E-06,-1.84620166692184E-05,1.93359375,0,0
-4.61903965742749E-07,-2.02151386474725E-05,1.93359375,0,0
-5.61931130960147E-07,-2.00830745598068E-05,1.93359375,0,0
1.91324647857982E-06,-2.01335406018188E-05,1.93359375,0,0
4.05293076255475E-06,-1.98232628463302E-05,1.93359375,0,0
4.60778846900212E-06,-1.97034732991597E-05,1.93359375,0,0
4.2087767724297E-06,-1.91996150533669E-05,1.93359375,0,0
2.69524957730027E-06,-1.97956378542585E-05,1.93359375,0,0
-1.40650499247386E-07,-1.75639852386666E-05,1.93359375,0,0
-9.76082560555369E-07,-2.49613094638335E-05,1.93359375,0,0
-1.61755068006642E-07,-1.7384087186656E-05,1.93359375,0,0
1.8388127500657E-06,-2.06191634788411E-05,1.93359375,0,0
3.25616974805598E-06,-1.9100680219708E-05,1.93359375,0,0
4.29169131166418E-06,-2.45702558459016E-05,1.93359375,0,0
4.17512001149589E-06,-2.31183439609595E-05,1.93359375,0,0
4.46598005510168E-06,-2.23444403673057E-05,1.93359375,0,0
4.48942728326074E-06,-2.0404064343893E-05,1.93359375,0,0
4.66316078018281E-06,-1.96753680938855E-05,1.93359375,0,0
4.06876188208116E-06,-1.98758934857324E-05,1.93359375,0,0
3.59993350684817E-06,-1.89769089047331E-05,1.93359375,0,0
3.39598864229629E-06,-1.98193793039536E-05,1.93359375,0,0
2.87233751805616E-06,-2.00306312763132E-05,1.93359375,0,0
2.56602970694075E-06,-2.08699730137596E-05,1.93359375,0,0
2.1018463485234E-06,-1.8173988792114E-05,1.93359375,0,0
6.53862059607491E-07,-1.69748418556992E-05,1.93359375,0,0
-1.33419484882324E-06,-1.44219238791266E-05,1.93359375,0,0
-4.49152537385089E-07,-1.47818045661552E-05,1.93359375,0,0
2.88625051325653E-06,-1.45959238579962E-05,1.93359375,0,0
5.13127133672242E-06,-1.50144869621727E-05,1.93359375,0,0
4.68813414045144E-06,-1.37379211082589E-05,1.93359375,0,0
3.72142562810041E-06,-1.36538346851012E-05,1.93359375,0,0
3.30903276335448E-06,-1.31660381157417E-05,1.93359375,0,0
4.21947879658546E-06,-1.37537599584903E-05,1.93359375,0,0
4.37155449617421E-06,-1.34018673634273E-05,1.93359375,0,0
2.71851240540855E-06,-1.19241794891423E-05,1.93359375,0,0
1.77251263266953E-06,-9.82224901235895E-06,1.93359375,0,0
3.30170178131084E-06,-1.60185682034353E-05,1.93359375,0,0
2.55967506745947E-06,-1.5335430362029E-05,1.93359375,0,0
3.1350891731563E-06,-1.76866851688828E-05,1.93359375,0,0
5.07782988279359E-06,-1.45239573612344E-05,1.93359375,0,0
6.86546763972729E-06,-1.47492592077469E-05,1.93359375,0,0
7.33712340661441E-06,-1.39676803883049E-05,1.93359375,0,0
6.77357593303896E-06,-1.54829303937731E-05,1.93359375,0,0
5.26775284015457E-06,-1.40078818731126E-05,1.93359375,0,0
3.83710812457139E-06,-1.16582914415631E-05,1.93359375,0,0
2.93344942292606E-06,-1.07116438812227E-05,1.93359375,0,0
2.48603532781999E-06,-1.01889736470184E-05,1.93359375,0,0
3.45790499522991E-06,-1.18815250971238E-05,1.93359375,0,0
4.50557172371191E-06,-1.40845222631469E-05,1.93359375,0,0
4.29509555033292E-06,-1.61068273882847E-05,1.93359375,0,0
4.0338472899748E-06,-1.4351761819853E-05,1.93359375,0,0
4.63367950942484E-06,-1.35227028295049E-05,1.93359375,0,0
5.36946527063265E-06,-1.38326086016605E-05,1.93359375,0,0
5.86460600970895E-06,-1.66254103532992E-05,1.93359375,0,0
5.71993268749793E-06,-1.81603209057357E-05,1.93359375,0,0
5.04398531120387E-06,-1.90283826668747E-05,1.93359375,0,0
4.16126658819849E-06,-2.03925519599579E-05,1.93359375,0,0
3.6779958918487E-06,-2.44177517743083E-05,1.93359375,0,0
3.49636070495762E-06,-2.70478849415667E-05,1.93359375,0,0
3.13398822981981E-06,-2.74852081929566E-05,1.93359375,0,0
2.23215874939342E-06,-2.61859458987601E-05,1.93359375,0,0
1.09858387986606E-06,-2.37801796174608E-05,1.93359375,0,0
1.50132996168395E-06,-1.80804290721426E-05,1.93359375,0,0
3.17593526233395E-06,-2.52391018875642E-05,1.93359375,0,0
3.28142232319806E-06,-1.71801293618046E-05,1.93359375,0,0
2.30707428272581E-06,-1.96911660168553E-05,1.93359375,0,0
3.6849482398793E-07,-1.43802326419973E-05,1.93359375,0,0
-3.69047342019257E-07,-1.62301312229829E-05,1.93359375,0,0
2.33148085726498E-07,-1.4504458704323E-05,1.93359375,0,0
3.50821210304275E-07,-1.6214711649809E-05,1.93359375,0,0
-1.34808351504034E-06,-1.59718892973615E-05,1.93359375,0,0
-1.31383137613739E-06,-1.78026111825602E-05,1.93359375,0,0
8.93497031029256E-07,-2.10702201002277E-05,1.93359375,0,0
1.82380779278901E-06,-2.16799453482963E-05,1.93359375,0,0
1.09753557353542E-06,-2.03803156182403E-05,1.93359375,0,0
9.47010363461231E-08,-1.58041148097254E-05,1.93359375,0,0
-6.87621550810036E-08,-1.40659458338632E-05,1.93359375,0,0
6.33365345947823E-07,-1.36371363623766E-05,1.93359375,0,0
2.58806676356471E-06,-1.79226990439929E-05,1.93359375,0,0
4.16062721342314E-06,-2.09661957342178E-05,1.93359375,0,0
3.78737286155229E-06,-2.52425652433885E-05,1.93359375,0,0
1.97758436115691E-06,-2.48330306931166E-05,1.93359375,0,0
1.54596637003124E-06,-2.14800184039632E-05,1.93359375,0,0
2.43788394982403E-06,-1.52002985487343E-05,1.93359375,0,0
2.73382715931803E-06,-1.2508771760622E-05,1.93359375,0,0
3.63332833330787E-06,-1.24766438602819E-05,1.93359375,0,0
5.87469958190923E-06,-1.3392844266491E-05,1.93359375,0,0
7.70031147112604E-06,-1.41538939715247E-05,1.93359375,0,0
7.44154840504052E-06,-1.49198267536121E-05,1.93359375,0,0
4.75957995149656E-06,-1.15912789624417E-05,1.93359375,0,0
6.25282973487629E-06,-1.53777491505025E-05,1.93359375,0,0
3.76001889890176E-06,-1.07753812699229E-05,1.93359375,0,0
3.91709681935026E-06,-1.42534727274324E-05,1.93359375,0,0
1.66636618814664E-06,-1.15549282782013E-05,1.93359375,0,0
3.12418501380307E-06,-1.21977500384673E-05,1.93359375,0,0
4.26821088694851E-06,-1.06440229501459E-05,1.93359375,0,0
5.37738196726423E-06,-1.20767845146474E-05,1.93359375,0,0
5.35045819560764E-06,-1.33479970827466E-05,1.93359375,0,0
4.22813673139899E-06,-1.58621933223912E-05,1.93359375,0,0
3.55565543941339E-06,-1.7808884877013E-05,1.93359375,0,0
4.34931098425295E-06,-1.84057953447336E-05,1.93359375,0,0
6.01724968873896E-06,-1.88723424798809E-05,1.93359375,0,0
5.57177509108442E-06,-1.81598461495014E-05,1.93359375,0,0
3.96212271880358E-06,-1.87690911843674E-05,1.93359375,0,0
2.51945061791048E-06,-1.73269745573634E-05,1.93359375,0,0
2.62890307567432E-06,-1.83610027306713E-05,1.93359375,0,0
2.31096328207059E-06,-1.90301743714372E-05,1.93359375,0,0
1.84412317594251E-06,-2.03953659365652E-05,1.93359375,0,0
4.04056720526569E-07,-1.92012885236181E-05,1.93359375,0,0
1.3567020573646E-07,-1.8398612155579E-05,1.93359375,0,0
6.10403276368743E-07,-1.87496880243998E-05,1.93359375,0,0
1.76231378645753E-06,-2.10845337278442E-05,1.93359375,0,0
3.34054243467108E-06,-2.1488564016181E-05,1.93359375,0,0
3.69348163076211E-06,-1.96972941921558E-05,1.93359375,0,0
2.22334142563341E-06,-1.67834768944886E-05,1.93359375,0,0
9.46562522585737E-07,-1.58565962919965E-05,1.93359375,0,0
-3.97621590764174E-07,-1.43049664984574E-05,1.93359375,0,0
-1.64300229243963E-06,-2.16237331187585E-05,1.93359375,0,0
-1.83298925549025E-06,-1.8038695998257E-05,1.93359375,0,0
-7.19480794941774E-07,-2.27995878958609E-05,1.93359375,0,0
-4.55014344424853E-07,-2.11213719012449E-05,1.93359375,0,0
-4.34023860407251E-07,-2.2860998797114E-05,1.93359375,0,0
7.77360867232346E-07,-2.0938006855431E-05,1.93359375,0,0
2.53989878729044E-06,-2.05651103897253E-05,1.93359375,0,0
3.52866368302784E-06,-2.00554659386398E-05,1.93359375,0,0
2.4914768346207E-06,-2.03985218831804E-05,1.93359375,0,0
4.11581112302883E-07,-1.9990693544969E-05,1.93359375,0,0
-5.04687363900302E-07,-1.95638622244587E-05,1.93359375,0,0
-6.52724168048735E-07,-2.02175324375276E-05,1.93359375,0,0
-7.01138844760862E-07,-1.87301429832587E-05,1.93359375,0,0
-1.09284975735591E-07,-1.83419633685844E-05,1.93359375,0,0
8.43398026972864E-07,-1.60695872182259E-05,1.93359375,0,0
1.77238553078496E-06,-1.39389921969268E-05,1.93359375,0,0
2.37278914028138E-06,-1.01921796158422E-05,1.93359375,0,0
2.80327321888763E-06,-9.00024861039128E-06,1.93359375,0,0
4.00740782424691E-06,-8.69932318892097E-06,1.93359375,0,0
5.73856732444256E-06,-1.02845588116907E-05,1.93359375,0,0
5.68282075619209E-06,-9.98840550892055E-06,1.93359375,0,0
3.96407222069683E-06,-1.01134592114249E-05,1.93359375,0,0
2.10416419577086E-06,-1.09276161310845E-05,1.93359375,0,0
1.22671985991474E-06,-1.24270609376254E-05,1.93359375,0,0
2.10196253647155E-06,-1.34643705678172E-05,1.93359375,0,0
2.84478824141843E-06,-1.48596891449415E-05,1.93359375,0,0
2.44464877141581E-06,-1.11740391730564E-05,1.93359375,0,0
4.01538545702351E-06,-1.44129189720843E-05,1.93359375,0,0
3.41222448696499E-06,-9.49595323618269E-06,1.93359375,0,0
3.42369230565964E-06,-1.41028694997658E-05,1.93359375,0,0
2.9010116122663E-06,-1.40705897138105E-05,1.93359375,0,0
3.82410644306219E-06,-1.70762486959575E-05,1.93359375,0,0
3.68076098311576E-06,-1.80847982846899E-05,1.93359375,0,0
3.51575363310985E-06,-2.19289613596629E-05,1.93359375,0,0
2.95199015454273E-06,-2.37475633184658E-05,1.93359375,0,0
1.82742712695472E-06,-2.55285922321491E-05,1.93359375,0,0
1.59910814545583E-06,-2.57276988122612E-05,1.93359375,0,0
2.7479336495162E-06,-2.32972415687982E-05,1.93359375,0,0
3.48477010447823E-06,-2.10383477678988E-05,1.93359375,0,0
2.60212050307018E-06,-1.81477080332115E-05,1.93359375,0,0
1.55454983996606E-06,-1.7042773833964E-05,1.93359375,0,0
1.35564926040388E-06,-1.4679519154015E-05,1.93359375,0,0
2.55222039413638E-06,-1.35889422381297E-05,1.93359375,0,0
4.02424529966083E-06,-1.22788869703072E-05,1.93359375,0,0
4.51739742857171E-06,-1.29779855342349E-05,1.93359375,0,0
3.41568306794215E-06,-1.19315809570253E-05,1.93359375,0,0
3.56053169525694E-06,-1.1955226000282E-05,1.93359375,0,0
4.50947891295073E-06,-1.22682704386534E-05,1.93359375,0,0
5.10192285219091E-06,-1.31603501358768E-05,1.93359375,0,0
6.16003126197029E-06,-1.35994787342497E-05,1.93359375,0,0
7.45436955185141E-06,-1.52228403749177E-05,1.93359375,0,0
8.06941716291476E-06,-1.71342144312803E-05,1.93359375,0,0
7.74816180637572E-06,-1.85779099410865E-05,1.93359375,0,0
4.62344360130373E-06,-1.51124786498258E-05,1.93359375,0,0
5.66512562727439E-06,-2.12169597944012E-05,1.93359375,0,0
4.17826868215343E-06,-1.64960492838873E-05,1.93359375,0,0
5.95406072534388E-06,-2.08320252568228E-05,1.93359375,0,0
3.47315176441043E-06,-1.75728600879665E-05,1.93359375,0,0
2.31867761613103E-06,-1.98469024326187E-05,1.93359375,0,0
3.71502920870626E-07,-1.84523923962843E-05,1.93359375,0,0
1.38295638407726E-06,-2.08329074666835E-05,1.93359375,0,0
3.13790496875299E-06,-2.16659664147301E-05,1.93359375,0,0
4.687371529144E-06,-2.209859303548E-05,1.93359375,0,0
4.94059895572718E-06,-2.14068240893539E-05,1.93359375,0,0
3.75204626834602E-06,-1.96398741536541E-05,1.93359375,0,0
3.32313652506855E-06,-2.11737133213319E-05,1.93359375,0,0
3.03982847071893E-06,-2.25030562432949E-05,1.93359375,0,0
3.47707486980653E-06,-2.37056028709048E-05,1.93359375,0,0
3.90671903005568E-06,-2.07422399398638E-05,1.93359375,0,0
5.63837556910585E-06,-1.955876541615E-05,1.93359375,0,0
6.77597745379899E-06,-1.84782693395391E-05,1.93359375,0,0
8.052609700826E-06,-2.00108570425073E-05,1.93359375,0,0
7.64675132813863E-06,-2.02156552404631E-05,1.93359375,0,0
5.82627990297624E-06,-2.14058272831608E-05,1.93359375,0,0
2.91832475340925E-06,-2.01905240828637E-05,1.93359375,0,0
1.31958040583413E-06,-1.78476857399801E-05,1.93359375,0,0
1.16508249448088E-06,-1.44756841109484E-05,1.93359375,0,0
2.02571163754328E-06,-1.27282128232764E-05,1.93359375,0,0
2.50228822551435E-06,-1.24723555927631E-05,1.93359375,0,0
2.81544294011837E-06,-1.41322470881278E-05,1.93359375,0,0
3.41839336215344E-06,-1.29480577015784E-05,1.93359375,0,0
4.82144332636381E-06,-1.79746330104535E-05,1.93359375,0,0
1.42693761517876E-06,-1.50991145346779E-05,1.93359375,0,0
-4.02550426770176E-07,-2.13712701224722E-05,1.93359375,0,0
-8.85629788172082E-07,-1.98397647181991E-05,1.93359375,0,0
1.37716574499791E-06,-2.17411616176832E-05,1.93359375,0,0
3.25873816109379E-06,-2.08951023523696E-05,1.93359375,0,0
3.91530511478777E-06,-2.25092571781715E-05,1.93359375,0,0
3.74457181351318E-06,-2.20911042561056E-05,1.93359375,0,0
4.04095408157445E-06,-2.12064896913944E-05,1.93359375,0,0
4.33822515333304E-06,-1.98067573364824E-05,1.93359375,0,0
3.96245786760119E-06,-1.79063481482444E-05,1.93359375,0,0
4.15853673985112E-06,-1.67520083778072E-05,1.93359375,0,0
4.93066954732058E-06,-1.53061755554518E-05,1.93359375,0,0
5.9918515944446E-06,-1.69045033544535E-05,1.93359375,0,0
5.19915010954719E-06,-1.68635833688313E-05,1.93359375,0,0
3.76877301278E-06,-1.69222748809261E-05,1.93359375,0,0
3.00924648399814E-06,-1.49870347740944E-05,1.93359375,0,0
2.84927159555082E-06,-1.46855572893401E-05,1.93359375,0,0
2.63394349531154E-06,-1.27921884995885E-05,1.93359375,0,0
3.73296757061325E-06,-1.16525243356591E-05,1.93359375,0,0
5.96462905377848E-06,-1.12800307761063E-05,1.93359375,0,0
7.53097629058175E-06,-1.34698157125968E-05,1.93359375,0,0
6.4262508203683E-06,-1.44639952850412E-05,1.93359375,0,0
4.25562029704452E-06,-1.57029153342592E-05,1.93359375,0,0
2.89382387563819E-06,-1.47231421578908E-05,1.93359375,0,0
2.51432220466086E-06,-1.34290366986534E-05,1.93359375,0,0
2.86651857095421E-06,-1.13073783722939E-05,1.93359375,0,0
3.66043218491541E-06,-1.68444548762636E-05,1.93359375,0,0
1.64877940278529E-06,-1.41515547511517E-05,1.93359375,0,0
1.83201916570397E-06,-1.84780874405988E-05,1.93359375,0,0
1.30954799715255E-06,-1.69424056366552E-05,1.93359375,0,0
7.57595671529998E-07,-1.8364242350799E-05,1.93359375,0,0
-3.52030895101052E-07,-1.77463225554675E-05,1.93359375,0,0
8.71425299919792E-07,-1.95379743672675E-05,1.93359375,0,0
2.34996832659817E-06,-2.01881393877557E-05,1.93359375,0,0
2.29026636588969E-06,-1.99378118850291E-05,1.93359375,0,0
1.07503115032159E-06,-2.0046090867254E-05,1.93359375,0,0
5.11541202286026E-07,-2.00910417333944E-05,1.93359375,0,0
2.28877343033673E-06,-2.05202595680021E-05,1.93359375,0,0
4.3413820094429E-06,-1.87525020010071E-05,1.93359375,0,0
4.75021261081565E-06,-1.68144215422217E-05,1.93359375,0,0
3.15094393954496E-06,-1.39432077048696E-05,1.93359375,0,0
2.127639390892E-06,-1.49784991663182E-05,1.93359375,0,0
1.70948499089718E-06,-1.63787390192738E-05,1.93359375,0,0
1.42874330322229E-06,-1.67442922247574E-05,1.93359375,0,0
1.64354514708975E-06,-1.34379597511725E-05,1.93359375,0,0
3.75593981516431E-06,-1.0309342542314E-05,1.93359375,0,0
5.32030344402301E-06,-9.29126235860167E-06,1.93359375,0,0
6.37729408481391E-06,-1.22496958283591E-05,1.93359375,0,0
7.56575991545105E-06,-1.56716905621579E-05,1.93359375,0,0
7.65097138355486E-06,-1.81713312485954E-05,1.93359375,0,0
7.13002827978926E-06,-1.87288878805703E-05,1.93359375,0,0
6.68356506139389E-06,-1.66016197908903E-05,1.93359375,0,0
3.53588734469668E-06,-1.02052681540954E-05,1.93359375,0,0
3.85321345675038E-06,-1.39963585752412E-05,1.93359375,0,0
1.35117295485543E-06,-1.07932864921167E-05,1.93359375,0,0
2.30047680815915E-06,-1.43011820910033E-05,1.93359375,0,0
2.43822182710574E-06,-1.20181584861712E-05,1.93359375,0,0
3.89743854611879E-06,-1.54847639350919E-05,1.93359375,0,0
4.32521892435034E-06,-1.97307417693082E-05,1.93359375,0,0
5.87534714213689E-06,-2.5197126888088E-05,1.93359375,0,0
5.86907071919995E-06,-2.725064769038E-05,1.93359375,0,0
5.69996791455196E-06,-2.90832867904101E-05,1.93359375,0,0
5.73775605516857E-06,-2.91312098852359E-05,1.93359375,0,0
5.81802532906295E-06,-2.70124201051658E-05,1.93359375,0,0
5.96160862187389E-06,-2.48106607614318E-05,1.93359375,0,0
5.48359730601078E-06,-2.02159626496723E-05,1.93359375,0,0
5.13464101459249E-06,-1.60002946358873E-05,1.93359375,0,0
3.78883146368025E-06,-1.27225375763373E-05,1.93359375,0,0
2.944268317151E-06,-1.38525729198591E-05,1.93359375,0,0
3.88034140996751E-06,-1.52040702232625E-05,1.93359375,0,0
6.53637835057452E-06,-1.62779106176458E-05,1.93359375,0,0
7.24229903426021E-06,-1.51934655150399E-05,1.93359375,0,0
7.03866953699617E-06,-1.58980055857683E-05,1.93359375,0,0
5.49468268218334E-06,-1.63047479873057E-05,1.93359375,0,0
3.39615348821098E-06,-1.6583746401011E-05,1.93359375,0,0
1.20485560728412E-06,-1.55682555487147E-05,1.93359375,0,0
6.97413611305819E-07,-1.50444620885537E-05,1.93359375,0,0
2.38012898989837E-06,-1.54911613208242E-05,1.93359375,0,0
3.07202094518289E-06,-1.56849055201747E-05,1.93359375,0,0
9.65128833740891E-07,-1.07512705653789E-05,1.93359375,0,0
1.08017286493123E-06,-1.31888664327562E-05,1.93359375,0,0
7.87814656177943E-07,-7.95921368990093E-06,1.93359375,0,0
1.77186984728905E-06,-1.12905900095939E-05,1.93359375,0,0
2.28821068049001E-06,-8.15122348285513E-06,1.93359375,0,0
2.59465900853684E-06,-9.43314171308884E-06,1.93359375,0,0
1.40344604915299E-06,-9.89490308711538E-06,1.93359375,0,0
-2.67442771928472E-07,-1.25731430671294E-05,1.93359375,0,0
-1.05243259440613E-06,-1.35036780193332E-05,1.93359375,0,0
-8.19510660221567E-07,-1.48636536323465E-05,1.93359375,0,0
2.25103477191624E-07,-1.54769586515613E-05,1.93359375,0,0
9.95910909296072E-07,-1.54028548422502E-05,1.93359375,0,0
8.87067244548234E-07,-1.62749693117803E-05,1.93359375,0,0
5.55620772502152E-07,-1.59719584189588E-05,1.93359375,0,0
5.5703299040033E-07,-1.68757087521954E-05,1.93359375,0,0
2.05562898258904E-07,-1.70853672898375E-05,1.93359375,0,0
7.70648043157962E-08,-1.85886783583555E-05,1.93359375,0,0
-1.63037469746996E-07,-1.79134403879289E-05,1.93359375,0,0
-7.53934273234336E-07,-1.81949799298309E-05,1.93359375,0,0
-5.84783720114501E-07,-1.76767516677501E-05,1.93359375,0,0
4.77605510695867E-07,-1.86680626939051E-05,1.93359375,0,0
6.15615590504603E-07,-1.91310755326413E-05,1.93359375,0,0
2.44246422198557E-07,-1.96578785107704E-05,1.93359375,0,0
5.03638830195996E-07,-1.85741555469576E-05,1.93359375,0,0
9.69786924542859E-07,-1.69460054166848E-05,1.93359375,0,0
9.15492250896932E-07,-1.44064033520408E-05,1.93359375,0,0
1.22202516195102E-06,-1.27886505651986E-05,1.93359375,0,0
2.86212207356584E-06,-1.10407090687659E-05,1.93359375,0,0
4.45325758846593E-06,-1.80290517164394E-05,1.93359375,0,0
2.66423103312263E-06,-1.62804572028108E-05,1.93359375,0,0
1.6945517700151E-06,-1.8146398360841E-05,1.93359375,0,0
8.06561839539199E-09,-1.5634170267731E-05,1.93359375,0,0
-2.05008809928131E-08,-1.7406066035619E-05,1.93359375,0,0
5.36461243427766E-07,-1.65874371305108E-05,1.93359375,0,0
1.28369231333636E-06,-1.77576857822714E-05,1.93359375,0,0
2.0212346498738E-06,-1.83457232196815E-05,1.93359375,0,0
2.62277171714231E-06,-1.81140821950976E-05,1.93359375,0,0
3.32115905621322E-06,-1.76429530256428E-05,1.93359375,0,0
3.26196868627449E-06,-1.7911976101459E-05,1.93359375,0,0
2.19677099266846E-06,-2.06582226383034E-05,1.93359375,0,0
4.55011900157842E-07,-2.30936439038487E-05,1.93359375,0,0
-5.38243341452471E-07,-2.43299236899475E-05,1.93359375,0,0
2.75347247225E-07,-2.16247317439411E-05,1.93359375,0,0
2.77396065939683E-06,-2.03595136554213E-05,1.93359375,0,0
4.41521888205898E-06,-1.96241508092498E-05,1.93359375,0,0
3.84102395400987E-06,-2.07367702387273E-05,1.93359375,0,0
2.16217358683934E-06,-2.126786239387E-05,1.93359375,0,0
1.57260649302771E-06,-2.23184979404323E-05,1.93359375,0,0
1.88543526746798E-06,-2.29539855354233E-05,1.93359375,0,0
3.89092610930675E-06,-2.38899410760496E-05,1.93359375,0,0
5.51292214368004E-06,-2.35798652283847E-05,1.93359375,0,0
5.65071059099864E-06,-2.20672809518874E-05,1.93359375,0,0
6.48253762847162E-06,-1.9981498553534E-05,1.93359375,0,0
8.08417644293513E-06,-1.84544478543103E-05,1.93359375,0,0
7.20337402526638E-06,-1.51130871017813E-05,1.93359375,0,0
8.68906681716908E-06,-2.06883032660699E-05,1.93359375,0,0
4.88468276671483E-06,-1.38387258630246E-05,1.93359375,0,0
7.23941548130824E-06,-1.86129764188081E-05,1.93359375,0,0
4.77274988952558E-06,-1.80725273821736E-05,1.93359375,0,0
4.93249308419763E-06,-1.9956341930083E-05,1.93359375,0,0
3.88874377676984E-06,-1.64297307492234E-05,1.93359375,0,0
4.03835065299063E-06,-1.63304503075778E-05,1.93359375,0,0
4.22070752392756E-06,-1.63499389600474E-05,1.93359375,0,0
4.14631267631194E-06,-1.7563563233125E-05,1.93359375,0,0
3.23657718581671E-06,-1.84389191417722E-05,1.93359375,0,0
2.12050053960411E-06,-1.72435738932109E-05,1.93359375,0,0
1.6621328313704E-06,-1.67786711244844E-05,1.93359375,0,0
5.68492396268994E-07,-1.51724152601673E-05,1.93359375,0,0
1.47320167798171E-06,-1.56203932419885E-05,1.93359375,0,0
1.75416028014297E-06,-1.50071055031731E-05,1.93359375,0,0
1.2048362805217E-06,-1.57984977704473E-05,1.93359375,0,0
-1.12907446236932E-06,-1.37744800667861E-05,1.93359375,0,0
-1.37309609726799E-06,-1.39136509460513E-05,1.93359375,0,0
5.82615427902056E-07,-1.54943354573334E-05,1.93359375,0,0
3.74173691852775E-06,-1.99194018932758E-05,1.93359375,0,0
3.05329740513116E-06,-2.34815397561761E-05,1.93359375,0,0
6.98461690262775E-07,-2.56056391663151E-05,1.93359375,0,0
9.46246032640374E-08,-2.33609862334561E-05,1.93359375,0,0
2.04325738195621E-06,-1.95282736967783E-05,1.93359375,0,0
4.00356520913192E-06,-1.74513388628839E-05,1.93359375,0,0
4.03659942094237E-06,-1.75754812516971E-05,1.93359375,0,0
2.06065851671156E-06,-1.45777685247594E-05,1.93359375,0,0
2.75367483482114E-06,-1.97746740013827E-05,1.93359375,0,0
2.16437297240191E-06,-1.40771207952639E-05,1.93359375,0,0
1.68420683621662E-06,-1.94749172806041E-05,1.93359375,0,0
4.13744686511563E-07,-1.81593368324684E-05,1.93359375,0,0
2.01732405002986E-06,-2.0064288037247E-05,1.93359375,0,0
3.61157617589924E-06,-1.77059628185816E-05,1.93359375,0,0
3.89175238524331E-06,-1.6924965166254E-05,1.93359375,0,0
2.25416351895547E-06,-1.325480388914E-05,1.93359375,0,0
2.31407489081903E-06,-1.11188355731429E-05,1.93359375,0,0
3.78858203475829E-06,-1.08972280941089E-05,1.93359375,0,0
5.37894038643572E-06,-9.827250323724E-06,1.93359375,0,0
6.84139331497136E-06,-1.05093286038027E-05,1.93359375,0,0
6.56349402561318E-06,-1.06385450635571E-05,1.93359375,0,0
5.58488136448432E-06,-1.29709560496849E-05,1.93359375,0,0
5.09504707224551E-06,-1.36504613692523E-05,1.93359375,0,0
5.74924615648342E-06,-1.53502041939646E-05,1.93359375,0,0
5.30995521330624E-06,-1.55279813043308E-05,1.93359375,0,0
4.28080920755747E-06,-1.86810539162252E-05,1.93359375,0,0
3.19299851980759E-06,-2.04360658244696E-05,1.93359375,0,0
2.9744567200396E-06,-2.01891671167687E-05,1.93359375,0,0
2.34452159020293E-06,-1.77110377990175E-05,1.93359375,0,0
2.67532868747367E-06,-1.73326170624932E-05,1.93359375,0,0
4.49684830527985E-06,-1.82949715963332E-05,1.93359375,0,0
6.41386941424571E-06,-1.94645308511099E-05,1.93359375,0,0
7.23499715604703E-06,-1.87936529982835E-05,1.93359375,0,0
6.60681371300598E-06,-1.93582072824938E-05,1.93359375,0,0
4.75591787107987E-06,-1.72938453033566E-05,1.93359375,0,0
6.51927211947623E-06,-2.28618591791019E-05,1.93359375,0,0
3.37932783622819E-06,-1.48644094224437E-05,1.93359375,0,0
3.93837990486645E-06,-2.01353977899998E-05,1.93359375,0,0
3.12077486341877E-06,-1.79264916368993E-05,1.93359375,0,0
2.53800794780545E-06,-2.03628787858179E-05,1.93359375,0,0
1.7088005961341E-06,-1.85095705091953E-05,1.93359375,0,0
2.89141280518379E-06,-1.93240157386754E-05,1.93359375,0,0
2.59156058746157E-06,-1.80410042958101E-05,1.93359375,0,0
7.41798544368066E-07,-1.74577162397327E-05,1.93359375,0,0
-1.10770588435116E-06,-1.77287474798504E-05,1.93359375,0,0
-1.76221624315076E-06,-1.78364316525403E-05,1.93359375,0,0
-1.03079923974292E-06,-1.7769971236703E-05,1.93359375,0,0
-5.6896061551015E-07,-1.47012478919351E-05,1.93359375,0,0
-5.85001259878482E-07,-1.36444032250438E-05,1.93359375,0,0
-2.07332709578623E-06,-1.18766874948051E-05,1.93359375,0,0
-2.78070501735783E-06,-1.2174512448837E-05,1.93359375,0,0
-3.13093482873228E-06,-9.9036342362524E-06,1.93359375,0,0
-2.87706780000008E-06,-9.65332492341986E-06,1.93359375,0,0
-3.07355389850272E-06,-8.20248078525765E-06,1.93359375,0,0
-3.19502555612416E-06,-9.14681186259259E-06,1.93359375,0,0
-2.88281762550469E-06,-9.70774453890044E-06,1.93359375,0,0
-5.5301768497884E-07,-1.12417510536034E-05,1.93359375,0,0
1.94999938685214E-06,-1.14294562081341E-05,1.93359375,0,0
2.33301943808328E-06,-1.03259735624306E-05,1.93359375,0,0
1.86127658707846E-06,-9.61253226705594E-06,1.93359375,0,0
3.31112460116856E-06,-1.21746488730423E-05,1.93359375,0,0
4.77451067126822E-06,-1.1729955986084E-05,1.93359375,0,0
9.2622958618449E-06,-1.59623723448021E-05,1.93359375,0,0
9.43033137446037E-06,-1.1499559150252E-05,1.93359375,0,0
1.02064523161971E-05,-1.4638949323853E-05,1.93359375,0,0
1.06112011053483E-05,-1.25861251945025E-05,1.93359375,0,0
1.25360884339898E-05,-1.55354719026946E-05,1.93359375,0,0
1.33242001538747E-05,-1.58588172780583E-05,1.93359375,0,0
1.36626103994786E-05,-1.69760551216314E-05,1.93359375,0,0
1.26844461192377E-05,-1.57256399688777E-05,1.93359375,0,0
1.18541502160951E-05,-1.5274705219781E-05,1.93359375,0,0
1.13558671728242E-05,-1.71852498169756E-05,1.93359375,0,0
1.19016713142628E-05,-1.96516975847771E-05,1.93359375,0,0
1.36340049721184E-05,-2.17580236494541E-05,1.93359375,0,0
1.37402530526742E-05,-2.06235872610705E-05,1.93359375,0,0
1.25830338220112E-05,-1.88814174180152E-05,1.93359375,0,0
1.09462525870185E-05,-1.52313914441038E-05,1.93359375,0,0
1.06553507066565E-05,-1.50520163515466E-05,1.93359375,0,0
1.02985977719072E-05,-1.68555798154557E-05,1.93359375,0,0
9.37156619329471E-06,-2.08065994229401E-05,1.93359375,0,0
7.31516411178745E-06,-2.21898662857711E-05,1.93359375,0,0
6.32789533483447E-06,-2.45238879870158E-05,1.93359375,0,0
6.50604124530219E-06,-2.57110750681022E-05,1.93359375,0,0
6.57268083159579E-06,-2.51119508902775E-05,1.93359375,0,0
5.37633695785189E-06,-2.32372822210891E-05,1.93359375,0,0
3.37658548232866E-06,-2.20687070395797E-05,1.93359375,0,0
2.8141103030066E-06,-2.16331609408371E-05,1.93359375,0,0
4.06828348786803E-06,-2.16443222598173E-05,1.93359375,0,0
3.12947554448328E-06,-1.70080857060384E-05,1.93359375,0,0
3.13806640406256E-06,-2.3673888790654E-05,1.93359375,0,0
1.22800338431261E-06,-1.84215623448836E-05,1.93359375,0,0
3.20002254738938E-06,-2.39760847762227E-05,1.93359375,0,0
3.24033385368239E-06,-1.97364297491731E-05,1.93359375,0,0
3.14766475639772E-06,-2.13167004403658E-05,1.93359375,0,0
9.86803001978842E-07,-1.91344861377729E-05,1.93359375,0,0
3.16787946985642E-07,-2.07166904147016E-05,1.93359375,0,0
4.6023981781218E-07,-2.054871947621E-05,1.93359375,0,0
9.29857094433828E-07,-2.03682302526431E-05,1.93359375,0,0
1.24141820379009E-06,-1.96789678739151E-05,1.93359375,0,0
1.73683133652958E-06,-1.69534814631334E-05,1.93359375,0,0
3.31619685312035E-06,-1.59039282152662E-05,1.93359375,0,0
3.41586178365105E-06,-1.45481863000896E-05,1.93359375,0,0
1.93116852642561E-06,-1.55200377776055E-05,1.93359375,0,0
1.09655154290067E-07,-1.44640471262392E-05,1.93359375,0,0
8.95378434506711E-07,-1.53958681039512E-05,1.93359375,0,0
2.1765163182863E-06,-1.40565398396575E-05,1.93359375,0,0
2.37955441662052E-06,-1.35881409732974E-05,1.93359375,0,0
9.97106326394714E-07,-1.22508099593688E-05,1.93359375,0,0
8.49411264880473E-07,-1.41081045512692E-05,1.93359375,0,0
2.71507656179892E-06,-1.48600574902957E-05,1.93359375,0,0
4.65618404632551E-06,-1.50301684698206E-05,1.93359375,0,0
2.93412199425802E-06,-1.54198769450886E-05,1.93359375,0,0
-2.47157942112608E-07,-1.80468250619015E-05,1.93359375,0,0
-1.38715336106543E-06,-1.9994737158413E-05,1.93359375,0,0
-1.27500712210349E-07,-2.09645259019453E-05,1.93359375,0,0
8.19028855403303E-07,-1.70326620718697E-05,1.93359375,0,0
1.55441523475019E-06,-2.48333308263682E-05,1.93359375,0,0
2.21714731196698E-06,-2.05420838028658E-05,1.93359375,0,0
1.95401889868663E-06,-2.50182129093446E-05,1.93359375,0,0
-9.40477320909849E-07,-1.99576479644747E-05,1.93359375,0,0
-2.48083210863115E-06,-2.17093074752484E-05,1.93359375,0,0
-6.40317693978432E-07,-2.0647123164963E-05,1.93359375,0,0
2.637357738422E-06,-2.22744420170784E-05,1.93359375,0,0
3.92605124943657E-06,-2.06896693271119E-05,1.93359375,0,0
3.8217767723836E-06,-1.90921764442464E-05,1.93359375,0,0
3.6215431009623E-06,-1.90354858204955E-05,1.93359375,0,0
3.66306358046131E-06,-1.89622096513631E-05,1.93359375,0,0
3.89033448300324E-06,-2.13396506296704E-05,1.93359375,0,0
3.97314397559967E-06,-2.38818483921932E-05,1.93359375,0,0
4.21967797592515E-06,-2.76044629572425E-05,1.93359375,0,0
3.87081445296644E-06,-2.62170178757515E-05,1.93359375,0,0
3.57480985258007E-06,-2.42090172832832E-05,1.93359375,0,0
4.29868077844731E-06,-2.0394048988237E-05,1.93359375,0,0
5.49114747627755E-06,-1.90817681868793E-05,1.93359375,0,0
4.93070047014044E-06,-1.61584739544196E-05,1.93359375,0,0
2.45151431954582E-06,-1.43539591590525E-05,1.93359375,0,0
-6.10984756121979E-08,-1.21017519632005E-05,1.93359375,0,0
-9.19470608096162E-07,-1.22695264508366E-05,1.93359375,0,0
-4.72495941039597E-07,-1.35693480842747E-05,1.93359375,0,0
1.69468322042121E-07,-1.56031146616442E-05,1.93359375,0,0
-7.35027299469948E-07,-1.64943903655512E-05,1.93359375,0,0
-2.71212184088654E-06,-1.7420634321752E-05,1.93359375,0,0
-1.48411993450281E-06,-1.51232534335577E-05,1.93359375,0,0
-6.96739789418643E-07,-2.10740217880812E-05,1.93359375,0,0
-1.40354288191702E-07,-1.53045657498296E-05,1.93359375,0,0
-2.90905245492468E-06,-1.87972200365039E-05,1.93359375,0,0
-3.12131783175573E-06,-1.60951203724835E-05,1.93359375,0,0
-2.36466030401061E-06,-1.86273591680219E-05,1.93359375,0,0
-3.93961073541504E-07,-1.70683379110415E-05,1.93359375,0,0
-3.30472516907321E-07,-1.85877142939717E-05,1.93359375,0,0
-1.11506255962013E-06,-1.90221016964642E-05,1.93359375,0,0
-9.62885792432644E-07,-1.96331093320623E-05,1.93359375,0,0
-2.32829677315749E-07,-1.94504173123278E-05,1.93359375,0,0
-1.34961226194719E-07,-1.76283429027535E-05,1.93359375,0,0
-3.08181455466183E-07,-1.58282691700151E-05,1.93359375,0,0
3.87288253023144E-07,-1.31165934362798E-05,1.93359375,0,0
9.27157202568196E-07,-1.36159405883518E-05,1.93359375,0,0
9.06198124539515E-07,-1.33283729155664E-05,1.93359375,0,0
1.08474324633789E-07,-1.47940781971556E-05,1.93359375,0,0
-8.99594624570454E-07,-1.44038031066884E-05,1.93359375,0,0
-2.35840093409934E-06,-1.51062440636451E-05,1.93359375,0,0
-2.88379760604585E-06,-1.47158698382555E-05,1.93359375,0,0
-3.20526260111365E-06,-1.58755410666345E-05,1.93359375,0,0
-3.05224739349796E-06,-1.53343280544505E-05,1.93359375,0,0
-2.50481411967485E-06,-1.54502158693504E-05,1.93359375,0,0
-1.75744548869261E-06,-1.48820035974495E-05,1.93359375,0,0
-8.81447022038628E-07,-1.4242339602788E-05,1.93359375,0,0
1.32674824726564E-06,-1.20664117275737E-05,1.93359375,0,0
3.30119860336708E-06,-1.05690232885536E-05,1.93359375,0,0
2.57412921200739E-06,-1.02436761153513E-05,1.93359375,0,0
4.21671438743942E-06,-1.75049899553414E-05,1.93359375,0,0
4.05724858865142E-06,-1.53580367623363E-05,1.93359375,0,0
5.34273567609489E-06,-1.43213628689409E-05,1.93359375,0,0
6.42737222733558E-06,-1.09606617115787E-05,1.93359375,0,0
7.87404223956401E-06,-1.32685645439778E-05,1.93359375,0,0
6.14737973592128E-06,-1.49400821101153E-05,1.93359375,0,0
3.88520084015909E-06,-1.74197848537005E-05,1.93359375,0,0
3.1224681151798E-06,-1.7149164705188E-05,1.93359375,0,0
3.34961600856332E-06,-1.67217003763653E-05,1.93359375,0,0
2.6096952296939E-06,-1.68996266438626E-05,1.93359375,0,0
2.27523719331657E-06,-1.72794243553653E-05,1.93359375,0,0
2.05253172680386E-06,-1.83247739187209E-05,1.93359375,0,0
2.01275543076918E-06,-1.73523403645959E-05,1.93359375,0,0
2.99862585961819E-06,-1.58290549734375E-05,1.93359375,0,0
4.36247000834555E-06,-1.37365914270049E-05,1.93359375,0,0
5.80569758312777E-06,-1.42357266668114E-05,1.93359375,0,0
6.32779983789078E-06,-1.43709885378485E-05,1.93359375,0,0
7.19649642633158E-06,-1.53932815010194E-05,1.93359375,0,0
8.01274018158438E-06,-1.49637098729727E-05,1.93359375,0,0
8.91363470145734E-06,-1.44948471643147E-05,1.93359375,0,0
8.87642909219721E-06,-1.38466402859194E-05,1.93359375,0,0
8.56102360557998E-06,-1.40960937642376E-05,1.93359375,0,0
6.55656413073302E-06,-1.46399233926786E-05,1.93359375,0,0
4.51793994216132E-06,-1.60325362230651E-05,1.93359375,0,0
5.03340606883285E-06,-1.79055205080658E-05,1.93359375,0,0
5.63798948860494E-06,-2.02201736101415E-05,1.93359375,0,0
3.67091934094788E-06,-1.64517732628156E-05,1.93359375,0,0
5.23011840414256E-06,-2.27808905037818E-05,1.93359375,0,0
4.23009350924985E-06,-1.71215233422117E-05,1.93359375,0,0
6.06790445090155E-06,-2.10143407457508E-05,1.93359375,0,0
5.98206543145352E-06,-1.6724628949305E-05,1.93359375,0,0
6.92859157425119E-06,-2.06904951483011E-05,1.93359375,0,0
7.20894740879885E-06,-2.04794250748819E-05,1.93359375,0,0
7.64890228310833E-06,-2.24988943955395E-05,1.93359375,0,0
6.93409856467042E-06,-2.16085591091542E-05,1.93359375,0,0
5.40206383448094E-06,-2.03858035092708E-05,1.93359375,0,0
4.18546460423386E-06,-1.95733882719651E-05,1.93359375,0,0
3.97454869016656E-06,-1.78209702426102E-05,1.93359375,0,0
4.49673143521068E-06,-1.67696434800746E-05,1.93359375,0,0
4.54364226243342E-06,-1.43323668453377E-05,1.93359375,0,0
4.82441282656509E-06,-1.43865745485527E-05,1.93359375,0,0
5.16818272444652E-06,-1.31830729515059E-05,1.93359375,0,0
6.17869909547153E-06,-1.44948089655372E-05,1.93359375,0,0
6.84475389789441E-06,-1.47939863381907E-05,1.93359375,0,0
7.0008541115385E-06,-1.77086203621002E-05,1.93359375,0,0
5.99962868363946E-06,-1.8742377505987E-05,1.93359375,0,0
6.32015371593297E-06,-1.92279258044437E-05,1.93359375,0,0
7.97460779722314E-06,-1.71124829648761E-05,1.93359375,0,0
9.40436075325124E-06,-1.69248833117308E-05,1.93359375,0,0
8.49551179271657E-06,-1.66949048434617E-05,1.93359375,0,0
7.01024828231311E-06,-1.59066930791596E-05,1.93359375,0,0
7.00881582815782E-06,-1.61842253874056E-05,1.93359375,0,0
8.11840618553106E-06,-1.87051373359282E-05,1.93359375,0,0
7.34590321371797E-06,-1.59394276124658E-05,1.93359375,0,0
9.53378366830293E-06,-2.19733792619081E-05,1.93359375,0,0
5.61296337764361E-06,-1.54263816511957E-05,1.93359375,0,0
6.38570554656326E-06,-1.90354130609194E-05,1.93359375,0,0
2.93943003271124E-06,-1.58618386194576E-05,1.93359375,0,0
2.78608399639779E-06,-1.86121251317672E-05,1.93359375,0,0
1.70676389643631E-06,-1.70826660905732E-05,1.93359375,0,0
1.14958618269156E-06,-1.79397866304498E-05,1.93359375,0,0
-7.78863409323094E-08,-1.675999010331E-05,1.93359375,0,0
-9.18009391170926E-07,-1.49502802742063E-05,1.93359375,0,0
-1.53858763951575E-06,-1.38532941491576E-05,1.93359375,0,0
-1.57255738031381E-06,-1.3517145816877E-05,1.93359375,0,0
-2.97359662226881E-07,-1.52060010805144E-05,1.93359375,0,0
-5.26400867784105E-07,-1.48476219692384E-05,1.93359375,0,0
-1.63899665039935E-06,-1.59128376253648E-05,1.93359375,0,0
-3.47978584613884E-06,-1.52674656419549E-05,1.93359375,0,0
-2.78631114269956E-06,-1.63790718943346E-05,1.93359375,0,0
-1.59627427365194E-06,-1.64692573889624E-05,1.93359375,0,0
2.28669293278472E-07,-1.79624112206511E-05,1.93359375,0,0
7.33944318653812E-07,-1.73300832102541E-05,1.93359375,0,0
1.23211327718309E-06,-1.78702593984781E-05,1.93359375,0,0
6.16623822224938E-07,-1.74582146428293E-05,1.93359375,0,0
2.22497433810531E-07,-1.80464357981691E-05,1.93359375,0,0
2.49958588938171E-07,-1.84237433131784E-05,1.93359375,0,0
6.54089191698404E-08,-1.8443750377628E-05,1.93359375,0,0
-1.12549571440468E-07,-1.68562582985032E-05,1.93359375,0,0
1.11157953597285E-06,-1.71327319549164E-05,1.93359375,0,0
2.20730862565688E-06,-1.45713811434689E-05,1.93359375,0,0
3.98699694414972E-06,-1.84663967957022E-05,1.93359375,0,0
4.10532402383978E-06,-1.06429770312388E-05,1.93359375,0,0
4.15829526900779E-06,-1.36551834657439E-05,1.93359375,0,0
3.22636901728401E-06,-1.07635896711145E-05,1.93359375,0,0
2.34896378970006E-06,-1.45845178849413E-05,1.93359375,0,0
1.06966717794421E-06,-1.35735972435214E-05,1.93359375,0,0
2.06948675440799E-06,-1.2929696822539E-05,1.93359375,0,0
4.81267261420726E-06,-1.15783677756554E-05,1.93359375,0,0
6.35319656794309E-06,-1.20790818982641E-05,1.93359375,0,0
5.86470787311555E-06,-1.33261810333352E-05,1.93359375,0,0
5.31006708115456E-06,-1.31473261717474E-05,1.93359375,0,0
6.81495976095903E-06,-1.4597022527596E-05,1.93359375,0,0
9.01560633792542E-06,-1.6041505659814E-05,1.93359375,0,0
9.74699378275545E-06,-1.81787982000969E-05,1.93359375,0,0
7.98339897301048E-06,-1.69737504620571E-05,1.93359375,0,0
6.08719983574701E-06,-1.69885861396324E-05,1.93359375,0,0
5.07576851305203E-06,-1.58069342433009E-05,1.93359375,0,0
5.00243959322688E-06,-1.58318744070129E-05,1.93359375,0,0
5.38557151230634E-06,-1.44755740620894E-05,1.93359375,0,0
6.13573411101243E-06,-1.47923592521693E-05,1.93359375,0,0
5.9416588555905E-06,-1.5347000953625E-05,1.93359375,0,0
5.27840711583849E-06,-1.7636377378949E-05,1.93359375,0,0
5.37374535269919E-06,-1.74721262737876E-05,1.93359375,0,0
5.84902363698347E-06,-1.64926022989675E-05,1.93359375,0,0
5.92055039305706E-06,-1.68213227880187E-05,1.93359375,0,0
6.13100473856321E-06,-1.79180515260668E-05,1.93359375,0,0
5.02859893458663E-06,-1.45793928822968E-05,1.93359375,0,0
5.98496399106807E-06,-2.26688080147142E-05,1.93359375,0,0
3.35179493049509E-06,-2.20692072616657E-05,1.93359375,0,0
6.82932886775234E-06,-2.75837519438937E-05,1.93359375,0,0
8.06203206593636E-06,-2.27149885176914E-05,1.93359375,0,0
8.56212955113733E-06,-2.32945967582054E-05,1.93359375,0,0
6.94240361553966E-06,-2.12705344893038E-05,1.93359375,0,0
5.68603081774199E-06,-2.12203212868189E-05,1.93359375,0,0
3.46360388903122E-06,-1.98451798496535E-05,1.93359375,0,0
2.11862789001316E-06,-1.9848310330417E-05,1.93359375,0,0
1.00324291452125E-06,-2.00903359655058E-05,1.93359375,0,0
4.1784895188357E-07,-1.86846373253502E-05,1.93359375,0,0
1.53215785303473E-06,-1.80327806447167E-05,1.93359375,0,0
2.87498141915421E-06,-1.6783780665719E-05,1.93359375,0,0
4.09505901188822E-06,-1.81747200258542E-05,1.93359375,0,0
4.13965699408436E-06,-1.76446701516397E-05,1.93359375,0,0
4.36453865404474E-06,-1.76482626557117E-05,1.93359375,0,0
4.1373186832061E-06,-1.60768104251474E-05,1.93359375,0,0
4.47669481218327E-06,-1.63095355674159E-05,1.93359375,0,0
3.471119725873E-06,-1.48434355651261E-05,1.93359375,0,0
2.58864565694239E-06,-1.49393708852585E-05,1.93359375,0,0
2.00786848836287E-06,-1.6672815036145E-05,1.93359375,0,0
2.43834119828534E-06,-2.06726472242735E-05,1.93359375,0,0
1.55153952619003E-06,-2.19825124077033E-05,1.93359375,0,0
-9.1663002876885E-07,-2.19106823351467E-05,1.93359375,0,0
-2.29530064643768E-06,-2.14045412576525E-05,1.93359375,0,0
-1.95593088392343E-06,-2.04743100766791E-05,1.93359375,0,0
-2.01818420464406E-06,-1.56510122906184E-05,1.93359375,0,0
-3.71611827176821E-06,-2.30512305279262E-05,1.93359375,0,0
-4.85198961541755E-06,-1.8603077478474E-05,1.93359375,0,0
-5.81762787987827E-06,-2.18041423067916E-05,1.93359375,0,0
-3.76249931832717E-06,-1.69813793036155E-05,1.93359375,0,0
-3.36478797180462E-06,-1.75305867742281E-05,1.93359375,0,0
-3.23350468534045E-06,-1.53949167724932E-05,1.93359375,0,0
-3.29900831275154E-06,-1.69682152773021E-05,1.93359375,0,0
-2.58673435382661E-06,-1.63126969709992E-05,1.93359375,0,0
-1.67695327490947E-06,-1.59927403728943E-05,1.93359375,0,0
-1.88537046597048E-06,-1.52184948092327E-05,1.93359375,0,0
-2.98375130114437E-06,-1.42481330840383E-05,1.93359375,0,0
-4.04249522034661E-06,-1.51686708704801E-05,1.93359375,0,0
-4.2413003029651E-06,-1.52917982632061E-05,1.93359375,0,0
-3.72774343304627E-06,-1.68377027875977E-05,1.93359375,0,0
-1.91663002624409E-06,-1.61140524141956E-05,1.93359375,0,0
-1.80624439849453E-07,-1.71108313224977E-05,1.93359375,0,0
2.67475115833804E-07,-1.66224999702536E-05,1.93359375,0,0
-1.04864693639684E-06,-1.70960338436998E-05,1.93359375,0,0
-2.36545270126953E-06,-1.57353151735151E-05,1.93359375,0,0
-2.14802412301651E-06,-1.69991435541306E-05,1.93359375,0,0
1.57117924004524E-07,-1.86404831765685E-05,1.93359375,0,0
2.45494084083475E-06,-2.11754449992441E-05,1.93359375,0,0
4.2272672544641E-06,-2.14762767427601E-05,1.93359375,0,0
5.14283101438195E-06,-2.01577768166317E-05,1.93359375,0,0
5.20795538250241E-06,-1.6965735994745E-05,1.93359375,0,0
4.6085729081824E-06,-1.52624179463601E-05,1.93359375,0,0
2.84304474007513E-06,-1.26794247989892E-05,1.93359375,0,0
3.94919152313378E-06,-1.85047701961594E-05,1.93359375,0,0
3.64847664968693E-06,-1.22202127386117E-05,1.93359375,0,0
5.46150249647326E-06,-1.23163799798931E-05,1.93359375,0,0
5.15606643602951E-06,-9.08036236069165E-06,1.93359375,0,0
6.66377900415682E-06,-1.07913474494126E-05,1.93359375,0,0
8.11449081083993E-06,-1.09005959529895E-05,1.93359375,0,0
8.64703361003194E-06,-1.44816631291178E-05,1.93359375,0,0
7.41731855669059E-06,-1.74136712303152E-05,1.93359375,0,0
7.06397395333624E-06,-1.98002253455343E-05,1.93359375,0,0
6.81330402585445E-06,-2.12712893699063E-05,1.93359375,0,0
6.64629124003113E-06,-2.01009479496861E-05,1.93359375,0,0
7.79968831920996E-06,-1.93339437828399E-05,1.93359375,0,0
8.70677195052849E-06,-1.94311869563535E-05,1.93359375,0,0
8.79605886439094E-06,-2.13876228372101E-05,1.93359375,0,0
8.36556228023255E-06,-2.09711633942788E-05,1.93359375,0,0
8.5309220594354E-06,-2.12627674045507E-05,1.93359375,0,0
8.0597956184647E-06,-2.00046197278425E-05,1.93359375,0,0
7.97177472122712E-06,-1.95089560293127E-05,1.93359375,0,0
7.44942099117907E-06,-1.88579833775293E-05,1.93359375,0,0
6.32710589343333E-06,-1.94414478755789E-05,1.93359375,0,0
4.94558253194555E-06,-1.86276229214855E-05,1.93359375,0,0
4.11849623560556E-06,-1.87486639333656E-05,1.93359375,0,0
3.57839417119976E-06,-1.82543280971004E-05,1.93359375,0,0
4.56412180938059E-06,-1.63674922077917E-05,1.93359375,0,0
5.704606337531E-06,-1.46794100146508E-05,1.93359375,0,0
5.25828590980382E-06,-1.45181575135211E-05,1.93359375,0,0
3.13761256620637E-06,-1.15714028652292E-05,1.93359375,0,0
4.83975099996314E-06,-1.56611204147339E-05,1.93359375,0,0
4.09632411901839E-06,-1.21491593745304E-05,1.93359375,0,0
3.64139214070747E-06,-1.83899355761241E-05,1.93359375,0,0
1.72674776877102E-06,-1.89851980394451E-05,1.93359375,0,0
3.39867824550311E-06,-2.23555689444765E-05,1.93359375,0,0
5.16763338964665E-06,-2.08133933483623E-05,1.93359375,0,0
5.76879074287717E-06,-1.99441019503865E-05,1.93359375,0,0
5.27940119354753E-06,-1.81652740138816E-05,1.93359375,0,0
4.57113674201537E-06,-1.74261931533692E-05,1.93359375,0,0
3.15045417664805E-06,-1.75581863004481E-05,1.93359375,0,0
1.72423676758626E-06,-1.71133888215991E-05,1.93359375,0,0
9.30609928673221E-07,-1.76036810444202E-05,1.93359375,0,0
7.57087050828886E-08,-1.62326505233068E-05,1.93359375,0,0
-4.67441303442229E-08,-1.57925096573308E-05,1.93359375,0,0
7.90563433383795E-07,-1.45024660014315E-05,1.93359375,0,0
2.87788225250551E-06,-1.458063343307E-05,1.93359375,0,0
4.2142119127675E-06,-1.33594558064942E-05,1.93359375,0,0
4.60514911537757E-06,-1.38097220769851E-05,1.93359375,0,0
3.79838047592784E-06,-1.34091333165998E-05,2.109375,0,0
3.21690185955958E-06,-1.38937430165242E-05,2.109375,0,0
2.8357349037833E-06,-1.41675964187016E-05,2.109375,0,0
2.96441021419014E-06,-1.47334021676215E-05,2.109375,0,0
2.42591340793297E-06,-1.3775816114503E-05,2.109375,0,0
1.32194543311925E-06,-1.24402704386739E-05,2.109375,0,0
-7.22265696140312E-08,-1.23094032460358E-05,2.109375,0,0
-8.47030889872258E-07,-1.29311092678108E-05,2.109375,0,0
2.85398471078224E-07,-9.94784386421088E-06,2.109375,0,0
1.81982863978192E-06,-1.31973156385357E-05,2.109375,0,0
3.0412249998335E-06,-9.43893246585503E-06,2.109375,0,0
3.06579886455438E-06,-1.27095454445225E-05,2.109375,0,0
3.73349848814541E-06,-1.11576973722549E-05,2.109375,0,0
3.31039245793363E-06,-1.35036179926828E-05,2.109375,0,0
1.66508652910125E-06,-1.2706924280792E-05,2.109375,0,0
4.16665614011436E-07,-1.33990952235763E-05,2.109375,0,0
1.81439668267558E-06,-1.42687458719593E-05,2.109375,0,0
4.24962581746513E-06,-1.63180939125596E-05,2.109375,0,0
5.00445412399131E-06,-1.72784984897589E-05,2.109375,0,0
4.16885904996889E-06,-1.63968743436271E-05,2.109375,0,0
2.54073052019521E-06,-1.70754428836517E-05,2.109375,0,0
1.73302225903171E-06,-1.75943514477694E-05,2.109375,0,0
1.62667663516913E-06,-1.84202544915024E-05,2.109375,0,0
1.72516467955575E-06,-1.74811721080914E-05,2.109375,0,0
1.5272717064363E-06,-1.80369770532707E-05,2.109375,0,0
1.89767138181196E-06,-1.70994662767043E-05,2.109375,0,0
2.92534627988061E-06,-1.69904433278134E-05,2.109375,0,0
3.16649061460339E-06,-1.63007425726391E-05,2.109375,0,0
2.30108980758814E-06,-1.76540779648349E-05,2.109375,0,0
1.28082956507569E-06,-2.01092916540802E-05,2.109375,0,0
1.77191532202414E-06,-2.22835133172339E-05,2.109375,0,0
4.60588898931746E-06,-2.0388608390931E-05,2.109375,0,0
6.8751942308154E-06,-1.84171276487177E-05,2.109375,0,0
6.78715377944172E-06,-1.94933745660819E-05,2.109375,0,0
5.46691308045411E-06,-2.03337931452552E-05,2.109375,0,0
2.85420946966042E-06,-1.61897096404573E-05,2.109375,0,0
1.96355085790856E-06,-2.38296761381207E-05,2.109375,0,0
-1.85753572168323E-06,-1.90635164472042E-05,2.109375,0,0
-2.70541477220831E-06,-2.393086651864E-05,2.109375,0,0
-4.76977447760873E-06,-2.11589485843433E-05,2.109375,0,0
-4.28131806984311E-06,-2.38593165704515E-05,2.109375,0,0
-3.28753776557278E-06,-2.20885540329618E-05,2.109375,0,0
-1.93771052181546E-06,-2.18428394873627E-05,2.109375,0,0
-1.80834354068793E-06,-2.07520261028549E-05,2.109375,0,0
-1.02596345641359E-06,-2.07431767194066E-05,2.109375,0,0
4.28225888526867E-07,-2.08574110729387E-05,2.109375,0,0
2.2575566163141E-06,-1.95806369447382E-05,2.109375,0,0
4.76898139822879E-06,-1.96107466763351E-05,2.109375,0,0
6.85088889440522E-06,-1.87069908861304E-05,2.109375,0,0
8.84265864442568E-06,-1.95808188436786E-05,2.109375,0,0
9.31794511416228E-06,-1.83877073141048E-05,2.109375,0,0
9.36597552936291E-06,-1.86396027856972E-05,2.109375,0,0
9.20999264053535E-06,-1.72041764017195E-05,2.109375,0,0
9.92955483525293E-06,-1.72613454196835E-05,2.109375,0,0
1.07455689430935E-05,-1.64510074682767E-05,2.109375,0,0
1.17149684228934E-05,-1.70891271409346E-05,2.109375,0,0
1.09417733256123E-05,-1.73172829818213E-05,2.109375,0,0
1.08640251710312E-05,-1.77589063241612E-05,2.109375,0,0
1.27434886962874E-05,-1.68663846125128E-05,2.109375,0,0
1.46889587995247E-05,-1.70097482623532E-05,2.109375,0,0
1.61532589117996E-05,-1.71753781614825E-05,2.109375,0,0
1.72697255038656E-05,-1.82326602953253E-05,2.109375,0,0
1.46856991705135E-05,-1.78491027327254E-05,2.109375,0,0
2.21009413508E-05,-2.50698958552675E-05,2.109375,0,0
1.81358209374594E-05,-1.6175788914552E-05,2.109375,0,0
2.18241384573048E-05,-1.83632419066271E-05,2.109375,0,0
1.8317774447496E-05,-1.49082115967758E-05,2.109375,0,0
1.91022973012878E-05,-1.67999296536436E-05,2.109375,0,0
1.59733408509055E-05,-1.40820111482753E-05,2.109375,0,0
1.43709548865445E-05,-1.41415466714534E-05,2.109375,0,0
1.17143436000333E-05,-1.36878461489687E-05,2.109375,0,0
1.09468510345323E-05,-1.57780941663077E-05,2.109375,0,0
9.93342200672487E-06,-1.85727494681487E-05,2.109375,0,0
7.96295989857754E-06,-1.80217757588252E-05,2.109375,0,0
7.72983275965089E-06,-1.81349332706304E-05,2.109375,0,0
5.92640526519972E-06,-1.72423533513211E-05,2.109375,0,0
3.5439563816908E-06,-1.87141959031578E-05,2.109375,0,0
-1.46389174915385E-06,-1.85444168891991E-05,2.109375,0,0
-3.31157548316696E-06,-1.99748737941263E-05,2.109375,0,0
-4.97083919981378E-06,-2.01417951757321E-05,2.109375,0,0
-5.94096172790159E-06,-2.13970924960449E-05,2.109375,0,0
-8.85945155459922E-06,-1.95532338693738E-05,2.109375,0,0
-8.98128564585932E-06,-1.84029413503595E-05,2.109375,0,0
-8.83365373738343E-06,-1.74608176166657E-05,2.109375,0,0
-7.30992178432643E-06,-1.81858940777602E-05,2.109375,0,0
-6.10225970376632E-06,-1.77237452589907E-05,2.109375,0,0
-6.15325870967354E-06,-1.87246096174931E-05,2.109375,0,0
-7.43275359127438E-06,-2.10920388781233E-05,2.109375,0,0
-7.08319430486881E-06,-2.17596243601292E-05,2.109375,0,0
-4.71569501314661E-06,-1.70287130458746E-05,2.109375,0,0
-5.76991942580207E-06,-2.33899263548665E-05,2.109375,0,0
-3.08166704598989E-06,-1.55296147568151E-05,2.109375,0,0
-4.51730284112273E-06,-1.84267228178214E-05,2.109375,0,0
-2.66448955699161E-06,-1.41193886520341E-05,2.109375,0,0
-2.00066119759867E-06,-1.57666654558852E-05,2.109375,0,0
-9.69420398178045E-07,-1.41565042213188E-05,2.109375,0,0
-2.46659260483284E-06,-1.64436678460334E-05,2.109375,0,0
-2.82969313047943E-06,-1.72322961589089E-05,2.109375,0,0
-1.54540725816332E-06,-1.62558953888947E-05,2.109375,0,0
9.70370365394047E-07,-1.46427764775581E-05,2.109375,0,0
2.94911592391145E-06,-1.37043207359966E-05,2.109375,0,0
2.85468263427902E-06,-1.4803958038101E-05,2.109375,0,0
1.80736071797583E-06,-1.40309812195483E-05,2.109375,0,0
-1.48184241766103E-07,-1.43280249176314E-05,2.109375,0,0
-1.03951958863036E-06,-1.27075209093164E-05,2.109375,0,0
-2.5245410597563E-06,-1.31884271468152E-05,2.109375,0,0
-3.62714717994095E-06,-1.20428176160203E-05,2.109375,0,0
-4.42099235442583E-06,-1.30841472127941E-05,2.109375,0,0
-3.32626882482145E-06,-1.3286203284224E-05,2.109375,0,0
-2.32954425882781E-06,-1.40884840220679E-05,2.109375,0,0
-1.25145209040056E-06,-1.33895609906176E-05,2.109375,0,0
-2.75442488373301E-07,-1.5184746189334E-05,2.109375,0,0
1.03798004147393E-06,-1.6849360690685E-05,2.109375,0,0
5.56378438432148E-07,-1.76273351826239E-05,2.109375,0,0
-5.38194058208319E-07,-1.72906784428051E-05,2.109375,0,0
-1.36203709644178E-06,-1.65082983585307E-05,2.109375,0,0
3.47780165776967E-10,-1.29490617837291E-05,2.109375,0,0
1.31293950289546E-06,-1.7842537999968E-05,2.109375,0,0
1.5325697404478E-06,-1.14916692837141E-05,2.109375,0,0
-2.87121991959793E-07,-1.34569172587362E-05,2.109375,0,0
-1.50080609273573E-07,-1.13411397251184E-05,2.109375,0,0
2.75056663667783E-07,-1.31666620291071E-05,2.109375,0,0
-2.13122930858844E-07,-1.20162594612339E-05,2.109375,0,0
-1.25621329516434E-06,-1.40261145133991E-05,2.109375,0,0
-1.24075836538395E-06,-1.47793953146902E-05,2.109375,0,0
-5.77454102312913E-07,-1.58880375238368E-05,2.109375,0,0
-1.84654925305949E-06,-1.70651001099031E-05,2.109375,0,0
-3.52715255758085E-06,-1.73707157955505E-05,2.109375,0,0
-3.26940448758251E-06,-1.82672356459079E-05,2.109375,0,0
-1.49722006881348E-06,-1.79036705958424E-05,2.109375,0,0
7.56579936478374E-07,-1.96343626157613E-05,2.109375,0,0
3.07740560856473E-06,-2.08349592867307E-05,2.109375,0,0
4.50827565146028E-06,-2.36013001995161E-05,2.109375,0,0
5.07010918227024E-06,-2.3801005227142E-05,2.109375,0,0
5.32523927176953E-06,-2.35982206504559E-05,2.109375,0,0
6.67214499117108E-06,-2.16097269003512E-05,2.109375,0,0
8.36459275888046E-06,-2.0859639334958E-05,2.109375,0,0
8.89081456989516E-06,-1.99923306354322E-05,2.109375,0,0
8.33066678751493E-06,-1.95578268176178E-05,2.109375,0,0
7.04920648786356E-06,-1.74677315953886E-05,2.109375,0,0
5.59112231712788E-06,-1.58524417201988E-05,2.109375,0,0
5.46356704944628E-06,-1.61521857080515E-05,2.109375,0,0
7.23258335710852E-06,-1.76949051819975E-05,2.109375,0,0
6.66056757836486E-06,-1.60763866006164E-05,2.109375,0,0
8.96636629477143E-06,-2.42692422034452E-05,2.109375,0,0
6.58058752378565E-06,-2.0148727344349E-05,2.109375,0,0
7.74310774431797E-06,-2.50911580224056E-05,2.109375,0,0
4.8303663788829E-06,-2.27283489948604E-05,2.109375,0,0
4.52469885203755E-06,-2.31839549087454E-05,2.109375,0,0
2.88589490082813E-06,-1.869939842436E-05,2.109375,0,0
3.02471084978606E-06,-1.85230946954107E-05,2.109375,0,0
1.59341902872256E-06,-1.93191299331374E-05,2.109375,0,0
1.24253767808113E-06,-1.9568704374251E-05,2.109375,0,0
1.44513546729286E-06,-1.79708131327061E-05,2.109375,0,0
1.02609385521646E-06,-1.56688292918261E-05,2.109375,0,0
1.11802592073218E-06,-1.49371107909246E-05,2.109375,0,0
2.74379942766245E-07,-1.30208582049818E-05,2.109375,0,0
-2.28256851642072E-07,-1.32094191940269E-05,2.109375,0,0
-1.37847473524744E-06,-1.23032459669048E-05,2.109375,0,0
-8.07952687864599E-07,-1.39720932565979E-05,2.109375,0,0
-6.83377720633871E-07,-1.5293479009415E-05,2.109375,0,0
-2.96730817694879E-08,-1.82257535925601E-05,2.109375,0,0
-6.770152936042E-07,-1.85335738933645E-05,2.109375,0,0
-1.46109087495461E-07,-1.82377807504963E-05,2.109375,0,0
3.19439010354472E-07,-1.5888213965809E-05,2.109375,0,0
8.42621602714644E-07,-1.5583627828164E-05,2.109375,0,0
7.35871026336099E-07,-1.52715074364096E-05,2.109375,0,0
1.27662804061401E-06,-1.49032011904637E-05,2.109375,0,0
3.00591159430041E-06,-1.46198026413913E-05,2.109375,0,0
3.91979119740427E-06,-1.36689122882672E-05,2.109375,0,0
2.60099000115588E-06,-1.10426226456184E-05,2.109375,0,0
2.87323837255826E-06,-1.60540130309528E-05,2.109375,0,0
1.29196212128591E-06,-1.29142290461459E-05,2.109375,0,0
2.25216058424849E-06,-1.68421775015304E-05,2.109375,0,0
2.62324670075031E-06,-1.65488199854735E-05,2.109375,0,0
4.11334576710942E-06,-1.937779779837E-05,2.109375,0,0
3.89610477213864E-06,-1.73843418451725E-05,2.109375,0,0
3.77382684746408E-06,-1.54882091010222E-05,2.109375,0,0
4.08536880058819E-06,-1.3738881534664E-05,2.109375,0,0
4.8171850721701E-06,-1.45729782161652E-05,2.109375,0,0
5.26533722222666E-06,-1.64936482178746E-05,2.109375,0,0
5.29002181792748E-06,-1.71588344528573E-05,2.109375,0,0
6.23380856268341E-06,-1.74262950167758E-05,2.109375,0,0
7.00480268278625E-06,-1.58372804435203E-05,2.109375,0,0
7.00869895808864E-06,-1.5618214092683E-05,2.109375,0,0
5.48966772839776E-06,-1.45684534800239E-05,2.109375,0,0
4.76338937005494E-06,-1.49089928527246E-05,2.109375,0,0
6.11812220085994E-06,-1.48343333421508E-05,2.109375,0,0
9.22763229027623E-06,-1.5748877558508E-05,2.109375,0,0
1.13080495793838E-05,-1.48973294926691E-05,2.109375,0,0
1.30346361402189E-05,-1.45122448884649E-05,2.109375,0,0
1.40371839734144E-05,-1.31996175696258E-05,2.109375,0,0
1.46154889080208E-05,-1.11750596261118E-05,2.109375,0,0
1.51580989040667E-05,-8.53135770739755E-06,2.109375,0,0
1.55766483658226E-05,-8.98596681508934E-06,2.109375,0,0
1.59804640134098E-05,-1.13687074190238E-05,2.109375,0,0
1.63616696227109E-05,-1.23248173622414E-05,2.109375,0,0
1.38598643388832E-05,-7.21839114703471E-06,2.109375,0,0
1.91068174899556E-05,-9.20548063731985E-06,2.109375,0,0
1.31797460198868E-05,-7.29788189346436E-06,2.109375,0,0
1.63135446200613E-05,-1.02902622529655E-05,2.109375,0,0
1.27925941342255E-05,-8.9812265287037E-06,2.109375,0,0
1.35524242068641E-05,-1.13103933472303E-05,2.109375,0,0
1.01237401395338E-05,-9.98462746792939E-06,2.109375,0,0
8.08237837190973E-06,-1.04410955827916E-05,2.109375,0,0
4.6752661546634E-06,-1.23994759633206E-05,2.109375,0,0
2.7805340323539E-06,-1.55909128807252E-05,2.109375,0,0
1.21283153475815E-06,-1.6804930055514E-05,2.109375,0,0
-2.18896303749716E-07,-1.66094287123997E-05,2.109375,0,0
1.2822632697862E-06,-1.72425989148906E-05,2.109375,0,0
1.60290403528052E-06,-1.73795051523484E-05,2.109375,0,0
2.31313015319756E-06,-1.91208619071404E-05,2.109375,0,0
2.24628550427042E-07,-1.98990601347759E-05,2.109375,0,0
-1.4428827626034E-06,-2.09783702302957E-05,2.109375,0,0
-4.3288682718412E-06,-2.0142853827565E-05,2.109375,0,0
-4.53557322543929E-06,-1.98822126549203E-05,2.109375,0,0
-4.99482484883629E-06,-1.97920417122077E-05,2.109375,0,0
-3.94040125684114E-06,-2.14423016586807E-05,2.109375,0,0
-4.04269576392835E-06,-2.21717764361529E-05,2.109375,0,0
-3.4435506677255E-06,-2.22898415813688E-05,2.109375,0,0
-2.19728462980129E-06,-2.13568437175127E-05,2.109375,0,0
-7.29508201402496E-07,-2.13161474675871E-05,2.109375,0,0
-6.18135800323216E-07,-2.16567314055283E-05,2.109375,0,0
-8.91810827852169E-07,-1.98494217329426E-05,2.109375,0,0
-4.93150764668826E-07,-1.59292758326046E-05,2.109375,0,0
-2.99938164971536E-07,-2.44808743445901E-05,2.109375,0,0
1.4900815585861E-06,-2.04371772269951E-05,2.109375,0,0
3.15950410367805E-06,-2.55423310591141E-05,2.109375,0,0
4.25291000283323E-06,-2.40981880779145E-05,2.109375,0,0
2.18421973841032E-06,-2.71414628514322E-05,2.109375,0,0
9.76075284597755E-07,-2.62378362094751E-05,2.109375,0,0
3.43162150784337E-06,-2.56999301200267E-05,2.109375,0,0
6.66751384414965E-06,-2.35418974625645E-05,2.109375,0,0
7.82523693487747E-06,-2.30017740250332E-05,2.109375,0,0
7.45335910323774E-06,-2.24213908950333E-05,2.109375,0,0
6.7108617258782E-06,-2.00133727048524E-05,2.109375,0,0
6.15076942267478E-06,-1.9879606043105E-05,2.109375,0,0
6.16076658843667E-06,-2.00652721105143E-05,2.109375,0,0
7.32152329874225E-06,-2.15562995435903E-05,2.109375,0,0
7.97980283095967E-06,-2.06823606276885E-05,2.109375,0,0
5.57187513550161E-06,-2.16545340663288E-05,2.109375,0,0
1.15231978270458E-06,-2.14141982723959E-05,2.109375,0,0
-2.22592734644422E-06,-2.20432084461208E-05,2.109375,0,0
-2.6708719360613E-06,-2.0682313333964E-05,2.109375,0,0
-1.71126498571539E-06,-2.00888516701525E-05,2.109375,0,0
-1.02159185644268E-06,-1.91030412679538E-05,2.109375,0,0
-7.74859756802471E-07,-1.90808023035061E-05,2.109375,0,0
-5.11589291818382E-07,-1.88257999980124E-05,2.109375,0,0
-1.78764153702105E-07,-1.94552121683955E-05,3.1640625,0,0
-1.94970169786757E-07,-1.85946955753025E-05,3.1640625,0,0
-7.46105399684893E-07,-1.63939967023907E-05,3.1640625,0,0
-1.76579715116532E-06,-1.32141958602006E-05,3.1640625,0,0
-2.64958657680836E-06,-1.90254231711151E-05,3.1640625,0,0
-2.23397296394978E-06,-1.48236622408149E-05,3.1640625,0,0
-2.96734287985601E-06,-1.82866806426318E-05,3.1640625,0,0
-1.57338649842131E-06,-1.57832073455211E-05,3.1640625,0,0
1.37466983574086E-07,-1.75370932993246E-05,3.1640625,0,0
1.06874051652994E-06,-1.58484999701614E-05,3.1640625,0,0
1.66982920291048E-06,-1.65731198649155E-05,3.1640625,0,0
2.92693675874034E-06,-1.63717068062397E-05,3.1640625,0,0
4.76131435789284E-06,-1.66757890838198E-05,3.1640625,0,0
5.9920303101535E-06,-1.66858044394758E-05,3.1640625,0,0
5.48722437088145E-06,-1.52123102452606E-05,3.1640625,0,0
4.20754304286675E-06,-1.48988528962946E-05,3.1640625,0,0
3.66138692697859E-06,-1.43362367452937E-05,3.1640625,0,0
3.48496382684971E-06,-1.4798190932197E-05,3.1640625,0,0
3.32235413225135E-06,-1.36525259222253E-05,3.1640625,0,0
2.56053999692085E-06,-1.4425932931772E-05,3.1640625,0,0
2.12289091905404E-06,-1.33343664856511E-05,3.1640625,0,0
2.21155869439826E-06,-1.30568287204369E-05,3.1640625,0,0
2.54524888987362E-06,-1.30176358652534E-05,3.1640625,0,0
2.56536554843478E-06,-1.49413281178568E-05,3.1640625,0,0
2.65665244114643E-06,-1.47522332554217E-05,3.1640625,0,0
1.61699119871628E-06,-1.49114430314512E-05,3.1640625,0,0
-4.76240899160985E-07,-1.5762963812449E-05,3.1640625,0,0
-1.78488471647142E-06,-1.75893801497296E-05,3.1640625,0,0
-1.53798816882045E-06,-1.81233390321722E-05,3.1640625,0,0
-7.41051508157398E-07,-1.78053760464536E-05,3.1640625,0,0
4.07727355877796E-07,-1.42994467751123E-05,3.1640625,0,0
9.7486451977602E-07,-2.05781798285898E-05,3.1640625,0,0
1.14259023575869E-06,-1.61249736265745E-05,3.1640625,0,0
2.88797923531092E-06,-1.99494170374237E-05,3.1640625,0,0
5.05872503708815E-06,-1.68289316206938E-05,3.1640625,0,0
5.24429242432234E-06,-2.10286998481024E-05,3.1640625,0,0
3.92205765820108E-06,-2.25491585297277E-05,3.1640625,0,0
1.73166381500778E-06,-2.3107952074497E-05,3.1640625,0,0
1.26616964735149E-06,-2.06338681891793E-05,3.1640625,0,0
2.56629641626205E-06,-1.94929270946886E-05,3.1640625,0,0
3.80950814360403E-06,-2.07396842597518E-05,3.1640625,0,0
3.88103308068821E-06,-2.12928825931158E-05,3.1640625,0,0
3.58109127773787E-06,-2.08572764677228E-05,3.1640625,0,0
3.923886197299E-06,-1.73340868059313E-05,3.1640625,0,0
4.04137153964257E-06,-1.5755467757117E-05,3.1640625,0,0
2.91787091555307E-06,-1.53568162204465E-05,3.1640625,0,0
5.25697942066472E-07,-1.99473815882811E-05,3.1640625,0,0
-1.41593727676081E-06,-2.40271147049498E-05,3.1640625,0,0
-2.59956982517906E-06,-2.75417150987778E-05,3.1640625,0,0
-2.66419601757661E-06,-2.68131188931875E-05,3.1640625,0,0
-1.17533159027516E-06,-2.3676746423007E-05,3.1640625,0,0
8.298768534587E-07,-1.86344932444626E-05,3.1640625,0,0
2.10769326258742E-06,-1.65447945619235E-05,3.1640625,0,0
2.16069156522281E-06,-1.67550424521323E-05,3.1640625,0,0
1.54031818055955E-06,-1.69379072758602E-05,3.1640625,0,0
1.24861628592043E-06,-1.53807650349336E-05,3.1640625,0,0
2.2832583113086E-07,-1.4263455341279E-05,3.1640625,0,0
-1.63392178365029E-06,-1.37708739202935E-05,3.1640625,0,0
-3.50501090906619E-06,-2.26799402298639E-05,3.1640625,0,0
-2.98263421427691E-06,-2.06378226721426E-05,3.1640625,0,0
-2.30956084124045E-06,-2.2719908884028E-05,3.1640625,0,0
-1.45747435453814E-06,-1.70382736541796E-05,3.1640625,0,0
4.65999875132184E-07,-1.60385461640544E-05,3.1640625,0,0
3.01259933621623E-06,-1.4848553291813E-05,3.1640625,0,0
5.06896913066157E-06,-1.63030672410969E-05,3.1640625,0,0
6.22491415924742E-06,-1.63266649906291E-05,3.1640625,0,0
7.0168825914152E-06,-1.70942148542963E-05,3.1640625,0,0
8.09049834060716E-06,-1.7862226741272E-05,3.1640625,0,0
9.15622786124004E-06,-1.64934936037753E-05,3.1640625,0,0
9.17847501114011E-06,-1.66004701895872E-05,3.1640625,0,0
8.17080126580549E-06,-1.62346423167037E-05,3.1640625,0,0
7.45725628803484E-06,-1.75354034581687E-05,3.1640625,0,0
7.78789944888558E-06,-1.73006901604822E-05,3.1640625,0,0
9.04095850273734E-06,-1.79796479642391E-05,3.1640625,0,0
1.10387036329485E-05,-1.75644563569222E-05,3.1640625,0,0
1.18173302325886E-05,-1.83740921784192E-05,3.1640625,0,0
1.07850601125392E-05,-1.82236926775659E-05,3.1640625,0,0
9.53319067775737E-06,-1.78623868123395E-05,3.1640625,0,0
9.08597303350689E-06,-1.59138289745897E-05,3.1640625,0,0
9.32002240006113E-06,-1.47290820677881E-05,3.1640625,0,0
1.0074169949803E-05,-1.46382608363638E-05,3.1640625,0,0
1.17910931294318E-05,-1.44498089866829E-05,3.1640625,0,0
1.28795736600296E-05,-1.34692281790194E-05,3.1640625,0,0
1.19194382932619E-05,-1.27688790598768E-05,3.1640625,0,0
8.0077779784915E-06,-8.86786347109592E-06,3.1640625,0,0
1.10489281723858E-05,-1.24308453450794E-05,3.1640625,0,0
7.8497259892174E-06,-1.09283564597717E-05,3.1640625,0,0
9.66643710853532E-06,-1.53709825099213E-05,3.1640625,0,0
7.42844849810353E-06,-1.40803394970135E-05,3.1640625,0,0
6.56639986118535E-06,-1.6169762602658E-05,3.1640625,0,0
3.90274180972483E-06,-1.58795919560362E-05,3.1640625,0,0
3.9228862078744E-06,-1.49226807479863E-05,3.1640625,0,0
1.60262254667032E-06,-1.28968058561441E-05,3.1640625,0,0
9.28009171730082E-08,-1.24094040074851E-05,3.1640625,0,0
-1.05288324903086E-06,-1.25004589790478E-05,3.1640625,0,0
-1.91774142876966E-06,-1.29364989334135E-05,3.1640625,0,0
-1.11087888399197E-06,-1.44824625749607E-05,3.1640625,0,0
-6.23732603344251E-07,-1.56517980940407E-05,3.1640625,0,0
5.09634105583245E-07,-1.72478921740549E-05,3.1640625,0,0
6.44147405637341E-07,-1.70013081515208E-05,3.1640625,0,0
1.63790605256509E-06,-1.81262294063345E-05,3.1640625,0,0
1.17142144517857E-06,-1.9074919691775E-05,3.1640625,0,0
1.23347899716464E-06,-2.09199897653889E-05,3.1640625,0,0
5.41988981694885E-07,-2.09038516914006E-05,3.1640625,0,0
1.76803666818159E-06,-2.08066485356539E-05,3.1640625,0,0
2.70194868789986E-06,-1.95225584320724E-05,3.1640625,0,0
2.35263860304258E-06,-1.76721387106227E-05,3.1640625,0,0
-1.22600923191385E-07,-1.54406789079076E-05,3.1640625,0,0
-9.92966874946433E-07,-1.69156191986986E-05,3.1640625,0,0
-7.25077825336484E-07,-2.03664349101018E-05,3.1640625,0,0
-1.09076017906773E-06,-2.21919181058183E-05,3.1640625,0,0
-9.23813672670804E-07,-1.6990932635963E-05,3.1640625,0,0
-1.12151894882118E-06,-2.23764836846385E-05,3.1640625,0,0
8.97750510375772E-07,-1.52297916429234E-05,3.1640625,0,0
1.73446267126565E-06,-1.93942832993343E-05,3.1640625,0,0
1.39934127219021E-06,-1.40564015964628E-05,3.1640625,0,0
8.68928395902913E-07,-1.5570803952869E-05,3.1640625,0,0
4.51367327514163E-07,-1.2980199244339E-05,3.1640625,0,0
-2.14520625263503E-07,-1.48317367347772E-05,3.1640625,0,0
4.622507105978E-07,-1.5632056602044E-05,3.1640625,0,0
1.23629865811381E-06,-1.77787096617976E-05,3.1640625,0,0
5.41862732461595E-07,-2.10913476621499E-05,3.1640625,0,0
-1.39731355375261E-06,-2.23905080929399E-05,3.1640625,0,0
-3.0123023861961E-06,-2.35954776144354E-05,3.1640625,0,0
-2.62997559730138E-06,-2.27534201258095E-05,3.1640625,0,0
-8.59398539887479E-07,-2.39630917349132E-05,3.1640625,0,0
2.99052175023462E-07,-2.31579342653276E-05,3.1640625,0,0
-1.29938726445289E-07,-2.29314118769253E-05,3.1640625,0,0
-2.77805534132369E-09,-1.85367061931174E-05,3.1640625,0,0
1.25695692076988E-06,-1.6888152458705E-05,3.1640625,0,0
1.47385117088561E-06,-1.70563398569357E-05,3.1640625,0,0
2.16514919770816E-07,-1.92682691704249E-05,3.1640625,0,0
-1.1028270563429E-07,-1.86006327567156E-05,3.1640625,0,0
5.80545531647658E-07,-1.7362266589771E-05,3.1640625,0,0
1.11299300442624E-06,-1.43569759529782E-05,3.1640625,0,0
1.31440822315199E-06,-1.31827182485722E-05,3.1640625,0,0
1.93508435586409E-06,-1.44166333484463E-05,3.1640625,0,0
1.48330593674473E-06,-1.44195128086722E-05,3.1640625,0,0
6.92696005444304E-07,-1.02468320619664E-05,3.1640625,0,0
1.74412025444326E-06,-1.35568789119134E-05,3.1640625,0,0
3.41383747581858E-06,-9.38177799980622E-06,3.1640625,0,0
4.7964326768124E-06,-1.26055201690178E-05,3.1640625,0,0
5.28739337823936E-06,-1.07612595456885E-05,3.1640625,0,0
5.74565910937963E-06,-1.17054032671149E-05,3.1640625,0,0
4.48585342383012E-06,-1.02809781310498E-05,3.1640625,0,0
3.24828647535469E-06,-1.17914560178178E-05,3.1640625,0,0
3.92653737435467E-06,-1.32601335280924E-05,3.1640625,0,0
5.29723547515459E-06,-1.38777431857307E-05,3.1640625,0,0
6.24797758064233E-06,-1.32120430862415E-05,3.1640625,0,0
6.53353026791592E-06,-1.13591231638566E-05,3.1640625,0,0
6.94197706252453E-06,-1.17786939881626E-05,3.1640625,0,0
7.50860499465489E-06,-1.23958361655241E-05,3.1640625,0,0
7.14535599399824E-06,-1.36703210955602E-05,3.1640625,0,0
5.80501455260674E-06,-1.44045488923439E-05,3.1640625,0,0
5.00948044646066E-06,-1.80006081791362E-05,3.1640625,0,0
4.59614420833532E-06,-1.99701298697619E-05,3.1640625,0,0
3.96029690818978E-06,-1.96958444576012E-05,3.1640625,0,0
3.91047751691076E-06,-1.60588424478192E-05,3.1640625,0,0
5.5691771194688E-06,-1.34437668748433E-05,3.1640625,0,0
7.18340515959426E-06,-1.26067316159606E-05,3.1640625,0,0
5.90596073379857E-06,-1.37796150738723E-05,3.1640625,0,0
2.49033973886981E-06,-1.36855842356454E-05,3.1640625,0,0
3.3797772402977E-07,-1.31168753796373E-05,3.1640625,0,0
8.05445552032324E-07,-1.26690829347353E-05,3.1640625,0,0
3.09674624077161E-06,-1.30957714645774E-05,3.1640625,0,0
3.80722167392378E-06,-1.02092990346137E-05,3.1640625,0,0
5.68630639463663E-06,-1.37278493639315E-05,3.1640625,0,0
4.63323294752627E-06,-1.05447807072778E-05,3.1640625,0,0
6.72644773658249E-06,-1.50329706229968E-05,3.1640625,0,0
8.07390370027861E-06,-1.44012401506188E-05,5.625,0,0
9.65585149970138E-06,-1.67724756465759E-05,5.625,0,0
9.40544396144105E-06,-1.53052023961209E-05,5.625,0,0
1.08781059680041E-05,-1.52497232193127E-05,5.625,0,0
1.28184292407241E-05,-1.43565048347227E-05,5.625,0,0
1.34160500238067E-05,-1.45266003528377E-05,5.625,0,0
1.19871610877453E-05,-1.454508947063E-05,5.625,0,0
9.01498424354941E-06,-1.35788232000777E-05,5.625,0,0
7.75873195379972E-06,-1.36560602186364E-05,5.625,0,0
8.89517923496896E-06,-1.34552146846545E-05,5.625,0,0
1.01712812465848E-05,-1.47569253385882E-05,5.625,0,0
9.65930576057872E-06,-1.50571313497494E-05,5.625,0,0
9.7612792160362E-06,-1.54796416609315E-05,5.625,0,0
9.61121440923307E-06,-1.41383552545449E-05,5.625,0,0
8.18017178971786E-06,-1.49804072862025E-05,5.625,0,0
6.20002992945956E-06,-1.5005358363851E-05,5.625,0,0
5.6384815252386E-06,-1.53179662447656E-05,5.625,0,0
4.49587469120161E-06,-1.4810063476034E-05,5.625,0,0
1.91304707186646E-06,-1.46981074067298E-05,5.625,0,0
-8.48505237627251E-07,-1.48718036143691E-05,5.625,0,0
-1.63147353759996E-06,-1.7365133317071E-05,5.625,0,0
-1.59336752858508E-06,-2.01013535843231E-05,5.625,0,0
-2.04951061277825E-06,-2.13482489925809E-05,5.625,0,0
-1.88549677204719E-06,-1.67385078384541E-05,5.625,0,0
-1.67728364885988E-06,-2.32838647207245E-05,5.625,0,0
9.99872213469644E-07,-1.77500987774692E-05,5.625,0,0
1.72393981756613E-06,-2.3161406716099E-05,5.625,0,0
2.64251275439165E-06,-1.99736696231412E-05,5.625,0,0
1.60430454343441E-06,-2.15317904803669E-05,5.625,0,0
-5.09600219800177E-08,-1.77761212398764E-05,5.625,0,0
-2.1901328182139E-06,-1.84177115443163E-05,5.625,0,0
-2.50489551945066E-06,-1.862452882051E-05,5.625,0,0
-8.26724658509193E-07,-1.8694607206271E-05,5.625,0,0
1.46672573464457E-06,-1.7820870198193E-05,5.625,0,0
3.6496658140095E-06,-1.65602268680232E-05,5.625,0,0
4.71140901936451E-06,-1.88016929314472E-05,5.625,0,0
4.80414610137814E-06,-2.00072208826896E-05,5.625,0,0
4.05645369028207E-06,-2.23182687477674E-05,5.625,0,0
3.69257622878649E-06,-2.22274120460497E-05,5.625,0,0
3.3634946703387E-06,-2.43969061557436E-05,5.625,0,0
3.25147402691073E-06,-2.44559232669417E-05,5.625,0,0
3.08927360492817E-06,-2.60895048995735E-05,5.625,0,0
3.03937395074172E-06,-2.67761079157935E-05,5.625,0,0
2.74907210950914E-06,-2.78149818768725E-05,5.625,0,0
2.54691508416727E-06,-2.46050112764351E-05,5.625,0,0
2.27181635636953E-06,-2.05360684049083E-05,5.625,0,0
2.03423360289889E-06,-1.69516824826133E-05,5.625,0,0
1.66439167514909E-06,-1.49406796481344E-05,5.625,0,0
1.59031128532661E-06,-1.44154773806804E-05,5.625,0,0
2.34585218095162E-06,-1.53076980495825E-05,5.625,0,0
3.66492781722627E-06,-1.25415053844335E-05,5.625,0,0
5.76029697185731E-06,-1.75250934262294E-05,5.625,0,0
3.72560180039727E-06,-1.25689048218192E-05,5.625,0,0
2.59548937719956E-06,-1.53907803905895E-05,5.625,0,0
1.01901014204486E-06,-1.29959944388247E-05,5.625,0,0
1.7072686659958E-06,-1.54159679368604E-05,5.625,0,0
1.91028811968863E-06,-1.51530439325143E-05,5.625,0,0
1.7538442307341E-06,-1.76584107975941E-05,5.625,0,0
4.89799276692793E-07,-1.9480821720208E-05,5.625,0,0
-3.05303558434389E-07,-2.09964455279987E-05,5.625,0,0
4.9433566573498E-08,-2.21951086132322E-05,5.625,0,0
-1.57516630849841E-08,-2.27241871471051E-05,5.625,0,0
-1.21992025015061E-06,-2.39785731537268E-05,5.625,0,0
-2.52766039920971E-06,-2.19864195969421E-05,5.625,0,0
-2.18015634345647E-06,-1.96070704987505E-05,5.625,0,0
-1.04114792520704E-06,-1.69378963619238E-05,5.625,0,0
-2.59791420376132E-07,-1.78525569936028E-05,5.625,0,0
-4.68184879309774E-07,-1.86869147000834E-05,5.625,0,0
3.49181107139884E-07,-2.10823091038037E-05,5.625,0,0
7.82139977673069E-07,-2.23725273826858E-05,5.625,0,0
9.62584863373195E-07,-2.32762831728905E-05,5.625,0,0
1.27760119994491E-06,-2.24844170588767E-05,5.625,0,0
2.2874867227074E-06,-2.4394608772127E-05,5.625,0,0
3.14282442559488E-06,-2.65672970272135E-05,5.625,0,0
3.69943586520094E-06,-2.47984680754598E-05,5.625,0,0
5.02009697811445E-06,-2.12571558222407E-05,5.625,0,0
6.53675670037046E-06,-1.98414709302597E-05,5.625,0,0
5.85447469347855E-06,-1.67472408065805E-05,5.625,0,0
7.53011090637301E-06,-2.43261856667232E-05,5.625,0,0
4.06153503718087E-06,-2.01731891138479E-05,5.625,0,0
5.29283352079801E-06,-2.57909996435046E-05,5.625,0,0
4.26399446951109E-06,-2.15210384340025E-05,5.625,0,0
4.89028798256186E-06,-2.27986110985512E-05,5.625,0,0
5.07214508616016E-06,-1.98680390894879E-05,5.625,0,0
5.59779118702863E-06,-1.81803752639098E-05,5.625,0,0
3.44098884852428E-06,-1.58302664203802E-05,5.625,0,0
1.15639738851314E-06,-1.60913132276619E-05,5.625,0,0
4.81818290154479E-07,-1.74829401657917E-05,5.625,0,0
1.1345379107297E-06,-1.77741549123311E-05,5.625,0,0
2.6927373255603E-06,-1.96510554815177E-05,5.625,0,0
3.31198680214584E-06,-1.9457693269942E-05,5.625,0,0
4.21708000430954E-06,-1.91480794455856E-05,5.625,0,0
4.43507042291458E-06,-1.55973211803939E-05,5.625,0,0
5.50908453078591E-06,-1.41833133966429E-05,5.625,0,0
5.81020594836446E-06,-1.22392011689954E-05,5.625,0,0
5.72751378058456E-06,-1.3269448572828E-05,5.625,0,0
4.76113655167865E-06,-1.35148666231544E-05,5.625,0,0
5.5657392294961E-06,-1.37721108330879E-05,5.625,0,0
6.46622356725857E-06,-1.18074640340637E-05,5.625,0,0
5.64798619961948E-06,-1.06888210211764E-05,5.625,0,0
4.0030913623923E-06,-1.01393306977116E-05,5.625,0,0
2.17133015212312E-06,-1.01239702416933E-05,5.625,0,0
-2.77749649058023E-07,-1.0007726814365E-05,5.625,0,0
-5.52675658127555E-07,-1.14204713099753E-05,5.625,0,0
9.81786115517025E-07,-9.14767042559106E-06,5.625,0,0
2.37700578509248E-06,-1.10991568362806E-05,5.625,0,0
2.33595233112283E-06,-5.96847758060903E-06,5.625,0,0
1.71297847373353E-06,-7.32183707441436E-06,5.625,0,0
3.22338041769399E-06,-5.04604076922988E-06,5.625,0,0
5.82974507778999E-06,-8.06818479759386E-06,5.625,0,0
7.48679349271697E-06,-1.04327837107121E-05,5.625,0,0
7.30498732082197E-06,-1.47156715684105E-05,5.625,0,0
6.03659418629832E-06,-1.7306661902694E-05,5.625,0,0
5.34388800588204E-06,-1.9251163394074E-05,5.625,0,0
5.46452974958811E-06,-1.95503853319678E-05,5.625,0,0
5.79270817979705E-06,-1.86420074896887E-05,5.625,0,0
5.57467274120427E-06,-1.8210716007161E-05,5.625,0,0
4.98314921060228E-06,-1.73648368217982E-05,5.625,0,0
5.30748275195947E-06,-1.78393838723423E-05,5.625,0,0
6.27869758318411E-06,-1.69295744854026E-05,5.625,0,0
5.91256139159668E-06,-1.6699368643458E-05,5.625,0,0
3.94335575037985E-06,-1.50788910104893E-05,5.625,0,0
2.3836730633775E-06,-1.4786367501074E-05,5.625,0,0
2.37162203120533E-06,-1.43745101013337E-05,5.625,0,0
2.93249831884168E-06,-1.56787446030648E-05,5.625,0,0
1.83245538210031E-06,-1.53093787957914E-05,5.625,0,0
-5.17170803959743E-07,-1.45612693813746E-05,5.625,0,0
-1.87316118172021E-06,-1.48704129969701E-05,5.625,0,0
-2.0885502181045E-06,-1.62233700393699E-05,5.625,0,0
-1.59417095346726E-06,-1.58730017574271E-05,5.625,0,0
-8.50678418373718E-07,-1.55299239850137E-05,5.625,0,0
-1.22147093861713E-06,-1.30693424580386E-05,5.625,0,0
-2.53396387961402E-06,-1.88407666428247E-05,5.625,0,0
-2.97603901344701E-06,-1.46673883136827E-05,5.625,0,0
-1.84991540663759E-06,-1.78686386789195E-05,5.625,0,0
3.02868869539452E-07,-1.52459961100249E-05,5.625,0,0
6.53867004984932E-07,-1.72843738255324E-05,5.625,0,0
-4.68469721681686E-07,-1.55803572852165E-05,5.625,0,0
-1.65062954238238E-06,-1.66259615070885E-05,5.625,0,0
-4.14263041648155E-07,-1.66646004799986E-05,5.625,0,0
1.4410813946597E-06,-1.65221390489023E-05,5.625,0,0
3.44675208907574E-06,-1.67103844432859E-05,5.625,0,0
3.88289117836393E-06,-1.68509104696568E-05,5.625,0,0
2.80374229078006E-06,-1.84006930794567E-05,5.625,0,0
2.20493416236422E-06,-1.79967064468656E-05,5.625,0,0
3.0768642318435E-06,-1.76746234501479E-05,5.625,0,0
5.53594236407662E-06,-1.613547829038E-05,5.625,0,0
7.51878769733594E-06,-1.71962619788246E-05,5.625,0,0
7.49777973396704E-06,-1.65675355674466E-05,5.625,0,0
5.93800814385759E-06,-1.62411070050439E-05,5.625,0,0
5.40536711923778E-06,-1.45548874570522E-05,5.625,0,0
5.69903068026179E-06,-1.45037429319927E-05,5.625,0,0
6.37724087937386E-06,-1.50971600305638E-05,5.625,0,0
6.8711692620127E-06,-1.71826559380861E-05,5.625,0,0
7.5994089456799E-06,-1.68927363120019E-05,5.625,0,0
7.75100852479227E-06,-1.57224239956122E-05,5.625,0,0
6.99376641932759E-06,-1.5871108189458E-05,5.625,0,0
5.75537205804721E-06,-1.62785145221278E-05,5.625,0,0
3.65296364179812E-06,-1.18443394967471E-05,5.625,0,0
5.11771440869779E-06,-1.525918560219E-05,5.625,0,0
4.39919540440314E-06,-8.51422373671085E-06,5.625,0,0
6.13913016422885E-06,-1.0308720447938E-05,5.625,0,0
4.97832434120937E-06,-8.71456995810149E-06,5.625,0,0
3.98050360672642E-06,-1.15881566671305E-05,5.625,0,0
1.94128097064095E-06,-1.16327992145671E-05,5.625,0,0
1.88605213224946E-06,-1.5419955161633E-05,5.625,0,0
1.69353131695971E-06,-1.6241801858996E-05,5.625,0,0
2.14972806134028E-06,-1.60061772476183E-05,9.31640625,0,0
2.21548930312565E-06,-1.62994110723957E-05,9.31640625,0,0
1.44909836308216E-06,-1.53836153913289E-05,9.31640625,0,0
2.60374036997746E-07,-1.47705259223585E-05,9.31640625,0,0
-1.37079075557267E-06,-1.38894492920372E-05,9.31640625,0,0
-1.65367271165451E-06,-1.55953784997109E-05,9.31640625,0,0
-1.44638931942609E-06,-1.5902809536783E-05,9.31640625,0,0
3.20122666153111E-08,-1.66990739671746E-05,9.31640625,0,0
9.93636604107451E-07,-1.62568812811514E-05,9.31640625,0,0
1.7452611018598E-06,-1.74131637322716E-05,9.31640625,0,0
2.96119083031954E-06,-1.70059993251925E-05,9.31640625,0,0
5.13393024448305E-06,-1.65743313118583E-05,9.31640625,0,0
6.0638521972578E-06,-1.60191830218537E-05,9.31640625,0,0
7.09332152837305E-06,-1.80902534339111E-05,9.31640625,0,0
8.15812745713629E-06,-1.97202134586405E-05,9.31640625,0,0
9.03125692275353E-06,-2.11650512937922E-05,9.31640625,0,0
8.55459347803844E-06,-2.29650213441346E-05,9.31640625,0,0
7.36153197067324E-06,-2.65639991994249E-05,9.31640625,0,0
4.76578543384676E-06,-2.32610855164239E-05,9.31640625,0,0
7.03664909451618E-06,-3.37694946210831E-05,9.31640625,0,0
7.18728506399202E-06,-2.62804296653485E-05,9.31640625,0,0
1.03941829365795E-05,-3.11362600768916E-05,9.31640625,0,0
8.96289839147357E-06,-2.42396927205846E-05,9.31640625,0,0
7.247500889207E-06,-2.58835643762723E-05,9.31640625,0,0
4.82286441183533E-06,-2.13061230169842E-05,9.31640625,0,0
5.55293036086368E-06,-2.02761239052052E-05,9.31640625,0,0
6.65328707327717E-06,-1.83582069439581E-05,9.31640625,0,0
6.7710830080614E-06,-1.8399337932351E-05,9.31640625,0,0
5.27148222317919E-06,-1.9611530660768E-05,9.31640625,0,0
2.94966207547986E-06,-2.00556769414106E-05,9.31640625,0,0
1.49474385580106E-06,-2.19626454054378E-05,9.31640625,0,0
6.43319992832403E-07,-2.18936293094885E-05,9.31640625,0,0
7.43557222904201E-07,-2.3705779312877E-05,9.31640625,0,0
3.6624891208703E-07,-2.21430964302272E-05,9.31640625,0,0
5.8341856856714E-07,-2.27178989007371E-05,9.31640625,0,0
-3.41827046668186E-07,-2.09576937777456E-05,9.31640625,0,0
-1.19302114853781E-06,-2.16295684367651E-05,9.31640625,0,0
-9.07791161353089E-07,-2.04912830668036E-05,9.31640625,0,0
1.12976454147429E-06,-2.11737351492047E-05,9.31640625,0,0
2.01339980776538E-06,-2.01886014110642E-05,9.31640625,0,0
1.88846672699583E-06,-2.00828253582586E-05,9.31640625,0,0
1.84468646580171E-07,-1.92932620848296E-05,9.31640625,0,0
-1.78547077211988E-06,-1.97538174688816E-05,9.31640625,0,0
-3.29126010001346E-06,-1.9795486878138E-05,9.31640625,0,0
-3.5721939184441E-06,-2.05092728720047E-05,9.31640625,0,0
-9.23709478684032E-07,-1.71801148098893E-05,9.31640625,0,0
-4.6571062739531E-07,-2.44888542511035E-05,9.31640625,0,0
-9.28917586406897E-07,-1.86729430424748E-05,9.31640625,0,0
-4.22077664552489E-06,-2.29472316277679E-05,9.31640625,0,0
-5.40871815246646E-06,-1.8488171917852E-05,9.31640625,0,0
-6.93286483510747E-06,-2.00071826839121E-05,9.31640625,0,0
-6.78805145071237E-06,-1.92274837900186E-05,9.31640625,0,0
-4.56377665614127E-06,-2.12274189834716E-05,9.31640625,0,0
-1.48679623634962E-06,-1.97875633602962E-05,9.31640625,0,0
8.12254654647404E-07,-1.71443389263004E-05,9.31640625,0,0
2.12749432648707E-06,-1.56169808178674E-05,9.31640625,0,0
3.91501907870406E-06,-1.52634784171823E-05,9.31640625,0,0
7.12307837602566E-06,-1.66907138918759E-05,9.31640625,0,0
9.81064476945903E-06,-1.61194529937347E-05,9.31640625,0,0
1.07353280327516E-05,-1.75344302988378E-05,9.31640625,0,0
1.08630902104778E-05,-1.65923484019004E-05,9.31640625,0,0
1.04556702353875E-05,-1.68507576745469E-05,9.31640625,0,0
1.11861854747985E-05,-1.54591125465231E-05,9.31640625,0,0
1.29097334138351E-05,-1.61582338478183E-05,9.31640625,0,0
1.42573289849679E-05,-1.55106245074421E-05,9.31640625,0,0
1.39176190714352E-05,-1.45199019243591E-05,9.31640625,0,0
1.25716223919881E-05,-1.155194331659E-05,9.31640625,0,0
1.12550560515956E-05,-9.91586693999125E-06,9.31640625,0,0
9.5713166956557E-06,-8.89242073753849E-06,9.31640625,0,0
7.2268503572559E-06,-1.10943865365698E-05,9.31640625,0,0
4.92419530928601E-06,-1.39044277602807E-05,9.31640625,0,0
3.03573096971377E-06,-1.43669958561077E-05,9.31640625,0,0
1.20538823011884E-06,-9.96049493551254E-06,9.31640625,0,0
5.79036566250579E-07,-1.41076461659395E-05,9.31640625,0,0
-2.85147535805663E-07,-1.07827872852795E-05,9.31640625,0,0
8.7799799075583E-07,-1.26594368339283E-05,9.31640625,0,0
2.2916039199572E-07,-9.12326504476368E-06,9.31640625,0,0
3.43717346140693E-07,-1.09789807538618E-05,9.31640625,0,0
6.06377682288439E-07,-1.16544451884693E-05,9.31640625,0,0
8.2099052178819E-07,-1.35242289616144E-05,9.31640625,0,0
-2.72969003844992E-07,-1.40601041493937E-05,9.31640625,0,0
-3.06466006350092E-07,-1.44486384670017E-05,9.31640625,0,0
1.32980019884599E-07,-1.59131886903197E-05,9.31640625,0,0
4.38144610370728E-07,-1.68171081895707E-05,9.31640625,0,0
1.66852714755805E-06,-1.73371718119597E-05,9.31640625,0,0
2.94175765702676E-06,-1.49883871927159E-05,9.31640625,0,0
3.48870776178956E-06,-1.34914289446897E-05,9.31640625,0,0
2.18864875023428E-06,-1.30045536934631E-05,9.31640625,0,0
6.85870134020661E-07,-1.52146330947289E-05,9.31640625,0,0
2.85760364704402E-07,-1.66404588526348E-05,9.31640625,0,0
1.43649663186807E-06,-1.86605066119228E-05,9.31640625,0,0
2.51858182309661E-06,-1.93087907973677E-05,9.31640625,0,0
3.91433241020422E-06,-2.00435970327817E-05,9.31640625,0,0
4.29299689130858E-06,-2.00433387362864E-05,9.31640625,0,0
3.41223199029628E-06,-2.06046315724961E-05,9.31640625,0,0
3.49172978530987E-06,-2.06492841243744E-05,9.31640625,0,0
3.5078376185993E-06,-2.0261049940018E-05,9.31640625,0,0
1.62262062985974E-06,-1.99893602257362E-05,9.31640625,0,0
5.18766796631098E-07,-2.09837180591421E-05,9.31640625,0,0
2.7883012876373E-07,-1.80801598617109E-05,9.31640625,0,0
1.17469930671632E-07,-2.48440228460822E-05,9.31640625,0,0
-4.59978821254481E-07,-1.83805095730349E-05,9.31640625,0,0
-7.47378351206862E-07,-2.38238189922413E-05,9.31640625,0,0
-7.56899169118697E-07,-1.83644879143685E-05,9.31640625,0,0
3.72818540483877E-08,-1.82456769834971E-05,9.31640625,0,0
1.13861813133553E-06,-1.48928002090543E-05,9.31640625,0,0
2.45970068135648E-06,-1.58862403623061E-05,9.31640625,0,0
3.18413890454394E-06,-1.57522572408197E-05,9.31640625,0,0
2.96107555186609E-06,-1.66395548149012E-05,9.31640625,0,0
3.04972559206362E-06,-1.73353673744714E-05,9.31640625,0,0
3.66425319953123E-06,-1.82538933586329E-05,9.31640625,0,0
5.12819087816752E-06,-2.21756472456036E-05,9.31640625,0,0
7.11693019184168E-06,-2.32607962971088E-05,9.31640625,0,0
9.03562613530084E-06,-2.34084563999204E-05,9.31640625,0,0
1.0226232916466E-05,-2.11688602576032E-05,9.31640625,0,0
1.05768267530948E-05,-2.21266309381463E-05,9.31640625,0,0
1.03717202364351E-05,-2.05966625799192E-05,9.31640625,0,0
9.71558711171383E-06,-2.00826743821381E-05,9.31640625,0,0
9.01404928299598E-06,-1.874066037999E-05,9.31640625,0,0
8.65917718329001E-06,-1.91084254765883E-05,9.31640625,0,0
8.2739161371137E-06,-1.77956917468691E-05,9.31640625,0,0
7.5424959504744E-06,-1.74465621967101E-05,9.31640625,0,0
7.0808805503475E-06,-1.68949682120001E-05,9.31640625,0,0
7.21437527317903E-06,-1.84333384822821E-05,9.31640625,0,0
7.43055215934874E-06,-1.86626493814401E-05,9.31640625,0,0
6.16108354734024E-06,-1.8264725440531E-05,9.31640625,0,0
3.12454653794703E-06,-1.44508057928761E-05,9.31640625,0,0
1.56353848979052E-06,-2.06258173420792E-05,9.31640625,0,0
-2.4566061256337E-06,-1.60949039127445E-05,9.31640625,0,0
-2.1292144083418E-06,-1.94851672858931E-05,9.31640625,0,0
-4.00957060264773E-06,-1.44382038342883E-05,9.31640625,0,0
-4.52368703918182E-06,-1.42785120260669E-05,9.31640625,0,0
-4.18384479417E-06,-1.16981218525325E-05,9.31640625,0,0
-1.56664918904426E-06,-1.18718335215817E-05,9.31640625,0,0
-1.35125731048902E-06,-1.08347203422454E-05,9.31640625,0,0
-1.90808532352094E-06,-1.04727669167914E-05,9.31640625,0,0
-2.56055591307813E-06,-1.17345653052325E-05,9.31640625,0,0
-3.21282618642726E-06,-1.21719740491244E-05,9.31640625,0,0
-2.30002115131356E-06,-1.25082988233771E-05,9.31640625,0,0
-1.01614011782658E-06,-1.19859460028238E-05,9.31640625,0,0
3.95871921909929E-07,-1.38141249408363E-05,9.31640625,0,0
5.79855111482175E-07,-1.44750383697101E-05,9.31640625,0,0
1.42556859827891E-06,-1.69902741617989E-05,9.31640625,0,0
2.28662293011439E-06,-1.75634631887078E-05,9.31640625,0,0
2.9377285954979E-06,-1.77493093360681E-05,9.31640625,0,0
1.48196056670713E-06,-1.65109649969963E-05,9.31640625,0,0
5.41471024462226E-07,-1.77740421349881E-05,9.31640625,0,0
7.09788992026006E-07,-1.88504654943245E-05,9.31640625,0,0
1.65453479894495E-06,-2.04303960344987E-05,9.31640625,0,0
1.65788969752612E-06,-1.93902578757843E-05,9.31640625,0,0
2.38248185269185E-06,-1.9482416973915E-05,9.31640625,0,0
2.84385532722808E-06,-2.07066477742046E-05,9.31640625,0,0
1.36421226670791E-06,-2.04251973627834E-05,9.31640625,0,0
1.24186624361755E-06,-1.6602285541012E-05,9.31640625,0,0
2.38124266616069E-06,-2.45375613303622E-05,9.31640625,0,0
2.42698865804414E-06,-1.93213199963793E-05,9.31640625,0,0
3.17840704155969E-06,-2.28468197747134E-05,9.31640625,0,0
3.06651463688468E-06,-1.75130498973886E-05,9.31640625,0,0
2.08217647923448E-06,-1.83308529813075E-05,9.31640625,0,0
2.58958220911154E-06,-1.74882770807017E-05,9.31640625,0,0
4.21828826802084E-06,-2.01562597794691E-05,9.31640625,0,0
5.78725848754402E-06,-1.99572405108484E-05,9.31640625,0,0
6.13267275184626E-06,-1.78200170921627E-05,9.31640625,0,0
5.49524838788784E-06,-1.62891010404564E-05,9.31640625,0,0
5.20846697327215E-06,-1.52841403178172E-05,13.0078125,0,0
5.81204631089349E-06,-1.59297214850085E-05,13.0078125,0,0
7.67372330301441E-06,-1.3589054105978E-05,13.0078125,0,0
9.73623355093878E-06,-1.15908223961014E-05,13.0078125,0,0
1.0434982868901E-05,-9.20686306926655E-06,13.0078125,0,0
1.04923192338902E-05,-1.07468795249588E-05,13.0078125,0,0
1.07474606920732E-05,-1.14732556539821E-05,13.0078125,0,0
1.04200980786118E-05,-1.3547569324146E-05,13.0078125,0,0
9.45320607570466E-06,-1.37777587951859E-05,13.0078125,0,0
8.55486905493308E-06,-1.37497154355515E-05,13.0078125,0,0
7.75208718550857E-06,-1.24229718494462E-05,13.0078125,0,0
6.38367600913625E-06,-1.20184813567903E-05,13.0078125,0,0
4.15326712754904E-06,-1.09374095700332E-05,13.0078125,0,0
2.75914248959452E-06,-1.03825677797431E-05,13.0078125,0,0
2.49527715823206E-06,-9.030984074343E-06,13.0078125,0,0
2.82873293144803E-06,-8.30567933007842E-06,13.0078125,0,0
2.04031812245375E-06,-7.65237109590089E-06,13.0078125,0,0
2.3789925762685E-06,-1.25189926620806E-05,13.0078125,0,0
1.57285171553667E-06,-1.24119087558938E-05,13.0078125,0,0
3.56066516360443E-06,-1.51415451909998E-05,13.0078125,0,0
4.21166123487637E-06,-1.37269116748939E-05,13.0078125,0,0
4.31572698289528E-06,-1.51118110807147E-05,13.0078125,0,0
3.58990223503497E-06,-1.47416749314289E-05,13.0078125,0,0
3.15750298796047E-06,-1.46245629366604E-05,13.0078125,0,0
2.80256131190981E-06,-1.48932376760058E-05,13.0078125,0,0
3.60114881914342E-06,-1.59264836838702E-05,13.0078125,0,0
4.0804538912198E-06,-1.57538506755373E-05,13.0078125,0,0
3.14100816467544E-06,-1.49556599353673E-05,13.0078125,0,0
2.57428973782226E-06,-1.62689539138228E-05,13.0078125,0,0
2.66932579506829E-06,-1.73826938407728E-05,13.0078125,0,0
2.8142778774054E-06,-1.76217490661656E-05,13.0078125,0,0
1.64264963586902E-06,-1.72521904460154E-05,13.0078125,0,0
3.33063155721902E-07,-2.0039262381033E-05,13.0078125,0,0
-2.87517451624808E-07,-2.23764527618187E-05,13.0078125,0,0
-6.48230695787788E-08,-2.3260405214387E-05,13.0078125,0,0
-2.93729470968174E-07,-2.22158287215279E-05,13.0078125,0,0
-5.01690180954029E-07,-2.19650919461856E-05,13.0078125,0,0
-1.69882719092129E-06,-2.25126641453244E-05,13.0078125,0,0
-2.57791475632985E-06,-2.34825820371043E-05,13.0078125,0,0
-1.91557569451106E-06,-2.21211448661052E-05,13.0078125,0,0
-1.73552416526945E-06,-1.93292962649139E-05,13.0078125,0,0
-2.74715443993045E-06,-1.68522892636247E-05,13.0078125,0,0
-3.38803806698706E-06,-1.7007547285175E-05,13.0078125,0,0
-2.57784517998516E-06,-1.59131086547859E-05,13.0078125,0,0
-3.29108183905191E-06,-2.34451581491157E-05,13.0078125,0,0
-8.29187172257662E-07,-1.88942103704903E-05,13.0078125,0,0
2.42753088741665E-07,-2.24153718590969E-05,13.0078125,0,0
1.12014618025569E-06,-1.79008129634894E-05,13.0078125,0,0
8.5563021912094E-07,-1.96687742572976E-05,13.0078125,0,0
2.72870943263115E-06,-1.82158764800988E-05,13.0078125,0,0
4.52040058007697E-06,-2.05575997824781E-05,13.0078125,0,0
5.63981757295551E-06,-2.19233697862364E-05,13.0078125,0,0
5.89124465477653E-06,-2.2970576537773E-05,13.0078125,0,0
5.75228114030324E-06,-2.36337655223906E-05,13.0078125,0,0
5.83464088776964E-06,-2.26234060392017E-05,13.0078125,0,0
6.12273788647144E-06,-2.26846877922071E-05,13.0078125,0,0
7.31786212782026E-06,-2.22017624764703E-05,13.0078125,0,0
7.87456883699633E-06,-2.31509620789438E-05,13.0078125,0,0
6.80450966683566E-06,-2.11293718166417E-05,13.0078125,0,0
5.19584136782214E-06,-2.00050071725855E-05,13.0078125,0,0
6.12832764090854E-06,-1.78474310814636E-05,13.0078125,0,0
8.47527280711802E-06,-1.83440406544833E-05,13.0078125,0,0
9.86914074019296E-06,-1.74526139744557E-05,13.0078125,0,0
9.2024283731007E-06,-1.68696333275875E-05,13.0078125,0,0
7.94242623669561E-06,-1.59052742674248E-05,13.0078125,0,0
7.35492221792811E-06,-1.72087184182601E-05,13.0078125,0,0
8.52303946885513E-06,-1.73170083144214E-05,13.0078125,0,0
9.16510543902405E-06,-1.79772341653006E-05,13.0078125,0,0
8.5150231825537E-06,-1.89459769899258E-05,13.0078125,0,0
8.44845726533094E-06,-1.954821345862E-05,13.0078125,0,0
8.00785437604645E-06,-1.53860128193628E-05,13.0078125,0,0
1.18355610538856E-05,-2.13406110560754E-05,13.0078125,0,0
1.02647645690013E-05,-1.60292674991069E-05,13.0078125,0,0
1.32956965899211E-05,-1.96058808796806E-05,13.0078125,0,0
1.04165501397802E-05,-1.41997943501337E-05,13.0078125,0,0
8.9031000243267E-06,-1.37656015795073E-05,13.0078125,0,0
5.81796757614939E-06,-9.6434432634851E-06,13.0078125,0,0
5.27379734194255E-06,-1.00676479632966E-05,13.0078125,0,0
4.98534518555971E-06,-1.08051099232398E-05,13.0078125,0,0
5.56474242330296E-06,-1.26503209685325E-05,13.0078125,0,0
5.97979260419379E-06,-1.47031641972717E-05,13.0078125,0,0
5.07004961036728E-06,-1.5301551684388E-05,13.0078125,0,0
4.55610143035301E-06,-1.65505334734917E-05,13.0078125,0,0
3.14236694975989E-06,-1.67391335708089E-05,13.0078125,0,0
1.9643800897029E-06,-1.91369781532558E-05,13.0078125,0,0
2.45001501752995E-07,-1.90606697287876E-05,13.0078125,0,0
-9.02763190424594E-07,-1.92505849554436E-05,13.0078125,0,0
-2.71785665972857E-06,-1.78566315298667E-05,13.0078125,0,0
-2.21317645809904E-06,-2.00461199710844E-05,13.0078125,0,0
-1.69749216638593E-06,-2.14205774682341E-05,13.0078125,0,0
-1.34087463266042E-06,-2.3021466404316E-05,13.0078125,0,0
-2.55024588113884E-06,-2.43135473283473E-05,13.0078125,0,0
-3.77586775357486E-06,-2.67315863311524E-05,13.0078125,0,0
-4.96712209496764E-06,-2.71269964287058E-05,13.0078125,0,0
