biceps_emg, triceps_emg, subject_position, position_estimate, brace_position
-2.3204886019812E-05,9.86954000836704E-06,0.17578125,0,0
-2.59820335486438E-05,8.43344423628878E-06,0.17578125,0,0
-2.82793625956401E-05,5.83890005145804E-06,0.17578125,0,0
-3.16101759381127E-05,3.52639017364709E-06,0.17578125,0,0
-3.0673407309223E-05,2.74839908342983E-06,0.17578125,0,0
-3.0345909181051E-05,4.95464837513282E-06,0.17578125,0,0
-3.03108117805095E-05,6.09201924817171E-06,0.17578125,0,0
-3.16148689307738E-05,6.16938814346213E-06,0.17578125,0,0
-3.23474669130519E-05,9.46237832977204E-06,0.17578125,0,0
-3.0605402571382E-05,1.5600458937115E-05,0.17578125,0,0
-2.31460999202682E-05,1.56327587319538E-05,0.17578125,0,0
-3.26339031744283E-05,2.05668111448176E-05,0.17578125,0,0
-2.41855705098715E-05,1.30682074086508E-05,0.17578125,0,0
-3.00334831990767E-05,1.64995708473725E-05,0.17578125,0,0
-2.56153962254757E-05,1.2394650184433E-05,0.17578125,0,0
-2.86834856524365E-05,1.33252588057076E-05,0.17578125,0,0
-2.60256238107104E-05,1.10785758806742E-05,0.17578125,0,0
-2.84078814729583E-05,1.11756526166573E-05,0.17578125,0,0
-2.87026123260148E-05,7.16375052434159E-06,0.17578125,0,0
-2.98635113722412E-05,4.77440835311427E-06,0.17578125,0,0
-3.16517289320473E-05,3.70419638784369E-06,0.17578125,0,0
-3.11404328385834E-05,1.69790405379899E-06,0.17578125,0,0
-3.10472314595245E-05,4.00189628635417E-06,0.17578125,0,0
-2.92101885861484E-05,9.78293610387482E-06,0.17578125,0,0
-3.07349400827661E-05,1.61068346642423E-05,0.17578125,0,0
-2.99356725008693E-05,1.42679664349998E-05,0.17578125,0,0
-3.11398871417623E-05,1.13983487608493E-05,0.17578125,0,0
-3.04507320834091E-05,9.20721777220024E-06,0.17578125,0,0
-3.17851227009669E-05,1.02449130281457E-05,0.17578125,0,0
-2.87137536361115E-05,7.39281813366688E-06,0.17578125,0,0
-2.7147641958436E-05,5.422074082162E-06,0.17578125,0,0
-2.62852481682785E-05,4.66556502942694E-06,0.17578125,0,0
-2.7692127332557E-05,6.60343812342035E-06,0.17578125,0,0
-2.77314029517584E-05,7.0222463364189E-06,0.17578125,0,0
-2.65069775196025E-05,6.1713235481875E-06,0.17578125,0,0
-2.35859497479396E-05,6.92923185852123E-06,0.17578125,0,0
-2.26292340812506E-05,9.79570359049831E-06,0.17578125,0,0
-1.88161811820464E-05,1.02394487839774E-05,0.17578125,0,0
-2.75977799901739E-05,1.65884448506404E-05,0.17578125,0,0
-2.09574645850807E-05,1.41448708745884E-05,0.17578125,0,0
-2.47396856138948E-05,1.60156578203896E-05,0.17578125,0,0
-2.08329674933339E-05,1.36391681735404E-05,0.17578125,0,0
-2.29249726544367E-05,1.41572036227444E-05,0.17578125,0,0
-2.17935958062299E-05,1.57851627591299E-05,0.17578125,0,0
-2.29615325224586E-05,1.75405966729159E-05,0.17578125,0,0
-2.10596572287614E-05,1.48928238559165E-05,0.17578125,0,0
-2.06493532459717E-05,1.52323218571837E-05,0.17578125,0,0
-2.2452531993622E-05,1.91227154573426E-05,0.17578125,0,0
-2.48019459831994E-05,2.02225710381754E-05,0.17578125,0,0
-2.85268306470243E-05,2.02540450118249E-05,0.17578125,0,0
-2.91794513032073E-05,1.97064309759298E-05,0.17578125,0,0
-3.08598901028745E-05,1.79665585164912E-05,0.17578125,0,0
-3.06847650790587E-05,1.26537661344628E-05,0.17578125,0,0
-3.20049657602794E-05,9.66884363151621E-06,0.17578125,0,0
-3.05238681903575E-05,1.04244654721697E-05,0.17578125,0,0
-3.01752988889348E-05,1.41384043672588E-05,0.17578125,0,0
-2.84186626231531E-05,1.51617196024745E-05,0.17578125,0,0
-2.96560556307668E-05,1.27036128105829E-05,0.17578125,0,0
-3.08474664052483E-05,6.93362699166755E-06,0.17578125,0,0
-3.12351221509743E-05,2.88460887531983E-06,0.17578125,0,0
-3.01749241771176E-05,2.9513876143028E-06,0.17578125,0,0
-2.97498772852123E-05,5.92876676819287E-06,0.17578125,0,0
-2.83908684650669E-05,7.26127927919151E-06,0.17578125,0,0
-2.71141198027181E-05,7.46030764275929E-06,0.17578125,0,0
-2.08302844839636E-05,6.95471953804372E-06,0.17578125,0,0
-2.75036509265192E-05,1.1963145880145E-05,0.17578125,0,0
-1.8246952095069E-05,1.07113846752327E-05,0.17578125,0,0
-2.25894473260269E-05,1.10902701635496E-05,0.17578125,0,0
-1.64349257829599E-05,9.95193022390595E-06,0.17578125,0,0
-1.83579049917171E-05,1.18715934149805E-05,0.17578125,0,0
-1.58809489221312E-05,1.33532385007129E-05,0.17578125,0,0
-1.80273582373047E-05,1.51018175529316E-05,0.17578125,0,0
-1.76123867277056E-05,1.39384801514097E-05,0.17578125,0,0
-1.74410561157856E-05,1.28342971947859E-05,0.17578125,0,0
-1.71158244484104E-05,1.33548073790735E-05,0.17578125,0,0
-1.62624746735673E-05,1.35273476189468E-05,0.17578125,0,0
-1.80199003807502E-05,1.36690969156916E-05,0.17578125,0,0
-1.74623201019131E-05,1.50057812788873E-05,0.17578125,0,0
-1.80579354491783E-05,1.7027394278557E-05,0.17578125,0,0
-1.6025936929509E-05,1.52901684487006E-05,0.17578125,0,0
-1.77474612428341E-05,1.18925217975629E-05,0.17578125,0,0
-1.818058808567E-05,1.04121318145189E-05,0.17578125,0,0
-2.09734571399167E-05,1.24056277854834E-05,0.17578125,0,0
-2.15606287383707E-05,1.33232615553425E-05,0.17578125,0,0
-2.27667405852117E-05,1.39250723805162E-05,0.17578125,0,0
-2.17031501961173E-05,1.32979866975802E-05,0.17578125,0,0
-2.30210043810075E-05,1.06240522654844E-05,0.17578125,0,0
-2.41707184613915E-05,5.11372263645171E-06,0.17578125,0,0
-2.52897425525589E-05,2.48201303065798E-07,0.17578125,0,0
-2.55155191553058E-05,-1.77545575752447E-06,0.17578125,0,0
-2.45723749685567E-05,-2.20848005483276E-06,0.17578125,0,0
-1.66267491295002E-05,4.3228149593233E-07,0.17578125,0,0
-2.12271661439445E-05,5.02724969919655E-06,0.17578125,0,0
-1.44439536597929E-05,8.60137970448704E-06,0.17578125,0,0
-1.92584811884444E-05,7.95123378338758E-06,0.17578125,0,0
-1.57271024363581E-05,8.44934947963338E-06,0.17578125,0,0
-1.91183662536787E-05,6.83651160215959E-06,0.17578125,0,0
-1.78872232936556E-05,5.47890658708639E-06,0.17578125,0,0
-2.08042092708638E-05,5.49865035281982E-06,0.17578125,0,0
-2.19018565985607E-05,6.71113093630993E-06,0.17578125,0,0
-2.2564872779185E-05,8.344658454007E-06,0.17578125,0,0
-2.17958804569207E-05,9.86299255600898E-06,0.17578125,0,0
-2.03167182917241E-05,9.86664235824719E-06,0.17578125,0,0
-2.10415564652067E-05,9.48110027820803E-06,0.17578125,0,0
-2.00643535208656E-05,1.00322449725354E-05,0.17578125,0,0
-1.88013655133545E-05,9.94450419966597E-06,0.17578125,0,0
-1.38368104671827E-05,1.03304555523209E-05,0.17578125,0,0
-1.29391273731017E-05,1.13707465061452E-05,0.17578125,0,0
-1.39217891046428E-05,1.26912464111228E-05,0.17578125,0,0
-1.86024990398437E-05,1.28537130876794E-05,0.17578125,0,0
-2.04736406885786E-05,1.27917292047641E-05,0.17578125,0,0
-2.236208456452E-05,1.28332312669954E-05,0.17578125,0,0
-2.19518715312006E-05,1.28391211546841E-05,0.17578125,0,0
-2.20940964936744E-05,1.12171455839416E-05,0.17578125,0,0
-2.16806784010259E-05,1.04110122265411E-05,0.17578125,0,0
-2.22804555960465E-05,1.24171501738601E-05,0.17578125,0,0
-2.12602080864599E-05,1.3409684470389E-05,0.17578125,0,0
-2.02725805138471E-05,1.40352967719082E-05,0.17578125,0,0
-1.56697551574325E-05,1.45392477861606E-05,0.17578125,0,0
-2.19794346776325E-05,2.25730746024055E-05,0.17578125,0,0
-1.81087598321028E-05,1.61525604198687E-05,0.17578125,0,0
-2.4280861907755E-05,1.49646302816109E-05,0.17578125,0,0
-2.12841205211589E-05,8.71373867994407E-06,0.17578125,0,0
-2.40752997342497E-05,6.58762473904062E-06,0.17578125,0,0
-2.29731122090016E-05,4.21712002207641E-06,0.17578125,0,0
-2.28783101192676E-05,8.15111343399622E-06,0.17578125,0,0
-2.0548417523969E-05,1.11220369944931E-05,0.17578125,0,0
-1.96181845240062E-05,1.28363190015079E-05,0.17578125,0,0
-2.07912835321622E-05,1.07761024992215E-05,0.17578125,0,0
-2.21271020564018E-05,7.28662598703522E-06,0.17578125,0,0
-2.32960410357919E-05,7.78114917920902E-06,0.17578125,0,0
-2.18229997699382E-05,7.91845377534628E-06,0.17578125,0,0
-2.21015980059747E-05,7.87921635492239E-06,0.17578125,0,0
-2.15040872717509E-05,7.12813607606222E-06,0.17578125,0,0
-2.30101722991094E-05,9.85224050964462E-06,0.17578125,0,0
-2.16666849155445E-05,1.13539599624346E-05,0.17578125,0,0
-2.01025941350963E-05,1.28689853227115E-05,0.17578125,0,0
-1.73744138010079E-05,1.24799953482579E-05,0.17578125,0,0
-1.85109929589089E-05,1.10505052361987E-05,0.17578125,0,0
-2.09614827326732E-05,6.54886844131397E-06,0.17578125,0,0
-2.4432616555714E-05,4.78562151329243E-06,0.17578125,0,0
-2.47093485086225E-05,5.02574266647571E-06,0.17578125,0,0
-2.3047312424751E-05,6.82382233208045E-06,0.17578125,0,0
-2.04219650186133E-05,1.01288160294644E-05,0.17578125,0,0
-1.89902893907856E-05,1.37288961923332E-05,0.17578125,0,0
-1.45771564348252E-05,1.19938722491497E-05,0.17578125,0,0
-2.04345979000209E-05,1.53054079419235E-05,0.17578125,0,0
-1.61664593179012E-05,7.98218206909951E-06,0.17578125,0,0
-2.15620475501055E-05,8.96205256140092E-06,0.17578125,0,0
-1.85863700608024E-05,7.05234515407938E-06,0.17578125,0,0
-1.88774247362744E-05,1.05843719211407E-05,0.17578125,0,0
-1.64714183483738E-05,8.07172000349965E-06,0.17578125,0,0
-1.76332014234504E-05,6.49062303637038E-06,0.17578125,0,0
-1.7023801774485E-05,7.88357283454388E-06,0.17578125,0,0
-1.81903251359472E-05,1.18536190711893E-05,0.17578125,0,0
-2.10949165193597E-05,1.38735431391979E-05,0.17578125,0,0
-2.33021364692831E-05,1.26139111671364E-05,0.17578125,0,0
-2.54786191362655E-05,1.15946904770681E-05,0.17578125,0,0
-2.58557574852603E-05,1.02542362583335E-05,0.17578125,0,0
-2.86711110675242E-05,1.08438098322949E-05,0.17578125,0,0
-3.10079485643655E-05,9.6507819762337E-06,0.17578125,0,0
-3.40636979672126E-05,9.14880365598947E-06,0.17578125,0,0
-3.3171170798596E-05,6.91328978064121E-06,0.17578125,0,0
-3.33772914018482E-05,5.5636346587562E-06,0.17578125,0,0
-3.30227667291183E-05,4.4897128645971E-06,0.17578125,0,0
-3.34996366291307E-05,6.84443284626468E-06,0.17578125,0,0
-3.29905560647603E-05,8.28096835903125E-06,0.17578125,0,0
-3.3885458833538E-05,7.97556913312292E-06,0.17578125,0,0
-3.31475857819896E-05,5.18274327987456E-06,0.17578125,0,0
-3.23286913044285E-05,3.29473027704807E-06,0.17578125,0,0
-3.22255800710991E-05,3.57704220732558E-06,0.17578125,0,0
-3.10105169774033E-05,5.54376129002776E-06,0.17578125,0,0
-2.35423849517247E-05,5.05150819662958E-06,0.17578125,0,0
-3.25680666719563E-05,8.20037530502304E-06,0.17578125,0,0
-2.4043347366387E-05,8.76509784575319E-06,0.17578125,0,0
-2.95592762995511E-05,1.25680280689267E-05,0.17578125,0,0
-2.32702986977529E-05,1.11778854261502E-05,0.17578125,0,0
-2.61237219092436E-05,7.90035210229689E-06,0.17578125,0,0
-2.32838665397139E-05,5.70269821764668E-06,0.17578125,0,0
-2.43348913500085E-05,8.00361158326268E-06,0.17578125,0,0
-2.26480442506727E-05,9.91116303339368E-06,0.17578125,0,0
-2.24338291445747E-05,1.04621594800847E-05,0.17578125,0,0
-2.27597975026583E-05,1.04763103081496E-05,0.17578125,0,0
-2.30376535910182E-05,1.02971980595612E-05,0.17578125,0,0
-2.52964746323414E-05,1.06936522570322E-05,0.17578125,0,0
-2.48793367063627E-05,1.14436461444711E-05,0.17578125,0,0
-2.68271542154253E-05,1.44645382533781E-05,0.17578125,0,0
-2.56590792560019E-05,1.67998878168873E-05,0.17578125,0,0
-2.72470006166259E-05,1.74149663507706E-05,0.17578125,0,0
-2.65121962002013E-05,1.67588059412083E-05,0.17578125,0,0
-2.79592768492876E-05,1.74378001247533E-05,0.17578125,0,0
-2.60343804256991E-05,1.71348347066669E-05,0.17578125,0,0
-2.48229862336302E-05,1.51079693750944E-05,0.17578125,0,0
-2.1614738216158E-05,1.33740395540372E-05,0.17578125,0,0
-2.12834111152915E-05,1.40079664561199E-05,0.17578125,0,0
-2.15040799957933E-05,1.5165774129855E-05,0.17578125,0,0
-2.45360715780407E-05,1.74004690052243E-05,0.17578125,0,0
-2.67124196398072E-05,2.14020528801484E-05,0.17578125,0,0
-2.69185602519428E-05,2.42300266108941E-05,0.17578125,0,0
-2.1659187041223E-05,2.05247033591149E-05,0.17578125,0,0
-3.1810428481549E-05,2.84637535514776E-05,0.17578125,0,0
-2.58727322943741E-05,1.93241012311773E-05,0.17578125,0,0
-2.96352427540114E-05,2.32372403843328E-05,0.17578125,0,0
-2.27751825150335E-05,1.76786470547086E-05,0.17578125,0,0
-2.57076007983414E-05,1.80804545379942E-05,0.17578125,0,0
-2.42917740251869E-05,1.49673187479493E-05,0.17578125,0,0
-2.73978148470633E-05,1.63292261277093E-05,0.17578125,0,0
-2.79587584373076E-05,1.47485134220915E-05,0.17578125,0,0
-2.83899717032909E-05,1.65781184477964E-05,0.17578125,0,0
-2.81865814031335E-05,2.04630796361016E-05,0.17578125,0,0
-2.61319801211357E-05,2.03020426852163E-05,0.17578125,0,0
-2.54810674960027E-05,1.90875398402568E-05,0.17578125,0,0
-2.37686872424092E-05,1.72440049936995E-05,0.17578125,0,0
-2.54020469583338E-05,1.85120243259007E-05,0.17578125,0,0
-2.5118146368186E-05,1.65492165251635E-05,0.17578125,0,0
-2.66082115558675E-05,1.54644767462742E-05,0.17578125,0,0
-2.45437258854508E-05,1.23836452985415E-05,0.17578125,0,0
-2.3911299649626E-05,1.16150158646633E-05,0.17578125,0,0
-2.16511889448157E-05,8.42297504277667E-06,0.17578125,0,0
-2.16627868212527E-05,8.85355257196352E-06,0.17578125,0,0
-2.08000456041191E-05,1.10675600808463E-05,0.17578125,0,0
-2.29519209824502E-05,1.45340827657492E-05,0.17578125,0,0
-2.48862597800326E-05,1.6068672266556E-05,0.17578125,0,0
-2.56949533650186E-05,1.72538184415316E-05,0.17578125,0,0
-2.38758020714158E-05,1.58383136295015E-05,0.17578125,0,0
-2.18145978578832E-05,1.38970108309877E-05,0.17578125,0,0
-1.59527680807514E-05,8.46794864628464E-06,0.17578125,0,0
-2.30142377404263E-05,1.17115960165393E-05,0.17578125,0,0
-1.92401766980765E-05,1.04274895420531E-05,0.17578125,0,0
-2.386471896898E-05,1.49757815961493E-05,0.17578125,0,0
-2.01905040739803E-05,1.43544139064034E-05,0.17578125,0,0
-2.30490950343665E-05,1.59567862283438E-05,0.17578125,0,0
-2.21381305891555E-05,1.48432100104401E-05,0.17578125,0,0
-2.29941160796443E-05,1.39078701977269E-05,0.17578125,0,0
-2.12375616683858E-05,9.42963924899232E-06,0.17578125,0,0
-2.05852120416239E-05,5.69191297472571E-06,0.17578125,0,0
-2.09898171306122E-05,4.00979024561821E-06,0.17578125,0,0
-2.20266938413261E-05,2.54421229328727E-06,0.17578125,0,0
-2.40151366597274E-05,2.04376328838407E-06,0.17578125,0,0
-2.28603221330559E-05,2.10827192859142E-06,0.17578125,0,0
-2.22139406105271E-05,3.7220136164251E-06,0.17578125,0,0
-2.04255757125793E-05,4.64742197436863E-06,0.17578125,0,0
-2.11361002584454E-05,7.18563615009771E-06,0.17578125,0,0
-1.94186322914902E-05,8.14970917417668E-06,0.17578125,0,0
-1.99740898096934E-05,8.06766365712974E-06,0.17578125,0,0
-2.16743210330606E-05,5.88499051445979E-06,0.17578125,0,0
-2.59666103374911E-05,4.70630402560346E-06,0.17578125,0,0
-2.71241588052362E-05,4.56884072264074E-06,0.17578125,0,0
-2.74913472821936E-05,6.53641154713114E-06,0.17578125,0,0
-2.71170847554458E-05,8.25328515929868E-06,0.17578125,0,0
-2.86034537566593E-05,1.05795170384226E-05,0.17578125,0,0
-3.08959242829587E-05,1.20085978778661E-05,0.17578125,0,0
-3.20391627610661E-05,1.24218859127723E-05,0.17578125,0,0
-2.66735423792852E-05,8.57896066008834E-06,0.17578125,0,0
-3.93861373595428E-05,9.03373347682646E-06,0.17578125,0,0
-3.22631167364307E-05,2.18166201193526E-06,0.17578125,0,0
-3.81885802198667E-05,4.1965927266574E-06,0.17578125,0,0
-3.07725058519281E-05,3.37627352564596E-06,0.17578125,0,0
-3.32421986968257E-05,5.18457181897247E-06,0.17578125,0,0
-2.93148223136086E-05,4.73582622362301E-06,0.17578125,0,0
-3.08539492834825E-05,5.25788527738769E-06,0.17578125,0,0
-3.05460343952291E-05,1.32839682009944E-06,0.17578125,0,0
-3.21986408380326E-05,-2.13048451769282E-06,0.17578125,0,0
-3.48786888935138E-05,-2.86910449176503E-06,0.17578125,0,0
-3.57080643880181E-05,-2.42235250880185E-06,0.17578125,0,0
-3.64167826774064E-05,5.22624418408668E-07,0.17578125,0,0
-3.35412914864719E-05,4.02082332584541E-06,0.17578125,0,0
-3.30343100358732E-05,8.6345489762607E-06,0.17578125,0,0
-2.9305376301636E-05,9.8078589871875E-06,0.17578125,0,0
-2.81691063719336E-05,8.86996531335171E-06,0.17578125,0,0
-2.48537908191793E-05,4.38154393123114E-06,0.17578125,0,0
-2.58992331509944E-05,6.80338757774734E-07,0.17578125,0,0
-2.56802959484048E-05,-2.05058199753694E-06,0.17578125,0,0
-2.75089987553656E-05,-8.73891053743137E-07,0.17578125,0,0
-2.59059397649253E-05,3.1995584777178E-06,0.17578125,0,0
-2.41229699895484E-05,9.09087702893885E-06,0.17578125,0,0
-2.10710386454593E-05,1.2391905329423E-05,0.17578125,0,0
-2.00970425794367E-05,1.3504019989341E-05,0.17578125,0,0
-2.04997668333817E-05,1.45517178680166E-05,0.17578125,0,0
-2.21922982746037E-05,1.58155453391373E-05,0.17578125,0,0
-1.86905763257528E-05,1.23810996228713E-05,0.17578125,0,0
-2.77887156698853E-05,1.77514739334583E-05,0.17578125,0,0
-2.25309122470208E-05,1.32213108372525E-05,0.17578125,0,0
-2.58438649325399E-05,1.71527917700587E-05,0.17578125,0,0
-1.96593264263356E-05,1.72046293300809E-05,0.17578125,0,0
-2.06225777219515E-05,1.95373195310822E-05,0.17578125,0,0
-1.95797565538669E-05,1.6952582882368E-05,0.17578125,0,0
-2.28141816478455E-05,1.59123374032788E-05,0.17578125,0,0
-2.40508597926237E-05,1.2685844922089E-05,0.17578125,0,0
-2.46045983658405E-05,1.13425157906022E-05,0.17578125,0,0
-2.50718039751519E-05,1.06050738395425E-05,0.17578125,0,0
-2.48387550527696E-05,7.71191935200477E-06,0.17578125,0,0
-2.50040575338062E-05,5.06484184370493E-06,0.17578125,0,0
-2.22792823478812E-05,2.93835273623699E-06,0.17578125,0,0
-2.21948321268428E-05,3.3877886380651E-06,0.17578125,0,0
-2.26216034207027E-05,4.15374734075158E-06,0.17578125,0,0
-2.66135139099788E-05,7.22213508197456E-06,0.17578125,0,0
-2.84547568298876E-05,6.93277024765848E-06,0.17578125,0,0
-3.07630180031993E-05,5.89093360758852E-06,0.17578125,0,0
-2.99561361316592E-05,5.62446302865283E-06,0.17578125,0,0
-2.92400982289109E-05,9.5307905212394E-06,0.17578125,0,0
-2.68435051111737E-05,1.10234477688209E-05,0.17578125,0,0
-2.64870504906867E-05,1.04012497104122E-05,0.17578125,0,0
-2.62084049609257E-05,8.17951331555378E-06,0.17578125,0,0
-2.47729349212023E-05,5.66367680221447E-06,0.17578125,0,0
-2.25600942940218E-05,5.4476745390275E-06,0.17578125,0,0
-2.16522348637227E-05,7.67601704865228E-06,0.17578125,0,0
-1.7163714801427E-05,8.5983283497626E-06,0.17578125,0,0
-2.35846673604101E-05,1.75631612364668E-05,0.17578125,0,0
-1.55493016791297E-05,2.00464128283784E-05,0.17578125,0,0
-1.90303817362292E-05,2.30011719395407E-05,0.17578125,0,0
-1.71507927007042E-05,2.09945519600296E-05,0.17578125,0,0
-2.19666235352634E-05,1.76665635081008E-05,0.17578125,0,0
-2.21577738557244E-05,1.48628241731785E-05,0.17578125,0,0
-2.38425109273521E-05,1.69884679053212E-05,0.17578125,0,0
-2.23864153667819E-05,1.84052678378066E-05,0.17578125,0,0
-2.12362756428774E-05,1.76539124367991E-05,0.17578125,0,0
-2.15546806430211E-05,1.64761822816217E-05,0.17578125,0,0
-2.13366711250274E-05,1.58406710397685E-05,0.17578125,0,0
-2.18912282434758E-05,1.68320730153937E-05,0.17578125,0,0
-2.05973119591363E-05,1.69876439031214E-05,0.17578125,0,0
-2.06497006729478E-05,1.5822868590476E-05,0.17578125,0,0
-1.88533776963595E-05,1.38359100674279E-05,0.17578125,0,0
-1.95189277292229E-05,1.32571449285024E-05,0.17578125,0,0
-1.90775263035903E-05,1.33946978166932E-05,0.17578125,0,0
-2.02264163817745E-05,1.51029607877717E-05,0.17578125,0,0
-1.88349167729029E-05,1.63548338605324E-05,0.17578125,0,0
-1.77391411853023E-05,1.72730215126649E-05,0.17578125,0,0
-1.66297068062704E-05,1.61506559379632E-05,0.17578125,0,0
-1.73397547769127E-05,1.27797356981318E-05,0.17578125,0,0
-1.54717345139943E-05,1.0268141522829E-05,0.17578125,0,0
-1.25795004350948E-05,9.18412570172222E-06,0.17578125,0,0
-1.17923709694878E-05,5.76256570639089E-06,0.17578125,0,0
-1.31699662233586E-05,3.7009010611655E-06,0.17578125,0,0
-1.10542805487057E-05,2.05141850528889E-06,0.17578125,0,0
-1.53853634401457E-05,1.5793309557921E-06,0.17578125,0,0
-1.08313652162906E-05,1.5765907619425E-06,0.17578125,0,0
-1.18350326374639E-05,7.38697690394474E-06,0.17578125,0,0
-7.68940299167298E-06,1.25355472846422E-05,0.17578125,0,0
-8.38485902932007E-06,1.50546084114467E-05,0.17578125,0,0
-7.96282620285638E-06,1.3552293239627E-05,0.17578125,0,0
-8.93503965926357E-06,1.27930516100605E-05,0.17578125,0,0
-7.91390539234271E-06,1.35458276417921E-05,0.17578125,0,0
-8.62811793922447E-06,1.52348911797162E-05,0.17578125,0,0
-1.02470175988856E-05,1.59945957420859E-05,0.17578125,0,0
-1.1370603715477E-05,1.49066445374046E-05,0.17578125,0,0
-1.31262922877795E-05,1.42898461490404E-05,0.17578125,0,0
-1.29409536384628E-05,1.49580500874436E-05,0.17578125,0,0
-1.27573075587861E-05,1.52831271407194E-05,0.17578125,0,0
-1.24561765915132E-05,1.38246214191895E-05,0.17578125,0,0
-1.52638094732538E-05,1.24962007248541E-05,0.17578125,0,0
-1.58807961270213E-05,1.2387742572173E-05,0.17578125,0,0
-1.52008060467779E-05,1.35924265123322E-05,0.17578125,0,0
-1.33507237478625E-05,1.29547852338874E-05,0.17578125,0,0
-1.37939168780576E-05,1.14123613457195E-05,0.17578125,0,0
-1.44255527629866E-05,9.67738833423937E-06,0.17578125,0,0
-1.66937625181163E-05,8.61521493789041E-06,0.17578125,0,0
-1.83359916263726E-05,7.61566661822144E-06,0.17578125,0,0
-1.90631599252811E-05,5.05463140143547E-06,0.17578125,0,0
-1.93641080841189E-05,3.30808006765437E-06,0.17578125,0,0
-2.13126277230913E-05,5.17374064656906E-06,0.17578125,0,0
-1.86391444003675E-05,6.6649986365519E-06,0.17578125,0,0
-2.62611738435226E-05,9.48634442465846E-06,0.17578125,0,0
-2.06982003874145E-05,6.9717416408821E-06,0.17578125,0,0
-2.84905690932646E-05,9.46910950005986E-06,0.17578125,0,0
-2.70174859906547E-05,9.11861116037471E-06,0.17578125,0,0
-3.07720038108528E-05,9.96980361378519E-06,0.17578125,0,0
-2.88562769128475E-05,9.96990547719179E-06,0.17578125,0,0
-2.80999302049167E-05,1.19922451631282E-05,0.17578125,0,0
-2.55613831541268E-05,1.29031113829114E-05,0.17578125,0,0
-2.49437343882164E-05,1.23985309983254E-05,0.17578125,0,0
-2.63395650108578E-05,1.19765627459856E-05,0.17578125,0,0
-2.8787246264983E-05,1.20564063763595E-05,0.17578125,0,0
-3.21419720421545E-05,1.21067969303112E-05,0.17578125,0,0
-3.28188398270868E-05,1.01912964964868E-05,0.17578125,0,0
-3.52896968252026E-05,7.64644937589765E-06,0.17578125,0,0
-3.56773562089074E-05,4.12807912653079E-06,0.17578125,0,0
-3.68094770237803E-05,2.61428522208007E-06,0.17578125,0,0
-3.46108390658628E-05,2.51517599281215E-06,0.17578125,0,0
-3.41634731739759E-05,4.09355516239884E-06,0.17578125,0,0
-3.23900167131796E-05,4.43241606262745E-06,0.17578125,0,0
-3.31553346768487E-05,4.90076581627363E-06,0.17578125,0,0
-3.39719190378673E-05,5.82368238610798E-06,0.17578125,0,0
-3.58118377334904E-05,6.47748584015062E-06,0.17578125,0,0
-3.59879450115841E-05,4.84201837025466E-06,0.17578125,0,0
-3.5546618164517E-05,4.22823814005824E-06,0.17578125,0,0
-3.43742685799953E-05,5.8689138313639E-06,0.17578125,0,0
-3.38003810611553E-05,9.88723240880063E-06,0.17578125,0,0
-2.5307845135103E-05,1.16929168143542E-05,0.17578125,0,0
-3.2721771276556E-05,1.6787891581771E-05,0.17578125,0,0
-2.18869117816212E-05,1.13440855784575E-05,0.17578125,0,0
-3.08629460050724E-05,1.28348128782818E-05,0.17578125,0,0
-2.49516288022278E-05,8.95884204510367E-06,0.17578125,0,0
-2.65276048594387E-05,7.01159297022969E-06,0.17578125,0,0
-2.37829426623648E-05,3.73396073882759E-06,0.17578125,0,0
-2.69671509158798E-05,4.55558893008856E-06,0.17578125,0,0
-2.60924989561317E-05,5.21910624229349E-06,0.17578125,0,0
-2.38430893659825E-05,8.26849009172292E-06,0.17578125,0,0
-2.17503456951818E-05,1.20359181892127E-05,0.17578125,0,0
-1.86427350854501E-05,1.27187222460634E-05,0.17578125,0,0
-1.8725790141616E-05,1.25401857076213E-05,0.17578125,0,0
-1.88822141353739E-05,1.18443585961359E-05,0.17578125,0,0
-2.29252109420486E-05,1.23843619803665E-05,0.17578125,0,0
-2.35224979405757E-05,1.10663313535042E-05,0.17578125,0,0
-2.6339155738242E-05,1.19800170068629E-05,0.17578125,0,0
-2.58337131526787E-05,1.47966338772676E-05,0.17578125,0,0
-2.76581304206047E-05,2.0129538825131E-05,0.17578125,0,0
-2.70066848315764E-05,2.13319071917795E-05,0.17578125,0,0
-2.72169218078488E-05,2.06720178539399E-05,0.17578125,0,0
-2.43800259340787E-05,1.9488204998197E-05,0.17578125,0,0
-2.37861931964289E-05,2.06468139367644E-05,0.17578125,0,0
-2.40385070355842E-05,2.31403573707212E-05,0.17578125,0,0
-2.47846364800353E-05,2.39530181715963E-05,0.17578125,0,0
-2.39527780649951E-05,2.22101607505465E-05,0.17578125,0,0
-2.50202047027415E-05,2.00080430659E-05,0.17578125,0,0
-2.13981729757506E-05,1.34632073240937E-05,0.17578125,0,0
-3.04908153339056E-05,1.54910776473116E-05,0.17578125,0,0
-2.27355703827925E-05,6.71160887577571E-06,0.17578125,0,0
-2.69156080321409E-05,1.21653229143703E-05,0.17578125,0,0
-2.20399124373216E-05,1.2171722119092E-05,0.17578125,0,0
-2.39254386542598E-05,1.33896519400878E-05,0.17578125,0,0
-1.96926848730072E-05,1.2239165698702E-05,0.17578125,0,0
-1.96199362108018E-05,1.67271373356925E-05,0.17578125,0,0
-1.83019692485686E-05,1.73169537447393E-05,0.17578125,0,0
-1.90637128980597E-05,1.61202042363584E-05,0.17578125,0,0
-1.97488370758947E-05,1.54044773807982E-05,0.17578125,0,0
-1.89538677659584E-05,1.47057762660552E-05,0.17578125,0,0
-2.02990813704673E-05,1.42375010909745E-05,0.17578125,0,0
-1.96327855519485E-05,1.17971612780821E-05,0.17578125,0,0
-2.07806351681938E-05,1.00899969766033E-05,0.17578125,0,0
-1.95030515897088E-05,6.63504897602252E-06,0.17578125,0,0
-2.14803785638651E-05,6.75277442496736E-06,0.17578125,0,0
-2.17961278394796E-05,7.66125685913721E-06,0.17578125,0,0
-2.36270188906929E-05,9.88995179795893E-06,0.17578125,0,0
-2.31922585953726E-05,9.15768214326818E-06,0.17578125,0,0
-2.46107792918338E-05,9.6038429546752E-06,0.17578125,0,0
-2.42347941821208E-05,1.0125136213901E-05,0.17578125,0,0
-2.43435133597814E-05,1.21691864478635E-05,0.17578125,0,0
-2.40639292314881E-05,1.45028279803228E-05,0.17578125,0,0
-2.54380793194287E-05,1.76843113877112E-05,0.17578125,0,0
-2.63284418906551E-05,1.88801586773479E-05,0.17578125,0,0
-2.75123456958681E-05,1.94475524040172E-05,0.17578125,0,0
-2.35660954785999E-05,1.43002753247856E-05,0.17578125,0,0
-3.35962868120987E-05,1.79478702193592E-05,0.17578125,0,0
-2.62263547483599E-05,9.52332720771665E-06,0.17578125,0,0
-3.35007280227728E-05,1.00104653029121E-05,0.17578125,0,0
-3.02792359434534E-05,4.05551281801309E-06,0.17578125,0,0
-3.40374390361831E-05,5.98358428760548E-06,0.17578125,0,0
-3.01877244055504E-05,8.37720926938346E-06,0.17578125,0,0
-3.05035337078152E-05,1.49415263877017E-05,0.17578125,0,0
-2.95243135042256E-05,1.60907165991375E-05,0.17578125,0,0
-2.98954691970721E-05,1.5203157090582E-05,0.17578125,0,0
-3.09588103846181E-05,1.34801957756281E-05,0.17578125,0,0
-3.05259927699808E-05,1.29580857901601E-05,0.17578125,0,0
-3.0068931664573E-05,1.62519081641221E-05,0.17578125,0,0
-2.62526282313047E-05,1.53410383063601E-05,0.17578125,0,0
-2.63850779447239E-05,1.13141641122638E-05,0.17578125,0,0
-2.60625056398567E-05,4.62415528090787E-06,0.17578125,0,0
-2.94448691420257E-05,3.79579273612762E-06,0.17578125,0,0
-2.99806688417448E-05,4.85123109683627E-06,0.17578125,0,0
-3.09141396428458E-05,7.23729726814781E-06,0.17578125,0,0
-2.84384623228107E-05,6.888716143294E-06,0.17578125,0,0
-2.92863678623689E-05,7.67457459005527E-06,0.17578125,0,0
-3.04199566016905E-05,6.73410158924526E-06,0.17578125,0,0
-3.25475011777598E-05,5.68946052226238E-06,0.17578125,0,0
-3.23008534905966E-05,6.38728715784964E-06,0.17578125,0,0
-3.24477623507846E-05,9.36184187594336E-06,0.17578125,0,0
-3.25425899063703E-05,9.1512310973485E-06,0.17578125,0,0
-3.23794338328298E-05,6.72308351568063E-06,0.17578125,0,0
-2.71025674010161E-05,5.75885815123911E-06,0.17578125,0,0
-3.95514070987701E-05,9.53307699091965E-06,0.17578125,0,0
-3.11410549329594E-05,7.57530506234616E-06,0.17578125,0,0
-3.76118368876632E-05,8.18791340861935E-06,0.17578125,0,0
-3.15050310746301E-05,8.72794225870166E-06,0.17578125,0,0
-3.39092694048304E-05,9.12524410523474E-06,0.17578125,0,0
-2.96996422548546E-05,7.87618228059728E-06,0.17578125,0,0
-3.05562170979101E-05,8.81177948031109E-06,0.17578125,0,0
-2.9275748602231E-05,9.65385243034689E-06,0.17578125,0,0
-2.86477788904449E-05,1.01380755950231E-05,0.17578125,0,0
-2.73624846158782E-05,1.00658162409673E-05,0.17578125,0,0
-2.41167690546717E-05,9.27715973375598E-06,0.17578125,0,0
-2.23249353439314E-05,9.96826383925509E-06,0.17578125,0,0
-1.97132758330554E-05,1.10112669062801E-05,0.17578125,0,0
-2.23485931201139E-05,1.17656600195915E-05,0.17578125,0,0
-2.20868532778695E-05,1.12163925223285E-05,0.17578125,0,0
-2.34247327171033E-05,1.16593264465337E-05,0.17578125,0,0
-2.02652809093706E-05,1.18208263302222E-05,0.17578125,0,0
-1.91434919543099E-05,1.15446810013964E-05,0.17578125,0,0
-1.74171382241184E-05,9.93060257314937E-06,0.17578125,0,0
-1.84407326742075E-05,8.98905000212835E-06,0.17578125,0,0
-1.50920095620677E-05,9.57110842136899E-06,0.17578125,0,0
-1.26671720863669E-05,1.05032440842479E-05,0.17578125,0,0
-1.21903631224995E-05,1.05560502561275E-05,0.17578125,0,0
-1.43184115586337E-05,8.56318001751788E-06,0.17578125,0,0
-1.55898105731467E-05,4.83745816381997E-06,0.17578125,0,0
-1.66118952620309E-05,4.12114286518772E-06,0.17578125,0,0
-1.4612282939197E-05,5.3150924941292E-06,0.17578125,0,0
-1.96079527086113E-05,9.64621813182021E-06,0.17578125,0,0
-1.37947536131833E-05,9.31655540625798E-06,0.17578125,0,0
-1.81305113073904E-05,9.69995471677976E-06,0.17578125,0,0
-1.59007413458312E-05,7.73931969888508E-06,0.17578125,0,0
-1.87336190720089E-05,7.64875312597724E-06,0.17578125,0,0
-1.94364165508887E-05,9.28870031202678E-06,0.17578125,0,0
-2.36720115935896E-05,1.23874178825645E-05,0.17578125,0,0
-2.57440860877978E-05,1.25743054013583E-05,0.17578125,0,0
-2.60893230006332E-05,1.19275791803375E-05,0.17578125,0,0
-2.54188944381895E-05,1.01747928056284E-05,0.17578125,0,0
-2.50182401941856E-05,6.37328321317909E-06,0.17578125,0,0
-2.79937939922092E-05,4.54514065495459E-06,0.17578125,0,0
-2.97648821288021E-05,5.41062536285608E-06,0.17578125,0,0
-3.10026953229681E-05,7.3637156674522E-06,0.17578125,0,0
-2.92534659820376E-05,7.77590776124271E-06,0.17578125,0,0
-2.9098422601237E-05,7.77272998675471E-06,0.17578125,0,0
-2.66959305008641E-05,6.49529829388484E-06,0.17578125,0,0
-2.53022608376341E-05,5.00219903187826E-06,0.17578125,0,0
-2.35585739574162E-05,4.58191061625257E-06,0.17578125,0,0
-2.47802890953608E-05,6.75524734106148E-06,0.17578125,0,0
-2.65037106146337E-05,9.49558125284966E-06,0.17578125,0,0
-2.90485004370566E-05,1.18954840218066E-05,0.17578125,0,0
-2.91815395030426E-05,1.26921750052134E-05,0.17578125,0,0
-2.76184200629359E-05,1.32052064145682E-05,0.17578125,0,0
-2.47698699240573E-05,1.38298155434313E-05,0.17578125,0,0
-2.12872255360708E-05,1.25178457892616E-05,0.17578125,0,0
-1.59361115947831E-05,9.24961568671279E-06,0.17578125,0,0
-2.11865371966269E-05,1.25087944979896E-05,0.17578125,0,0
-1.30145754155819E-05,7.42367910788744E-06,0.17578125,0,0
-1.46714310176321E-05,9.7737420219346E-06,0.17578125,0,0
-9.08481160877272E-06,1.09225093183341E-05,0.17578125,0,0
-1.05467206594767E-05,1.40084166559973E-05,0.17578125,0,0
-1.10107521322789E-05,1.17819017759757E-05,0.17578125,0,0
-1.50197129187291E-05,9.38291304919403E-06,0.17578125,0,0
-1.6287845937768E-05,6.04749129706761E-06,0.17578125,0,0
-1.78419886651682E-05,4.6933446355979E-06,0.17578125,0,0
-1.96436249098042E-05,5.94541097598267E-06,0.17578125,0,0
-1.97612607735209E-05,8.87535315996502E-06,0.17578125,0,0
-2.03487234102795E-05,1.3807355571771E-05,0.17578125,0,0
-1.99759888346307E-05,1.65129131346475E-05,0.17578125,0,0
-2.22051767195808E-05,1.52376314872527E-05,0.17578125,0,0
-2.28713506658096E-05,9.95628397504333E-06,0.17578125,0,0
-2.4098961148411E-05,7.66665652918164E-06,0.17578125,0,0
-2.20341407839442E-05,8.75794194143964E-06,0.17578125,0,0
-2.1067178749945E-05,1.08448894025059E-05,0.17578125,0,0
-1.94283129530959E-05,8.11402151157381E-06,0.17578125,0,0
-2.04402476811083E-05,4.72273814011714E-06,0.17578125,0,0
-2.10378511837916E-05,3.29388240061235E-06,0.17578125,0,0
-2.23728311539162E-05,3.73225861949322E-06,0.17578125,0,0
-2.2568492568098E-05,3.47510035680898E-06,0.17578125,0,0
-2.19917710637674E-05,3.30709985973954E-06,0.17578125,0,0
-1.98862053366611E-05,2.5959870981751E-06,0.17578125,0,0
-1.99977330339607E-05,3.91935191146331E-06,0.17578125,0,0
-1.71553183463402E-05,6.97169889463112E-06,0.17578125,0,0
-2.41193120018579E-05,1.44428131534369E-05,0.17578125,0,0
-1.78227073774906E-05,1.63827444339404E-05,0.17578125,0,0
-2.28730823437218E-05,1.79055205080658E-05,0.17578125,0,0
-2.00176400539931E-05,1.38491413963493E-05,0.17578125,0,0
-2.19204193854239E-05,9.74924023466883E-06,0.17578125,0,0
-2.05667638510931E-05,9.2549043984036E-06,0.17578125,0,0
-2.32512738875812E-05,1.15104458018322E-05,0.17578125,0,0
-2.34913131862413E-05,1.11300596472574E-05,0.17578125,0,0
-2.30443456530338E-05,1.04448727142881E-05,0.17578125,0,0
-2.37049316638149E-05,1.24660327855963E-05,0.17578125,0,0
-2.52114896284183E-05,1.39827934617642E-05,0.17578125,0,0
-2.67668165179202E-05,1.45646263263188E-05,0.17578125,0,0
-2.43072645389475E-05,1.33799039758742E-05,0.17578125,0,0
-2.25043422688032E-05,1.08977637864882E-05,0.17578125,0,0
-1.99834685190581E-05,7.12612563802395E-06,0.17578125,0,0
-2.14649189729244E-05,5.48965363122988E-06,0.17578125,0,0
-2.23305032704957E-05,6.49296225674334E-06,0.17578125,0,0
-2.36451051023323E-05,9.46269210544415E-06,0.17578125,0,0
-2.14815554500092E-05,1.14760487122112E-05,0.17578125,0,0
-2.06329987122444E-05,1.13739642984001E-05,0.17578125,0,0
-1.98358357010875E-05,1.12116185846389E-05,0.17578125,0,0
-2.01555703824852E-05,1.2223819794599E-05,0.17578125,0,0
-1.95521879504668E-05,1.16317469291971E-05,0.17578125,0,0
-2.01854199985974E-05,1.06545385278878E-05,0.17578125,0,0
-2.17694177990779E-05,1.16112150863046E-05,0.17578125,0,0
-2.31689191423357E-05,1.39322983159218E-05,0.17578125,0,0
-1.8387730960967E-05,1.2091875760234E-05,0.17578125,0,0
-2.53275138675235E-05,1.71178926393623E-05,0.17578125,0,0
-1.90269201993942E-05,1.16430910566123E-05,0.17578125,0,0
-2.49830281973118E-05,1.38441273520584E-05,0.17578125,0,0
-2.16488861042308E-05,1.13064788820338E-05,0.17578125,0,0
-2.54798014793778E-05,1.25031865536585E-05,0.17578125,0,0
-2.52890476986067E-05,1.20224613056052E-05,0.17578125,0,0
-2.70588971034158E-05,1.36098942675744E-05,0.17578125,0,0
-2.62462363025406E-05,1.26687054944341E-05,0.17578125,0,0
-2.52770259976387E-05,1.40609026857419E-05,0.17578125,0,0
-2.47799034696072E-05,1.65093606483424E-05,0.17578125,0,0
-2.49066615651827E-05,1.65860146807972E-05,0.17578125,0,0
-2.75178808806231E-05,1.59337323566433E-05,0.17578125,0,0
-2.8656046197284E-05,1.46398760989541E-05,0.17578125,0,0
-3.14309472742025E-05,1.55850138980895E-05,0.17578125,0,0
-3.14529752358794E-05,1.56179667101242E-05,0.17578125,0,0
-3.13085620291531E-05,1.6314814274665E-05,0.17578125,0,0
-2.70428081421414E-05,1.50885325638228E-05,0.17578125,0,0
-2.46299860009458E-05,1.55894431372872E-05,0.17578125,0,0
-2.24627565330593E-05,1.59395694936393E-05,0.17578125,0,0
-2.4256638425868E-05,1.72998807101976E-05,0.17578125,0,0
-2.5164717953885E-05,1.69102386280429E-05,0.17578125,0,0
-2.45407718466595E-05,1.60990966833197E-05,0.17578125,0,0
-2.1168552848394E-05,1.52234269990004E-05,0.17578125,0,0
-1.91484214155935E-05,1.56753831106471E-05,0.17578125,0,0
-1.89154470717767E-05,1.48265708048712E-05,0.17578125,0,0
-1.98619654838694E-05,1.48462004290195E-05,0.17578125,0,0
-1.70354251167737E-05,1.32031318571535E-05,0.17578125,0,0
-2.50925604632357E-05,1.94315834960435E-05,0.17578125,0,0
-2.16876978811342E-05,1.66498539329041E-05,0.17578125,0,0
-2.76590508292429E-05,2.18487330130301E-05,0.17578125,0,0
-2.51975852734176E-05,1.8185379303759E-05,0.17578125,0,0
-2.8286587621551E-05,1.61731095431605E-05,0.17578125,0,0
-2.64440714090597E-05,1.14661233965307E-05,0.17578125,0,0
-2.87317834590795E-05,1.00880806712667E-05,0.17578125,0,0
-3.01415311696474E-05,9.55956329562468E-06,0.17578125,0,0
-3.12930787913501E-05,1.28603787743486E-05,0.17578125,0,0
-3.03065298794536E-05,1.63898530445294E-05,0.17578125,0,0
-2.692518683034E-05,1.6386655261158E-05,0.17578125,0,0
-2.57435949606588E-05,1.52535967572476E-05,0.17578125,0,0
-2.42028872889932E-05,1.24362641145126E-05,0.17578125,0,0
-2.55569830187596E-05,1.07426139948075E-05,0.17578125,0,0
-2.56569965131348E-05,7.86795953899855E-06,0.17578125,0,0
-2.74595058726845E-05,7.02579518474522E-06,0.17578125,0,0
-2.60597498709103E-05,4.97885503136786E-06,0.17578125,0,0
-2.51588553510373E-05,5.19716968483408E-06,0.17578125,0,0
-2.28914050239837E-05,5.79416928303544E-06,0.17578125,0,0
-2.35184888879303E-05,7.11094526195666E-06,0.17578125,0,0
-2.53920734394342E-05,5.82537631999003E-06,0.17578125,0,0
-2.84198122244561E-05,4.49026856585988E-06,0.17578125,0,0
-2.80653457593871E-05,5.75596141061396E-06,0.17578125,0,0
-2.61985678662313E-05,1.01958221421228E-05,0.17578125,0,0
-2.46049366978696E-05,1.21700068120845E-05,0.17578125,0,0
-2.37921140069375E-05,1.03559132185183E-05,0.17578125,0,0
-1.86646921065403E-05,6.97832138030208E-06,0.17578125,0,0
-2.62361845670966E-05,1.12815469037741E-05,0.17578125,0,0
-1.85707849595929E-05,1.01606401585741E-05,0.17578125,0,0
-2.19820249185432E-05,1.11266472231364E-05,0.17578125,0,0
-1.82583025889471E-05,9.42887072596932E-06,0.17578125,0,0
-2.10408361454029E-05,1.06136512840749E-05,0.17578125,0,0
-1.80592578544747E-05,1.09513675852213E-05,0.17578125,0,0
-1.80284550879151E-05,1.27798912217258E-05,0.17578125,0,0
-1.65591318364022E-05,1.46254396895529E-05,0.17578125,0,0
-1.6080184650491E-05,1.69261220435146E-05,0.17578125,0,0
-1.6799733202788E-05,1.77319834619993E-05,0.17578125,0,0
-1.69289942277828E-05,1.61525622388581E-05,0.17578125,0,0
-1.88213798537618E-05,1.62639771588147E-05,0.17578125,0,0
-1.99511432583677E-05,1.78728041646536E-05,0.17578125,0,0
-2.3845097530284E-05,1.95842912944499E-05,0.17578125,0,0
-2.56153598456876E-05,1.92953157238662E-05,0.17578125,0,0
-2.78284642263316E-05,1.93091109395027E-05,0.17578125,0,0
-2.64142163359793E-05,1.9125827748212E-05,0.17578125,0,0
-2.58183972619008E-05,1.9477702153381E-05,0.17578125,0,0
-2.37614658544771E-05,1.86070519703208E-05,0.17578125,0,0
-2.35225616052048E-05,1.89020138350315E-05,0.17578125,0,0
-2.21567170228809E-05,1.96106175280875E-05,0.17578125,0,0
-2.18267250602366E-05,1.92848601727746E-05,0.17578125,0,0
-2.0431880329852E-05,1.70249732036609E-05,0.17578125,0,0
-2.13668754440732E-05,1.38150426209904E-05,0.17578125,0,0
-2.50785469688708E-05,1.07858377305092E-05,0.17578125,0,0
-2.8352063964121E-05,1.03892689367058E-05,0.17578125,0,0
-2.2320398784359E-05,9.93532012216747E-06,0.17578125,0,0
-3.0167298973538E-05,1.43918196044979E-05,0.17578125,0,0
-2.16351381823188E-05,9.24914547795197E-06,0.17578125,0,0
-2.79424875770928E-05,8.19967135612387E-06,0.17578125,0,0
-2.21791215153644E-05,2.70304713012592E-06,0.17578125,0,0
-2.39465825870866E-05,1.5225689367071E-06,0.17578125,0,0
-2.11785627470817E-05,1.19789001473691E-06,0.17578125,0,0
-2.3649683498661E-05,4.23616847911035E-06,0.17578125,0,0
-2.37929416471161E-05,4.74938769912114E-06,0.17578125,0,0
-2.42970181716373E-05,2.95935683425341E-06,0.17578125,0,0
-2.47694333666004E-05,1.49144648275978E-06,0.17578125,0,0
-2.35315874306252E-05,2.30191471928265E-06,0.17578125,0,0
-2.18516979657579E-05,6.32042520010145E-06,0.17578125,0,0
-1.74110355146695E-05,8.44583973957924E-06,0.17578125,0,0
-1.75037239387166E-05,8.236004759965E-06,0.17578125,0,0
-1.7254000340472E-05,5.12985297973501E-06,0.17578125,0,0
-1.99138939933619E-05,2.17758974940807E-06,0.17578125,0,0
-2.00613285414875E-05,-1.743608322613E-06,0.17578125,0,0
-2.23409952013753E-05,-2.80687299891724E-06,0.17578125,0,0
-2.21904010686558E-05,-1.30711066503864E-06,0.17578125,0,0
-2.42325750150485E-05,2.49049958256364E-06,0.17578125,0,0
-2.3928441805765E-05,4.56245379609754E-06,0.17578125,0,0
-2.3988639441086E-05,3.71200576410047E-06,0.17578125,0,0
-2.37397853197763E-05,8.37485103488689E-08,0.17578125,0,0
-2.5141869627987E-05,8.3189024735475E-07,0.17578125,0,0
-2.63731908489717E-05,5.0261760407011E-06,0.17578125,0,0
-2.70359032583656E-05,7.2677617026784E-06,0.17578125,0,0
-2.19379162444966E-05,6.40745065538795E-06,0.17578125,0,0
-3.11371222778689E-05,8.29690543469042E-06,0.17578125,0,0
-2.50301818596199E-05,5.54345433556591E-06,0.17578125,0,0
-3.16670411848463E-05,7.34230343368836E-06,0.17578125,0,0
-2.63440433627693E-05,4.32457864008029E-06,0.17578125,0,0
-2.74526482826332E-05,3.6014203033119E-06,0.17578125,0,0
-2.20635465666419E-05,5.06184369442053E-06,0.17578125,0,0
-2.14907959161792E-05,8.31655597721692E-06,0.17578125,0,0
-2.06648055609548E-05,7.38630433261278E-06,0.17578125,0,0
-2.13862367672846E-05,5.51100629309076E-06,0.17578125,0,0
-2.14050760405371E-05,5.93136110182968E-06,0.17578125,0,0
-1.98732777789701E-05,7.40044151825714E-06,0.17578125,0,0
-2.0666424461524E-05,8.88581871549832E-06,0.17578125,0,0
-1.89261645573424E-05,7.71896975493291E-06,0.17578125,0,0
-1.87913883564761E-05,6.76349100103835E-06,0.17578125,0,0
-1.78391783265397E-05,6.57834834782989E-06,0.17578125,0,0
-2.15031304833246E-05,6.94531718181679E-06,0.17578125,0,0
-2.29510187637061E-05,5.88215516472701E-06,0.17578125,0,0
-2.56056682701455E-05,7.46327623346588E-06,0.17578125,0,0
-2.54335627687396E-05,1.1320024896122E-05,0.17578125,0,0
-2.73398254648782E-05,1.53983528434765E-05,0.17578125,0,0
-2.68841122306185E-05,1.62561245815596E-05,0.17578125,0,0
-2.63928632193711E-05,1.63225431606406E-05,0.17578125,0,0
-2.6111936676898E-05,1.67872040037764E-05,0.17578125,0,0
-2.67881714535179E-05,1.93138530448778E-05,0.17578125,0,0
-2.61561290244572E-05,2.20379242819035E-05,0.17578125,0,0
-2.57094234257238E-05,2.14991887332872E-05,0.17578125,0,0
-1.9484188669594E-05,1.60394138219999E-05,0.17578125,0,0
-2.58169475273462E-05,2.16768221434904E-05,0.17578125,0,0
-1.70407602126943E-05,1.27507128127036E-05,0.17578125,0,0
-2.29176475841086E-05,1.40561542139039E-05,0.17578125,0,0
-2.28073658945505E-05,9.01124622032512E-06,0.17578125,0,0
-2.98638897220371E-05,9.20554066397017E-06,0.17578125,0,0
-2.91154628939694E-05,7.00979762768839E-06,0.17578125,0,0
-3.02788903354667E-05,8.87343685462838E-06,0.17578125,0,0
-3.04075711028418E-05,7.88276338425931E-06,0.17578125,0,0
-3.28666683344636E-05,8.38592222862644E-06,0.17578125,0,0
-3.5922752431361E-05,1.10570008473587E-05,0.17578125,0,0
-3.59999685315415E-05,1.16427545435727E-05,0.17578125,0,0
-3.47545719705522E-05,1.20112017611973E-05,0.17578125,0,0
-3.18375386996195E-05,1.19831820484251E-05,0.17578125,0,0
-3.2542840926908E-05,1.38689238156076E-05,0.17578125,0,0
-3.10382529278286E-05,1.26641652968829E-05,0.17578125,0,0
-3.11709300149232E-05,1.28516076074447E-05,0.17578125,0,0
-2.87439179373905E-05,1.32467175717466E-05,0.17578125,0,0
-2.85097939922707E-05,1.43861689139158E-05,0.17578125,0,0
-2.77022900263546E-05,1.07456189653021E-05,0.17578125,0,0
-2.93455595965497E-05,8.27501480671344E-06,0.17578125,0,0
-2.87264101643814E-05,5.71950113226194E-06,0.17578125,0,0
-2.8014288545819E-05,4.27082159148995E-06,0.17578125,0,0
-2.66724564426113E-05,4.86061480842181E-06,0.17578125,0,0
-2.74797585007036E-05,9.64889204624342E-06,0.17578125,0,0
-2.90486550511559E-05,1.25779115478508E-05,0.17578125,0,0
-2.98842842312297E-05,1.19749429359217E-05,0.17578125,0,0
-2.45118008024292E-05,9.138713721768E-06,0.17578125,0,0
-3.33788266289048E-05,1.33435141833615E-05,0.17578125,0,0
-2.18000477616442E-05,1.05967847048305E-05,0.17578125,0,0
-2.51178644248284E-05,1.26801705846447E-05,0.17578125,0,0
-1.93843552551698E-05,9.98177074507112E-06,0.17578125,0,0
-2.39370547205908E-05,1.11806457425701E-05,0.17578125,0,0
-2.21063182834769E-05,1.24876069094171E-05,0.17578125,0,0
-2.35159659496276E-05,1.52920747495955E-05,0.17578125,0,0
-2.18200166273164E-05,1.42974004120333E-05,0.17578125,0,0
-2.21082591451705E-05,1.25339411169989E-05,0.17578125,0,0
-2.32697620958788E-05,1.29523541545495E-05,0.17578125,0,0
-2.20199526665965E-05,1.37146871566074E-05,0.17578125,0,0
-2.17252618313069E-05,1.47642058436759E-05,0.17578125,0,0
-1.86581492016558E-05,1.31969809444854E-05,0.17578125,0,0
-1.76930407178588E-05,1.20297290777671E-05,0.17578125,0,0
-1.50903233588906E-05,1.16737091957475E-05,0.17578125,0,0
-1.7889731680043E-05,1.33036746774451E-05,0.17578125,0,0
-1.87320256372914E-05,1.34091487780097E-05,0.17578125,0,0
-1.99198002519552E-05,1.44347422974533E-05,0.17578125,0,0
-1.71976953424746E-05,1.37800998345483E-05,0.17578125,0,0
-1.73082971741678E-05,1.1532175449247E-05,0.17578125,0,0
-1.76724624907365E-05,9.79741071205353E-06,0.17578125,0,0
-1.81058367161313E-05,1.08474350781762E-05,0.17578125,0,0
-1.58598995767534E-05,1.21342036436545E-05,0.17578125,0,0
-1.70927232829854E-05,1.06696516013471E-05,0.17578125,0,0
-1.85311164386803E-05,7.12657765689073E-06,0.17578125,0,0
-1.77619040186983E-05,6.95640983394696E-06,0.17578125,0,0
-1.35222671815427E-05,8.04749379312852E-06,0.17578125,0,0
-1.88517969945678E-05,1.10059281723807E-05,0.17578125,0,0
-1.40083875521668E-05,6.37604534858838E-06,0.17578125,0,0
-1.81871746463003E-05,8.81567484611878E-06,0.17578125,0,0
-1.64101802511141E-05,1.10341643448919E-05,0.17578125,0,0
-1.78328627953306E-05,1.51930798892863E-05,0.17578125,0,0
-1.57960312208161E-05,1.6416215657955E-05,0.17578125,0,0
-1.56751648319187E-05,1.75889927049866E-05,0.17578125,0,0
-1.37248662213096E-05,1.77867786987918E-05,0.17578125,0,0
-1.32650557134184E-05,1.90243135875789E-05,0.17578125,0,0
-1.39930725708837E-05,2.048296846624E-05,0.17578125,0,0
-1.44528257806087E-05,1.83654519787524E-05,0.17578125,0,0
-1.68790138559416E-05,1.48268509292393E-05,0.17578125,0,0
-1.76711928361328E-05,1.37949837153428E-05,0.17578125,0,0
-1.89369638974313E-05,1.71320425579324E-05,0.17578125,0,0
-1.83468800969422E-05,1.82347885129275E-05,0.17578125,0,0
-2.00627728190739E-05,1.68495134857949E-05,0.17578125,0,0
-2.12054455914767E-05,1.47083846968599E-05,0.17578125,0,0
-2.33883838518523E-05,1.43588204082334E-05,0.17578125,0,0
-2.3312011762755E-05,1.3800487977278E-05,0.17578125,0,0
-2.35410425375449E-05,1.38979085022584E-05,0.17578125,0,0
-2.3855487597757E-05,1.2968454939255E-05,0.17578125,0,0
-2.57471456279745E-05,1.17236168080126E-05,0.17578125,0,0
-2.78571933449712E-05,1.04197815744556E-05,0.17578125,0,0
-3.02466905850451E-05,1.01606692624046E-05,0.17578125,0,0
-3.03848919429583E-05,9.63502861850429E-06,0.17578125,0,0
-3.03407650790177E-05,8.60397631186061E-06,0.17578125,0,0
-2.65290873358026E-05,9.1346591943875E-06,0.17578125,0,0
-3.80164274247363E-05,1.50542982737534E-05,0.17578125,0,0
-2.74809099209961E-05,1.16872342914576E-05,0.17578125,0,0
-3.15953730023466E-05,1.0606288924464E-05,0.17578125,0,0
-2.56498515227577E-05,6.5292119870719E-06,0.17578125,0,0
-3.08454218611587E-05,5.27855763721163E-06,0.17578125,0,0
-2.89410600089468E-05,5.01919521411764E-06,0.17578125,0,0
-3.08073940686882E-05,6.86816338202334E-06,0.17578125,0,0
-3.09798415401019E-05,7.44932867746684E-06,0.17578125,0,0
-3.20357175951358E-05,9.38028824748471E-06,0.17578125,0,0
-3.18498132401146E-05,1.07194546217215E-05,0.17578125,0,0
-3.05126122839283E-05,9.74663907982176E-06,0.17578125,0,0
-3.32457493641414E-05,1.10115970528568E-05,0.17578125,0,0
-3.37944693455938E-05,1.33338853629539E-05,0.17578125,0,0
-3.56028976966627E-05,1.38722189149121E-05,0.17578125,0,0
-3.30819420923945E-05,1.17527670226991E-05,0.17578125,0,0
-3.22651612805203E-05,1.1757521861E-05,0.17578125,0,0
-2.85332953353645E-05,1.23382997117005E-05,0.17578125,0,0
-2.80659442069009E-05,1.31197575683473E-05,0.17578125,0,0
-2.58387408393901E-05,1.15610300781555E-05,0.17578125,0,0
-2.56821840594057E-05,9.62910871749045E-06,0.17578125,0,0
-2.51066921919119E-05,8.37590778246522E-06,0.17578125,0,0
-2.83965819107834E-05,8.30657336337026E-06,0.17578125,0,0
-3.12850461341441E-05,7.9945903053158E-06,0.17578125,0,0
-3.38492427545134E-05,9.14191605261294E-06,0.17578125,0,0
-3.3870786865009E-05,1.00001834653085E-05,0.17578125,0,0
-3.19411046802998E-05,1.07041332739755E-05,0.17578125,0,0
-2.32926522585331E-05,1.11652871055412E-05,0.17578125,0,0
-3.22927589877509E-05,1.59955161507241E-05,0.17578125,0,0
-2.63605434156489E-05,9.6342646429548E-06,0.17578125,0,0
-3.61913043889217E-05,1.06268671515863E-05,0.17578125,0,0
-3.17681842716411E-05,8.05928902991582E-06,0.17578125,0,0
-3.48104367731139E-05,5.85983116252464E-06,0.17578125,0,0
-3.22835185215808E-05,3.12293741444591E-06,0.17578125,0,0
-3.32541749230586E-05,4.46940930487472E-06,0.17578125,0,0
-3.08162016153801E-05,3.84659597330028E-06,0.17578125,0,0
-2.83251101791393E-05,4.2834690248128E-06,0.17578125,0,0
-2.73652731266338E-05,7.04100875736913E-06,0.17578125,0,0
-2.76451028184965E-05,9.29443376662675E-06,0.17578125,0,0
-3.08430644508917E-05,1.10174159999588E-05,0.17578125,0,0
-3.07756163238082E-05,1.05635790532688E-05,0.17578125,0,0
-3.05783360090572E-05,9.07373942027334E-06,0.17578125,0,0
-2.62380945059704E-05,5.26234680364723E-06,0.17578125,0,0
-2.55299528362229E-05,4.0536988308304E-06,0.17578125,0,0
-2.35892439377494E-05,4.99506677442696E-06,0.17578125,0,0
-2.35232382692629E-05,8.57677969179349E-06,0.17578125,0,0
-2.10646758205257E-05,9.88875126495259E-06,0.17578125,0,0
-2.24850336962845E-05,9.79489414021373E-06,0.17578125,0,0
-2.32003148994409E-05,8.8173746917164E-06,0.17578125,0,0
-2.36323412536876E-05,9.20295224204892E-06,0.17578125,0,0
-2.27801792789251E-05,9.46504678722704E-06,0.17578125,0,0
-2.30841469601728E-05,9.5134555522236E-06,0.17578125,0,0
-2.26482388825389E-05,8.48986746859737E-06,0.17578125,0,0
-2.43970280280337E-05,9.47994794842089E-06,0.17578125,0,0
-2.11165388463996E-05,1.13064961624332E-05,0.17578125,0,0
-2.89290583168622E-05,1.65784131240798E-05,0.17578125,0,0
-2.08412293432048E-05,1.14983595267404E-05,0.17578125,0,0
-2.77041763183661E-05,1.33167786771082E-05,0.17578125,0,0
-2.54128372034756E-05,1.12720008473843E-05,0.17578125,0,0
-2.87247894448228E-05,1.30707294374588E-05,0.17578125,0,0
-2.5718962206156E-05,1.54754288814729E-05,0.17578125,0,0
-2.69348111032741E-05,1.88051708391868E-05,0.17578125,0,0
-2.61676977970637E-05,1.79690287041012E-05,0.17578125,0,0
-2.53542075370206E-05,1.57271006173687E-05,0.17578125,0,0
-2.48199175985064E-05,1.31294618768152E-05,0.17578125,0,0
-2.2969341443968E-05,1.05461340353941E-05,0.17578125,0,0
-2.20369875023607E-05,1.08251570054563E-05,0.17578125,0,0
-1.99613132281229E-05,1.24963025882607E-05,0.17578125,0,0
-2.12851391552249E-05,1.51031263158075E-05,0.17578125,0,0
-2.07053180929506E-05,1.42269991556532E-05,0.17578125,0,0
-2.18523346120492E-05,1.25873484648764E-05,0.17578125,0,0
-2.09585232369136E-05,9.48800334299449E-06,0.17578125,0,0
-2.2928210455575E-05,7.67593155615032E-06,0.17578125,0,0
-2.22456092160428E-05,7.32833541405853E-06,0.17578125,0,0
-2.1493589883903E-05,1.04833388832049E-05,0.17578125,0,0
-1.82983440026874E-05,1.17509607662214E-05,0.17578125,0,0
-1.72201325767674E-05,1.16015135063208E-05,0.17578125,0,0
-1.52800021169242E-05,1.19767764772405E-05,0.17578125,0,0
-1.34549982249155E-05,1.37566203193273E-05,0.17578125,0,0
-1.19413143693237E-05,1.658344444877E-05,0.17578125,0,0
-1.22979690786451E-05,1.91617036762182E-05,0.17578125,0,0
-1.26958284454304E-05,1.61923308041878E-05,0.17578125,0,0
-2.03285871975822E-05,2.40900462813443E-05,0.17578125,0,0
-1.74408705788665E-05,1.98274774447782E-05,0.17578125,0,0
-1.82897383638192E-05,2.32144975598203E-05,0.17578125,0,0
-1.46273368955008E-05,1.80413480848074E-05,0.17578125,0,0
-1.67030775628518E-05,1.89848669833736E-05,0.17578125,0,0
-1.58973743964452E-05,1.45837184390984E-05,0.17578125,0,0
-1.6172940377146E-05,1.11292065412272E-05,0.17578125,0,0
-1.52232687469223E-05,8.5190749814501E-06,0.17578125,0,0
-1.53898763528559E-05,1.00403485703282E-05,0.17578125,0,0
-1.78871650859946E-05,1.01044406619621E-05,0.17578125,0,0
-1.97592089534737E-05,5.97801954427268E-06,0.17578125,0,0
-2.11370424949564E-05,5.32495641891728E-06,0.17578125,0,0
-2.12805753108114E-05,7.52968298911583E-06,0.17578125,0,0
-2.21219888771884E-05,1.16887185868109E-05,0.17578125,0,0
-2.10419038921827E-05,1.08854355858057E-05,0.17578125,0,0
-2.17514716496225E-05,8.76785452419426E-06,0.17578125,0,0
-2.11900587601122E-05,5.66135122426203E-06,0.17578125,0,0
-2.03285435418366E-05,7.02680426911684E-06,0.17578125,0,0
-1.78714326466434E-05,8.23834761831677E-06,0.17578125,0,0
-1.70489820447983E-05,1.00507068054867E-05,0.17578125,0,0
-1.64279026648728E-05,9.36098058446078E-06,0.17578125,0,0
-1.70296498254174E-05,8.10809615359176E-06,0.17578125,0,0
-1.7198828572873E-05,4.87816441818723E-06,0.17578125,0,0
-1.70055336639052E-05,2.90066600427963E-06,0.17578125,0,0
-1.67761536431499E-05,2.8093761557102E-06,0.17578125,0,0
-1.67679245350882E-05,2.4137198124663E-06,0.17578125,0,0
-1.26580634969287E-05,1.12535599328112E-06,0.17578125,0,0
-1.61596981342882E-05,1.38118230097461E-06,0.17578125,0,0
-1.12935586003005E-05,1.02304181837098E-06,0.17578125,0,0
-1.82723597390577E-05,2.50173548010935E-06,0.17578125,0,0
-1.91979961527977E-05,4.12620056522428E-06,0.17578125,0,0
-2.264771683258E-05,3.71215469385788E-06,0.17578125,0,0
-2.00483464141143E-05,5.81330994009477E-07,0.17578125,0,0
-1.95544780581258E-05,-2.56201974480064E-06,0.17578125,0,0
-2.05437809199793E-05,-3.75111835637654E-06,0.17578125,0,0
-2.31326375796925E-05,-3.13063856083318E-06,0.17578125,0,0
-2.47205389314331E-05,-2.46021977545752E-06,0.17578125,0,0
-2.42346213781275E-05,-2.89296212940826E-06,0.17578125,0,0
-2.49672102654586E-05,-2.08968640436069E-06,0.17578125,0,0
-2.49359363806434E-05,1.67910991422104E-06,0.17578125,0,0
-2.54511724051554E-05,6.93654419592349E-06,0.17578125,0,0
-2.35430634347722E-05,9.96520793705713E-06,0.17578125,0,0
-2.36770902120043E-05,9.71339159150375E-06,0.17578125,0,0
-2.32626371143851E-05,6.68295615469106E-06,0.17578125,0,0
-2.44532566284761E-05,3.38393988386088E-06,0.17578125,0,0
-2.41564466705313E-05,2.98220879813016E-06,0.17578125,0,0
-2.46792005782481E-05,5.49370088265277E-06,0.17578125,0,0
-2.44577749981545E-05,7.46064506529365E-06,0.17578125,0,0
-2.51590190600837E-05,7.32551416149363E-06,0.17578125,0,0
-2.53909438470146E-05,6.96399047228624E-06,0.17578125,0,0
-2.44135026150616E-05,9.59474800765747E-06,0.17578125,0,0
-2.36988489632495E-05,1.45618641909095E-05,0.17578125,0,0
-2.40620447584661E-05,1.59881019499153E-05,0.17578125,0,0
-1.93296873476356E-05,1.07275673144613E-05,0.17578125,0,0
-2.65608414338203E-05,1.57129561557667E-05,0.17578125,0,0
-1.80875540536363E-05,1.26980221466511E-05,0.17578125,0,0
-2.25143157877028E-05,1.5011067262094E-05,0.17578125,0,0
-1.91694562090561E-05,1.03532465800527E-05,0.17578125,0,0
-2.2626851205132E-05,8.85986810317263E-06,0.17578125,0,0
-2.02856535906903E-05,6.81883875586209E-06,0.17578125,0,0
-2.03622748813359E-05,9.38175344344927E-06,0.17578125,0,0
-1.91188464668812E-05,1.11752269731369E-05,0.17578125,0,0
-1.88552203326253E-05,1.277727096749E-05,0.17578125,0,0
-1.90628961718176E-05,1.24882362797507E-05,0.17578125,0,0
-1.82409312401433E-05,1.08982703750371E-05,0.17578125,0,0
-1.92483748833183E-05,1.23926211017533E-05,0.17578125,0,0
-1.83163756446447E-05,1.50510823004879E-05,0.17578125,0,0
-1.91618764802115E-05,1.52832380990731E-05,0.17578125,0,0
-1.87129862752045E-05,1.12871839519357E-05,0.17578125,0,0
-2.06944332603598E-05,1.08465719677042E-05,0.17578125,0,0
-1.91794242709875E-05,1.21014945761999E-05,0.17578125,0,0
-1.8733777324087E-05,1.44313326018164E-05,0.17578125,0,0
-1.83298343472416E-05,1.37580400405568E-05,0.17578125,0,0
-2.11907699849689E-05,1.41396576509578E-05,0.17578125,0,0
-2.20620659092674E-05,1.54275603563292E-05,0.17578125,0,0
-2.103925908159E-05,1.6251127817668E-05,0.17578125,0,0
-1.86124325409764E-05,1.48914550663903E-05,0.17578125,0,0
-1.87502464541467E-05,1.43497600220144E-05,0.17578125,0,0
-2.0100816982449E-05,1.45057347253896E-05,0.17578125,0,0
-2.20698202610947E-05,1.43644765557838E-05,0.17578125,0,0
-1.97533536265837E-05,1.10305818452616E-05,0.17578125,0,0
-2.87043603748316E-05,1.5145213183132E-05,0.17578125,0,0
-2.28597673412878E-05,1.01749610621482E-05,0.17578125,0,0
-2.7745081752073E-05,1.20285421871813E-05,0.17578125,0,0
-2.29061752179405E-05,9.12540053832345E-06,0.17578125,0,0
-2.49174136115471E-05,9.08753554540453E-06,0.17578125,0,0
-2.32253769354429E-05,8.08249569672626E-06,0.17578125,0,0
-2.51576911978191E-05,1.32520517581725E-05,0.17578125,0,0
-2.44656803261023E-05,1.56882597366348E-05,0.17578125,0,0
-2.45306291617453E-05,1.42477920235251E-05,0.17578125,0,0
-2.59558801189996E-05,1.24362104543252E-05,0.17578125,0,0
-2.74930225714343E-05,1.05371400422882E-05,0.17578125,0,0
-3.0029535992071E-05,8.9474178821547E-06,0.17578125,0,0
-2.9200446078903E-05,6.9254701884347E-06,0.17578125,0,0
-3.00578576570842E-05,7.52150435801013E-06,0.17578125,0,0
-3.05942994600628E-05,6.4289988586097E-06,0.17578125,0,0
-3.29761460307054E-05,7.77418881625636E-06,0.17578125,0,0
-3.06277579511516E-05,1.19533788165427E-05,0.17578125,0,0
-2.97899150609737E-05,1.74814249476185E-05,0.17578125,0,0
-2.86189715552609E-05,1.85569624591153E-05,0.17578125,0,0
-2.92869081022218E-05,1.92197894648416E-05,0.17578125,0,0
-2.81738666672027E-05,1.87058485607849E-05,0.17578125,0,0
-2.81957909464836E-05,1.84065393113997E-05,0.17578125,0,0
-2.84423440461978E-05,1.98798188648652E-05,0.17578125,0,0
-3.1006769859232E-05,2.32364800467622E-05,0.17578125,0,0
-3.26986264553852E-05,2.45921728492249E-05,0.17578125,0,0
-3.30134535033721E-05,2.35229581448948E-05,0.17578125,0,0
-2.87260791083099E-05,1.59123683260987E-05,0.17578125,0,0
-4.35927649959922E-05,1.89771235454828E-05,0.17578125,0,0
-3.53833092958666E-05,1.07545938590192E-05,0.17578125,0,0
-4.03127087338362E-05,1.5848214388825E-05,0.17578125,0,0
-3.24453394568991E-05,1.22879591799574E-05,0.17578125,0,0
-3.42473467753734E-05,1.50797377500567E-05,0.17578125,0,0
-2.92959211947164E-05,1.34948149934644E-05,0.17578125,0,0
-2.98493760055862E-05,1.41924065246712E-05,0.17578125,0,0
-2.88289465970593E-05,1.11699009721633E-05,0.17578125,0,0
-2.86640406557126E-05,1.09409156721085E-05,0.17578125,0,0
-2.92853401333559E-05,1.39008179758093E-05,0.17578125,0,0
-2.97024744213559E-05,1.41792206704849E-05,0.17578125,0,0
-3.15331380988937E-05,1.34452502607019E-05,0.17578125,0,0
-2.92992408503778E-05,1.08731583168264E-05,0.17578125,0,0
-2.91442484012805E-05,1.04325281427009E-05,0.17578125,0,0
-2.58475192822516E-05,8.18023272586288E-06,0.17578125,0,0
-2.52355675911531E-05,9.48853630688973E-06,0.17578125,0,0
-2.21257141674869E-05,1.10181999843917E-05,0.17578125,0,0
-2.26802876568399E-05,1.40458596433746E-05,0.17578125,0,0
-2.12652666959912E-05,1.28823367049336E-05,0.17578125,0,0
-2.24222458200529E-05,1.30467642520671E-05,0.17578125,0,0
-2.28607204917353E-05,1.32957939058542E-05,0.17578125,0,0
-2.45816463575466E-05,1.37026008815155E-05,0.17578125,0,0
-2.3945651264512E-05,1.2590274309332E-05,0.17578125,0,0
-2.38843276747502E-05,1.20261393021792E-05,0.17578125,0,0
-2.41449251916492E-05,1.15730417746818E-05,0.17578125,0,0
-2.41345260292292E-05,1.18475900308113E-05,0.17578125,0,0
-1.84174405148951E-05,8.87444639374735E-06,0.17578125,0,0
-2.42455116676865E-05,1.30818016259582E-05,0.17578125,0,0
-1.56312999024522E-05,1.23953095680918E-05,0.17578125,0,0
-1.83759093488334E-05,1.74756878550397E-05,0.17578125,0,0
-1.36812896016636E-05,1.67663074535085E-05,0.17578125,0,0
-1.8052529412671E-05,1.6693333236617E-05,0.17578125,0,0
-1.87064197234577E-05,1.27947141663753E-05,0.17578125,0,0
-2.19528283196269E-05,1.08461099443957E-05,0.17578125,0,0
-2.22156049858313E-05,1.0564301192062E-05,0.17578125,0,0
-2.26209085667506E-05,1.31306069306447E-05,0.17578125,0,0
-2.23666847887216E-05,1.47677073982777E-05,0.17578125,0,0
-2.10244688787498E-05,1.27709527077968E-05,0.17578125,0,0
-2.12368286156561E-05,1.11436538645648E-05,0.17578125,0,0
-1.99993446585722E-05,1.11227254819823E-05,0.17578125,0,0
-2.18808290810557E-05,1.22486517284415E-05,0.17578125,0,0
-2.22495291382074E-05,1.0847231351363E-05,0.17578125,0,0
-2.48734759225044E-05,1.06447450889391E-05,0.17578125,0,0
-2.43625763687305E-05,9.98183622868964E-06,0.17578125,0,0
-2.41911875491496E-05,9.02126794244396E-06,0.17578125,0,0
-2.2172245735419E-05,5.6553303693363E-06,0.17578125,0,0
-2.34147300943732E-05,3.80292112822644E-06,0.17578125,0,0
-2.35854167840444E-05,3.02962257592299E-06,0.17578125,0,0
-2.32304646488046E-05,2.42667715610878E-06,0.17578125,0,0
-2.15845684579108E-05,2.34381423069863E-06,0.17578125,0,0
-2.14734718610998E-05,3.74569481209619E-06,0.17578125,0,0
-2.26320044021122E-05,3.41582654073136E-06,0.17578125,0,0
-2.50219272857066E-05,1.9490275917633E-06,0.17578125,0,0
-2.04225489142118E-05,1.38680900363397E-06,0.17578125,0,0
-2.6528277885518E-05,1.90945775102591E-06,0.17578125,0,0
-1.77380643435754E-05,2.63925153376476E-06,0.17578125,0,0
-2.46521158260293E-05,4.72339479529182E-06,0.17578125,0,0
-2.2366366465576E-05,5.04808895129827E-06,0.17578125,0,0
-2.77554809144931E-05,6.15310636931099E-06,0.17578125,0,0
-2.75138318102108E-05,7.3764367698459E-06,0.17578125,0,0
-2.98083814413985E-05,7.82635834184475E-06,0.17578125,0,0
-2.82934179267613E-05,7.42981501389295E-06,0.17578125,0,0
-2.72861907433253E-05,7.06847731635207E-06,0.17578125,0,0
-2.71262288151775E-05,6.94778782417416E-06,0.17578125,0,0
-2.56954299402423E-05,5.40908695256803E-06,0.17578125,0,0
-2.52613135671709E-05,4.10577331422246E-06,0.17578125,0,0
-2.29097786359489E-05,4.14614760302356E-06,0.17578125,0,0
-2.36039395531407E-05,5.15393867317471E-06,0.17578125,0,0
-2.26906504394719E-05,6.1715013544017E-06,0.17578125,0,0
-2.41112084040651E-05,7.73520423535956E-06,0.17578125,0,0
-2.20099609578028E-05,8.84081327967579E-06,0.17578125,0,0
-2.19508983718697E-05,9.79504056886071E-06,0.17578125,0,0
-2.14787178265397E-05,9.81090761342784E-06,0.17578125,0,0
-2.34740928135579E-05,6.77757589073735E-06,0.17578125,0,0
-2.35997395066079E-05,2.7578751087276E-06,0.17578125,0,0
-2.47338666667929E-05,2.52288123192557E-06,0.17578125,0,0
-2.54450951615581E-05,4.86764020024566E-06,0.17578125,0,0
-2.62132816715166E-05,6.13163319940213E-06,0.17578125,0,0
-2.50895736826351E-05,7.43095233701752E-06,0.17578125,0,0
-2.44481398112839E-05,8.54201061883941E-06,0.17578125,0,0
-2.07140274142148E-05,5.01845943290391E-06,0.17578125,0,0
-3.11043077090289E-05,5.34027140020044E-06,0.17578125,0,0
-2.59309981629485E-05,3.52150732396694E-06,0.17578125,0,0
-3.03710021398729E-05,8.27982694318052E-06,0.17578125,0,0
-2.41979541897308E-05,9.48164142755559E-06,0.17578125,0,0
-2.59997159446357E-05,1.17285399028333E-05,0.17578125,0,0
-2.49783261097036E-05,1.09101720227045E-05,0.17578125,0,0
-2.78023708233377E-05,1.00875222415198E-05,0.17578125,0,0
-2.72451597993495E-05,8.33284411783097E-06,0.17578125,0,0
-2.67118739429861E-05,6.93173615218257E-06,0.17578125,0,0
-2.73985970125068E-05,5.65952768738498E-06,0.17578125,0,0
-2.8198772270116E-05,4.89191916130949E-06,0.17578125,0,0
-3.05092271446483E-05,7.18908177077537E-06,0.17578125,0,0
-2.92730674118502E-05,1.04743530755513E-05,0.17578125,0,0
-2.92181994154816E-05,1.34542333398713E-05,0.17578125,0,0
-2.7244923330727E-05,1.46073016367154E-05,0.17578125,0,0
-2.75709735433338E-05,1.58665716298856E-05,0.17578125,0,0
-2.55945033131866E-05,1.59993815032067E-05,0.17578125,0,0
-2.59094540524529E-05,1.63110398716526E-05,0.17578125,0,0
-2.58941854553996E-05,1.66109439305728E-05,0.17578125,0,0
-2.89566487481352E-05,1.73447861016029E-05,0.17578125,0,0
-2.99578496196773E-05,1.65588462550659E-05,0.17578125,0,0
-2.90443331323331E-05,1.723204877635E-05,0.17578125,0,0
-2.6215961042908E-05,1.91182862181449E-05,0.17578125,0,0
-2.52582904067822E-05,1.96753335330868E-05,0.17578125,0,0
-2.61207205767278E-05,1.86289526027394E-05,0.17578125,0,0
-2.69391857727896E-05,1.77249821717851E-05,0.17578125,0,0
-2.13879757211544E-05,1.51029407788883E-05,0.17578125,0,0
-3.14222234010231E-05,2.38561988226138E-05,0.17578125,0,0
-2.64647769654403E-05,2.03047111426713E-05,0.17578125,0,0
-3.24093743984122E-05,2.48084197664866E-05,0.17578125,0,0
-2.63238580373582E-05,2.2688433091389E-05,0.17578125,0,0
-2.92487766273553E-05,2.14541632885812E-05,0.17578125,0,0
-2.83093631878728E-05,1.82785261131357E-05,0.17578125,0,0
-2.83079007203924E-05,2.08787405426847E-05,0.17578125,0,0
-2.37361709878314E-05,2.15882482734742E-05,0.17578125,0,0
-2.13624225580134E-05,2.18865297938464E-05,0.17578125,0,0
-2.2125475879875E-05,2.06635832000757E-05,0.17578125,0,0
-2.27679101953981E-05,1.69024388014805E-05,0.17578125,0,0
-2.42364985751919E-05,1.45490776048973E-05,0.17578125,0,0
-2.30669975280762E-05,1.35818308990565E-05,0.17578125,0,0
-2.33294231293257E-05,1.46255579238641E-05,0.17578125,0,0
-2.07794564630603E-05,1.29393756651552E-05,0.17578125,0,0
-2.05671294679632E-05,1.35289155878127E-05,0.17578125,0,0
-1.86942943400936E-05,1.50966243381845E-05,0.17578125,0,0
-2.07609173230594E-05,1.80100487341406E-05,0.17578125,0,0
-2.1773141270387E-05,1.67432554007974E-05,0.17578125,0,0
-2.22550897888141E-05,1.38243858600617E-05,0.17578125,0,0
-1.92565403267508E-05,1.00671113614226E-05,0.17578125,0,0
-1.79817870957777E-05,1.05585986602819E-05,0.17578125,0,0
-1.86539746209746E-05,1.10668052002438E-05,0.17578125,0,0
-2.22682792809792E-05,9.76229330262868E-06,0.17578125,0,0
-2.52232821367215E-05,9.44982912187697E-06,0.17578125,0,0
-2.58468971878756E-05,9.93511548585957E-06,0.17578125,0,0
-2.08541259780759E-05,6.95887410984142E-06,0.17578125,0,0
-3.1425657653017E-05,8.93393189471681E-06,0.17578125,0,0
-2.7411615519668E-05,6.32645514997421E-06,0.17578125,0,0
-3.3735137549229E-05,9.46140426094644E-06,0.17578125,0,0
-2.7489726562635E-05,9.16168573894538E-06,0.17578125,0,0
-2.86778886220418E-05,9.78730258793803E-06,0.17578125,0,0
-2.80494350590743E-05,8.46708007884445E-06,0.17578125,0,0
-3.01673717331141E-05,8.95905213837978E-06,0.17578125,0,0
-2.82489581877599E-05,7.4468475759204E-06,0.17578125,0,0
-2.65687758655986E-05,8.11296376923565E-06,0.17578125,0,0
-2.57435767707648E-05,1.14114227471873E-05,0.17578125,0,0
-2.47728949034354E-05,1.32010782181169E-05,0.17578125,0,0
-2.60589840763714E-05,1.28666315504233E-05,0.17578125,0,0
-2.53856997005641E-05,1.06665956991492E-05,0.17578125,0,0
-2.61738623521524E-05,9.87631483440055E-06,0.17578125,0,0
-2.42429996433202E-05,9.98619088932173E-06,0.17578125,0,0
-2.49790500674862E-05,1.31961733131902E-05,0.17578125,0,0
-2.39637793129077E-05,1.51043377627502E-05,0.17578125,0,0
-2.42255537159508E-05,1.51723688759375E-05,0.17578125,0,0
-2.19937537622172E-05,1.34429164972971E-05,0.17578125,0,0
-2.02721967070829E-05,1.25497836052091E-05,0.17578125,0,0
-1.71011761267437E-05,1.15962639029021E-05,0.17578125,0,0
-1.57679332914995E-05,1.11775652840151E-05,0.17578125,0,0
-1.42561193570145E-05,1.13254336611135E-05,0.17578125,0,0
-1.40796209961991E-05,1.34220854306477E-05,0.17578125,0,0
-1.56162241182756E-05,1.36760518216761E-05,0.17578125,0,0
-1.88375634024851E-05,1.23190538943163E-05,0.17578125,0,0
-1.75911663973238E-05,1.07621199276764E-05,0.17578125,0,0
-2.44074217334855E-05,1.68587394000497E-05,0.17578125,0,0
-1.6395377315348E-05,1.44555051520001E-05,0.17578125,0,0
-1.86436191143002E-05,1.77768488356378E-05,0.17578125,0,0
-1.42764019983588E-05,1.55461166286841E-05,0.17578125,0,0
-1.61888165166602E-05,1.29976169773727E-05,0.17578125,0,0
-1.37943625304615E-05,7.90220656199381E-06,0.17578125,0,0
-1.49257248267531E-05,5.56102349946741E-06,0.17578125,0,0
-1.60382751346333E-05,1.47091782309872E-06,0.17578125,0,0
-1.85865592357004E-05,-1.03216962088482E-06,0.17578125,0,0
-2.04123170988169E-05,-6.73832005304575E-07,0.17578125,0,0
-2.02105675271014E-05,1.84763689503598E-06,0.17578125,0,0
-2.12206286960281E-05,6.68726943331421E-06,0.17578125,0,0
-2.07985722227022E-05,9.17888883122941E-06,0.17578125,0,0
-2.19308421947062E-05,9.98537689156365E-06,0.17578125,0,0
-2.02021219593007E-05,8.05289619165706E-06,0.17578125,0,0
-2.02441406145226E-05,7.67490109865321E-06,0.17578125,0,0
-1.91922736121342E-05,8.19069464341737E-06,0.17578125,0,0
-2.00374979613116E-05,1.04288628790528E-05,0.17578125,0,0
-1.87256828212412E-05,1.00538254628191E-05,0.17578125,0,0
-1.71430947375484E-05,9.3172866399982E-06,0.17578125,0,0
-1.37772312882589E-05,9.94146012089914E-06,0.17578125,0,0
-1.22624396681204E-05,1.25672549984301E-05,0.17578125,0,0
-1.11692779682926E-05,1.38644800244947E-05,0.17578125,0,0
-1.16885448733228E-05,1.42008238981362E-05,0.17578125,0,0
-1.25354727060767E-05,1.33791490952717E-05,0.52734375,0,0
-1.36319376906613E-05,1.26961904243217E-05,0.52734375,0,0
-1.13261403384968E-05,9.25412041397067E-06,0.52734375,0,0
-1.53787241288228E-05,1.14543036033865E-05,0.52734375,0,0
-1.01729247035109E-05,6.27702775091166E-06,0.52734375,0,0
-1.39825797305093E-05,1.07212154034642E-05,0.52734375,0,0
-1.55976722453488E-05,1.25806109281257E-05,0.52734375,0,0
-2.00818958546733E-05,1.43150564326788E-05,0.52734375,0,0
-1.99870100914268E-05,1.07711211967398E-05,0.52734375,0,0
-2.15244108403567E-05,9.16534190764651E-06,0.52734375,0,0
-2.21864320337772E-05,7.79234323999844E-06,0.52734375,0,0
-2.29992001550272E-05,8.44347960082814E-06,0.52734375,0,0
-2.33104183280375E-05,9.81461107585346E-06,0.52734375,0,0
-2.28475582844112E-05,9.9009130281047E-06,0.52734375,0,0
-2.39701112150215E-05,1.00448114608298E-05,0.52734375,0,0
-2.4037388357101E-05,9.84189955488546E-06,0.52734375,0,0
-2.50450248131529E-05,9.97120332613122E-06,0.52734375,0,0
-2.56176281254739E-05,7.21924925528583E-06,0.52734375,0,0
-2.69455322268186E-05,5.56414352104184E-06,0.52734375,0,0
-2.55719533015508E-05,4.50649258709745E-06,0.52734375,0,0
-2.53173438977683E-05,5.56961413167301E-06,0.52734375,0,0
-2.45828905462986E-05,5.27724751009373E-06,0.52734375,0,0
-2.48278320214013E-05,6.00211296841735E-06,0.52734375,0,0
-2.52083573286654E-05,6.24794029135956E-06,0.52734375,0,0
-2.65346188825788E-05,6.08397340329248E-06,0.52734375,0,0
-2.6299137971364E-05,5.61956039746292E-06,0.52734375,0,0
-2.47554016823415E-05,5.32871308678295E-06,0.52734375,0,0
-2.30570221901871E-05,5.51024868400418E-06,0.52734375,0,0
-2.26228967221687E-05,4.80538892588811E-06,0.52734375,0,0
-1.98708348762011E-05,3.97611711377976E-06,0.52734375,0,0
-2.91784090222791E-05,6.89772059558891E-06,0.52734375,0,0
-2.2487023670692E-05,4.82362975162687E-06,0.52734375,0,0
-2.64367681666045E-05,3.86762485504732E-06,0.52734375,0,0
-2.20700294448761E-05,3.97879193769768E-06,0.52734375,0,0
-2.59554126387229E-05,3.08194876197376E-06,0.52734375,0,0
-2.53605849138694E-05,7.70577912589943E-08,0.52734375,0,0
-2.59339649346657E-05,-1.88959268143662E-06,0.52734375,0,0
-2.44153507082956E-05,-3.06888614431955E-06,0.52734375,0,0
-2.35554525715997E-05,1.11941545810623E-07,0.52734375,0,0
-2.22237613343168E-05,7.04737567502889E-06,0.52734375,0,0
-2.04654370463686E-05,1.18562093121E-05,0.52734375,0,0
-2.1446670871228E-05,1.31772230815841E-05,0.52734375,0,0
-2.22929447772913E-05,1.32053128254483E-05,0.52734375,0,0
-2.58797426795354E-05,1.60642121045385E-05,0.52734375,0,0
-2.63393958448432E-05,1.96313467313303E-05,0.52734375,0,0
-2.65171656792518E-05,1.97282242879737E-05,0.52734375,0,0
-2.42019796132809E-05,1.80551051016664E-05,0.52734375,0,0
-2.54226870310958E-05,1.87568621186074E-05,0.52734375,0,0
-2.5302535505034E-05,1.88107551366556E-05,0.52734375,0,0
-2.57196206803201E-05,1.70442708622431E-05,0.52734375,0,0
-2.3844002498663E-05,1.52363909364794E-05,0.52734375,0,0
-2.26185657083988E-05,1.44518371598679E-05,0.52734375,0,0
-2.2038489987608E-05,1.2773227354046E-05,0.52734375,0,0
-2.29680590564385E-05,1.16698338388233E-05,0.52734375,0,0
-2.25543371925596E-05,1.07953328551957E-05,0.52734375,0,0
-2.38861484831432E-05,9.20619186217664E-06,0.52734375,0,0
-2.2740021449863E-05,9.24552477954421E-06,0.52734375,0,0
-3.38897516485304E-05,1.58001894305926E-05,0.52734375,0,0
-2.71810586127685E-05,1.47228156492929E-05,0.52734375,0,0
-3.34326869051438E-05,1.66868121596053E-05,0.52734375,0,0
-2.9843695301679E-05,1.36020798890968E-05,0.52734375,0,0
-3.3096697734436E-05,1.273718316952E-05,0.52734375,0,0
-3.14067183353473E-05,1.26932209241204E-05,0.52734375,0,0
-3.3376862120349E-05,1.34765605253051E-05,0.52734375,0,0
-3.39815887855366E-05,1.16708097266383E-05,0.52734375,0,0
-3.45239277521614E-05,1.17948829938541E-05,0.52734375,0,0
-3.30818838847335E-05,1.28977435451816E-05,0.52734375,0,0
-2.96473826892907E-05,1.33405710585066E-05,0.52734375,0,0
-2.91977030428825E-05,1.45850081025856E-05,0.52734375,0,0
-2.86431204585824E-05,1.40168876896496E-05,0.52734375,0,0
-3.05114499496995E-05,1.19211790661211E-05,0.52734375,0,0
-2.89835770672653E-05,8.60977434058441E-06,0.52734375,0,0
-2.88073715637438E-05,8.46807415655348E-06,0.52734375,0,0
-2.64011177932844E-05,9.08107995201135E-06,0.52734375,0,0
-2.69183019554475E-05,9.83242262009298E-06,0.52734375,0,0
-2.68436724581989E-05,8.62394063005922E-06,0.52734375,0,0
-2.89207309833728E-05,7.75019725551829E-06,0.52734375,0,0
-2.91483429464279E-05,7.94006609794451E-06,0.52734375,0,0
-2.96460930258036E-05,1.06907691588276E-05,0.52734375,0,0
-2.90934494842077E-05,1.25654205476167E-05,0.52734375,0,0
-2.99354742310243E-05,1.20344047900289E-05,0.52734375,0,0
-3.02552398352418E-05,1.12149291453534E-05,0.52734375,0,0
-3.11729236273095E-05,1.12547659227857E-05,0.52734375,0,0
-2.68232251983136E-05,1.00790721262456E-05,0.52734375,0,0
-3.82505349989515E-05,1.28662832139526E-05,0.52734375,0,0
-2.78586812783033E-05,7.30598776499392E-06,0.52734375,0,0
-3.36283846991137E-05,9.90499484032625E-06,0.52734375,0,0
-2.83400113403331E-05,8.4703406173503E-06,0.52734375,0,0
-3.1108342227526E-05,8.87238093127962E-06,0.52734375,0,0
-2.70401760644745E-05,7.30720194042078E-06,0.52734375,0,0
-2.7247790058027E-05,9.22555773286149E-06,0.52734375,0,0
-2.63931651716121E-05,8.07794822321739E-06,0.52734375,0,0
-2.95037189061986E-05,5.67249617233756E-06,0.52734375,0,0
-3.28045316564385E-05,6.24231097390293E-06,0.52734375,0,0
-3.16127516271081E-05,8.5855563156656E-06,0.52734375,0,0
-3.03109463857254E-05,1.07469522845349E-05,0.52734375,0,0
-2.77962990367087E-05,1.06426405181992E-05,0.52734375,0,0
-2.86822778434725E-05,1.26841105156927E-05,0.52734375,0,0
-2.65450944425538E-05,1.35890431920416E-05,0.52734375,0,0
-2.8324937375146E-05,1.36948201543419E-05,0.52734375,0,0
-2.85862424789229E-05,1.18933230623952E-05,0.52734375,0,0
-3.07701047859155E-05,1.22884075608454E-05,0.52734375,0,0
-2.86068643617909E-05,1.29703403217718E-05,0.52734375,0,0
-2.70783693849808E-05,1.39196845339029E-05,0.52734375,0,0
-2.42205205722712E-05,1.18186953841359E-05,0.52734375,0,0
-2.52639656537212E-05,1.01352889032569E-05,0.52734375,0,0
-2.54321839747718E-05,1.0437254786666E-05,0.52734375,0,0
-2.27834771067137E-05,1.1021974387404E-05,0.52734375,0,0
-1.80795232154196E-05,1.13133182821912E-05,0.52734375,0,0
-1.70545554283308E-05,1.3551006304624E-05,0.52734375,0,0
-1.48789913509972E-05,1.34798865474295E-05,0.52734375,0,0
-2.09222307603341E-05,1.96815435629105E-05,0.52734375,0,0
-1.65571600518888E-05,1.6633815903333E-05,0.52734375,0,0
-2.12518843909493E-05,2.08986293728231E-05,0.52734375,0,0
-1.74438773683505E-05,1.48167127917986E-05,0.52734375,0,0
-1.88263511518016E-05,1.21135753943236E-05,0.52734375,0,0
-1.89525835594395E-05,1.02881522252574E-05,0.52734375,0,0
-2.04323969228426E-05,1.20690465337248E-05,0.52734375,0,0
-1.85279441211605E-05,1.00270908660605E-05,0.52734375,0,0
-1.74363012774847E-05,8.64934190758504E-06,0.52734375,0,0
-1.63429049280239E-05,9.74464001046726E-06,0.52734375,0,0
-1.41455439006677E-05,1.0048132025986E-05,0.52734375,0,0
-1.4106174603512E-05,1.06574689198169E-05,0.52734375,0,0
-1.40982183438609E-05,1.0732231203292E-05,0.52734375,0,0
-1.62034993991256E-05,1.32542136270786E-05,0.52734375,0,0
-1.55109701154288E-05,1.33054018078838E-05,0.52734375,0,0
-1.4813433153904E-05,1.26456843645428E-05,0.52734375,0,0
-1.3048298569629E-05,8.81967298482778E-06,0.52734375,0,0
-1.42711205626256E-05,5.78572644371889E-06,0.52734375,0,0
-1.55271918629296E-05,2.84344878309639E-06,0.52734375,0,0
-1.85962780960836E-05,2.70057489615283E-06,0.52734375,0,0
-1.97328899957938E-05,1.05476385670045E-06,0.52734375,0,0
-2.10229063668521E-05,-8.83508334936778E-07,0.52734375,0,0
-2.16427833947819E-05,-1.20856350349641E-06,0.52734375,0,0
-2.27944401558489E-05,-7.6536667847904E-07,0.52734375,0,0
-2.3164706362877E-05,-1.49199763654906E-06,0.52734375,0,0
-2.26820448006038E-05,-1.55683267166751E-06,0.52734375,0,0
-1.64682987815468E-05,1.96029373000783E-06,0.52734375,0,0
-2.23710940190358E-05,6.7298669819138E-06,0.52734375,0,0
-1.68158749147551E-05,1.03157135526999E-05,0.52734375,0,0
-2.27520649787039E-05,1.0797290087794E-05,0.52734375,0,0
-2.05724772968097E-05,9.45678402786143E-06,0.52734375,0,0
-2.51200326601975E-05,8.12548478279496E-06,0.52734375,0,0
-2.49249897024129E-05,1.10511291495641E-05,0.52734375,0,0
-2.63298661593581E-05,1.4424456821871E-05,0.52734375,0,0
-2.48122960329056E-05,1.36574590214877E-05,0.52734375,0,0
-2.37737058341736E-05,1.10623959699296E-05,0.52734375,0,0
-2.29433444474125E-05,1.13386759039713E-05,0.52734375,0,0
-2.03255985979922E-05,1.23225381685188E-05,0.52734375,0,0
-1.95508000615519E-05,1.29705294966698E-05,0.52734375,0,0
-1.99353307834826E-05,1.31520237118821E-05,0.52734375,0,0
-2.38723769143689E-05,1.21585908345878E-05,0.52734375,0,0
-2.50361081270967E-05,1.17201407192624E-05,0.52734375,0,0
-2.62401990767103E-05,1.29973122966476E-05,0.52734375,0,0
-2.42466849158518E-05,1.40632082548109E-05,0.52734375,0,0
-2.39876917476067E-05,1.33417643155553E-05,0.52734375,0,0
-2.30778023251332E-05,1.33607227326138E-05,0.52734375,0,0
-2.39197561313631E-05,1.363392402709E-05,0.52734375,0,0
-2.34928447753191E-05,1.22835135698551E-05,0.52734375,0,0
-2.4046421458479E-05,1.01492705653072E-05,0.52734375,0,0
-2.43065314862179E-05,9.69086977420375E-06,0.52734375,0,0
-2.54876104008872E-05,1.09907559817657E-05,0.52734375,0,0
-2.72657362074824E-05,1.1867618013639E-05,0.52734375,0,0
-2.9484523111023E-05,1.10613036667928E-05,0.52734375,0,0
-2.32641723414417E-05,8.5611918620998E-06,0.52734375,0,0
-3.25841538142413E-05,1.41815689858049E-05,0.52734375,0,0
-2.48163923970424E-05,1.42876397148939E-05,0.52734375,0,0
-3.15017205139156E-05,1.84958207682939E-05,1.93359375,0,0
-2.61240147665376E-05,1.72407071659109E-05,1.93359375,0,0
-2.91354481305461E-05,1.77549645741237E-05,1.93359375,0,0
-2.718111500144E-05,1.73318621818908E-05,1.93359375,0,0
-2.96748676191783E-05,1.99287751456723E-05,1.93359375,0,0
-2.97321857942734E-05,2.13470757444156E-05,1.93359375,0,0
-3.01871077681426E-05,2.130860593752E-05,1.93359375,0,0
-2.92400236503454E-05,2.15125928662019E-05,1.93359375,0,0
-2.61214026977541E-05,2.09495847229846E-05,1.93359375,0,0
-2.56860203080578E-05,2.07077300728997E-05,1.93359375,0,0
-2.62990270130103E-05,2.11749338632217E-05,1.93359375,0,0
-3.06931869999971E-05,2.19695175474044E-05,1.93359375,0,0
-3.1524872611044E-05,2.04114603548078E-05,1.93359375,0,0
-3.34576179739088E-05,2.00530521397013E-05,1.93359375,0,0
-3.12389092869125E-05,1.93808191397693E-05,1.93359375,0,0
-2.99184357572813E-05,1.89766869880259E-05,1.93359375,0,0
-2.5288863980677E-05,1.87234109034762E-05,1.93359375,0,0
-2.3335707737715E-05,1.91698327398626E-05,1.93359375,0,0
-2.20874753722455E-05,1.86213674169267E-05,1.93359375,0,0
-2.39165165112354E-05,1.73627140611643E-05,1.93359375,0,0
-2.46749514190014E-05,1.17719710033271E-05,1.93359375,0,0
-2.59864555118838E-05,3.18887009598257E-06,1.93359375,0,0
-2.50955145020271E-05,-2.9673633434868E-06,1.93359375,0,0
-2.1917710910202E-05,-3.09351457872253E-06,1.93359375,0,0
-1.56779697135789E-05,-9.23915536077402E-07,1.93359375,0,0
-2.2234025891521E-05,9.84648636404017E-07,1.93359375,0,0
-1.72334257513285E-05,6.09906328463694E-06,1.93359375,0,0
-2.01351631403668E-05,9.40827703743707E-06,1.93359375,0,0
-1.57552076416323E-05,8.99993028724566E-06,1.93359375,0,0
-1.92936877283501E-05,5.51593848285847E-06,1.93359375,0,0
-1.89904567378107E-05,4.592647201207E-06,1.93359375,0,0
-2.01438288058853E-05,4.61398394691059E-06,1.93359375,0,0
-1.96748133021174E-05,3.67131247003272E-06,1.93359375,0,0
-1.99528494704282E-05,2.28301405513776E-06,1.93359375,0,0
-2.02352457563393E-05,3.44513250638556E-06,1.93359375,0,0
-2.05851756618358E-05,5.21750325788162E-06,1.93359375,0,0
-2.29491961363237E-05,6.29453734291019E-06,1.93359375,0,0
-2.27396794798551E-05,7.92511855252087E-06,1.93359375,0,0
-2.25666208280018E-05,9.60265333560528E-06,1.93359375,0,0
-2.1099172954564E-05,1.08343610918382E-05,1.93359375,0,0
-2.26375286729308E-05,1.09751226773369E-05,1.93359375,0,0
-2.32492348004598E-05,1.01506129794871E-05,1.93359375,0,0
-2.54826063610381E-05,9.15130021894583E-06,1.93359375,0,0
-2.57533683907241E-05,9.49669356486993E-06,1.93359375,0,0
-2.57164447248215E-05,9.06962850422133E-06,1.93359375,0,0
-2.37040712818271E-05,8.31586839922238E-06,1.93359375,0,0
-2.41270245169289E-05,7.60822831580299E-06,1.93359375,0,0
-2.40285753534408E-05,7.90021113061812E-06,1.93359375,0,0
-2.36224059335655E-05,9.35034859139705E-06,1.93359375,0,0
-2.21425580093637E-05,9.80229560809676E-06,1.93359375,0,0
-2.12323848245433E-05,1.02767307907925E-05,1.93359375,0,0
-1.70205821632408E-05,1.0724976164056E-05,1.93359375,0,0
-2.36614305322291E-05,1.65008550538914E-05,1.93359375,0,0
-1.6282387150568E-05,1.11900744741433E-05,1.93359375,0,0
-1.95435914065456E-05,1.21854718599934E-05,1.93359375,0,0
-1.78638983925339E-05,1.15489319796325E-05,1.93359375,0,0
-2.32215352298226E-05,1.27168050312321E-05,1.93359375,0,0
-2.26039974222658E-05,1.28557257994544E-05,1.93359375,0,0
-2.27881846512901E-05,1.6052499631769E-05,1.93359375,0,0
-2.06184085982386E-05,1.53618966578506E-05,1.93359375,0,0
-1.90045939234551E-05,1.40396859933389E-05,1.93359375,0,0
-1.66884037753334E-05,1.52783177327365E-05,1.93359375,0,0
-1.51216081576422E-05,1.76220564753748E-05,1.93359375,0,0
-1.60142499225913E-05,1.97230492631206E-05,1.93359375,0,0
-1.44445648402325E-05,1.86070319614373E-05,1.93359375,0,0
-1.4369205928233E-05,1.65152796398615E-05,1.93359375,0,0
-1.38700197567232E-05,1.45124604387092E-05,1.93359375,0,0
-1.62544256454566E-05,1.61399620992597E-05,1.93359375,0,0
-1.61562584253261E-05,1.75157729245257E-05,1.93359375,0,0
-1.71264564414741E-05,1.73106054717209E-05,1.93359375,0,0
-1.64788871188648E-05,1.49271136251627E-05,1.93359375,0,0
-1.6801874153316E-05,1.46588354255073E-05,1.93359375,0,0
-1.59007868205663E-05,1.54528988787206E-05,1.93359375,0,0
-1.80595361598535E-05,1.75065397343133E-05,1.93359375,0,0
-2.07369157578796E-05,1.6989084542729E-05,1.93359375,0,0
-2.3098806195776E-05,1.40948041007505E-05,1.93359375,0,0
-2.45570481638424E-05,1.180750587082E-05,1.93359375,0,0
-2.56246512435609E-05,1.18319558168878E-05,1.93359375,0,0
-2.09683221328305E-05,9.2564978331211E-06,1.93359375,0,0
-2.99309176625684E-05,1.38195646286476E-05,1.93359375,0,0
-2.36656160268467E-05,1.04731389001245E-05,1.93359375,0,0
-2.99152670777403E-05,1.04183545772685E-05,1.93359375,0,0
-2.44146522163646E-05,6.22620973445009E-06,1.93359375,0,0
-2.55714694503695E-05,8.2754550021491E-06,1.93359375,0,0
-2.32876063819276E-05,9.18356909096474E-06,1.93359375,0,0
-2.56760322372429E-05,1.00685210782103E-05,1.93359375,0,0
-2.57431747741066E-05,8.5065539678908E-06,1.93359375,0,0
-2.62955363723449E-05,6.48470859232475E-06,1.93359375,0,0
-2.74111225735396E-05,7.47504009268596E-06,1.93359375,0,0
-2.65600592683768E-05,9.50876437855186E-06,1.93359375,0,0
-2.61475724983029E-05,1.0375139027019E-05,1.93359375,0,0
-2.38058964896481E-05,9.03503132576589E-06,1.93359375,0,0
-2.40511781157693E-05,8.98708640306722E-06,1.93359375,0,0
-2.3018703359412E-05,8.76181366038509E-06,1.93359375,0,0
-2.50679204327753E-05,9.41150301514426E-06,1.93359375,0,0
-2.45986884692684E-05,9.57543034019182E-06,1.93359375,0,0
-2.54699061770225E-05,9.50712365010986E-06,1.93359375,0,0
-2.38671054830775E-05,6.07283345743781E-06,1.93359375,0,0
-2.4891305656638E-05,1.72539364484692E-06,1.93359375,0,0
-2.62882404058473E-05,-2.90926936941105E-06,1.93359375,0,0
-2.85282476397697E-05,-5.23247672390426E-06,1.93359375,0,0
-2.84116522379918E-05,-4.48091032012599E-06,1.93359375,0,0
-2.72109573415946E-05,3.99853604449163E-07,1.93359375,0,0
-2.46005674853222E-05,6.59317083773203E-06,1.93359375,0,0
-2.2448628442362E-05,1.06751986095333E-05,1.93359375,0,0
-1.68977367138723E-05,1.0212987945124E-05,1.93359375,0,0
-2.42446803895291E-05,1.45105750561925E-05,1.93359375,0,0
-1.96955588762648E-05,1.08125723272678E-05,1.93359375,0,0
-2.73555397143355E-05,1.25364103951142E-05,1.93359375,0,0
-2.81451248156372E-05,9.98821633402258E-06,1.93359375,0,0
-3.16194600600284E-05,1.13663872980396E-05,1.93359375,0,0
-2.8083244615118E-05,1.190488183056E-05,1.93359375,0,0
-2.86430513369851E-05,1.54355329868849E-05,1.93359375,0,0
-3.03118267765967E-05,1.45737812999869E-05,1.93359375,0,0
-3.36714438162744E-05,1.03613565443084E-05,1.93359375,0,0
-3.5599779948825E-05,3.99930377170676E-06,1.93359375,0,0
-3.36022676492576E-05,-1.70945895661134E-06,1.93359375,0,0
-3.14114404318389E-05,-3.80028791369114E-06,1.93359375,0,0
-2.90833741019014E-05,-5.06194601257448E-06,1.93359375,0,0
-3.06168185488787E-05,-2.71552153208177E-06,1.93359375,0,0
-3.01658019452589E-05,2.62313028542849E-06,1.93359375,0,0
-3.0302429877338E-05,1.04129449027823E-05,1.93359375,0,0
-2.90090247290209E-05,1.31620045067393E-05,1.93359375,0,0
-3.0623657949036E-05,1.3488924196281E-05,1.93359375,0,0
-2.99083676509326E-05,1.24280122690834E-05,1.93359375,0,0
-2.86786544165807E-05,1.22190858746762E-05,1.93359375,0,0
-2.70097334578168E-05,1.16116889330442E-05,1.93359375,0,0
-2.76008813671069E-05,1.13535206764936E-05,1.93359375,0,0
-2.78554307442391E-05,8.56364022183698E-06,1.93359375,0,0
-2.8053174901288E-05,6.92427875037538E-06,1.93359375,0,0
-2.70961008936865E-05,6.78783726471011E-06,1.93359375,0,0
-2.66290790023049E-05,5.74156456423225E-06,1.93359375,0,0
-2.16438766074134E-05,4.79569325761986E-06,1.93359375,0,0
-2.98514059977606E-05,9.24128107726574E-06,1.93359375,0,0
-2.07202047022292E-05,9.45072224567411E-06,1.93359375,0,0
-2.6189794880338E-05,1.24953121485305E-05,1.93359375,0,0
-2.19507783185691E-05,1.68507594935363E-05,1.93359375,0,0
-2.47847183345584E-05,1.91190993064083E-05,1.93359375,0,0
-2.27971358981449E-05,1.83244865183951E-05,1.93359375,0,0
-2.47297975874972E-05,1.8085749616148E-05,1.93359375,0,0
-2.43880185735179E-05,1.65623750945088E-05,1.93359375,0,0
-2.32799284276553E-05,1.49781408254057E-05,1.93359375,0,0
-2.30839978030417E-05,1.48994113260414E-05,1.93359375,0,0
-2.27763084694743E-05,1.55645229824586E-05,1.93359375,0,0
-2.33576156460913E-05,1.57034937728895E-05,1.93359375,0,0
-2.10744874493685E-05,1.42810677061789E-05,1.93359375,0,0
-2.11676160688512E-05,1.28670244521345E-05,1.93359375,0,0
-2.08060901059071E-05,1.29613108583726E-05,1.93359375,0,0
-2.41867001022911E-05,1.56026490003569E-05,1.93359375,0,0
-2.50286102527753E-05,1.79799153556814E-05,1.93359375,0,0
-2.68896801571827E-05,1.81543291546404E-05,1.93359375,0,0
-2.58765121543547E-05,1.6634947314742E-05,1.93359375,0,0
-2.6123299903702E-05,1.70355015143286E-05,1.93359375,0,0
-2.5235747671104E-05,1.74504220922245E-05,1.93359375,0,0
-2.55010036198655E-05,1.57531721924897E-05,1.93359375,0,0
-2.47045281867031E-05,1.33416706376011E-05,1.93359375,0,0
-2.33681294048438E-05,1.2727268767776E-05,1.93359375,0,0
-2.07363355002599E-05,1.43619627124281E-05,1.93359375,0,0
-1.87394216482062E-05,1.50903315443429E-05,1.93359375,0,0
-1.43197139550466E-05,1.01894338513375E-05,1.93359375,0,0
-1.87160749192117E-05,1.24317039080779E-05,1.93359375,0,0
-1.17024610517547E-05,6.46720354779973E-06,1.93359375,0,0
-1.53120981849497E-05,8.03651892056223E-06,1.93359375,0,0
-1.34176470965031E-05,4.70181794298696E-06,1.93359375,0,0
-1.63114218594274E-05,4.90722004542477E-06,3.8671875,0,0
-1.60176696226699E-05,3.09995994030032E-06,3.8671875,0,0
-1.76299872691743E-05,5.49703736396623E-06,3.8671875,0,0
-1.65450055646943E-05,6.16651868767804E-06,3.8671875,0,0
-1.58508573804284E-05,6.90037313688663E-06,3.8671875,0,0
-1.62112955877092E-05,8.31257057143375E-06,3.8671875,0,0
-1.74120705196401E-05,8.63909917825367E-06,3.8671875,0,0
-1.93260093510617E-05,7.43640839573345E-06,3.8671875,0,0
-1.86406723514665E-05,4.75399247079622E-06,3.8671875,0,0
-2.00067879632115E-05,4.16338070863276E-06,3.8671875,0,0
-2.02352930500638E-05,2.42006149164808E-06,3.8671875,0,0
-2.18089917325415E-05,3.06482047562895E-06,3.8671875,0,0
-2.14830797631294E-05,4.58362319477601E-06,3.8671875,0,0
-2.3345786758E-05,8.67562903295038E-06,3.8671875,0,0
-2.49979875661666E-05,1.09757165773772E-05,3.8671875,0,0
-2.7216476155445E-05,1.21771490739775E-05,3.8671875,0,0
-2.73782970907632E-05,1.24551170301856E-05,3.8671875,0,0
-2.82069140666863E-05,1.43220067911898E-05,3.8671875,0,0
-2.80416952591622E-05,1.43239767567138E-05,3.8671875,0,0
-2.68064777628751E-05,1.39365884024301E-05,3.8671875,0,0
-2.47233092522947E-05,1.45035519381054E-05,3.8671875,0,0
-2.39995988522423E-05,1.58476668730145E-05,3.8671875,0,0
-2.02910523512401E-05,1.26642553368583E-05,3.8671875,0,0
-2.90904863504693E-05,1.78635855263565E-05,3.8671875,0,0
-2.17320321098669E-05,1.41595055538346E-05,3.8671875,0,0
-2.64597765635699E-05,1.81087598321028E-05,3.8671875,0,0
-2.22674643737264E-05,1.38387540573603E-05,3.8671875,0,0
-2.62063658738043E-05,1.28461188069195E-05,3.8671875,0,0
-2.64813479589066E-05,1.0523203854973E-05,3.8671875,0,0
-2.77998897217913E-05,1.19404230645159E-05,3.8671875,0,0
-2.68086532742018E-05,1.14286349344184E-05,3.8671875,0,0
-2.74591948254965E-05,1.09860238808324E-05,3.8671875,0,0
-2.90434018097585E-05,1.22867531899828E-05,3.8671875,0,0
-2.90685038635274E-05,1.29031568576465E-05,3.8671875,0,0
-2.86886552203214E-05,1.38698869704967E-05,3.8671875,0,0
-2.66688603005605E-05,1.42661201607552E-05,3.8671875,0,0
-2.69138945441227E-05,1.38564428198151E-05,3.8671875,0,0
-2.46973086177604E-05,1.07059504443896E-05,3.8671875,0,0
-2.47660682362039E-05,1.08544400063693E-05,3.8671875,0,0
-2.33112132264068E-05,1.19419246402686E-05,3.8671875,0,0
-2.40004592342302E-05,1.40580405059154E-05,3.8671875,0,0
-2.36467967624776E-05,1.32884933918831E-05,3.8671875,0,0
-2.49003351200372E-05,1.25698988995282E-05,3.8671875,0,0
-2.40620302065508E-05,1.17210038297344E-05,3.8671875,0,0
-2.3116164811654E-05,1.18276138891815E-05,3.8671875,0,0
-2.08302099053981E-05,1.14928216135013E-05,3.8671875,0,0
-2.0545136067085E-05,1.37288743644604E-05,3.8671875,0,0
-2.15128475247184E-05,1.68811147887027E-05,3.8671875,0,0
-2.33570608543232E-05,2.08546007343102E-05,3.8671875,0,0
-1.94841904885834E-05,1.72762756847078E-05,3.8671875,0,0
-2.73943442152813E-05,2.31456197070656E-05,3.8671875,0,0
-2.04712559934706E-05,1.57292706717271E-05,3.8671875,0,0
-2.67757186520612E-05,1.84197651833529E-05,3.8671875,0,0
-2.56322528002784E-05,1.14380181912566E-05,3.8671875,0,0
-3.09163588099182E-05,1.20252225315198E-05,3.8671875,0,0
-2.98055565508548E-05,1.0461045349075E-05,3.8671875,0,0
-3.03132819681196E-05,1.36254438984906E-05,3.8671875,0,0
-2.93712200800655E-05,1.50542909977958E-05,3.8671875,0,0
-2.89411163976183E-05,1.78719838004326E-05,3.8671875,0,0
-2.85517271549907E-05,1.94075237232028E-05,3.8671875,0,0
-2.81064330920344E-05,1.67083107953658E-05,3.8671875,0,0
-2.86825470539043E-05,1.43886172736529E-05,3.8671875,0,0
-2.64931204583263E-05,1.16848050311091E-05,3.8671875,0,0
-2.57680076174438E-05,1.11112785816658E-05,3.8671875,0,0
-2.26603260671254E-05,8.06170282885432E-06,3.8671875,0,0
-2.15521122299833E-05,8.89193233888363E-06,3.8671875,0,0
-1.91623657883611E-05,1.01338546301122E-05,3.8671875,0,0
-1.98708530660952E-05,1.2555075045384E-05,3.8671875,0,0
-1.91979997907765E-05,1.13531914394116E-05,3.8671875,0,0
-2.02547507797135E-05,1.1447961696831E-05,3.8671875,0,0
-2.05543619813398E-05,1.12827401608229E-05,3.8671875,0,0
-2.19748981180601E-05,1.12902689579641E-05,3.8671875,0,0
-2.20313704630826E-05,9.04118314792868E-06,3.8671875,0,0
-2.21277805394493E-05,7.64299420552561E-06,3.8671875,0,0
-2.25716248678509E-05,5.07319327880396E-06,3.8671875,0,0
-2.32861675613094E-05,3.02121657114185E-06,3.8671875,0,0
-1.81146715476643E-05,3.7287097711669E-06,3.8671875,0,0
-2.41524867305998E-05,5.69648454984417E-06,3.8671875,0,0
-1.63200511451578E-05,4.29417787017883E-06,3.8671875,0,0
-2.09819445444737E-05,4.2620517888281E-06,3.8671875,0,0
-1.80051683855709E-05,3.17400667881884E-06,3.8671875,0,0
-2.06715558306314E-05,3.71413170796586E-06,3.8671875,0,0
-1.84438758878969E-05,4.3112436287629E-06,3.8671875,0,0
-2.10421749216039E-05,5.44322074347292E-06,3.8671875,0,0
-2.13863859244157E-05,7.51094103179639E-06,3.8671875,0,0
-2.16866410482908E-05,9.11611095943954E-06,3.8671875,0,0
-2.16109165194212E-05,9.12570794753265E-06,3.8671875,0,0
-2.10276757570682E-05,6.33216086498578E-06,3.8671875,0,0
-2.25698240683414E-05,4.65068478661124E-06,3.8671875,0,0
-2.2710290068062E-05,6.857420430606E-06,3.8671875,0,0
-2.43971571762813E-05,9.94022229861002E-06,3.8671875,0,0
-2.2902251657797E-05,8.51326058182167E-06,3.8671875,0,0
-2.3359507395071E-05,4.45836940343725E-06,3.8671875,0,0
-2.19705107156187E-05,2.15683280657686E-06,3.8671875,0,0
-2.26710581046063E-05,3.62389096153493E-06,3.8671875,0,0
-2.14261199289467E-05,5.14555449626641E-06,3.8671875,0,0
-2.15624950214988E-05,5.1784058996418E-06,3.8671875,0,0
-2.09939007618232E-05,4.8664046516933E-06,3.8671875,0,0
-2.16160879062954E-05,5.29475801158696E-06,3.8671875,0,0
-2.13932853512233E-05,7.86095370131079E-06,3.8671875,0,0
-2.14909705391619E-05,1.16550982056651E-05,3.8671875,0,0
-2.10926973522874E-05,1.35753462018329E-05,3.8671875,0,0
-2.15939799090847E-05,1.2120011888328E-05,3.8671875,0,0
-1.84018899744842E-05,7.47998956285301E-06,3.8671875,0,0
-2.71542812697589E-05,1.03898337329156E-05,3.8671875,0,0
-2.19661851588171E-05,9.36476862989366E-06,3.8671875,0,0
-2.81731572613353E-05,1.39610710903071E-05,3.8671875,0,0
-2.56256862485316E-05,1.30282842292218E-05,3.8671875,0,0
-2.67314662778517E-05,1.31268616314628E-05,3.8671875,0,0
-2.34681465371978E-05,1.02478561530006E-05,3.8671875,0,0
-2.33822902373504E-05,9.31655176827917E-06,3.8671875,0,0
-2.19310950342333E-05,9.6955664048437E-06,3.8671875,0,0
-2.2192592950887E-05,1.20236873044632E-05,3.8671875,0,0
-2.38852135225898E-05,1.35463387778145E-05,3.8671875,0,0
-2.35945335589349E-05,1.39411504278542E-05,3.8671875,0,0
-2.32147795031779E-05,1.4402953638637E-05,3.8671875,0,0
-2.17563792830333E-05,1.34291340145865E-05,3.8671875,0,0
-2.41982997977175E-05,1.34317169795395E-05,3.8671875,0,0
-2.64833979599644E-05,1.24951920952299E-05,3.8671875,0,0
-2.99628864013357E-05,1.15117563836975E-05,3.8671875,0,0
-2.99674411508022E-05,9.50230787566397E-06,3.8671875,0,0
-3.15175893774722E-05,1.04295986602665E-05,3.8671875,0,0
-3.13003147311974E-05,1.21049888548441E-05,3.8671875,0,0
-3.13411619572435E-05,1.39968951771152E-05,3.8671875,0,0
-3.02235730487155E-05,1.46863330883207E-05,3.8671875,0,0
-3.06734691548627E-05,1.59753253683448E-05,3.8671875,0,0
-3.13765413011424E-05,1.72956461028662E-05,3.8671875,0,0
-3.19812643283512E-05,1.84713608177844E-05,3.8671875,0,0
-3.17070807795972E-05,1.76915873453254E-05,3.8671875,0,0
-3.18479105771985E-05,1.53209639393026E-05,3.8671875,0,0
-2.66757124336436E-05,9.10724338609725E-06,3.8671875,0,0
-3.75418130715843E-05,1.24575744848698E-05,3.8671875,0,0
-2.75703951047035E-05,9.09764003154123E-06,3.8671875,0,0
-3.56199561792891E-05,1.13587293526507E-05,3.8671875,0,0
-3.11223484459333E-05,8.10261553851888E-06,3.8671875,0,0
-3.35812765115406E-05,8.07317246653838E-06,3.8671875,0,0
-2.88779192487709E-05,7.1187141656992E-06,3.8671875,0,0
-2.73420791927492E-05,9.04144599189749E-06,3.8671875,0,0
-2.35682673519477E-05,8.55904727359302E-06,3.8671875,0,0
-2.11437472898979E-05,9.25043696042849E-06,3.8671875,0,0
-1.99814221559791E-05,1.22640649351524E-05,3.8671875,0,0
-1.95614466065308E-05,1.34336132759927E-05,3.8671875,0,0
-2.21815953409532E-05,1.34092206280911E-05,3.8671875,0,0
-2.23808947339421E-05,1.33941457534092E-05,3.8671875,0,0
-2.52530098805437E-05,1.52303427967126E-05,3.8671875,0,0
-2.51804158324376E-05,1.44365649248357E-05,3.8671875,0,0
-2.6818323021871E-05,1.2827063073928E-05,3.8671875,0,0
-2.50710909313057E-05,1.12246088974643E-05,3.8671875,0,0
-2.62812573055271E-05,1.20798258649302E-05,3.8671875,0,0
-2.5024268325069E-05,1.17709823825862E-05,3.8671875,0,0
-2.49400982283987E-05,1.20436825454817E-05,3.8671875,0,0
-2.37361819017679E-05,1.1570241440495E-05,3.8671875,0,0
-2.49715012614615E-05,1.06782545117312E-05,3.8671875,0,0
-2.47438892984064E-05,9.6012254289235E-06,3.8671875,0,0
-2.36807682085782E-05,9.08705897018081E-06,3.8671875,0,0
-2.29425677389372E-05,6.52628204989014E-06,3.8671875,0,0
-2.52106328844093E-05,3.26014924212359E-06,3.8671875,0,0
-2.19476278289221E-05,-1.1992214865586E-07,3.8671875,0,0
-3.00748124573147E-05,-1.91763001566869E-06,3.8671875,0,0
-2.17421238630777E-05,-1.47700791330863E-06,3.8671875,0,0
-2.80606345768319E-05,1.25584790566791E-06,3.8671875,0,0
-2.4198478058679E-05,1.81915072516858E-06,3.8671875,0,0
-2.77431590802735E-05,1.52724294366635E-06,3.8671875,0,0
-2.64278842223575E-05,2.12346571970556E-06,3.8671875,0,0
-2.72224824584555E-05,3.76148568648205E-06,3.8671875,0,0
-2.33971786656184E-05,5.21327365277102E-06,3.8671875,0,0
-2.08091696549673E-05,9.62936064752284E-06,3.8671875,0,0
-2.10304115171311E-05,1.34237479869626E-05,3.8671875,0,0
-2.18051227420801E-05,1.28956053231377E-05,3.8671875,0,0
-2.42276837525424E-05,1.25358046716428E-05,3.8671875,0,0
-2.36036066780798E-05,1.45355297718197E-05,3.8671875,0,0
-2.39697419601725E-05,1.59771225298755E-05,3.8671875,0,0
-2.11329243029468E-05,1.68790811585495E-05,3.8671875,0,0
-2.09408972295932E-05,1.96314340428216E-05,3.8671875,0,0
-1.86994002433494E-05,2.16513381019467E-05,3.8671875,0,0
-1.89999409485608E-05,2.0081637558178E-05,3.8671875,0,0
-1.8471358998795E-05,1.46313450386515E-05,3.8671875,0,0
-1.99736568902154E-05,1.09878519651829E-05,3.8671875,0,0
-1.91292874660576E-05,1.17648269224446E-05,3.8671875,0,0
-1.93570194824133E-05,1.21842640510295E-05,3.8671875,0,0
-1.90591454156674E-05,1.0344117981731E-05,3.8671875,0,0
-2.09572208405007E-05,1.18443804240087E-05,3.8671875,0,0
-2.28224198508542E-05,1.5790545148775E-05,3.8671875,0,0
-2.38268112298101E-05,1.74140386661747E-05,3.8671875,0,0
-2.04397292691283E-05,1.15296079457039E-05,3.8671875,0,0
-2.86139747913694E-05,1.38637842610478E-05,3.8671875,0,0
-1.97984973056009E-05,9.05301294551464E-06,3.8671875,0,0
-2.3456270355382E-05,1.50416290125577E-05,3.8671875,0,0
-1.97407407540595E-05,1.33133826238918E-05,3.8671875,0,0
-2.38156644627452E-05,1.49911538755987E-05,3.8671875,0,0
-2.2063402866479E-05,1.43850656968425E-05,3.8671875,0,0
-2.32200291065965E-05,1.67024572874652E-05,3.8671875,0,0
-2.41760189965134E-05,1.64273260452319E-05,3.8671875,0,0
-2.5876950530801E-05,1.70879848155892E-05,3.8671875,0,0
-2.61803324974608E-05,1.80391034518834E-05,3.8671875,0,0
-2.46059626078932E-05,1.82301155291498E-05,3.8671875,0,0
-2.58408763329498E-05,1.97709960048087E-05,3.8671875,0,0
-2.60082215390867E-05,1.9913984942832E-05,3.8671875,0,0
-2.75648144452134E-05,1.87797286343994E-05,3.8671875,0,0
-2.66060633293819E-05,1.41339851325029E-05,3.8671875,0,0
-2.77534909400856E-05,1.1761080713768E-05,3.8671875,0,0
-2.61136465269374E-05,1.00991037470521E-05,3.8671875,0,0
-2.59272947005229E-05,1.10303781184484E-05,3.8671875,0,0
-2.50086322921561E-05,1.01476252893917E-05,3.8671875,0,0
-2.66185998043511E-05,8.34735328680836E-06,3.8671875,0,0
-2.72823963314295E-05,4.76570994578651E-06,3.8671875,0,0
-3.04327859339537E-05,3.44087811754434E-06,3.8671875,0,0
-3.31257542711683E-05,3.09503502649022E-06,3.8671875,0,0
-3.34833202941809E-05,5.00700343764038E-06,3.8671875,0,0
-3.06523907056544E-05,5.09797837366932E-06,3.8671875,0,0
-2.69959618890425E-05,4.95313679493847E-06,3.8671875,0,0
-2.08412202482577E-05,4.10213942814153E-06,3.8671875,0,0
-3.02544904116075E-05,4.86777935293503E-06,3.8671875,0,0
-2.39105611399282E-05,3.48455273524451E-06,3.8671875,0,0
-3.03645083477022E-05,6.10265851719305E-06,3.8671875,0,0
-2.83801618934376E-05,6.84105270920554E-06,3.8671875,0,0
-3.17489648296032E-05,7.33686601961381E-06,3.8671875,0,0
-2.81980246654712E-05,7.23831544746645E-06,3.8671875,0,0
-2.83626286545768E-05,1.00084589575999E-05,3.8671875,0,0
-2.64559912466211E-05,9.81529410637449E-06,3.8671875,0,0
-2.51719902735204E-05,9.53236849454697E-06,3.8671875,0,0
-2.49132153840037E-05,1.16507080747397E-05,3.8671875,0,0
-2.44571474468103E-05,1.45038738992298E-05,3.8671875,0,0
-2.55650738836266E-05,1.53906585182995E-05,3.8671875,0,0
-2.43555223278236E-05,1.39332196340547E-05,3.8671875,0,0
-2.48834530793829E-05,1.42221188070835E-05,3.8671875,0,0
-2.38637894653948E-05,1.52443608385511E-05,3.8671875,0,0
-2.57910487562185E-05,1.63981439982308E-05,3.8671875,0,0
-2.45152095885715E-05,1.46370393849793E-05,3.8671875,0,0
-2.37032181757968E-05,1.20190052257385E-05,3.8671875,0,0
-2.07816883630585E-05,9.25544281926705E-06,3.8671875,0,0
-2.10378584597493E-05,8.33464855531929E-06,3.8671875,0,0
-2.20929923671065E-05,8.31715260574128E-06,3.8671875,0,0
-2.45035844272934E-05,9.34057879931061E-06,3.8671875,0,0
-2.44021121034166E-05,1.01953592093196E-05,3.8671875,0,0
-2.34182170970598E-05,1.0740511243057E-05,3.8671875,0,0
-2.16581829590723E-05,1.21036482596537E-05,3.8671875,0,0
-2.02609880943783E-05,1.38501600304153E-05,3.8671875,0,0
-1.49976503962534E-05,1.08800413727295E-05,3.8671875,0,0
-1.95558077393798E-05,1.73365478985943E-05,3.8671875,0,0
-1.17385116027435E-05,1.50877895066515E-05,3.8671875,0,0
-1.38728246383835E-05,1.55578618432628E-05,3.8671875,0,0
-1.0002155249822E-05,1.0551001651038E-05,3.8671875,0,0
-1.28577175928513E-05,8.94895038072718E-06,3.8671875,0,0
-1.26832874229876E-05,6.64385015625157E-06,3.8671875,0,0
-1.36416820168961E-05,9.88727424555691E-06,3.8671875,0,0
-1.17584431791329E-05,9.69638131209649E-06,3.8671875,0,0
-1.15344691948849E-05,8.32113528304035E-06,3.8671875,0,0
-1.25819187815068E-05,8.27335497888271E-06,3.8671875,0,0
-1.26941604321473E-05,9.3532989922096E-06,3.8671875,0,0
-1.39423691507545E-05,1.13697533379309E-05,3.8671875,0,0
-1.36564476633794E-05,1.09583770608879E-05,3.8671875,0,0
-1.48939298014739E-05,1.03743068393669E-05,5.625,0,0
-1.43913284773589E-05,9.90957687463379E-06,5.625,0,0
-1.51309568536817E-05,1.25511605801876E-05,5.625,0,0
-1.41680693559465E-05,1.20922923088074E-05,5.625,0,0
-1.60573872562964E-05,1.02989197330317E-05,5.625,0,0
-1.76041176018771E-05,9.1170140876784E-06,5.625,0,0
-1.97238587134052E-05,1.08177191577852E-05,5.625,0,0
-2.00434460566612E-05,9.83923746389337E-06,5.625,0,0
-2.04630323423771E-05,8.07568267191527E-06,5.625,0,0
-1.99724581761984E-05,7.49252376408549E-06,5.625,0,0
-2.08609144465299E-05,8.29325836093631E-06,5.625,0,0
-2.18827226490248E-05,8.80921106727328E-06,5.625,0,0
-2.18893655983265E-05,8.94359436642844E-06,5.625,0,0
-1.86636261787498E-05,6.68556913296925E-06,5.625,0,0
-2.71559820248513E-05,8.54699646879453E-06,5.625,0,0
-1.97825866052881E-05,4.51360347142327E-06,5.625,0,0
-2.33245445997454E-05,7.6801779869129E-06,5.625,0,0
-2.24565410462674E-05,9.96604921965627E-06,5.625,0,0
-2.89355812128633E-05,1.20427002912038E-05,5.625,0,0
-2.91275064228103E-05,1.1372863809811E-05,5.625,0,0
-2.97043570753885E-05,1.10164364741649E-05,5.625,0,0
-2.79833711829269E-05,7.6843380156788E-06,5.625,0,0
-2.77410254057031E-05,4.77643197882571E-06,5.625,0,0
-2.72847937594634E-05,5.45596321899211E-06,5.625,0,0
-2.55251979979221E-05,6.91626519255806E-06,5.625,0,0
-2.52088011620799E-05,8.48222862259718E-06,5.625,0,0
-2.35891620832263E-05,9.3239523266675E-06,5.625,0,0
-2.37056719925022E-05,9.70221208262956E-06,5.625,0,0
-2.17155920836376E-05,8.66551818035077E-06,5.625,0,0
-2.28123390115798E-05,9.51253332459601E-06,5.625,0,0
-2.41199741140008E-05,9.96874950942583E-06,5.625,0,0
-2.74957164947409E-05,9.28037388803205E-06,5.625,0,0
-2.71411117864773E-05,7.9614528658567E-06,5.625,0,0
-2.67573959717993E-05,9.14889187697554E-06,5.625,0,0
-2.53434645856032E-05,1.04337868833682E-05,5.625,0,0
-2.64324935415061E-05,1.09491957118735E-05,5.625,0,0
-2.72469187621027E-05,1.02703252196079E-05,5.625,0,0
-2.57068531936966E-05,9.87909970717737E-06,5.625,0,0
-2.30125879170373E-05,1.28354540720466E-05,5.625,0,0
-2.21953614527592E-05,1.70117964444216E-05,5.625,0,0
-1.68911865330301E-05,1.37275119413971E-05,5.625,0,0
-2.30670993914828E-05,1.58853890752653E-05,5.625,0,0
-1.78459304152057E-05,7.75937405705918E-06,5.625,0,0
-2.40008248511003E-05,1.35482259793207E-05,5.625,0,0
-2.05309443117585E-05,1.05252693174407E-05,5.625,0,0
-2.33710543398047E-05,7.64616470405599E-06,5.625,0,0
-2.34512153838295E-05,3.51205153492629E-06,5.625,0,0
-2.67488740064437E-05,5.14736120749149E-06,5.625,0,0
-2.70043601631187E-05,3.95502502215095E-06,5.625,0,0
-2.72072793450207E-05,2.66679080596077E-06,5.625,0,0
-2.77682975138305E-05,2.27578212275148E-07,5.625,0,0
-2.68680923909415E-05,-2.30848013416107E-06,5.625,0,0
-2.66405040747486E-05,-9.34095680804603E-07,5.625,0,0
-2.47953612415586E-05,1.5949233329593E-06,5.625,0,0
-2.50391058216337E-05,5.84075814913376E-06,5.625,0,0
-2.33630016737152E-05,7.76167962612817E-06,5.625,0,0
-2.35740735661238E-05,1.17134568426991E-05,5.625,0,0
-2.34300314332359E-05,1.19092401291709E-05,5.625,0,0
-2.6467931093066E-05,1.09327038444462E-05,5.625,0,0
-2.70515156444162E-05,1.01355435617734E-05,5.625,0,0
-2.7482919904287E-05,1.3236054655863E-05,5.625,0,0
-2.66566621576203E-05,1.49149682329153E-05,5.625,0,0
-2.73272926278878E-05,1.61970619956264E-05,5.625,0,0
-2.68749899987597E-05,1.6567199054407E-05,5.625,0,0
-2.66311253653839E-05,1.87784135050606E-05,5.625,0,0
-2.6515972422203E-05,1.92979732673848E-05,5.625,0,0
-2.72287652478553E-05,1.68915994436247E-05,5.625,0,0
-2.19152952922741E-05,1.39085723276366E-05,5.625,0,0
-2.94504116027383E-05,2.08986311918125E-05,5.625,0,0
-2.03751133085461E-05,1.50145906445687E-05,5.625,0,0
-2.67779341811547E-05,1.71656010934385E-05,5.625,0,0
-2.35034294746583E-05,1.57833455887157E-05,5.625,0,0
-2.77718590950826E-05,1.74241358763538E-05,5.625,0,0
-2.63457859546179E-05,1.50768755702302E-05,5.625,0,0
-2.81954944512108E-05,1.40685979204136E-05,5.625,0,0
-2.66880142589798E-05,1.23872741824016E-05,5.625,0,0
-2.62679695879342E-05,1.13629994302755E-05,5.625,0,0
-2.68800504272804E-05,1.16647715913132E-05,5.625,0,0
-2.6622043151292E-05,1.30058524518972E-05,5.625,0,0
-2.71608969342196E-05,1.60361141752219E-05,5.625,0,0
-2.48859760176856E-05,1.68744445545599E-05,5.625,0,0
-2.48896812991006E-05,1.74824745045044E-05,5.625,0,0
-2.38679022004362E-05,1.70029070432065E-05,5.625,0,0
-2.66752413153881E-05,1.86135857802583E-05,5.625,0,0
-2.67371142399497E-05,1.8625425582286E-05,5.625,0,0
-2.91433534584939E-05,1.79134076461196E-05,5.625,0,0
-3.00263509416254E-05,1.47546961670741E-05,5.625,0,0
-3.19461323670112E-05,1.32544710140792E-05,5.625,0,0
-3.14410899591167E-05,1.21859939099522E-05,5.625,0,0
-3.1203333492158E-05,1.25526175906998E-05,5.625,0,0
-2.99581224680878E-05,1.3576937817561E-05,5.625,0,0
-3.11740368488245E-05,1.29590480355546E-05,5.625,0,0
-3.08531198243145E-05,1.00467113952618E-05,5.625,0,0
-2.87712227873271E-05,8.56748920341488E-06,5.625,0,0
-2.08441142603988E-05,7.6454489317257E-06,5.625,0,0
-2.90701718768105E-05,1.17357303679455E-05,5.625,0,0
-2.24447903747205E-05,8.60460295371013E-06,5.625,0,0
-2.89100007648813E-05,8.8278429757338E-06,5.625,0,0
-2.47862244577846E-05,8.49124535307055E-06,5.625,0,0
-2.69021747953957E-05,9.90718126558932E-06,5.625,0,0
-2.29322868108284E-05,8.39173571876017E-06,5.625,0,0
-2.39078090089606E-05,9.17574925551889E-06,5.625,0,0
-2.41139186982764E-05,8.89000421011588E-06,5.625,0,0
-2.71864591923077E-05,8.4000103015569E-06,5.625,0,0
-3.16611585731152E-05,7.88846500654472E-06,5.625,0,0
-3.25884684571065E-05,6.00919793214416E-06,5.625,0,0
-3.16319237754215E-05,4.26506176154362E-06,5.625,0,0
-2.77258859568974E-05,3.64556717613596E-06,5.625,0,0
-2.74373414868023E-05,4.54380551673239E-06,5.625,0,0
-2.57426509051584E-05,3.70541647498612E-06,5.625,0,0
-2.61070254055085E-05,4.18122772316565E-06,5.625,0,0
-2.43356407736428E-05,4.24369318352547E-06,5.625,0,0
-2.62932517216541E-05,4.2656656660256E-06,5.625,0,0
-2.63382535194978E-05,2.80534527519194E-06,5.625,0,0
-2.60166525549721E-05,3.11990766022063E-06,5.625,0,0
-2.34053513850085E-05,6.40812777419342E-06,5.625,0,0
-2.24013456318062E-05,9.71521603787551E-06,5.625,0,0
-2.08448982448317E-05,9.02130159374792E-06,5.625,0,0
-2.02655974135268E-05,8.52003358886577E-06,5.625,0,0
-2.01364782697055E-05,9.06403238332132E-06,5.625,0,0
-1.89132915693335E-05,6.9699444793514E-06,5.625,0,0
-1.37830320454668E-05,2.59735361396451E-06,5.625,0,0
-1.87238274520496E-05,4.85298778585275E-06,5.625,0,0
-1.45419780892553E-05,6.04298747930443E-06,5.625,0,0
-1.95947050087852E-05,7.7054210123606E-06,5.625,0,0
-1.66896570590325E-05,7.35258026907104E-06,5.625,0,0
-1.84928230737569E-05,7.02920669937157E-06,5.625,0,0
-1.58171678776853E-05,5.93735421716701E-06,5.625,0,0
-1.45297317430959E-05,6.35391825198894E-06,5.625,0,0
-1.3791723176837E-05,7.12848031980684E-06,5.625,0,0
-1.50605355884181E-05,8.39674976305105E-06,5.625,0,0
-1.66988429555204E-05,9.29595171328401E-06,5.625,0,0
-1.69879003806273E-05,9.42166934692068E-06,5.625,0,0
-1.85854860319523E-05,1.03175725598703E-05,5.625,0,0
-1.91496637853561E-05,1.27808325487422E-05,5.625,0,0
-2.12161576200742E-05,1.58844304678496E-05,5.625,0,0
-2.19101602851879E-05,1.63010190590285E-05,5.625,0,0
-2.38751435972517E-05,1.44274263220723E-05,5.625,0,0
-2.28514436457772E-05,1.14003032649634E-05,5.625,0,0
-2.2007090592524E-05,1.08394197013695E-05,5.625,0,0
-2.03766321646981E-05,1.31812475956394E-05,5.625,0,0
-2.05763244593982E-05,1.65820601978339E-05,5.625,0,0
-1.97402077901643E-05,1.85581520781852E-05,5.625,0,0
-1.94567346625263E-05,1.8639304471435E-05,5.625,0,0
-1.92368188436376E-05,1.81298710231204E-05,5.625,0,0
-1.95935081137577E-05,1.67710331879789E-05,5.625,0,0
-1.90826449397719E-05,1.31070401039324E-05,5.625,0,0
-1.88427366083488E-05,8.75028854352422E-06,5.625,0,0
-1.60681229317561E-05,5.84887266086298E-06,5.625,0,0
-2.11206224776106E-05,8.58920611790381E-06,5.625,0,0
-1.25242386275204E-05,6.46609805698972E-06,5.625,0,0
-1.61243824550183E-05,8.54948757478269E-06,5.625,0,0
-1.539873846923E-05,9.40156041906448E-06,5.625,0,0
-2.03708295885008E-05,1.27452085507684E-05,5.625,0,0
-1.9164714103681E-05,1.47942455441807E-05,5.625,0,0
-1.95280590560287E-05,1.6977486666292E-05,5.625,0,0
-1.88504618563456E-05,1.70780858752551E-05,5.625,0,0
-1.88999601959949E-05,1.62412616191432E-05,5.625,0,0
-1.92613024410093E-05,1.56008663907414E-05,5.625,0,0
-1.9393610273255E-05,1.40826614369871E-05,5.625,0,0
-2.16918579099001E-05,1.30784856082755E-05,5.625,0,0
-2.2978347260505E-05,1.20290742415818E-05,5.625,0,0
-2.51666424446739E-05,1.12063617052627E-05,5.625,0,0
-2.44694238062948E-05,1.01236200862331E-05,5.625,0,0
-2.57553565461421E-05,1.02402618722408E-05,5.625,0,0
-2.59359730989672E-05,1.02183075796347E-05,5.625,0,0
-2.76905575447017E-05,1.10636110548512E-05,5.625,0,0
-2.7331701858202E-05,1.02538060673396E-05,5.625,0,0
-2.72666784439934E-05,9.69477605394786E-06,5.625,0,0
-2.61370132648153E-05,1.17657591545139E-05,5.625,0,0
-2.55949544225587E-05,1.4307712262962E-05,5.625,0,0
-2.31835892918753E-05,1.36169373945449E-05,5.625,0,0
-2.1455591195263E-05,1.05929857454612E-05,5.625,0,0
-2.10786620300496E-05,8.33979083836311E-06,5.625,0,0
-2.31000394705916E-05,9.45888223213842E-06,5.625,0,0
-2.1374942662078E-05,9.25183849176392E-06,5.625,0,0
-3.1169878639048E-05,1.3164414667699E-05,5.625,0,0
-2.40499612118583E-05,9.39196252147667E-06,5.625,0,0
-3.03131873806706E-05,1.15443936010706E-05,5.625,0,0
-2.88869086944032E-05,1.07854839370702E-05,5.625,0,0
-3.42363782692701E-05,1.34482770590694E-05,5.625,0,0
-3.33548414346296E-05,1.27331368275918E-05,5.625,0,0
-3.48726171068847E-05,1.23566978800227E-05,5.625,0,0
-3.33751013386063E-05,1.12661591629148E-05,5.625,0,0
-3.28482710756361E-05,1.14913009383599E-05,5.625,0,0
-3.45820662914775E-05,1.29269419630873E-05,5.625,0,0
-3.52077840943821E-05,1.29542013382888E-05,5.625,0,0
-3.59169171133544E-05,1.24710668387706E-05,5.625,0,0
-3.48382018273696E-05,1.15584043669514E-05,5.625,0,0
-3.69531735486817E-05,1.24769885587739E-05,5.625,0,0
-3.66007225238718E-05,1.41310765684466E-05,5.625,0,0
-3.6789191653952E-05,1.68802525877254E-05,5.625,0,0
-3.45198932336643E-05,1.62831747729797E-05,5.625,0,0
-3.52754104824271E-05,1.4404423382075E-05,5.625,0,0
-3.44268846674822E-05,1.23586105473805E-05,5.625,0,0
-3.44362742907833E-05,1.23393892863533E-05,5.625,0,0
-3.29954382323194E-05,1.16701266961172E-05,5.625,0,0
-3.14363096549641E-05,1.1370930224075E-05,5.625,0,0
-2.8238546292414E-05,1.17690715342178E-05,5.625,0,0
-2.75554975814885E-05,1.27132170746336E-05,5.625,0,0
-2.81854154309258E-05,1.30440939756227E-05,5.625,0,0
-2.86122885881923E-05,1.41511309266207E-05,5.625,0,0
-2.19280118471943E-05,1.28012497953023E-05,5.625,0,0
-3.00965366477612E-05,2.04227853828343E-05,5.625,0,0
-2.17190354305785E-05,1.81240138772409E-05,5.625,0,0
-2.66265615209704E-05,2.0337993191788E-05,5.625,0,0
-2.11215501622064E-05,1.60877734742826E-05,5.625,0,0
-2.40779954765458E-05,1.60163363034371E-05,5.625,0,0
-2.1839307009941E-05,1.38963168865303E-05,5.625,0,0
-2.358768688282E-05,1.60784329636954E-05,5.625,0,0
-2.19824269152014E-05,1.61507068696665E-05,5.625,0,0
-2.00929516722681E-05,1.35865202537389E-05,5.625,0,0
-1.75349869095953E-05,1.06725128716789E-05,5.625,0,0
-1.46757402035291E-05,8.11332665762166E-06,5.625,0,0
-1.51258118421538E-05,9.26428674574709E-06,5.625,0,0
-1.40941519930493E-05,9.98114956018981E-06,5.625,0,0
-1.47166483657202E-05,9.61957357503707E-06,5.625,0,0
-1.23466179502429E-05,6.44943611405324E-06,5.625,0,0
-1.28788396978052E-05,5.53739391762065E-06,5.625,0,0
-1.08515805550269E-05,5.00068881592597E-06,5.625,0,0
-1.04876980913104E-05,5.87795739193098E-06,5.625,0,0
-8.58407565829111E-06,5.47459148947382E-06,5.625,0,0
-1.01131172414171E-05,5.21026413480286E-06,5.625,0,0
-1.10434557427652E-05,3.82111829821952E-06,5.625,0,0
-1.28613301058067E-05,3.21146899295854E-06,5.625,0,0
-1.28779511214816E-05,1.70909663665952E-06,5.625,0,0
-1.30060188894277E-05,2.22428229790239E-06,5.625,0,0
-1.22228784675826E-05,6.23645291852881E-06,5.625,0,0
-1.13316236820538E-05,9.45418469200376E-06,5.625,0,0
-9.71958615991753E-06,6.95368407832575E-06,5.625,0,0
-1.46061693158117E-05,1.03879392554518E-05,5.625,0,0
-1.26204859043355E-05,9.04939679458039E-06,5.625,0,0
-1.68637725437293E-05,1.38854684337275E-05,5.625,0,0
-1.8719632862485E-05,1.38882642204408E-05,5.625,0,0
-2.31143276323564E-05,1.09958564280532E-05,5.625,0,0
-2.3497703296016E-05,7.58536953071598E-06,5.625,0,0
-2.43707763729617E-05,9.49671357375337E-06,5.625,0,0
-2.53766993409954E-05,1.05827793959179E-05,5.625,0,0
-2.79320538538741E-05,1.05368817457929E-05,5.625,0,0
-3.06008187180851E-05,1.20366539704264E-05,5.625,0,0
-2.99881394312251E-05,1.2212221918162E-05,5.625,0,0
-2.76187201961875E-05,1.2057298590662E-05,5.625,0,0
-2.46076888288371E-05,1.16992332550581E-05,5.625,0,0
-2.35320039791986E-05,1.13729665827123E-05,5.625,0,0
-2.23046008613892E-05,1.02949679785524E-05,5.625,0,0
-2.29527049668832E-05,1.07368623503135E-05,5.625,0,0
-2.3268938093679E-05,1.05401149994577E-05,5.625,0,0
-2.40409608522896E-05,1.02995081761037E-05,5.625,0,0
-2.41716588789131E-05,1.08923723018961E-05,7.03125,0,0
-2.53959187830333E-05,1.10337487058132E-05,7.03125,0,0
-2.53005455306266E-05,8.69669293024344E-06,7.03125,0,0
-2.46916260948638E-05,8.30644603411201E-06,7.03125,0,0
-2.47569641942391E-05,1.08537496998906E-05,7.03125,0,0
-2.51567707891809E-05,1.43264715006808E-05,7.03125,0,0
-2.3122331185732E-05,1.58931816258701E-05,7.03125,0,0
-2.16725638892967E-05,1.53788387251552E-05,7.03125,0,0
-1.86482175195124E-05,1.40200108944555E-05,7.03125,0,0
-2.75665406661574E-05,2.09846966754412E-05,7.03125,0,0
-2.173095526814E-05,1.57075555762276E-05,7.03125,0,0
-2.70794516836759E-05,1.88383146451088E-05,7.03125,0,0
-2.65198741544737E-05,1.68126043718075E-05,7.03125,0,0
-3.22689666063525E-05,1.88992598850746E-05,7.03125,0,0
-3.12312477035448E-05,1.6931830032263E-05,7.03125,0,0
-3.16400692099705E-05,1.33151179397828E-05,7.03125,0,0
-2.93668017548043E-05,8.31572833703831E-06,7.03125,0,0
-2.91073265543673E-05,6.13291103945812E-06,7.03125,0,0
-3.21973275276832E-05,5.53674863112974E-06,7.03125,0,0
-3.38929821737111E-05,4.7592425289622E-06,7.03125,0,0
-3.3952368539758E-05,6.73070690027089E-06,7.03125,0,0
-3.09548049699515E-05,8.12446432973957E-06,7.03125,0,0
-3.12464399030432E-05,9.42229962674901E-06,7.03125,0,0
-3.08495946228504E-05,8.70793428475736E-06,7.03125,0,0
-3.22857194987591E-05,9.40365043788916E-06,7.03125,0,0
-3.09090683003888E-05,7.83953782956814E-06,7.03125,0,0
-3.01495383610018E-05,5.96214704273734E-06,7.03125,0,0
-2.72155830316478E-05,3.38098425345379E-06,7.03125,0,0
-2.63839356193785E-05,2.48059382101928E-06,7.03125,0,0
-2.59318767348304E-05,1.11198153263103E-06,7.03125,0,0
-2.60681517829653E-05,1.392491981278E-06,7.03125,0,0
-2.30983168876264E-05,2.40956546804227E-06,7.03125,0,0
-2.05600572371623E-05,4.20863034378272E-06,7.03125,0,0
-1.9966695617768E-05,5.71021064388333E-06,7.03125,0,0
-1.97951794689288E-05,5.23781500305631E-06,7.03125,0,0
-1.56661535584135E-05,3.70594921150769E-06,7.03125,0,0
-2.25089133891743E-05,8.22168294689618E-06,7.03125,0,0
-1.88689482456539E-05,9.9159433375462E-06,7.03125,0,0
-2.39113142015412E-05,1.12508023448754E-05,7.03125,0,0
-1.91182880371343E-05,1.03482743725181E-05,7.03125,0,0
-2.01554466912057E-05,9.22736671782332E-06,7.03125,0,0
-1.96191813301994E-05,9.60130819294136E-06,7.03125,0,0
-2.42081951000728E-05,1.12898997031152E-05,7.03125,0,0
-2.66189690592E-05,1.24432272059494E-05,7.03125,0,0
-2.78047409665305E-05,1.32054856294417E-05,7.03125,0,0
-2.90652169496752E-05,1.2783815691364E-05,7.03125,0,0
-2.83870340354042E-05,1.07747273432324E-05,7.03125,0,0
-2.76692007901147E-05,1.04685286714812E-05,7.03125,0,0
-2.52677673415747E-05,1.17662330012536E-05,7.03125,0,0
-2.51950314122951E-05,1.24848438645131E-05,7.03125,0,0
-2.40336703427602E-05,1.18101615953492E-05,7.03125,0,0
-2.46792060352163E-05,1.11381050373893E-05,7.03125,0,0
-2.29368706641253E-05,1.16853989311494E-05,7.03125,0,0
-2.2629727027379E-05,1.27108323795255E-05,7.03125,0,0
-2.08016699616564E-05,1.10549162855023E-05,7.03125,0,0
-2.01470247702673E-05,8.09082575869979E-06,7.03125,0,0
-1.95085558516439E-05,6.06099274591543E-06,7.03125,0,0
-2.08216169994557E-05,6.23038431513123E-06,7.03125,0,0
-2.15926629607566E-05,9.13771054911194E-06,7.03125,0,0
-2.10527796298265E-05,1.07254791146261E-05,7.03125,0,0
-1.97317949641729E-05,8.99273800314404E-06,7.03125,0,0
-1.98270954570035E-05,7.77019067754736E-06,7.03125,0,0
-1.8116676073987E-05,7.88164470577613E-06,7.03125,0,0
-2.65154012595303E-05,1.29474410641706E-05,7.03125,0,0
-2.00146514544031E-05,1.06430634332355E-05,7.03125,0,0
-2.29552679229528E-05,1.28917899928638E-05,7.03125,0,0
-1.78104201040696E-05,1.33024914248381E-05,7.03125,0,0
-1.89414004125865E-05,1.45842705023824E-05,7.03125,0,0
-1.74709057318978E-05,1.55219167936593E-05,7.03125,0,0
-1.97168701561168E-05,1.75306631717831E-05,7.03125,0,0
-2.07651864911895E-05,1.60607924044598E-05,7.03125,0,0
-2.24729665205814E-05,1.44698378790054E-05,7.03125,0,0
-2.39886267081602E-05,1.46205438795732E-05,7.03125,0,0
-2.40326426137472E-05,1.51563308463665E-05,7.03125,0,0
-2.53354864980793E-05,1.65137007570593E-05,7.03125,0,0
-2.55211052717641E-05,1.68439364642836E-05,7.03125,0,0
-2.6552681447356E-05,1.62703454407165E-05,7.03125,0,0
-2.47414718614891E-05,1.40937499963911E-05,7.03125,0,0
-2.45538158196723E-05,1.22852925414918E-05,7.03125,0,0
-2.32817874348257E-05,1.10734381451039E-05,7.03125,0,0
-2.49221666308586E-05,1.0992725037795E-05,7.03125,0,0
-2.53849684668239E-05,9.26366556086577E-06,7.03125,0,0
-2.60331853496609E-05,8.11180689197499E-06,7.03125,0,0
-2.38150623772526E-05,8.28044085210422E-06,7.03125,0,0
-2.34028902923455E-05,1.05872031781473E-05,7.03125,0,0
-2.38637712755008E-05,1.30997459564242E-05,7.03125,0,0
-2.45956634898903E-05,1.44405794344493E-05,7.03125,0,0
-2.61744280578569E-05,1.49900142787374E-05,7.03125,0,0
-2.86938393401215E-05,1.42955250339583E-05,7.03125,0,0
-2.4228736947407E-05,1.07607893369277E-05,7.03125,0,0
-3.32657327817287E-05,1.62024134624517E-05,7.03125,0,0
-2.36476626014337E-05,1.27408357002423E-05,7.03125,0,0
-3.0009310648893E-05,1.26169725263026E-05,7.03125,0,0
-2.4511295123375E-05,6.01358078711201E-06,7.03125,0,0
-2.77527196885785E-05,4.75039041702985E-06,7.03125,0,0
-2.67274044745136E-05,4.89895546706975E-06,7.03125,0,0
-2.98116210615262E-05,8.93826472747605E-06,7.03125,0,0
-2.80861804640153E-05,1.07690966615337E-05,7.03125,0,0
-2.50564644375118E-05,1.15489292511484E-05,7.03125,0,0
-2.27374948735815E-05,1.29487416415941E-05,7.03125,0,0
-2.06565655389568E-05,1.35726950247772E-05,7.03125,0,0
-2.17262440855848E-05,1.43202296385425E-05,7.03125,0,0
-2.05222804652294E-05,1.40020138132968E-05,7.03125,0,0
-2.12686190934619E-05,1.37563265525387E-05,7.03125,0,0
-1.93209834833397E-05,1.06870948002324E-05,7.03125,0,0
