biceps_emg, triceps_emg, subject_position, position_estimate, brace_position
4.73092001129771E-07,-1.61477855726844E-05,0.17578125,0,0
1.77314882421342E-06,-1.95498287212104E-05,0.17578125,0,0
2.64927189164155E-06,-1.97176068468252E-05,0.17578125,0,0
2.6751024506666E-06,-2.00737867999123E-05,0.17578125,0,0
2.18500940718513E-06,-1.75406985363225E-05,0.17578125,0,0
2.7540788778424E-06,-1.8201277271146E-05,0.17578125,0,0
4.08768801207771E-06,-2.09270783670945E-05,0.17578125,0,0
4.77908042739728E-06,-2.18102486542193E-05,0.17578125,0,0
5.5588402574358E-06,-2.16508815356065E-05,0.17578125,0,0
7.35834692022763E-06,-1.95122302102391E-05,0.17578125,0,0
8.58577277540462E-06,-1.95081574929645E-05,0.17578125,0,0
7.6743326644646E-06,-1.79841208591824E-05,0.17578125,0,0
6.00584462517872E-06,-1.78776808752446E-05,0.17578125,0,0
5.23649669048609E-06,-1.76173489307985E-05,0.17578125,0,0
5.35483741259668E-06,-2.05812648346182E-05,0.17578125,0,0
4.63908691017423E-06,-2.09391437238082E-05,0.17578125,0,0
4.3461282075441E-06,-1.98404795810347E-05,0.17578125,0,0
4.31641092291102E-06,-1.81301656994037E-05,0.17578125,0,0
4.7962762437237E-06,-1.92381849046797E-05,0.17578125,0,0
4.88311752633308E-06,-2.08840592677007E-05,0.17578125,0,0
4.47339289166848E-06,-2.39959863392869E-05,0.17578125,0,0
3.98759857489495E-06,-2.45817245740909E-05,0.17578125,0,0
4.20609512730152E-06,-2.12930608540773E-05,0.17578125,0,0
3.93726804759353E-06,-1.53816836245824E-05,0.17578125,0,0
4.56967791251373E-06,-2.22653688979335E-05,0.17578125,0,0
1.98254360839201E-06,-1.7487818695372E-05,0.17578125,0,0
1.78592858901538E-06,-2.21833906834945E-05,0.17578125,0,0
-1.71911821666981E-07,-1.94168223970337E-05,0.17578125,0,0
6.1017237840133E-07,-2.09553418244468E-05,0.17578125,0,0
6.61694286918646E-07,-1.84279942914145E-05,0.17578125,0,0
2.66943379756412E-06,-1.79972666956019E-05,0.17578125,0,0
3.01601471619506E-06,-1.68545811902732E-05,0.17578125,0,0
2.29636111725995E-06,-1.68423157447251E-05,0.17578125,0,0
2.47182219936803E-06,-1.62484284373932E-05,0.17578125,0,0
2.2293404526863E-06,-1.47471346281236E-05,0.17578125,0,0
2.16412831832713E-06,-1.57068279804662E-05,0.17578125,0,0
1.42276360293181E-06,-1.63188560691196E-05,0.17578125,0,0
1.58644820658083E-06,-1.8213204384665E-05,0.17578125,0,0
1.44402747537242E-06,-1.85589560715016E-05,0.17578125,0,0
1.06905008578906E-06,-2.00220911210636E-05,0.17578125,0,0
6.791029818487E-07,-1.85672379302559E-05,0.17578125,0,0
2.44439775087812E-06,-1.75378172571072E-05,0.17578125,0,0
4.05965101890615E-06,-1.63830009114463E-05,0.17578125,0,0
4.75849128633854E-06,-1.78170394065091E-05,0.17578125,0,0
3.84590293833753E-06,-1.74677606992191E-05,0.17578125,0,0
2.90508160105674E-06,-1.76411558641121E-05,0.17578125,0,0
2.56366774920025E-06,-1.68345632118871E-05,0.17578125,0,0
3.0871501621732E-06,-1.61651732923929E-05,0.17578125,0,0
2.97059000331501E-06,-1.70323783095228E-05,0.17578125,0,0
2.74994545179652E-06,-1.93951054825448E-05,0.17578125,0,0
2.31727835853235E-06,-1.5654792150599E-05,0.17578125,0,0
3.28761757373286E-06,-2.04154712264426E-05,0.17578125,0,0
2.88850333163282E-06,-1.26416962302756E-05,0.17578125,0,0
4.05014134230441E-06,-1.57146459969226E-05,0.17578125,0,0
3.43633200827753E-06,-1.25968299471424E-05,0.17578125,0,0
3.29181534652889E-06,-1.60439358296571E-05,0.17578125,0,0
2.17313231587468E-06,-1.44120040204143E-05,0.17578125,0,0
1.01016269127285E-06,-1.5070972040121E-05,0.17578125,0,0
4.6217286353567E-07,-1.41893497129786E-05,0.17578125,0,0
1.24338157547754E-06,-1.37381457534502E-05,0.17578125,0,0
2.94166761705128E-06,-1.41481850732816E-05,0.17578125,0,0
3.76075513486285E-06,-1.49409088407992E-05,0.17578125,0,0
3.19395144288137E-06,-1.7593200027477E-05,0.17578125,0,0
2.68577127826575E-06,-1.81378291017609E-05,0.17578125,0,0
3.39447728947562E-06,-1.79719154402846E-05,0.17578125,0,0
3.61000138582313E-06,-1.4305830518424E-05,0.17578125,0,0
3.60867443305324E-06,-1.39052235681447E-05,0.17578125,0,0
3.75829927179439E-06,-1.26808645291021E-05,0.17578125,0,0
3.6309327242634E-06,-1.28816964206635E-05,0.17578125,0,0
2.53483835876978E-06,-1.24290672829375E-05,0.17578125,0,0
2.17098090615764E-06,-1.46727297760663E-05,0.17578125,0,0
2.5480499061814E-06,-1.55283105414128E-05,0.17578125,0,0
3.08542234961351E-06,-1.58984312292887E-05,0.17578125,0,0
2.70723717221699E-06,-1.64287594088819E-05,0.17578125,0,0
3.27431030200387E-06,-1.90867103810888E-05,0.17578125,0,0
4.55241843155818E-06,-1.98811958398437E-05,0.17578125,0,0
5.11031112182536E-06,-1.83748306881171E-05,0.17578125,0,0
4.21094318880932E-06,-1.53964592755074E-05,0.17578125,0,0
5.08764424012043E-06,-2.19850899156882E-05,0.17578125,0,0
2.59476473729592E-06,-1.57331342052203E-05,0.17578125,0,0
4.19314164901152E-06,-1.82097210199572E-05,0.17578125,0,0
4.13121279052575E-06,-1.55627749336418E-05,0.17578125,0,0
4.44127363152802E-06,-1.89041275007185E-05,0.17578125,0,0
2.95141012429667E-06,-1.85826593224192E-05,0.17578125,0,0
2.24181758312625E-06,-2.03457875613822E-05,0.17578125,0,0
6.12300596003479E-07,-2.02915634872625E-05,0.17578125,0,0
4.37165468269995E-08,-2.15405725612072E-05,0.17578125,0,0
9.4457141130988E-07,-2.28913013415877E-05,0.17578125,0,0
2.1610110252368E-06,-2.25342828343855E-05,0.17578125,0,0
3.21823904414487E-06,-2.27178788918536E-05,0.17578125,0,0
2.77543745141884E-06,-2.17262913793093E-05,0.17578125,0,0
2.52795734922984E-06,-2.24124705709983E-05,0.17578125,0,0
1.56535804762825E-06,-2.0541665435303E-05,0.17578125,0,0
4.57471344361693E-07,-2.04142670554575E-05,0.17578125,0,0
-1.01468515367742E-06,-1.9669154426083E-05,0.17578125,0,0
-8.10950155027967E-07,-2.01516049855854E-05,0.17578125,0,0
-2.41634467101903E-07,-1.81399918801617E-05,0.17578125,0,0
5.4570353569261E-08,-1.83085285243578E-05,0.17578125,0,0
-6.36622246474872E-07,-1.902370058815E-05,0.17578125,0,0
3.52799212066657E-08,-1.94141393876635E-05,0.17578125,0,0
1.98612085000605E-07,-1.74694978340995E-05,0.17578125,0,0
-3.69820185142089E-07,-1.59189276018878E-05,0.17578125,0,0
7.99384508809453E-07,-1.53120563481934E-05,0.17578125,0,0
1.31703768602165E-06,-1.44697951327544E-05,0.17578125,0,0
2.84460298871636E-07,-1.06416837297729E-05,0.17578125,0,0
-8.09386961009295E-07,-1.55988782353234E-05,0.17578125,0,0
-1.91577305486135E-06,-1.39327994475025E-05,0.17578125,0,0
-1.87033788279223E-06,-1.71089595824014E-05,0.17578125,0,0
-1.52002985487343E-06,-1.26564509628224E-05,0.17578125,0,0
8.16267586856156E-08,-1.32168042910052E-05,0.17578125,0,0
1.07934079096594E-06,-1.394739956595E-05,0.17578125,0,0
1.05476328826626E-06,-1.58449129230576E-05,0.17578125,0,0
7.11286418209056E-07,-1.46789388963953E-05,0.17578125,0,0
4.93703169013315E-07,-1.38532841447159E-05,0.17578125,0,0
1.59627376206117E-07,-1.40617012220901E-05,0.17578125,0,0
-2.60139671581783E-07,-1.40034408104839E-05,0.17578125,0,0
-2.96515363373828E-08,-1.44905852721422E-05,0.17578125,0,0
9.03386194295308E-07,-1.50783853314351E-05,0.17578125,0,0
1.5293702517738E-06,-1.72835461853538E-05,0.17578125,0,0
1.18365733214887E-06,-1.73800726770423E-05,0.17578125,0,0
1.71621366007457E-07,-1.83053944056155E-05,0.17578125,0,0
-1.02697731563239E-06,-1.89658312592655E-05,0.17578125,0,0
-5.4794207926534E-07,-2.10322959901532E-05,0.17578125,0,0
1.57247245624603E-06,-1.94956228369847E-05,0.17578125,0,0
3.7091740523465E-06,-1.712451739877E-05,0.17578125,0,0
4.573899332172E-06,-1.53124365169788E-05,0.17578125,0,0
4.37836206401698E-06,-1.46518423207453E-05,0.17578125,0,0
3.85150769943721E-06,-1.35285872602253E-05,0.17578125,0,0
4.01676652472815E-06,-1.3462791685015E-05,0.17578125,0,0
5.34008177055512E-06,-1.47895871123183E-05,0.17578125,0,0
6.43914245301858E-06,-1.68220576597378E-05,0.17578125,0,0
5.7179690884368E-06,-1.48426661326084E-05,0.17578125,0,0
9.44259318202967E-06,-2.00361919269199E-05,0.17578125,0,0
9.74864542513387E-06,-1.34173278638627E-05,0.17578125,0,0
1.09309667095658E-05,-1.73491516761715E-05,0.17578125,0,0
7.01424642102211E-06,-1.41152950163814E-05,0.17578125,0,0
6.33510308034602E-06,-1.71034098457312E-05,0.17578125,0,0
4.96478469358408E-06,-1.72649579326389E-05,0.17578125,0,0
3.37694723384629E-06,-1.7147203834611E-05,0.17578125,0,0
2.8234360343049E-06,-1.5386405721074E-05,0.17578125,0,0
4.14367195844534E-06,-1.49249890455394E-05,0.17578125,0,0
5.12022734255879E-06,-1.50697878780193E-05,0.17578125,0,0
4.61343461211072E-06,-1.44526838994352E-05,0.17578125,0,0
4.4632938625E-06,-1.59106402861653E-05,0.17578125,0,0
4.46906324214069E-06,-1.63170370797161E-05,0.17578125,0,0
4.7760395318619E-06,-1.76737394212978E-05,0.17578125,0,0
3.78331333195092E-06,-1.74561864696443E-05,0.17578125,0,0
2.83236249742913E-06,-1.9492685169098E-05,0.17578125,0,0
1.77802269263339E-06,-1.95805205294164E-05,0.17578125,0,0
1.25828137242934E-06,-1.98028919839999E-05,0.17578125,0,0
2.88391277081246E-07,-1.78804802999366E-05,0.17578125,0,0
6.35256583336741E-07,-1.64262291946216E-05,0.17578125,0,0
6.95357414315367E-07,-1.51797512444318E-05,0.17578125,0,0
6.81622395859449E-07,-1.5681165677961E-05,0.17578125,0,0
1.13116072952835E-06,-1.45416015584487E-05,0.17578125,0,0
3.16209070660989E-06,-1.34892425194266E-05,0.17578125,0,0
4.92854633193929E-06,-1.47853761518491E-05,0.17578125,0,0
5.11078042109148E-06,-1.69670420291368E-05,0.17578125,0,0
3.1368465442938E-06,-1.45762078318512E-05,0.17578125,0,0
3.92009951610817E-06,-2.10924426937709E-05,0.17578125,0,0
2.88588103103393E-06,-1.72475465660682E-05,0.17578125,0,0
3.99702048525796E-06,-2.10412636079127E-05,0.17578125,0,0
3.51975518242398E-06,-1.69429640664021E-05,0.17578125,0,0
5.5566329137946E-06,-1.92717252502916E-05,0.17578125,0,0
6.67800031806109E-06,-1.85550416063052E-05,0.17578125,0,0
7.3199098551413E-06,-1.96124892681837E-05,0.17578125,0,0
6.69210976411705E-06,-1.96809669432696E-05,0.17578125,0,0
5.69724670640426E-06,-2.0212328308844E-05,0.17578125,0,0
4.45462364950799E-06,-2.0817633412662E-05,0.17578125,0,0
3.27651491716097E-06,-2.06527656700928E-05,0.17578125,0,0
3.72349109056813E-06,-1.96904384210939E-05,0.17578125,0,0
4.61549734609434E-06,-1.61227835633326E-05,0.17578125,0,0
5.2348059398355E-06,-1.54256813402753E-05,0.17578125,0,0
5.00212536280742E-06,-1.55929046741221E-05,0.17578125,0,0
5.28890768691781E-06,-1.77160090970574E-05,0.17578125,0,0
5.22330446983688E-06,-1.58232724061236E-05,0.17578125,0,0
5.95711935602594E-06,-1.43007337101153E-05,0.17578125,0,0
6.65208517602878E-06,-1.3153567124391E-05,0.17578125,0,0
6.62784486848977E-06,-1.44290424941573E-05,0.17578125,0,0
6.12087023910135E-06,-1.45217818499077E-05,0.17578125,0,0
6.1775317590218E-06,-1.47137598105473E-05,0.17578125,0,0
5.45201191926026E-06,-1.38656150738825E-05,0.17578125,0,0
4.66357096229331E-06,-1.29284071590519E-05,0.17578125,0,0
4.75536262456444E-06,-1.22219580589444E-05,0.17578125,0,0
5.09559595229803E-06,-1.28394349303562E-05,0.17578125,0,0
3.40820633937255E-06,-1.03651655081194E-05,0.17578125,0,0
4.30794989370042E-06,-1.350542606815E-05,0.17578125,0,0
3.68634027836379E-06,-9.76246792561142E-06,0.17578125,0,0
6.09104881732492E-06,-1.34495876409346E-05,0.17578125,0,0
5.34840728505515E-06,-1.24610251077684E-05,0.17578125,0,0
5.04087165609235E-06,-1.63293661898933E-05,0.17578125,0,0
4.3431041376607E-06,-1.69848954101326E-05,0.17578125,0,0
5.45466309631593E-06,-1.8462325897417E-05,0.17578125,0,0
5.52236133444239E-06,-1.75204095285153E-05,0.17578125,0,0
3.83187943953089E-06,-1.74833585333545E-05,0.17578125,0,0
3.13455848299782E-06,-1.87776222446701E-05,0.17578125,0,0
3.80247661269095E-06,-1.88092762982706E-05,0.17578125,0,0
4.06209619541187E-06,-1.84191176231252E-05,0.17578125,0,0
3.00919009532663E-06,-1.68072128872154E-05,0.17578125,0,0
2.29735792345309E-06,-1.82307194336317E-05,0.17578125,0,0
1.22646019917738E-06,-1.88915928447386E-05,0.17578125,0,0
9.62551325756067E-07,-1.89082675206009E-05,0.17578125,0,0
1.13764781417558E-06,-1.62640881171683E-05,0.17578125,0,0
1.38365987822908E-06,-1.6385411072406E-05,0.17578125,0,0
3.63388039659185E-07,-1.74378474184778E-05,0.17578125,0,0
-7.69537621181371E-07,-1.87368314072955E-05,0.17578125,0,0
-2.32760316976055E-06,-1.93565083463909E-05,0.17578125,0,0
-2.46505260292906E-06,-2.11827646126039E-05,0.17578125,0,0
-1.06402569599595E-06,-2.12272188946372E-05,0.17578125,0,0
-4.36007674409211E-08,-2.07064349524444E-05,0.17578125,0,0
-4.4297760837253E-07,-2.04968964681029E-05,0.17578125,0,0
-8.58283954130457E-07,-2.08807286981028E-05,0.17578125,0,0
9.70801579569525E-07,-1.81043178599793E-05,0.17578125,0,0
2.91331639346026E-06,-2.49499153142096E-05,0.17578125,0,0
3.21651896229014E-06,-1.79649159690598E-05,0.17578125,0,0
2.0233865143382E-06,-2.2761481886846E-05,0.17578125,0,0
2.76569699053653E-06,-1.88369504030561E-05,0.17578125,0,0
4.66636947749066E-06,-2.15018899325514E-05,0.17578125,0,0
5.48235038877465E-06,-1.97933077288326E-05,0.17578125,0,0
4.69894393972936E-06,-2.08482251764508E-05,0.17578125,0,0
3.17720969178481E-06,-2.0073690393474E-05,0.17578125,0,0
3.47919285559328E-06,-1.96797409444116E-05,0.17578125,0,0
5.84268036618596E-06,-1.95435095520224E-05,0.17578125,0,0
7.60490684115211E-06,-1.88318372238427E-05,0.17578125,0,0
8.17202089820057E-06,-2.03062227228656E-05,0.17578125,0,0
7.26135431250441E-06,-1.9388849977986E-05,0.17578125,0,0
5.25565747011569E-06,-1.86421329999575E-05,0.17578125,0,0
3.12318866235728E-06,-1.54747267515631E-05,0.17578125,0,0
2.43107820097066E-06,-1.61867537826765E-05,0.17578125,0,0
3.92145238947705E-06,-1.6420384781668E-05,0.17578125,0,0
5.81425138079794E-06,-1.81890063686296E-05,0.17578125,0,0
5.71531700188643E-06,-1.81961386260809E-05,0.17578125,0,0
4.1251578295487E-06,-1.97587651200593E-05,0.17578125,0,0
2.81869847640337E-06,-1.95702159544453E-05,0.17578125,0,0
2.18449076783145E-06,-1.96579931071028E-05,0.17578125,0,0
2.26230258704163E-06,-1.84576038009254E-05,0.17578125,0,0
2.83732219941157E-06,-1.72143518284429E-05,0.17578125,0,0
3.64276070285996E-06,-1.63239383255132E-05,0.17578125,0,0
3.73307489098806E-06,-1.65055553225102E-05,0.17578125,0,0
2.03289937417139E-06,-1.52725424413802E-05,0.17578125,0,0
1.46589411542664E-06,-2.28316202992573E-05,0.17578125,0,0
-5.29750195710221E-07,-1.77567835635273E-05,0.17578125,0,0
1.9947092368966E-06,-1.95495067600859E-05,0.17578125,0,0
3.77152969122108E-06,-1.45992989928345E-05,0.17578125,0,0
4.19471189161413E-06,-1.59043174789986E-05,0.17578125,0,0
3.59809155270341E-06,-1.57973026944092E-05,0.17578125,0,0
3.27658426613198E-06,-1.82467065314995E-05,0.17578125,0,0
2.56088787864428E-06,-1.92593906831462E-05,0.17578125,0,0
3.10194059238711E-06,-2.03287490876392E-05,0.17578125,0,0
3.90215018342133E-06,-2.06436634471174E-05,0.17578125,0,0
3.35303730025771E-06,-1.9550345314201E-05,0.17578125,0,0
2.09110544346913E-06,-1.88678459380753E-05,0.17578125,0,0
1.32202160330053E-06,-1.68321803357685E-05,0.17578125,0,0
1.69766849467123E-06,-1.66855443239911E-05,0.17578125,0,0
2.0700681488961E-06,-1.5341060134233E-05,0.17578125,0,0
2.12801091947767E-06,-1.63144741236465E-05,0.17578125,0,0
2.62279650087294E-06,-1.64742305059917E-05,0.17578125,0,0
3.95541610487271E-06,-1.76215453393525E-05,0.17578125,0,0
4.06936760555254E-06,-1.65639012266183E-05,0.17578125,0,0
3.02469584312348E-06,-1.66028348758118E-05,0.17578125,0,0
2.14914120988396E-06,-1.64425873663276E-05,0.17578125,0,0
3.32218382936844E-06,-1.70703078765655E-05,0.17578125,0,0
4.42454393123626E-06,-1.65664587257197E-05,0.17578125,0,0
4.53904340247391E-06,-1.56410496856552E-05,0.17578125,0,0
3.74624642063282E-06,-1.38366276587476E-05,0.17578125,0,0
3.49344554706477E-06,-1.26286549857468E-05,0.17578125,0,0
3.40661495101813E-06,-9.68457698036218E-06,0.17578125,0,0
5.09720939589897E-06,-1.29325471789343E-05,0.17578125,0,0
3.56701502823853E-06,-9.72368980001193E-06,0.17578125,0,0
3.88722992283874E-06,-1.37778915814124E-05,0.17578125,0,0
3.05796561406169E-06,-1.23770632853848E-05,0.17578125,0,0
2.76279001809598E-06,-1.38355389935896E-05,0.17578125,0,0
1.45444971622055E-06,-1.28919818962459E-05,0.17578125,0,0
2.68982887519087E-07,-1.38615068863146E-05,0.17578125,0,0
1.71343657484613E-07,-1.38196046464145E-05,0.17578125,0,0
1.93192704500689E-06,-1.43083716466208E-05,0.17578125,0,0
2.99084422294982E-06,-1.56653586600441E-05,0.17578125,0,0
1.74263050212176E-06,-1.56373298523249E-05,0.17578125,0,0
-2.10694139468615E-07,-1.62625237862812E-05,0.17578125,0,0
-1.16635635549756E-06,-1.52987722685793E-05,0.17578125,0,0
-1.39869882787025E-06,-1.38497198349796E-05,0.17578125,0,0
-2.34779940910812E-06,-1.15707653094432E-05,0.17578125,0,0
-1.56506666826317E-06,-1.2480550140026E-05,0.17578125,0,0
5.30088641426119E-07,-1.37370016091154E-05,0.17578125,0,0
1.93081518773397E-06,-1.54696717800107E-05,0.17578125,0,0
1.17584113468183E-06,-1.54091467265971E-05,0.17578125,0,0
1.54158982468289E-07,-1.4910022400727E-05,0.17578125,0,0
-4.80936762414785E-07,-1.28979590954259E-05,0.17578125,0,0
2.62694630492888E-08,-1.2226006219862E-05,0.17578125,0,0
8.76882040756755E-07,-1.32844852487324E-05,0.17578125,0,0
-7.11073200321266E-09,-1.54864756041206E-05,0.17578125,0,0
-3.04489617519721E-06,-1.7114871297963E-05,0.17578125,0,0
-4.95477206641226E-06,-1.71068786585238E-05,0.17578125,0,0
-4.60799719803617E-06,-1.36183789436473E-05,0.17578125,0,0
-5.94181892665802E-06,-2.02686042030109E-05,0.17578125,0,0
-2.27031114263809E-06,-1.64677749125985E-05,0.17578125,0,0
-1.28967110413214E-06,-1.93625492102001E-05,0.17578125,0,0
9.78489651970449E-07,-1.46608226714307E-05,0.17578125,0,0
-5.22338325481542E-07,-1.58377733896486E-05,0.17578125,0,0
-1.35657273858669E-06,-1.55445013660938E-05,0.17578125,0,0
-1.95775342604065E-07,-1.622699892323E-05,0.17578125,0,0
2.71585327027424E-06,-1.60550171131035E-05,0.17578125,0,0
4.48330729341251E-06,-1.82676940312376E-05,0.17578125,0,0
3.94598237107857E-06,-2.15166346606566E-05,0.17578125,0,0
2.90924003820692E-06,-2.2748328774469E-05,0.17578125,0,0
2.58952445619798E-06,-2.28705757763237E-05,0.17578125,0,0
3.1626229883841E-06,-2.08978581213159E-05,0.17578125,0,0
3.6397057101567E-06,-2.04057269002078E-05,0.17578125,0,0
4.75788010589895E-06,-1.87640434887726E-05,0.17578125,0,0
5.41403096576687E-06,-1.97734625544399E-05,0.17578125,0,0
6.47898741590325E-06,-2.06248387257801E-05,0.17578125,0,0
6.68408574711066E-06,-2.2551463189302E-05,0.17578125,0,0
6.62549609842245E-06,-2.26308948185761E-05,0.17578125,0,0
6.53876213618787E-06,-2.31786216318142E-05,0.17578125,0,0
7.50911158320378E-06,-2.30622299568495E-05,0.17578125,0,0
7.41277608540258E-06,-2.44257771555567E-05,0.17578125,0,0
6.35040623819805E-06,-2.57002011494478E-05,0.17578125,0,0
5.32057265445474E-06,-2.5223942429875E-05,0.17578125,0,0
5.59914542463957E-06,-2.43631111516152E-05,0.17578125,0,0
6.24568610874121E-06,-2.60747219726909E-05,0.17578125,0,0
4.47192041974631E-06,-2.29951565415831E-05,0.17578125,0,0
5.61825299882912E-06,-3.192686199327E-05,0.17578125,0,0
2.94156848212879E-06,-2.28847711696289E-05,0.17578125,0,0
4.16967577621108E-06,-2.65060625679325E-05,0.17578125,0,0
2.96989173875772E-06,-1.97505487449234E-05,0.17578125,0,0
2.9592606551887E-06,-2.46278068516403E-05,0.17578125,0,0
2.21800587496546E-06,-2.31248341151513E-05,0.17578125,0,0
2.24870541387645E-06,-2.3224092728924E-05,0.17578125,0,0
1.66620588970545E-06,-2.07867487915792E-05,0.17578125,0,0
2.4925564048317E-06,-1.97274184756679E-05,0.17578125,0,0
4.68739199277479E-06,-1.96802157006459E-05,0.17578125,0,0
5.06199285155162E-06,-1.90103564818855E-05,0.17578125,0,0
4.23587562181638E-06,-2.02021856239298E-05,0.17578125,0,0
3.30825264427403E-06,-1.92950828932226E-05,0.17578125,0,0
2.2842534690426E-06,-2.06931035791058E-05,0.17578125,0,0
-7.7894320327232E-08,-1.85225471796002E-05,0.17578125,0,0
-7.93716480984585E-07,-1.89544552995358E-05,0.17578125,0,0
7.47649096410896E-07,-1.839345532062E-05,0.17578125,0,0
3.34231503984483E-06,-2.12313170777634E-05,0.17578125,0,0
4.49454864792642E-06,-2.0866607883363E-05,0.17578125,0,0
5.01879821968032E-06,-2.16176267713308E-05,0.17578125,0,0
4.26571295975009E-06,-2.1187903257669E-05,0.17578125,0,0
3.35549952978909E-06,-2.10661764867837E-05,0.17578125,0,0
3.05928006127942E-06,-1.87584737432189E-05,0.17578125,0,0
3.22511459671659E-06,-1.54584322444862E-05,0.17578125,0,0
2.55044960795203E-06,-1.2677104678005E-05,0.17578125,0,0
2.4788084829197E-06,-1.24651587611879E-05,0.17578125,0,0
1.64116772793932E-06,-8.89783314050874E-06,0.17578125,0,0
2.18422428588383E-06,-1.22691717479029E-05,0.17578125,0,0
2.09067161449639E-06,-1.03875318018254E-05,0.17578125,0,0
2.31709441322892E-06,-1.45052990774275E-05,0.17578125,0,0
1.3233973277238E-06,-1.34004985739011E-05,0.17578125,0,0
1.8022823269348E-06,-1.43644892887096E-05,0.17578125,0,0
1.88932665423636E-06,-1.21271232274012E-05,0.17578125,0,0
1.87754926628259E-06,-1.19227961477009E-05,0.17578125,0,0
1.99120768229477E-06,-1.22265719255665E-05,0.17578125,0,0
3.25506380249863E-06,-1.18143389045144E-05,0.17578125,0,0
3.34209289576393E-06,-1.13197220343864E-05,0.17578125,0,0
2.57727697317023E-06,-1.19126088975463E-05,0.17578125,0,0
1.92434481505188E-06,-1.38205477924203E-05,0.17578125,0,0
5.99191139372124E-07,-1.39139774546493E-05,0.17578125,0,0
-4.08572503829419E-07,-1.31673568830593E-05,0.17578125,0,0
-1.14864874944942E-07,-1.16191467895987E-05,0.17578125,0,0
1.2748513427141E-06,-1.24321577459341E-05,0.17578125,0,0
2.41220368479844E-06,-1.22817027659039E-05,0.17578125,0,0
4.18834224547027E-06,-1.30442585941637E-05,0.17578125,0,0
5.88488410357968E-06,-1.24902871903032E-05,0.17578125,0,0
7.49774335417897E-06,-1.17940571726649E-05,0.17578125,0,0
7.29177645553136E-06,-1.16820374387316E-05,0.17578125,0,0
5.92843707636348E-06,-1.28808087538346E-05,0.17578125,0,0
5.32270678377245E-06,-1.18986581583158E-05,0.17578125,0,0
6.4712185121607E-06,-1.03067941381596E-05,0.17578125,0,0
7.28395480109612E-06,-1.02580279417452E-05,0.17578125,0,0
5.97490998188732E-06,-1.11010040200199E-05,0.17578125,0,0
2.85586929749115E-06,-9.2566488092416E-06,0.17578125,0,0
4.59458306067972E-06,-1.38187870106776E-05,0.17578125,0,0
4.86713952341233E-06,-1.2499229342211E-05,0.17578125,0,0
6.57760119793238E-06,-1.62282103701727E-05,0.17578125,0,0
5.32848071088665E-06,-1.46923575812252E-05,0.17578125,0,0
4.25215921495692E-06,-1.53305318235653E-05,0.17578125,0,0
3.54181406692078E-06,-1.27901357700466E-05,0.17578125,0,0
5.00373744216631E-06,-1.24596554087475E-05,0.17578125,0,0
5.49167953067808E-06,-1.25637407109025E-05,0.17578125,0,0
3.6400001590664E-06,-1.4238228686736E-05,0.17578125,0,0
2.09135055229126E-06,-1.57335471158149E-05,0.17578125,0,0
1.39039252644579E-06,-1.68670703715179E-05,0.17578125,0,0
1.75495472376497E-06,-1.86951565410709E-05,0.17578125,0,0
2.08080678021361E-06,-1.91210237971973E-05,0.17578125,0,0
1.5203555676635E-06,-1.91480357898399E-05,0.17578125,0,0
1.09707525552949E-06,-1.73572589119431E-05,0.17578125,0,0
2.08578239835333E-06,-1.7395825125277E-05,0.17578125,0,0
2.2658769012196E-06,-1.74743854586268E-05,0.17578125,0,0
8.51774757393287E-07,-1.88878839253448E-05,0.17578125,0,0
-4.81846370803396E-07,-1.93059258890571E-05,0.17578125,0,0
3.91219458606429E-07,-2.07102639251389E-05,0.17578125,0,0
1.51624249156157E-06,-2.10577290999936E-05,0.17578125,0,0
1.90112166364997E-06,-1.9539500499377E-05,0.17578125,0,0
1.06690652046382E-06,-1.64602697623195E-05,0.17578125,0,0
-4.74437257480531E-07,-1.70225011970615E-05,0.17578125,0,0
-1.69496070157038E-06,-1.96034616237739E-05,0.17578125,0,0
-9.2944583229837E-07,-2.06939785130089E-05,0.17578125,0,0
9.56847429733898E-07,-1.71485207829392E-05,0.17578125,0,0
6.91463526436564E-07,-2.53087619057624E-05,0.17578125,0,0
-1.18028378892632E-06,-2.0421301087481E-05,0.17578125,0,0
-7.50761955714552E-07,-2.46953986788867E-05,0.17578125,0,0
7.73583565205627E-07,-2.00076392502524E-05,0.17578125,0,0
8.00555199020891E-07,-2.13166567846201E-05,0.17578125,0,0
-6.67365043227619E-07,-1.98212219402194E-05,0.17578125,0,0
-1.62740855103038E-06,-2.08338897209615E-05,0.17578125,0,0
-1.2658737205129E-06,-1.90819337149151E-05,0.17578125,0,0
-7.06284737361784E-08,-1.82532439794159E-05,0.17578125,0,0
1.04668367839622E-06,-1.85398694156902E-05,0.17578125,0,0
2.56040561907867E-06,-1.74684064404573E-05,0.17578125,0,0
4.41263136963244E-06,-1.76825960807037E-05,0.17578125,0,0
5.17072885486414E-06,-1.70647854247363E-05,0.17578125,0,0
4.9706954996509E-06,-1.80429906322388E-05,0.17578125,0,0
4.2776691770996E-06,-1.67319813044742E-05,0.17578125,0,0
3.89627484764787E-06,-1.77749934664462E-05,0.17578125,0,0
3.37445271725301E-06,-1.83755400939845E-05,0.17578125,0,0
2.05891592486296E-06,-2.05151827685768E-05,0.17578125,0,0
1.09778272872063E-06,-1.90588762052357E-05,0.17578125,0,0
2.27610030378855E-06,-1.82572457561037E-05,0.17578125,0,0
4.28969178756233E-06,-1.77184192580171E-05,0.17578125,0,0
4.79216350868228E-06,-1.80443112185458E-05,0.17578125,0,0
3.7650777358067E-06,-1.719950887491E-05,0.17578125,0,0
2.64290656559751E-06,-1.69516133610159E-05,0.17578125,0,0
2.49181334766035E-06,-1.62417636602186E-05,0.17578125,0,0
3.57562498720654E-06,-1.44918512887671E-05,0.17578125,0,0
3.94732796848984E-06,-1.05051358332275E-05,0.17578125,0,0
5.08567472934374E-06,-1.63269814947853E-05,0.17578125,0,0
3.26191593558178E-06,-1.61320804181742E-05,0.17578125,0,0
5.07417189510306E-06,-2.11858205148019E-05,0.17578125,0,0
5.43457417734317E-06,-1.93400792340981E-05,0.17578125,0,0
6.43673956801649E-06,-1.93883879546775E-05,0.17578125,0,0
6.03640000917949E-06,-1.74743581737857E-05,0.17578125,0,0
6.30917747912463E-06,-1.78759091795655E-05,0.17578125,0,0
7.9043074947549E-06,-1.66178269864758E-05,0.17578125,0,0
1.08268650365062E-05,-1.73602547874907E-05,0.17578125,0,0
1.14370513983886E-05,-1.83825904969126E-05,0.17578125,0,0
9.84344296739437E-06,-1.70948769664392E-05,0.17578125,0,0
8.68007464305265E-06,-1.68332899193047E-05,0.17578125,0,0
8.1183779911953E-06,-1.82295279955724E-05,0.17578125,0,0
8.34072125144303E-06,-2.20841302507324E-05,0.17578125,0,0
8.53004166856408E-06,-2.32690945267677E-05,0.17578125,0,0
9.58543023443781E-06,-2.32700549531728E-05,0.17578125,0,0
9.33865158003755E-06,-2.13979201362235E-05,0.17578125,0,0
8.6504996943404E-06,-2.09846257348545E-05,0.17578125,0,0
7.69922644394683E-06,-1.88867525139358E-05,0.17578125,0,0
7.52429423300782E-06,-1.68526457855478E-05,0.17578125,0,0
7.5727871262643E-06,-1.4934383216314E-05,0.17578125,0,0
8.30628960102331E-06,-1.55610669025918E-05,0.17578125,0,0
8.54419977258658E-06,-1.69166814885102E-05,0.17578125,0,0
7.6745864134864E-06,-1.73396820173366E-05,0.17578125,0,0
5.37963660462992E-06,-1.64187567861518E-05,0.17578125,0,0
4.15675594922504E-06,-1.73376338352682E-05,0.17578125,0,0
4.22652419729275E-06,-1.64713492267765E-05,0.17578125,0,0
6.91288141752011E-06,-2.32837373914663E-05,0.17578125,0,0
5.4090696721687E-06,-1.67718426382635E-05,0.17578125,0,0
6.09970538789639E-06,-2.00103222596226E-05,0.17578125,0,0
5.23139897268265E-06,-1.60671097546583E-05,0.17578125,0,0
4.36430764239049E-06,-1.91246235772269E-05,0.17578125,0,0
3.72701515516383E-06,-1.85629505722318E-05,0.17578125,0,0
3.93999835068826E-06,-1.94927615666529E-05,0.17578125,0,0
2.47883940573956E-06,-1.91445051314076E-05,0.17578125,0,0
1.03005697837943E-06,-1.97713452507742E-05,0.17578125,0,0
2.39282144320896E-06,-2.03873223654227E-05,0.17578125,0,0
4.31746502727037E-06,-1.91410890693078E-05,0.17578125,0,0
4.25844109486206E-06,-1.92066727322526E-05,0.17578125,0,0
2.98212535199127E-06,-1.76371540874243E-05,0.17578125,0,0
3.58149645762751E-06,-1.70874573086621E-05,0.17578125,0,0
3.99736427425523E-06,-1.52620032167761E-05,0.17578125,0,0
2.44160992224352E-06,-1.65549154189648E-05,0.17578125,0,0
-5.05568067410422E-08,-1.67863126989687E-05,0.17578125,0,0
-2.34647586694336E-07,-1.80683837243123E-05,0.17578125,0,0
1.18890227440716E-06,-1.73965308931656E-05,0.17578125,0,0
3.00252622764674E-06,-1.77190850081388E-05,0.17578125,0,0
3.87469117413275E-06,-1.60195195348933E-05,0.17578125,0,0
4.0930212890089E-06,-1.46543852679315E-05,0.17578125,0,0
3.5118680443702E-06,-1.48296066981857E-05,0.17578125,0,0
2.66414281213656E-06,-1.53437940753065E-05,0.17578125,0,0
2.09613904189609E-06,-1.40915462907287E-05,0.17578125,0,0
2.09292375075165E-06,-1.49563620652771E-05,0.17578125,0,0
2.04185948859958E-06,-1.43112592922989E-05,0.17578125,0,0
1.98183670363505E-06,-2.06967506528599E-05,0.17578125,0,0
2.44536636273551E-07,-1.620290640858E-05,0.17578125,0,0
1.12493296455796E-06,-1.92893221537815E-05,0.17578125,0,0
6.40918699446047E-07,-1.55906982399756E-05,0.17578125,0,0
-5.30200381376744E-08,-1.67776179296197E-05,0.17578125,0,0
-3.11313272050029E-07,-1.42451535793953E-05,0.17578125,0,0
4.2019814827654E-07,-1.48054059536662E-05,0.17578125,0,0
-4.9582212113819E-07,-1.52132952280226E-05,0.17578125,0,0
-1.61635455242504E-06,-1.57459762704093E-05,0.17578125,0,0
-1.96152450371301E-06,-1.47355940498528E-05,0.17578125,0,0
-2.57900182987214E-06,-1.22198771350668E-05,0.17578125,0,0
-2.93859648081707E-06,-1.22313149404363E-05,0.17578125,0,0
-2.61995182881947E-06,-1.27212979350588E-05,0.17578125,0,0
-4.45557873263169E-07,-1.496939057688E-05,0.17578125,0,0
1.88906972198311E-06,-1.51973918036674E-05,0.17578125,0,0
3.33927209794638E-06,-1.72233321791282E-05,0.17578125,0,0
3.06749052469968E-06,-1.77698275365401E-05,0.17578125,0,0
2.12835993806948E-06,-1.90942937479122E-05,0.17578125,0,0
1.29294744510844E-06,-1.7984835722018E-05,0.17578125,0,0
7.64189223900758E-07,-1.74857050296851E-05,0.17578125,0,0
2.46432534822816E-07,-1.72862073668512E-05,0.17578125,0,0
1.71700446571776E-06,-1.98285215446958E-05,0.17578125,0,0
4.60329556517536E-06,-2.10429807339096E-05,0.17578125,0,0
5.27711063114111E-06,-2.01361362996977E-05,0.17578125,0,0
3.87144928026828E-06,-1.7467129509896E-05,0.17578125,0,0
3.24463599099545E-06,-1.39912990562152E-05,0.17578125,0,0
2.59380249190144E-06,-1.10421469798894E-05,0.17578125,0,0
3.40659926223452E-06,-1.77646488737082E-05,0.17578125,0,0
2.30117507271643E-06,-1.6026608136599E-05,0.17578125,0,0
2.38543634623056E-06,-2.04638054128736E-05,0.17578125,0,0
1.40895690492471E-06,-2.00856684386963E-05,0.17578125,0,0
2.00537328964856E-06,-2.0141817003605E-05,0.17578125,0,0
1.18534694593109E-06,-1.76263274624944E-05,0.17578125,0,0
-2.97954386496713E-07,-1.83316187758464E-05,0.17578125,0,0
-1.38535631322156E-06,-1.94084732356714E-05,0.17578125,0,0
-1.7144104802469E-08,-2.09681857086252E-05,0.17578125,0,0
1.68927465438173E-06,-2.23092356463894E-05,0.17578125,0,0
1.95766915567219E-06,-2.18422228499549E-05,0.17578125,0,0
1.99476971829426E-06,-2.06016593438108E-05,0.17578125,0,0
1.86079535069439E-06,-1.86496981768869E-05,0.17578125,0,0
1.87044804533798E-06,-1.86816869245376E-05,0.17578125,0,0
1.40965119044267E-06,-1.90959253814071E-05,0.17578125,0,0
8.32901037028932E-07,-2.09922800422646E-05,0.17578125,0,0
-9.54393897245609E-08,-2.06954682653304E-05,0.17578125,0,0
5.42423663318914E-07,-2.0364281226648E-05,0.17578125,0,0
1.84271402758895E-06,-1.94006333913421E-05,0.17578125,0,0
3.39858092957002E-06,-1.92531260836404E-05,0.17578125,0,0
3.4977192626684E-06,-1.80197421286721E-05,0.17578125,0,0
2.04447769647231E-06,-1.71241626958363E-05,0.17578125,0,0
1.6015884511944E-06,-1.69854465639219E-05,0.17578125,0,0
2.2737665403838E-06,-1.82330841198564E-05,0.17578125,0,0
1.27283578876813E-06,-1.85927347047254E-05,0.17578125,0,0
1.93639877466012E-07,-1.74521046574228E-05,0.17578125,0,0
9.78238290372246E-09,-1.51142457980313E-05,0.17578125,0,0
5.16743398293329E-07,-2.26594620471587E-05,0.17578125,0,0
1.4048116554477E-06,-1.77156598510919E-05,0.17578125,0,0
1.53442147166061E-06,-1.96946893993299E-05,0.17578125,0,0
1.14253714400547E-06,-1.46480670082383E-05,0.17578125,0,0
3.03746617191791E-07,-1.57806953211548E-05,0.17578125,0,0
1.10974167455424E-06,-1.46657066579792E-05,0.17578125,0,0
4.25674215875915E-06,-1.53501550812507E-05,0.17578125,0,0
6.39626205156674E-06,-1.4833536624792E-05,0.17578125,0,0
5.96583504375303E-06,-1.61604220920708E-05,0.17578125,0,0
4.71708563054563E-06,-1.76375197042944E-05,0.17578125,0,0
5.03083492731093E-06,-1.60764575412031E-05,0.17578125,0,0
5.63668845643406E-06,-1.56188743858365E-05,0.17578125,0,0
4.61105719296029E-06,-1.53938763105543E-05,0.17578125,0,0
3.06221704704512E-06,-1.67575017258059E-05,0.17578125,0,0
2.6282152703061E-06,-1.59141563926823E-05,0.17578125,0,0
2.57390752267384E-06,-1.70232087839395E-05,0.17578125,0,0
1.75128297996707E-06,-1.71219908224884E-05,0.17578125,0,0
9.91962906482513E-07,-1.79552043846343E-05,0.17578125,0,0
7.44384806239395E-07,-1.75009136000881E-05,0.17578125,0,0
7.57554516894743E-07,-1.8545191778685E-05,0.17578125,0,0
1.49815809891152E-06,-1.83354877663078E-05,0.17578125,0,0
2.01265106625215E-06,-1.8037762856693E-05,0.17578125,0,0
8.79675724263507E-07,-1.69361992448103E-05,0.17578125,0,0
1.32942057362584E-08,-1.61459411174292E-05,0.17578125,0,0
2.66537369952857E-07,-1.62147553055547E-05,0.17578125,0,0
1.87530872608477E-06,-1.76416706381133E-05,0.17578125,0,0
2.30328078032471E-06,-1.56674122990808E-05,0.17578125,0,0
2.64377945313754E-06,-2.1979454686516E-05,0.17578125,0,0
6.55610222111136E-07,-1.48205044752103E-05,0.17578125,0,0
1.6703419305486E-06,-1.59722058015177E-05,0.17578125,0,0
2.65370567831269E-06,-1.15394495878718E-05,0.17578125,0,0
3.82812277166522E-06,-1.47306745930109E-05,0.17578125,0,0
3.14450426230906E-06,-1.42932167364052E-05,0.17578125,0,0
3.42947919307335E-06,-1.45137364597758E-05,0.17578125,0,0
4.44624765805202E-06,-1.30156049635843E-05,0.17578125,0,0
4.36981326856767E-06,-1.3621981452161E-05,0.17578125,0,0
3.89232718589483E-06,-1.48352319229161E-05,0.17578125,0,0
3.9490255403507E-06,-1.4070810721023E-05,0.17578125,0,0
5.89474848311511E-06,-1.40418878800119E-05,0.17578125,0,0
8.10002256912412E-06,-1.34792880999157E-05,0.17578125,0,0
9.1384054030641E-06,-1.42859353218228E-05,0.17578125,0,0
8.50429205456749E-06,-1.31721790239681E-05,0.17578125,0,0
7.50597291698796E-06,-1.51743452079245E-05,0.17578125,0,0
6.55950634609326E-06,-1.5889439964667E-05,0.17578125,0,0
6.5355470724171E-06,-1.69258582900511E-05,0.17578125,0,0
6.39286145087681E-06,-1.64246721396921E-05,0.17578125,0,0
5.92534888710361E-06,-1.7122263670899E-05,0.17578125,0,0
5.83473502047127E-06,-1.68452042998979E-05,0.17578125,0,0
6.00622706770082E-06,-1.78711670741905E-05,0.17578125,0,0
6.56292604617192E-06,-1.75402765307808E-05,0.17578125,0,0
7.52687992644496E-06,-1.74646629602648E-05,0.17578125,0,0
7.88967827247689E-06,-1.85093340405729E-05,0.17578125,0,0
7.88378201832529E-06,-2.00349204533268E-05,0.17578125,0,0
4.61184345112997E-06,-1.62074338732054E-05,0.17578125,0,0
5.02067268826067E-06,-2.26284082600614E-05,0.17578125,0,0
4.09573203796754E-06,-1.68568731169216E-05,0.17578125,0,0
7.26856205801596E-06,-2.12040667975089E-05,0.17578125,0,0
4.38276447312091E-06,-1.74189972312888E-05,0.17578125,0,0
3.17022158924374E-06,-1.89015918294899E-05,0.17578125,0,0
2.9067050490994E-06,-1.60817198775476E-05,0.17578125,0,0
5.20675030202256E-06,-1.53625605889829E-05,0.17578125,0,0
5.15540295964456E-06,-1.38736668304773E-05,0.17578125,0,0
4.74601802125108E-06,-1.4459976227954E-05,0.17578125,0,0
4.24697145717801E-06,-1.44595605888753E-05,0.17578125,0,0
2.92406662083522E-06,-1.30859998535016E-05,0.17578125,0,0
1.56060752942722E-06,-1.45782942126971E-05,0.17578125,0,0
6.22464199295791E-07,-1.56795904331375E-05,0.17578125,0,0
2.3969996618689E-06,-1.73313346749637E-05,0.17578125,0,0
4.34862840847927E-06,-1.53220171341673E-05,0.17578125,0,0
5.91679508943344E-06,-1.5171663108049E-05,0.17578125,0,0
4.34409321314888E-06,-1.39868616315653E-05,0.17578125,0,0
1.49218988099165E-06,-1.45267877087463E-05,0.17578125,0,0
-1.63488448379212E-06,-1.46818510984303E-05,0.17578125,0,0
-2.40980216403841E-06,-1.69226568687009E-05,0.17578125,0,0
-1.31694912397506E-06,-1.67282014444936E-05,0.17578125,0,0
1.97620147446287E-06,-1.54680474224733E-05,0.17578125,0,0
3.88182525057346E-06,-1.4249610103434E-05,0.17578125,0,0
4.80157359561417E-06,-1.65103283507051E-05,0.17578125,0,0
4.92294020659756E-06,-1.96078108274378E-05,0.17578125,0,0
4.66137407784117E-06,-2.09726622415474E-05,0.17578125,0,0
3.13623604597524E-06,-1.51149670273298E-05,0.17578125,0,0
4.44723491455079E-06,-1.87172881851438E-05,0.17578125,0,0
2.88851674667967E-06,-1.24898342619417E-05,0.17578125,0,0
3.22366349791992E-06,-1.82711810339242E-05,0.17578125,0,0
2.37822791859799E-06,-1.62526102940319E-05,0.17578125,0,0
2.65684207079175E-06,-1.996925129788E-05,0.17578125,0,0
2.43022532231407E-06,-1.82021485670703E-05,0.17578125,0,0
2.15770160139073E-06,-2.02167466341052E-05,0.17578125,0,0
1.69829127116827E-06,-2.07955126825254E-05,0.17578125,0,0
1.68509814102435E-06,-2.09006539080292E-05,0.17578125,0,0
1.35483526264579E-06,-1.91110921150539E-05,0.17578125,0,0
1.03052207123255E-06,-1.64086632139515E-05,0.17578125,0,0
1.47245282278163E-06,-1.81702744157519E-05,0.17578125,0,0
2.73753994406434E-06,-1.93379491975065E-05,0.17578125,0,0
5.39457141712774E-06,-1.94902950170217E-05,0.17578125,0,0
6.65237439534394E-06,-1.56292499013944E-05,0.17578125,0,0
5.65458003620734E-06,-1.42668704938842E-05,0.17578125,0,0
3.12153497361578E-06,-1.13996666186722E-05,0.17578125,0,0
2.20542938222934E-06,-1.11182398541132E-05,0.17578125,0,0
2.43289809986891E-06,-1.18783855214133E-05,0.17578125,0,0
2.30427076530759E-06,-1.50944770211936E-05,0.17578125,0,0
1.19159369660338E-06,-1.65465717145707E-05,0.17578125,0,0
8.62251965827454E-07,-1.83472548087593E-05,0.17578125,0,0
1.11757071863394E-06,-1.7739806935424E-05,0.17578125,0,0
8.34941829452873E-07,-1.64033444889355E-05,0.17578125,0,0
2.26098563871346E-07,-1.53887758642668E-05,0.17578125,0,0
1.16192168775342E-07,-1.66308891493827E-05,0.17578125,0,0
-1.22626499887701E-06,-1.51281374201062E-05,0.17578125,0,0
-3.97528583562234E-06,-2.04110292543191E-05,0.17578125,0,0
-4.57481746707344E-06,-1.41030086524552E-05,0.17578125,0,0
-2.61662694356346E-06,-1.90011924132705E-05,0.17578125,0,0
-5.56716543087532E-07,-1.67088637681445E-05,0.17578125,0,0
-3.19439436680113E-07,-1.90130649571074E-05,0.17578125,0,0
-1.67649295690353E-06,-1.71585616044467E-05,0.17578125,0,0
-2.09882591661881E-06,-1.60522722580936E-05,0.17578125,0,0
-1.23722531952808E-06,-1.51769781950861E-05,0.17578125,0,0
4.96856557674619E-07,-1.70723615156021E-05,0.17578125,0,0
1.17625097573182E-06,-1.81894720299169E-05,0.17578125,0,0
1.57051317728474E-06,-1.61535590450512E-05,0.17578125,0,0
2.11581755138468E-06,-1.62393062055344E-05,0.17578125,0,0
2.08468031814846E-06,-1.67901325767161E-05,0.17578125,0,0
1.5822073464733E-06,-1.88145641004667E-05,0.17578125,0,0
-7.03168510085561E-08,-1.9014883946511E-05,0.17578125,0,0
-1.58365173774655E-06,-1.96796972886659E-05,0.17578125,0,0
-1.10129121821956E-06,-1.67993748618755E-05,0.17578125,0,0
9.82650476544222E-07,-1.51775157064549E-05,0.17578125,0,0
2.58470527114696E-06,-1.39543026307365E-05,0.17578125,0,0
3.42113617080031E-06,-1.45646827149903E-05,0.17578125,0,0
4.23340725319576E-06,-1.42993949339143E-05,0.17578125,0,0
4.8557853915554E-06,-1.51557760545984E-05,0.17578125,0,0
3.70752468370483E-06,-1.53712117025862E-05,0.17578125,0,0
1.51600534081808E-06,-1.52688353409758E-05,0.17578125,0,0
8.61551654907089E-07,-1.62821543199243E-05,0.17578125,0,0
2.60394290307886E-06,-1.92276384041179E-05,0.17578125,0,0
2.85311944026034E-06,-1.51150243254961E-05,0.17578125,0,0
3.01759087051323E-06,-2.02959527086932E-05,0.17578125,0,0
8.05546960691572E-07,-1.45259091368644E-05,0.17578125,0,0
1.0442788607179E-06,-1.83572665264364E-05,0.17578125,0,0
6.30614522378892E-07,-1.51424046634929E-05,0.17578125,0,0
1.48515255204984E-06,-1.90119935723487E-05,0.17578125,0,0
3.3794433917933E-09,-1.85030548891518E-05,0.17578125,0,0
2.94589966642889E-07,-1.97665976884309E-05,0.17578125,0,0
1.8088461501975E-06,-1.75975164893316E-05,0.17578125,0,0
2.69509064310114E-06,-1.49978450281196E-05,0.17578125,0,0
2.73117962024116E-06,-1.35105301524163E-05,0.17578125,0,0
2.1955336251267E-06,-1.32458953885362E-05,0.17578125,0,0
2.09931704375776E-06,-1.58320926857414E-05,0.17578125,0,0
1.99130226974376E-06,-1.6030755432439E-05,0.17578125,0,0
2.67215568783286E-06,-1.64823741215514E-05,0.17578125,0,0
3.73729699276737E-06,-1.56525311467703E-05,0.17578125,0,0
5.24634970133775E-06,-1.84425134648336E-05,0.17578125,0,0
5.26592612004606E-06,-2.01931979972869E-05,0.17578125,0,0
4.65545645056409E-06,-2.15741456486285E-05,0.17578125,0,0
3.40483620675514E-06,-1.9771565348492E-05,0.17578125,0,0
2.80244648820371E-06,-2.03947893169243E-05,0.17578125,0,0
3.52046208718093E-06,-2.06204622372752E-05,0.17578125,0,0
5.28463488080888E-06,-1.97248482436407E-05,0.17578125,0,0
5.9455051086843E-06,-1.77656220330391E-05,0.17578125,0,0
4.62288790004095E-06,-1.80377683136612E-05,0.17578125,0,0
2.67634140982409E-06,-1.8991913748323E-05,0.17578125,0,0
3.42130579156219E-06,-2.08476158150006E-05,0.17578125,0,0
3.67509142051858E-06,-1.93392752407817E-05,0.17578125,0,0
5.09473102283664E-06,-2.78654315479798E-05,0.17578125,0,0
3.78966410607973E-06,-2.06399126909673E-05,0.17578125,0,0
5.29479439137504E-06,-2.48228552663932E-05,0.17578125,0,0
5.12672022523475E-06,-2.15681066038087E-05,0.17578125,0,0
6.32453929938492E-06,-2.43845042859903E-05,0.17578125,0,0
6.61873718854622E-06,-2.07911034522112E-05,0.17578125,0,0
6.74700868330547E-06,-1.98868419829523E-05,0.17578125,0,0
6.21634944764082E-06,-1.9034063370782E-05,0.17578125,0,0
7.38340349926148E-06,-2.02400660782587E-05,0.17578125,0,0
9.91088745649904E-06,-2.20474357774947E-05,0.17578125,0,0
1.09883203549543E-05,-2.18728764593834E-05,0.17578125,0,0
1.15702923721983E-05,-2.25242256419733E-05,0.17578125,0,0
1.13668738777051E-05,-2.13568546314491E-05,0.17578125,0,0
1.05927447293652E-05,-2.17705146496883E-05,0.17578125,0,0
8.46995408210205E-06,-1.99180885829264E-05,0.17578125,0,0
5.71423925066483E-06,-2.02433366212063E-05,0.17578125,0,0
3.26694180330378E-06,-1.8981059838552E-05,0.17578125,0,0
3.82987309421878E-06,-1.99090718524531E-05,0.17578125,0,0
5.3289181778382E-06,-1.91314793482888E-05,0.17578125,0,0
6.00754901824985E-06,-2.01520051632542E-05,0.17578125,0,0
5.11383132106857E-06,-2.00951817532768E-05,0.17578125,0,0
4.18110903410707E-06,-1.96035143744666E-05,0.17578125,0,0
3.85521752832574E-06,-1.74343131220667E-05,0.17578125,0,0
3.77621222469315E-06,-1.57065896928543E-05,0.17578125,0,0
4.38470033259364E-06,-1.45303374665673E-05,0.17578125,0,0
4.34734693044447E-06,-1.50640198626206E-05,0.17578125,0,0
1.22282733627799E-06,-1.37725692184176E-05,0.17578125,0,0
4.30990354516325E-07,-2.03117124328855E-05,0.17578125,0,0
-8.40292443626822E-07,-1.42923317980603E-05,0.17578125,0,0
3.91407979805081E-07,-1.41058681037975E-05,0.17578125,0,0
1.49135303217918E-06,-9.95152186078485E-06,0.17578125,0,0
3.78741378881386E-06,-1.29454074340174E-05,0.17578125,0,0
4.81275264974101E-06,-1.38739642352448E-05,0.17578125,0,0
5.58033207198605E-06,-1.59615610755282E-05,0.17578125,0,0
5.60354919798556E-06,-1.53659584611887E-05,0.17578125,0,0
4.60567980553606E-06,-1.51995864143828E-05,0.17578125,0,0
4.17899127569399E-06,-1.53882265294669E-05,0.17578125,0,0
4.71042449134984E-06,-1.48936351251905E-05,0.17578125,0,0
4.72785313831992E-06,-1.61594907694962E-05,0.17578125,0,0
4.92781146022026E-06,-1.56387814058689E-05,0.17578125,0,0
5.69922622162267E-06,-1.54569861479104E-05,0.17578125,0,0
5.82895700063091E-06,-1.39359544846229E-05,0.17578125,0,0
5.70188831261476E-06,-1.54741719597951E-05,0.17578125,0,0
5.1854594858014E-06,-1.69325303431833E-05,0.17578125,0,0
5.22612708664383E-06,-1.80817096406827E-05,0.17578125,0,0
5.17807757205446E-06,-1.63001095643267E-05,0.17578125,0,0
5.15814008394955E-06,-1.65642686624778E-05,0.17578125,0,0
4.63341484646662E-06,-1.69250888575334E-05,0.17578125,0,0
3.72051385966188E-06,-1.69938575709239E-05,0.17578125,0,0
3.78174081561156E-06,-1.63671302289004E-05,0.17578125,0,0
4.50667357654311E-06,-1.71644660440506E-05,0.17578125,0,0
3.92605170418392E-06,-1.8815764633473E-05,0.17578125,0,0
3.65369373866997E-06,-1.90629325516056E-05,0.17578125,0,0
3.67648726751213E-06,-1.40212914629956E-05,0.17578125,0,0
5.74959949517506E-06,-1.94093499885639E-05,0.17578125,0,0
4.49458320872509E-06,-1.60685722221388E-05,0.17578125,0,0
3.71844635083107E-06,-2.18601526285056E-05,0.17578125,0,0
1.12189138690155E-06,-1.89986876648618E-05,0.17578125,0,0
7.10115671154199E-07,-1.99036330741365E-05,0.17578125,0,0
1.89945282613735E-07,-1.75127097463701E-05,0.17578125,0,0
2.15760564969969E-07,-1.91762228496373E-05,0.17578125,0,0
-5.32505225692148E-07,-1.8785289285006E-05,0.17578125,0,0
-2.37314623063867E-07,-1.82262028829427E-05,0.17578125,0,0
1.04339301287837E-06,-1.68765582202468E-05,0.17578125,0,0
1.18371599455713E-06,-1.50182140714605E-05,0.17578125,0,0
7.91749357631488E-07,-1.50967453009798E-05,0.17578125,0,0
2.74620539642001E-08,-1.48243016155902E-05,0.17578125,0,0
-1.30193541281187E-07,-1.66881236509653E-05,0.17578125,0,0
-3.10763653033064E-07,-1.79707803908968E-05,0.17578125,0,0
4.68689023591651E-07,-2.07610119105084E-05,0.17578125,0,0
1.14431975362095E-06,-1.91261406143894E-05,0.17578125,0,0
1.42175508699438E-06,-1.8211027054349E-05,0.17578125,0,0
9.3142580226413E-07,-1.821105433919E-05,0.17578125,0,0
1.18178377306322E-06,-1.94813001144212E-05,0.17578125,0,0
6.93933316142648E-07,-1.78408190549817E-05,0.17578125,0,0
5.31596015207469E-07,-1.81487357622245E-05,0.17578125,0,0
1.93007781490451E-06,-1.84326127055101E-05,0.17578125,0,0
3.80221445084317E-06,-1.8269818610861E-05,0.17578125,0,0
4.80314884043764E-06,-1.79478029167512E-05,0.17578125,0,0
4.31906255471404E-06,-1.88289195648395E-05,0.17578125,0,0
1.7674736909612E-06,-1.5391337001347E-05,0.17578125,0,0
2.52019981417106E-06,-2.15976633626269E-05,0.17578125,0,0
3.17663443638594E-06,-1.59111805260181E-05,0.17578125,0,0
3.79408220396726E-06,-2.04809239221504E-05,0.17578125,0,0
1.86087891052011E-06,-1.79934031621087E-05,0.17578125,0,0
1.78707216491603E-06,-1.96254259208217E-05,0.17578125,0,0
2.43723911808047E-06,-1.72903928614687E-05,0.17578125,0,0
3.70026009477442E-06,-1.74230208358495E-05,0.17578125,0,0
3.87766249332344E-06,-1.64454304467654E-05,0.17578125,0,0
4.27161239713314E-06,-1.64922330441186E-05,0.17578125,0,0
3.13700570586661E-06,-1.70639541465789E-05,0.17578125,0,0
1.71540534665837E-06,-1.64415414474206E-05,0.17578125,0,0
2.5492768145341E-06,-1.57048943947302E-05,0.17578125,0,0
4.34576713814749E-06,-1.38852701638825E-05,0.17578125,0,0
4.88552450406132E-06,-1.4801783436269E-05,0.17578125,0,0
4.25786492996849E-06,-1.44322402775288E-05,0.17578125,0,0
5.14291195941041E-06,-1.53145174408564E-05,0.17578125,0,0
6.27070039627142E-06,-1.37624838316697E-05,0.17578125,0,0
6.69524979457492E-06,-1.40991442094673E-05,0.17578125,0,0
5.66781545785489E-06,-1.43393262987956E-05,0.17578125,0,0
5.01148770126747E-06,-1.6151507225004E-05,0.17578125,0,0
4.48080118076177E-06,-1.59565788635518E-05,0.17578125,0,0
4.50233937954181E-06,-1.53675209730864E-05,0.17578125,0,0
5.16561749464017E-06,-1.42958015203476E-05,0.17578125,0,0
6.86391877025017E-06,-1.41227410495048E-05,0.17578125,0,0
7.09179676050553E-06,-1.61761236086022E-05,0.17578125,0,0
5.37480673301616E-06,-1.94659369299188E-05,0.17578125,0,0
3.40087171935011E-06,-1.48412755152094E-05,0.17578125,0,0
5.23538028573967E-06,-1.91206854651682E-05,0.17578125,0,0
4.88949717691867E-06,-1.3212117664807E-05,0.17578125,0,0
6.22801780991722E-06,-1.81297600647667E-05,0.17578125,0,0
4.8776637413539E-06,-1.41513419293915E-05,0.17578125,0,0
4.7578027988493E-06,-1.48547278513433E-05,0.17578125,0,0
4.44021679868456E-06,-1.21781795314746E-05,0.17578125,0,0
5.284620783641E-06,-1.4689104318677E-05,0.17578125,0,0
5.38918402526178E-06,-1.58396069309674E-05,0.17578125,0,0
3.73766874872672E-06,-1.62732467288151E-05,0.17578125,0,0
2.3699612938799E-06,-1.74626820808044E-05,0.17578125,0,0
1.77121194155916E-06,-1.83911724889185E-05,0.17578125,0,0
1.31925469304406E-06,-1.96334876818582E-05,0.17578125,0,0
2.80163220622853E-07,-1.77568381332094E-05,0.17578125,0,0
6.448669864767E-07,-1.7129646948888E-05,0.17578125,0,0
7.09230732809374E-07,-1.63606928254012E-05,0.17578125,0,0
-3.85996692386925E-08,-1.89055444934638E-05,0.17578125,0,0
-5.95028382122109E-07,-1.87250425369712E-05,0.17578125,0,0
5.20415994742507E-07,-1.89852144103497E-05,0.17578125,0,0
1.66339214047184E-06,-1.70979001268279E-05,0.17578125,0,0
2.4317537281604E-06,-1.60248364409199E-05,0.17578125,0,0
2.10896587304887E-06,-1.49471707118209E-05,0.17578125,0,0
1.49229822454799E-06,-1.48803101183148E-05,0.17578125,0,0
1.23473648727668E-06,-1.40668425956392E-05,0.17578125,0,0
1.52062864344771E-06,-1.57121194206411E-05,0.17578125,0,0
2.25258008867968E-06,-1.86916659004055E-05,0.17578125,0,0
1.97662916434638E-06,-1.96021355804987E-05,0.17578125,0,0
-4.07729032758652E-07,-1.44418445415795E-05,0.17578125,0,0
-5.20432337225429E-08,-1.98458819795633E-05,0.17578125,0,0
1.20158438221551E-06,-1.51938174894894E-05,0.17578125,0,0
1.98366046788578E-06,-2.04299340111902E-05,0.17578125,0,0
1.31178137507959E-06,-1.91422604984837E-05,0.17578125,0,0
-3.36445471482705E-09,-2.14830342883943E-05,0.17578125,0,0
7.23536402347236E-07,-1.75537024915684E-05,0.17578125,0,0
1.45550939123495E-06,-1.69421309692552E-05,0.17578125,0,0
1.13921494460101E-07,-1.69320846907794E-05,0.17578125,0,0
-1.81845780389267E-06,-1.86351899174042E-05,0.17578125,0,0
-1.84835710115294E-06,-2.01122056751046E-05,0.17578125,0,0
-3.08164572970782E-07,-2.08321635000175E-05,0.17578125,0,0
5.49214348666283E-07,-2.31271824304713E-05,0.17578125,0,0
9.14960480713489E-07,-2.3320440959651E-05,0.17578125,0,0
1.9938665900554E-06,-2.35436109505827E-05,0.17578125,0,0
3.94447397411568E-06,-2.14808187593007E-05,0.17578125,0,0
5.21054880664451E-06,-2.15959116758313E-05,0.17578125,0,0
5.46146793567459E-06,-1.92021379916696E-05,0.17578125,0,0
4.82151153846644E-06,-1.80663846549578E-05,0.17578125,0,0
4.52038148068823E-06,-1.74047563632485E-05,0.17578125,0,0
4.75373826702707E-06,-1.8414077203488E-05,0.17578125,0,0
5.37088817509357E-06,-1.73608495970257E-05,0.17578125,0,0
5.1252077355457E-06,-1.713076926535E-05,0.17578125,0,0
3.78583422389056E-06,-1.68684709933586E-05,0.17578125,0,0
2.83533745459863E-06,-1.72264517459553E-05,0.17578125,0,0
3.112620106549E-06,-1.63779459398938E-05,0.17578125,0,0
4.43975341113401E-06,-1.52759657794377E-05,0.17578125,0,0
3.11996518576052E-06,-1.18577509056195E-05,0.17578125,0,0
3.27953375744983E-06,-1.70869752764702E-05,0.17578125,0,0
1.02908040844341E-06,-1.29708269014372E-05,0.17578125,0,0
2.18672016671917E-06,-1.39410421979846E-05,0.17578125,0,0
1.32575200950669E-06,-9.73381702351617E-06,0.17578125,0,0
1.01287537290773E-06,-1.16804612844135E-05,0.17578125,0,0
9.70030740177208E-08,-1.15707953227684E-05,0.17578125,0,0
2.6443004230714E-07,-1.28534175019013E-05,0.17578125,0,0
3.17732457233433E-07,-1.13757605504361E-05,0.17578125,0,0
5.19096090556559E-07,-1.14012327685487E-05,0.17578125,0,0
1.04230468878086E-06,-1.27201183204306E-05,0.17578125,0,0
1.88893943686708E-06,-1.29320224004914E-05,0.17578125,0,0
2.49060713031213E-06,-1.37852321131504E-05,0.17578125,0,0
1.58607917910558E-06,-1.35050559038064E-05,0.17578125,0,0
2.91417819653361E-07,-1.44052264658967E-05,0.17578125,0,0
1.12044034494829E-07,-1.35524514917051E-05,0.17578125,0,0
1.55312125116325E-06,-1.30773360069725E-05,0.17578125,0,0
2.2835238269181E-06,-1.13204969238723E-05,0.17578125,0,0
2.99780504064984E-06,-1.15479624582804E-05,0.17578125,0,0
2.86871568278002E-06,-1.00322577054612E-05,0.17578125,0,0
2.23250958697463E-06,-9.37401455303188E-06,0.17578125,0,0
1.9622773379524E-06,-1.03770098576206E-05,0.17578125,0,0
3.93836216971977E-06,-1.47369737533154E-05,0.17578125,0,0
6.15566386841238E-06,-1.88147605513223E-05,0.17578125,0,0
6.16655279372935E-06,-2.08166820812039E-05,0.17578125,0,0
3.84387158192112E-06,-2.05144224310061E-05,0.17578125,0,0
2.37115841628111E-06,-2.02720275410684E-05,0.17578125,0,0
1.50139169363683E-06,-1.60593808686826E-05,0.17578125,0,0
2.65164521806582E-06,-2.3894346668385E-05,0.17578125,0,0
3.40055453307286E-06,-1.99343321583001E-05,0.17578125,0,0
4.12577219321975E-06,-2.38936354435282E-05,0.17578125,0,0
3.5419295727479E-06,-2.04479492822429E-05,0.17578125,0,0
3.93539312426583E-06,-2.38511911447858E-05,0.17578125,0,0
2.51044980359438E-06,-2.34989183809375E-05,0.17578125,0,0
3.22177186262707E-07,-2.57364645221969E-05,0.17578125,0,0
-2.61598955830777E-07,-2.43861359194852E-05,0.17578125,0,0
1.04838954939623E-06,-2.26089359784964E-05,0.17578125,0,0
1.89471325029444E-06,-2.20220990740927E-05,0.17578125,0,0
1.55144186919642E-06,-2.13354851439362E-05,0.17578125,0,0
2.07318180400762E-06,-2.18862915062346E-05,0.17578125,0,0
3.58427314495202E-06,-2.05357500817627E-05,0.17578125,0,0
4.59565808341722E-06,-2.06033819267759E-05,0.17578125,0,0
4.10024904340389E-06,-1.9085480744252E-05,0.17578125,0,0
3.68416544915817E-06,-1.93974337889813E-05,0.17578125,0,0
3.49033916791086E-06,-1.78451155079529E-05,0.17578125,0,0
3.82912276108982E-06,-1.8436565369484E-05,0.17578125,0,0
4.59220245829783E-06,-1.81272662302945E-05,0.17578125,0,0
5.19269769938546E-06,-1.85694443644024E-05,0.17578125,0,0
4.97257087772596E-06,-1.69927552633453E-05,0.17578125,0,0
4.63559217678267E-06,-1.51428957906319E-05,0.17578125,0,0
3.96292080040439E-06,-1.36142607516376E-05,0.17578125,0,0
3.0492146834149E-06,-1.50406985994778E-05,0.17578125,0,0
2.37160338656395E-06,-1.70682033058256E-05,0.17578125,0,0
2.17889646592084E-06,-1.95101274584886E-05,0.17578125,0,0
2.04419302463066E-06,-1.67505022545811E-05,0.17578125,0,0
3.82160442313761E-06,-2.22192011278821E-05,0.17578125,0,0
3.92934953197255E-06,-1.58564471348654E-05,0.17578125,0,0
4.12433382734889E-06,-2.1991598259774E-05,0.17578125,0,0
3.34603532792244E-06,-1.88948306458769E-05,0.17578125,0,0
2.53625853474659E-06,-1.88516514754156E-05,0.17578125,0,0
1.00466070307448E-06,-1.54495446622605E-05,0.17578125,0,0
9.85839164968638E-07,-1.85642402357189E-05,0.17578125,0,0
2.55970576290565E-06,-1.99120167962974E-05,0.17578125,0,0
4.5070819396642E-06,-2.00640297407517E-05,0.17578125,0,0
4.8821793825482E-06,-1.87727000593441E-05,0.17578125,0,0
3.99618784285849E-06,-1.80010811163811E-05,0.17578125,0,0
3.33695675180934E-06,-2.07266912184423E-05,0.17578125,0,0
2.7643500288832E-06,-2.09425215871306E-05,0.17578125,0,0
2.24063023779308E-06,-2.08191340789199E-05,0.17578125,0,0
1.28411306832277E-06,-1.86184897756903E-05,0.17578125,0,0
5.72246449337399E-07,-2.0138053514529E-05,0.17578125,0,0
4.86556928080972E-07,-1.96442688320531E-05,0.17578125,0,0
1.89450554444193E-06,-1.953403261723E-05,0.17578125,0,0
3.75808281205536E-06,-1.80957704287721E-05,0.17578125,0,0
4.83526264360989E-06,-1.91426679521101E-05,0.17578125,0,0
4.2379133446957E-06,-1.85268454515608E-05,0.17578125,0,0
3.78915251530998E-06,-1.91527378774481E-05,0.17578125,0,0
3.64947118214332E-06,-1.93044506886508E-05,0.17578125,0,0
2.99707198792021E-06,-1.80702281795675E-05,0.17578125,0,0
3.57411272489117E-06,-1.58377988555003E-05,0.17578125,0,0
4.68014195575961E-06,-1.4943873793527E-05,0.17578125,0,0
3.12382007905399E-06,-1.29626159832696E-05,0.17578125,0,0
3.66996505363204E-06,-1.91432882274967E-05,0.17578125,0,0
2.99790008284617E-06,-1.6578616850893E-05,0.17578125,0,0
6.40728876533103E-06,-2.12347385968314E-05,0.17578125,0,0
6.38766869087704E-06,-1.84573691512924E-05,0.17578125,0,0
5.6440435400873E-06,-1.90810205822345E-05,0.17578125,0,0
3.89630622521508E-06,-1.76373705471633E-05,0.17578125,0,0
3.12124348056386E-06,-1.91285762412008E-05,0.17578125,0,0
2.64937807514798E-06,-1.96326855075313E-05,0.17578125,0,0
2.29721626965329E-06,-2.02178525796626E-05,0.17578125,0,0
1.97126428247429E-06,-1.9420975149842E-05,0.17578125,0,0
2.24842233365052E-06,-1.73647258634446E-05,0.17578125,0,0
3.80785195375211E-06,-1.67364378285129E-05,0.17578125,0,0
4.35909123552847E-06,-1.52174252434634E-05,0.17578125,0,0
4.53189386462327E-06,-1.550874003442E-05,0.17578125,0,0
4.3701093090931E-06,-1.50707373904879E-05,0.17578125,0,0
4.29640567745082E-06,-1.70154453371651E-05,0.17578125,0,0
3.79678408535256E-06,-1.76903977262555E-05,0.17578125,0,0
3.78044478566153E-06,-1.93680589291034E-05,0.17578125,0,0
3.3865414934553E-06,-1.92333973245695E-05,0.17578125,0,0
3.44862337442464E-06,-1.90513892448507E-05,0.17578125,0,0
3.10625500787864E-06,-1.77282763615949E-05,0.17578125,0,0
2.55945451499429E-06,-1.68767874129117E-05,0.17578125,0,0
2.58791897067567E-06,-1.65258588822326E-05,0.17578125,0,0
3.24849588650977E-06,-1.74120195879368E-05,0.17578125,0,0
3.21290508509264E-06,-1.68302067322657E-05,0.17578125,0,0
1.97440272131644E-06,-1.56738642544951E-05,0.17578125,0,0
1.36729477162589E-06,-1.19907081170822E-05,0.17578125,0,0
2.32353249884909E-06,-1.60993004101329E-05,0.17578125,0,0
1.80065421773179E-06,-1.11458821265842E-05,0.17578125,0,0
1.90188325177587E-06,-1.49510560731869E-05,0.17578125,0,0
3.43827286997112E-06,-1.40812871904927E-05,0.17578125,0,0
5.00862279295689E-06,-1.69119884958491E-05,0.17578125,0,0
3.96041195926955E-06,-1.64050816238159E-05,0.17578125,0,0
3.18891852657544E-06,-1.78558493644232E-05,0.17578125,0,0
3.50957543560071E-06,-1.69028498930857E-05,0.17578125,0,0
2.97205406241119E-06,-1.58271468535531E-05,0.17578125,0,0
6.52832000014314E-07,-1.47061309689889E-05,0.17578125,0,0
-4.62404216250434E-07,-1.36046874104068E-05,0.17578125,0,0
3.3280628031207E-07,-1.47470591400634E-05,0.17578125,0,0
4.39151250475334E-07,-1.53642886289163E-05,0.17578125,0,0
-1.40640608492504E-07,-1.62275300681358E-05,0.17578125,0,0
-5.45780949323671E-07,-1.44085033753072E-05,0.17578125,0,0
-4.07147553005416E-07,-1.36871585709741E-05,0.17578125,0,0
-2.77158207495631E-08,-1.23476665976341E-05,0.17578125,0,0
1.17210879579943E-06,-1.33496723719873E-05,0.17578125,0,0
2.14637179851707E-06,-1.29756381284096E-05,0.17578125,0,0
2.15069781006605E-06,-1.31284668896114E-05,0.17578125,0,0
9.78503749138326E-07,-1.28486472021905E-05,0.17578125,0,0
-3.56882992491592E-07,-1.36271182782366E-05,0.17578125,0,0
-1.13483213226573E-06,-1.41982027344056E-05,0.17578125,0,0
-8.20656794076058E-07,-1.49957295434433E-05,0.17578125,0,0
1.33420860493061E-06,-1.54313893290237E-05,0.17578125,0,0
4.03242756874533E-06,-1.61696880240925E-05,0.17578125,0,0
4.08112600780441E-06,-1.25244632727117E-05,0.17578125,0,0
5.2821069402853E-06,-1.72796135302633E-05,0.17578125,0,0
3.78570553039026E-06,-1.14103395389975E-05,0.17578125,0,0
6.19161937720492E-06,-1.38552504722611E-05,0.17578125,0,0
6.48522564006271E-06,-1.19852784337127E-05,0.17578125,0,0
6.98683015798451E-06,-1.4174774150888E-05,0.17578125,0,0
6.11162295172107E-06,-1.32275972646312E-05,0.17578125,0,0
6.21896015218226E-06,-1.42667586260359E-05,0.17578125,0,0
6.08458867645822E-06,-1.39781177495024E-05,0.17578125,0,0
6.76435229252093E-06,-1.60086528921966E-05,0.17578125,0,0
7.20649404684082E-06,-1.82886979018804E-05,0.17578125,0,0
6.37904759059893E-06,-1.74770975718275E-05,0.17578125,0,0
5.67535516893258E-06,-1.59344799612882E-05,0.17578125,0,0
4.80270227853907E-06,-1.31643573695328E-05,0.17578125,0,0
4.13619954997557E-06,-1.31090764625696E-05,0.17578125,0,0
2.54608880823071E-06,-1.3612509064842E-05,0.17578125,0,0
1.88640899523307E-06,-1.58913589984877E-05,0.17578125,0,0
2.10442135539779E-06,-1.6064494047896E-05,0.17578125,0,0
3.87334284823737E-06,-1.72926829691278E-05,0.17578125,0,0
5.56374970983597E-06,-1.78229292941978E-05,0.17578125,0,0
6.1073246797605E-06,-1.84272903425153E-05,0.17578125,0,0
3.74883279619098E-06,-1.75317381945206E-05,0.17578125,0,0
1.59465980686946E-06,-1.8238964912598E-05,0.17578125,0,0
1.25346900858858E-06,-1.90700320672477E-05,0.17578125,0,0
2.24908581003547E-06,-1.9110542780254E-05,0.17578125,0,0
2.69566294264223E-06,-1.71746305568377E-05,0.17578125,0,0
3.85668317903765E-06,-1.68929382198257E-05,0.17578125,0,0
4.48809578301734E-06,-1.53868040797533E-05,0.17578125,0,0
5.73267107029096E-06,-2.37062413361855E-05,0.17578125,0,0
2.51721985478071E-06,-1.87075002031634E-05,0.17578125,0,0
2.87306647805963E-06,-1.91035887837643E-05,0.17578125,0,0
2.12953432310314E-06,-1.40874326461926E-05,0.17578125,0,0
1.87977138921269E-06,-1.6808446162031E-05,0.17578125,0,0
1.31949491333216E-06,-1.59868868649937E-05,0.17578125,0,0
2.68415942628053E-06,-1.59999162860913E-05,0.17578125,0,0
2.3948960006237E-06,-1.40527736220974E-05,0.17578125,0,0
9.75641455625009E-07,-1.38023906401941E-05,0.17578125,0,0
-1.89675859019189E-07,-1.46515612868825E-05,0.17578125,0,0
-2.15265174574597E-07,-1.50607384057366E-05,0.17578125,0,0
-2.97780530900127E-07,-1.67547877936158E-05,0.17578125,0,0
-9.45262968343741E-07,-1.62828073371202E-05,0.17578125,0,0
-3.9013460195747E-07,-1.62300202646293E-05,0.17578125,0,0
4.59650834727654E-07,-1.46689362736652E-05,0.17578125,0,0
1.76140611074516E-06,-1.54201825353084E-05,0.17578125,0,0
1.59210696892842E-06,-1.50135911098914E-05,0.17578125,0,0
1.8091794800057E-06,-1.67348498507636E-05,0.17578125,0,0
1.91569438356964E-06,-1.85446187970228E-05,0.17578125,0,0
2.40020835917676E-06,-2.01463153643999E-05,0.17578125,0,0
1.76797118456307E-06,-1.81349023478106E-05,0.17578125,0,0
1.3430098988465E-06,-1.75199002114823E-05,0.17578125,0,0
1.85659405360639E-06,-1.72140225913608E-05,0.17578125,0,0
1.88603189599235E-06,-1.70340263139224E-05,0.17578125,0,0
9.70856490312144E-07,-1.73150110640563E-05,0.17578125,0,0
1.91633625945542E-06,-1.85778917511925E-05,0.17578125,0,0
3.13616146740969E-06,-1.64762168424204E-05,0.17578125,0,0
5.49771993973991E-06,-2.31486828852212E-05,0.17578125,0,0
5.43075566383777E-06,-1.60770960064838E-05,0.17578125,0,0
6.16987972534844E-06,-1.86190172826173E-05,0.17578125,0,0
5.18960496265208E-06,-1.48819863170502E-05,0.17578125,0,0
5.29173030372476E-06,-1.79647686309181E-05,0.17578125,0,0
5.57959583602496E-06,-1.80923161678948E-05,0.17578125,0,0
5.53622567167622E-06,-2.02427891053958E-05,0.17578125,0,0
3.8823600334581E-06,-1.99867172341328E-05,0.17578125,0,0
2.67136101683718E-06,-2.06708591576898E-05,0.17578125,0,0
2.58118575402477E-06,-2.08242654480273E-05,0.17578125,0,0
3.09547181132075E-06,-1.92641291505424E-05,0.17578125,0,0
3.49472452398913E-06,-1.84881919267355E-05,0.17578125,0,0
2.34408321375668E-06,-1.70772000274155E-05,0.17578125,0,0
2.26352653953654E-06,-1.8299153452972E-05,0.17578125,0,0
2.82992459688103E-06,-1.72679428942502E-05,0.17578125,0,0
3.24964071296563E-06,-1.7302843843936E-05,0.17578125,0,0
2.52462018579536E-06,-1.5533643818344E-05,0.17578125,0,0
1.56425369368662E-06,-1.62566793733276E-05,0.17578125,0,0
5.38038932518248E-07,-1.63059448823333E-05,0.17578125,0,0
8.61969908783067E-07,-1.83384763658978E-05,0.17578125,0,0
2.59068565355847E-06,-1.95708016690332E-05,0.17578125,0,0
4.71261591883376E-06,-2.10993493965361E-05,0.17578125,0,0
6.36139020571136E-06,-2.11318001674954E-05,0.17578125,0,0
6.19986849415E-06,-2.16833941522054E-05,0.17578125,0,0
4.46976264356636E-06,-2.23786228161771E-05,0.17578125,0,0
3.52507640855038E-06,-2.37371168623213E-05,0.17578125,0,0
2.31392846217204E-06,-2.02800729312003E-05,0.17578125,0,0
1.97557324099762E-06,-2.8839258447988E-05,0.17578125,0,0
-5.41346764748596E-07,-2.03257368411869E-05,0.17578125,0,0
2.91048934286664E-07,-2.30843033932615E-05,0.17578125,0,0
1.66100755905063E-06,-1.74388824234484E-05,0.17578125,0,0
5.06743708683643E-06,-1.98410907614743E-05,0.17578125,0,0
7.63465959607856E-06,-1.80822080437792E-05,0.17578125,0,0
8.6893369370955E-06,-1.86030265467707E-05,0.17578125,0,0
6.84928090777248E-06,-1.62245687533868E-05,0.17578125,0,0
3.68541600437311E-06,-1.49639417941216E-05,0.17578125,0,0
2.16018497667392E-06,-1.43159850267693E-05,0.17578125,0,0
2.9023560728092E-06,-1.36143416966661E-05,0.17578125,0,0
3.66708241017477E-06,-1.56761216203449E-05,0.17578125,0,0
3.18042521030293E-06,-1.50875112012727E-05,0.17578125,0,0
2.79709570349951E-06,-1.47160635606269E-05,0.17578125,0,0
2.08483425012673E-06,-1.25315109471558E-05,0.17578125,0,0
1.0595123285384E-06,-1.40812617246411E-05,0.17578125,0,0
-4.84794838939706E-07,-1.37081051434507E-05,0.17578125,0,0
-9.12676284769987E-07,-1.51605891005602E-05,0.17578125,0,0
-5.69354412505163E-08,-1.65601504704682E-05,0.17578125,0,0
2.09736708711716E-06,-2.02959126909263E-05,0.17578125,0,0
3.19863306685875E-06,-2.10008038266096E-05,0.17578125,0,0
1.96904329641256E-06,-2.1284806280164E-05,0.17578125,0,0
-5.92224921547313E-07,-2.02710962184938E-05,0.17578125,0,0
-1.45550518482196E-06,-1.94622425624402E-05,0.17578125,0,0
-5.2955317642045E-07,-1.75222739926539E-05,0.17578125,0,0
8.53804067446617E-07,-1.54232293425594E-05,0.17578125,0,0
1.22761753118539E-06,-1.46085512824357E-05,0.17578125,0,0
1.21300672617508E-06,-2.4213830329245E-05,0.17578125,0,0
8.19887134184683E-07,-2.16111839108635E-05,0.17578125,0,0
2.76347441285907E-06,-2.28872977459105E-05,0.17578125,0,0
2.57137025982956E-06,-1.86310571734793E-05,0.17578125,0,0
1.92612310456752E-06,-1.95356205949793E-05,0.17578125,0,0
2.83960548586037E-06,-1.92084899026668E-05,0.17578125,0,0
3.83673614123836E-06,-2.05983214982552E-05,0.17578125,0,0
3.34722676598176E-06,-1.89878883247729E-05,0.17578125,0,0
2.06323147722287E-06,-1.72190302691888E-05,0.17578125,0,0
1.68892745477933E-06,-1.69751929206541E-05,0.17578125,0,0
1.51767790157464E-06,-1.75340555870207E-05,0.17578125,0,0
6.47001229481248E-07,-1.78331702045398E-05,0.17578125,0,0
-9.32461887259706E-07,-1.62478354468476E-05,0.17578125,0,0
-2.20558013097616E-06,-1.49454099300783E-05,0.17578125,0,0
-2.14501233131159E-06,-1.28953734019888E-05,0.17578125,0,0
-1.05359640656388E-06,-1.55156121763866E-05,0.17578125,0,0
1.12435941446165E-06,-1.78164973476669E-05,0.17578125,0,0
4.43101680502878E-06,-1.91675499081612E-05,0.17578125,0,0
6.98891562933568E-06,-1.81635932676727E-05,0.17578125,0,0
7.77309105615132E-06,-1.83904794539558E-05,0.17578125,0,0
7.11028405930847E-06,-1.7284268324147E-05,0.17578125,0,0
6.25889788352652E-06,-1.66516347235302E-05,0.17578125,0,0
5.22110167366918E-06,-1.62530250236159E-05,0.17578125,0,0
4.60398450741195E-06,-1.74186770891538E-05,0.17578125,0,0
4.97283735967358E-06,-1.88244721357478E-05,0.17578125,0,0
3.60035960511595E-06,-1.80147617356852E-05,0.17578125,0,0
2.0508211946435E-06,-1.28132860481855E-05,0.17578125,0,0
4.60336013929918E-06,-1.81749783223495E-05,0.17578125,0,0
6.60076693748124E-06,-1.4511814697471E-05,0.17578125,0,0
7.27857559468248E-06,-1.91571780305821E-05,0.17578125,0,0
4.4010689634888E-06,-1.67061079991981E-05,0.17578125,0,0
1.90490914064867E-06,-1.85280805453658E-05,0.17578125,0,0
6.38341646208573E-07,-1.90462724276586E-05,0.17578125,0,0
1.84265786629112E-06,-2.11914721148787E-05,0.17578125,0,0
5.02974671690026E-06,-1.95850279851584E-05,0.17578125,0,0
7.53145423004753E-06,-1.68380502145737E-05,0.17578125,0,0
8.32939076644834E-06,-1.47049022416468E-05,0.17578125,0,0
8.12564849184128E-06,-1.31681490529445E-05,0.17578125,0,0
7.07876506567118E-06,-1.40256788654369E-05,0.17578125,0,0
5.23151311426773E-06,-1.42823009809945E-05,0.17578125,0,0
4.51525829703314E-06,-1.56453861563932E-05,0.17578125,0,0
5.04041236126795E-06,-1.5864734450588E-05,0.17578125,0,0
5.46675119039719E-06,-1.81199629878392E-05,0.17578125,0,0
4.82924042444211E-06,-1.89270740520442E-05,0.17578125,0,0
3.89257820643252E-06,-2.0035651687067E-05,0.17578125,0,0
3.13413011099328E-06,-1.89768816198921E-05,0.17578125,0,0
3.22507821692852E-06,-1.87580790225184E-05,0.17578125,0,0
3.93859590985812E-06,-1.82912954187486E-05,0.17578125,0,0
4.68594726044103E-06,-1.90866630873643E-05,0.17578125,0,0
4.01263787352946E-06,-1.93923169717891E-05,0.17578125,0,0
3.94762219002587E-06,-1.86799570656149E-05,0.17578125,0,0
5.96342260905658E-06,-1.9611021343735E-05,0.17578125,0,0
6.4080159063451E-06,-2.09812733373838E-05,0.17578125,0,0
2.98694294542656E-06,-1.70270595845068E-05,0.17578125,0,0
2.95193194688181E-06,-2.44426992139779E-05,0.17578125,0,0
1.70516602793214E-06,-1.85751687240554E-05,0.17578125,0,0
3.60345688932284E-06,-2.05513169930782E-05,0.17578125,0,0
3.1582490009896E-06,-1.46436714203446E-05,0.17578125,0,0
3.79209745915432E-06,-1.661625901761E-05,0.17578125,0,0
3.63983667739376E-06,-1.49352363223443E-05,0.17578125,0,0
5.32569038114161E-06,-1.6511387002538E-05,0.17578125,0,0
5.5764844546502E-06,-1.67220860021189E-05,0.17578125,0,0
5.05703701492166E-06,-1.76367957465118E-05,0.17578125,0,0
3.52891970578639E-06,-1.73943153640721E-05,0.17578125,0,0
1.65514961736335E-06,-1.4221287528926E-05,0.17578125,0,0
2.05781498152646E-06,-1.25235210362007E-05,0.17578125,0,0
3.14613635055139E-06,-1.25500437206938E-05,0.17578125,0,0
3.98560950998217E-06,-1.57035447045928E-05,0.17578125,0,0
3.30968555317668E-06,-1.52508091559866E-05,0.17578125,0,0
3.12940755975433E-06,-1.65155179274734E-05,0.17578125,0,0
3.78830372937955E-06,-1.68592086993158E-05,0.17578125,0,0
5.1550628086261E-06,-1.85229037015233E-05,0.17578125,0,0
4.84091287944466E-06,-1.73055705090519E-05,0.17578125,0,0
4.02037221647333E-06,-1.66305217135232E-05,0.17578125,0,0
3.31755313709436E-06,-1.36102471515187E-05,0.17578125,0,0
4.22495668317424E-06,-1.22491701404215E-05,0.17578125,0,0
4.80814833281329E-06,-1.29133195514441E-05,0.17578125,0,0
4.32848901255056E-06,-1.49661491377628E-05,0.17578125,0,0
1.93482105714793E-06,-1.61482421390247E-05,0.17578125,0,0
-4.7230068389581E-07,-1.57580925588263E-05,0.17578125,0,0
4.21996389832202E-07,-1.24133166536922E-05,0.17578125,0,0
1.88124295164016E-06,-1.75851346284617E-05,0.17578125,0,0
2.36582718571299E-06,-1.36995349748759E-05,0.17578125,0,0
2.52024801739026E-06,-1.75446257344447E-05,0.17578125,0,0
4.09192489314592E-06,-1.53958553710254E-05,0.17578125,0,0
5.59214959139354E-06,-1.7278318409808E-05,0.17578125,0,0
6.7875253080274E-06,-1.72336258401629E-05,0.17578125,0,0
5.80741061639856E-06,-1.91631843335927E-05,0.17578125,0,0
4.56197039966355E-06,-1.81583400262753E-05,0.17578125,0,0
4.02304249291774E-06,-1.60555682668928E-05,0.17578125,0,0
3.91876028515981E-06,-1.45292433444411E-05,0.17578125,0,0
4.62877187601407E-06,-1.45970761877834E-05,0.17578125,0,0
4.80528387925006E-06,-1.6844551282702E-05,0.17578125,0,0
3.32308718498098E-06,-1.69066806847695E-05,0.17578125,0,0
1.72083548477531E-06,-1.70470302691683E-05,0.17578125,0,0
1.63890319981874E-06,-1.60031249833992E-05,0.17578125,0,0
1.65792800999043E-06,-1.67144662555074E-05,0.17578125,0,0
1.64132109148341E-06,-1.57870963448659E-05,0.17578125,0,0
3.00163833344413E-06,-1.61897896759911E-05,0.17578125,0,0
5.44639487998211E-06,-1.68833848874783E-05,0.17578125,0,0
5.70283464185195E-06,-1.93066371139139E-05,0.17578125,0,0
4.4550874918059E-06,-1.94161511899438E-05,0.17578125,0,0
3.92199945054017E-06,-1.87354398804018E-05,0.17578125,0,0
4.12205372413155E-06,-1.64733955898555E-05,0.17578125,0,0
5.17094713359256E-06,-1.50352234413731E-05,0.17578125,0,0
6.1722198552161E-06,-1.5585363144055E-05,0.17578125,0,0
6.38963365418022E-06,-1.48667068060604E-05,0.17578125,0,0
2.70143959824054E-06,-1.10403725557262E-05,0.17578125,0,0
2.71180306299357E-06,-1.61882999236695E-05,0.17578125,0,0
1.71063197740295E-06,-1.29753407236421E-05,0.17578125,0,0
3.59266005034442E-06,-1.58350339916069E-05,0.17578125,0,0
2.57878764386987E-06,-1.34528563648928E-05,0.17578125,0,0
2.87373813989689E-06,-1.57731228682678E-05,0.17578125,0,0
2.43072076955286E-06,-1.49050538311712E-05,0.17578125,0,0
3.32494732901978E-06,-1.42035287353792E-05,0.17578125,0,0
3.21786365020671E-06,-1.42244944072445E-05,0.17578125,0,0
1.6092101304821E-06,-1.64973007485969E-05,0.17578125,0,0
-5.52753533611394E-07,-1.85223489097552E-05,0.17578125,0,0
-1.57714555371058E-06,-1.757809513947E-05,0.17578125,0,0
-3.6364923516885E-07,-1.76601333805593E-05,0.17578125,0,0
1.31067031361454E-06,-1.83956635737559E-05,0.17578125,0,0
2.27018972509541E-06,-1.9504112060531E-05,0.17578125,0,0
1.96693827092531E-06,-1.80325914698187E-05,0.17578125,0,0
2.17620458897727E-06,-1.75547447724966E-05,0.17578125,0,0
2.38198845181614E-06,-1.67271882673958E-05,0.17578125,0,0
2.18459922507463E-06,-1.81935392902233E-05,0.17578125,0,0
2.89399878283803E-07,-1.91148374142358E-05,0.17578125,0,0
-1.59920557507576E-06,-1.9823257389362E-05,0.17578125,0,0
-2.79011874226853E-06,-1.98435191123281E-05,0.17578125,0,0
-2.0298623439885E-06,-1.88839640031802E-05,0.17578125,0,0
-1.19469888204549E-07,-1.63285476446617E-05,0.17578125,0,0
1.11517329060007E-06,-1.60214840434492E-05,0.17578125,0,0
8.43784846438211E-08,-1.71273641171865E-05,0.17578125,0,0
-9.70472569861158E-07,-1.70963339769514E-05,0.17578125,0,0
-1.07673110960604E-06,-1.32085051518516E-05,0.17578125,0,0
-1.69201734934177E-06,-1.96902874449734E-05,0.17578125,0,0
-7.25972313375678E-07,-1.83002994162962E-05,0.17578125,0,0
-4.44065051397047E-07,-2.50039865932195E-05,0.17578125,0,0
-9.86517420642485E-07,-2.26069714699406E-05,0.17578125,0,0
-1.14313320409565E-06,-2.31795347644947E-05,0.17578125,0,0
1.55588665506912E-07,-2.1214786102064E-05,0.17578125,0,0
1.40850988827879E-06,-2.21522295760224E-05,0.17578125,0,0
3.16154660140455E-06,-2.17088181670988E-05,0.17578125,0,0
3.98323663830524E-06,-2.19415378523991E-05,0.17578125,0,0
3.22566143040603E-06,-2.25324947678018E-05,0.17578125,0,0
1.62097728662047E-06,-2.1232757717371E-05,0.17578125,0,0
5.66912490285176E-07,-2.04988118639449E-05,0.17578125,0,0
1.17132333343761E-06,-1.950811019924E-05,0.17578125,0,0
2.62286380348087E-06,-2.02945811906829E-05,0.17578125,0,0
3.88039734389167E-06,-1.86339948413661E-05,0.17578125,0,0
4.50295101472875E-06,-1.77395668288227E-05,0.17578125,0,0
5.17947319167433E-06,-1.595387038833E-05,0.17578125,0,0
5.35686467628693E-06,-1.63122203957755E-05,0.17578125,0,0
5.65803838981083E-06,-1.65320670930669E-05,0.17578125,0,0
5.6381454669463E-06,-1.756129131536E-05,0.17578125,0,0
5.46798855793895E-06,-1.65099390869727E-05,0.17578125,0,0
6.60451405565254E-06,-1.71135961863911E-05,0.17578125,0,0
7.88587294664467E-06,-1.82787189260125E-05,0.17578125,0,0
7.15177066012984E-06,-1.90517366718268E-05,0.17578125,0,0
6.18155036136159E-06,-1.86273846338736E-05,0.17578125,0,0
6.08310074312612E-06,-1.66733843798283E-05,0.17578125,0,0
3.7979632452334E-06,-1.21218799904454E-05,0.17578125,0,0
4.77639196105883E-06,-1.64289722306421E-05,0.17578125,0,0
3.66526160178182E-06,-1.02145013443078E-05,0.17578125,0,0
5.52665096620331E-06,-1.27949242596515E-05,0.17578125,0,0
4.26415817855741E-06,-1.23149502542219E-05,0.17578125,0,0
4.45186651631957E-06,-1.64607936312677E-05,0.17578125,0,0
3.92609217669815E-06,-1.69380928127794E-05,0.17578125,0,0
4.33330023952294E-06,-1.85755143320421E-05,0.17578125,0,0
3.16929731525306E-06,-1.77117435669061E-05,0.17578125,0,0
2.07762741410988E-06,-1.7248767107958E-05,0.17578125,0,0
2.26682050197269E-06,-1.88977810466895E-05,0.17578125,0,0
2.43451677306439E-06,-1.92358238564339E-05,0.17578125,0,0
2.46907302425825E-06,-1.88230660569388E-05,0.17578125,0,0
2.20825495489407E-06,-1.71770043380093E-05,0.17578125,0,0
3.02926491713151E-06,-1.77371002791915E-05,0.17578125,0,0
3.56485338670609E-06,-1.827628693718E-05,0.17578125,0,0
4.14430769524188E-06,-2.05124524654821E-05,0.17578125,0,0
3.7680665627704E-06,-1.91027156688506E-05,0.17578125,0,0
3.3811036246334E-06,-1.62467767950147E-05,0.17578125,0,0
2.52122140409483E-06,-1.31389679154381E-05,0.17578125,0,0
2.49134654950467E-06,-1.47916107380297E-05,0.17578125,0,0
1.55031636950298E-06,-1.82179319381248E-05,0.17578125,0,0
5.90457602811512E-07,-1.97346053028014E-05,0.17578125,0,0
7.64846447509626E-07,-1.75331533682765E-05,0.17578125,0,0
1.92781817531795E-06,-1.53359469550196E-05,0.17578125,0,0
2.54463930104976E-06,-1.56959704327164E-05,0.17578125,0,0
2.34207732319192E-06,-1.58249622472795E-05,0.17578125,0,0
2.04667617254017E-06,-1.07596561065293E-05,0.17578125,0,0
4.0822742448654E-06,-1.62070900842082E-05,0.17578125,0,0
4.18670060753357E-06,-1.501103361079E-05,0.17578125,0,0
3.86895180781721E-06,-1.84514228749322E-05,0.17578125,0,0
2.4174937607313E-06,-1.44424029713264E-05,0.17578125,0,0
1.51091364841704E-06,-1.42056942422641E-05,0.17578125,0,0
1.41899624850339E-06,-1.25775222841185E-05,0.17578125,0,0
2.77609728982497E-06,-1.48387480294332E-05,0.17578125,0,0
3.69478016182256E-06,-1.57988670252962E-05,0.17578125,0,0
3.28839905705536E-06,-1.64443645189749E-05,0.17578125,0,0
2.84720249510428E-06,-1.65816400112817E-05,0.17578125,0,0
3.49469701177441E-06,-1.51704789459473E-05,0.17578125,0,0
4.53277834822075E-06,-1.50618989209761E-05,0.17578125,0,0
4.12462986787432E-06,-1.55558991536964E-05,0.17578125,0,0
2.71903900284087E-06,-1.73676598933525E-05,0.17578125,0,0
1.88632520803367E-06,-1.77689562406158E-05,0.17578125,0,0
1.91887147593661E-06,-1.9307322872919E-05,0.17578125,0,0
1.82971734830062E-06,-2.00320464500692E-05,0.17578125,0,0
2.4278306227643E-06,-2.18370769289322E-05,0.17578125,0,0
3.62017703992024E-06,-2.12001123145455E-05,0.17578125,0,0
5.07520553583163E-06,-2.0550472981995E-05,0.17578125,0,0
5.30599390913267E-06,-1.92725728993537E-05,0.17578125,0,0
5.12249198436621E-06,-1.84139116754523E-05,0.17578125,0,0
5.22509435540996E-06,-1.73931748577161E-05,0.17578125,0,0
4.83637904835632E-06,-1.78339378180681E-05,0.17578125,0,0
4.64960703538964E-06,-1.94996937352698E-05,0.17578125,0,0
5.48359457752667E-06,-2.21085465454962E-05,0.17578125,0,0
4.19829029851826E-06,-1.8093651306117E-05,0.17578125,0,0
5.36478455614997E-06,-2.44362727244152E-05,0.17578125,0,0
3.72068416254479E-06,-1.56692985910922E-05,0.17578125,0,0
5.63992034585681E-06,-1.93059695448028E-05,0.17578125,0,0
5.2726654757862E-06,-1.61577427206794E-05,0.17578125,0,0
5.77892524233903E-06,-2.03632716875291E-05,0.17578125,0,0
4.48123091700836E-06,-1.99297592189396E-05,0.17578125,0,0
3.86292413168121E-06,-2.20009769691387E-05,0.17578125,0,0
2.46497643274779E-06,-2.15132367884507E-05,0.17578125,0,0
1.56021292241348E-06,-2.06347176572308E-05,0.17578125,0,0
1.00106512945786E-06,-2.08057481358992E-05,0.17578125,0,0
2.01425064005889E-06,-2.12062950595282E-05,0.17578125,0,0
3.75610852643149E-06,-2.24535469897091E-05,0.17578125,0,0
3.49904553331726E-06,-2.08939000003738E-05,0.17578125,0,0
2.55192412623728E-06,-2.1085830667289E-05,0.17578125,0,0
1.78822119778488E-06,-1.87152600119589E-05,0.17578125,0,0
3.18350771522091E-06,-1.73776661540614E-05,0.17578125,0,0
4.36402797276969E-06,-1.3479510016623E-05,0.17578125,0,0
4.38330016550026E-06,-1.13818359750439E-05,0.17578125,0,0
2.26222073251847E-06,-9.82628898782423E-06,0.17578125,0,0
6.62821435071237E-07,-1.21775956358761E-05,0.17578125,0,0
2.84645665260541E-07,-1.35324980874429E-05,0.17578125,0,0
2.01460443349788E-06,-1.44589239425841E-05,0.17578125,0,0
4.04613274440635E-06,-1.44993819048977E-05,0.17578125,0,0
5.29284034200828E-06,-1.71963456523372E-05,0.17578125,0,0
5.30856050318107E-06,-1.98590005311416E-05,0.17578125,0,0
5.5561458793818E-06,-1.97339595615631E-05,0.17578125,0,0
4.774859007739E-06,-1.48506287587225E-05,0.17578125,0,0
6.76262607157696E-06,-2.02941737370566E-05,0.17578125,0,0
5.17289845447522E-06,-1.45606818477972E-05,0.17578125,0,0
5.56413533558953E-06,-1.91448780242354E-05,0.17578125,0,0
2.88835781248054E-06,-1.71104129549349E-05,0.17578125,0,0
2.27367240768217E-06,-1.89141519513214E-05,0.17578125,0,0
1.67414111729158E-06,-1.5636753232684E-05,0.17578125,0,0
2.46737727138679E-06,-1.54763874888886E-05,0.17578125,0,0
2.96140819955326E-06,-1.5310706658056E-05,0.17578125,0,0
3.83337282983121E-06,-1.69413651747163E-05,0.17578125,0,0
4.77727553516161E-06,-1.85474709724076E-05,0.17578125,0,0
5.29188309883466E-06,-1.78333375515649E-05,0.17578125,0,0
5.79824154556263E-06,-1.79847447725479E-05,0.17578125,0,0
6.03238504481851E-06,-1.70821167557733E-05,0.17578125,0,0
7.00310647516744E-06,-1.74473880178994E-05,0.17578125,0,0
7.23239054423175E-06,-1.70632047229446E-05,0.17578125,0,0
7.47788180888165E-06,-1.99938294827007E-05,0.17578125,0,0
6.88438422002946E-06,-2.0242510800017E-05,0.17578125,0,0
6.34285561318393E-06,-1.97062472580001E-05,0.17578125,0,0
5.00139822179335E-06,-1.85794269782491E-05,0.17578125,0,0
4.59132797914208E-06,-2.05158230528468E-05,0.17578125,0,0
4.24202426074771E-06,-2.21149366552709E-05,0.17578125,0,0
4.0625754991197E-06,-2.33465470955707E-05,0.17578125,0,0
3.44810564456566E-06,-2.19445992115652E-05,0.17578125,0,0
2.16859734791797E-06,-2.04183597816154E-05,0.17578125,0,0
2.33913783631579E-06,-1.90974988072412E-05,0.17578125,0,0
4.43364569946425E-06,-1.80849056050647E-05,0.17578125,0,0
3.41231407219311E-06,-1.34918009280227E-05,0.17578125,0,0
3.51436028722674E-06,-1.78300033439882E-05,0.17578125,0,0
5.2125062666164E-07,-1.13131836769753E-05,0.17578125,0,0
5.90299293889984E-07,-1.42257804327528E-05,0.17578125,0,0
-3.55418279696096E-07,-1.27026041809586E-05,0.17578125,0,0
1.36622111313045E-06,-1.61095613293583E-05,0.17578125,0,0
2.50813377533632E-06,-1.47468508657767E-05,0.17578125,0,0
3.81137010663224E-06,-1.61013522301801E-05,0.17578125,0,0
4.04803631681716E-06,-1.66272548085544E-05,0.17578125,0,0
3.50149684891221E-06,-1.80843308044132E-05,0.17578125,0,0
3.86787178285886E-06,-1.91155941138277E-05,0.17578125,0,0
4.20482547269785E-06,-1.79970211320324E-05,0.17578125,0,0
4.52691438113106E-06,-1.83732845471241E-05,0.17578125,0,0
4.72231431558612E-06,-1.7698166629998E-05,0.17578125,0,0
5.02660350321094E-06,-1.78664213308366E-05,0.17578125,0,0
4.70643726657727E-06,-1.65141900652088E-05,0.17578125,0,0
5.18915703651146E-06,-1.7432439562981E-05,0.17578125,0,0
4.64827644464094E-06,-1.75438181031495E-05,0.17578125,0,0
3.69173108083487E-06,-1.85464068636065E-05,0.17578125,0,0
3.16432101499231E-06,-1.66985009855125E-05,0.17578125,0,0
4.26769656769466E-06,-1.6080901332316E-05,0.17578125,0,0
5.06943933942239E-06,-1.72716954693897E-05,0.17578125,0,0
5.18041724717477E-06,-2.00383674382465E-05,0.17578125,0,0
5.22409436598537E-06,-1.94387102965266E-05,0.17578125,0,0
5.12292990606511E-06,-1.72810214280616E-05,0.17578125,0,0
4.63072592538083E-06,-1.62418218678795E-05,0.17578125,0,0
4.1510656956234E-06,-1.62816959345946E-05,0.17578125,0,0
3.12621500597743E-06,-1.32173245219747E-05,0.17578125,0,0
3.93015398003627E-06,-1.82334842975251E-05,0.17578125,0,0
2.87657439912437E-06,-1.22891005958081E-05,0.17578125,0,0
4.85585042042658E-06,-1.33670882860315E-05,0.17578125,0,0
4.11935570809874E-06,-8.87844180397224E-06,0.17578125,0,0
3.19146965921391E-06,-9.97612642095191E-06,0.17578125,0,0
3.99947253981736E-07,-7.88202760304557E-06,0.17578125,0,0
-1.71029944340262E-06,-9.52590562519617E-06,0.17578125,0,0
-1.88073738627281E-06,-1.15456796265789E-05,0.17578125,0,0
-3.95708923406346E-07,-1.3580954146164E-05,0.17578125,0,0
9.34803097152326E-07,-1.34170704768621E-05,0.17578125,0,0
1.17814977329544E-06,-1.17749495984754E-05,0.17578125,0,0
1.20230686206924E-06,-1.30321186588844E-05,0.17578125,0,0
4.66108559749046E-07,-1.39955791382818E-05,0.17578125,0,0
5.93124298120529E-07,-1.62680971698137E-05,0.17578125,0,0
1.19882793114812E-06,-1.57412505359389E-05,0.17578125,0,0
1.47132300298836E-06,-1.55815941980109E-05,0.17578125,0,0
1.01134375540823E-07,-1.52840348164318E-05,0.17578125,0,0
-7.08733352894342E-07,-1.81476279976778E-05,0.17578125,0,0
-9.58012492446869E-07,-1.91785038623493E-05,0.17578125,0,0
-1.58188743171195E-06,-1.86283414222999E-05,0.17578125,0,0
-2.31775447900873E-06,-1.6628790035611E-05,0.17578125,0,0
-1.18977209240256E-06,-1.68753704201663E-05,0.17578125,0,0
4.41967330289117E-07,-1.73322350747185E-05,0.17578125,0,0
1.04727678262861E-06,-1.69971408467973E-05,0.17578125,0,0
1.13686962777138E-06,-1.64263856277103E-05,0.17578125,0,0
1.19770027140476E-06,-1.77713409357239E-05,0.17578125,0,0
1.37162442115368E-06,-1.56668611452915E-05,0.17578125,0,0
2.58237650996307E-06,-2.04013940674486E-05,0.17578125,0,0
2.18629588744079E-06,-1.1771348908951E-05,0.17578125,0,0
6.1862363054388E-07,-1.37707374960883E-05,0.17578125,0,0
-5.99331713146967E-07,-1.07351879705675E-05,0.17578125,0,0
3.03604366536092E-07,-1.55216766870581E-05,0.17578125,0,0
9.18097441626742E-07,-1.67832367878873E-05,0.17578125,0,0
1.22057758744631E-06,-1.85228745976929E-05,0.17578125,0,0
-1.81674109089869E-09,-1.73733296833234E-05,0.17578125,0,0
-1.39003464028065E-06,-1.67977432283806E-05,0.17578125,0,0
-1.27977170905069E-06,-1.64319753821474E-05,0.17578125,0,0
-8.81104995187343E-07,-1.59116498252843E-05,0.17578125,0,0
-6.29895851034235E-07,-1.66486697708024E-05,0.17578125,0,0
-4.98742451782164E-07,-1.56498590513365E-05,0.17578125,0,0
5.21241076967272E-07,-1.56369387696031E-05,0.17578125,0,0
1.19771357276477E-06,-1.38491477628122E-05,0.17578125,0,0
5.34946195784869E-07,-1.50116356962826E-05,0.17578125,0,0
-2.48076901243621E-07,-1.55952038767282E-05,0.17578125,0,0
3.09303743506462E-07,-1.85334702109685E-05,0.17578125,0,0
1.05548713236203E-06,-1.94428575923666E-05,0.17578125,0,0
9.07555545381911E-07,-2.05551677936455E-05,0.17578125,0,0
1.60225994250141E-07,-2.01092298084404E-05,0.17578125,0,0
9.80224896807158E-08,-2.03626004804391E-05,0.17578125,0,0
6.7538860548666E-07,-1.96542059711646E-05,0.17578125,0,0
1.29417446714797E-06,-2.01069888134953E-05,0.17578125,0,0
1.33293667659018E-06,-2.17767410504166E-05,0.17578125,0,0
2.53314078690892E-06,-2.24244340643054E-05,0.17578125,0,0
4.21589948018664E-06,-1.62022442964371E-05,0.17578125,0,0
5.73908801015932E-06,-2.13189650821732E-05,0.17578125,0,0
3.17635431201779E-06,-1.49424204209936E-05,0.17578125,0,0
3.51862513525703E-06,-1.92257048183819E-05,0.17578125,0,0
3.16942669087439E-06,-1.57832600962138E-05,0.17578125,0,0
4.64995446236571E-06,-1.98605521291029E-05,0.17578125,0,0
3.84855911761406E-06,-1.89729707926745E-05,0.17578125,0,0
2.47318462243129E-06,-1.9809951481875E-05,0.17578125,0,0
1.42492717714049E-06,-1.84417476702947E-05,0.17578125,0,0
1.95408324543678E-06,-1.89013935596449E-05,0.17578125,0,0
4.27161694460665E-06,-1.96964738279348E-05,0.17578125,0,0
5.8865348364634E-06,-1.97894260054454E-05,0.17578125,0,0
5.70581778447377E-06,-2.16865228139795E-05,0.17578125,0,0
3.89566412195563E-06,-2.13629464269616E-05,0.17578125,0,0
3.46780370819033E-06,-2.1638745238306E-05,0.17578125,0,0
4.45547948402236E-06,-2.03149502340239E-05,0.17578125,0,0
6.47998558633844E-06,-2.27391046792036E-05,0.17578125,0,0
7.5225880209473E-06,-2.26613938139053E-05,0.17578125,0,0
7.61811406846391E-06,-2.19952962652314E-05,0.17578125,0,0
6.03984472036245E-06,-1.97271147044376E-05,0.17578125,0,0
4.11259406973841E-06,-2.07712146220729E-05,0.17578125,0,0
2.34894446293765E-06,-2.08942583412863E-05,0.17578125,0,0
2.02472824639699E-06,-2.05478463612963E-05,0.17578125,0,0
2.03580316338048E-06,-1.79242233571131E-05,0.17578125,0,0
1.24150619740249E-06,-1.70269559021108E-05,0.17578125,0,0
1.70194095971965E-06,-1.87011501111556E-05,0.17578125,0,0
3.44216505254735E-06,-2.00353479158366E-05,0.17578125,0,0
1.49737286392337E-06,-1.43082597787725E-05,0.17578125,0,0
-3.68529924799077E-07,-1.82034164026845E-05,0.17578125,0,0
-3.65150731340691E-06,-1.24428488561534E-05,0.17578125,0,0
-2.78990410151891E-06,-1.67485068232054E-05,0.17578125,0,0
-4.0086669628181E-07,-1.20277209134656E-05,0.17578125,0,0
2.72163924819324E-06,-1.38944096761406E-05,0.17578125,0,0
2.8902386475238E-06,-1.42632843562751E-05,0.17578125,0,0
1.98403677131864E-06,-1.69584345712792E-05,0.17578125,0,0
4.52359159908156E-07,-1.79616945388261E-05,0.17578125,0,0
7.47585374938353E-07,-2.0117828171351E-05,0.17578125,0,0
2.25079224946967E-06,-2.08227211260237E-05,0.17578125,0,0
4.0655772863829E-06,-2.08083420147887E-05,0.17578125,0,0
5.17640955877141E-06,-2.31506346608512E-05,0.17578125,0,0
4.84216798213311E-06,-2.26602132897824E-05,0.17578125,0,0
4.49398476121132E-06,-2.15463314816589E-05,0.17578125,0,0
3.98714337279671E-06,-1.84422588063171E-05,0.17578125,0,0
3.73762668459676E-06,-1.92639326996868E-05,0.17578125,0,0
3.22944265462866E-06,-1.96581167983823E-05,0.17578125,0,0
3.4719280392892E-06,-2.06348795472877E-05,0.17578125,0,0
3.09529650621698E-06,-1.92046991287498E-05,0.17578125,0,0
3.67709526472026E-06,-1.87936311704107E-05,0.17578125,0,0
6.84006954543293E-06,-1.65882247529225E-05,0.17578125,0,0
1.03284874057863E-05,-1.61183324962622E-05,0.17578125,0,0
1.04603213912924E-05,-1.72706313605886E-05,0.17578125,0,0
9.11863207875285E-06,-1.91535509657115E-05,0.17578125,0,0
8.00368343334412E-06,-1.87721580005018E-05,0.17578125,0,0
6.75070305078407E-06,-1.75918230524985E-05,0.17578125,0,0
6.40763937553857E-06,-1.28003102872754E-05,0.17578125,0,0
9.87276871455833E-06,-1.75325112650171E-05,0.17578125,0,0
8.21733920020051E-06,-1.32878940348746E-05,0.17578125,0,0
8.85035933606559E-06,-1.74407978192903E-05,0.17578125,0,0
6.93956326358602E-06,-1.4079005268286E-05,0.17578125,0,0
7.65226468502078E-06,-1.43325269164052E-05,0.17578125,0,0
6.85256645738264E-06,-1.23893178169965E-05,0.17578125,0,0
6.27016379439738E-06,-1.42981443786994E-05,0.17578125,0,0
4.6352483877854E-06,-1.42401959237759E-05,0.17578125,0,0
4.26162432631827E-06,-1.40225547511363E-05,0.17578125,0,0
4.71219664177625E-06,-1.37530396386865E-05,0.17578125,0,0
4.74888565804577E-06,-1.29085628941539E-05,0.17578125,0,0
4.4103790060035E-06,-1.36449862111476E-05,0.17578125,0,0
2.29224724535015E-06,-1.35198697535088E-05,0.17578125,0,0
6.23394782905962E-07,-1.4765452760912E-05,0.17578125,0,0
-6.10646964105399E-07,-1.46530646816245E-05,0.17578125,0,0
1.0020119134424E-07,-1.61502302944427E-05,0.17578125,0,0
7.68552126828581E-07,-1.49295165101648E-05,0.17578125,0,0
2.59186231232889E-06,-1.34747160700499E-05,0.17578125,0,0
3.93552863897639E-06,-1.12043426270247E-05,0.17578125,0,0
5.07194681631518E-06,-1.15757929961546E-05,0.17578125,0,0
4.7659877964179E-06,-1.31689712361549E-05,0.17578125,0,0
4.69944734504679E-06,-1.65160563483369E-05,0.17578125,0,0
5.11433654537541E-06,-1.72970721905585E-05,0.17578125,0,0
5.51138509763405E-06,-1.65801666298648E-05,0.17578125,0,0
4.78912807011511E-06,-1.61537045642035E-05,0.17578125,0,0
4.46377362095518E-06,-1.54599365487229E-05,0.17578125,0,0
3.68435053132998E-06,-1.11772233140073E-05,0.17578125,0,0
5.48012621948146E-06,-1.61193711392116E-05,0.17578125,0,0
3.73830266653385E-06,-1.32456216306309E-05,0.17578125,0,0
5.27897145730094E-06,-1.68403948919149E-05,0.17578125,0,0
6.48132436253945E-06,-1.41761775012128E-05,0.17578125,0,0
7.23932225810131E-06,-1.6782591046649E-05,0.17578125,0,0
6.60306295685587E-06,-1.79308062797645E-05,0.17578125,0,0
6.88863156028674E-06,-1.86087854672223E-05,0.17578125,0,0
6.49846379019436E-06,-1.7131296772277E-05,0.17578125,0,0
4.39910536442767E-06,-1.73811276908964E-05,0.17578125,0,0
2.14703641177039E-06,-1.88278281711973E-05,0.17578125,0,0
1.27162047647289E-06,-1.90976115845842E-05,0.17578125,0,0
1.28161400425597E-06,-1.88717876881128E-05,0.17578125,0,0
1.26451041637665E-07,-1.68731967278291E-05,0.17578125,0,0
-5.14960731834435E-07,-1.6065436284407E-05,0.17578125,0,0
1.97991880668269E-07,-1.46651445902535E-05,0.17578125,0,0
2.17769706978288E-06,-1.55371053551789E-05,0.17578125,0,0
2.90965135718579E-06,-1.58511393237859E-05,0.17578125,0,0
2.26058568841836E-06,-1.68397873494541E-05,0.17578125,0,0
1.18659033887525E-06,-1.62203978106845E-05,0.17578125,0,0
1.30592127334239E-06,-1.59780829562806E-05,0.17578125,0,0
2.06390132007073E-06,-1.5619818441337E-05,0.17578125,0,0
3.10421455651522E-06,-1.67617872648407E-05,0.17578125,0,0
2.64636469182733E-06,-1.74128254002426E-05,0.17578125,0,0
1.73617024756823E-06,-1.80787410499761E-05,0.17578125,0,0
1.53394773860782E-06,-1.92079169210047E-05,0.17578125,0,0
1.51766755607241E-07,-2.0546163796098E-05,0.17578125,0,0
-8.13874919458613E-07,-1.66001791512826E-05,0.17578125,0,0
-3.74035437289422E-07,-2.15136878978228E-05,0.17578125,0,0
2.03294325729075E-06,-1.58177717821673E-05,0.17578125,0,0
4.01688157580793E-06,-2.31491321756039E-05,0.17578125,0,0
4.700989848061E-06,-1.9762532247114E-05,0.17578125,0,0
2.956962589451E-06,-2.18282821151661E-05,0.17578125,0,0
1.7211513068105E-06,-2.08045548788505E-05,0.17578125,0,0
1.63412300935306E-06,-2.34784420172218E-05,0.17578125,0,0
1.66421250469284E-06,-2.39551955019124E-05,0.17578125,0,0
2.15205386666639E-06,-2.40872104768641E-05,0.17578125,0,0
3.04468494505272E-06,-2.39604942180449E-05,0.17578125,0,0
3.062179303015E-06,-2.22582511923974E-05,0.17578125,0,0
2.02632418222493E-06,-2.14529391087126E-05,0.17578125,0,0
1.40013014515716E-06,-2.00579270313028E-05,0.17578125,0,0
1.94074391401955E-06,-2.16929292946588E-05,0.17578125,0,0
3.88871512768674E-06,-2.12455961445812E-05,0.17578125,0,0
5.15345800522482E-06,-2.18205623241374E-05,0.17578125,0,0
5.0922749323945E-06,-1.92147908819607E-05,0.17578125,0,0
4.83518397231819E-06,-1.72413056134246E-05,0.17578125,0,0
4.84138627143693E-06,-1.47271293826634E-05,0.17578125,0,0
3.72614749721834E-06,-1.61406842380529E-05,0.17578125,0,0
2.43771887653566E-06,-1.75803306774469E-05,0.17578125,0,0
2.06124445867317E-06,-1.95551929209614E-05,0.17578125,0,0
1.85474368663563E-06,-1.82316089194501E-05,0.17578125,0,0
9.76969658950111E-07,-1.59192804858321E-05,0.17578125,0,0
-9.43404245390411E-07,-1.45270887514926E-05,0.17578125,0,0
-7.67744893437339E-07,-1.53638393385336E-05,0.17578125,0,0
1.0866947377508E-06,-1.40439469760167E-05,0.17578125,0,0
1.68117219345731E-06,-2.04365769604919E-05,0.17578125,0,0
2.31158836072609E-07,-1.52172124217032E-05,0.17578125,0,0
2.8554438813444E-07,-1.71405972650973E-05,0.17578125,0,0
1.9057570170844E-06,-1.39343219416332E-05,0.17578125,0,0
3.6603535136237E-06,-1.67392463481519E-05,0.17578125,0,0
5.03427327203099E-06,-1.56118203449296E-05,0.17578125,0,0
4.87754368805327E-06,-1.43338384077651E-05,0.17578125,0,0
4.08603045798372E-06,-1.21242183013237E-05,0.17578125,0,0
4.60259843748645E-06,-1.29121426653001E-05,0.17578125,0,0
5.58877900402877E-06,-1.41412010634667E-05,0.17578125,0,0
5.45370812687906E-06,-1.35795917231007E-05,0.17578125,0,0
5.03822548125754E-06,-1.43015649882727E-05,0.17578125,0,0
5.3862922868575E-06,-1.42867102113087E-05,0.17578125,0,0
5.86824216952664E-06,-1.51778149302118E-05,0.17578125,0,0
5.39411348654539E-06,-1.39366566145327E-05,0.17578125,0,0
3.90944251194014E-06,-1.4367833500728E-05,0.17578125,0,0
2.47834486799547E-06,-1.4807852494414E-05,0.17578125,0,0
2.56200269177498E-06,-1.76879202626878E-05,0.17578125,0,0
3.80696292268112E-06,-1.88083613466006E-05,0.17578125,0,0
4.24779045715695E-06,-1.97779882000759E-05,0.17578125,0,0
3.29285398947832E-06,-1.89844759006519E-05,0.17578125,0,0
3.1339475299319E-06,-1.81036721187411E-05,0.17578125,0,0
4.41044494436937E-06,-1.55436518980423E-05,0.17578125,0,0
5.60978241992416E-06,-1.38276518555358E-05,0.17578125,0,0
7.12313340045512E-06,-1.47952177940169E-05,0.17578125,0,0
8.63561581354588E-06,-1.68129245139426E-05,0.17578125,0,0
6.92336789143155E-06,-1.48484978126362E-05,0.17578125,0,0
8.96876463230001E-06,-2.20047313632676E-05,0.17578125,0,0
5.02751618114416E-06,-1.80543029273395E-05,0.17578125,0,0
6.39213067188393E-06,-2.05352098419098E-05,0.17578125,0,0
5.16798536409624E-06,-1.55359375639819E-05,0.17578125,0,0
7.00583404977806E-06,-1.75521236087661E-05,0.17578125,0,0
6.34177740721498E-06,-1.62448286573635E-05,0.17578125,0,0
6.04795877734432E-06,-1.64661050803261E-05,0.17578125,0,0
5.38222138857236E-06,-1.57276335812639E-05,0.17578125,0,0
4.68662983621471E-06,-1.65614164870931E-05,0.17578125,0,0
4.70194527224521E-06,-1.7411110093235E-05,0.17578125,0,0
5.16174668518943E-06,-1.72387135535246E-05,0.17578125,0,0
5.70974270885927E-06,-1.84586788236629E-05,0.17578125,0,0
4.84403108202969E-06,-1.79931193997618E-05,0.17578125,0,0
4.65738276034244E-06,-1.89764177775942E-05,0.17578125,0,0
3.75267336494289E-06,-1.83524152816972E-05,0.17578125,0,0
2.85557462120778E-06,-1.90625214600004E-05,0.17578125,0,0
1.18746436328365E-06,-1.86951456271345E-05,0.17578125,0,0
1.0395923482065E-06,-1.94981712411391E-05,0.17578125,0,0
7.37248456061934E-07,-1.76361209014431E-05,0.17578125,0,0
3.891172184467E-07,-1.66495428857161E-05,0.17578125,0,0
-9.64683977144887E-07,-1.56596997840097E-05,0.17578125,0,0
-1.23433483167901E-06,-1.65097335411701E-05,0.17578125,0,0
-2.0478670137436E-07,-1.69330724020256E-05,0.17578125,0,0
1.31855222207378E-06,-1.70248658832861E-05,0.17578125,0,0
1.55183442984708E-06,-1.63151999004185E-05,0.17578125,0,0
1.76045341504505E-06,-1.63679123943439E-05,0.17578125,0,0
2.87770330942294E-06,-1.40373913382064E-05,0.17578125,0,0
4.17490537074627E-06,-1.93906744243577E-05,0.17578125,0,0
1.66455163252976E-06,-1.41908631121623E-05,0.17578125,0,0
1.04541265955049E-06,-1.82807307282928E-05,0.17578125,0,0
1.46172624226892E-06,-1.57420672621811E-05,0.17578125,0,0
2.65812741417903E-06,-1.64466346177505E-05,0.17578125,0,0
2.84553038909507E-06,-1.29533918880043E-05,0.17578125,0,0
2.4359999315493E-06,-1.46178435898037E-05,0.17578125,0,0
2.16864327740041E-06,-1.63035656441934E-05,0.17578125,0,0
2.99438920592365E-06,-1.72094969457248E-05,0.17578125,0,0
4.54669725513668E-06,-1.76956400537165E-05,0.17578125,0,0
4.83956591779133E-06,-1.68008791661123E-05,0.17578125,0,0
3.73414218302059E-06,-1.82309104275191E-05,0.17578125,0,0
2.0049321847182E-06,-1.86455672519514E-05,0.17578125,0,0
1.49983486608107E-06,-1.86790166480932E-05,0.17578125,0,0
2.19656385525013E-06,-1.61885855050059E-05,0.17578125,0,0
3.10092673316831E-06,-1.64833509188611E-05,0.17578125,0,0
2.90446337203321E-06,-1.67471880558878E-05,0.17578125,0,0
2.33896776080655E-06,-1.81423984031426E-05,0.17578125,0,0
2.2966930828261E-06,-1.69661743711913E-05,0.17578125,0,0
3.55699717147218E-06,-1.59384580911137E-05,0.17578125,0,0
4.54482187706162E-06,-1.49341012729565E-05,0.17578125,0,0
4.22643825004343E-06,-1.6224434148171E-05,0.17578125,0,0
3.69283179679769E-06,-1.76581288542366E-05,0.17578125,0,0
3.83381302526686E-06,-1.95989850908518E-05,0.17578125,0,0
3.66147060049116E-06,-2.05696869670646E-05,0.17578125,0,0
2.6695747692429E-06,-1.97817225853214E-05,0.17578125,0,0
2.32216871154378E-06,-1.4434240256378E-05,0.17578125,0,0
3.41241320711561E-06,-1.93273881450295E-05,0.17578125,0,0
2.70785881184565E-06,-1.48027274917695E-05,0.17578125,0,0
3.01758450405032E-06,-2.01603215828072E-05,0.17578125,0,0
2.58921545537305E-06,-1.74440938280895E-05,0.17578125,0,0
3.24289817399404E-06,-2.11008482438046E-05,0.17578125,0,0
3.10795780933404E-06,-1.99049572984222E-05,0.17578125,0,0
3.12869678964489E-06,-1.97470799321309E-05,0.17578125,0,0
2.52188056037994E-06,-1.8646160242497E-05,0.17578125,0,0
1.58434079366998E-06,-1.82912808668334E-05,0.17578125,0,0
1.37238509978488E-06,-1.77932379301637E-05,0.17578125,0,0
1.71988835973025E-06,-1.6567933926126E-05,0.17578125,0,0
2.06791992241051E-06,-1.72130985447438E-05,0.17578125,0,0
1.66996608186309E-06,-1.66409263329115E-05,0.17578125,0,0
8.88863553427655E-07,-1.73824264493305E-05,0.17578125,0,0
-3.86622716064267E-08,-1.7313197531621E-05,0.17578125,0,0
2.63332879057998E-07,-2.00793692783918E-05,0.17578125,0,0
5.47284741969634E-07,-2.0166888134554E-05,0.17578125,0,0
4.42520615706599E-07,-1.9725210222532E-05,0.17578125,0,0
-3.9169694332486E-07,-1.83307365659857E-05,0.17578125,0,0
-1.81703580892645E-06,-2.00838785531232E-05,0.17578125,0,0
-3.5096106785204E-06,-2.0958845198038E-05,0.17578125,0,0
-3.06948049910716E-06,-2.15647414734121E-05,0.17578125,0,0
-1.36545691020729E-06,-2.07735647563823E-05,0.17578125,0,0
3.05841638237325E-07,-1.97122608369682E-05,0.17578125,0,0
6.05072443704557E-07,-1.84583605005173E-05,0.17578125,0,0
-4.72808892482135E-07,-1.94708809431177E-05,0.17578125,0,0
-2.67620379190703E-07,-1.64713837875752E-05,0.17578125,0,0
-2.60733941104263E-07,-2.15763448068174E-05,0.17578125,0,0
-8.57832958445215E-07,-1.41600357892457E-05,0.17578125,0,0
-1.11167855720851E-06,-1.8972914404003E-05,0.17578125,0,0
5.01960926158063E-07,-1.51108715726878E-05,0.17578125,0,0
1.53947030412382E-06,-1.6870681065484E-05,0.17578125,0,0
2.11445967579493E-06,-1.52535521920072E-05,0.17578125,0,0
1.76531148099457E-06,-1.58952843776206E-05,0.17578125,0,0
8.93971389359649E-07,-1.49235183926066E-05,0.17578125,0,0
1.27101060343193E-07,-1.49729148688493E-05,0.17578125,0,0
1.53887157239296E-07,-1.50610267155571E-05,0.17578125,0,0
1.19172284485103E-06,-1.39447010951699E-05,0.17578125,0,0
2.43416502598848E-06,-1.52403517859057E-05,0.17578125,0,0
3.20980416290695E-06,-1.69192571775056E-05,0.17578125,0,0
3.63088565791259E-06,-1.97284225578187E-05,0.17578125,0,0
5.2627656259574E-06,-1.82633939402876E-05,0.17578125,0,0
7.13255985829164E-06,-1.72163217939669E-05,0.17578125,0,0
8.11055633676006E-06,-1.51812919284566E-05,0.17578125,0,0
8.41244127514074E-06,-1.74642555066384E-05,0.17578125,0,0
8.05190848041093E-06,-1.79607577592833E-05,0.17578125,0,0
7.39134793548146E-06,-1.69110844581155E-05,0.17578125,0,0
8.00632824393688E-06,-1.41691934913979E-05,0.17578125,0,0
9.03730415302562E-06,-1.42431536005461E-05,0.17578125,0,0
9.04884745978052E-06,-1.56334426719695E-05,0.17578125,0,0
7.67714027460897E-06,-1.78026330104331E-05,0.17578125,0,0
6.44001920591109E-06,-1.91474100574851E-05,0.17578125,0,0
5.4389756769524E-06,-1.85026055987692E-05,0.17578125,0,0
3.39868893206585E-06,-1.39010307975695E-05,0.17578125,0,0
4.31636817666003E-06,-1.93296727957204E-05,0.17578125,0,0
2.16050034396176E-06,-1.42325643537333E-05,0.17578125,0,0
3.10512928081153E-06,-1.75202676473418E-05,0.17578125,0,0
3.33493471771362E-06,-1.44129417094518E-05,0.17578125,0,0
4.10872280554031E-06,-1.60330037033418E-05,0.17578125,0,0
4.01112947656657E-06,-1.47401024150895E-05,0.17578125,0,0
5.41402459930396E-06,-1.72334930539364E-05,0.17578125,0,0
5.98888846070622E-06,-1.83371630555484E-05,0.17578125,0,0
5.18322258358239E-06,-1.80250699486351E-05,0.17578125,0,0
4.45329351350665E-06,-1.68740207300289E-05,0.17578125,0,0
4.40243775301497E-06,-1.66880618053256E-05,0.17578125,0,0
4.0669365262147E-06,-1.83369756996399E-05,0.17578125,0,0
3.13472423840722E-06,-1.77328784047859E-05,0.17578125,0,0
3.57315479959652E-06,-1.73749667737866E-05,0.17578125,0,0
4.68153848487418E-06,-1.58190723595908E-05,0.17578125,0,0
5.76089769310784E-06,-1.72889886016492E-05,0.17578125,0,0
4.7340245146188E-06,-1.7251575627597E-05,0.17578125,0,0
3.1500935619988E-06,-1.79624566953862E-05,0.17578125,0,0
2.22240714720101E-06,-1.6921778296819E-05,0.17578125,0,0
3.35477420776442E-06,-1.64145512826508E-05,0.17578125,0,0
4.78990159535897E-06,-1.59859700943343E-05,0.17578125,0,0
5.07520417158958E-06,-1.66040099429665E-05,0.17578125,0,0
3.88898570236051E-06,-1.47704076880473E-05,0.17578125,0,0
3.21810989589721E-06,-1.34948704726412E-05,0.17578125,0,0
3.45012608704565E-06,-1.37326960611972E-05,0.17578125,0,0
3.13262830786698E-06,-1.42036551551428E-05,0.17578125,0,0
3.27754582940543E-06,-1.05055360108963E-05,0.17578125,0,0
5.42167390449322E-06,-1.38268151204102E-05,0.17578125,0,0
5.58370447834022E-06,-9.59764201979851E-06,0.17578125,0,0
6.3683860389574E-06,-1.38766481541097E-05,0.17578125,0,0
5.07344520883635E-06,-1.33826642922941E-05,0.17578125,0,0
4.70828808829538E-06,-1.6386240531574E-05,0.17578125,0,0
3.78959884983487E-06,-1.68395017681178E-05,0.17578125,0,0
4.05644050260889E-06,-1.78562877408694E-05,0.17578125,0,0
3.13400823870325E-06,-1.73511107277591E-05,0.17578125,0,0
2.4300620680151E-06,-1.74146025528898E-05,0.17578125,0,0
2.61960940406425E-06,-1.81253362825373E-05,0.17578125,0,0
2.16469015867915E-06,-1.85797143785749E-05,0.17578125,0,0
2.50086009145889E-06,-1.89548318303423E-05,0.17578125,0,0
2.46187255470431E-06,-1.64017710631015E-05,0.17578125,0,0
1.90216610462812E-06,-1.50677715282654E-05,0.17578125,0,0
8.47682542826078E-07,-1.49798770507914E-05,0.17578125,0,0
3.29877451576976E-07,-1.73765747604193E-05,0.17578125,0,0
-6.40824566744413E-07,-1.75060540641425E-05,0.17578125,0,0
-9.39060441851325E-07,-1.71907904586988E-05,0.17578125,0,0
-7.11102131845109E-07,-1.61000862135552E-05,0.17578125,0,0
-5.15109320531337E-07,-1.77650417754194E-05,0.17578125,0,0
-1.44671935231599E-06,-2.02339615498204E-05,0.17578125,0,0
-1.18750438105053E-06,-2.23185015784111E-05,0.17578125,0,0
1.09006236925779E-06,-2.23419483518228E-05,0.17578125,0,0
3.88871512768674E-06,-2.220182432211E-05,0.17578125,0,0
6.01874990024953E-06,-2.13684998016106E-05,0.17578125,0,0
6.35621427136357E-06,-1.91699982678983E-05,0.17578125,0,0
2.85613759842818E-06,-1.3877934179618E-05,0.17578125,0,0
2.22744165512268E-06,-1.92223778867628E-05,0.17578125,0,0
1.65985625244502E-07,-1.42701574077364E-05,0.17578125,0,0
1.38766699819826E-06,-1.81365267053479E-05,0.17578125,0,0
5.41863869329973E-07,-1.51871472553466E-05,0.17578125,0,0
1.65614835623273E-06,-1.7236150597455E-05,0.17578125,0,0
1.87225623449194E-06,-1.65263300004881E-05,0.17578125,0,0
1.59586431891512E-06,-1.8576176444185E-05,0.17578125,0,0
-8.75387673460182E-09,-1.84966756933136E-05,0.17578125,0,0
-1.03105014659377E-06,-1.95267275557853E-05,0.17578125,0,0
-1.79453195414681E-06,-2.02484734472819E-05,0.17578125,0,0
-9.83072141025332E-07,-1.95216489373706E-05,0.17578125,0,0
7.73214537730382E-07,-1.99879759748001E-05,0.17578125,0,0
1.75393290646753E-06,-1.98869329324225E-05,0.17578125,0,0
1.93903110812244E-06,-2.21296450035879E-05,0.17578125,0,0
5.44912337474557E-09,-2.25964085984742E-05,0.17578125,0,0
-1.15234070108272E-06,-2.33703485719161E-05,0.17578125,0,0
-8.04071646598459E-07,-2.03915569727542E-05,0.17578125,0,0
6.14938187482039E-07,-1.82369039976038E-05,0.17578125,0,0
9.08419849565689E-07,-1.6245669030468E-05,0.17578125,0,0
1.81137932031561E-06,-1.68806618603412E-05,0.17578125,0,0
3.689704954013E-06,-1.66420704772463E-05,0.17578125,0,0
5.37625373908668E-06,-1.62983524205629E-05,0.17578125,0,0
4.08931509809918E-06,-1.47414020830183E-05,0.17578125,0,0
3.40084784511419E-06,-1.34769306896487E-05,0.17578125,0,0
4.11635664931964E-06,-1.33284975163406E-05,0.17578125,0,0
4.39935865870211E-06,-1.43688021125854E-05,0.17578125,0,0
2.3176880858955E-06,-1.36373782879673E-05,0.17578125,0,0
3.02516968986311E-06,-2.02470146177802E-05,0.17578125,0,0
2.50537141255336E-06,-1.50991281770985E-05,0.17578125,0,0
3.99557211494539E-06,-1.66562022059225E-05,0.17578125,0,0
3.7928809888399E-06,-1.39466719701886E-05,0.17578125,0,0
3.72785325453151E-06,-1.61293846758781E-05,0.17578125,0,0
2.88570618067752E-06,-1.50546857184963E-05,0.17578125,0,0
4.02687192035955E-06,-1.58923776325537E-05,0.17578125,0,0
6.04121532887802E-06,-1.57048434630269E-05,0.17578125,0,0
6.89573425916024E-06,-1.60949985001935E-05,0.17578125,0,0
6.03314174441039E-06,-1.55833004100714E-05,0.17578125,0,0
3.75372428607079E-06,-1.44776131492108E-05,0.17578125,0,0
2.16286184695491E-06,-1.57314771058736E-05,0.17578125,0,0
2.50251309807936E-06,-1.58679613377899E-05,0.17578125,0,0
4.2868023228948E-06,-1.6451369447168E-05,0.17578125,0,0
5.22153186466312E-06,-1.53174150909763E-05,0.17578125,0,0
5.18233446200611E-06,-1.72761647263542E-05,0.17578125,0,0
5.25711675436469E-06,-1.87583245860878E-05,0.17578125,0,0
6.61814328850596E-06,-2.10123507713433E-05,0.17578125,0,0
7.05018464941531E-06,-2.12658942473354E-05,0.17578125,0,0
5.96774270889E-06,-2.23554034164408E-05,0.17578125,0,0
4.03189233111334E-06,-2.26802931138081E-05,0.17578125,0,0
2.47480784310028E-06,-2.15754662349354E-05,0.17578125,0,0
3.10354175780958E-06,-1.88904341484886E-05,0.17578125,0,0
6.73013164487202E-06,-1.76988469320349E-05,0.17578125,0,0
9.08190759218996E-06,-1.72836680576438E-05,0.17578125,0,0
7.8583916547359E-06,-1.5330593669205E-05,0.17578125,0,0
4.48899754701415E-06,-9.95446771412389E-06,0.17578125,0,0
5.33794354851125E-06,-1.41126301969052E-05,0.17578125,0,0
1.94421181731741E-06,-1.17912113637431E-05,0.17578125,0,0
2.18159175346955E-06,-1.6600861272309E-05,0.17578125,0,0
1.32686341203225E-06,-1.59281917149201E-05,0.17578125,0,0
2.62198750533571E-06,-1.71019564731978E-05,0.17578125,0,0
2.88566729977902E-06,-1.51987769640982E-05,0.17578125,0,0
2.89795252683689E-06,-1.53574728756212E-05,0.17578125,0,0
1.35101197429321E-06,-1.57194608618738E-05,0.17578125,0,0
6.38842550415575E-07,-1.64728953677695E-05,0.17578125,0,0
8.96881431344809E-07,-1.66317113325931E-05,0.17578125,0,0
1.43107354233507E-06,-1.63553449965548E-05,0.17578125,0,0
2.17961428461422E-06,-1.77531619556248E-05,0.17578125,0,0
2.08557571568235E-06,-1.88726517080795E-05,0.17578125,0,0
2.41420161728456E-06,-1.96688633877784E-05,0.17578125,0,0
2.83286385638348E-06,-1.74679062183714E-05,0.17578125,0,0
3.92334322896204E-06,-1.50128471432254E-05,0.17578125,0,0
4.40886378783034E-06,-1.24203133964329E-05,0.17578125,0,0
4.63513606518973E-06,-1.35416885314044E-05,0.17578125,0,0
2.62789035332389E-06,-1.45635285662138E-05,0.17578125,0,0
6.09778396665206E-07,-1.48510198414442E-05,0.17578125,0,0
-4.19889545355545E-07,-1.33253897729446E-05,0.17578125,0,0
9.74004166209852E-08,-1.24711668831878E-05,0.17578125,0,0
-1.21990623824786E-07,-1.27850762510207E-05,0.17578125,0,0
-1.23588245060091E-06,-1.54410408867989E-05,0.17578125,0,0
-1.81774254315314E-07,-1.70047387655359E-05,0.17578125,0,0
4.30298860010225E-06,-1.68943879543804E-05,0.17578125,0,0
5.30294209966087E-06,-1.42877224789117E-05,0.17578125,0,0
5.58050578547409E-06,-2.03256568056531E-05,0.17578125,0,0
6.06157527727191E-07,-1.4974806617829E-05,0.17578125,0,0
1.64335244789982E-06,-1.90119208127726E-05,0.17578125,0,0
2.44728903453506E-06,-1.67608322954038E-05,0.17578125,0,0
4.22378343500895E-06,-1.79826947714901E-05,0.17578125,0,0
3.56113218913379E-06,-1.5845045709284E-05,0.17578125,0,0
3.23267045132525E-06,-1.72143099916866E-05,0.17578125,0,0
1.29145269056608E-06,-1.85743974725483E-05,0.17578125,0,0
1.0460172461535E-07,-2.03054678422632E-05,0.17578125,0,0
-4.69226989707749E-07,-2.00216218217975E-05,0.17578125,0,0
-5.26036046721856E-07,-1.77804686245508E-05,0.17578125,0,0
2.74193666882638E-07,-1.79033286258345E-05,0.17578125,0,0
2.02720798370137E-07,-1.88245503522921E-05,0.17578125,0,0
9.35351522457495E-07,-2.11315182241378E-05,0.17578125,0,0
2.49506570071389E-06,-2.06742824957473E-05,0.17578125,0,0
4.74376247439068E-06,-2.14996271097334E-05,0.17578125,0,0
4.44334546045866E-06,-1.995882121264E-05,0.17578125,0,0
4.22056382376468E-06,-1.80436145456042E-05,0.17578125,0,0
4.97296605317388E-06,-1.51583362821839E-05,0.17578125,0,0
7.37200434741681E-06,-1.49740408232901E-05,0.17578125,0,0
8.04846695245942E-06,-1.54804802150466E-05,0.17578125,0,0
7.36826677893987E-06,-1.86443321581464E-05,0.17578125,0,0
5.33181901118951E-06,-1.99164915102301E-05,0.17578125,0,0
2.73546038442873E-06,-1.93507348740241E-05,0.17578125,0,0
1.88133139999991E-06,-1.7802010916057E-05,0.17578125,0,0
4.0401805563306E-06,-1.62644028023351E-05,0.17578125,0,0
5.72602129977895E-06,-1.45751191666932E-05,0.17578125,0,0
7.98593737272313E-06,-2.30648656724952E-05,0.17578125,0,0
4.4971516217629E-06,-1.97320950974245E-05,0.17578125,0,0
4.06928938900819E-06,-2.18703135033138E-05,0.17578125,0,0
3.8677408156218E-06,-1.82574040081818E-05,0.17578125,0,0
6.37998891761526E-06,-1.99081805476453E-05,0.17578125,0,0
6.26196697339765E-06,-1.90337832464138E-05,0.17578125,0,0
6.78062360748299E-06,-2.07799766940298E-05,0.17578125,0,0
6.00352313995245E-06,-2.08878464036388E-05,0.17578125,0,0
4.54133760285913E-06,-2.21475547732553E-05,0.17578125,0,0
3.92147330785519E-06,-2.21481059270445E-05,0.17578125,0,0
4.40683879787684E-06,-1.92187435459346E-05,0.17578125,0,0
5.5776122280804E-06,-1.80345687113004E-05,0.17578125,0,0
4.9810555537988E-06,-1.74064698512666E-05,0.17578125,0,0
4.21579306930653E-06,-1.85981079994235E-05,0.17578125,0,0
3.24668781104265E-06,-1.83583106263541E-05,0.17578125,0,0
3.46398201145348E-06,-1.94462973013287E-05,0.17578125,0,0
3.45828334502585E-06,-1.94471540453378E-05,0.17578125,0,0
4.35339870819007E-06,-2.074868643831E-05,0.17578125,0,0
5.27512474945979E-06,-1.80107217602199E-05,0.17578125,0,0
6.2738959059061E-06,-1.43170182127506E-05,0.17578125,0,0
5.4741963140259E-06,-1.22796727737295E-05,0.17578125,0,0
5.09064329889952E-06,-1.46837310239789E-05,0.17578125,0,0
5.12480528414017E-06,-1.75184031832032E-05,0.17578125,0,0
4.96534312333097E-06,-1.93732175830519E-05,0.17578125,0,0
5.04962736158632E-06,-1.85838471224997E-05,0.17578125,0,0
4.41971496911719E-06,-1.74439901456935E-05,0.17578125,0,0
2.05522837859462E-06,-1.45732992677949E-05,0.17578125,0,0
3.41730105901661E-06,-2.20156089199008E-05,0.17578125,0,0
2.85903524854803E-06,-1.71892406797269E-05,0.17578125,0,0
1.09108282231318E-06,-1.86811939784093E-05,0.17578125,0,0
-1.64528785262519E-06,-1.51898348121904E-05,0.17578125,0,0
-1.50863706949167E-06,-1.81524119398091E-05,0.17578125,0,0
-1.23539473406709E-06,-1.82811672857497E-05,0.17578125,0,0
-1.25812402984593E-06,-1.97834960999899E-05,0.17578125,0,0
-1.37090569296561E-06,-1.8812379494193E-05,0.17578125,0,0
-1.1379281659174E-06,-1.87033238034928E-05,0.17578125,0,0
-1.01031935173523E-06,-1.75610912265256E-05,0.17578125,0,0
-8.46575005652994E-07,-1.45277044794057E-05,0.17578125,0,0
-1.11601491425972E-06,-1.35004420371843E-05,0.17578125,0,0
-1.97695976567047E-06,-1.37927809191751E-05,0.17578125,0,0
-1.79738265160267E-06,-1.64910925377626E-05,0.17578125,0,0
-9.67595212841843E-08,-1.65568908414571E-05,0.17578125,0,0
2.08238316190545E-06,-1.69466347870184E-05,0.17578125,0,0
3.23554718306696E-06,-1.51221174746752E-05,0.17578125,0,0
3.20954563903797E-06,-1.51369131344836E-05,0.17578125,0,0
1.40609176924045E-06,-1.52398824866395E-05,0.17578125,0,0
4.05388732360734E-07,-1.68024616868934E-05,0.17578125,0,0
1.23577046906576E-06,-1.64057037181919E-05,0.17578125,0,0
3.16114414999902E-06,-1.64583198056789E-05,0.17578125,0,0
4.78626134281512E-06,-1.63004569913028E-05,0.17578125,0,0
6.31836837783339E-06,-1.62652668223018E-05,0.17578125,0,0
7.19423178452416E-06,-1.50798814502195E-05,0.17578125,0,0
7.08578818375827E-06,-1.47946784636588E-05,0.17578125,0,0
4.7533408178424E-06,-1.18502921395702E-05,0.17578125,0,0
6.91752484272001E-06,-1.72262061823858E-05,0.17578125,0,0
5.21272067999234E-06,-1.50521336763632E-05,0.17578125,0,0
7.25105337551213E-06,-1.96000601135893E-05,0.17578125,0,0
7.36752599550528E-06,-1.6753116142354E-05,0.17578125,0,0
8.15323619463015E-06,-1.83223783096764E-05,0.17578125,0,0
7.18143201083876E-06,-1.82374769792659E-05,0.17578125,0,0
5.8749155869009E-06,-2.03792715183226E-05,0.17578125,0,0
4.24381778429961E-06,-1.9320741557749E-05,0.17578125,0,0
3.67343091056682E-06,-1.81337654794334E-05,0.17578125,0,0
3.55559859599452E-06,-1.8240776626044E-05,0.17578125,0,0
3.46222441294231E-06,-1.77883757714881E-05,0.17578125,0,0
3.68633959624276E-06,-1.87935638678027E-05,0.17578125,0,0
3.59183218279213E-06,-1.93017076526303E-05,0.17578125,0,0
4.32887009083061E-06,-2.08992532861885E-05,0.17578125,0,0
5.43572377864621E-06,-2.16113785427297E-05,0.17578125,0,0
6.07317906542448E-06,-2.43383929046104E-05,0.17578125,0,0
4.15861586589017E-06,-2.43698887061328E-05,0.17578125,0,0
2.44714465225115E-06,-2.39827732002595E-05,0.17578125,0,0
1.56331850575953E-06,-2.2564381652046E-05,0.17578125,0,0
1.52024927047023E-06,-2.17316919588484E-05,0.17578125,0,0
1.26209067730088E-06,-1.99366022570757E-05,0.17578125,0,0
2.00148201656702E-06,-1.81907362275524E-05,0.17578125,0,0
3.06301035379875E-06,-1.52613083628239E-05,0.17578125,0,0
3.28750161315838E-06,-1.44294599522254E-05,0.17578125,0,0
3.06551419271273E-06,-1.55687339429278E-05,0.17578125,0,0
2.53519033321936E-06,-1.60656836669659E-05,0.17578125,0,0
9.63710249379801E-07,-1.29471909531276E-05,0.17578125,0,0
1.87079251645628E-06,-1.87650421139551E-05,0.17578125,0,0
2.94367009701091E-06,-1.51035337694339E-05,0.17578125,0,0
3.93836262446712E-06,-1.83883748832159E-05,0.17578125,0,0
3.2851116884558E-06,-1.45736185004353E-05,0.17578125,0,0
2.64426807916607E-06,-1.5060645637277E-05,0.17578125,0,0
2.38314214584534E-06,-1.41327927849488E-05,0.17578125,0,0
2.17269780478091E-06,-1.66162171808537E-05,0.17578125,0,0
1.67282644270017E-06,-1.70738549059024E-05,0.17578125,0,0
2.35596326092491E-06,-1.6686977687641E-05,0.17578125,0,0
3.39558232553827E-06,-1.58099028340075E-05,0.17578125,0,0
4.58184103990789E-06,-1.48538683788502E-05,0.17578125,0,0
5.33226011611987E-06,-1.50366140587721E-05,0.17578125,0,0
4.1726625568117E-06,-1.34976544359233E-05,0.17578125,0,0
3.31585670210188E-06,-1.3631145520776E-05,0.17578125,0,0
4.56158068118384E-06,-1.31346023408696E-05,0.17578125,0,0
5.92975220570224E-06,-1.43709639814915E-05,0.17578125,0,0
5.16379122927901E-06,-1.37916640596814E-05,0.17578125,0,0
3.78482445739792E-06,-1.40409847517731E-05,0.17578125,0,0
2.78510287898825E-06,-1.34903930302244E-05,0.17578125,0,0
1.48827257362427E-06,-1.45038529808517E-05,0.17578125,0,0
2.46467692477381E-07,-1.46193942782702E-05,0.17578125,0,0
1.11518465928384E-06,-1.58250131789828E-05,0.17578125,0,0
1.67265477557521E-06,-1.69536724570207E-05,0.17578125,0,0
7.45628554454925E-08,-1.83136162377195E-05,0.17578125,0,0
-1.42442706874135E-06,-1.92567531485111E-05,0.17578125,0,0
-1.1368763352948E-06,-1.96107012016E-05,0.17578125,0,0
4.14997259667871E-07,-1.42880362545839E-05,0.17578125,0,0
2.80995436696685E-06,-2.03294130187714E-05,0.17578125,0,0
5.0848584578489E-06,-1.66126828844426E-05,0.17578125,0,0
4.07381548939156E-06,-2.14737483474892E-05,0.17578125,0,0
1.57021156610426E-06,-1.81388695636997E-05,0.17578125,0,0
5.61016292977001E-07,-1.95252960111247E-05,0.17578125,0,0
1.74130843788589E-06,-1.61372881848365E-05,0.17578125,0,0
2.91985725198174E-06,-1.56596088345395E-05,0.17578125,0,0
4.07362631449359E-06,-1.50202622535289E-05,0.17578125,0,0
4.83628809888614E-06,-1.59451374202035E-05,0.17578125,0,0
4.50727475254098E-06,-1.82460244104732E-05,0.17578125,0,0
3.85708426620113E-06,-1.88625508599216E-05,0.17578125,0,0
3.99242162529845E-06,-1.91669114428805E-05,0.17578125,0,0
3.80674873667886E-06,-1.81597242772114E-05,0.17578125,0,0
2.23576807911741E-06,-1.92837487702491E-05,0.17578125,0,0
6.91942204866791E-07,-1.91399230971001E-05,0.17578125,0,0
6.61361809761729E-07,-2.00039430637844E-05,0.17578125,0,0
2.2764822915633E-06,-1.84738801181084E-05,0.17578125,0,0
2.82565110865107E-06,-1.85136577783851E-05,0.17578125,0,0
1.58303362240986E-06,-1.76324410858797E-05,0.17578125,0,0
3.47546034618063E-07,-1.77209512912668E-05,0.17578125,0,0
2.07281942721238E-07,-1.67349207913503E-05,0.17578125,0,0
6.8522200535881E-07,-1.66248755704146E-05,0.17578125,0,0
1.75801517343643E-06,-1.64493812917499E-05,0.17578125,0,0
2.44649572778144E-06,-1.64236316777533E-05,0.17578125,0,0
2.73954151452926E-06,-1.62979449669365E-05,0.17578125,0,0
2.94225583274965E-06,-1.57947906700429E-05,0.17578125,0,0
1.2212008186907E-06,-1.1860847735079E-05,0.17578125,0,0
1.48419894685503E-06,-1.70832390722353E-05,0.17578125,0,0
9.38947550821467E-07,-1.39874136948492E-05,0.17578125,0,0
8.74239617587591E-07,-1.7267559087486E-05,0.17578125,0,0
-1.77986891003457E-07,-1.43322058647755E-05,0.17578125,0,0
3.72428075934295E-07,-1.57814192789374E-05,0.17578125,0,0
1.88037631687621E-06,-1.52861830429174E-05,0.17578125,0,0
3.14286489810911E-06,-1.76768771780189E-05,0.17578125,0,0
2.34491972150863E-06,-1.76898283825722E-05,0.17578125,0,0
1.91341268873657E-06,-1.65451656357618E-05,0.17578125,0,0
3.34570017912483E-06,-1.52857992361533E-05,0.17578125,0,0
4.87137003801763E-06,-1.48581175380968E-05,0.17578125,0,0
4.76073819299927E-06,-1.68210281117354E-05,0.17578125,0,0
4.31238095188746E-06,-1.7151409338112E-05,0.17578125,0,0
5.35044728167122E-06,-1.73107873706613E-05,0.17578125,0,0
6.82658264850033E-06,-1.67259968293365E-05,0.17578125,0,0
7.48360980651341E-06,-1.94443437067093E-05,0.17578125,0,0
6.88850013830233E-06,-2.10609377973014E-05,0.17578125,0,0
6.16302713751793E-06,-2.19228786590975E-05,0.17578125,0,0
5.78815934204613E-06,-2.07168668566737E-05,0.17578125,0,0
6.20241053184145E-06,-2.08753226615954E-05,0.17578125,0,0
6.09366679782397E-06,-1.99226997210644E-05,0.17578125,0,0
5.63643425266491E-06,-1.96415967366192E-05,0.17578125,0,0
5.7694451243151E-06,-1.95543216250371E-05,0.17578125,0,0
6.7992241383763E-06,-2.00242302526021E-05,0.17578125,0,0
7.04527701600455E-06,-2.00827307708096E-05,0.17578125,0,0
6.1576015468745E-06,-1.97152021428337E-05,0.17578125,0,0
5.16985573995044E-06,-1.5794561477378E-05,0.17578125,0,0
8.14547001937171E-06,-2.2182608518051E-05,0.17578125,0,0
6.87428519086097E-06,-1.58438615471823E-05,0.17578125,0,0
6.36414188193157E-06,-1.80933748197276E-05,0.17578125,0,0
2.69871929958754E-06,-1.43790293805068E-05,0.17578125,0,0
2.16650892070902E-06,-1.72698328242404E-05,0.17578125,0,0
2.65497646978474E-06,-1.55767411342822E-05,0.17578125,0,0
4.47641605205718E-06,-1.63823424372822E-05,0.17578125,0,0
4.72795454697916E-06,-1.56835267262068E-05,0.17578125,0,0
4.23957817474729E-06,-1.48477356560761E-05,0.17578125,0,0
2.57482679444365E-06,-1.34194988277159E-05,0.17578125,0,0
1.48529454691015E-06,-1.34702177092549E-05,0.17578125,0,0
3.10155292027048E-06,-1.58298989845207E-05,0.17578125,0,0
4.81056622447795E-06,-1.52857064676937E-05,0.17578125,0,0
5.74932710151188E-06,-1.50184896483552E-05,0.17578125,0,0
5.73635406908579E-06,-1.34762194647919E-05,0.17578125,0,0
6.00760495217401E-06,-1.51573030962027E-05,0.17578125,0,0
4.21540380557417E-06,-1.65521832968807E-05,0.17578125,0,0
1.85419901299611E-06,-1.95568300114246E-05,0.17578125,0,0
1.79255650323284E-07,-1.92090737982653E-05,0.17578125,0,0
1.40171187013038E-06,-1.83589654625393E-05,0.17578125,0,0
2.9963480301376E-06,-1.58978455147007E-05,0.17578125,0,0
3.8840526030981E-06,-1.4750832633581E-05,0.17578125,0,0
3.6179014841764E-06,-1.3924420272815E-05,0.17578125,0,0
