biceps_emg, triceps_emg, subject_position, position_estimate, brace_position
-3.45771477441303E-05,9.9940762083861E-06,1.40625,0,0
-2.61285404121736E-05,8.63709647092037E-06,1.40625,0,0
-3.05636058328673E-05,1.22252231449238E-05,1.40625,0,0
-2.53589296335122E-05,1.37373945108266E-05,1.40625,0,0
-2.84401139651891E-05,1.61028456204804E-05,1.40625,0,0
-2.55936720350292E-05,1.44187379191862E-05,1.40625,0,0
-2.5913790523191E-05,1.18969219329301E-05,1.40625,0,0
-2.4713177481317E-05,8.89481270860415E-06,1.40625,0,0
-2.49527347477851E-05,7.80582740844693E-06,1.40625,0,0
-2.58065429079579E-05,9.30300848267507E-06,1.40625,0,0
-2.5839619411272E-05,1.16133460323908E-05,1.40625,0,0
-2.75968195637688E-05,1.33242310766946E-05,1.40625,0,0
-2.75744114333065E-05,1.22424398796284E-05,1.40625,0,0
-2.97706683340948E-05,1.19680789794074E-05,1.40625,0,0
-2.88827050098917E-05,1.38229124786449E-05,1.40625,0,0
-3.00096744467737E-05,1.75098866748158E-05,1.40625,0,0
-2.82180499198148E-05,1.94023632502649E-05,1.40625,0,0
-2.87635066342773E-05,2.10822236113017E-05,1.40625,0,0
-2.73034147539875E-05,2.15794734685915E-05,1.40625,0,0
-2.66505176114151E-05,2.05331489269156E-05,1.40625,0,0
-2.43216272792779E-05,1.74413307831855E-05,1.40625,0,0
-2.54366568697151E-05,1.50628366100136E-05,1.40625,0,0
-2.7530415536603E-05,1.34793699544389E-05,1.40625,0,0
-2.90559237328125E-05,1.20696522571961E-05,1.40625,0,0
-2.8653359549935E-05,8.59823194332421E-06,1.40625,0,0
-2.72053475782741E-05,6.26169082806882E-07,1.40625,0,0
-2.16643056774046E-05,-8.82847234606743E-06,1.40625,0,0
-3.15406250592787E-05,-1.64078737725504E-05,1.40625,0,0
-2.46132567554014E-05,-1.28332676467835E-05,1.40625,0,0
-2.95857589662774E-05,-7.66536322771572E-06,1.40625,0,0
-2.47156076511601E-05,-3.50928019088315E-07,1.40625,0,0
-2.77031504083425E-05,3.19181617669528E-06,1.40625,0,0
-2.60518190771108E-05,5.27780593984062E-06,1.40625,0,0
-2.67798313871026E-05,6.67114272800973E-06,1.40625,0,0
-2.45548671955476E-05,1.04280152299907E-05,1.40625,0,0
-2.34348717640387E-05,1.12652360257925E-05,1.40625,0,0
-2.35937332035974E-05,7.91246839071391E-06,1.40625,0,0
-2.35159695876064E-05,4.06845401812461E-06,1.40625,0,0
-2.46817053266568E-05,2.34020694733772E-06,1.40625,0,0
-2.27417731366586E-05,4.28775456384756E-06,1.40625,0,0
-2.26588454097509E-05,6.99010979587911E-06,1.40625,0,0
-2.10734615393449E-05,9.70789278653683E-06,1.40625,0,0
-2.20438323594863E-05,1.01994155556895E-05,1.40625,0,0
-2.02987539523747E-05,1.12048410301213E-05,1.40625,0,0
-2.03150830202503E-05,1.21717848742264E-05,1.40625,0,0
-1.88167014130158E-05,1.25402330013458E-05,1.40625,0,0
-1.91604267456569E-05,1.11119388748193E-05,1.40625,0,0
-1.76692210516194E-05,1.09678130684188E-05,1.40625,0,0
-1.70187540788902E-05,1.2170416994195E-05,1.40625,0,0
-1.6199426681851E-05,1.26163149616332E-05,1.40625,0,0
-1.69729773915606E-05,1.22901265058317E-05,1.40625,0,0
-1.71537976711988E-05,1.2625049748749E-05,1.40625,0,0
-1.73456301126862E-05,1.19822179840412E-05,1.40625,0,0
-1.55511897901306E-05,1.01693012766191E-05,1.40625,0,0
-2.30813493544701E-05,1.54747194756055E-05,1.40625,0,0
-1.78660739038605E-05,1.33715475385543E-05,1.40625,0,0
-2.09771878871834E-05,1.64836328622187E-05,1.40625,0,0
-1.86946090252604E-05,1.36483295136713E-05,1.40625,0,0
-2.09492573048919E-05,1.43879960887716E-05,1.40625,0,0
-1.93578762264224E-05,1.25329352158587E-05,1.40625,0,0
-2.02223509404575E-05,1.14439471872174E-05,1.40625,0,0
-1.92791321751429E-05,9.46083400776843E-06,1.40625,0,0
-1.8248299966217E-05,9.13043004402425E-06,1.40625,0,0
-1.68161095643882E-05,9.69702432485064E-06,1.40625,0,0
-1.45950298247044E-05,1.05425615402055E-05,1.40625,0,0
-1.38848799906555E-05,1.25823535199743E-05,1.40625,0,0
-1.32095883600414E-05,1.24258504001773E-05,1.40625,0,0
-1.59688315761741E-05,1.11625813588034E-05,1.40625,0,0
-1.78800819412572E-05,8.93942888069432E-06,1.40625,0,0
-1.99012793018483E-05,9.80254753812915E-06,1.40625,0,0
-1.85623084689723E-05,1.07783771454706E-05,1.40625,0,0
-1.84408891072962E-05,1.26029817693052E-05,1.40625,0,0
-1.85799108294304E-05,1.29240997921443E-05,1.40625,0,0
-2.15133259189315E-05,1.45735548358061E-05,1.40625,0,0
-2.28294738917612E-05,1.70979565154994E-05,1.40625,0,0
-2.26973115786677E-05,1.92416355275782E-05,1.40625,0,0
-2.02758565137628E-05,1.8237116819364E-05,1.40625,0,0
-1.90831178770168E-05,1.74202050402528E-05,1.40625,0,0
-1.95715365407523E-05,1.79015169123886E-05,1.40625,0,0
-2.04058051167522E-05,1.91774979612092E-05,1.40625,0,0
-1.67488615261391E-05,1.59185656229965E-05,1.40625,0,0
-2.43259783019312E-05,2.15989421121776E-05,1.40625,0,0
-1.9665967556648E-05,1.30631879073917E-05,1.40625,0,0
-2.43097983911866E-05,1.32904579004389E-05,1.40625,0,0
-2.06070344574982E-05,5.46460796613246E-06,1.40625,0,0
-2.34554809139809E-05,5.20498861078522E-06,1.40625,0,0
-2.20507408812409E-05,4.13702537116478E-06,1.40625,0,0
-2.22783055505715E-05,7.10866970621282E-06,1.40625,0,0
-2.01597213163041E-05,8.8962260633707E-06,1.40625,0,0
-1.90698701771908E-05,1.02896219686954E-05,1.40625,0,0
-2.01523253053892E-05,1.17827867143205E-05,1.40625,0,0
-2.1250089048408E-05,1.2804654033971E-05,1.40625,0,0
-2.33211612794548E-05,1.56052356032887E-05,1.40625,0,0
-2.40837453020504E-05,1.61091193149332E-05,1.40625,0,0
-2.74266803899081E-05,1.78694808710134E-05,1.40625,0,0
-2.88253449980402E-05,1.71662995853694E-05,1.40625,0,0
-2.95568897854537E-05,1.66129048011499E-05,1.40625,0,0
-2.65592498180922E-05,1.4119825209491E-05,1.40625,0,0
-2.5905812435667E-05,1.39527410283335E-05,1.40625,0,0
-2.58881409536116E-05,1.20575341497897E-05,1.40625,0,0
-2.78398310911143E-05,1.02897529359325E-05,1.40625,0,0
-2.70651562459534E-05,9.48513297771569E-06,1.40625,0,0
-2.5651335818111E-05,1.21197872431367E-05,1.40625,0,0
-2.36264459090307E-05,1.40136444315431E-05,1.40625,0,0
-2.42734986386495E-05,1.4627497876063E-05,1.40625,0,0
-2.68547137238784E-05,1.46128095366294E-05,1.40625,0,0
-2.86174908978865E-05,1.45623107528081E-05,1.40625,0,0
-2.21771042561159E-05,1.17216031867429E-05,1.40625,0,0
-3.01121835946105E-05,1.74197939486476E-05,1.40625,0,0
-2.12923569051782E-05,1.30800017359434E-05,1.40625,0,0
-2.88068131339969E-05,1.36032476802939E-05,1.40625,0,0
-2.67762297880836E-05,1.07436571852304E-05,1.40625,0,0
-3.21102961606812E-05,1.4413584722206E-05,1.40625,0,0
-3.11171643261332E-05,1.52649008668959E-05,1.40625,0,0
-3.33491661876906E-05,1.73929256561678E-05,1.40625,0,0
-3.26033405144699E-05,1.6231646441156E-05,1.40625,0,0
-3.23645617754664E-05,1.33545163407689E-05,1.40625,0,0
-3.30320835928433E-05,1.14438253149274E-05,1.40625,0,0
-3.19991559081245E-05,9.60373381531099E-06,1.40625,0,0
-3.14696335408371E-05,7.80776645115111E-06,1.40625,0,0
-2.91874021058902E-05,2.15724207919266E-06,1.40625,0,0
-2.9725017157034E-05,-3.85846169592696E-06,1.40625,0,0
-2.74935955530964E-05,-7.53359654481756E-06,1.40625,0,0
-2.67793675448047E-05,-4.3500022002263E-06,1.40625,0,0
-2.32129150390392E-05,1.33766752696829E-06,1.40625,0,0
-2.17210763366893E-05,8.80046536622103E-06,1.40625,0,0
-1.73923381225904E-05,1.34119882204686E-05,1.40625,0,0
-1.50500445670332E-05,1.56794085341971E-05,1.40625,0,0
-1.32002724058111E-05,1.51960530274664E-05,1.40625,0,0
-1.53846631292254E-05,1.5278892533388E-05,1.40625,0,0
-1.79445851244964E-05,1.49482912092935E-05,1.40625,0,0
-1.95514076040126E-05,1.50661608131486E-05,1.40625,0,0
-1.96200708160177E-05,1.64263583428692E-05,1.40625,0,0
-1.99060013983399E-05,1.70467264979379E-05,1.40625,0,0
-1.70441726368153E-05,1.38902350954595E-05,1.40625,0,0
-2.44252751144813E-05,1.73653716046829E-05,1.40625,0,0
-1.80863116838736E-05,9.2124300863361E-06,1.40625,0,0
-2.20883048314136E-05,1.12200405055773E-05,1.40625,0,0
-1.94593958440237E-05,6.52251083010924E-06,1.40625,0,0
-2.27488399104914E-05,5.38700351171428E-06,1.40625,0,0
-2.18288605537964E-05,2.31264394301434E-07,1.40625,0,0
-2.24883606279036E-05,-6.33736874533497E-07,1.40625,0,0
-2.16843691305257E-05,-9.29881593947357E-08,1.40625,0,0
-2.16574790101731E-05,2.85557234747102E-06,1.40625,0,0
-2.12734703382012E-05,6.52401740808273E-06,1.40625,0,0
-1.93000523722731E-05,8.75908790476387E-06,1.40625,0,0
-2.01268867385807E-05,1.11336576082977E-05,1.40625,0,0
-2.10597027034964E-05,1.03778174889158E-05,1.40625,0,0
-2.35466723097488E-05,1.00066154118394E-05,1.40625,0,0
-2.36842861340847E-05,9.20276124816155E-06,1.40625,0,0
-2.55206941801589E-05,1.18016214400996E-05,1.40625,0,0
-2.58801210293313E-05,1.32129407575121E-05,1.40625,0,0
-2.726144339249E-05,1.50575306179235E-05,1.40625,0,0
-2.6021831217804E-05,1.41430318763014E-05,1.40625,0,0
-2.51617693720618E-05,1.22450455819489E-05,1.40625,0,0
-2.39921810134547E-05,8.50951073516626E-06,1.40625,0,0
-2.53429243457504E-05,5.64835772820516E-06,1.40625,0,0
-2.6994133804692E-05,2.2025631096767E-06,1.40625,0,0
-2.87949642370222E-05,5.43121188911755E-07,1.40625,0,0
-2.89232775685377E-05,-7.15997771294496E-07,1.40625,0,0
-2.81962038570782E-05,-6.77813886795775E-07,1.40625,0,0
-2.1907952032052E-05,-6.39257336843002E-07,1.40625,0,0
-3.05112371279392E-05,-1.00703368843824E-06,1.40625,0,0
-2.18921541090822E-05,1.45065882861672E-06,1.40625,0,0
-2.67722807620885E-05,4.56276484328555E-06,1.40625,0,0
-2.28467379201902E-05,6.7698792918236E-06,1.40625,0,0
-2.79229334410047E-05,8.94988806976471E-06,1.40625,0,0
-2.59549615293508E-05,1.10764822238707E-05,1.40625,0,0
-2.62236408161698E-05,1.27977000374813E-05,1.40625,0,0
-2.47526968450984E-05,1.46802085509989E-05,1.40625,0,0
-2.54288352152798E-05,1.56289479491534E-05,1.40625,0,0
-2.70020755124278E-05,1.7006839698297E-05,1.40625,0,0
-2.72795841738116E-05,1.91262861335417E-05,1.40625,0,0
-2.83958415820962E-05,2.01578986889217E-05,1.40625,0,0
-2.71155768132303E-05,1.99096539290622E-05,1.40625,0,0
-2.8567063054652E-05,2.02567844098667E-05,1.40625,0,0
-2.81645625364035E-05,2.1695481336792E-05,1.40625,0,0
-3.01574436889496E-05,2.27044365601614E-05,1.40625,0,0
-2.89714298560284E-05,2.15586787817301E-05,1.40625,0,0
-2.9247405109345E-05,1.91543767869007E-05,1.40625,0,0
-2.68807852989994E-05,1.79590115294559E-05,1.40625,0,0
-2.55996728810715E-05,1.69904578797286E-05,1.40625,0,0
-2.36993128055474E-05,1.37883616844192E-05,1.40625,0,0
-2.41822745010722E-05,1.04550035757711E-05,1.40625,0,0
-2.34067883866373E-05,1.08943713712506E-05,1.40625,0,0
-2.26962856686441E-05,1.21225393741042E-05,1.40625,0,0
-2.23368933802703E-05,1.14284903247608E-05,1.40625,0,0
-2.40504050452728E-05,1.10991386463866E-05,1.40625,0,0
-2.08464734896552E-05,9.91282558970852E-06,1.40625,0,0
-2.8538643164211E-05,1.61260759341531E-05,1.40625,0,0
-2.05505602934863E-05,1.47414493767428E-05,1.40625,0,0
-2.64815989794442E-05,1.82233925443143E-05,1.40625,0,0
-2.3451235392713E-05,1.73468979483005E-05,1.40625,0,0
-2.74078865913907E-05,1.9091043213848E-05,1.40625,0,0
-2.52035224548308E-05,1.87019213626627E-05,1.40625,0,0
-2.66963834292255E-05,1.93530668184394E-05,1.40625,0,0
-2.52450281550409E-05,1.65206511155702E-05,1.40625,0,0
-2.30361783906119E-05,1.09369866549969E-05,1.40625,0,0
-2.27514992729994E-05,5.86547821512795E-06,1.40625,0,0
-2.31142530537909E-05,4.93766401632456E-06,1.40625,0,0
-2.50966731982771E-05,8.17151976661989E-06,1.40625,0,0
-2.48650485445978E-05,1.0544578799454E-05,1.40625,0,0
-2.55032409768319E-05,1.20431895993534E-05,1.40625,0,0
-2.34518065553857E-05,1.27134053400368E-05,1.40625,0,0
-2.46530598815298E-05,1.55636698764283E-05,1.40625,0,0
-2.37108488363447E-05,1.58464627020294E-05,1.40625,0,0
-2.41833877225872E-05,1.40158672365942E-05,1.40625,0,0
-2.25568801397458E-05,1.08010881376686E-05,1.40625,0,0
-2.33997889154125E-05,8.8802707978175E-06,1.40625,0,0
-2.23950337385759E-05,8.25049482955365E-06,1.40625,0,0
-2.11365058930824E-05,1.13752475954243E-05,1.40625,0,0
-2.02535684366012E-05,1.52438215081929E-05,1.40625,0,0
-2.17584820347838E-05,1.79833987203892E-05,1.40625,0,0
-2.16752814594656E-05,1.77356814674567E-05,1.40625,0,0
-2.03976069315104E-05,1.66226509463741E-05,1.40625,0,0
-1.69091690622736E-05,1.21029761430691E-05,1.40625,0,0
-2.54149672400672E-05,1.59229366545333E-05,1.40625,0,0
-2.14278752537211E-05,1.04429609564249E-05,1.40625,0,0
-2.56514958891785E-05,1.22669216580107E-05,1.40625,0,0
-2.25704152398976E-05,6.12055464443984E-06,1.40625,0,0
-2.54669193964219E-05,6.65674497213331E-06,1.40625,0,0
-2.41467460000422E-05,8.13728911452927E-06,1.40625,0,0
-2.45154951699078E-05,1.15680604722002E-05,1.40625,0,0
-2.21824902837398E-05,1.2385092304612E-05,1.40625,0,0
-2.15968284464907E-05,1.33929943331168E-05,1.40625,0,0
-2.23771476157708E-05,1.44229607030866E-05,1.40625,0,0
-2.18775003304472E-05,1.49711704580113E-05,1.40625,0,0
-2.14896226680139E-05,1.54363060573814E-05,1.40625,0,0
-2.03348772629397E-05,1.31471306303865E-05,1.40625,0,0
-2.2056217858335E-05,1.12389889181941E-05,1.40625,0,0
-2.21447080548387E-05,8.43774159875466E-06,1.40625,0,0
-2.37664899032097E-05,8.24392100184923E-06,1.40625,0,0
-2.36854448303347E-05,7.65780168876518E-06,1.40625,0,0
-2.55715403909562E-05,8.50564993015723E-06,1.40625,0,0
-2.4932220185292E-05,7.89484602137236E-06,1.40625,0,0
-2.42699843511218E-05,8.13051156001166E-06,1.40625,0,0
-2.22019334614743E-05,7.63072239351459E-06,1.40625,0,0
-2.24678333324846E-05,7.51610559746041E-06,1.40625,0,0
-2.35495917877415E-05,5.92737933402532E-06,1.40625,0,0
-2.46297222474823E-05,4.81048118672334E-06,1.40625,0,0
-2.38529373746132E-05,4.57938949693926E-06,1.40625,0,0
-2.21469381358474E-05,5.95648680246086E-06,1.40625,0,0
-1.88021876965649E-05,8.60792897583451E-06,1.40625,0,0
-2.76092014246387E-05,1.45247704494977E-05,1.40625,0,0
-2.06954682653304E-05,1.22569017548813E-05,1.40625,0,0
-2.27896634896751E-05,1.16493138193619E-05,1.40625,0,0
-1.65870933415135E-05,7.87183853390161E-06,1.40625,0,0
-1.82869425771059E-05,6.26322025709669E-06,1.40625,0,0
-1.70002822414972E-05,4.87661827719421E-06,1.40625,0,0
-1.81442592293024E-05,8.12975304143038E-06,1.40625,0,0
-1.7781483620638E-05,1.21433313324815E-05,1.40625,0,0
-1.83357515197713E-05,1.40245201691869E-05,1.40625,0,0
-2.00077738554683E-05,1.31730967041221E-05,1.40625,0,0
-2.16214266401948E-05,9.3479611678049E-06,1.40625,0,0
-2.40691497310763E-05,6.62090451442054E-06,1.40625,0,0
-2.31033936870517E-05,5.43294936505845E-06,1.40625,0,0
-2.37608328461647E-05,6.08167556492845E-06,1.40625,0,0
-2.36395244428422E-05,7.17901275493205E-06,1.40625,0,0
-2.58931886492064E-05,1.03452366602141E-05,1.40625,0,0
-2.53706166404299E-05,1.1589533642109E-05,1.40625,0,0
-2.46552353928564E-05,1.13530095404712E-05,1.40625,0,0
-2.21151276491582E-05,1.20540880743647E-05,1.40625,0,0
-2.17438046092866E-05,1.57746708282502E-05,1.40625,0,0
-2.05361357075162E-05,1.7633641618886E-05,1.40625,0,0
-2.19854427996324E-05,1.62969499797327E-05,1.40625,0,0
-2.38726152019808E-05,1.31852802951471E-05,1.40625,0,0
-2.49555887421593E-05,1.14621070679277E-05,1.40625,0,0
-2.41676298173843E-05,1.06362567748874E-05,1.40625,0,0
-2.39799337578006E-05,8.72630062076496E-06,1.40625,0,0
-2.05593296414008E-05,7.22062986824312E-06,1.40625,0,0
-2.94822257274063E-05,1.07763471532962E-05,1.40625,0,0
-2.31607591558713E-05,5.80317237108829E-06,1.40625,0,0
-2.92586373689119E-05,2.16368744077045E-06,1.40625,0,0
-2.50588655035244E-05,-4.09440963267116E-06,1.40625,0,0
-2.78789812000468E-05,-8.00676389189903E-06,1.40625,0,0
-2.61305194726447E-05,-9.4346087280428E-06,1.40625,0,0
-2.67607938440051E-05,-3.92801439375035E-06,1.40625,0,0
-2.5043587811524E-05,3.497976649669E-06,1.40625,0,0
-2.48632040893426E-05,9.90414991974831E-06,1.40625,0,0
-2.56103321589762E-05,1.31342403619783E-05,1.40625,0,0
-2.56328185059829E-05,1.48088929563528E-05,1.40625,0,0
-2.62206904153572E-05,1.66337486007251E-05,1.40625,0,0
-2.36978048633318E-05,1.56008918565931E-05,1.40625,0,0
-2.3479551600758E-05,1.19163159979507E-05,1.40625,0,0
-2.17490869545145E-05,6.68915481583099E-06,1.40625,0,0
-2.24360592255834E-05,4.43544513473171E-06,1.40625,0,0
-2.09468307730276E-05,5.69882058698568E-06,1.40625,0,0
-2.12045979424147E-05,1.10193504951894E-05,1.40625,0,0
-1.95355714822654E-05,1.4697317055834E-05,1.40625,0,0
-2.00410304387333E-05,1.62006890604971E-05,1.40625,0,0
-1.98855050257407E-05,1.66665940923849E-05,1.40625,0,0
-2.13495641219197E-05,1.73312510014512E-05,1.40625,0,0
-2.17414726648713E-05,1.87180212378735E-05,1.40625,0,0
-2.24277373490622E-05,2.06896984309424E-05,1.40625,0,0
-2.32800339290407E-05,2.12249015021371E-05,1.40625,0,0
-2.43720260186819E-05,2.10765592782991E-05,1.40625,0,0
-2.13889634324005E-05,1.53626788232941E-05,1.40625,0,0
-3.11555122607388E-05,1.97854915313656E-05,1.40625,0,0
-2.40643039433053E-05,1.10593209683429E-05,1.40625,0,0
-2.90843327093171E-05,1.37468814500608E-05,1.40625,0,0
-2.57544616033556E-05,1.10740193122183E-05,1.40625,0,0
-3.02158423437504E-05,1.4167891094985E-05,1.40625,0,0
-2.96762700600084E-05,1.2477396921895E-05,1.40625,0,0
-3.13817290589213E-05,1.22531246233848E-05,1.40625,0,0
-2.99981475109234E-05,1.01376845123013E-05,1.40625,0,0
-2.97249789582565E-05,1.02613075796398E-05,1.40625,0,0
-2.97818278340856E-05,1.1621503290371E-05,1.40625,0,0
-2.857374784071E-05,1.36173803184647E-05,1.40625,0,0
-2.92432505375473E-05,1.72856216522632E-05,1.40625,0,0
-2.92025524686323E-05,1.85302487807348E-05,1.40625,0,0
-3.1402611057274E-05,1.8761471437756E-05,1.40625,0,0
-3.06650581478607E-05,1.36124372147606E-05,1.40625,0,0
-3.23676831612829E-05,8.55291818879778E-06,1.40625,0,0
-3.13445343635976E-05,3.97793883166742E-06,1.40625,0,0
-3.03103770420421E-05,6.31382908977685E-06,1.40625,0,0
-2.62964331341209E-05,1.00958213806734E-05,1.40625,0,0
-2.61379118455807E-05,1.36175267471117E-05,1.40625,0,0
-2.87838847725652E-05,1.37380920932628E-05,1.40625,0,0
-3.39097350661177E-05,1.11297049443237E-05,1.40625,0,0
-3.57744938810356E-05,4.63286141894059E-06,1.40625,0,0
-3.55940028384794E-05,1.09076847820688E-06,1.40625,0,0
-3.30594593833666E-05,1.57348051743611E-06,1.40625,0,0
-2.95961581286974E-05,3.66382414540567E-06,1.40625,0,0
-2.11130700336071E-05,2.6212514967483E-06,1.40625,0,0
-2.93285793304676E-05,2.19684488911298E-06,1.40625,0,0
-2.2166841517901E-05,3.54866756424599E-07,1.40625,0,0
-2.79561027127784E-05,1.48764047480654E-06,1.40625,0,0
-2.13155399251264E-05,7.97599454926967E-07,1.40625,0,0
-2.26207939704182E-05,2.17108708966407E-06,1.40625,0,0
-2.15447307709837E-05,4.35888250649441E-06,1.40625,0,0
-2.4054701498244E-05,6.23382265985128E-06,1.40625,0,0
-2.27897016884526E-05,7.29980138203246E-06,1.40625,0,0
-2.04521329578711E-05,8.84590917848982E-06,1.40625,0,0
-1.83824067789828E-05,9.62701506068697E-06,1.40625,0,0
-1.65704623213969E-05,9.32812145038042E-06,1.40625,0,0
-1.68719507200876E-05,8.70866460900288E-06,1.40625,0,0
-1.6277181202895E-05,7.79768106440315E-06,1.40625,0,0
-1.90036407730076E-05,9.23052448342787E-06,1.40625,0,0
-1.87489458767232E-05,1.22471001304802E-05,1.40625,0,0
-1.95016764337197E-05,1.47269856825005E-05,1.40625,0,0
-1.81007053470239E-05,1.39876574394293E-05,1.40625,0,0
-1.96756063814973E-05,1.18586231110385E-05,1.40625,0,0
-1.95963748410577E-05,9.11892766453093E-06,1.40625,0,0
-2.07378998311469E-05,8.01335409050807E-06,1.40625,0,0
-2.06576878554188E-05,8.68356710270746E-06,1.40625,0,0
-2.2709546101396E-05,8.43926227389602E-06,1.40625,0,0
-2.35333227465162E-05,6.67981930746464E-06,1.40625,0,0
-2.39491819229443E-05,5.51318134967005E-06,1.40625,0,0
-2.42874684772687E-05,4.58635076938663E-06,1.40625,0,0
-2.49300010182196E-05,3.7345059809013E-06,1.40625,0,0
-2.00239555852022E-05,2.04314756047097E-06,1.40625,0,0
-2.67261639237404E-05,3.69306485481502E-06,1.40625,0,0
-1.6933205188252E-05,3.86045257982914E-06,1.40625,0,0
-1.98104771698127E-05,4.16898501498508E-06,1.40625,0,0
-1.51874337461777E-05,5.05571688336204E-06,1.40625,0,0
-1.81439409061568E-05,7.8937900980236E-06,1.40625,0,0
-1.40823376568733E-05,8.56379028846277E-06,1.40625,0,0
-1.39534249683493E-05,8.76755620993208E-06,1.40625,0,0
-1.37037814056384E-05,9.1006504590041E-06,1.40625,0,0
-1.44000632644747E-05,9.14993142941967E-06,1.40625,0,0
-1.55437155626714E-05,8.70628628035774E-06,1.40625,0,0
-1.63169243023731E-05,9.2746577138314E-06,1.40625,0,0
-1.83168704097625E-05,1.0044161172118E-05,1.40625,0,0
-1.83211395778926E-05,8.99834867595928E-06,1.40625,0,0
-2.10485559364315E-05,7.44411863706773E-06,1.40625,0,0
-2.18744989979314E-05,7.47216972740716E-06,1.40625,0,0
-2.45215614995686E-05,1.02916073956294E-05,1.40625,0,0
-2.40313638641965E-05,1.37765609906637E-05,1.40625,0,0
-2.47115658567054E-05,1.73394382727565E-05,1.40625,0,0
-2.35885672736913E-05,1.88634239748353E-05,1.40625,0,0
-2.46867330133682E-05,1.82217809197027E-05,1.40625,0,0
-2.35162606259109E-05,1.62268224812578E-05,1.40625,0,0
-2.22923190449364E-05,1.41701129905414E-05,1.40625,0,0
-2.00269514607498E-05,1.31654232973233E-05,1.40625,0,0
-1.9960227291449E-05,1.41730015457142E-05,1.40625,0,0
-2.06220138352364E-05,1.60140771185979E-05,1.40625,0,0
-2.03261242859298E-05,1.76818775798893E-05,1.40625,0,0
-1.56728401634609E-05,1.4659717635368E-05,1.40625,0,0
-2.3686920030741E-05,1.92335955944145E-05,1.40625,0,0
-2.05911237571854E-05,1.2772961781593E-05,1.40625,0,0
-2.61068471445469E-05,1.75831246451708E-05,1.40625,0,0
-2.36899268202251E-05,1.65005440067034E-05,1.40625,0,0
-2.634452903294E-05,2.31654612434795E-05,1.40625,0,0
-2.54793885687832E-05,2.4990813471959E-05,1.40625,0,0
-2.61935965681914E-05,2.48859851126326E-05,1.40625,0,0
-2.45827322942205E-05,2.21460468310397E-05,1.40625,0,0
-2.36105097428663E-05,2.28452845476568E-05,1.40625,0,0
-2.31956510106102E-05,2.44727652898291E-05,1.40625,0,0
-2.19248322537169E-05,2.38358879869338E-05,1.40625,0,0
-2.26609081437346E-05,2.27569598791888E-05,1.40625,0,0
-2.18354271055432E-05,2.08526671485743E-05,1.40625,0,0
-2.08908277272712E-05,2.15067339013331E-05,1.40625,0,0
-1.79865819518454E-05,2.10403941309778E-05,1.40625,0,0
-1.8656315660337E-05,2.3471167878597E-05,1.40625,0,0
-1.93964224308729E-05,2.44061830017017E-05,1.40625,0,0
-2.14245283132186E-05,2.49985205300618E-05,1.40625,0,0
-2.12926915992284E-05,2.2036087102606E-05,1.40625,0,0
-2.1437146642711E-05,2.08043329621432E-05,1.40625,0,0
-2.01991097128484E-05,1.95491356862476E-05,1.40625,0,0
-1.92071911442326E-05,1.88471385627054E-05,1.40625,0,0
-1.85378594323993E-05,1.778586920409E-05,1.40625,0,0
-1.94770691450685E-05,1.66864429047564E-05,1.40625,0,0
-2.08264245884493E-05,1.3936283721705E-05,1.40625,0,0
-2.22616126848152E-05,1.13596806841088E-05,1.40625,0,0
-1.79737326106988E-05,6.42326631350443E-06,1.40625,0,0
-2.51477267738665E-05,6.70447025186149E-06,1.40625,0,0
-1.88972280739108E-05,2.506596956664E-06,1.40625,0,0
-2.52404879574897E-05,4.40172061644262E-06,1.40625,0,0
-2.41636207647389E-05,1.59439105118508E-06,1.40625,0,0
-2.93540051643504E-05,9.49970569763536E-07,1.40625,0,0
-2.93068696919363E-05,1.58580041897949E-06,1.40625,0,0
-3.14848002744839E-05,6.04102251600125E-06,1.40625,0,0
-3.25450455420651E-05,8.98759753908962E-06,1.40625,0,0
-3.3558488212293E-05,1.01502801044262E-05,1.40625,0,0
-3.32510317093693E-05,9.57143129198812E-06,1.40625,0,0
-3.13935488520656E-05,8.27835810923716E-06,1.40625,0,0
-3.17662561428733E-05,8.83612028701464E-06,1.40625,0,0
-3.22559280903079E-05,7.3975465966214E-06,1.40625,0,0
-3.51199669239577E-05,5.01541626363178E-06,1.40625,0,0
-3.44195395882707E-05,3.33080924974638E-06,1.40625,0,0
-3.3615629945416E-05,4.31589114668895E-06,1.40625,0,0
-3.09166935039684E-05,2.80943345387641E-06,1.40625,0,0
-3.08757880702615E-05,-3.6757472798854E-07,1.40625,0,0
-3.04696004604921E-05,-3.74693013327487E-06,1.40625,0,0
-3.18647180392873E-05,-1.68924407262239E-06,1.40625,0,0
-3.05640751321334E-05,4.58764998256811E-06,1.40625,0,0
-3.04339991998859E-05,1.15418570203474E-05,1.40625,0,0
-3.07279187836684E-05,1.64247812790563E-05,1.40625,0,0
-2.96184261969756E-05,1.91936360351974E-05,1.40625,0,0
-2.57745086855721E-05,1.93020641745534E-05,1.40625,0,0
-2.28818335017422E-05,1.76517060026526E-05,1.40625,0,0
-1.82478470378555E-05,1.1677806469379E-05,1.40625,0,0
-2.93484881694894E-05,1.4308126992546E-05,1.40625,0,0
-2.75095335382503E-05,1.02269978015102E-05,1.40625,0,0
-3.22825362673029E-05,1.73066000570543E-05,1.40625,0,0
-2.70166710834019E-05,1.57914309966145E-05,1.40625,0,0
-2.81116044789087E-05,1.65936726261862E-05,1.40625,0,0
-2.57322590186959E-05,1.27271987366839E-05,1.40625,0,0
-2.68593867076561E-05,1.03838683571666E-05,1.40625,0,0
-2.62784706137609E-05,6.47815613774583E-06,1.40625,0,0
-2.5928038667189E-05,2.78304059975198E-06,1.40625,0,0
-2.60384404100478E-05,-4.42981331616465E-07,1.40625,0,0
-2.62079920503311E-05,-2.7906523882848E-06,1.40625,0,0
-2.71873232122744E-05,-1.1620759323705E-06,1.40625,0,0
-2.64337213593535E-05,4.50465392987098E-07,1.40625,0,0
-2.82734654319938E-05,2.22887479139899E-06,1.40625,0,0
-2.78059251286322E-05,2.42184182752681E-06,1.40625,0,0
-2.86331887764391E-05,4.5425267671817E-06,1.40625,0,0
-2.83061235677451E-05,4.74819717055652E-06,1.40625,0,0
-2.89146410068497E-05,6.54674022371182E-06,1.40625,0,0
-2.64407772192499E-05,1.00552897492889E-05,1.40625,0,0
-2.57966730714543E-05,1.59453084052075E-05,1.40625,0,0
-2.51032633968862E-05,1.80034494405845E-05,1.40625,0,0
-2.53026064456208E-05,1.77261917997384E-05,1.40625,0,0
-2.35880579566583E-05,1.59351566253463E-05,1.40625,0,0
-2.14962965401355E-05,1.52593147504376E-05,1.40625,0,0
-2.02828014153056E-05,1.48764765981468E-05,1.40625,0,0
-2.04427014978137E-05,1.31763281387975E-05,1.40625,0,0
-1.62103297043359E-05,9.27141809370369E-06,1.40625,0,0
-2.22305716306437E-05,1.28827186927083E-05,1.40625,0,0
-1.67941088875523E-05,8.01533224148443E-06,1.40625,0,0
-2.11406641028589E-05,7.77620789449429E-06,1.40625,0,0
-1.68092938110931E-05,3.5609089081845E-06,1.40625,0,0
-1.83878546522465E-05,2.42287592300272E-06,1.40625,0,0
-1.57501708599739E-05,2.4157577627193E-06,1.40625,0,0
-1.64811754075345E-05,7.98405653767986E-06,1.40625,0,0
-1.61621392180678E-05,1.15299244498601E-05,1.40625,0,0
-1.71572064573411E-05,1.32914474306745E-05,1.40625,0,0
-1.80091665242799E-05,1.40044421641505E-05,1.40625,0,0
-1.80431234184653E-05,1.26606264529983E-05,1.40625,0,0
-1.94422027561814E-05,1.0467141692061E-05,1.40625,0,0
-1.88388530659722E-05,7.48487445889623E-06,1.40625,0,0
-1.96579348994419E-05,8.23401114757871E-06,1.40625,0,0
-1.86695669981418E-05,9.14512202143669E-06,1.40625,0,0
-2.01941966224695E-05,9.46371346799424E-06,1.40625,0,0
-2.01532129722182E-05,8.24250037112506E-06,1.40625,0,0
-2.18516634049593E-05,8.82095991983078E-06,1.40625,0,0
-2.17481137951836E-05,8.48078343551606E-06,1.40625,0,0
-2.27181935770204E-05,7.90658850746695E-06,1.40625,0,0
-2.20375841308851E-05,6.98036774338107E-06,1.40625,0,0
-2.21251902985387E-05,8.2148708315799E-06,1.40625,0,0
-2.23243714572163E-05,1.01710738817928E-05,1.40625,0,0
-2.30223304242827E-05,1.06208108263672E-05,1.40625,0,0
-2.23677288886392E-05,9.37793174671242E-06,1.40625,0,0
-2.19515095523093E-05,9.98372343019582E-06,1.40625,0,0
-1.89373149623862E-05,1.06295210571261E-05,1.40625,0,0
-2.83314620901365E-05,1.57398008013843E-05,1.40625,0,0
-2.45128521783045E-05,1.17124582175165E-05,1.40625,0,0
-3.08311427943408E-05,1.31939550556126E-05,1.40625,0,0
-2.64772515947698E-05,1.04874652606668E-05,1.40625,0,0
-2.72449542535469E-05,1.05916124084615E-05,1.40625,0,0
-2.39478213188704E-05,9.537257028569E-06,1.40625,0,0
-2.45245555561269E-05,1.07585574369296E-05,1.40625,0,0
-2.34703074966092E-05,1.04432556327083E-05,1.40625,0,0
-2.28677163249813E-05,1.03042420960264E-05,1.40625,0,0
-2.31482226809021E-05,9.03051659406628E-06,1.40625,0,0
-2.29864508582978E-05,6.94843765813857E-06,1.40625,0,0
-2.37764434132259E-05,7.06918990545091E-06,1.40625,0,0
-2.31776048167376E-05,7.1895842665981E-06,1.40625,0,0
-2.59478201769525E-05,7.57151337893447E-06,1.40625,0,0
-2.69917200057535E-05,6.79563436278841E-06,1.40625,0,0
-2.81418833765201E-05,8.57655777508626E-06,1.40625,0,0
-2.56822495430242E-05,1.03696529549779E-05,1.40625,0,0
-2.53639882430434E-05,1.1962929420406E-05,1.40625,0,0
-2.44723250943935E-05,1.07708119685412E-05,1.40625,0,0
-2.59480148088187E-05,1.00083680081298E-05,1.40625,0,0
-2.67177256318973E-05,8.79340859682998E-06,1.40625,0,0
-2.75308175332611E-05,7.4887830123771E-06,1.40625,0,0
-2.65794478764292E-05,5.35349090569071E-06,1.40625,0,0
-2.56809944403358E-05,5.93712593399687E-06,1.40625,0,0
-2.47011303144973E-05,8.30256158224074E-06,1.40625,0,0
-2.55009872489609E-05,1.03805605249363E-05,1.40625,0,0
-2.08335895877099E-05,9.53837661654688E-06,1.40625,0,0
-2.88161299977219E-05,1.39321064125397E-05,1.40625,0,0
-1.95247012015898E-05,1.20444010462961E-05,1.40625,0,0
-2.36295290960697E-05,1.55964189616498E-05,1.40625,0,0
-2.04502593987854E-05,1.34298370539909E-05,1.40625,0,0
-2.52708105108468E-05,1.31828874145867E-05,1.40625,0,0
-2.45936134888325E-05,1.09655347841908E-05,1.40625,0,0
-2.64623304246925E-05,1.15194861791679E-05,1.40625,0,0
-2.57262636296218E-05,9.97390998236369E-06,1.40625,0,0
-2.61556833720533E-05,8.39651238493389E-06,1.40625,0,0
-2.70472501142649E-05,9.0511475718813E-06,1.40625,0,0
-2.70402342721354E-05,1.03255670182989E-05,1.40625,0,0
-2.79760042758426E-05,1.0915116945398E-05,1.40625,0,0
-2.55556224146858E-05,9.20915226743091E-06,1.40625,0,0
-2.54386595770484E-05,7.76079650677275E-06,1.40625,0,0
-2.41274683503434E-05,5.14182193001034E-06,1.40625,0,0
-2.4808430680423E-05,4.3856025513378E-06,1.40625,0,0
-2.30686364375288E-05,4.40771555076935E-06,1.40625,0,0
-2.38932789216051E-05,8.16690044302959E-06,1.40625,0,0
-2.3189488274511E-05,1.30506296045496E-05,1.40625,0,0
-2.3597418476129E-05,1.79969629243715E-05,1.40625,0,0
-2.14346182474401E-05,1.95121683645993E-05,1.40625,0,0
-1.92699480976444E-05,2.02384817384882E-05,1.40625,0,0
-1.70348066603765E-05,2.18067925743526E-05,1.40625,0,0
-1.82627936737845E-05,2.33182072406635E-05,1.40625,0,0
-1.96244545804802E-05,2.23113547690446E-05,1.40625,0,0
-1.99036003323272E-05,2.05216074391501E-05,1.40625,0,0
-1.70410166902002E-05,1.37397046273691E-05,1.40625,0,0
-2.48236483457731E-05,1.82434741873294E-05,1.40625,0,0
-1.78952141141053E-05,1.23398185678525E-05,1.40625,0,0
-2.05606229428668E-05,1.62384621944511E-05,1.40625,0,0
-1.77829533640761E-05,1.40614865813404E-05,1.40625,0,0
-2.08515866688685E-05,1.61460302479099E-05,1.40625,0,0
-1.97769950318616E-05,1.29483323689783E-05,1.40625,0,0
-2.07111770578194E-05,1.17881154437782E-05,1.40625,0,0
-2.01877137442352E-05,1.05398521554889E-05,1.40625,0,0
-2.034326280409E-05,1.09614820757997E-05,1.40625,0,0
-2.03355866688071E-05,1.06696779766935E-05,1.40625,0,0
-1.91631988855079E-05,9.43398390518269E-06,1.40625,0,0
-1.94339190784376E-05,8.98807684279745E-06,1.40625,0,0
-1.85515000339365E-05,8.43039924802724E-06,1.40625,0,0
-1.91364943020744E-05,1.07328769445303E-05,1.40625,0,0
-1.75167624547612E-05,1.15076982183382E-05,1.40625,0,0
-1.79484486579895E-05,1.26436689242837E-05,1.40625,0,0
-1.82311305252369E-05,9.84360485745128E-06,1.40625,0,0
-2.10548532777466E-05,5.6060052884277E-06,1.40625,0,0
-2.19628927879967E-05,-1.99992697957896E-07,1.40625,0,0
-2.33498685702216E-05,7.68557811170467E-07,1.40625,0,0
-2.37547646975145E-05,7.01572389516514E-06,1.40625,0,0
-2.36192026932258E-05,1.45549602166284E-05,1.40625,0,0
-2.11386559385573E-05,1.76489847945049E-05,1.40625,0,0
-1.94959538930561E-05,1.8548811567598E-05,1.40625,0,0
-1.92000316019403E-05,1.85754888661904E-05,1.40625,0,0
-1.96447581402026E-05,1.86460056283977E-05,1.40625,0,0
-1.64892135217087E-05,1.53932287503267E-05,1.40625,0,0
-2.4846789528965E-05,1.94884250959149E-05,1.40625,0,0
-2.16052922041854E-05,9.95468599285232E-06,1.40625,0,0
-2.67856230493635E-05,1.11847184598446E-05,1.40625,0,0
-2.36177293118089E-05,7.11184702595347E-06,1.40625,0,0
-2.59947973972885E-05,9.0268813437433E-06,1.40625,0,0
-2.51112560363254E-05,7.00464124747668E-06,1.40625,0,0
-2.67303785221884E-05,6.08523214395973E-06,1.40625,0,0
-2.54008864430944E-05,2.30057958106045E-06,1.40625,0,0
-2.49256736424286E-05,9.96702169686614E-07,1.40625,0,0
-2.5232420739485E-05,1.14245153781667E-06,1.40625,0,0
-2.44418442889582E-05,1.85284704912192E-07,1.40625,0,0
-2.52735808317084E-05,6.35845708529814E-07,1.40625,0,0
-2.53388225246454E-05,3.94907146983314E-07,1.40625,0,0
-2.6792165954248E-05,2.61140644397528E-06,1.40625,0,0
-2.51820038101869E-05,3.3714611618052E-06,1.40625,0,0
-2.46169802267104E-05,5.31980367668439E-06,1.40625,0,0
-2.37451768043684E-05,4.49503841082333E-06,1.40625,0,0
-2.63547153735999E-05,5.45307830179809E-06,1.40625,0,0
-2.76213195320452E-05,4.33951709055691E-06,1.40625,0,0
-2.848911935871E-05,3.98904376197606E-06,1.40625,0,0
-2.79397299891571E-05,5.15517695021117E-06,1.40625,0,0
-3.01035051961662E-05,8.26664199848892E-06,1.40625,0,0
-3.2092157198349E-05,1.04744704003679E-05,1.40625,0,0
-3.23385866067838E-05,1.31450742628658E-05,1.40625,0,0
-2.95919271593448E-05,1.25986798593658E-05,1.40625,0,0
-2.78176685242215E-05,1.00075385489617E-05,1.40625,0,0
-2.43706126639154E-05,7.25501422493835E-06,1.40625,0,0
-3.67415996151976E-05,1.14013555503334E-05,1.40625,0,0
-3.02165772154694E-05,1.10902410597191E-05,1.40625,0,0
-3.52927781932522E-05,1.46429920278024E-05,1.40625,0,0
-2.75239781331038E-05,1.42780418173061E-05,1.40625,0,0
-2.83605149888899E-05,1.41997588798404E-05,1.40625,0,0
-2.6045243430417E-05,1.24521811812883E-05,1.40625,0,0
-2.84496491076425E-05,1.2167809472885E-05,1.40625,0,0
-2.78428888123017E-05,1.04798637039494E-05,1.40625,0,0
-2.62727080553304E-05,9.58552027441328E-06,1.40625,0,0
-2.48166852543363E-05,9.74297108768951E-06,1.40625,0,0
-2.33941136684734E-05,1.0268229743815E-05,1.40625,0,0
-2.43749418586958E-05,1.03204529295908E-05,1.40625,0,0
-2.28793833230156E-05,7.62625995776034E-06,1.40625,0,0
-2.37654803640908E-05,4.7942753553798E-06,1.40625,0,0
-2.28071585297585E-05,6.710873776683E-07,1.40625,0,0
-2.38288321270375E-05,-2.80835547528113E-06,1.40625,0,0
-2.1874609956285E-05,-4.57043506685295E-06,1.40625,0,0
-2.30754267249722E-05,-2.15100226341747E-06,1.40625,0,0
-2.22790149564389E-05,8.10671707540678E-08,1.40625,0,0
-2.2041054762667E-05,1.02238857380144E-06,1.40625,0,0
-2.03823965421179E-05,1.05510594039515E-06,1.40625,0,0
-2.10712587431772E-05,2.02893988898722E-06,1.40625,0,0
-2.19970352191012E-05,2.36262371799967E-06,1.40625,0,0
-2.33413793466752E-05,3.84000577469124E-06,1.40625,0,0
-2.15935779124266E-05,7.52341657062061E-06,1.40625,0,0
-2.01512884814292E-05,1.09941274786252E-05,1.40625,0,0
-1.73132120835362E-05,1.13022742880275E-05,1.40625,0,0
-2.36318628594745E-05,1.68469923664816E-05,1.40625,0,0
-1.61544485308696E-05,1.46575021062745E-05,1.40625,0,0
-2.1327163267415E-05,1.9716650058399E-05,1.40625,0,0
-2.0068475350854E-05,1.98123561858665E-05,1.40625,0,0
-2.39606888499111E-05,2.30926889344119E-05,1.40625,0,0
-2.31630983762443E-05,2.12719896808267E-05,1.40625,0,0
-2.47674743150128E-05,2.02364190045046E-05,1.40625,0,0
-2.44036982621765E-05,2.0954612409696E-05,1.40625,0,0
-2.37623335124226E-05,2.26616939471569E-05,1.40625,0,0
-2.33784412557725E-05,2.19923658733023E-05,1.40625,0,0
-2.16721364267869E-05,1.92558472917881E-05,1.40625,0,0
-2.15410400414839E-05,1.81773539225105E-05,1.40625,0,0
-2.198663969466E-05,1.75219156517414E-05,1.40625,0,0
-2.59732969425386E-05,1.95712818822358E-05,1.40625,0,0
-2.74259236903163E-05,2.11316310014809E-05,1.40625,0,0
-2.76580794889014E-05,2.29197703447426E-05,1.40625,0,0
-2.37801687035244E-05,2.21124973904807E-05,1.40625,0,0
-2.2652819097857E-05,2.12063660001149E-05,1.40625,0,0
-2.26408592425287E-05,1.83563552127453E-05,1.40625,0,0
-2.54026890615933E-05,1.6436188161606E-05,1.40625,0,0
-2.72959605354117E-05,1.36333546834067E-05,1.40625,0,0
-2.83692515949951E-05,9.41646067076363E-06,1.40625,0,0
-2.68636122200405E-05,6.73947261020658E-06,1.40625,0,0
-2.56574294326128E-05,9.28262488741893E-06,1.40625,0,0
-2.52544523391407E-05,1.26898230519146E-05,1.40625,0,0
-2.50819794018753E-05,1.39812491397606E-05,1.40625,0,0
-1.96084529306972E-05,1.03545671663596E-05,1.40625,0,0
-2.69423708232353E-05,1.33852681756252E-05,1.40625,0,0
-2.02852806978626E-05,8.80055813468061E-06,1.40625,0,0
-2.66786519205198E-05,1.18156131065916E-05,1.40625,0,0
-2.23211518459721E-05,1.02157200672082E-05,1.40625,0,0
-2.32008187595056E-05,1.38320956466487E-05,1.40625,0,0
-1.90101109183161E-05,1.47156652019476E-05,1.40625,0,0
-2.09567824640544E-05,1.55498692038236E-05,1.40625,0,0
-2.22546768782195E-05,1.52772590809036E-05,1.40625,0,0
-2.30822370212991E-05,1.6440308172605E-05,1.40625,0,0
-2.35258266911842E-05,1.82213971129386E-05,1.40625,0,0
-2.23493807425257E-05,1.91147137229564E-05,1.40625,0,0
-2.30333462241106E-05,1.88939447980374E-05,1.40625,0,0
-2.26476731768344E-05,1.60452291311231E-05,1.40625,0,0
-2.45432747760788E-05,1.52275824802928E-05,1.40625,0,0
-2.35730349231744E-05,1.55643774633063E-05,1.40625,0,0
-2.39149412664119E-05,1.7858805222204E-05,1.40625,0,0
-2.26338052016217E-05,1.76641151483636E-05,1.40625,0,0
-2.3929838789627E-05,1.7125856174971E-05,1.40625,0,0
-2.30809419008438E-05,1.53481050801929E-05,1.40625,0,0
-2.38765715039335E-05,1.41510436151293E-05,1.40625,0,0
-2.40308600041317E-05,1.22938836284447E-05,1.40625,0,0
-2.49707645707531E-05,1.27580942717032E-05,1.40625,0,0
-2.5017205189215E-05,1.29150803331868E-05,1.40625,0,0
-2.67885661742184E-05,1.30586831801338E-05,1.40625,0,0
-2.73158020718256E-05,1.58670663950033E-05,1.40625,0,0
-2.58606123679783E-05,1.9715564121725E-05,1.40625,0,0
-2.09829577215714E-05,1.70098483067704E-05,1.40625,0,0
-3.00467581837438E-05,2.44610509980703E-05,1.40625,0,0
-2.17213673749939E-05,1.98217439901782E-05,1.40625,0,0
-2.50204702751944E-05,2.37925087276381E-05,1.40625,0,0
-2.02827050088672E-05,1.66807003552094E-05,1.40625,0,0
-2.3239255824592E-05,1.5718316717539E-05,1.40625,0,0
-2.13847597478889E-05,1.17966392281232E-05,1.40625,0,0
-2.20949932554504E-05,1.04275686680921E-05,1.40625,0,0
-1.9646702639875E-05,7.84499570727348E-06,1.40625,0,0
-1.84904238267336E-05,9.35849948291434E-06,1.40625,0,0
-1.94168933376204E-05,1.27666471598786E-05,1.40625,0,0
-2.09171757887816E-05,1.2309582416492E-05,1.40625,0,0
-2.29963516176213E-05,8.20332388684619E-06,1.40625,0,0
-2.14977371797431E-05,2.10936420330654E-07,1.40625,0,0
-2.26878710236633E-05,-5.01845443068305E-06,1.40625,0,0
-2.31368412642041E-05,-1.00492343335645E-05,1.40625,0,0
-2.64946902461816E-05,-1.1192691999895E-05,1.40625,0,0
-2.72096822300227E-05,-1.23267909657443E-05,1.40625,0,0
-2.93893790512811E-05,-9.04089574760292E-06,1.40625,0,0
-2.87845468847081E-05,-5.47668605577201E-06,1.40625,0,0
-2.79549294646131E-05,6.08388404543803E-07,1.40625,0,0
-2.62299872701988E-05,7.02299394106376E-06,1.40625,0,0
-2.76030223176349E-05,1.25854185171193E-05,1.40625,0,0
-2.81087432085769E-05,1.28676074382383E-05,1.40625,0,0
-2.88657556666294E-05,1.2222102668602E-05,1.40625,0,0
-2.87405655399198E-05,1.14626664071693E-05,1.40625,0,0
-2.83269946521614E-05,1.02965695987223E-05,1.40625,0,0
-2.28776953008492E-05,7.92534956417512E-06,1.40625,0,0
-3.17162848659791E-05,1.14584154289332E-05,1.40625,0,0
-2.31321810133522E-05,1.03556740214117E-05,1.40625,0,0
-2.90616753773065E-05,1.29958298202837E-05,1.40625,0,0
-2.50481753027998E-05,9.36466040002415E-06,1.40625,0,0
-2.88773735519499E-05,1.0503853445698E-05,1.40625,0,0
-2.68884850811446E-05,1.24047082863399E-05,1.40625,0,0
-3.01502823276678E-05,1.32042741824989E-05,1.40625,0,0
-3.07258305838332E-05,1.22413639473962E-05,1.40625,0,0
-3.03164670185652E-05,1.22784022096312E-05,1.40625,0,0
-2.86562335531926E-05,1.1968232684012E-05,1.40625,0,0
-2.56697276199702E-05,1.13606411105138E-05,1.40625,0,0
-2.54781389230629E-05,1.1668764273054E-05,1.40625,0,0
-2.45809333137004E-05,1.16592318590847E-05,1.40625,0,0
-2.65829876298085E-05,1.26618142530788E-05,1.40625,0,0
-2.59347016253741E-05,1.25895985547686E-05,1.40625,0,0
-2.75260244961828E-05,1.30274620460114E-05,1.40625,0,0
-2.54193328146357E-05,1.21507091535022E-05,1.40625,0,0
-2.39926157519221E-05,1.18344250950031E-05,1.40625,0,0
-2.01479524548631E-05,1.12527513920213E-05,1.40625,0,0
-2.04534480872098E-05,1.22030478451052E-05,1.40625,0,0
-2.08387027669232E-05,1.30083608382847E-05,1.40625,0,0
-2.12425093195634E-05,1.42919898280525E-05,1.40625,0,0
-2.01871698664036E-05,1.44091218317044E-05,1.40625,0,0
-2.086975837301E-05,1.31439428514568E-05,1.40625,0,0
-2.08881519938586E-05,1.14126914922963E-05,1.40625,0,0
-1.98125253518811E-05,9.90665648714639E-06,1.40625,0,0
-1.47378150359145E-05,5.85756197324372E-06,1.40625,0,0
-2.03401887119981E-05,8.58361636346672E-06,1.40625,0,0
-1.55772777361562E-05,8.49361276777927E-06,1.40625,0,0
-2.0491803297773E-05,1.16882247311878E-05,1.40625,0,0
-1.77366437128512E-05,1.01510886452161E-05,1.40625,0,0
-1.98291254491778E-05,9.93517005554168E-06,1.40625,0,0
-1.83081810973817E-05,7.74179625295801E-06,1.40625,0,0
-1.86778270290233E-05,7.67042456573108E-06,1.40625,0,0
-1.82963922270574E-05,8.96512301551411E-06,1.40625,0,0
-1.98794896277832E-05,1.04307791843894E-05,1.40625,0,0
-2.26107586058788E-05,9.21240552997915E-06,1.40625,0,0
-2.35613279073732E-05,5.64284300708096E-06,1.40625,0,0
-2.4116914573824E-05,3.33385196427116E-06,1.40625,0,0
-2.31141439144267E-05,2.99115254165372E-06,1.40625,0,0
-2.42319165408844E-05,3.68207975043333E-06,1.40625,0,0
-2.43985250563128E-05,3.78231061404222E-06,1.40625,0,0
-2.64844256889774E-05,5.43826308785356E-06,1.40625,0,0
-2.64678965322673E-05,6.32595765637234E-06,1.40625,0,0
-2.66398856183514E-05,6.97409723215969E-06,1.40625,0,0
-2.55724080489017E-05,7.5507032306632E-06,1.40625,0,0
-2.71037442871602E-05,9.4400465968647E-06,1.40625,0,0
-2.74069589067949E-05,1.0375812962593E-05,1.40625,0,0
-2.79408359347144E-05,1.0429957001179E-05,1.40625,0,0
-2.84775542240823E-05,8.60697491589235E-06,1.40625,0,0
-2.83864010270918E-05,7.86735199653776E-06,1.40625,0,0
-2.67369650828186E-05,7.8966613727971E-06,1.40625,0,0
-2.52746467594989E-05,7.57281713958946E-06,1.40625,0,0
-2.04204097826732E-05,6.40373036731035E-06,1.40625,0,0
-3.03441684081918E-05,9.61582099989755E-06,1.40625,0,0
-2.49158947553951E-05,7.95436426415108E-06,1.40625,0,0
-3.03577926388243E-05,1.12996194729931E-05,1.40625,0,0
-2.60596643784083E-05,1.16828059617546E-05,1.40625,0,0
-2.97877868433716E-05,1.162836815638E-05,1.40625,0,0
-2.80508520518197E-05,1.03101192507893E-05,1.40625,0,0
-2.83386507362593E-05,1.08442345663207E-05,1.40625,0,0
-2.758419032034E-05,1.10814971776563E-05,1.40625,0,0
-2.77778399322415E-05,1.22279116112622E-05,1.40625,0,0
-2.83902791125001E-05,1.39173007482896E-05,1.40625,0,0
-2.78952884400496E-05,1.40702995850006E-05,1.40625,0,0
-2.86800550384214E-05,1.42935459734872E-05,1.40625,0,0
-2.70942528004525E-05,1.41467844514409E-05,1.40625,0,0
-2.78950519714272E-05,1.28735364341992E-05,1.40625,0,0
-2.77301332971547E-05,9.35345451580361E-06,1.40625,0,0
-2.93030716420617E-05,7.24320398148848E-06,1.40625,0,0
-2.68313651758945E-05,6.40712505628471E-06,1.40625,0,0
-2.4466138711432E-05,6.91593186274986E-06,1.40625,0,0
-2.13133916986408E-05,6.41235919829342E-06,1.40625,0,0
-2.19278354052221E-05,5.45489274372812E-06,1.40625,0,0
-2.17852739297086E-05,3.38563654622703E-06,1.40625,0,0
-2.10524394788081E-05,9.11931863356585E-07,1.40625,0,0
-1.89382644748548E-05,-4.72756426006526E-07,1.40625,0,0
-1.9198980226065E-05,1.97745166019558E-07,1.40625,0,0
-2.13923231058288E-05,1.22810263292195E-06,1.40625,0,0
-2.31586636800785E-05,3.20522826768865E-06,1.40625,0,0
-1.77113397512585E-05,6.27557028565207E-06,1.40625,0,0
-2.31727663049242E-05,1.11221725092037E-05,1.40625,0,0
-1.53091405081796E-05,1.1184893992322E-05,1.40625,0,0
-1.98566449398641E-05,1.25498409033753E-05,1.40625,0,0
-1.69251270563109E-05,1.07662444861489E-05,1.40625,0,0
-2.19252870010678E-05,1.06836214399664E-05,1.40625,0,0
-2.23336573981214E-05,8.67039580043638E-06,1.40625,0,0
-2.50473403866636E-05,5.8681962400442E-06,1.40625,0,0
-2.49652202910511E-05,4.21804588768282E-06,1.40625,0,0
-2.48369779001223E-05,5.86614578423905E-06,1.40625,0,0
-2.45463397732237E-05,9.07594585441984E-06,1.40625,0,0
-2.31543872359907E-05,1.03437687357655E-05,1.40625,0,0
-2.25191251956858E-05,9.95289883576334E-06,1.40625,0,0
-1.99234564206563E-05,8.86002635525074E-06,1.40625,0,0
-2.00384456547908E-05,7.41153007766115E-06,1.40625,0,0
-1.87799778359476E-05,4.80131438962417E-06,1.40625,0,0
-1.91387007362209E-05,4.33960758527974E-06,1.40625,0,0
-1.62091637321282E-05,5.8019713833346E-06,1.40625,0,0
-1.53366218000883E-05,8.36314393382054E-06,1.40625,0,0
-1.49317447721842E-05,9.98698124021757E-06,1.40625,0,0
-1.82302665052703E-05,1.20855238492368E-05,1.40625,0,0
-2.00453469005879E-05,1.3100493561069E-05,1.40625,0,0
-2.15523887163727E-05,1.35840391521924E-05,1.40625,0,0
-2.21260779653676E-05,1.46137817864656E-05,1.40625,0,0
-2.3281725589186E-05,1.69632803590503E-05,1.40625,0,0
-2.32835009228438E-05,1.95583652384812E-05,1.40625,0,0
-2.15442141779931E-05,1.95521060959436E-05,1.40625,0,0
-1.56694950419478E-05,1.41379305205191E-05,1.40625,0,0
-2.05318701773649E-05,1.86999222933082E-05,1.40625,0,0
-1.43662464324734E-05,1.22070123325102E-05,1.40625,0,0
-2.07854936888907E-05,1.49825755215716E-05,1.40625,0,0
-2.01137390831718E-05,1.15157417894807E-05,1.40625,0,0
-2.39355376834283E-05,1.54925564856967E-05,1.40625,0,0
-2.24067061935784E-05,1.72514246514766E-05,1.40625,0,0
-2.29366232815664E-05,2.04629577638116E-05,1.40625,0,0
-2.19784669752698E-05,1.96261080418481E-05,1.40625,0,0
-2.22021280933404E-05,1.76857356564142E-05,1.40625,0,0
-2.28895696636755E-05,1.61141524586128E-05,1.40625,0,0
-2.22629751078784E-05,1.65034125529928E-05,1.40625,0,0
-2.27126001846045E-05,1.95284737856127E-05,1.40625,0,0
-2.26683678192785E-05,2.02455412363634E-05,1.40625,0,0
-2.53935486398404E-05,2.09405188797973E-05,1.40625,0,0
-2.52120007644407E-05,1.95813427126268E-05,1.40625,0,0
-2.42990026890766E-05,1.97503177332692E-05,1.40625,0,0
-2.12367158383131E-05,1.8167980670114E-05,1.40625,0,0
-2.23128517973237E-05,1.75215773197124E-05,1.40625,0,0
-2.34106410061941E-05,1.53313303599134E-05,1.40625,0,0
-2.40214576479048E-05,1.56282694661058E-05,1.40625,0,0
-2.2068505131756E-05,1.51077774717123E-05,1.40625,0,0
-2.20000056287972E-05,1.54540484800236E-05,1.40625,0,0
-2.27067885134602E-05,1.52749507833505E-05,1.40625,0,0
-2.40864355873782E-05,1.41558675750275E-05,1.40625,0,0
-2.4590604880359E-05,1.29784984892467E-05,1.40625,0,0
-2.47015759669011E-05,1.47833916344098E-05,1.40625,0,0
-2.08394212677376E-05,1.45835829243879E-05,1.40625,0,0
-3.06500987790059E-05,2.04244151973398E-05,1.40625,0,0
-2.4103044779622E-05,1.26363665913232E-05,1.40625,0,0
-2.92762379103806E-05,1.17708796096849E-05,1.40625,0,0
-2.61630266322754E-05,7.45402758184355E-06,1.40625,0,0
-2.91637716145488E-05,1.09295806396403E-05,1.40625,0,0
-2.57309857261134E-05,9.98048562905751E-06,1.40625,0,0
-2.61122404481284E-05,1.06444185803412E-05,1.40625,0,0
-2.56512448686408E-05,1.07431678770809E-05,1.40625,0,0
-2.59623793681385E-05,1.22854844448739E-05,1.40625,0,0
-2.5737424948602E-05,1.56840233103139E-05,1.40625,0,0
-2.42072201217525E-05,1.76872381416615E-05,1.40625,0,0
-2.47205462073907E-05,1.69148934219265E-05,1.40625,0,0
-2.43747472268296E-05,1.08945851025055E-05,1.40625,0,0
-2.58258005487733E-05,7.19066656529321E-06,1.40625,0,0
-2.34278395510046E-05,6.0883230617037E-06,1.40625,0,0
-2.29034121730365E-05,8.86403904587496E-06,1.40625,0,0
-2.12692211789545E-05,9.61402656685095E-06,1.40625,0,0
-2.29075121751521E-05,1.04737673609634E-05,1.40625,0,0
-2.37750700762263E-05,9.5651612355141E-06,1.40625,0,0
-2.60141296166694E-05,1.01300211099442E-05,1.40625,0,0
-2.56211405940121E-05,1.12504703793093E-05,1.40625,0,0
-2.54798142123036E-05,1.45372623592266E-05,1.40625,0,0
-2.52055615419522E-05,1.79997095983708E-05,1.40625,0,0
-2.60391370829893E-05,1.96110504475655E-05,1.40625,0,0
-2.56484072451713E-05,1.61868938448606E-05,1.40625,0,0
-2.44696893787477E-05,1.21393586596241E-05,1.40625,0,0
-1.86660963663599E-05,6.96020924806362E-06,1.40625,0,0
-2.62354642472928E-05,1.01196228570188E-05,1.40625,0,0
-1.98363813979086E-05,1.00638144431286E-05,1.40625,0,0
-2.43542799580609E-05,1.35920681714197E-05,1.40625,0,0
-2.05209107662085E-05,1.12105381049332E-05,1.40625,0,0
-2.37890562857501E-05,1.24349480756791E-05,1.40625,0,0
-2.28250355576165E-05,1.30085090859211E-05,1.40625,0,0
-2.50326520472299E-05,1.26509858091595E-05,1.40625,0,0
-2.40687277255347E-05,1.0011163794843E-05,1.40625,0,0
-2.44971943175187E-05,8.48760828375816E-06,1.40625,0,0
-2.62232169916388E-05,7.75270564190578E-06,1.40625,0,0
-2.69166685029631E-05,7.36322726879735E-06,1.40625,0,0
-2.829747791111E-05,8.37246716400841E-06,1.40625,0,0
-2.77357030427083E-05,9.75756393017946E-06,1.40625,0,0
-2.88006885966752E-05,1.13558216980891E-05,1.40625,0,0
-2.70426062343176E-05,1.10072451207088E-05,1.40625,0,0
-2.70008731604321E-05,1.0820720490301E-05,1.40625,0,0
-2.42213773162803E-05,1.04445371107431E-05,1.40625,0,0
-2.34326744248392E-05,1.10092205432011E-05,1.40625,0,0
-2.2266047380981E-05,1.00650640888489E-05,1.40625,0,0
-2.32139936997555E-05,8.96719848242356E-06,1.40625,0,0
-2.27558193728328E-05,7.49171022107475E-06,1.40625,0,0
-2.37005606322782E-05,8.41792461869773E-06,1.40625,0,0
-2.42895112023689E-05,9.83072004601127E-06,1.40625,0,0
-2.50559678534046E-05,1.06434081317275E-05,1.40625,0,0
-2.41766683757305E-05,1.11288200059789E-05,1.40625,0,0
-2.32253041758668E-05,1.29585532704368E-05,1.40625,0,0
-1.94893818843411E-05,1.19725682452554E-05,1.40625,0,0
-3.00195861200336E-05,1.71684987435583E-05,1.40625,0,0
-2.58115360338707E-05,1.25303440654534E-05,1.40625,0,0
-2.93587054329691E-05,1.47606306200032E-05,1.40625,0,0
-2.4189746909542E-05,1.22232631838415E-05,1.40625,0,0
-2.7538930226001E-05,1.39981320899096E-05,1.40625,0,0
-2.64195350609953E-05,1.19241058200714E-05,1.40625,0,0
-2.71752742264653E-05,8.54991776577663E-06,1.40625,0,0
-2.59463558904827E-05,2.38271036323567E-06,1.40625,0,0
-2.61648528976366E-05,-5.78849324028852E-07,1.40625,0,0
-2.69185111392289E-05,-6.11406619555055E-07,1.40625,0,0
-2.62049525190378E-05,-3.69044357739767E-07,1.40625,0,0
-2.56708299275488E-05,4.90828369947849E-07,1.40625,0,0
-2.27281816478353E-05,9.09169045826275E-07,1.40625,0,0
-2.19293688132893E-05,2.3543532279291E-06,1.40625,0,0
-2.10014241019962E-05,1.54313420352992E-06,1.40625,0,0
-2.3170119675342E-05,2.9248408282001E-06,1.40625,0,0
-2.23917686525965E-05,4.09915992349852E-06,1.40625,0,0
-2.26458450924838E-05,5.49788910575444E-06,1.40625,0,0
-2.21323734876933E-05,5.10672316522687E-06,1.40625,0,0
-2.44770417339168E-05,6.03584521741141E-06,1.40625,0,0
-2.58059426414547E-05,5.74322530155769E-06,1.40625,0,0
-2.77083472610684E-05,6.02574436925352E-06,1.40625,0,0
-2.71420558419777E-05,6.07946185482433E-06,1.40625,0,0
-2.68414005404338E-05,6.16794795860187E-06,1.40625,0,0
-2.79901742032962E-05,6.32433739156113E-06,1.40625,0,0
-3.02600419672672E-05,7.14060251993942E-06,1.40625,0,0
-2.53120906563709E-05,5.60092394152889E-06,1.40625,0,0
-3.50839654856827E-05,7.91602724348195E-06,1.40625,0,0
-2.59605403698515E-05,7.20298385203932E-06,1.40625,0,0
-3.24319080391433E-05,1.07878731796518E-05,1.40625,0,0
-2.61622008110862E-05,1.02050871646497E-05,1.40625,0,0
-2.94345627480652E-05,1.19375190479332E-05,1.40625,0,0
-2.60983215412125E-05,1.33119219754008E-05,1.40625,0,0
-2.6786103262566E-05,1.36059597934945E-05,1.40625,0,0
-2.5903107598424E-05,1.11856234070729E-05,1.40625,0,0
-2.70350356004201E-05,8.09666926215868E-06,1.40625,0,0
-2.87217098957626E-05,6.9644047471229E-06,1.40625,0,0
-2.82409801002359E-05,6.99972815709771E-06,1.40625,0,0
-2.84243214991875E-05,7.61962974138442E-06,1.40625,0,0
-2.60256110777846E-05,7.17005332262488E-06,1.40625,0,0
-2.63452384388074E-05,7.88691068009939E-06,1.40625,0,0
-2.4306698833243E-05,8.39199765323428E-06,1.40625,0,0
-2.55820414167829E-05,7.82147435529623E-06,1.40625,0,0
-2.39967830566457E-05,6.22856441623298E-06,1.40625,0,0
-2.55895029113162E-05,7.57379484639387E-06,1.40625,0,0
-2.58632917393697E-05,8.92048228706699E-06,1.40625,0,0
-2.69470056082355E-05,8.16428018879378E-06,1.40625,0,0
-2.35386523854686E-05,6.35810420135385E-06,1.40625,0,0
-2.10213293030392E-05,5.25200812262483E-06,1.40625,0,0
-1.96335186046781E-05,4.75518845632905E-06,1.40625,0,0
-2.06644326681271E-05,4.48583659817814E-06,1.40625,0,0
-2.0135677914368E-05,6.02807767791091E-06,1.40625,0,0
-1.88973135664128E-05,9.17309353098972E-06,1.40625,0,0
-1.43366478368989E-05,7.75561784394085E-06,1.40625,0,0
-1.89626880455762E-05,1.07734604171128E-05,1.40625,0,0
-1.18466396088479E-05,9.15694727154914E-06,1.40625,0,0
-1.46126994877704E-05,1.44209689096897E-05,1.40625,0,0
-1.26742270367686E-05,1.41587361213169E-05,1.40625,0,0
-1.65640813065693E-05,1.4460009879258E-05,1.40625,0,0
-1.62476499099284E-05,1.39872490763082E-05,1.40625,0,0
-1.80390361492755E-05,1.63589011208387E-05,1.40625,0,0
-1.81087852979545E-05,1.75459790625609E-05,1.40625,0,0
-1.65243709489005E-05,1.81779214472044E-05,1.40625,0,0
-1.45775784403668E-05,1.89579350262647E-05,1.40625,0,0
-1.22093515528832E-05,1.89520505955443E-05,1.40625,0,0
-1.15682523755822E-05,1.92005463759415E-05,1.40625,0,0
-1.00518009276129E-05,1.79961316462141E-05,1.40625,0,0
-1.10937626232044E-05,1.71872616192559E-05,1.40625,0,0
-1.20299573609373E-05,1.5775693100295E-05,1.40625,0,0
-1.51098483911483E-05,1.65523542818846E-05,1.40625,0,0
-1.55418692884268E-05,1.66690315381857E-05,1.40625,0,0
-1.61474235937931E-05,1.54858735186281E-05,1.40625,0,0
-1.61007483256981E-05,1.2749775123666E-05,1.40625,0,0
-1.79776197910542E-05,1.17228937597247E-05,1.40625,0,0
-1.83083429874387E-05,1.26069044199539E-05,1.40625,0,0
-1.92465395230101E-05,1.43519191624364E-05,1.40625,0,0
-2.09049903787673E-05,1.45080011861864E-05,1.40625,0,0
-2.34099206863903E-05,1.43853139888961E-05,1.40625,0,0
-2.62389658018947E-05,1.47174378071213E-05,1.40625,0,0
-2.86492359009571E-05,1.56859223352512E-05,1.40625,0,0
-2.4489514544257E-05,1.27906596389948E-05,1.40625,0,0
-3.36644989147317E-05,1.58296352310572E-05,1.40625,0,0
-2.36778741964372E-05,1.02965204860084E-05,1.40625,0,0
-3.11040166707244E-05,1.66839563462418E-05,1.40625,0,0
-2.89820491161663E-05,1.66583195095882E-05,1.40625,0,0
-3.50098562194034E-05,1.98511261260137E-05,1.40625,0,0
-3.26168337778654E-05,1.77166803041473E-05,1.40625,0,0
-3.11446965497453E-05,1.66937461472116E-05,1.40625,0,0
-2.78967600024771E-05,1.40922365972074E-05,1.40625,0,0
-2.84080942947185E-05,1.22296696645208E-05,1.40625,0,0
-3.02859771181829E-05,1.07140622276347E-05,1.40625,0,0
-3.03833166981349E-05,8.04456249170471E-06,1.40625,0,0
-3.15641300403513E-05,6.9224165599735E-06,1.40625,0,0
-3.14708631776739E-05,5.74629439142882E-06,1.40625,0,0
-3.39778962370474E-05,7.38169183023274E-06,1.40625,0,0
-3.28776113747153E-05,8.27906387712574E-06,1.40625,0,0
-3.36915290972684E-05,1.02058747870615E-05,1.40625,0,0
-3.16531441058032E-05,1.06862426036969E-05,1.40625,0,0
-3.18541970045771E-05,1.37949555210071E-05,1.40625,0,0
-3.00467381748604E-05,1.6631985999993E-05,1.40625,0,0
-3.12311094603501E-05,1.958752363862E-05,1.40625,0,0
-3.02651715173852E-05,1.84758609975688E-05,1.40625,0,0
-2.92106669803616E-05,1.61716779984999E-05,1.40625,0,0
-2.7206848244532E-05,1.35625932671246E-05,1.40625,0,0
-2.70929995167535E-05,1.24874723042012E-05,1.40625,0,0
-2.66213664872339E-05,1.25055685202824E-05,1.40625,0,0
-2.54986953223124E-05,1.20322829388897E-05,1.40625,0,0
-1.92191437236033E-05,8.59314332046779E-06,1.40625,0,0
-2.59479747910518E-05,1.17817889986327E-05,1.40625,0,0
-1.80238384928089E-05,6.45555201117531E-06,1.58203125,0,0
-2.34095932682976E-05,5.03586215927498E-06,1.58203125,0,0
-2.08787096198648E-05,3.16619252771488E-06,1.58203125,0,0
-2.4509456125088E-05,7.1124541136669E-06,1.58203125,0,0
-2.29329561989289E-05,8.72741748025874E-06,1.58203125,0,0
-2.46180607064161E-05,1.10187702375697E-05,1.58203125,0,0
-2.45474548137281E-05,1.24239904835122E-05,1.58203125,0,0
-2.66441638814285E-05,1.46901957123191E-05,1.58203125,0,0
-2.9270478989929E-05,1.6578323993599E-05,1.58203125,0,0
-2.92002641799627E-05,1.61898460646626E-05,1.58203125,0,0
-2.81162156170467E-05,1.32275908981683E-05,1.58203125,0,0
-2.47263833443867E-05,9.35784464672906E-06,1.58203125,0,0
-2.46021063503576E-05,9.16227691050153E-06,1.58203125,0,0
-2.36418709391728E-05,9.27082874113694E-06,1.58203125,0,0
-2.55108079727506E-05,8.96623441803968E-06,1.58203125,0,0
-2.50485645665322E-05,7.9730989455129E-06,1.58203125,0,0
-2.67929444817128E-05,1.0985573680955E-05,1.58203125,0,0
-2.70567943516653E-05,1.44945061038015E-05,1.58203125,0,0
-2.83289700746536E-05,1.56236565089785E-05,1.58203125,0,0
-2.76093778666109E-05,1.18082089102245E-05,1.58203125,0,0
-2.83341523754643E-05,4.55491499451455E-06,1.58203125,0,0
-2.94894016406033E-05,-3.04514878735063E-06,1.58203125,0,0
-3.09987299260683E-05,-5.47356012248201E-06,1.58203125,0,0
-3.09888491756283E-05,-5.9514800341276E-06,1.58203125,0,0
-3.10557807097211E-05,-6.88016825733939E-06,1.58203125,0,0
-2.53273519774666E-05,-4.98385588798556E-06,1.58203125,0,0
-3.5857690818375E-05,-6.95238441039692E-06,1.58203125,0,0
-2.61082932411227E-05,-3.75430545318522E-06,1.58203125,0,0
-3.04715140373446E-05,-2.11029419006081E-06,1.58203125,0,0
-2.28349417739082E-05,2.75109118774708E-06,1.58203125,0,0
-2.45077590079745E-05,4.23592564402497E-06,1.58203125,0,0
-2.09087884286419E-05,6.04491469857749E-06,1.58203125,0,0
-2.21888130909065E-05,5.72371391172055E-06,1.58203125,0,0
-2.10872203751933E-05,5.23072367286659E-06,1.58203125,0,0
-2.01169204956386E-05,5.70648489883752E-06,1.58203125,0,0
-1.89872553164605E-05,6.78814058119315E-06,1.58203125,0,0
-1.70420807990013E-05,6.82770496496232E-06,1.58203125,0,0
-1.84234249900328E-05,5.08156699652318E-06,1.58203125,0,0
-1.80097431439208E-05,5.17895614393638E-06,1.58203125,0,0
-1.91290000657318E-05,7.23348239262123E-06,1.58203125,0,0
-1.66667068697279E-05,1.01651121440227E-05,1.58203125,0,0
-1.76159483089577E-05,1.11846766230883E-05,1.58203125,0,0
-1.67467951541767E-05,1.06975467133452E-05,1.58203125,0,0
-1.79990711330902E-05,9.39027540880488E-06,1.58203125,0,0
-1.63544063980225E-05,9.73947317106649E-06,1.58203125,0,0
-1.67083053383976E-05,1.08180784081924E-05,1.58203125,0,0
-1.58766688400647E-05,1.17665986181237E-05,1.58203125,0,0
-1.58393304445781E-05,1.19849391921889E-05,1.58203125,0,0
-1.29362879306427E-05,1.32773084260407E-05,1.58203125,0,0
-9.93235335045028E-06,1.3930550267105E-05,1.58203125,0,0
-9.53251128521515E-06,1.43243378261104E-05,1.58203125,0,0
-1.26675131468801E-05,1.5572304619127E-05,1.58203125,0,0
-1.298089773627E-05,1.41137106766109E-05,1.58203125,0,0
-1.92568950296845E-05,1.95116317627253E-05,1.58203125,0,0
-1.52680586325005E-05,1.21924422273878E-05,1.58203125,0,0
-1.75260483956663E-05,1.32310397020774E-05,1.58203125,0,0
-1.35932004923234E-05,7.86797500040848E-06,1.58203125,0,0
-1.32244585984154E-05,8.76327703736024E-06,1.58203125,0,0
-1.07430923890206E-05,7.29370640328852E-06,1.58203125,0,0
-1.19537762657274E-05,7.66876109992154E-06,1.58203125,0,0
-1.34250867631636E-05,7.3079286266875E-06,1.58203125,0,0
-1.40526253744611E-05,7.97651864559157E-06,1.58203125,0,0
-1.34580504891346E-05,8.92061143531464E-06,1.58203125,0,0
-1.32441346067935E-05,9.54337883740664E-06,1.58203125,0,0
-1.58678285515634E-05,1.16622913992614E-05,1.58203125,0,0
-1.74251290445682E-05,1.11842437036103E-05,1.58203125,0,0
-1.94172844203422E-05,1.00497491075657E-05,1.58203125,0,0
-2.01217462745262E-05,7.34224568077479E-06,1.58203125,0,0
-2.21411173697561E-05,6.93201855028747E-06,1.58203125,0,0
-2.22425242100144E-05,6.13077509115101E-06,1.58203125,0,0
-2.32087550102733E-05,7.48215597923263E-06,1.58203125,0,0
-2.28079807129689E-05,7.64994911151007E-06,1.58203125,0,0
-2.31527865253156E-05,9.46433647186495E-06,1.58203125,0,0
-2.2870031898492E-05,1.22119754450978E-05,1.58203125,0,0
-2.31130834436044E-05,1.582953518664E-05,1.58203125,0,0
-2.31026479013963E-05,1.77590954990592E-05,1.58203125,0,0
-2.34905674005859E-05,1.88918093044776E-05,1.58203125,0,0
-2.46322215389227E-05,1.85570552275749E-05,1.58203125,0,0
-2.51323326665442E-05,1.80628594534937E-05,1.58203125,0,0
-1.89131806109799E-05,1.44419063872192E-05,1.58203125,0,0
-2.69115025730571E-05,2.18179193325341E-05,1.58203125,0,0
-2.12462709896499E-05,1.89435213542311E-05,1.58203125,0,0
-2.78790521406336E-05,2.30243731493829E-05,1.58203125,0,0
-2.6556057491689E-05,1.93411342479521E-05,1.58203125,0,0
-3.19945720548276E-05,2.045119072136E-05,1.58203125,0,0
-3.22411287925206E-05,1.74186425283551E-05,1.58203125,0,0
-3.56145719706547E-05,1.53627261170186E-05,1.58203125,0,0
-3.51998714904767E-05,1.16955125122331E-05,1.58203125,0,0
-3.45330663549248E-05,1.00118659247528E-05,1.58203125,0,0
-3.48992143699434E-05,1.00088327599224E-05,1.58203125,0,0
-3.5714685509447E-05,9.55024916038383E-06,1.58203125,0,0
-3.77814030798618E-05,9.83886729954975E-06,1.58203125,0,0
-3.63066246791277E-05,8.01200712885475E-06,1.58203125,0,0
-3.56542805093341E-05,7.10205449649948E-06,1.58203125,0,0
-3.30694711010437E-05,5.92507876717718E-06,1.58203125,0,0
-3.30060283886269E-05,7.20193838787964E-06,1.58203125,0,0
-3.16202385874931E-05,5.25520181327011E-06,1.58203125,0,0
-3.30432994815055E-05,3.6095914310863E-06,1.58203125,0,0
-3.24467218888458E-05,2.95814857054211E-06,1.58203125,0,0
-3.28013084072154E-05,4.64077993456158E-06,1.58203125,0,0
-3.18889506161213E-05,4.47197407993372E-06,1.58203125,0,0
-3.24832362821326E-05,4.85138252770412E-06,1.58203125,0,0
-3.19277132803109E-05,5.51987113794894E-06,1.58203125,0,0
-3.14619537675753E-05,7.42534894015989E-06,1.58203125,0,0
-3.10312461806461E-05,8.7362714111805E-06,1.58203125,0,0
-3.07319860439748E-05,1.03272759588435E-05,1.58203125,0,0
-2.55939667113125E-05,1.0369826668466E-05,1.58203125,0,0
-3.73018410755321E-05,1.48145882121753E-05,1.58203125,0,0
-3.00770661851857E-05,1.23106619867031E-05,1.58203125,0,0
-3.74338378605898E-05,1.67337457241956E-05,1.58203125,0,0
-3.27452580677345E-05,1.29722138808575E-05,1.58203125,0,0
-3.76770331058651E-05,1.14068498078268E-05,1.58203125,0,0
-3.67387947335374E-05,1.07591195046552E-05,1.58203125,0,0
-3.87818981835153E-05,1.25363885672414E-05,1.58203125,0,0
-3.55449919879902E-05,1.50588857650291E-05,1.58203125,0,0
-3.16343066515401E-05,1.83340762305306E-05,1.58203125,0,0
-2.96459729725029E-05,2.02121445909142E-05,1.58203125,0,0
-2.80474705505185E-05,1.92469615285518E-05,1.58203125,0,0
-2.84331417788053E-05,1.69702580024023E-05,1.58203125,0,0
-2.59592343354598E-05,1.41442433232442E-05,1.58203125,0,0
-2.59015268966323E-05,1.44460400406388E-05,1.58203125,0,0
-2.22289290832123E-05,1.5478462955798E-05,1.58203125,0,0
-2.02513929252746E-05,1.77222736965632E-05,1.58203125,0,0
-1.55211691890145E-05,1.83455413207412E-05,1.58203125,0,0
-1.35763875732664E-05,1.83387182914885E-05,1.58203125,0,0
-9.85039150691591E-06,1.65474593813997E-05,1.58203125,0,0
-8.45153226691764E-06,1.69266259035794E-05,1.58203125,0,0
-6.42645363768679E-06,1.74132273969008E-05,1.58203125,0,0
-7.86823966336669E-06,1.6700292690075E-05,1.58203125,0,0
-8.79170147527475E-06,1.54288773046574E-05,1.58203125,0,0
-1.00741344795097E-05,1.58953680511331E-05,1.58203125,0,0
-1.1713695130311E-05,1.70990078913746E-05,1.58203125,0,0
-1.45530802910798E-05,1.74187443917617E-05,1.58203125,0,0
-1.44757786983973E-05,1.32053792185616E-05,1.58203125,0,0
-2.29673241847195E-05,1.85092685569543E-05,1.58203125,0,0
-2.107454383804E-05,1.25310598377837E-05,1.58203125,0,0
-2.52706759056309E-05,1.43418683364871E-05,1.58203125,0,0
-2.33009122894146E-05,1.11972522063297E-05,1.58203125,0,0
-2.68773019342916E-05,1.48278750202735E-05,1.58203125,0,0
-2.61865607171785E-05,1.61391599249328E-05,1.58203125,0,0
-2.58855106949341E-05,1.67662092280807E-05,1.58203125,0,0
-2.53720609180164E-05,1.51779449879541E-05,1.58203125,0,0
-2.61071381828515E-05,1.5098848962225E-05,1.58203125,0,0
-2.6442075977684E-05,1.63708627951564E-05,1.58203125,0,0
-2.53386551776202E-05,1.71761057572439E-05,1.58203125,0,0
-2.49597014772007E-05,1.6748843336245E-05,1.58203125,0,0
-2.26640349865193E-05,1.33818521135254E-05,1.58203125,0,0
-2.11187052627793E-05,1.12632769742049E-05,1.58203125,0,0
-1.83723896043375E-05,9.37331424211152E-06,1.58203125,0,0
-1.78882164618699E-05,1.08697668110835E-05,1.58203125,0,0
-1.69099585036747E-05,1.19879323392524E-05,1.58203125,0,0
-1.70142484421376E-05,1.31779806906707E-05,1.58203125,0,0
-1.5298193829949E-05,1.08066724351374E-05,1.58203125,0,0
-1.53362980199745E-05,8.31216311780736E-06,1.58203125,0,0
-1.62753221957246E-05,5.04087893204996E-06,1.58203125,0,0
-1.91970048035728E-05,3.99055534217041E-06,1.58203125,0,0
-2.05680698854849E-05,4.20094784203684E-06,1.58203125,0,0
-2.04120042326394E-05,5.06055948790163E-06,1.58203125,0,0
-2.07255761779379E-05,5.78925028094091E-06,1.58203125,0,0
-2.10065736609977E-05,5.62441573492833E-06,1.58203125,0,0
-1.87931545951869E-05,3.83453834729153E-06,1.58203125,0,0
-2.98553350148723E-05,5.65948221264989E-06,1.58203125,0,0
-2.60797951341374E-05,5.16522459292901E-06,1.58203125,0,0
-3.11063740809914E-05,5.63419371246709E-06,1.58203125,0,0
-2.88345327135175E-05,3.57714816345833E-06,1.58203125,0,0
-3.17286830977537E-05,3.14085468744452E-06,1.58203125,0,0
-3.03455526591279E-05,1.42324552143691E-06,1.58203125,0,0
-3.18495331157465E-05,1.02356943898485E-06,1.58203125,0,0
-3.1114264857024E-05,9.17402701361425E-07,1.58203125,0,0
-3.08000744553283E-05,2.17107162825414E-06,2.4609375,0,0
-3.10929681290872E-05,4.18845002059243E-06,2.4609375,0,0
-3.05824651150033E-05,5.08708308188943E-06,2.4609375,0,0
-3.12512747768778E-05,6.34756497674971E-06,2.4609375,0,0
-3.05472822219599E-05,7.4172453423671E-06,2.4609375,0,0
-3.09512215608265E-05,9.12846553546842E-06,2.4609375,0,0
-2.86468275589868E-05,1.01989153336035E-05,2.4609375,0,0
-2.77616381936241E-05,1.02640251498087E-05,2.4609375,0,0
-2.57425017480273E-05,8.87361693457933E-06,2.4609375,0,0
-2.55931227002293E-05,8.70221902005142E-06,2.4609375,0,0
-2.34479230130091E-05,1.00602183010778E-05,2.4609375,0,0
-2.32392158068251E-05,1.24386697279988E-05,2.4609375,0,0
-2.19569919863716E-05,1.26762106447131E-05,2.4609375,0,0
-2.1223431758699E-05,1.13806881927303E-05,2.4609375,0,0
-2.09633399208542E-05,1.03140610008268E-05,2.4609375,0,0
-2.22313592530554E-05,1.07204141386319E-05,2.4609375,0,0
-2.19566245505121E-05,1.29239806483383E-05,2.4609375,0,0
-1.95972897927277E-05,1.515476469649E-05,2.4609375,0,0
-1.37619690576685E-05,1.19609931061859E-05,2.4609375,0,0
-1.79557046067202E-05,1.57346603373298E-05,2.4609375,0,0
-1.09721077024005E-05,1.14297954496578E-05,2.4609375,0,0
-1.34309520944953E-05,1.76721769094002E-05,2.4609375,0,0
-9.85549922916107E-06,1.60893996508094E-05,2.4609375,0,0
-1.14038593892474E-05,1.62123978952877E-05,2.4609375,0,0
-1.05735271063168E-05,1.57749745994806E-05,2.4609375,0,0
-1.33081757667242E-05,1.7602327716304E-05,2.4609375,0,0
-1.47728815136361E-05,1.52262036863249E-05,2.4609375,0,0
-1.63283039000817E-05,1.29297213788959E-05,2.4609375,0,0
-1.70636412804015E-05,1.14847271106555E-05,2.4609375,0,0
-1.65754245244898E-05,1.16714563773712E-05,2.4609375,0,0
-1.73050648299977E-05,1.37581910166773E-05,2.4609375,0,0
-1.69910435943166E-05,1.31239685288165E-05,2.4609375,0,0
-1.88747017091373E-05,1.19104779514601E-05,2.4609375,0,0
-1.90650171134621E-05,9.29103316593682E-06,2.4609375,0,0
-2.04651150852442E-05,9.90174885373563E-06,2.4609375,0,0
-2.07573430088814E-05,1.01315126812551E-05,2.4609375,0,0
-2.29809011216275E-05,9.72068755800137E-06,2.4609375,0,0
-2.4111550374073E-05,5.58738111067214E-06,2.4609375,0,0
-2.71890330623137E-05,2.94609071715968E-06,2.4609375,0,0
-2.96351336146472E-05,2.4785122150206E-06,2.4609375,0,0
-2.98858649330214E-05,5.3405346989166E-06,2.4609375,0,0
-2.67680534307146E-05,6.76604804539238E-06,2.4609375,0,0
-2.49794175033458E-05,5.88635248277569E-06,2.4609375,0,0
-2.49554923357209E-05,6.25909297014005E-06,2.4609375,0,0
-2.56153143709525E-05,9.42496808420401E-06,2.4609375,0,0
-2.08236051548738E-05,9.95860955299577E-06,2.4609375,0,0
-2.93518824037164E-05,1.43680263136048E-05,2.4609375,0,0
-2.19239846046548E-05,9.65248000284191E-06,2.4609375,0,0
-2.83900244539836E-05,1.09291468106676E-05,2.4609375,0,0
-2.71492990577826E-05,9.33163664740277E-06,2.4609375,0,0
-3.30548282363452E-05,1.13451533252373E-05,2.4609375,0,0
-3.13837081193924E-05,1.20957611215999E-05,2.4609375,0,0
-3.13589953293558E-05,1.27313642224181E-05,2.4609375,0,0
-3.00694646284683E-05,1.11672452476341E-05,2.4609375,0,0
-3.1102099455893E-05,9.95612845144933E-06,2.4609375,0,0
-3.31001319864299E-05,9.41163852985483E-06,2.4609375,0,0
-3.42924540746026E-05,9.13384519662941E-06,2.4609375,0,0
-3.64182487828657E-05,1.01629811979365E-05,2.4609375,0,0
-3.52759197994601E-05,1.02417789094034E-05,2.4609375,0,0
-3.44169784511905E-05,1.14748472697102E-05,2.4609375,0,0
-3.15507786581293E-05,1.25172628031578E-05,2.4609375,0,0
-3.17291596729774E-05,1.40291986099328E-05,2.4609375,0,0
-2.9300548703759E-05,1.35237360154861E-05,2.4609375,0,0
-2.84729630948277E-05,1.36693888634909E-05,2.4609375,0,0
-2.62396879406879E-05,1.37666893351707E-05,2.4609375,0,0
-2.68037892965367E-05,1.40519641718129E-05,2.4609375,0,0
-2.69174634013325E-05,1.24651023725164E-05,2.4609375,0,0
-2.90547141048592E-05,1.24532452900894E-05,2.4609375,0,0
-2.88626233668765E-05,1.30895232359762E-05,2.4609375,0,0
-2.75939200946596E-05,1.4276209185482E-05,2.4609375,0,0
-2.63402416749159E-05,1.49612988025183E-05,2.4609375,0,0
-2.51304245466599E-05,1.37153556352132E-05,2.4609375,0,0
-1.86585893970914E-05,8.83897700987291E-06,2.4609375,0,0
-2.5980069040088E-05,1.10125965875341E-05,2.4609375,0,0
-1.86878569365945E-05,7.28319218978868E-06,2.4609375,0,0
-2.26873307838105E-05,1.13636551759555E-05,2.4609375,0,0
-1.81690556928515E-05,9.82005167315947E-06,2.4609375,0,0
-2.00955382751999E-05,1.03243410194409E-05,2.4609375,0,0
-1.80245515366551E-05,9.27710789255798E-06,2.4609375,0,0
-1.98696998268133E-05,1.22260325952084E-05,2.4609375,0,0
-1.98557809198974E-05,1.34219508254318E-05,2.4609375,0,0
-2.06530094146729E-05,1.17443278213614E-05,2.4609375,0,0
-2.13787407119526E-05,1.04042355815182E-05,2.4609375,0,0
-2.03240851988085E-05,1.07943842522218E-05,2.4609375,0,0
-1.97100380319171E-05,1.23033150885021E-05,2.4609375,0,0
-1.76274734258186E-05,1.15736684165313E-05,2.4609375,0,0
-1.76859120983863E-05,1.20467302622274E-05,2.4609375,0,0
-1.60119489009958E-05,1.22241999633843E-05,2.4609375,0,0
-1.7487705918029E-05,1.21007615234703E-05,2.4609375,0,0
-1.7633312381804E-05,1.04999526229221E-05,2.4609375,0,0
-1.94491149159148E-05,1.19631476991344E-05,2.4609375,0,0
-1.90518876479473E-05,1.42542112371302E-05,2.4609375,0,0
-2.02214723685756E-05,1.5640373021597E-05,2.4609375,0,0
-2.01571328943828E-05,1.40899710459053E-05,2.4609375,0,0
-2.06043168873293E-05,1.35124901134986E-05,2.4609375,0,0
-2.05888627533568E-05,1.38091381813865E-05,2.4609375,0,0
-2.21041955228429E-05,1.2068429896317E-05,2.4609375,0,0
-2.35230563703226E-05,7.37501932235318E-06,2.4609375,0,0
-2.43374070123537E-05,5.42083125765203E-06,2.4609375,0,0
-2.12553713936359E-05,5.1903075473092E-06,2.4609375,0,0
-3.14849639835302E-05,6.41526412437088E-06,2.4609375,0,0
-2.43040321947774E-05,4.16031571148778E-06,2.4609375,0,0
-2.73513342108345E-05,6.69227074467926E-06,2.4609375,0,0
-2.06541408260819E-05,6.8349013417901E-06,2.4609375,0,0
-2.18141030927654E-05,8.57824488775805E-06,2.4609375,0,0
-1.95319498743629E-05,8.62756223796168E-06,2.4609375,0,0
-2.13454768527299E-05,8.78045466379263E-06,2.4609375,0,0
-2.10429388971534E-05,8.04432056611404E-06,2.4609375,0,0
-1.93768537428696E-05,7.47069407225354E-06,2.4609375,0,0
-1.85861663339892E-05,7.73652845964534E-06,2.4609375,0,0
-1.96628698176937E-05,8.18421449366724E-06,2.4609375,0,0
-2.31924204854295E-05,9.85729820968118E-06,2.4609375,0,0
-2.34052367886761E-05,1.05458548205206E-05,2.4609375,0,0
-2.43872982537141E-05,9.71475765254581E-06,2.4609375,0,0
-2.38289976550732E-05,7.87412227509776E-06,2.4609375,0,0
-2.60435808741022E-05,7.35241064830916E-06,2.4609375,0,0
-2.54837123065954E-05,6.16750730841886E-06,2.4609375,0,0
-2.60683136730222E-05,5.67347524338402E-06,2.4609375,0,0
-2.41541492869146E-05,5.09843812324107E-06,2.4609375,0,0
-2.30482601182302E-05,3.98516340283095E-06,2.4609375,0,0
-2.17847846215591E-05,1.72339605342131E-06,2.4609375,0,0
-2.42956830334151E-05,-8.89612294940889E-07,2.4609375,0,0
-2.70382279268233E-05,-4.74121225124691E-06,2.4609375,0,0
-2.89130730379839E-05,-6.62412730889628E-06,2.4609375,0,0
-2.89994641207159E-05,-6.60247496853117E-06,2.4609375,0,0
-2.85782389255473E-05,-4.43417957285419E-06,2.4609375,0,0
-2.16472253669053E-05,1.24329153550207E-06,2.4609375,0,0
-2.94551646220498E-05,6.19405955148977E-06,2.4609375,0,0
-2.20461097342195E-05,1.06198031062377E-05,2.4609375,0,0
-2.94205783575308E-05,1.40352440212155E-05,2.4609375,0,0
-2.61500172200613E-05,1.75292934727622E-05,2.4609375,0,0
-3.08220842271112E-05,1.86521792784333E-05,2.4609375,0,0
-2.92363220069092E-05,2.08055753319059E-05,2.4609375,0,0
-3.12321244564373E-05,2.17117558349855E-05,2.4609375,0,0
-3.02245553029934E-05,2.08628425752977E-05,2.4609375,0,0
-2.8826772904722E-05,1.89623478945578E-05,2.4609375,0,0
-2.82735636574216E-05,1.70835446624551E-05,2.4609375,0,0
-2.79523719655117E-05,1.54306962940609E-05,2.4609375,0,0
-2.82377332041506E-05,1.61382558871992E-05,2.4609375,0,0
-2.45835544774309E-05,1.8935064872494E-05,2.4609375,0,0
-2.39909149968298E-05,2.18778295675293E-05,2.4609375,0,0
-2.33410482906038E-05,2.48564701905707E-05,2.4609375,0,0
-2.66885981545784E-05,2.63046022155322E-05,2.4609375,0,0
-2.78620918834349E-05,2.64064474322367E-05,2.4609375,0,0
-3.01175914501073E-05,2.45782503043301E-05,2.4609375,0,0
-2.85140195046552E-05,2.08031742658932E-05,2.4609375,0,0
-2.75078127742745E-05,1.73497192008654E-05,2.4609375,0,0
-2.43582799157593E-05,1.65892761287978E-05,2.4609375,0,0
-2.26410556933843E-05,1.73291809915099E-05,2.4609375,0,0
-2.14845877053449E-05,1.88449830602622E-05,2.4609375,0,0
-2.23401857510908E-05,1.83820302481763E-05,2.4609375,0,0
-2.32516940741334E-05,1.78443460754352E-05,2.4609375,0,0
-2.49806471401826E-05,1.90970094990917E-05,2.4609375,0,0
-2.05755841307109E-05,1.61509269673843E-05,2.4609375,0,0
-2.86778449662961E-05,2.20260099013103E-05,2.4609375,0,0
-2.12704962905264E-05,1.68622955243336E-05,2.4609375,0,0
-2.6972285922966E-05,2.43211434280965E-05,2.4609375,0,0
-2.47932348429458E-05,2.1922425730736E-05,2.4609375,0,0
-2.97461247100728E-05,2.21652280743001E-05,2.4609375,0,0
-2.74961057584733E-05,1.74444940057583E-05,2.4609375,0,0
-2.84618054138264E-05,1.63093554874649E-05,2.4609375,0,0
-2.86434842564631E-05,1.40983465826139E-05,2.4609375,0,0
-3.0104640245554E-05,1.31721444631694E-05,2.4609375,0,0
-2.9834067390766E-05,1.26602253658348E-05,2.4609375,0,0
-2.69796182692517E-05,1.30883427118533E-05,2.4609375,0,0
-2.59709922829643E-05,1.59262308443431E-05,2.4609375,0,0
-2.47149237111444E-05,1.55931484187022E-05,2.4609375,0,0
-2.71433309535496E-05,1.51131071106647E-05,4.39453125,0,0
-2.707333987928E-05,1.27757684822427E-05,4.39453125,0,0
-2.85158403130481E-05,1.22914489111281E-05,4.39453125,0,0
-2.80797339655692E-05,8.99339829629753E-06,4.39453125,0,0
-2.93409520963905E-05,6.67036283630296E-06,4.39453125,0,0
-2.64832215179922E-05,3.08717994812469E-06,4.39453125,0,0
-2.45690389419906E-05,3.70474072042271E-06,4.39453125,0,0
-2.26497886615107E-05,6.09402741247322E-06,4.39453125,0,0
-2.30151417781599E-05,8.44205806060927E-06,4.39453125,0,0
-2.30066925723804E-05,5.52432311451412E-06,4.39453125,0,0
-2.29977376875468E-05,2.48595324592316E-06,4.39453125,0,0
-2.19083285628585E-05,4.0840695874067E-06,4.39453125,0,0
-2.1256237232592E-05,8.13110364106251E-06,4.39453125,0,0
-1.66387326316908E-05,8.05232320999494E-06,4.39453125,0,0
-2.3448756110156E-05,9.5552604761906E-06,4.39453125,0,0
-1.78305981535232E-05,3.77379478777584E-06,4.39453125,0,0
-2.22208145714831E-05,4.70958957521361E-06,4.39453125,0,0
-1.90053378901212E-05,5.8213850024913E-06,4.39453125,0,0
-2.2276184608927E-05,8.69427003635792E-06,4.39453125,0,0
-2.19417415792122E-05,5.81309268454788E-06,4.39453125,0,0
-2.34848812397104E-05,7.15495662007015E-06,4.39453125,0,0
-2.35098086704966E-05,9.89606269286014E-06,4.39453125,0,0
-2.49887907557422E-05,1.17999725262052E-05,4.39453125,0,0
-2.63487836491549E-05,1.30655598695739E-05,4.39453125,0,0
-2.60227425314952E-05,1.32004051920376E-05,4.39453125,0,0
-2.66768111032434E-05,1.21506527648307E-05,4.39453125,0,0
-2.58127784036333E-05,9.20848378882511E-06,4.39453125,0,0
-2.74027242994634E-05,8.69665473146597E-06,4.39453125,0,0
-2.68227395281428E-05,1.02528720162809E-05,4.39453125,0,0
-2.6210078431177E-05,1.31987817439949E-05,4.39453125,0,0
-2.40084191318601E-05,1.24720800158684E-05,4.39453125,0,0
-2.52500212809537E-05,1.03567763289902E-05,4.39453125,0,0
-2.56115017691627E-05,6.14019836575608E-06,4.39453125,0,0
-2.62126850429922E-05,3.48495996149722E-06,4.39453125,0,0
-2.49592449108604E-05,2.23570964408282E-06,4.39453125,0,0
-2.43735394178657E-05,2.83027452496754E-06,4.39453125,0,0
-2.26424417633098E-05,3.12245060740679E-06,4.39453125,0,0
-2.14036808756646E-05,5.01761724081007E-06,4.39453125,0,0
-2.02700884983642E-05,9.76656974671641E-06,4.39453125,0,0
-1.9109929780825E-05,1.52145257743541E-05,4.39453125,0,0
-1.39015501190443E-05,1.50975374708651E-05,4.39453125,0,0
-1.95943666767562E-05,2.01774964807555E-05,4.39453125,0,0
-1.3977951311972E-05,1.2934197911818E-05,4.39453125,0,0
-1.53028577187797E-05,1.71097108250251E-05,4.39453125,0,0
-1.01890373116476E-05,1.62960750458296E-05,4.39453125,0,0
-1.04698583527352E-05,2.11657188629033E-05,4.39453125,0,0
-8.93184005690273E-06,2.02703558898065E-05,4.39453125,0,0
-1.18782099889359E-05,1.9455674191704E-05,4.39453125,0,0
-1.31241786220926E-05,1.69623490364756E-05,4.39453125,0,0
-1.43811093948898E-05,1.48988074215595E-05,4.39453125,0,0
-1.59096780407708E-05,1.32123523144401E-05,4.39453125,0,0
-1.68497481354279E-05,1.03403799585067E-05,4.39453125,0,0
-1.87333280337043E-05,6.25320626568282E-06,4.39453125,0,0
-1.86911311175209E-05,-7.15015232799487E-07,4.39453125,0,0
-1.942753806361E-05,-4.67546124127693E-06,4.39453125,0,0
-1.90378505067201E-05,-7.52027881389949E-06,4.39453125,0,0
-2.09424251806922E-05,-7.14241923560621E-06,4.39453125,0,0
-2.20001293200767E-05,-7.22877985026571E-06,4.39453125,0,0
-2.45475439442089E-05,-3.77060905520921E-06,4.39453125,0,0
-2.56441162491683E-05,-1.02241912713907E-07,4.39453125,0,0
-2.78283187071793E-05,4.79092568639317E-06,4.39453125,0,0
-2.80613512586569E-05,8.54642803460592E-06,4.39453125,0,0
-2.78605511994101E-05,1.3594122719951E-05,4.39453125,0,0
-2.72213164862478E-05,1.65304954862222E-05,4.39453125,0,0
-2.72115303232567E-05,1.56482037709793E-05,4.39453125,0,0
-2.63461679423926E-05,1.21139019029215E-05,4.39453125,0,0
-2.513444997021E-05,1.05326298580621E-05,4.39453125,0,0
-1.87799741979688E-05,9.69273787632119E-06,4.39453125,0,0
-2.65833768935408E-05,1.47642658703262E-05,4.39453125,0,0
-2.04049174499232E-05,1.30386906675994E-05,4.39453125,0,0
-2.58161871897755E-05,1.65648016263731E-05,4.39453125,0,0
-2.31910962611437E-05,1.47329110404826E-05,4.39453125,0,0
-2.84578964055981E-05,1.64856428455096E-05,4.39453125,0,0
-2.81148350040894E-05,1.63936128956266E-05,4.39453125,0,0
-2.933625728474E-05,1.64737193699693E-05,4.39453125,0,0
-2.87998536805389E-05,1.53340588440187E-05,4.39453125,0,0
-2.90131138172001E-05,1.37902816277347E-05,4.39453125,0,0
-2.92217446258292E-05,1.51458862092113E-05,4.39453125,0,0
-2.89764211629517E-05,1.89930833585095E-05,4.39453125,0,0
-2.99386538245017E-05,2.37440035562031E-05,4.39453125,0,0
-2.94440233119531E-05,2.50340490310919E-05,4.39453125,0,0
-3.0522067390848E-05,2.46292001975235E-05,4.39453125,0,0
-2.8536935133161E-05,2.27990167331882E-05,4.39453125,0,0
-2.80929816653952E-05,2.30745117733022E-05,4.39453125,0,0
-2.63790388999041E-05,2.32240618061041E-05,4.39453125,0,0
-2.70647542492952E-05,2.33260980166961E-05,4.39453125,0,0
-2.51250130531844E-05,2.10527305171127E-05,4.39453125,0,0
-2.40804038185161E-05,1.83391694008606E-05,4.39453125,0,0
-2.269446849823E-05,1.58719412866049E-05,4.39453125,0,0
-2.1741214368376E-05,1.54020162881352E-05,4.39453125,0,0
-1.83485353772994E-05,1.59744104166748E-05,4.39453125,0,0
-1.83534266398055E-05,1.66328591149068E-05,4.39453125,0,0
-2.25457497435855E-05,1.44212581290049E-05,4.39453125,0,0
-2.64430618699407E-05,9.36057131184498E-06,4.39453125,0,0
-2.09741720027523E-05,4.22523135057418E-06,4.39453125,0,0
-2.79524610959925E-05,4.28599423685228E-06,4.39453125,0,0
-1.9036777302972E-05,-4.3777274072454E-07,4.39453125,0,0
-2.46575691562612E-05,-1.48752951645292E-06,4.39453125,0,0
-2.18071618292015E-05,-2.21102004616114E-06,4.39453125,0,0
-2.83203607978066E-05,4.51040790494517E-07,4.39453125,0,0
-2.88151913991896E-05,2.57028068517684E-06,4.39453125,0,0
-3.09071619994938E-05,4.22683524448075E-06,4.39453125,0,0
-2.94096917059505E-05,4.95671565658995E-06,4.39453125,0,0
-2.92785771307535E-05,7.73019201005809E-06,4.39453125,0,0
-3.05586509057321E-05,8.89518378244247E-06,4.39453125,0,0
-3.01177169603761E-05,6.3904217313393E-06,4.39453125,0,0
-2.98431896226248E-05,5.54538564756513E-06,4.39453125,0,0
-2.66693623416359E-05,7.91215006756829E-06,4.39453125,0,0
-2.66790357272839E-05,1.0558256690274E-05,4.39453125,0,0
-2.46301005972782E-05,1.14968288471573E-05,4.39453125,0,0
-2.36485830100719E-05,1.35515429064981E-05,4.39453125,0,0
-1.95172688108869E-05,1.56209571287036E-05,4.39453125,0,0
-1.84176296897931E-05,1.71470273926388E-05,4.39453125,0,0
-1.65172023116611E-05,1.73020162037574E-05,4.39453125,0,0
-1.76694484252948E-05,1.86788056453224E-05,4.39453125,0,0
-1.82087587745627E-05,1.90356568054995E-05,4.39453125,0,0
-1.91759336303221E-05,1.76791836565826E-05,4.39453125,0,0
-1.87839541467838E-05,1.60003874043468E-05,4.39453125,0,0
-1.87565947271651E-05,1.54693680087803E-05,4.39453125,0,0
-1.86439028766472E-05,1.46915936056757E-05,4.39453125,0,0
-1.96152159332996E-05,1.49696406879229E-05,4.39453125,0,0
-1.7999998817686E-05,1.29032323457068E-05,4.39453125,0,0
-2.74873164016753E-05,1.70986404555151E-05,4.39453125,0,0
-2.41323959926376E-05,9.29063935473096E-06,4.39453125,0,0
-2.95780519081745E-05,8.41750534164021E-06,4.39453125,0,0
-2.66932274826104E-05,2.10272696676839E-06,4.39453125,0,0
-3.0135926863295E-05,4.23802657678607E-06,4.39453125,0,0
-2.85264668491436E-05,5.61373963137157E-06,4.39453125,0,0
-2.87446564470883E-05,6.70756162435282E-06,4.39453125,0,0
-2.84657926385989E-05,3.71332271242864E-06,4.39453125,0,0
-2.94854689855129E-05,2.77551043836866E-06,4.39453125,0,0
-2.98241575364955E-05,4.62641901322058E-06,4.39453125,0,0
-2.82300534308888E-05,5.13544455316151E-06,4.39453125,0,0
-2.74018693744438E-05,5.50016466149827E-06,4.39453125,0,0
-2.58118252531858E-05,4.58475187770091E-06,4.39453125,0,0
-2.72787874564528E-05,4.76273908134317E-06,4.39453125,0,0
-2.70902801275952E-05,4.44759052697918E-06,4.39453125,0,0
-2.8389895305736E-05,6.26955034022103E-06,4.39453125,0,0
-2.81969823845429E-05,5.3637240853277E-06,4.39453125,0,0
-2.9325921786949E-05,4.9738250709197E-06,4.39453125,0,0
-2.70492782874499E-05,5.57844532522722E-06,4.39453125,0,0
-2.5600387743907E-05,8.90673436515499E-06,4.39453125,0,0
-2.44185830524657E-05,1.04967421066249E-05,4.39453125,0,0
-2.47675343416631E-05,1.16227529360913E-05,4.39453125,0,0
-2.41110810748069E-05,1.12675816126284E-05,4.39453125,0,0
-2.52680110861547E-05,1.18664374895161E-05,4.39453125,0,0
-2.63102683675243E-05,1.4989634109952E-05,4.39453125,0,0
-2.54577553278068E-05,1.84564942173893E-05,4.39453125,0,0
-1.87850891961716E-05,1.52477914525662E-05,4.39453125,0,0
-2.60523574979743E-05,1.87795067176921E-05,4.39453125,0,0
-2.01524508156581E-05,1.08038721009507E-05,4.39453125,0,0
-2.7303074602969E-05,1.4754995390831E-05,4.39453125,0,0
-2.31485264521325E-05,1.11856907096808E-05,4.39453125,0,0
-2.33077407756355E-05,1.32667119032703E-05,4.39453125,0,0
-1.87414643733064E-05,1.19164060379262E-05,4.39453125,0,0
-1.83413758350071E-05,1.39891717481078E-05,4.39453125,0,0
-1.63377208082238E-05,1.39920857691322E-05,4.39453125,0,0
-1.50683990796097E-05,1.31258148030611E-05,4.39453125,0,0
-1.54866866068915E-05,9.28407825995237E-06,4.39453125,0,0
-1.58698330778861E-05,3.77400760953606E-06,4.39453125,0,0
-1.78241170942783E-05,3.64457764590043E-06,4.39453125,0,0
-1.69712820934365E-05,5.86789838052937E-06,4.39453125,0,0
-1.84732980414992E-05,8.14303712104447E-06,4.39453125,0,0
-1.8833105059457E-05,4.83370422443841E-06,4.39453125,0,0
-2.05693522730144E-05,4.08472806157079E-06,7.03125,0,0
-1.91820727195591E-05,4.49628851129091E-06,7.03125,0,0
-1.87175737664802E-05,6.6962156779482E-06,7.03125,0,0
-1.66162371897371E-05,5.34753962710965E-06,7.03125,0,0
-1.77264064404881E-05,5.29395811099675E-06,7.03125,0,0
-1.87014557013754E-05,6.29542000751826E-06,7.03125,0,0
-1.8596419977257E-05,9.98088489723159E-06,7.03125,0,0
-1.62575615831884E-05,1.26040586110321E-05,7.03125,0,0
-1.57445119839394E-05,1.28073606902035E-05,7.03125,0,0
-1.69104096130468E-05,9.35367279453203E-06,7.03125,0,0
-1.88830399565632E-05,6.85497752783704E-06,7.03125,0,0
-1.56675960170105E-05,6.2999574765854E-06,7.03125,0,0
-2.22450289584231E-05,9.6530384325888E-06,7.03125,0,0
-1.6336256521754E-05,6.82802874507615E-06,7.03125,0,0
-1.99197893380187E-05,6.63848959447932E-06,7.03125,0,0
-1.85725311894203E-05,5.67966935705044E-06,7.03125,0,0
-2.34863891819259E-05,7.65538970881607E-06,7.03125,0,0
-2.37564127019141E-05,9.30718761082971E-06,7.03125,0,0
-2.58622803812614E-05,1.10272176243598E-05,7.03125,0,0
-2.51371675403789E-05,1.21785897135851E-05,7.03125,0,0
-2.44001130340621E-05,1.46188740473008E-05,7.03125,0,0
-2.3822014554753E-05,1.53783785208361E-05,7.03125,0,0
-2.25534422497731E-05,1.30512498799362E-05,7.03125,0,0
-2.26769843720831E-05,1.13603946374496E-05,7.03125,0,0
-2.24879258894362E-05,1.01405667010113E-05,7.03125,0,0
-2.53944381256588E-05,9.53490234678611E-06,7.03125,0,0
-2.72511078946991E-05,8.56362203194294E-06,7.03125,0,0
-2.92191180051304E-05,9.55254745349521E-06,7.03125,0,0
-2.78157021966763E-05,1.05000854091486E-05,7.03125,0,0
-2.82405399048002E-05,1.07666710391641E-05,7.03125,0,0
-2.81986031041015E-05,1.01126724985079E-05,7.03125,0,0
-2.9410955903586E-05,1.1273978088866E-05,7.03125,0,0
-2.8493956051534E-05,1.29602212837199E-05,7.03125,0,0
-2.718282303249E-05,1.37805964186555E-05,7.03125,0,0
-2.57139399764128E-05,1.29148802443524E-05,7.03125,0,0
-2.69245811068686E-05,1.19304522741004E-05,7.03125,0,0
-2.85985897789942E-05,1.31303868329269E-05,7.03125,0,0
-2.96455727948342E-05,1.51407011799165E-05,7.03125,0,0
-2.42230053117964E-05,1.29193958855467E-05,7.03125,0,0
-3.49830224877223E-05,1.91880881175166E-05,7.03125,0,0
-2.78912393696373E-05,1.69130871654488E-05,7.03125,0,0
-3.44863547070418E-05,2.09945719689131E-05,7.03125,0,0
-2.87977691186825E-05,1.57013946591178E-05,7.03125,0,0
-3.19601676892489E-05,1.37433835334377E-05,7.03125,0,0
-2.93956509267446E-05,9.43942268349929E-06,7.03125,0,0
-3.13398595608305E-05,1.00963889053673E-05,7.03125,0,0
-3.10834475385491E-05,1.23404070109245E-05,7.03125,0,0
-2.98368740914157E-05,1.63680088007823E-05,7.03125,0,0
-2.75315833278E-05,1.83592110261088E-05,7.03125,0,0
-2.4428582037217E-05,1.63526510732481E-05,7.03125,0,0
-2.31406665989198E-05,1.65052733791526E-05,7.03125,0,0
-1.97803328774171E-05,1.82114399649436E-05,7.03125,0,0
-1.98803554667393E-05,2.05099167942535E-05,7.03125,0,0
-1.88576650543837E-05,1.85534536285559E-05,7.03125,0,0
-2.09492645808496E-05,1.61594580276869E-05,7.03125,0,0
-2.0530153051368E-05,1.24418693303596E-05,7.03125,0,0
-2.22022263187682E-05,1.17071722343098E-05,7.03125,0,0
-2.08842193387682E-05,1.14291024146951E-05,7.03125,0,0
-2.0921355826431E-05,1.17701356430189E-05,7.03125,0,0
-1.9968872948084E-05,9.86675331660081E-06,7.03125,0,0
-2.17112974496558E-05,7.53739641368156E-06,7.03125,0,0
-2.26344018301461E-05,6.15797716818633E-06,7.03125,0,0
-2.36457672144752E-05,6.76787476550089E-06,7.03125,0,0
-2.25742696784437E-05,7.2658135650272E-06,7.03125,0,0
-2.13296971196542E-05,8.78586706676288E-06,7.03125,0,0
-1.7320882761851E-05,6.83192592987325E-06,7.03125,0,0
-2.41509387706174E-05,9.25820495467633E-06,7.03125,0,0
-1.78098725882592E-05,5.68409996049013E-06,7.03125,0,0
-2.32413331104908E-05,4.58358408650383E-06,7.03125,0,0
-2.16283315239707E-05,-2.6308180167689E-07,7.03125,0,0
-2.42544865614036E-05,-1.28396806076125E-07,7.03125,0,0
-2.07492976187496E-05,6.98293604273204E-07,7.03125,0,0
-2.11098667932674E-05,2.90788807433273E-06,7.03125,0,0
-2.14433239307255E-05,5.30097440787358E-06,7.03125,0,0
-2.09815789276036E-05,7.32616672394215E-06,7.03125,0,0
-1.95576412806986E-05,7.2737384471111E-06,7.03125,0,0
-1.79301478056004E-05,6.8812987592537E-06,7.03125,0,0
-1.887618782348E-05,8.80098195921164E-06,7.03125,0,0
-1.81669820449315E-05,1.12700108729769E-05,7.03125,0,0
-1.88448320841417E-05,1.41392119985539E-05,7.03125,0,0
-1.71423525898717E-05,1.34582342070644E-05,7.03125,0,0
-1.74787674040999E-05,1.12331899799756E-05,7.03125,0,0
-1.67315520229749E-05,8.36690378491767E-06,7.03125,0,0
-1.79420858330559E-05,7.30227793610538E-06,7.03125,0,0
-1.84194832399953E-05,7.27446285964106E-06,7.03125,0,0
-2.09041754715145E-05,8.60681302583544E-06,7.03125,0,0
-2.16685966734076E-05,9.32670081965625E-06,7.03125,0,0
-2.25507938012015E-05,8.58811108628288E-06,7.03125,0,0
-2.29352044698317E-05,6.83594862493919E-06,7.03125,0,0
-2.3820477508707E-05,6.6388629420544E-06,7.03125,0,0
-2.383086757618E-05,7.10138601789367E-06,7.03125,0,0
-2.30543246289017E-05,7.14070438334602E-06,7.03125,0,0
-1.89337606570916E-05,4.5036154006084E-06,7.03125,0,0
-2.64937389147235E-05,5.7194820328732E-06,7.03125,0,0
-1.94332715182099E-05,5.69172743780655E-06,7.03125,0,0
-2.34523104154505E-05,9.52317623159615E-06,7.03125,0,0
-1.78569644049276E-05,9.14621432457352E-06,7.03125,0,0
-1.97731278603897E-05,9.53143444348825E-06,7.03125,0,0
-1.97568333533127E-05,8.80487459653523E-06,7.03125,0,0
-2.42867772612954E-05,9.64501396083506E-06,7.03125,0,0
-2.61958248302108E-05,7.36400033929385E-06,7.03125,0,0
-2.70521722995909E-05,3.15086253976915E-06,7.03125,0,0
-2.76873997790972E-05,2.44038972141425E-07,7.03125,0,0
-2.78327024716418E-05,-2.98481751315194E-07,7.03125,0,0
-2.92269687633961E-05,1.70150804024161E-06,7.03125,0,0
-2.94338624371449E-05,4.34689127359889E-06,7.03125,0,0
-3.32601593981963E-05,7.46177283872385E-06,7.03125,0,0
-3.48790090356488E-05,8.86643556441413E-06,7.03125,0,0
-3.72518916265108E-05,9.91186152532464E-06,7.03125,0,0
-3.72234062524512E-05,9.26693064684514E-06,7.03125,0,0
-3.91963294532616E-05,9.21146420296282E-06,7.03125,0,0
-3.93351692764554E-05,9.32053899305174E-06,7.03125,0,0
-3.97268377128057E-05,9.07971661945339E-06,7.03125,0,0
-3.72426547983196E-05,7.73709325585514E-06,7.03125,0,0
-3.53632058249787E-05,7.72797011450166E-06,7.03125,0,0
-3.26055051118601E-05,7.89018486102577E-06,7.03125,0,0
-2.99864659609739E-05,7.75768239691388E-06,7.03125,0,0
-2.76241662504617E-05,6.70291956339497E-06,7.03125,0,0
-2.69584070338169E-05,5.51578978047473E-06,7.03125,0,0
-2.24690193135757E-05,5.72475300941733E-06,7.03125,0,0
-3.21877814712934E-05,9.43492887017783E-06,7.03125,0,0
-2.24451341637177E-05,6.97287168804905E-06,7.03125,0,0
-2.53681319009047E-05,7.38075141271111E-06,7.03125,0,0
-1.90849677892402E-05,9.74000886344584E-06,7.03125,0,0
-1.85452227015048E-05,1.36997423396679E-05,7.03125,0,0
-1.44251371239079E-05,1.36222379296669E-05,7.03125,0,0
-1.62967990036123E-05,1.30337857626728E-05,7.03125,0,0
-1.5132907719817E-05,1.17642975965282E-05,7.03125,0,0
-1.4496642506856E-05,1.10878409032011E-05,7.03125,0,0
-1.48567669384647E-05,1.18544776341878E-05,7.03125,0,0
-1.53709515871014E-05,1.32365785248112E-05,7.03125,0,0
-1.7730868421495E-05,1.52976317622233E-05,7.03125,0,0
-1.78166956175119E-05,1.65810342878103E-05,7.03125,0,0
-1.98831494344631E-05,1.75366294570267E-05,7.03125,0,0
-1.98615016415715E-05,1.68923706951318E-05,7.03125,0,0
-2.23986025957856E-05,1.59039518621285E-05,7.03125,0,0
-2.20978508878034E-05,1.47412001751945E-05,7.03125,0,0
-2.4206663510995E-05,1.3490220226231E-05,7.03125,0,0
-2.52393274422502E-05,1.1186361007276E-05,7.03125,0,0
-2.85449605144095E-05,9.8290947789792E-06,7.03125,0,0
-2.92905751848593E-05,8.94549521035515E-06,7.03125,0,0
-2.92421336780535E-05,9.57870088313939E-06,7.03125,0,0
-2.80626591120381E-05,1.16924302346888E-05,7.03125,0,0
-2.70309774350608E-05,1.35317104650312E-05,7.03125,0,0
-2.43397789745359E-05,1.3247436072561E-05,7.03125,0,0
-2.27955042646499E-05,1.17689087346662E-05,7.03125,0,0
-1.96258988580666E-05,9.66527841228526E-06,7.03125,0,0
-2.83696535916533E-05,1.51868098328123E-05,7.03125,0,0
-2.10131893254584E-05,1.30771741169156E-05,7.03125,0,0
-2.44089642364997E-05,1.4829270185146E-05,7.03125,0,0
-2.20842557610013E-05,1.1940770491492E-05,7.03125,0,0
-2.82617711491184E-05,1.2460480320442E-05,7.03125,0,0
-2.90820808004355E-05,1.14883223432116E-05,7.03125,0,0
-3.16531804855913E-05,1.24420248539536E-05,7.03125,0,0
-3.07192931359168E-05,1.2075001905032E-05,7.03125,0,0
-3.00065112242009E-05,1.14866388685186E-05,7.03125,0,0
-2.92464465019293E-05,1.17873969429638E-05,7.03125,0,0
-2.70841592282522E-05,1.33145185827743E-05,7.03125,0,0
-2.67445793724619E-05,1.66843528859317E-05,7.03125,0,0
-2.57906085607829E-05,1.7909307644004E-05,7.03125,0,0
-2.79398082057014E-05,1.68370061146561E-05,7.03125,0,0
-2.82005603366997E-05,1.29890913740383E-05,7.03125,0,0
-2.90654788841493E-05,1.07694177131634E-05,7.03125,0,0
-2.59887619904475E-05,9.20464481168892E-06,7.03125,0,0
-2.46718791458989E-05,1.00155866675777E-05,7.03125,0,0
-2.26814681809628E-05,1.1963274118898E-05,7.03125,0,0
-2.27958917093929E-05,1.45864087244263E-05,7.03125,0,0
-2.11665974347852E-05,1.52122720464831E-05,7.03125,0,0
-2.00936337932944E-05,1.59608098329045E-05,7.03125,0,0
-1.84586606337689E-05,1.56518708536169E-05,7.03125,0,0
-1.78560912900139E-05,1.59130104293581E-05,7.03125,0,0
-1.69928425748367E-05,1.62699761858676E-05,7.03125,0,0
-1.67279358720407E-05,1.5824518413865E-05,7.03125,0,0
-1.37757042466546E-05,1.21112998385797E-05,7.03125,0,0
-2.16259159060428E-05,1.59133651322918E-05,7.03125,0,0
-1.84776363312267E-05,9.18792193260742E-06,7.03125,0,0
-1.99736259673955E-05,1.23138424896752E-05,7.03125,0,0
-1.50544392454321E-05,1.30704565890483E-05,7.03125,0,0
-1.58500570250908E-05,1.79734342964366E-05,7.03125,0,0
-1.46577021951089E-05,1.8282462406205E-05,7.03125,0,0
-1.52687753143255E-05,1.83301035576733E-05,7.03125,0,0
-1.43379147630185E-05,1.53167948155897E-05,7.03125,0,0
-1.44140985867125E-05,1.218127363245E-05,7.03125,0,0
-1.53671644511633E-05,9.50104367802851E-06,7.03125,0,0
-1.67783600772964E-05,8.75276418810245E-06,7.03125,0,0
-1.9515560779837E-05,1.03081983979791E-05,7.03125,0,0
-2.02540177269839E-05,9.68570202530827E-06,7.03125,0,0
-2.13271559914574E-05,8.93173273652792E-06,7.03125,0,0
-2.14245683309855E-05,7.35637377147214E-06,7.03125,0,0
-2.46963227255037E-05,8.13408041722141E-06,7.03125,0,0
-2.76008722721599E-05,6.98678923072293E-06,7.03125,0,0
-3.05558569380082E-05,6.42514442006359E-06,7.03125,0,0
-3.02220105368178E-05,5.80221694690408E-06,7.03125,0,0
-3.05883622786496E-05,7.2798197834345E-06,7.03125,0,0
-3.07237569359131E-05,6.46916214463999E-06,7.03125,0,0
-3.16484729410149E-05,4.05552873417037E-06,7.03125,0,0
-3.21170300594531E-05,6.06479886755551E-07,7.03125,0,0
-3.30245566146914E-05,-2.00103795577888E-06,7.03125,0,0
-3.36596021952573E-05,-3.36216930918454E-06,7.03125,0,0
-3.25870096276049E-05,-2.93305788545695E-06,7.03125,0,0
-2.47492134803906E-05,-2.24019274241982E-07,7.03125,0,0
-3.4855318517657E-05,1.93042455975956E-06,7.03125,0,0
-2.49751574301627E-05,3.56988766725408E-06,7.03125,0,0
-3.0862520361552E-05,2.60395904660982E-06,7.03125,0,0
-2.72309334832244E-05,2.15263162317569E-06,7.03125,0,0
-3.24278516927734E-05,1.31519811930048E-06,7.03125,0,0
-2.96955568046542E-05,3.30281841343094E-06,7.03125,0,0
-2.98660215776181E-05,5.26818757862202E-06,7.03125,0,0
-2.88249721052125E-05,7.59256681703846E-06,7.03125,0,0
-3.05588800983969E-05,9.05839715414913E-06,7.03125,0,0
-3.14422250085045E-05,9.30739224713761E-06,7.03125,0,0
-2.8439757443266E-05,8.10506389825605E-06,7.03125,0,0
-2.60576653090538E-05,6.61089370623813E-06,7.03125,0,0
-2.30379100685241E-05,6.63153150526341E-06,7.03125,0,0
-2.48559317697072E-05,7.16441945769475E-06,7.03125,0,0
-2.46742401941447E-05,8.11056088423356E-06,7.03125,0,0
-2.63186993834097E-05,9.33100909605855E-06,7.03125,0,0
-2.41080324485665E-05,1.1210023330932E-05,7.03125,0,0
-2.48649485001806E-05,1.31612441691686E-05,7.03125,0,0
-2.55724044109229E-05,1.609979699424E-05,7.03125,0,0
-2.90018342639087E-05,1.90852460946189E-05,7.03125,0,0
-2.96815160254482E-05,2.10053058253834E-05,7.03125,0,0
-3.01192285405705E-05,2.14513074752176E-05,7.03125,0,0
-2.73376972472761E-05,2.1330331946956E-05,7.03125,0,0
-2.4144919734681E-05,2.12907598324819E-05,7.03125,0,0
-2.28293756663334E-05,2.24493305722717E-05,7.03125,0,0
-2.47087846219074E-05,2.10510970646283E-05,7.03125,0,0
-1.98911238840083E-05,1.56161186168902E-05,7.03125,0,0
-2.61360983131453E-05,2.33470382227097E-05,7.03125,0,0
-1.83653173735365E-05,1.97138560906751E-05,7.03125,0,0
-2.62711673713056E-05,2.50849479925819E-05,7.03125,0,0
-2.52457357419189E-05,2.14941446756711E-05,7.03125,0,0
-3.03037159028463E-05,2.16511998587521E-05,7.03125,0,0
-2.83334957202896E-05,1.72029085661052E-05,7.03125,0,0
-2.79516007140046E-05,1.62957694556098E-05,7.03125,0,0
-2.53629095823271E-05,1.58912534971023E-05,7.03125,0,0
-2.4408356694039E-05,1.61608950293157E-05,7.03125,0,0
-2.36974647123134E-05,1.61007246788358E-05,7.03125,0,0
-2.24439390876796E-05,1.5345171050285E-05,7.03125,0,0
-2.26906195166521E-05,1.57030517584644E-05,7.03125,0,0
-2.0393021259224E-05,1.41123700814205E-05,7.03125,0,0
-2.04445423150901E-05,1.28691517602419E-05,7.03125,0,0
-1.89823440450709E-05,9.81358516582986E-06,7.03125,0,0
-1.96630280697718E-05,9.00049417396076E-06,7.03125,0,0
-1.76069224835373E-05,6.82145810060319E-06,7.03125,0,0
-1.82936055352911E-05,5.33046932105208E-06,7.03125,0,0
-1.7979196854867E-05,2.43310296355048E-06,7.03125,0,0
-1.88520061783493E-05,2.11866040444875E-06,7.03125,0,0
-1.64172324730316E-05,3.09294478029187E-06,7.03125,0,0
-1.52572638398851E-05,6.47633714834228E-06,7.03125,0,0
-1.43008483064477E-05,7.36732317818678E-06,7.03125,0,0
-1.31573287944775E-05,6.68364054945414E-06,7.03125,0,0
-1.2420953680703E-05,6.23255527898436E-06,9.4921875,0,0
-1.40132033266127E-05,7.35268213247764E-06,9.4921875,0,0
-1.24207972476142E-05,6.42253735350096E-06,9.4921875,0,0
-1.78415339178173E-05,7.62441504775779E-06,9.4921875,0,0
-1.40869606184424E-05,5.99569557380164E-06,9.4921875,0,0
-1.75965342350537E-05,1.2176946256659E-05,9.4921875,0,0
-1.62047235789942E-05,1.31855722429464E-05,9.4921875,0,0
-2.02458704734454E-05,1.38037185024587E-05,9.4921875,0,0
-2.18986060644966E-05,1.29061008919962E-05,9.4921875,0,0
-2.38994252867997E-05,1.29054787976202E-05,9.4921875,0,0
-2.34238050325075E-05,1.20526437967783E-05,9.4921875,0,0
-2.33919890888501E-05,1.10450464489986E-05,9.4921875,0,0
-2.34584495046875E-05,1.04772243503248E-05,9.4921875,0,0
-2.27904693019809E-05,9.21716673474293E-06,9.4921875,0,0
-2.27787677431479E-05,7.69620146456873E-06,9.4921875,0,0
-2.24358609557385E-05,7.16072781870025E-06,9.4921875,0,0
-2.43115573539399E-05,9.59886892815121E-06,9.4921875,0,0
-2.50035864155507E-05,1.13390869955765E-05,9.4921875,0,0
-2.6670039005694E-05,1.28614965433371E-05,9.4921875,0,0
-2.69757201749599E-05,1.32173108795541E-05,9.4921875,0,0
-2.88318515231367E-05,1.44525210998836E-05,9.4921875,0,0
-2.98718787234975E-05,1.57871672854526E-05,9.4921875,0,0
-3.13029486278538E-05,1.67224388860632E-05,9.4921875,0,0
-3.16276600642595E-05,1.49786183101241E-05,9.4921875,0,0
-3.28339920088183E-05,1.34476385937887E-05,9.4921875,0,0
-3.238056160626E-05,1.33458470372716E-05,9.4921875,0,0
-3.05046760331606E-05,1.41318760142894E-05,9.4921875,0,0
-2.78901788988151E-05,1.55032412294531E-05,9.4921875,0,0
-2.64670215983642E-05,1.61283223860664E-05,9.4921875,0,0
-2.04128355107969E-05,1.22528481369955E-05,9.4921875,0,0
-2.78529078059364E-05,1.78118571056984E-05,9.4921875,0,0
-1.93843225133605E-05,1.40982347147656E-05,9.4921875,0,0
-2.38382563111372E-05,1.68650476553012E-05,9.4921875,0,0
-1.98379457287956E-05,1.41499849632964E-05,9.4921875,0,0
-2.36430969380308E-05,1.73027001437731E-05,9.4921875,0,0
-2.12930244742893E-05,1.77047622855753E-05,9.4921875,0,0
-2.12586692214245E-05,1.85214121302124E-05,9.4921875,0,0
-1.75357799889753E-05,1.7225382180186E-05,9.4921875,0,0
-1.49754550875514E-05,1.66343361343024E-05,9.4921875,0,0
-1.36153621497215E-05,1.70131697814213E-05,9.4921875,0,0
-1.31868991957163E-05,1.67676116689108E-05,9.4921875,0,0
-1.51557596836938E-05,1.67182406585198E-05,9.4921875,0,0
-1.49603974932688E-05,1.59839091793401E-05,9.4921875,0,0
-1.72952895809431E-05,1.64056000357959E-05,9.4921875,0,0
-1.77215406438336E-05,1.57648009917466E-05,9.4921875,0,0
-2.02826868189732E-05,1.66756799444556E-05,9.4921875,0,0
-1.98576835828135E-05,1.51002086568042E-05,9.4921875,0,0
-2.1663685402018E-05,1.41901873575989E-05,9.4921875,0,0
-2.08096080314135E-05,1.41649752549711E-05,9.4921875,0,0
-2.17606539081316E-05,1.75858422153397E-05,9.4921875,0,0
-2.25123840209562E-05,1.9500474081724E-05,9.4921875,0,0
-2.43359172600321E-05,1.99431997316424E-05,9.4921875,0,0
-2.51501751336036E-05,1.88412068382604E-05,9.4921875,0,0
-2.69577922153985E-05,1.77181082108291E-05,9.4921875,0,0
-2.73419591394486E-05,1.7131296772277E-05,9.4921875,0,0
-2.80706844932865E-05,1.75367185875075E-05,9.4921875,0,0
-2.47805164690362E-05,1.47013597597834E-05,9.4921875,0,0
-3.61371639883146E-05,2.18225668504601E-05,9.4921875,0,0
-2.71710105153034E-05,1.75157747435151E-05,9.4921875,0,0
-3.1610452424502E-05,2.00399827008368E-05,9.4921875,0,0
-2.73552304861369E-05,1.49376937770285E-05,9.4921875,0,0
-3.37373858201317E-05,1.59313713083975E-05,9.4921875,0,0
-3.3287207770627E-05,1.4181251572154E-05,9.4921875,0,0
-3.39718972099945E-05,1.42700537253404E-05,9.4921875,0,0
-3.13880009343848E-05,1.1433384315751E-05,9.4921875,0,0
-3.03266278933734E-05,7.13768849891494E-06,9.4921875,0,0
-2.99799157801317E-05,4.1051248445001E-06,9.4921875,0,0
-2.85929709207267E-05,2.35625179811905E-06,9.4921875,0,0
-2.92581207759213E-05,1.35694381242502E-06,9.4921875,0,0
-2.82904165942455E-05,-1.25908150039322E-06,9.4921875,0,0
-2.91326232400024E-05,-6.29560361176118E-07,9.4921875,0,0
-2.57796309597325E-05,5.39997472515097E-07,9.4921875,0,0
-2.51445635512937E-05,3.2750572245277E-06,9.4921875,0,0
-2.37478197959717E-05,2.98403551823867E-06,9.4921875,0,0
-2.57003212027485E-05,3.06545302919403E-06,9.4921875,0,0
-2.45866958721308E-05,2.44820398620504E-06,9.4921875,0,0
-2.38856737269089E-05,4.6277364162961E-06,9.4921875,0,0
-2.07042139663827E-05,6.68795837555081E-06,9.4921875,0,0
-1.95327829715097E-05,7.30565170670161E-06,9.4921875,0,0
-1.87259811355034E-05,5.66202152185724E-06,9.4921875,0,0
-1.84650216397131E-05,4.6093459786789E-06,9.4921875,0,0
-1.80888255272293E-05,3.1772699458088E-06,9.4921875,0,0
-1.87031964742346E-05,1.97249414668477E-06,9.4921875,0,0
-1.44601890497142E-05,-3.70749859257558E-07,9.4921875,0,0
-1.91697690752335E-05,-8.78520154401485E-07,9.4921875,0,0
-1.38782552312477E-05,-4.12778064173835E-07,9.4921875,0,0
-1.9097200492979E-05,-6.7732912611973E-07,9.4921875,0,0
-1.63991971930955E-05,-1.4933648344595E-06,9.4921875,0,0
-1.89270231203409E-05,-7.0515375227842E-07,9.4921875,0,0
-1.95061656995676E-05,1.26354427720798E-06,9.4921875,0,0
-2.22375983867096E-05,1.7722666143527E-06,9.4921875,0,0
-2.30682344408706E-05,5.87930287565541E-07,9.4921875,0,0
-2.4128899895004E-05,-2.3277947036604E-07,9.4921875,0,0
-2.46607123699505E-05,-1.15231921427039E-06,9.4921875,0,0
-2.53124271694105E-05,-2.50806897383882E-06,9.4921875,0,0
-2.78618663287489E-05,-2.71087969849759E-06,9.4921875,0,0
-2.88707324216375E-05,-2.38777306549309E-06,9.4921875,0,0
-3.07794762193225E-05,-1.48253116094565E-06,9.4921875,0,0
-3.02704738714965E-05,-3.22816930520275E-07,9.4921875,0,0
-2.97032911475981E-05,2.74431340585579E-06,9.4921875,0,0
-2.59235876001185E-05,7.1695003498462E-06,9.4921875,0,0
-2.44861530518392E-05,9.97300048766192E-06,9.4921875,0,0
-2.37071017181734E-05,1.05459066617186E-05,9.4921875,0,0
-2.49510703724809E-05,1.06062161648879E-05,9.4921875,0,0
-2.48086344072362E-05,1.2413814147294E-05,9.4921875,0,0
-2.51888159255032E-05,1.43635279528098E-05,9.4921875,0,0
-2.51500914600911E-05,1.33566154545406E-05,9.4921875,0,0
-2.60736160271335E-05,1.12884144982672E-05,9.4921875,0,0
-2.69200991169782E-05,1.16866885946365E-05,9.4921875,0,0
-2.69261054199887E-05,1.19497435662197E-05,9.4921875,0,0
-2.02760293177562E-05,9.09648315428058E-06,9.4921875,0,0
-2.75293932645582E-05,1.16759383672616E-05,9.4921875,0,0
-2.03092549782014E-05,7.44198405300267E-06,9.4921875,0,0
-2.69728079729248E-05,9.70688324741786E-06,9.4921875,0,0
-2.4487062546541E-05,8.0373756645713E-06,9.4921875,0,0
-2.92111635644687E-05,1.08782305687782E-05,9.4921875,0,0
-2.62478733930038E-05,1.09219154182938E-05,9.4921875,0,0
-2.65164744632784E-05,1.19552150863456E-05,9.4921875,0,0
-2.49076347245136E-05,9.9860726550105E-06,9.4921875,0,0
-2.4474878955516E-05,8.31976376503007E-06,9.4921875,0,0
-2.47064872382907E-05,8.5438514361158E-06,9.4921875,0,0
-2.39101082115667E-05,9.20289949135622E-06,9.4921875,0,0
-2.4403660063399E-05,1.04498358268756E-05,9.4921875,0,0
-2.21162918023765E-05,1.00190836747061E-05,9.4921875,0,0
-2.24392661039019E-05,9.67170581134269E-06,9.4921875,0,0
-2.12666473089485E-05,8.05468334874604E-06,9.4921875,0,0
-2.23484330490464E-05,8.50599553814391E-06,9.4921875,0,0
-2.04030711756786E-05,8.88442991708871E-06,9.4921875,0,0
-2.04277712327894E-05,1.03052079793997E-05,9.4921875,0,0
-1.91500366781838E-05,1.049170987244E-05,9.4921875,0,0
-1.98258458112832E-05,1.14300346467644E-05,9.4921875,0,0
-1.90657374332659E-05,1.14884760478162E-05,9.4921875,0,0
-1.97754816326778E-05,1.26904396893224E-05,9.4921875,0,0
-1.9097813492408E-05,1.33340390675585E-05,9.4921875,0,0
-1.83736192411743E-05,1.34199799504131E-05,9.4921875,0,0
-1.73440748767462E-05,1.41502177939401E-05,9.4921875,0,0
-1.71956035046605E-05,1.538312426419E-05,9.4921875,0,0
-1.41874670589459E-05,1.22511328299879E-05,9.4921875,0,0
-1.99660989892436E-05,1.61029001901625E-05,9.4921875,0,0
-1.51751992234495E-05,1.09846869236208E-05,9.4921875,0,0
-1.94028216355946E-05,1.50663800013717E-05,9.4921875,0,0
-1.83379615918966E-05,1.28285255414085E-05,9.4921875,0,0
-2.19323210330913E-05,1.46874344864045E-05,9.4921875,0,0
-2.095514901157E-05,1.29108211694984E-05,9.4921875,0,0
-2.2400745365303E-05,1.27916082419688E-05,9.4921875,0,0
-2.30057212320389E-05,1.08150570667931E-05,9.4921875,0,0
-2.502652205294E-05,9.2799909907626E-06,9.4921875,0,0
-2.79728319583228E-05,9.71266217675293E-06,9.4921875,0,0
-3.0985007470008E-05,1.06123252407997E-05,9.4921875,0,0
-3.67333595931996E-05,1.27836619867594E-05,9.4921875,0,0
-4.14612695749383E-05,1.22423934953986E-05,9.4921875,0,0
-4.44482793682255E-05,1.20930844786926E-05,9.4921875,0,0
-4.21575459768064E-05,1.14882077468792E-05,9.4921875,0,0
-4.06682011089288E-05,1.29324625959271E-05,9.4921875,0,0
-3.90426648664288E-05,1.20751528811525E-05,9.4921875,0,0
-4.05063547077589E-05,1.16083783723298E-05,9.4921875,0,0
-4.0335587982554E-05,1.05838289528037E-05,9.4921875,0,0
-3.8935449993005E-05,1.12316793092759E-05,9.4921875,0,0
-3.57058925146703E-05,1.27219427668024E-05,9.4921875,0,0
-3.38334175467025E-05,1.54211866174592E-05,9.4921875,0,0
-3.29334907291923E-05,1.5054244613566E-05,9.4921875,0,0
-3.34635296894703E-05,1.21314496936975E-05,9.4921875,0,0
-3.17386547976639E-05,9.6611420303816E-06,9.4921875,0,0
-2.81008578895126E-05,1.03517650131835E-05,9.4921875,0,0
-2.08281417144462E-05,1.00945180747658E-05,9.4921875,0,0
-2.98737377306679E-05,1.3773208593193E-05,9.4921875,0,0
-2.31973626796389E-05,9.79263495537452E-06,9.4921875,0,0
-2.75536858680425E-05,1.25199248941499E-05,9.4921875,0,0
-2.15187556023011E-05,9.76369665295351E-06,9.4921875,0,0
-2.35869283642387E-05,1.07071900856681E-05,9.4921875,0,0
-2.04441294044955E-05,1.12304769572802E-05,9.4921875,0,0
-2.11233145819278E-05,1.31418901219149E-05,9.4921875,0,0
-2.0972065613023E-05,1.35821783260326E-05,9.4921875,0,0
-2.16448315768503E-05,1.35519803734496E-05,9.4921875,0,0
-2.08306792046642E-05,1.19664318845025E-05,9.4921875,0,0
-1.89021302503534E-05,9.86402574199019E-06,9.4921875,0,0
-1.98442194232484E-05,1.0270456186845E-05,9.4921875,0,0
-1.96031705854693E-05,1.10831324491301E-05,9.4921875,0,0
-2.10900325328112E-05,1.30082107716589E-05,9.4921875,0,0
-1.87665391422343E-05,1.23731588246301E-05,9.4921875,0,0
-1.73319822351914E-05,1.1354230082361E-05,9.4921875,0,0
-1.39547437356669E-05,1.00418455986073E-05,9.4921875,0,0
-1.40929587360006E-05,1.15195052785566E-05,9.4921875,0,0
-1.30385133161326E-05,1.20137328849523E-05,9.4921875,0,0
-1.33629418996861E-05,1.25144069897942E-05,9.4921875,0,0
-1.24264934129314E-05,1.32412806124194E-05,9.4921875,0,0
-1.43711367854849E-05,1.4606238437409E-05,9.4921875,0,0
-1.62800424732268E-05,1.4076992556511E-05,9.4921875,0,0
-1.68723236129154E-05,1.26379172797897E-05,9.4921875,0,0
-1.66183635883499E-05,1.10185046651168E-05,9.4921875,0,0
-1.70185885508545E-05,1.07985988506698E-05,9.4921875,0,0
-1.50175574162859E-05,9.6756593848113E-06,9.4921875,0,0
-2.28219687414821E-05,1.51773747347761E-05,9.4921875,0,0
-1.94430012925295E-05,1.44776067827479E-05,9.4921875,0,0
-2.37558924709447E-05,2.07840112125268E-05,9.4921875,0,0
-2.07339035114273E-05,2.17966025957139E-05,9.4921875,0,0
-2.14797000808176E-05,2.1844954972039E-05,9.4921875,0,0
-1.86832221515942E-05,1.83521242433926E-05,9.4921875,0,0
-1.84157852345379E-05,1.75812274392229E-05,9.4921875,0,0
-1.94421681953827E-05,1.66883510246407E-05,9.4921875,0,0
-2.23282386286883E-05,1.51663971337257E-05,9.4921875,0,0
-2.37071162700886E-05,1.35002010210883E-05,9.4921875,0,0
-2.27874370466452E-05,1.13284904728062E-05,9.4921875,0,0
-2.2717154934071E-05,1.07011710497318E-05,9.4921875,0,0
-2.17995020648232E-05,1.0255930646963E-05,9.4921875,0,0
-2.32967013289453E-05,1.02746698757983E-05,9.4921875,0,0
-2.33106948144268E-05,7.76521028456045E-06,9.4921875,0,0
-2.53328107646666E-05,5.41151757715852E-06,9.4921875,0,0
-2.63548372458899E-05,3.11176108880318E-06,9.4921875,0,0
-2.76003884209786E-05,1.34413085106644E-06,9.4921875,0,0
-2.57744777627522E-05,-2.09845438803313E-06,9.4921875,0,0
-2.49540225922829E-05,-3.85908242606092E-06,9.4921875,0,0
-2.51078927249182E-05,-4.10103893955238E-06,9.4921875,0,0
-2.57699830399361E-05,-2.46046556640067E-06,9.4921875,0,0
-2.52035588346189E-05,9.27629599800639E-08,9.4921875,0,0
-2.70649779849919E-05,3.41042687068693E-06,9.4921875,0,0
-3.02245698549086E-05,6.09456583333667E-06,9.4921875,0,0
-3.19651335303206E-05,6.14081181993242E-06,9.4921875,0,0
-2.46156323555624E-05,2.87668581222533E-06,9.4921875,0,0
-3.25557666656096E-05,4.57472742709797E-06,9.4921875,0,0
-2.20283400267363E-05,5.89806541029247E-06,9.4921875,0,0
-2.93869470624486E-05,7.70492351875873E-06,9.4921875,0,0
-2.47782190854196E-05,6.81295568938367E-06,9.4921875,0,0
-2.9825949241058E-05,1.01844070741208E-05,9.4921875,0,0
-2.87143884634133E-05,1.30943290059804E-05,9.4921875,0,0
-3.0936767871026E-05,1.3478164873959E-05,9.4921875,0,0
-2.97627611871576E-05,1.24519183373195E-05,9.4921875,0,0
-2.92445001832675E-05,1.2327334843576E-05,9.4921875,0,0
-2.88218470814172E-05,1.31778579088859E-05,9.4921875,0,0
-2.63997590081999E-05,1.46700185723603E-05,9.4921875,0,0
-2.5275350708398E-05,1.75657860381762E-05,9.4921875,0,0
-2.29099823627621E-05,2.03365325432969E-05,9.4921875,0,0
-2.4755268896115E-05,2.23181214096257E-05,9.4921875,0,0
-2.4072362066363E-05,2.22122562263394E-05,9.4921875,0,0
-2.56387302215444E-05,2.13219918805407E-05,9.4921875,0,0
-2.3955901269801E-05,1.93641171790659E-05,9.4921875,0,0
-2.47202897298848E-05,1.64144094014773E-05,9.4921875,0,0
-2.4089305952657E-05,1.35815325847943E-05,9.4921875,0,0
-2.60828201135155E-05,1.47433156598709E-05,9.4921875,0,0
-2.55050545092672E-05,1.79295511770761E-05,9.4921875,0,0
-2.59127791650826E-05,1.90218233910855E-05,9.4921875,0,0
-2.52934969466878E-05,1.78560530912364E-05,9.4921875,0,0
-2.51064848271199E-05,1.63637341756839E-05,9.4921875,0,0
-2.43587655859301E-05,1.56209789565764E-05,9.4921875,0,0
-2.42667138081742E-05,1.58907769218786E-05,9.4921875,0,0
-1.85366243385943E-05,1.29115342133446E-05,9.4921875,0,0
-2.45888149947859E-05,1.68273527378915E-05,9.4921875,0,0
-1.81019659066806E-05,1.14479116746224E-05,9.4921875,0,0
-2.4485751055181E-05,1.66200170497177E-05,11.953125,0,0
-2.0612847947632E-05,1.47332593769534E-05,11.953125,0,0
-2.28646331379423E-05,1.62909309437964E-05,11.953125,0,0
-1.97002300410531E-05,1.4066199582885E-05,11.953125,0,0
-2.05559990718029E-05,1.4417012607737E-05,11.953125,0,0
-2.07805114769144E-05,1.41168138725334E-05,11.953125,0,0
-2.08191140700364E-05,1.48446297316696E-05,11.953125,0,0
-1.89339880307671E-05,1.58332841238007E-05,11.953125,0,0
-1.59175197040895E-05,1.42783446790418E-05,11.953125,0,0
-1.61915813805535E-05,1.219833666255E-05,11.953125,0,0
-1.57587037392659E-05,9.3275475592236E-06,11.953125,0,0
-1.68354745255783E-05,8.94301774678752E-06,11.953125,0,0
-1.62079995789099E-05,7.40020004741382E-06,11.953125,0,0
-1.87297446245793E-05,7.86794953455683E-06,11.953125,0,0
-1.89612146641593E-05,7.72137718740851E-06,11.953125,0,0
-2.03151557798265E-05,8.23892423795769E-06,11.953125,0,0
-2.01505499717314E-05,6.40310099697672E-06,11.953125,0,0
-2.25100484385621E-05,5.25046289112652E-06,11.953125,0,0
-2.4322493118234E-05,3.78791651201027E-06,11.953125,0,0
-2.71932021860266E-05,4.50945435659378E-06,11.953125,0,0
-2.73742134595523E-05,5.61436263524229E-06,11.953125,0,0
-2.72191791736986E-05,5.74976365896873E-06,11.953125,0,0
-2.63424062723061E-05,4.07838979299413E-06,11.953125,0,0
-2.49746281042462E-05,2.91287074105639E-06,11.953125,0,0
-2.03033596335445E-05,2.89886111204396E-06,11.953125,0,0
-2.96046036964981E-05,6.52352900942788E-06,11.953125,0,0
-2.31395115406485E-05,7.89980458648643E-06,11.953125,0,0
-2.68981711997185E-05,7.14956468073069E-06,11.953125,0,0
-2.20832334889565E-05,6.25999700787361E-06,11.953125,0,0
-2.63487072516E-05,7.98153359937714E-06,11.953125,0,0
-2.54184815275948E-05,8.51209188112989E-06,11.953125,0,0
-2.64550872088876E-05,7.93494382378412E-06,11.953125,0,0
-2.48255291808164E-05,8.00516772869742E-06,11.953125,0,0
-2.32807087741094E-05,9.16618864721386E-06,11.953125,0,0
-2.39352903008694E-05,9.85585120361065E-06,11.953125,0,0
-2.57265910477145E-05,8.72825785336317E-06,11.953125,0,0
-2.81418724625837E-05,6.81392475598841E-06,11.953125,0,0
-2.78413463092875E-05,6.83309326632298E-06,11.953125,0,0
-3.06196234305389E-05,9.15704640647164E-06,11.953125,0,0
-3.1915169529384E-05,1.04988803286687E-05,11.953125,0,0
-3.47844397765584E-05,1.0366477908974E-05,11.953125,0,0
-3.44101681548636E-05,9.61197292781435E-06,11.953125,0,0
-3.46191081916913E-05,9.16880526347086E-06,11.953125,0,0
-3.22267551382538E-05,8.59232477523619E-06,11.953125,0,0
-3.15317920467351E-05,9.29456655285321E-06,11.953125,0,0
-2.9921919121989E-05,1.04350656329188E-05,11.953125,0,0
-2.98879858746659E-05,1.03147694971994E-05,11.953125,0,0
-2.92792556138011E-05,1.00724309959332E-05,11.953125,0,0
-2.85917940345826E-05,1.04285463748965E-05,11.953125,0,0
-2.8295075026108E-05,9.29374982661102E-06,11.953125,0,0
-2.9420620194287E-05,6.79420099913841E-06,11.953125,0,0
-2.43733102252008E-05,5.30949273525039E-06,11.953125,0,0
-3.42412713507656E-05,8.59854844748043E-06,11.953125,0,0
-2.50724679062841E-05,7.28027680452215E-06,11.953125,0,0
-3.07902992062736E-05,7.87051703809993E-06,11.953125,0,0
-2.59801527136005E-05,5.3998855946702E-06,11.953125,0,0
-2.93979883281281E-05,3.9679271139903E-06,11.953125,0,0
-2.53694888669997E-05,2.54563087764836E-06,11.953125,0,0
-2.53236830758397E-05,3.00562942356919E-06,11.953125,0,0
-2.41343186644372E-05,4.36058553532348E-06,11.953125,0,0
-2.46241761487909E-05,7.07081289874623E-06,11.953125,0,0
-2.49865679506911E-05,9.89539876172785E-06,11.953125,0,0
-2.27926047955407E-05,1.19632686619298E-05,11.953125,0,0
-2.12810246011941E-05,1.42990857057157E-05,11.953125,0,0
-1.69131999427918E-05,1.52865814015968E-05,11.953125,0,0
-1.55923917191103E-05,1.53402907017153E-05,11.953125,0,0
-1.32905661303084E-05,1.41424470712082E-05,11.953125,0,0
-1.48815306602046E-05,1.33913335957914E-05,11.953125,0,0
-1.36912240122911E-05,1.26740133055137E-05,11.953125,0,0
-1.48353628901532E-05,1.29851232486544E-05,11.953125,0,0
-1.41664468173985E-05,1.25579963423661E-05,11.953125,0,0
-1.59535502461949E-05,1.30312064356986E-05,11.953125,0,0
-1.670634628681E-05,1.53192377183586E-05,11.953125,0,0
-1.80525876203319E-05,1.7297827071161E-05,11.953125,0,0
-1.7035692508216E-05,1.82729254447622E-05,11.953125,0,0
-1.69496197486296E-05,2.03360123123275E-05,11.953125,0,0
-1.79688522621291E-05,2.12663126148982E-05,11.953125,0,0
-1.86510678759078E-05,1.97103054233594E-05,11.953125,0,0
-1.51494114106754E-05,1.64578232215717E-05,11.953125,0,0
-2.23641382035566E-05,2.50077591772424E-05,11.953125,0,0
-1.91346898645861E-05,1.86053457582602E-05,11.953125,0,0
-2.32245765801053E-05,2.05442956939805E-05,11.953125,0,0
-1.86456982191885E-05,1.71402516571106E-05,11.953125,0,0
-1.90507180377608E-05,1.79313683474902E-05,11.953125,0,0
-1.71704632521141E-05,1.43470015245839E-05,11.953125,0,0
-1.95828160940437E-05,1.41349646582967E-05,11.953125,0,0
-1.91577910300111E-05,1.39600288093789E-05,11.953125,0,0
-1.64473312906921E-05,1.46088759720442E-05,11.953125,0,0
-1.28496294564684E-05,1.2951001735928E-05,11.953125,0,0
-8.91435229277704E-06,8.93529613676947E-06,11.953125,0,0
-8.19112574390601E-06,8.82280801306479E-06,11.953125,0,0
-7.9463734437013E-06,1.04479941001046E-05,11.953125,0,0
-1.01643172456534E-05,1.28986157506006E-05,11.953125,0,0
-1.04422142612748E-05,1.13168098323513E-05,11.953125,0,0
-1.19627720778226E-05,1.05679191619856E-05,11.953125,0,0
-1.18422585728695E-05,9.50786488829181E-06,11.953125,0,0
-1.39285248224041E-05,1.16603778224089E-05,11.953125,0,0
-1.56963305926183E-05,1.34990850710892E-05,11.953125,0,0
-1.82138392119668E-05,1.52533229993423E-05,11.953125,0,0
-1.92620391317178E-05,1.42065291584004E-05,11.953125,0,0
-2.28026965487516E-05,1.32955674416735E-05,11.953125,0,0
-2.83238077827264E-05,1.15799430204788E-05,11.953125,0,0
-3.33202915498987E-05,1.05555463960627E-05,11.953125,0,0
-3.45389380527195E-05,1.02215853985399E-05,11.953125,0,0
-3.38260470016394E-05,1.11122708403855E-05,11.953125,0,0
-2.65307189692976E-05,1.02346411949839E-05,11.953125,0,0
-3.82808320864569E-05,1.44889791044989E-05,11.953125,0,0
-3.08957605739124E-05,1.05805247585522E-05,11.953125,0,0
-3.87356958526652E-05,1.18961806947482E-05,11.953125,0,0
-3.34232136083301E-05,8.86476391315227E-06,11.953125,0,0
-3.65451196557842E-05,9.94485344563145E-06,11.953125,0,0
-3.17766389343888E-05,9.66764582699398E-06,11.953125,0,0
-3.17136546073016E-05,1.20175700430991E-05,11.953125,0,0
-2.95529571303632E-05,1.18977313832147E-05,11.953125,0,0
-2.97062597383047E-05,1.03766888059909E-05,11.953125,0,0
-2.91191900032572E-05,8.99164388101781E-06,11.953125,0,0
-2.67896721197758E-05,7.84461644798284E-06,11.953125,0,0
-2.653708543221E-05,8.14414670458063E-06,11.953125,0,0
-2.4536338969483E-05,8.03371676738607E-06,11.953125,0,0
-2.62952926277649E-05,8.64746380102588E-06,11.953125,0,0
-2.4772307369858E-05,7.37084064894589E-06,11.953125,0,0
-2.54005844908534E-05,8.50818651088048E-06,11.953125,0,0
-2.33659065997927E-05,9.09973368834471E-06,11.953125,0,0
-2.50320972554618E-05,9.80102049652487E-06,11.953125,0,0
-2.33158771152375E-05,1.02462672657566E-05,11.953125,0,0
-2.23808419832494E-05,1.30225498651271E-05,11.953125,0,0
-2.02341288968455E-05,1.5147847989283E-05,11.953125,0,0
-2.17458327824716E-05,1.58059647219488E-05,11.953125,0,0
-2.14433948713122E-05,1.32060504256515E-05,11.953125,0,0
-2.03713643713854E-05,1.0506564649404E-05,11.953125,0,0
-1.91465242096456E-05,8.66180198499933E-06,11.953125,0,0
-1.99601399799576E-05,8.60127056512283E-06,11.953125,0,0
-1.80022834683768E-05,8.30953740660334E-06,11.953125,0,0
-2.57750216405839E-05,1.15364555313135E-05,11.953125,0,0
-1.98826037376421E-05,7.6079531936557E-06,11.953125,0,0
-2.43791946559213E-05,9.38480206968961E-06,11.953125,0,0
-2.13964067370398E-05,7.71843951952178E-06,11.953125,0,0
-2.64256104856031E-05,7.50320623410516E-06,11.953125,0,0
-2.84272791759577E-05,5.09271922055632E-06,11.953125,0,0
-3.27128946082667E-05,4.67540985482628E-06,11.953125,0,0
-3.41300474246964E-05,4.41576730736415E-06,11.953125,0,0
-3.51259077433497E-05,4.5002811930317E-06,11.953125,0,0
-3.62739701813553E-05,5.66295420867391E-06,11.953125,0,0
-3.67268185073044E-05,8.22996116767172E-06,11.953125,0,0
-3.82033140340354E-05,1.20237273222301E-05,11.953125,0,0
-3.67216744052712E-05,1.43356210173806E-05,11.953125,0,0
-3.56167111021932E-05,1.56743244588142E-05,11.953125,0,0
-3.19790160574485E-05,1.47188220580574E-05,11.953125,0,0
