biceps_emg, triceps_emg, subject_position, position_estimate, brace_position
-1.62171127158217E-05,1.15695484055323E-05,3.69140625,0,0
-2.3012613382889E-05,1.60558029165259E-05,3.69140625,0,0
-1.80728384293616E-05,1.01920986708137E-05,3.69140625,0,0
-2.25858257181244E-05,1.06915322248824E-05,3.69140625,0,0
-1.97805820789654E-05,6.64066874378477E-06,3.69140625,0,0
-2.28157787205419E-05,7.94497827882878E-06,3.69140625,0,0
-2.09029221878154E-05,7.53924405216821E-06,3.69140625,0,0
-2.2163316316437E-05,8.78595164977014E-06,3.69140625,0,0
-2.31380290642846E-05,9.24086270970292E-06,3.69140625,0,0
-2.5558891138644E-05,1.01829073173576E-05,3.69140625,0,0
-2.74446301773423E-05,1.10633336589672E-05,3.69140625,0,0
-2.62421635852661E-05,1.12896832433762E-05,3.69140625,0,0
-2.44977618422126E-05,1.17803410830675E-05,3.69140625,0,0
-2.17395245272201E-05,1.03890224636416E-05,3.69140625,0,0
-2.20152505789883E-05,9.82898745860439E-06,3.69140625,0,0
-2.15449126699241E-05,8.84443034010474E-06,3.69140625,0,0
-2.35802563111065E-05,1.0385172572569E-05,3.69140625,0,0
-2.38504198932787E-05,1.16237670226838E-05,3.69140625,0,0
-2.50670291279675E-05,1.39274352477514E-05,3.69140625,0,0
-2.42479090957204E-05,1.33514367917087E-05,3.69140625,0,0
-2.45175015152199E-05,1.15260472739465E-05,3.69140625,0,0
-2.33820119319716E-05,1.08455733425217E-05,3.69140625,0,0
-2.34665149037028E-05,1.36498229039717E-05,3.69140625,0,0
-2.35670777328778E-05,1.46185520861764E-05,3.69140625,0,0
-2.36546929954784E-05,1.38928244268754E-05,3.69140625,0,0
-2.29024972213665E-05,1.35763557409518E-05,3.69140625,0,0
-2.2433267076849E-05,1.43308971018996E-05,3.69140625,0,0
-1.81223877007142E-05,1.14383701657061E-05,3.69140625,0,0
-2.69064057647483E-05,1.71755909832427E-05,3.69140625,0,0
-2.24869436351582E-05,1.4483068298432E-05,3.69140625,0,0
-2.68413841695292E-05,1.69965369423153E-05,3.69140625,0,0
-2.12124668905744E-05,1.37761935548042E-05,3.69140625,0,0
-2.25538351514842E-05,1.57441190822283E-05,3.69140625,0,0
-2.26597003347706E-05,1.48759727380821E-05,3.69140625,0,0
-2.72387696895748E-05,1.61954376380891E-05,3.69140625,0,0
-2.82342243735911E-05,1.80952683876967E-05,3.69140625,0,0
-2.81770335277542E-05,1.99675941985333E-05,3.69140625,0,0
-2.747614053078E-05,1.91422859643353E-05,3.69140625,0,0
-2.50922876148252E-05,1.68674432643456E-05,3.69140625,0,0
-2.49855747824768E-05,1.79699272848666E-05,3.69140625,0,0
-2.52219269896159E-05,1.83032116183313E-05,3.69140625,0,0
-2.73910100077046E-05,1.78639238583855E-05,3.69140625,0,0
-2.55744325841079E-05,1.68171882251045E-05,3.69140625,0,0
-2.45108294620877E-05,1.90767659660196E-05,3.69140625,0,0
-2.32114780374104E-05,2.00935519387713E-05,3.69140625,0,0
-2.57426636380842E-05,2.00964768737322E-05,3.69140625,0,0
-2.65859089267906E-05,1.90602804650553E-05,3.69140625,0,0
-2.7320085791871E-05,1.98383859242313E-05,3.69140625,0,0
-2.63341644313186E-05,1.887865801109E-05,3.69140625,0,0
-2.63894144154619E-05,1.72996496985434E-05,3.69140625,0,0
-2.574737300165E-05,1.57396079885075E-05,3.69140625,0,0
-2.60851229541004E-05,1.6529773347429E-05,3.69140625,0,0
-2.47843254328473E-05,1.75147870322689E-05,3.69140625,0,0
-2.27566488320008E-05,1.78345308086136E-05,3.69140625,0,0
-1.77084184542764E-05,1.29186273625237E-05,3.69140625,0,0
-2.69907068286557E-05,1.44545338116586E-05,3.69140625,0,0
-2.27369710046332E-05,6.24513359070988E-06,3.69140625,0,0
-2.606490488688E-05,9.70031032920815E-06,3.69140625,0,0
-2.11038986890344E-05,6.33661102256156E-06,3.69140625,0,0
-2.20258079934865E-05,8.90331102709752E-06,3.69140625,0,0
-1.82877010956872E-05,8.64956837176578E-06,3.69140625,0,0
-1.87394725799095E-05,1.04342034319416E-05,3.69140625,0,0
-1.94046697288286E-05,9.71789904724574E-06,3.69140625,0,0
-2.18034329009242E-05,9.22182152862661E-06,3.69140625,0,0
-2.27855362027185E-05,9.33128740143729E-06,3.69140625,0,0
-2.16575408558128E-05,8.14594113762723E-06,3.69140625,0,0
-2.22898397623794E-05,7.4224813033652E-06,3.69140625,0,0
-2.19817884499207E-05,6.87990632286528E-06,3.69140625,0,0
-2.33658684010152E-05,9.39321489568101E-06,3.69140625,0,0
-2.30630867008585E-05,9.80230106506497E-06,3.69140625,0,0
-2.50796001637354E-05,1.02697867987445E-05,3.69140625,0,0
-2.43960912484908E-05,8.77982074598549E-06,3.69140625,0,0
-2.45263854594668E-05,9.57502106757602E-06,3.69140625,0,0
-2.32379807130201E-05,9.04051466932287E-06,3.69140625,0,0
-2.39442560996395E-05,9.26020584302023E-06,3.69140625,0,0
-2.37123349506874E-05,8.33017384138657E-06,3.69140625,0,0
-2.45464161707787E-05,7.52331334297196E-06,3.69140625,0,0
-2.47769439738477E-05,5.60296666662907E-06,3.69140625,0,0
-2.45269366132561E-05,5.88434113524272E-06,3.69140625,0,0
-2.4329150619451E-05,8.34845559438691E-06,3.69140625,0,0
-2.59461921814363E-05,1.04889231806737E-05,3.69140625,0,0
-2.30093392019626E-05,8.32542718853801E-06,3.69140625,0,0
-3.20434410241432E-05,9.94219863059698E-06,3.69140625,0,0
-2.28377866733354E-05,6.09298376730294E-06,3.69140625,0,0
-2.89362160401652E-05,1.04035789263435E-05,3.69140625,0,0
-2.63080273725791E-05,9.65865638136165E-06,3.69140625,0,0
-3.07300615531858E-05,9.74379054241581E-06,3.69140625,0,0
-2.81931879726471E-05,7.45416218705941E-06,3.69140625,0,0
-2.90560619760072E-05,6.92689991410589E-06,3.69140625,0,0
-2.76701503025834E-05,6.57587133900961E-06,3.69140625,0,0
-2.79947016679216E-05,8.80172046890948E-06,3.69140625,0,0
-2.86674985545687E-05,1.08791373349959E-05,3.69140625,0,0
-2.70243654085789E-05,9.37769436859526E-06,3.69140625,0,0
-2.65207017946523E-05,8.22360379970632E-06,3.69140625,0,0
-2.42467776843114E-05,7.96962740423623E-06,3.69140625,0,0
-2.41623947658809E-05,9.46488125919132E-06,3.69140625,0,0
-2.12735485547455E-05,9.11233837541658E-06,3.69140625,0,0
-2.17496381083038E-05,9.4001334218774E-06,3.69140625,0,0
-2.10996113310102E-05,9.69018947216682E-06,3.69140625,0,0
-2.21449499804294E-05,1.04914151961566E-05,3.69140625,0,0
-1.9730538042495E-05,1.0226897757093E-05,3.69140625,0,0
-1.94597741938196E-05,1.10745422716718E-05,3.69140625,0,0
-1.91117487702286E-05,1.05459075712133E-05,3.69140625,0,0
-2.15267136809416E-05,1.05882973002736E-05,3.69140625,0,0
-2.30229416047223E-05,1.04545306385262E-05,3.69140625,0,0
-2.43388676608447E-05,9.68806034506997E-06,3.69140625,0,0
-2.40523386310088E-05,9.44765270105563E-06,3.69140625,0,0
-2.36140549532138E-05,9.04665375855984E-06,3.69140625,0,0
-1.97641693375772E-05,6.95908238412812E-06,3.69140625,0,0
-2.75094207609072E-05,1.09063394120312E-05,3.69140625,0,0
-1.96350811165757E-05,9.56913845584495E-06,3.69140625,0,0
-2.42433961830102E-05,1.08167660073377E-05,3.69140625,0,0
-2.17450051422929E-05,9.05379874893697E-06,3.69140625,0,0
-2.66926108452026E-05,1.05316539702471E-05,3.69140625,0,0
-2.34839517361252E-05,9.89388991001761E-06,3.69140625,0,0
-2.14154824789148E-05,9.14927568373969E-06,3.69140625,0,0
-1.99234291358152E-05,8.68610004545189E-06,3.69140625,0,0
-2.07129087357316E-05,1.03612619568594E-05,3.69140625,0,0
-2.12556660699192E-05,1.25966198538663E-05,3.69140625,0,0
-2.03915496967966E-05,1.32870718516642E-05,3.69140625,0,0
-2.20063611777732E-05,1.36060843942687E-05,3.69140625,0,0
-2.19054236367811E-05,1.32283039420145E-05,3.69140625,0,0
-2.271047924296E-05,1.3899211808166E-05,3.69140625,0,0
-1.98666675714776E-05,1.30870785142179E-05,3.69140625,0,0
-1.91882336366689E-05,1.11503350126441E-05,3.69140625,0,0
-1.78051323018735E-05,7.86885448178509E-06,3.69140625,0,0
-1.95431221072795E-05,6.68695702188415E-06,3.69140625,0,0
-1.92364132090006E-05,7.34615377950831E-06,3.69140625,0,0
-1.9381493984838E-05,9.69729626376648E-06,3.69140625,0,0
-1.9119575881632E-05,1.02410913314088E-05,3.69140625,0,0
-2.11961287277518E-05,8.92537445906783E-06,3.69140625,0,0
-2.28299595619319E-05,7.6467340477393E-06,3.69140625,0,0
-2.39410783251515E-05,7.224823548313E-06,3.69140625,0,0
-2.27108739636606E-05,6.56393513054354E-06,3.69140625,0,0
-2.0487466827035E-05,5.92095693718875E-06,3.69140625,0,0
-1.67719827004476E-05,4.22757420892594E-06,3.69140625,0,0
-2.49596196226776E-05,7.44052476875368E-06,3.69140625,0,0
-1.96318906091619E-05,8.95263474376407E-06,3.69140625,0,0
-2.26762931561098E-05,1.19472806545673E-05,3.69140625,0,0
-1.94834174180869E-05,1.10833752842154E-05,3.69140625,0,0
-2.16688531509135E-05,1.1196327250218E-05,3.69140625,0,0
-1.92309344129171E-05,1.03505881270394E-05,3.69140625,0,0
-1.91804283531383E-05,9.8561295089894E-06,3.69140625,0,0
-1.71306255651871E-05,1.0408401976747E-05,3.69140625,0,0
-1.64426091942005E-05,1.25039496197132E-05,3.69140625,0,0
-1.74393535417039E-05,1.43668648888706E-05,3.69140625,0,0
-1.79213802766753E-05,1.45505409818725E-05,3.69140625,0,0
-1.85278931894572E-05,1.35812369990163E-05,3.69140625,0,0
-1.74459401023341E-05,1.22892552099074E-05,3.69140625,0,0
-1.85292428795947E-05,1.21175926324213E-05,3.69140625,0,0
-1.85150602192152E-05,1.23697736853501E-05,3.69140625,0,0
-2.15643267438281E-05,1.40754464155179E-05,3.69140625,0,0
-2.35845473071095E-05,1.46378151839599E-05,3.69140625,0,0
-2.61421500908909E-05,1.22653291327879E-05,3.69140625,0,0
-2.51830224442529E-05,7.64476772019407E-06,3.69140625,0,0
-2.45028149947757E-05,6.35006017546402E-06,3.69140625,0,0
-2.39033215621021E-05,8.55331109050894E-06,3.69140625,0,0
-2.51135843427619E-05,1.1389030078135E-05,3.69140625,0,0
-2.50266457442194E-05,1.31027118186466E-05,3.69140625,0,0
-2.55538525379961E-05,1.31222859636182E-05,3.69140625,0,0
-2.50722132477677E-05,1.35328054966521E-05,3.69140625,0,0
-2.31385238294024E-05,1.57234771904768E-05,3.69140625,0,0
-1.81104678631527E-05,1.31818642330472E-05,3.69140625,0,0
-2.63923902821261E-05,1.64270713867154E-05,3.69140625,0,0
-2.107896580128E-05,8.82458516571205E-06,3.69140625,0,0
-2.50674474955304E-05,1.21127786769648E-05,3.69140625,0,0
-2.05082560569281E-05,1.11764693428995E-05,3.69140625,0,0
-2.45743849518476E-05,1.53738437802531E-05,3.69140625,0,0
-2.49939803325105E-05,1.44882451422745E-05,3.69140625,0,0
-2.63847650785465E-05,1.42124208650785E-05,3.69140625,0,0
-2.41216312133474E-05,1.31410570247681E-05,3.69140625,0,0
-2.29323941312032E-05,1.48515764522017E-05,3.69140625,0,0
-2.42837504629279E-05,1.53429300553398E-05,3.69140625,0,0
-2.66555816779146E-05,1.38204059112468E-05,3.69140625,0,0
-2.94611963909119E-05,1.35624895847286E-05,3.69140625,0,0
-2.79445375781506E-05,1.17310473797261E-05,3.69140625,0,0
-2.7026286261389E-05,1.06179986687494E-05,3.69140625,0,0
-2.4168277377612E-05,8.14255599834723E-06,3.69140625,0,0
-2.372516610194E-05,9.69630673353095E-06,3.69140625,0,0
-2.11658425541827E-05,1.13738542495412E-05,3.69140625,0,0
-1.9960443751188E-05,1.36972457767115E-05,3.69140625,0,0
-1.84416148840683E-05,1.3420349205262E-05,3.69140625,0,0
-2.02273677132325E-05,1.39726334964507E-05,3.69140625,0,0
-2.0848758140346E-05,1.36176286105183E-05,3.69140625,0,0
-2.1897269107285E-05,1.26056929730112E-05,3.69140625,0,0
-2.25972671614727E-05,8.39972653920995E-06,3.69140625,0,0
-2.48794895014726E-05,5.11593498231377E-06,3.69140625,0,0
-2.72970355581492E-05,4.81592087453464E-06,3.69140625,0,0
-2.72293309535598E-05,6.66373216517968E-06,3.69140625,0,0
-1.94665226445068E-05,5.88053535466315E-06,3.69140625,0,0
-2.68884468823671E-05,8.95388711796841E-06,3.69140625,0,0
-2.05718333745608E-05,7.69898088037735E-06,3.69140625,0,0
-2.65474227489904E-05,9.43105533224298E-06,3.69140625,0,0
-2.0960382244084E-05,8.11805966804968E-06,3.69140625,0,0
-2.20229576370912E-05,9.1987330961274E-06,3.69140625,0,0
-2.07296943699475E-05,9.68369386100676E-06,3.69140625,0,0
-2.49892291321885E-05,9.54183542489773E-06,3.69140625,0,0
-2.58686031884281E-05,8.31452052807435E-06,3.69140625,0,0
-2.58179279626347E-05,8.57082977745449E-06,3.69140625,0,0
-2.56711518886732E-05,1.10861037683208E-05,3.69140625,0,0
-2.47031457547564E-05,1.2281540875847E-05,3.69140625,0,0
-2.59445150732063E-05,1.08810681922478E-05,3.69140625,0,0
-2.64750688074855E-05,8.84080691321287E-06,3.69140625,0,0
-2.91601099888794E-05,9.4739025371382E-06,3.69140625,0,0
-2.83658682747046E-05,1.10066630440997E-05,3.69140625,0,0
-2.90232655970613E-05,1.24658918139176E-05,3.69140625,0,0
-2.72539455181686E-05,1.2272093044885E-05,3.69140625,0,0
-2.7060628781328E-05,1.20625327326707E-05,3.69140625,0,0
-2.48792657657759E-05,1.17115068860585E-05,3.69140625,0,0
-2.49560507654678E-05,1.12893121695379E-05,3.69140625,0,0
-2.42653459281428E-05,9.5088353191386E-06,3.69140625,0,0
-2.47139869316015E-05,9.07095454749651E-06,3.69140625,0,0
-2.47097377723549E-05,1.07756704892381E-05,3.69140625,0,0
-2.61117638729047E-05,1.2094492376491E-05,3.69140625,0,0
-2.68260719167301E-05,1.15230823212187E-05,3.69140625,0,0
-2.77293675026158E-05,1.01254772744142E-05,3.69140625,0,0
-2.40939516515937E-05,7.9010733315954E-06,3.69140625,0,0
-3.39919060934335E-05,1.13498799692024E-05,3.69140625,0,0
-2.45834980887594E-05,7.10633094058721E-06,3.69140625,0,0
-2.91610194835812E-05,7.48884167478536E-06,3.69140625,0,0
-2.36196883633966E-05,6.19768616161309E-06,3.69140625,0,0
-2.75227976089809E-05,8.77236197993625E-06,3.69140625,0,0
-2.44950861088E-05,9.06806872080779E-06,3.69140625,0,0
-2.37250733334804E-05,7.54193160901195E-06,3.69140625,0,0
-2.10013949981658E-05,4.98929466630216E-06,3.69140625,0,0
-2.13823059311835E-05,5.0440517043171E-06,3.69140625,0,0
-2.2767129848944E-05,7.76953947934089E-06,3.69140625,0,0
-2.16893386095762E-05,9.76973115029978E-06,3.69140625,0,0
-2.16936259676004E-05,1.12639236249379E-05,3.69140625,0,0
-2.00538434000919E-05,1.18604812087142E-05,3.69140625,0,0
-2.20329256990226E-05,1.2394634723023E-05,3.69140625,0,0
-2.16114840441151E-05,1.17586096166633E-05,3.69140625,0,0
-2.35593961406266E-05,1.18487459985772E-05,3.69140625,0,0
-2.32256334129488E-05,1.09322445496218E-05,3.69140625,0,0
-2.62023968389258E-05,1.05829958556569E-05,3.69140625,0,0
-2.62572575593367E-05,9.94152014754945E-06,3.69140625,0,0
-2.58263498835731E-05,9.99336680251872E-06,3.69140625,0,0
-2.31393714784645E-05,9.7392694442533E-06,3.69140625,0,0
-2.33716946240747E-05,9.43456507229712E-06,3.69140625,0,0
-2.35039879044052E-05,8.83563461684389E-06,3.69140625,0,0
-2.36311243497767E-05,8.55092093843268E-06,3.69140625,0,0
-2.38173506659223E-05,7.99011286289897E-06,3.69140625,0,0
-2.48410797212273E-05,8.24045400804607E-06,3.69140625,0,0
-2.13950133911567E-05,7.21428568795091E-06,3.69140625,0,0
-3.16768673656043E-05,1.09160018837429E-05,3.69140625,0,0
-2.69824176939437E-05,8.64199955685763E-06,3.69140625,0,0
-3.42239218298346E-05,1.07794512587134E-05,3.69140625,0,0
-2.89007384708384E-05,1.14025842776755E-05,3.69140625,0,0
-2.85257410723716E-05,1.44819332490442E-05,3.69140625,0,0
-2.44578459387412E-05,1.36475910039735E-05,3.69140625,0,0
-2.67188697762322E-05,1.33467256091535E-05,3.69140625,0,0
-2.75390211754711E-05,1.40633019327652E-05,3.69140625,0,0
-2.68324129137909E-05,1.54948393173981E-05,3.69140625,0,0
-2.553554259066E-05,1.58143848238979E-05,3.69140625,0,0
-2.4852099159034E-05,1.35410627990495E-05,3.69140625,0,0
-2.62710982497083E-05,1.18054149425006E-05,3.69140625,0,0
-2.49873737629969E-05,1.20154218166135E-05,3.69140625,0,0
-2.57926367339678E-05,1.53807613969548E-05,3.69140625,0,0
-2.40162207774119E-05,1.6952601072262E-05,3.69140625,0,0
-2.44247585214907E-05,1.63808053912362E-05,3.69140625,0,0
-2.28340377361747E-05,1.40804349939572E-05,3.69140625,0,0
-2.245049472549E-05,1.34758674903424E-05,3.69140625,0,0
-2.0026844140375E-05,1.39000549097545E-05,3.69140625,0,0
-2.03241124836495E-05,1.4382487279363E-05,3.69140625,0,0
-2.06778713618405E-05,1.29543977891444E-05,3.69140625,0,0
-2.19003322854405E-05,1.20814465844887E-05,3.69140625,0,0
-2.05931846721796E-05,1.26255281429621E-05,3.69140625,0,0
-2.05937249120325E-05,1.37772958623827E-05,3.69140625,0,0
-2.15143409150187E-05,1.33677067424287E-05,3.69140625,0,0
-2.17146825889358E-05,1.1968973922194E-05,3.69140625,0,0
-1.69058948813472E-05,9.11365168576594E-06,3.69140625,0,0
-2.41049292526441E-05,1.3237679922895E-05,3.69140625,0,0
-1.96393575606635E-05,1.10130213215598E-05,3.69140625,0,0
-2.47138104896294E-05,1.42272538141697E-05,3.69140625,0,0
-2.04101925191935E-05,1.15376415124047E-05,3.69140625,0,0
-2.28769931709394E-05,1.19012120194384E-05,3.69140625,0,0
-2.1159839889151E-05,1.1772227480833E-05,3.69140625,0,0
-2.10431990126381E-05,1.40789570650668E-05,3.69140625,0,0
-2.05528831429547E-05,1.44030955198104E-05,3.69140625,0,0
-2.31664726015879E-05,1.3625003703055E-05,3.69140625,0,0
-2.57366082223598E-05,1.37239303512615E-05,3.69140625,0,0
-2.50939374382142E-05,1.3127541024005E-05,3.69140625,0,0
-2.52510835707653E-05,1.17817853606539E-05,3.69140625,0,0
-2.54510468948865E-05,9.13288022275083E-06,3.69140625,0,0
-2.91168635158101E-05,7.88162287790328E-06,3.69140625,0,0
-3.10408722725697E-05,7.34261402612901E-06,3.69140625,0,0
-3.32539711962454E-05,8.69847735884832E-06,3.69140625,0,0
-3.11322000925429E-05,8.68227380124154E-06,3.69140625,0,0
-2.93358170893043E-05,8.57244504004484E-06,3.69140625,0,0
-2.71540648100199E-05,7.61469118515379E-06,3.69140625,0,0
-2.82253113255138E-05,8.14230406831484E-06,3.69140625,0,0
-2.87966504401993E-05,8.46271723276004E-06,3.69140625,0,0
-2.89523177343654E-05,8.83100165083306E-06,3.69140625,0,0
-2.83499357465189E-05,7.85108659329126E-06,3.69140625,0,0
-2.97604365186999E-05,7.29815337763284E-06,3.69140625,0,0
-3.09058596030809E-05,8.93085962161422E-06,3.69140625,0,0
-3.05337271129247E-05,1.02008116300567E-05,3.69140625,0,0
-2.2729487682227E-05,7.22501772543183E-06,3.69140625,0,0
-3.12737465719692E-05,8.93176456884248E-06,3.69140625,0,0
-2.27141390496399E-05,5.66471953789005E-06,3.69140625,0,0
-2.97551596304402E-05,8.81697451404762E-06,3.69140625,0,0
-2.59233693213901E-05,7.7726735980832E-06,3.69140625,0,0
-2.83264726022026E-05,8.02164322522003E-06,3.69140625,0,0
-2.34770868701162E-05,6.22101924818708E-06,3.69140625,0,0
-2.29057714022929E-05,6.75096816848964E-06,3.69140625,0,0
-2.11262831726344E-05,8.14216036815196E-06,3.69140625,0,0
-2.03366616915446E-05,9.81792709353613E-06,3.69140625,0,0
-1.94589320017258E-05,1.07697023850051E-05,3.69140625,0,0
-1.73631851794198E-05,1.09314923975035E-05,3.69140625,0,0
-1.76549419848016E-05,1.14268614197499E-05,3.69140625,0,0
-1.73010103026172E-05,1.18943517009029E-05,3.69140625,0,0
-1.95736392925028E-05,1.38411478474154E-05,3.69140625,0,0
-1.76880857907236E-05,1.38716368383029E-05,3.69140625,0,0
-1.73355165316025E-05,1.42090939334594E-05,3.69140625,0,0
-1.50307041622E-05,1.41972341225483E-05,3.69140625,0,0
-1.56883470481262E-05,1.40524280141108E-05,3.69140625,0,0
-1.52791144500952E-05,1.21548628158052E-05,3.69140625,0,0
-1.81568448169855E-05,1.26008953884593E-05,3.69140625,0,0
-2.00672802748159E-05,1.49976658576634E-05,3.69140625,0,0
-2.14262636291096E-05,1.68651768035488E-05,3.69140625,0,0
-1.84224572876701E-05,1.52124030137202E-05,3.69140625,0,0
-1.53157598106191E-05,1.30224225358688E-05,3.69140625,0,0
-1.44385649036849E-05,1.25584519992117E-05,3.69140625,0,0
-1.55757516040467E-05,1.27457660710206E-05,3.69140625,0,0
-1.43309252962354E-05,1.00714487416553E-05,3.69140625,0,0
-2.18613022298086E-05,1.35343698275392E-05,3.69140625,0,0
-1.83182892214973E-05,8.62704382598167E-06,3.69140625,0,0
-2.10653961403295E-05,1.14775339170592E-05,3.69140625,0,0
-1.73919106600806E-05,1.03068377939053E-05,3.69140625,0,0
-1.80531496880576E-05,1.13775422505569E-05,3.69140625,0,0
-1.58505445142509E-05,1.01415780591196E-05,3.69140625,0,0
-1.68046262842836E-05,1.1433668078098E-05,3.69140625,0,0
-1.68073038366856E-05,1.17326553663588E-05,3.69140625,0,0
-1.76347384694964E-05,1.09600578070967E-05,3.69140625,0,0
-1.82371713890461E-05,9.61791738518514E-06,3.69140625,0,0
-1.68667229445418E-05,8.394416909141E-06,3.69140625,0,0
-1.65993878908921E-05,7.83296763984254E-06,3.69140625,0,0
-1.6774662071839E-05,5.92580863667536E-06,3.69140625,0,0
-1.89090369531186E-05,5.61768092666171E-06,3.69140625,0,0
-1.83538832061458E-05,6.2194653764891E-06,3.69140625,0,0
-1.91228355106432E-05,9.5186342150555E-06,3.69140625,0,0
-1.96738055819878E-05,1.14391241368139E-05,3.69140625,0,0
-2.17463912122184E-05,1.19246515168925E-05,3.69140625,0,0
-2.22357757593272E-05,9.63922229857417E-06,3.69140625,0,0
-2.35550323850475E-05,8.82381755218375E-06,3.69140625,0,0
-2.33627106354106E-05,9.312618203694E-06,3.69140625,0,0
-2.38733009609859E-05,1.25341766761267E-05,3.69140625,0,0
-2.42683800024679E-05,1.53450455400161E-05,3.69140625,0,0
-2.5320150598418E-05,1.51556441778666E-05,3.69140625,0,0
-2.80724652839126E-05,1.18828393169679E-05,3.69140625,0,0
-3.12516567646526E-05,9.97854021989042E-06,3.69140625,0,0
-2.46215331571875E-05,8.85403369466076E-06,3.69140625,0,0
-3.36018965754192E-05,1.38890663947677E-05,3.69140625,0,0
-2.54592378041707E-05,1.22591018225648E-05,3.69140625,0,0
-3.2922973332461E-05,1.4558465409209E-05,3.69140625,0,0
-2.70671189355198E-05,1.1945735423069E-05,3.69140625,0,0
-3.1506599043496E-05,1.29644349726732E-05,3.69140625,0,0
-2.94155142910313E-05,1.3312836017576E-05,3.69140625,0,0
-3.16592595481779E-05,1.4095958249527E-05,3.69140625,0,0
-3.16764126182534E-05,1.34910233100527E-05,3.69140625,0,0
-3.23643726005685E-05,1.21029452202492E-05,3.69140625,0,0
-3.21591687679756E-05,1.09494667412946E-05,3.69140625,0,0
-3.07337249978445E-05,1.14211843538214E-05,3.69140625,0,0
-3.13608361466322E-05,1.42964463520912E-05,3.69140625,0,0
-2.96895359497285E-05,1.65186593221733E-05,3.69140625,0,0
-3.15042634611018E-05,1.7657950593275E-05,3.69140625,0,0
-3.06298716168385E-05,1.64108041644795E-05,3.69140625,0,0
-3.24530556099489E-05,1.50454752656515E-05,3.69140625,0,0
-3.16618024953641E-05,1.17466433948721E-05,3.69140625,0,0
-3.28727110172622E-05,1.00211373137427E-05,3.69140625,0,0
-3.08324888464995E-05,9.6529329312034E-06,3.69140625,0,0
-3.03648030239856E-05,1.05146636997233E-05,3.69140625,0,0
-2.77788440143922E-05,9.59644603426568E-06,3.69140625,0,0
-2.76271566690411E-05,7.49573837310891E-06,3.69140625,0,0
-2.69858373940224E-05,6.31223429081729E-06,3.69140625,0,0
-2.71844000963029E-05,7.76566412241664E-06,3.69140625,0,0
-2.72458946710685E-05,9.73620899458183E-06,3.69140625,0,0
-2.72429606411606E-05,1.03204756669584E-05,3.69140625,0,0
-2.05821561394259E-05,6.39739300822839E-06,3.69140625,0,0
-2.77512426691828E-05,8.04662977316184E-06,3.69140625,0,0
-1.99399491975782E-05,6.28586212769733E-06,3.69140625,0,0
-2.67690229520667E-05,1.11859544631443E-05,3.69140625,0,0
-2.20381316466955E-05,1.21837247206713E-05,3.69140625,0,0
-2.37254080275306E-05,1.40836809805478E-05,3.69140625,0,0
-2.21042100747582E-05,1.31595188577194E-05,3.69140625,0,0
-2.31216072279494E-05,1.17639983727713E-05,3.69140625,0,0
-2.02779101527995E-05,8.45424256112892E-06,3.69140625,0,0
-1.79447943082778E-05,6.04272690907237E-06,3.69140625,0,0
-1.76489629666321E-05,5.94836410527932E-06,3.69140625,0,0
-1.69769245985663E-05,7.44044473321992E-06,3.69140625,0,0
-1.79250782821327E-05,8.40648590383353E-06,3.69140625,0,0
-1.70147213793825E-05,6.36804770692834E-06,3.69140625,0,0
-1.80870956683066E-05,4.59737066194066E-06,3.69140625,0,0
-1.7055985154002E-05,4.01948682338116E-06,3.69140625,0,0
-1.80590668605873E-05,4.91944319946924E-06,3.69140625,0,0
-1.69992308656219E-05,4.5927240535093E-06,3.69140625,0,0
-1.85452681762399E-05,6.11602581557236E-06,3.69140625,0,0
-1.81046561920084E-05,8.47831597639015E-06,3.69140625,0,0
-1.86189699888928E-05,1.10583514469909E-05,3.69140625,0,0
-1.83926167665049E-05,1.26437325889128E-05,3.69140625,0,0
-1.96815472008893E-05,1.44808273034869E-05,3.69140625,0,0
-2.02560004254337E-05,1.51591657413519E-05,3.69140625,0,0
-2.10897833312629E-05,1.33701041704626E-05,3.69140625,0,0
-2.07924167625606E-05,9.74458180280635E-06,3.69140625,0,0
-2.09297813853482E-05,8.9560880951467E-06,3.69140625,0,0
-1.64943867275724E-05,9.67900177784031E-06,3.69140625,0,0
-2.23433344217483E-05,1.58292368723778E-05,3.69140625,0,0
-1.70975526998518E-05,1.49332872751984E-05,3.69140625,0,0
-2.37080475926632E-05,1.66392219398404E-05,3.69140625,0,0
-2.07886987482198E-05,1.15746770461556E-05,3.69140625,0,0
-2.30010591621976E-05,1.07174000731902E-05,3.69140625,0,0
-2.14694919122849E-05,1.03764423329267E-05,3.69140625,0,0
-2.22003072849475E-05,1.08700742202927E-05,3.69140625,0,0
-2.18963705265196E-05,9.92991317616543E-06,3.69140625,0,0
-2.23017432290362E-05,9.03335057955701E-06,3.69140625,0,0
-2.19892081076978E-05,8.57957729749614E-06,3.69140625,0,0
-2.08299497899134E-05,8.21251796878641E-06,3.69140625,0,0
-2.21373284148285E-05,9.2261288955342E-06,3.69140625,0,0
-2.2781774532632E-05,9.48188153415686E-06,3.69140625,0,0
-2.40604022110347E-05,1.03964102891041E-05,3.69140625,0,0
-2.23203151108464E-05,1.05730605355348E-05,3.69140625,0,0
-2.33280497923261E-05,1.12298712338088E-05,3.69140625,0,0
-2.44113507505972E-05,1.04155769804493E-05,3.69140625,0,0
-2.74670383078046E-05,1.07201167338644E-05,3.69140625,0,0
-2.71663047897164E-05,1.02032499853522E-05,3.69140625,0,0
-2.70548152911942E-05,9.55041286943015E-06,3.69140625,0,0
-2.65094258793397E-05,8.74588477017824E-06,3.69140625,0,0
-2.66010847553844E-05,1.00209535958129E-05,3.69140625,0,0
-2.52621266554343E-05,1.13857968244702E-05,3.69140625,0,0
-2.52588160947198E-05,1.18937305160216E-05,3.69140625,0,0
-2.69296160695376E-05,1.17346435217769E-05,3.69140625,0,0
-2.840644265234E-05,1.08518670458579E-05,3.69140625,0,0
-2.23269380512647E-05,8.58176554174861E-06,3.69140625,0,0
-3.17384874506388E-05,1.31076412799302E-05,3.69140625,0,0
-2.41855777858291E-05,1.12647276182543E-05,3.69140625,0,0
-2.92602871923009E-05,1.29461777760298E-05,3.69140625,0,0
-2.42934656853322E-05,9.8876807896886E-06,3.69140625,0,0
-2.86012818833115E-05,9.67138112173416E-06,3.69140625,0,0
-2.71891349257203E-05,9.06747118278872E-06,3.69140625,0,0
-2.97166843665764E-05,1.15482853288995E-05,3.69140625,0,0
-2.95853369607357E-05,1.26215327327373E-05,3.69140625,0,0
-2.89489453280112E-05,1.39097901410423E-05,3.69140625,0,0
-2.85444748442387E-05,1.59491046360927E-05,3.69140625,0,0
-2.76007249340182E-05,1.76308822119609E-05,3.69140625,0,0
-2.81055581581313E-05,1.82238945853896E-05,3.69140625,0,0
-2.58654890785692E-05,1.67099151440198E-05,3.69140625,0,0
-2.61180357483681E-05,1.63643235282507E-05,3.69140625,0,0
-2.4436181774945E-05,1.56314599735197E-05,3.69140625,0,0
-2.57297015195945E-05,1.66935351444408E-05,3.69140625,0,0
-2.53757025348023E-05,1.68409078469267E-05,3.69140625,0,0
-2.74450558208628E-05,1.74140150193125E-05,3.69140625,0,0
-2.74391622951953E-05,1.64158500410849E-05,3.69140625,0,0
-2.88565297523746E-05,1.47725695569534E-05,3.69140625,0,0
-2.73455207207007E-05,1.31204633362358E-05,3.69140625,0,0
-2.6153586077271E-05,1.32168433992774E-05,3.69140625,0,0
-2.46321069425903E-05,1.31307642732281E-05,3.69140625,0,0
-2.50244484050199E-05,1.29954105432262E-05,3.69140625,0,0
-2.52895424637245E-05,1.245481416845E-05,3.69140625,0,0
-2.44492748606717E-05,1.08865942820557E-05,3.69140625,0,0
-1.96260916709434E-05,5.86234136790154E-06,3.69140625,0,0
-2.86342274193885E-05,7.00019381838501E-06,3.69140625,0,0
-2.32900547416648E-05,4.94352298119338E-06,3.69140625,0,0
-2.88781702693086E-05,8.48438594402978E-06,3.69140625,0,0
-2.5023344278452E-05,8.9536797531764E-06,3.69140625,0,0
-2.80875556200044E-05,1.00607003332698E-05,3.69140625,0,0
-2.75629008683609E-05,7.29769180907169E-06,3.69140625,0,0
-2.9791182896588E-05,5.77709397475701E-06,3.69140625,0,0
-2.81888260360574E-05,4.34170488006203E-06,3.69140625,0,0
-2.69562478933949E-05,4.2015676626761E-06,3.69140625,0,0
-2.73475980065996E-05,3.23128324453137E-06,3.69140625,0,0
-2.78512798104202E-05,2.657893446667E-06,3.69140625,0,0
-2.86137383227469E-05,5.5608652473893E-06,3.69140625,0,0
-2.59610314969905E-05,8.03964758233633E-06,3.69140625,0,0
-2.55725863098633E-05,9.17494344321312E-06,3.69140625,0,0
-2.4870882043615E-05,8.06863044999773E-06,3.69140625,0,0
-2.6462292225915E-05,7.65553795645246E-06,3.69140625,0,0
-2.44161146838451E-05,6.62666934658773E-06,3.69140625,0,0
-2.33233095059404E-05,6.20605169388E-06,3.69140625,0,0
-2.06335353141185E-05,4.0895065467339E-06,3.69140625,0,0
-1.9926705135731E-05,1.91049912245944E-06,3.69140625,0,0
-1.82379044417758E-05,-2.58281929177429E-08,3.69140625,0,0
-1.87134774023434E-05,6.63752530272177E-07,3.69140625,0,0
-1.97555928025395E-05,3.12720476358663E-06,3.69140625,0,0
-2.08657438633963E-05,4.9953691814153E-06,3.69140625,0,0
-2.02403662115103E-05,6.4102205215022E-06,3.69140625,0,0
-2.07630982913543E-05,7.83195537223946E-06,3.69140625,0,0
-1.81234354386106E-05,7.77140485297423E-06,3.69140625,0,0
-2.61155837506521E-05,1.23332820294308E-05,3.69140625,0,0
-1.93194246094208E-05,1.12141815407085E-05,3.69140625,0,0
-2.24360719585093E-05,1.31479919218691E-05,3.69140625,0,0
-1.7767708413885E-05,1.26503673527623E-05,3.69140625,0,0
-1.99580881599104E-05,1.49307779793162E-05,3.69140625,0,0
-1.86499019037001E-05,1.46839283843292E-05,3.69140625,0,0
-2.00519607460592E-05,1.50165496961563E-05,3.69140625,0,0
-2.0369005142129E-05,1.41690816235496E-05,3.69140625,0,0
-2.16863081732299E-05,1.45847698149737E-05,3.69140625,0,0
-2.3763741410221E-05,1.30287426145514E-05,3.69140625,0,0
-2.49557779170573E-05,1.00577317425632E-05,3.69140625,0,0
-2.58577874774346E-05,1.05086646726704E-05,3.69140625,0,0
-2.44268630922306E-05,1.27662324302946E-05,3.69140625,0,0
-2.50778157351306E-05,1.59293194883503E-05,3.69140625,0,0
-2.40378958551446E-05,1.6212241462199E-05,3.69140625,0,0
-2.50150860665599E-05,1.51226358866552E-05,3.69140625,0,0
-2.41396337514743E-05,1.25546612252947E-05,3.69140625,0,0
-2.50242937909206E-05,1.15303510028752E-05,3.69140625,0,0
-2.52742502198089E-05,1.06084371509496E-05,3.69140625,0,0
-2.73375553661026E-05,1.03178526842385E-05,3.69140625,0,0
-2.77569979516556E-05,8.94947697815951E-06,3.69140625,0,0
-2.85661208181409E-05,8.9069953901344E-06,3.69140625,0,0
-2.89690142381005E-05,1.03555530586164E-05,3.69140625,0,0
-2.94007259071805E-05,1.22991305033793E-05,3.69140625,0,0
-2.65629332716344E-05,1.31858723761979E-05,3.69140625,0,0
-2.3459975636797E-05,1.3597181350633E-05,3.69140625,0,0
-1.90714508789824E-05,1.07557871160679E-05,3.69140625,0,0
-2.82645833067363E-05,1.42351364047499E-05,3.69140625,0,0
-2.18711065826938E-05,1.10114160634112E-05,3.69140625,0,0
-2.57989413512405E-05,1.52308657561662E-05,3.69140625,0,0
-2.07498105737614E-05,1.26438771985704E-05,3.69140625,0,0
-2.13035636988934E-05,1.4533067769662E-05,3.69140625,0,0
-1.89942693396006E-05,1.41353948492906E-05,3.69140625,0,0
-2.05288106371881E-05,1.58522489073221E-05,3.69140625,0,0
-1.98171474039555E-05,1.6364185285056E-05,3.69140625,0,0
-1.86804973054677E-05,1.75781260622898E-05,3.69140625,0,0
-1.93950036191382E-05,1.84883683687076E-05,3.69140625,0,0
-2.16159241972491E-05,1.75492259586463E-05,3.69140625,0,0
-2.53467533184448E-05,1.69739269040292E-05,3.69140625,0,0
-2.51942492468515E-05,1.54109657160006E-05,3.69140625,0,0
-2.47491243499098E-05,1.56490368681261E-05,3.69140625,0,0
-2.23386014113203E-05,1.52664670167724E-05,3.69140625,0,0
-2.3414206225425E-05,1.71006431628484E-05,3.69140625,0,0
-2.31233207159676E-05,1.65089604706736E-05,3.69140625,0,0
-2.34280360018602E-05,1.50134828800219E-05,3.69140625,0,0
-2.15606305573601E-05,1.38096802402288E-05,3.69140625,0,0
-2.16183852899121E-05,1.60140789375873E-05,3.69140625,0,0
-2.31107114814222E-05,1.72076670423849E-05,3.69140625,0,0
-2.63106121565215E-05,1.78360969584901E-05,3.69140625,0,0
-2.59145417658146E-05,1.64527373271994E-05,3.69140625,0,0
-2.4687160475878E-05,1.42585722642252E-05,3.69140625,0,0
-2.3756245354889E-05,1.19830438052304E-05,3.69140625,0,0
-2.34076978813391E-05,9.75262082647532E-06,3.69140625,0,0
-2.04288135137176E-05,7.09826053935103E-06,3.69140625,0,0
-3.15192301059142E-05,9.64948230830487E-06,3.69140625,0,0
-2.57561732723843E-05,8.00121688371291E-06,3.69140625,0,0
-2.79483556369087E-05,1.12494653876638E-05,3.69140625,0,0
-2.17443357541924E-05,9.49225886870408E-06,3.69140625,0,0
-2.51416695391526E-05,8.93061587703414E-06,3.69140625,0,0
-2.484854303475E-05,6.96100778441178E-06,3.69140625,0,0
-2.63396705122432E-05,7.32876151232631E-06,3.69140625,0,0
-2.42419409914874E-05,7.74100954004098E-06,3.69140625,0,0
-2.26975662371842E-05,9.97088318399619E-06,3.69140625,0,0
-2.28630051424261E-05,1.23707723105326E-05,3.69140625,0,0
-2.25149560719728E-05,1.2343952221272E-05,3.69140625,0,0
-2.370525180595E-05,1.18980215120246E-05,3.69140625,0,0
-2.29670440603513E-05,1.0610079698381E-05,3.69140625,0,0
-2.40509580180515E-05,9.94135371001903E-06,3.69140625,0,0
-2.2708640244673E-05,8.7654098024359E-06,3.69140625,0,0
-2.41545330936788E-05,9.52079608396161E-06,3.69140625,0,0
-2.49120148509974E-05,1.00487677627825E-05,3.69140625,0,0
-2.65041217062389E-05,1.16003029688727E-05,3.69140625,0,0
-2.4456907340209E-05,1.25386759464163E-05,3.69140625,0,0
-2.40115277847508E-05,1.33062931126915E-05,3.69140625,0,0
-2.3662065359531E-05,1.25617034427705E-05,3.69140625,0,0
-2.44300699705491E-05,1.09676348074572E-05,3.69140625,0,0
-2.38109823840205E-05,7.74690033722436E-06,3.69140625,0,0
-2.28147673624335E-05,4.95441190651036E-06,3.69140625,0,0
-2.10123926080996E-05,4.90068123326637E-06,3.69140625,0,0
-2.06123204407049E-05,6.31625152891502E-06,3.69140625,0,0
-1.81180548679549E-05,5.86952273806673E-06,3.69140625,0,0
-2.7042156943935E-05,8.83178654476069E-06,3.69140625,0,0
-2.17879096453544E-05,7.62687432143139E-06,3.69140625,0,0
-2.57963529293193E-05,9.8404871096136E-06,3.69140625,0,0
-2.13298590097111E-05,8.29384043754544E-06,3.69140625,0,0
-2.30109890253516E-05,8.12861981103197E-06,3.69140625,0,0
-2.22067774302559E-05,6.39523568679579E-06,3.69140625,0,0
-2.49109561991645E-05,4.1937473724829E-06,3.69140625,0,0
-2.50675930146826E-05,3.31036790157668E-06,3.69140625,0,0
-2.48430242208997E-05,4.3697036744561E-06,3.69140625,0,0
-2.3559257897432E-05,5.54972439203993E-06,3.69140625,0,0
-2.21366044570459E-05,5.62342711418751E-06,3.69140625,0,0
-2.33891551033594E-05,5.19109380547889E-06,3.69140625,0,0
-2.32888105529128E-05,4.55107283414691E-06,3.69140625,0,0
-2.50740831688745E-05,5.91317621001508E-06,3.69140625,0,0
-2.45218943746295E-05,7.58117676014081E-06,3.69140625,0,0
-2.53091147897067E-05,9.28721601667348E-06,3.69140625,0,0
-2.3794640583219E-05,9.7962147265207E-06,3.69140625,0,0
-2.38386328419438E-05,9.90785520116333E-06,3.69140625,0,0
-2.28557892114623E-05,1.00345705504878E-05,3.69140625,0,0
-2.36432715610135E-05,1.18602038128302E-05,3.69140625,0,0
-2.3473394321627E-05,1.27649027490406E-05,3.69140625,0,0
-2.48489322984824E-05,1.1529488801898E-05,3.69140625,0,0
-2.53104080911726E-05,8.05637955636485E-06,3.69140625,0,0
-2.48671349254437E-05,6.63539594825124E-06,3.69140625,0,0
-2.34383805945981E-05,8.44470014271792E-06,3.69140625,0,0
-2.29084271268221E-05,1.0134541298612E-05,3.69140625,0,0
-1.8655071471585E-05,7.47625836083898E-06,3.69140625,0,0
-2.585100082797E-05,9.07789581106044E-06,3.69140625,0,0
-1.83689990080893E-05,5.0492581067374E-06,3.69140625,0,0
-2.25924468395533E-05,8.03098646429135E-06,3.69140625,0,0
-1.86747183761327E-05,7.83809082349762E-06,3.69140625,0,0
-2.24717805394903E-05,9.68333733908366E-06,3.69140625,0,0
-2.29994657274801E-05,8.88124122866429E-06,3.69140625,0,0
-2.5614703190513E-05,9.43421127885813E-06,3.69140625,0,0
-2.49535642069532E-05,8.8618007794139E-06,3.69140625,0,0
-2.46918170887511E-05,8.87000078364508E-06,3.69140625,0,0
-2.41017169173574E-05,9.61616206041072E-06,3.69140625,0,0
-2.23234619625146E-05,1.07258338175598E-05,3.69140625,0,0
-2.21129521378316E-05,1.30400885609561E-05,3.69140625,0,0
-2.03346917260205E-05,1.37043271024595E-05,3.69140625,0,0
-2.08679084607866E-05,1.3244993169792E-05,3.69140625,0,0
-2.04054413188715E-05,1.06783872979577E-05,3.69140625,0,0
-2.23124334297609E-05,9.64849368756404E-06,3.69140625,0,0
-2.23820461542346E-05,8.60825002746424E-06,3.69140625,0,0
-2.4352684704354E-05,8.45900922286091E-06,3.69140625,0,0
-2.38807497225935E-05,8.34707952890312E-06,3.69140625,0,0
-2.41037741943728E-05,9.76039154920727E-06,3.69140625,0,0
-2.23860934056574E-05,1.04359696706524E-05,3.69140625,0,0
-2.17122305912199E-05,1.19880141937756E-05,3.69140625,0,0
-2.18289660551818E-05,1.28998453874374E-05,3.69140625,0,0
-2.32010115723824E-05,1.20319255074719E-05,3.69140625,0,0
-2.29851702897577E-05,1.10325836431002E-05,3.69140625,0,0
-2.25141466216883E-05,1.06503393908497E-05,3.69140625,0,0
-1.83948086487362E-05,8.03631155577023E-06,3.69140625,0,0
-2.58456966548692E-05,1.11509489215678E-05,3.69140625,0,0
-1.97986992134247E-05,7.56404324420146E-06,3.69140625,0,0
-2.53308007813757E-05,7.574964001833E-06,3.69140625,0,0
-2.24762698053382E-05,5.37492769581149E-06,3.69140625,0,0
-2.68680669250898E-05,1.02939184216666E-05,3.69140625,0,0
-2.63802030531224E-05,1.37492770591052E-05,3.69140625,0,0
-2.6730913305073E-05,1.57372505782405E-05,3.69140625,0,0
-2.43962876993464E-05,1.47365672091837E-05,3.69140625,0,0
-2.40120662056142E-05,1.42005392262945E-05,3.69140625,0,0
-2.52130466833478E-05,1.4140931853035E-05,3.69140625,0,0
-2.52394474955508E-05,1.3329295143194E-05,3.69140625,0,0
-2.65758553723572E-05,1.2713859177893E-05,3.69140625,0,0
-2.68367366516031E-05,1.07849973574048E-05,3.69140625,0,0
-2.91533051495207E-05,1.08829890450579E-05,3.69140625,0,0
-2.8969598133699E-05,1.1525447916938E-05,3.69140625,0,0
-2.94219844363397E-05,1.26709937831038E-05,3.69140625,0,0
-2.64096051978413E-05,1.1779759915953E-05,3.69140625,0,0
-2.62901630776469E-05,1.24084563140059E-05,3.69140625,0,0
-2.73555069725262E-05,1.33723269755137E-05,3.69140625,0,0
-3.03766391880345E-05,1.4449034097197E-05,3.69140625,0,0
-3.00429110211553E-05,1.35593591039651E-05,3.69140625,0,0
-2.81624161289074E-05,1.32753484649584E-05,3.69140625,0,0
-2.50680877798004E-05,1.40844858833589E-05,3.69140625,0,0
-2.51121073233662E-05,1.38834247991326E-05,3.69140625,0,0
-2.68652165686945E-05,1.19381747936131E-05,3.69140625,0,0
-2.7707195840776E-05,1.11332856249646E-05,3.69140625,0,0
-2.08274068427272E-05,9.11791448743315E-06,3.69140625,0,0
-2.89555555355037E-05,1.42861281346995E-05,3.69140625,0,0
-2.19841676880606E-05,1.50738114825799E-05,3.69140625,0,0
-2.71842054644367E-05,2.00458180188434E-05,3.69140625,0,0
-2.18387704080669E-05,1.60512845468475E-05,3.69140625,0,0
-2.55015274888137E-05,1.48047238326399E-05,3.69140625,0,0
-2.40121607930632E-05,1.43645256684977E-05,3.69140625,0,0
-2.46023537329165E-05,1.55849156726617E-05,3.69140625,0,0
-2.14648425753694E-05,1.33865705720382E-05,3.69140625,0,0
-2.03713207156397E-05,1.09514767245855E-05,3.69140625,0,0
-2.10120524570812E-05,1.11156487037078E-05,3.69140625,0,0
-2.0509558453341E-05,1.2934774531459E-05,3.69140625,0,0
-2.03825748030795E-05,1.38620571306092E-05,3.69140625,0,0
-1.79768576344941E-05,1.12758925752132E-05,3.69140625,0,0
-1.85695698746713E-05,9.45859756029677E-06,3.69140625,0,0
-1.75290551851504E-05,8.78729679243406E-06,3.69140625,0,0
-1.95394350157585E-05,1.04941254903679E-05,3.69140625,0,0
-1.92571933439467E-05,1.08254344013403E-05,3.69140625,0,0
-1.96665187104372E-05,1.11699382614461E-05,3.69140625,0,0
-1.67872767633526E-05,1.08162885226193E-05,3.69140625,0,0
-1.63685654115397E-05,1.22472210932756E-05,3.69140625,0,0
-1.67374637385365E-05,1.20131981020677E-05,3.69140625,0,0
-1.8900298528024E-05,1.09033235276002E-05,3.69140625,0,0
-1.87972491403343E-05,1.00787410701741E-05,3.69140625,0,0
-1.93945361388614E-05,1.13452997538843E-05,3.69140625,0,0
-2.08194414881291E-05,1.45234198498656E-05,3.69140625,0,0
-2.31444755627308E-05,1.82289386430057E-05,3.69140625,0,0
-1.97648605535505E-05,1.4540234587912E-05,3.69140625,0,0
-2.82990658888593E-05,1.81042523763608E-05,3.69140625,0,0
-2.31829089898383E-05,9.4049582912703E-06,3.69140625,0,0
-3.00646843243157E-05,1.19304859254044E-05,3.69140625,0,0
-2.56697021541186E-05,8.98618236533366E-06,3.69140625,0,0
-2.73145178653067E-05,1.25191545521375E-05,3.69140625,0,0
-2.46441304625478E-05,1.13289333967259E-05,3.69140625,0,0
-2.51543115155073E-05,1.18357029350591E-05,3.69140625,0,0
-2.38735137827462E-05,1.10972123366082E-05,3.69140625,0,0
-2.2640797396889E-05,1.1212725439691E-05,3.69140625,0,0
-2.19460653170245E-05,1.10760402094456E-05,3.69140625,0,0
-2.14456104004057E-05,9.30661008169409E-06,3.69140625,0,0
-2.27696618821938E-05,8.82478343555704E-06,3.69140625,0,0
-2.21897535084281E-05,9.77297077042749E-06,3.69140625,0,0
-2.32648326345952E-05,1.44014984471141E-05,3.69140625,0,0
-2.20503334276145E-05,1.61781190399779E-05,3.69140625,0,0
-2.39713426708477E-05,1.72540603671223E-05,3.69140625,0,0
-2.39337714447174E-05,1.52212114699068E-05,3.69140625,0,0
-2.48617507168092E-05,1.51196518345387E-05,3.69140625,0,0
-2.43216945818858E-05,1.4856680536468E-05,3.69140625,0,0
-2.61020522884792E-05,1.5596649973304E-05,3.69140625,0,0
-2.69012543867575E-05,1.38462210088619E-05,3.69140625,0,0
-2.85989590338431E-05,1.24105299619259E-05,3.69140625,0,0
-2.8914872018504E-05,1.0440036021464E-05,3.69140625,0,0
-2.95175323117292E-05,9.40018162509659E-06,3.69140625,0,0
-3.02083863061853E-05,9.47370972426143E-06,3.69140625,0,0
-3.01761683658697E-05,1.02064304883243E-05,3.69140625,0,0
-2.41049401665805E-05,9.96987546386663E-06,3.69140625,0,0
-3.42449238814879E-05,1.48821518450859E-05,3.69140625,0,0
-2.48475298576523E-05,1.09342972791637E-05,3.69140625,0,0
-2.98718932754127E-05,1.17847439469188E-05,3.69140625,0,0
-2.476992267475E-05,8.3005415945081E-06,3.69140625,0,0
-2.84205034404295E-05,8.04191222414374E-06,3.69140625,0,0
-2.66453371295938E-05,6.59138095215894E-06,3.69140625,0,0
-2.7998466975987E-05,6.91438344802009E-06,3.69140625,0,0
-2.62985631707124E-05,8.26523591967998E-06,3.69140625,0,0
-2.52455429290421E-05,9.12701216293499E-06,3.69140625,0,0
-2.54874703387031E-05,8.64931098476518E-06,3.69140625,0,0
-2.53880552918417E-05,7.9417559391004E-06,3.69140625,0,0
-2.72132747340947E-05,9.37351887841942E-06,3.69140625,0,0
-2.5841854949249E-05,1.03344118542736E-05,3.69140625,0,0
-2.54168462561211E-05,1.15982820716454E-05,3.69140625,0,0
-2.17642773350235E-05,1.12966536107706E-05,3.69140625,0,0
-2.08770925382851E-05,1.22433921205811E-05,3.69140625,0,0
-1.88465746759903E-05,1.36290618684143E-05,3.69140625,0,0
-2.02124356292188E-05,1.56927526404615E-05,3.69140625,0,0
-1.96065229829401E-05,1.5283332686522E-05,3.69140625,0,0
-2.05875949177425E-05,1.3674097317562E-05,3.69140625,0,0
-1.95444117707666E-05,1.19530177471461E-05,3.69140625,0,0
-1.93148589460179E-05,1.2600929949258E-05,3.69140625,0,0
-1.91285926121054E-05,1.36497219500598E-05,3.69140625,0,0
-2.00508493435336E-05,1.39699131977977E-05,3.69140625,0,0
-1.98975922103273E-05,1.36102207761724E-05,3.69140625,0,0
-1.90900736924959E-05,1.35621821755194E-05,3.69140625,0,0
-1.5695130059612E-05,1.00711613413296E-05,3.69140625,0,0
-2.30044715863187E-05,1.32732438942185E-05,3.69140625,0,0
-1.89041711564641E-05,9.00135819392744E-06,3.69140625,0,0
-2.31052617891692E-05,1.08559634099947E-05,3.69140625,0,0
-2.02208266273374E-05,6.28228963250876E-06,3.69140625,0,0
-2.28452281589853E-05,6.84076576362713E-06,3.69140625,0,0
-2.15976706385845E-05,6.28647421763162E-06,3.69140625,0,0
-2.18684235733235E-05,7.92118771641981E-06,3.69140625,0,0
-2.06760105356807E-05,9.38103585212957E-06,3.69140625,0,0
-2.08129167731386E-05,9.69023767538602E-06,3.69140625,0,0
-2.07101802516263E-05,8.43450834508985E-06,3.69140625,0,0
-2.00267568288837E-05,6.87937426846474E-06,3.69140625,0,0
-2.12781487789471E-05,7.22608683645376E-06,3.69140625,0,0
-2.15259606193285E-05,7.93183153291466E-06,3.69140625,0,0
-2.24886662181234E-05,9.25823405850679E-06,3.69140625,0,0
-2.02635728783207E-05,8.14662962511647E-06,3.69140625,0,0
-1.92524803424021E-05,7.52914911572589E-06,3.69140625,0,0
-1.8872613509302E-05,6.61090280118515E-06,3.69140625,0,0
-2.25660332944244E-05,8.0756435636431E-06,3.69140625,0,0
-2.4126749849529E-05,8.65058609633707E-06,3.69140625,0,0
-2.52674162766198E-05,9.31771319301333E-06,3.69140625,0,0
-2.47994066739921E-05,9.69247957982589E-06,3.69140625,0,0
-2.5373312382726E-05,1.00614643088193E-05,3.69140625,0,0
-2.63158617599402E-05,7.94802781456383E-06,3.69140625,0,0
-2.8353280868032E-05,7.12433711669291E-06,3.69140625,0,0
-2.90193875116529E-05,8.17410273157293E-06,3.69140625,0,0
-2.88693026959663E-05,9.43688246479724E-06,3.69140625,0,0
-2.29991510423133E-05,8.58758994581876E-06,3.69140625,0,0
-3.06082802126184E-05,1.19169772005989E-05,3.69140625,0,0
-1.99668193090474E-05,8.41613564261934E-06,3.69140625,0,0
-2.59261814790079E-05,1.03775601019152E-05,3.69140625,0,0
-2.20836664084345E-05,9.38984703680035E-06,3.69140625,0,0
-2.61436834989581E-05,1.11152012323146E-05,3.69140625,0,0
-2.42391324718483E-05,9.66021343629109E-06,3.69140625,0,0
-2.70063519565156E-05,9.89266663964372E-06,3.69140625,0,0
-2.88330975308781E-05,1.1331775567669E-05,3.69140625,0,0
-2.97486440103967E-05,1.37673323479248E-05,3.69140625,0,0
-2.80273779935669E-05,1.4698051927553E-05,3.69140625,0,0
-2.50891025643796E-05,1.4121035746939E-05,3.69140625,0,0
-2.57431929640006E-05,1.37454517243896E-05,3.69140625,0,0
-2.58065902016824E-05,1.22304663818795E-05,3.69140625,0,0
-2.76892897090875E-05,1.0918102816504E-05,3.69140625,0,0
-2.58017716987524E-05,8.72707914822968E-06,3.69140625,0,0
-2.61151726590469E-05,9.12635641725501E-06,3.69140625,0,0
-2.43782214965904E-05,1.06207344288123E-05,3.69140625,0,0
-2.56090952461818E-05,1.34965721372282E-05,3.69140625,0,0
-2.53862035606289E-05,1.3621627658722E-05,3.69140625,0,0
-2.72678644250846E-05,1.31894421429024E-05,3.69140625,0,0
-2.72966954071308E-05,1.24993011922925E-05,3.69140625,0,0
-2.77762264886405E-05,1.20928680189536E-05,3.69140625,0,0
-2.59465614362853E-05,1.17634590424132E-05,3.69140625,0,0
-2.48017659032485E-05,1.17452191261691E-05,3.69140625,0,0
-2.51793408097001E-05,1.04180280686705E-05,3.69140625,0,0
-2.67662617261522E-05,8.73846147442237E-06,3.69140625,0,0
-2.07091343327193E-05,7.2328298301727E-06,3.69140625,0,0
-2.82172968582017E-05,1.11587651190348E-05,3.69140625,0,0
-2.05860851565376E-05,9.1715437520179E-06,3.69140625,0,0
-2.52635927608935E-05,1.05171147879446E-05,3.69140625,0,0
-1.8644104784471E-05,8.14204122434603E-06,3.69140625,0,0
-2.07612192753004E-05,8.01271926320624E-06,3.69140625,0,0
-1.88791163964197E-05,9.06537115952233E-06,3.69140625,0,0
-2.06955173780443E-05,1.18452344395337E-05,3.69140625,0,0
-2.01321727217874E-05,1.2389727999107E-05,3.69140625,0,0
-2.09653626370709E-05,1.23824020192842E-05,3.69140625,0,0
-2.26575393753592E-05,1.31147626234451E-05,3.69140625,0,0
-2.29863635468064E-05,1.48713625094388E-05,3.69140625,0,0
-2.427990148135E-05,1.7150814528577E-05,3.69140625,0,0
-2.28772569244029E-05,1.63809054356534E-05,3.69140625,0,0
-2.40334411500953E-05,1.41372720463551E-05,3.69140625,0,0
-2.327445508854E-05,1.19513042591279E-05,3.69140625,0,0
-2.44791626755614E-05,1.27746534417383E-05,3.69140625,0,0
-2.34916224144399E-05,1.3503577974916E-05,3.69140625,0,0
-2.5839091904345E-05,1.38356172101339E-05,3.69140625,0,0
-2.62602916336618E-05,1.34237998281606E-05,3.69140625,0,0
-2.62207377090817E-05,1.26944514704519E-05,3.69140625,0,0
-2.40830686379923E-05,1.0055307939183E-05,3.69140625,0,0
-2.39620130741969E-05,8.74416673468659E-06,3.69140625,0,0
-2.33962819038425E-05,9.21179798751837E-06,3.69140625,0,0
-2.34683229791699E-05,1.00368843050092E-05,3.69140625,0,0
-2.41315374296391E-05,8.49690241011558E-06,3.69140625,0,0
-2.56414277828299E-05,5.1659126256709E-06,3.69140625,0,0
-2.1399202523753E-05,3.14527869704762E-06,3.69140625,0,0
-2.98309096251614E-05,5.62112518309732E-06,3.69140625,0,0
-2.15316485991934E-05,6.00826479058014E-06,3.69140625,0,0
-2.57849351328332E-05,8.21596768219024E-06,3.69140625,0,0
-1.93202304217266E-05,8.93053311301628E-06,3.69140625,0,0
-2.0595742171281E-05,8.33072954264935E-06,3.69140625,0,0
-1.79191501956666E-05,7.63486514188116E-06,3.69140625,0,0
-1.88656777027063E-05,9.1452793640201E-06,3.69140625,0,0
-1.71744959516218E-05,1.06267116279923E-05,3.69140625,0,0
-1.62697760970332E-05,1.1641097444226E-05,3.69140625,0,0
-1.703013003862E-05,1.22004157674382E-05,3.69140625,0,0
-1.73480184457731E-05,1.26336490211543E-05,3.69140625,0,0
-1.89879847312113E-05,1.28245865198551E-05,3.69140625,0,0
-1.81052528205328E-05,1.23155205073999E-05,3.69140625,0,0
-1.92849893210223E-05,1.18928519441397E-05,3.69140625,0,0
-1.6887652236619E-05,1.12984889710788E-05,3.69140625,0,0
-1.64552438945975E-05,1.11954095700639E-05,3.69140625,0,0
-1.53636883624131E-05,1.1071714652644E-05,3.69140625,0,0
-1.69977756740991E-05,1.16700757644139E-05,3.69140625,0,0
-1.61325970111648E-05,1.20122886073659E-05,3.69140625,0,0
-1.73254320543492E-05,1.25782562463428E-05,3.69140625,0,0
-1.85417648026487E-05,1.35259433591273E-05,3.69140625,0,0
-2.07232915272471E-05,1.51329240907216E-05,3.69140625,0,0
-2.10447069548536E-05,1.61168609338347E-05,3.69140625,0,0
-2.05256619665306E-05,1.51174008351518E-05,3.69140625,0,0
-1.86758370546158E-05,1.33122202896629E-05,3.69140625,0,0
-1.70553666976048E-05,1.20223294288735E-05,3.69140625,0,0
-1.43327488331124E-05,1.03353058875655E-05,3.69140625,0,0
-2.17282831727061E-05,1.61645148182288E-05,3.69140625,0,0
-1.83817137440201E-05,1.41848886414664E-05,3.69140625,0,0
-2.28712124226149E-05,1.72933341673343E-05,3.69140625,0,0
-2.11033075174782E-05,1.52432812683401E-05,3.69140625,0,0
-2.3429585780832E-05,1.53686560224742E-05,3.69140625,0,0
-2.38627289945725E-05,1.22885139717255E-05,3.69140625,0,0
-2.73077075689798E-05,1.16367873488343E-05,3.69140625,0,0
-2.88799401459983E-05,1.15823004307458E-05,3.69140625,0,0
-3.03201049973723E-05,1.22610354083008E-05,3.69140625,0,0
-3.23860622302163E-05,1.28927413243218E-05,3.69140625,0,0
-3.37286510330159E-05,1.19328242362826E-05,3.69140625,0,0
-3.55157681042328E-05,1.10691671579843E-05,3.69140625,0,0
-3.53329232893884E-05,1.02422254713019E-05,3.69140625,0,0
-3.52912466041744E-05,1.056069322658E-05,3.69140625,0,0
-3.2732954423409E-05,9.3018425104674E-06,3.69140625,0,0
-3.1177609344013E-05,9.38954872253817E-06,3.69140625,0,0
-2.86509366560495E-05,9.88872761809034E-06,3.69140625,0,0
-2.86292415694334E-05,1.20775730465539E-05,3.69140625,0,0
-2.86517624772387E-05,1.26625482153031E-05,3.69140625,0,0
-3.00796709780116E-05,1.29235295389662E-05,3.69140625,0,0
-3.08555172523484E-05,1.23186691780575E-05,3.69140625,0,0
-3.28303940477781E-05,1.17528234113706E-05,3.69140625,0,0
-3.36106422764715E-05,9.53362177824602E-06,3.69140625,0,0
-3.32906529365573E-05,8.20382319943747E-06,3.69140625,0,0
-3.27071466017514E-05,8.82129734236514E-06,3.69140625,0,0
-3.2125481084222E-05,1.02772009995533E-05,3.69140625,0,0
-2.47525676968507E-05,8.44533133204095E-06,3.69140625,0,0
-3.39313155564014E-05,1.10730670712655E-05,3.69140625,0,0
-2.40222489082953E-05,8.19230535853421E-06,3.69140625,0,0
-3.01331019727513E-05,1.24741009130958E-05,3.69140625,0,0
-2.4765000489424E-05,1.16416331366054E-05,3.69140625,0,0
-2.97465085168369E-05,1.1675320820359E-05,3.69140625,0,0
-2.86375579889864E-05,9.89783256954979E-06,3.69140625,0,0
-3.00282790703932E-05,1.19139740490937E-05,3.69140625,0,0
-2.83683111774735E-05,1.3580972336058E-05,3.69140625,0,0
-2.83098815998528E-05,1.27809325931594E-05,3.69140625,0,0
-2.83970330201555E-05,9.95592927210964E-06,3.69140625,0,0
-2.72273646260146E-05,7.65331151342252E-06,3.69140625,0,0
-2.79620380752021E-05,7.26444932297454E-06,3.69140625,0,0
-2.62475605268264E-05,7.07832896296168E-06,3.69140625,0,0
-2.6895464543486E-05,8.1201196735492E-06,3.69140625,0,0
-2.47516072704457E-05,7.16746626494569E-06,3.69140625,0,0
-2.53669022640679E-05,6.49219145998359E-06,3.69140625,0,0
-2.29502948059235E-05,5.88714374316623E-06,3.69140625,0,0
-2.31306530622533E-05,7.91749971540412E-06,3.69140625,0,0
-2.1893072698731E-05,8.57994746183977E-06,3.69140625,0,0
-2.27392811211757E-05,7.91333968663821E-06,3.69140625,0,0
-2.1566534996964E-05,6.69977180223214E-06,3.69140625,0,0
-2.16877579077845E-05,7.41797293812851E-06,3.69140625,0,0
-1.97908375412226E-05,8.17749605630524E-06,3.69140625,0,0
-1.97384797502309E-05,7.93147410149686E-06,3.69140625,0,0
-2.08859746635426E-05,6.40598318568664E-06,3.69140625,0,0
-2.16012595046777E-05,5.2913160288881E-06,3.69140625,0,0
-1.70466009876691E-05,4.78819220006699E-06,3.69140625,0,0
-2.36356954701478E-05,6.74844932291307E-06,3.69140625,0,0
-1.76993125933222E-05,4.42820783064235E-06,3.69140625,0,0
-2.15945001400542E-05,5.5113373491622E-06,3.69140625,0,0
-1.67607358889654E-05,5.6500757636968E-06,3.69140625,0,0
-1.90841001312947E-05,6.92114417688572E-06,3.69140625,0,0
-1.75980749190785E-05,6.98121993991663E-06,3.69140625,0,0
-1.92544321180321E-05,7.39230836188653E-06,3.69140625,0,0
-2.00267622858519E-05,7.66809625929454E-06,3.69140625,0,0
-2.18539189518197E-05,7.8769135143375E-06,3.69140625,0,0
-2.40755598497344E-05,7.59479780754191E-06,3.69140625,0,0
-2.41478574025678E-05,6.79898312228033E-06,3.69140625,0,0
-2.37930835282896E-05,6.72300939186243E-06,3.69140625,0,0
-2.05313772312365E-05,6.67335098114563E-06,3.69140625,0,0
-1.93536761798896E-05,6.99572819939931E-06,3.69140625,0,0
-1.73016869666753E-05,6.82917061567423E-06,3.69140625,0,0
-1.92075021914206E-05,7.4304839472461E-06,3.69140625,0,0
-2.03240833798191E-05,8.15675775811542E-06,3.69140625,0,0
-2.2026175429346E-05,9.58751661528368E-06,3.69140625,0,0
-2.13715993595542E-05,9.67747291724663E-06,3.69140625,0,0
-2.2213489501155E-05,7.81818653194932E-06,3.69140625,0,0
-2.24100149353035E-05,6.21209801465739E-06,3.69140625,0,0
-2.36600881180493E-05,7.92063838161994E-06,3.69140625,0,0
-2.38755274040159E-05,1.13519254227867E-05,3.69140625,0,0
-2.38824759435374E-05,1.3293232768774E-05,3.69140625,0,0
-2.35319148487179E-05,1.25147953440319E-05,3.69140625,0,0
-2.35813276958652E-05,1.2922944733873E-05,3.69140625,0,0
-1.93371161003597E-05,9.65136223385343E-06,3.69140625,0,0
-2.81334669125499E-05,1.270490247407E-05,3.69140625,0,0
-2.12673003261443E-05,8.79931212693919E-06,3.69140625,0,0
-2.4051239961409E-05,1.10596511149197E-05,3.69140625,0,0
-1.92870738828788E-05,9.22570143302437E-06,3.69140625,0,0
-2.2459000319941E-05,1.26497434393968E-05,3.69140625,0,0
-2.0832409063587E-05,1.28485744426143E-05,3.69140625,0,0
-2.15056497836486E-05,1.52113689182443E-05,3.69140625,0,0
-2.08637502510101E-05,1.65281089721248E-05,3.69140625,0,0
-2.32030670304084E-05,1.67529142345302E-05,3.69140625,0,0
-2.53309863182949E-05,1.56529913510894E-05,3.69140625,0,0
-2.54504757322138E-05,1.50783325807424E-05,3.69140625,0,0
-2.57220526691526E-05,1.64670746016782E-05,3.69140625,0,0
-2.46351701207459E-05,1.64560988196172E-05,3.69140625,0,0
-2.62942940025823E-05,1.60352374223294E-05,3.69140625,0,0
-2.5335228201584E-05,1.40308811751311E-05,3.69140625,0,0
-2.52407080552075E-05,1.44520690810168E-05,3.69140625,0,0
-2.22447652049595E-05,1.46991151268594E-05,3.69140625,0,0
-2.15912677958841E-05,1.55601283040596E-05,3.69140625,0,0
-2.07759057957446E-05,1.46584152389551E-05,3.69140625,0,0
-2.33247428695904E-05,1.37898141474579E-05,3.69140625,0,0
-2.50244956987444E-05,1.21823568406398E-05,3.69140625,0,0
-2.62364301306661E-05,1.29037262013298E-05,3.69140625,0,0
-2.46974359470187E-05,1.42241406138055E-05,3.69140625,0,0
-2.50223110924708E-05,1.58671718963888E-05,3.69140625,0,0
-2.5780818759813E-05,1.56302630784921E-05,3.69140625,0,0
-2.54164096986642E-05,1.42287244671024E-05,3.69140625,0,0
-2.05684500542702E-05,1.04887549241539E-05,3.69140625,0,0
-3.05255998682696E-05,1.60803683684208E-05,3.69140625,0,0
-2.44426282733912E-05,1.3583000509243E-05,3.69140625,0,0
-2.93438206426799E-05,1.648060970183E-05,3.69140625,0,0
-2.54443839367013E-05,1.61478637892287E-05,3.69140625,0,0
-2.76300579571398E-05,1.95250595425023E-05,3.69140625,0,0
-2.34170402109157E-05,1.93337091332069E-05,3.69140625,0,0
-2.29491961363237E-05,1.96360506379278E-05,3.69140625,0,0
-2.1727511921199E-05,1.66733207151992E-05,3.69140625,0,0
-2.04526459128829E-05,1.32185095935711E-05,3.69140625,0,0
-1.96630226128036E-05,1.11374392872676E-05,3.69140625,0,0
-1.9687202438945E-05,1.03006950666895E-05,3.69140625,0,0
-2.18034201679984E-05,1.164517198049E-05,3.69140625,0,0
-2.14753781619947E-05,1.2936579878442E-05,3.69140625,0,0
-2.28569879254792E-05,1.46555157698458E-05,3.69140625,0,0
-2.23254392039962E-05,1.40292431751732E-05,3.69140625,0,0
-2.2974141757004E-05,1.40021011247882E-05,3.69140625,0,0
-2.09000809263671E-05,1.38368641273701E-05,3.69140625,0,0
-2.19288176595001E-05,1.52735265146475E-05,3.69140625,0,0
-2.16306816582801E-05,1.42370490721078E-05,3.69140625,0,0
-2.19325138459681E-05,1.29167037812294E-05,3.69140625,0,0
-2.06725235329941E-05,1.16989631351316E-05,3.69140625,0,0
-2.00536742340773E-05,1.19598062156001E-05,3.69140625,0,0
-1.82370331458515E-05,1.19727019409765E-05,3.69140625,0,0
-1.80583429028047E-05,1.25661645142827E-05,3.69140625,0,0
-1.72194722836139E-05,1.32120694615878E-05,3.69140625,0,0
-1.59570354298921E-05,1.28352994579473E-05,3.69140625,0,0
-1.29591826407705E-05,9.1206038632663E-06,3.69140625,0,0
-1.79635662789224E-05,1.24415728350868E-05,3.69140625,0,0
-1.28320161820739E-05,8.60940599523019E-06,3.69140625,0,0
-1.65085457410896E-05,1.02206513474812E-05,3.69140625,0,0
-1.52291440826957E-05,6.14108694207971E-06,3.69140625,0,0
-1.86538964044303E-05,6.5844074015331E-06,3.69140625,0,0
-1.81973646249389E-05,6.6279353632126E-06,3.69140625,0,0
-1.84151595021831E-05,8.09490302344784E-06,3.69140625,0,0
-1.69286104210187E-05,7.93401977716712E-06,3.69140625,0,0
-1.57675040100003E-05,6.77464367981884E-06,3.69140625,0,0
-1.66790923685767E-05,6.43686735202209E-06,3.69140625,0,0
-1.80281440407271E-05,6.66698088025441E-06,3.69140625,0,0
-1.9992559828097E-05,8.24288417788921E-06,3.69140625,0,0
-1.98786310647847E-05,8.38898540678201E-06,3.69140625,0,0
-2.13083185371943E-05,9.29700945562217E-06,3.69140625,0,0
-2.28868830163265E-05,9.31508384383051E-06,3.69140625,0,0
-2.65712606051238E-05,9.80172535491874E-06,3.69140625,0,0
-2.81979373539798E-05,8.84961627889425E-06,3.69140625,0,0
-3.02694770653034E-05,7.81413837103173E-06,3.69140625,0,0
-3.09421702695545E-05,6.48453351459466E-06,3.69140625,0,0
-3.21741281368304E-05,7.00361124472693E-06,3.69140625,0,0
-3.28926180372946E-05,6.45196132609271E-06,3.69140625,0,0
-3.35398653987795E-05,4.52040558229783E-06,3.69140625,0,0
-3.21966763294768E-05,3.77521678274206E-06,3.69140625,0,0
-3.04747536574723E-05,5.03214550917619E-06,3.69140625,0,0
-2.908993519668E-05,3.49757033291098E-06,3.69140625,0,0
-2.89656800305238E-05,8.35508728869172E-07,3.69140625,0,0
-2.32599977607606E-05,1.53267069435969E-06,3.69140625,0,0
-3.33764364768285E-05,5.77662785872235E-06,3.69140625,0,0
-2.6718476874521E-05,8.89736020326382E-06,3.69140625,0,0
-3.40197620971594E-05,7.91965430835262E-06,3.69140625,0,0
-2.95673817163333E-05,6.26117525825975E-06,3.69140625,0,0
-3.18805905408226E-05,7.36755418984103E-06,3.69140625,0,0
-2.69557349383831E-05,1.01813939181739E-05,3.69140625,0,0
-2.73971618298674E-05,1.17216395665309E-05,3.69140625,0,0
-2.74467565759551E-05,1.27142429846572E-05,3.69140625,0,0
-2.91053565888433E-05,1.21755920190481E-05,3.69140625,0,0
-3.01547734125052E-05,1.12816878754529E-05,3.69140625,0,0
-2.95359423034824E-05,1.05377621366642E-05,3.69140625,0,0
-3.05711619148497E-05,9.40598602028331E-06,3.69140625,0,0
-2.93841094389791E-05,9.00358190847328E-06,3.69140625,0,0
-2.87903167190962E-05,9.22562230698531E-06,3.69140625,0,0
-2.40209847106598E-05,1.01337918749778E-05,3.69140625,0,0
-2.37245276366593E-05,1.18388979899464E-05,3.69140625,0,0
-2.33478294831002E-05,1.42426406455343E-05,3.69140625,0,0
-2.43554986809613E-05,1.58043039846234E-05,3.69140625,0,0
-2.08645706152311E-05,1.5262156011886E-05,3.69140625,0,0
-1.96007931663189E-05,1.29079835460288E-05,3.69140625,0,0
-1.90598457265878E-05,1.09648844954791E-05,3.69140625,0,0
-2.20128586079227E-05,1.03159891295945E-05,3.69140625,0,0
-2.38935481320368E-05,9.32042621570872E-06,3.69140625,0,0
-2.53927428275347E-05,8.34702314023161E-06,3.69140625,0,0
-2.5713814466144E-05,9.93535286397673E-06,3.69140625,0,0
-2.44196053245105E-05,1.37550514409668E-05,3.69140625,0,0
-1.7584770830581E-05,1.20717259051162E-05,3.69140625,0,0
-2.34954968618695E-05,1.50326477523777E-05,3.69140625,0,0
-1.60613908519736E-05,8.57206850923831E-06,3.69140625,0,0
-2.09374065889278E-05,1.24341386253946E-05,3.69140625,0,0
-1.96826986211818E-05,1.15106286102673E-05,3.69140625,0,0
-2.54171609412879E-05,1.5579102182528E-05,3.69140625,0,0
-2.48648066190071E-05,1.54177396325395E-05,3.69140625,0,0
-2.61708628386259E-05,1.74368651641998E-05,3.69140625,0,0
-2.51329420279944E-05,1.81381437869277E-05,3.69140625,0,0
-2.4101940653054E-05,1.92411498574074E-05,3.69140625,0,0
-2.3948932721396E-05,1.9911694835173E-05,3.69140625,0,0
-2.39342425629729E-05,1.93640262295958E-05,3.69140625,0,0
-2.42357727984199E-05,1.92816896742443E-05,3.69140625,0,0
-2.24523100769147E-05,1.67783218785189E-05,3.69140625,0,0
-2.35270199482329E-05,1.53191922436235E-05,3.69140625,0,0
-2.29339766519843E-05,1.33817338792142E-05,3.69140625,0,0
-2.43781996687176E-05,1.47446744449553E-05,3.69140625,0,0
-2.41502038988983E-05,1.47702348840539E-05,3.69140625,0,0
-2.56352504948154E-05,1.41423179229605E-05,3.69140625,0,0
-2.46976833295776E-05,1.17290792331914E-05,3.69140625,0,0
-2.51339224632829E-05,1.20676431833999E-05,3.69140625,0,0
-2.42187343246769E-05,1.21490729725338E-05,3.69140625,0,0
-2.47756070166361E-05,1.12432126115891E-05,3.69140625,0,0
-2.57019128184766E-05,9.17225133889588E-06,3.69140625,0,0
-2.74276499112602E-05,8.77960246725706E-06,3.69140625,0,0
-2.76939208561089E-05,1.01657642517239E-05,3.69140625,0,0
-2.61714139924152E-05,1.13160622277064E-05,3.69140625,0,0
-1.97408971871482E-05,9.69050142884953E-06,3.69140625,0,0
-2.63500478467904E-05,1.39774147100979E-05,3.69140625,0,0
-1.7766369637684E-05,1.08790336525999E-05,3.69140625,0,0
-2.27303717110772E-05,1.27012581288E-05,3.69140625,0,0
-1.9470657207421E-05,9.49123113969108E-06,3.69140625,0,0
-2.30392779485555E-05,1.01510058811982E-05,3.69140625,0,0
-2.04127936740406E-05,9.88657484413125E-06,3.69140625,0,0
-2.10369453270687E-05,1.13182049972238E-05,3.69140625,0,0
-1.91239450941794E-05,1.10827904791222E-05,3.69140625,0,0
-1.86290926649235E-05,1.10080145532265E-05,3.69140625,0,0
-1.9235481886426E-05,1.08981294033583E-05,3.69140625,0,0
-1.83523479790892E-05,9.34950458031381E-06,3.69140625,0,0
-1.77628862729762E-05,9.67634969128994E-06,3.69140625,0,0
-1.65224028023658E-05,1.06566540125641E-05,3.69140625,0,0
-1.96626206161454E-05,1.29219943119097E-05,3.69140625,0,0
-2.0027646314702E-05,1.30739945234382E-05,3.69140625,0,0
-2.12393642868847E-05,1.22086548799416E-05,3.69140625,0,0
-2.01428010768723E-05,9.33857063500909E-06,3.69140625,0,0
-2.13940329558682E-05,8.59027113619959E-06,3.69140625,0,0
-2.08971268875757E-05,8.10064830147894E-06,3.69140625,0,0
-2.27951004490023E-05,8.32157911645481E-06,3.69140625,0,0
-2.42180030909367E-05,8.95307493919972E-06,3.69140625,0,0
-2.64558475464582E-05,9.75931288849097E-06,3.69140625,0,0
-2.57979081652593E-05,8.21814865048509E-06,3.69140625,0,0
-2.49592758336803E-05,7.0666947067366E-06,3.69140625,0,0
-2.5557656044839E-05,6.85995064486633E-06,3.69140625,0,0
-2.78169663943117E-05,6.2819476625009E-06,3.69140625,0,0
-2.30158348131226E-05,4.2362494241388E-06,3.69140625,0,0
-3.20396720780991E-05,7.69553753343644E-06,3.69140625,0,0
-2.44842012762092E-05,8.45574231789215E-06,3.69140625,0,0
-3.21177285513841E-05,9.46260206546867E-06,3.69140625,0,0
-2.79997984762304E-05,7.80230038799345E-06,3.69140625,0,0
-3.20035105687566E-05,7.74273030401673E-06,3.69140625,0,0
-2.99399562209146E-05,7.11638585926266E-06,3.69140625,0,0
-2.95309964712942E-05,7.9084602475632E-06,3.69140625,0,0
-2.67838750005467E-05,9.60140005190624E-06,3.69140625,0,0
-2.62661360466154E-05,1.04514492704766E-05,3.69140625,0,0
-2.595475052658E-05,9.00970735528972E-06,3.69140625,0,0
-2.39678120124154E-05,7.00555665389402E-06,3.69140625,0,0
-2.37824697251199E-05,5.97412827119115E-06,3.69140625,0,0
-2.13799685298E-05,6.30665499556926E-06,3.69140625,0,0
-2.23009774344973E-05,8.21114826976554E-06,3.69140625,0,0
-2.24563264055178E-05,9.13762232812587E-06,3.69140625,0,0
-2.5995863325079E-05,9.48563047131756E-06,3.69140625,0,0
-2.61864843196236E-05,8.85587633092655E-06,3.69140625,0,0
-2.7270778446109E-05,9.05551496543922E-06,3.69140625,0,0
-2.55972390732495E-05,9.9241005955264E-06,3.69140625,0,0
-2.64320515270811E-05,1.00956958704046E-05,3.69140625,0,0
-2.70018190349219E-05,9.06829791347263E-06,3.69140625,0,0
-2.9161126803956E-05,1.00009401649004E-05,3.69140625,0,0
-2.92603708658135E-05,1.22401152111706E-05,3.69140625,0,0
-2.90766092803096E-05,1.38104996949551E-05,3.69140625,0,0
-2.86576705548214E-05,1.33557896333514E-05,3.69140625,0,0
-2.74987760349177E-05,1.228165365319E-05,3.69140625,0,0
-2.19360917981248E-05,1.01983932836447E-05,3.69140625,0,0
-3.20601102430373E-05,1.4657024621556E-05,3.69140625,0,0
-2.40853951254394E-05,1.03557831607759E-05,3.69140625,0,0
-2.77452309092041E-05,1.13933674583677E-05,3.69140625,0,0
-2.29208817472681E-05,8.95406083145645E-06,3.69140625,0,0
-2.61823861364974E-05,1.0918639418378E-05,3.69140625,0,0
-2.37731437664479E-05,9.99532767309574E-06,3.69140625,0,0
-2.40273493545828E-05,1.17524932647939E-05,3.69140625,0,0
-2.29773759201635E-05,1.34351812448585E-05,3.69140625,0,0
-2.32886777666863E-05,1.44308314702357E-05,3.69140625,0,0
-2.37555595958838E-05,1.43809975270415E-05,3.69140625,0,0
-2.30255518545164E-05,1.34038164105732E-05,3.69140625,0,0
-2.32834172493313E-05,1.34959382194211E-05,3.69140625,0,0
-2.10475118365139E-05,1.27850580611266E-05,3.69140625,0,0
-2.19891880988143E-05,1.29057561935042E-05,3.69140625,0,0
-2.23117112909677E-05,1.24526059153141E-05,3.69140625,0,0
-2.48102660407312E-05,1.39370686156326E-05,3.69140625,0,0
-2.45566970988875E-05,1.47214377648197E-05,3.69140625,0,0
-2.62959492829395E-05,1.58452985488111E-05,3.69140625,0,0
-2.55976719927276E-05,1.4453852600127E-05,3.69140625,0,0
-2.50638149736915E-05,1.30524158521439E-05,3.69140625,0,0
-2.24130562855862E-05,1.1024856576114E-05,3.69140625,0,0
-2.08642068173504E-05,1.00811230367981E-05,3.69140625,0,0
-1.84581822395558E-05,1.01228542916942E-05,3.69140625,0,0
-1.7444839613745E-05,1.03894035419216E-05,3.69140625,0,0
-1.7193879102706E-05,9.44637213251553E-06,3.69140625,0,0
-1.71678948390763E-05,8.44821170176147E-06,3.69140625,0,0
-1.48767185237375E-05,7.22988579582307E-06,3.69140625,0,0
-2.25022431550315E-05,1.23466434160946E-05,3.69140625,0,0
-1.8466211258783E-05,1.31617216538871E-05,3.69140625,0,0
-2.0663152099587E-05,1.74532560777152E-05,3.69140625,0,0
-1.6950310964603E-05,1.76038593053818E-05,3.69140625,0,0
-1.94718759303214E-05,1.68710321304388E-05,3.69140625,0,0
-1.79517373908311E-05,1.40847951115575E-05,3.69140625,0,0
-1.78322061401559E-05,1.41107511808514E-05,3.69140625,0,0
-1.69937356986338E-05,1.38550085466704E-05,3.69140625,0,0
-1.74443193827756E-05,1.46545871757553E-05,3.69140625,0,0
-1.88474641618086E-05,1.47052824104321E-05,3.69140625,0,0
-1.99565911316313E-05,1.23670561151812E-05,3.69140625,0,0
-2.16180906136287E-05,1.16240416900837E-05,3.69140625,0,0
-2.0500421669567E-05,1.24432017400977E-05,3.69140625,0,0
-2.01550701603992E-05,1.3633899470733E-05,3.69140625,0,0
-1.97755234694341E-05,1.23683994388557E-05,3.69140625,0,0
-2.23224124056287E-05,1.09228476503631E-05,3.69140625,0,0
-2.33220307563897E-05,9.54024835664313E-06,3.69140625,0,0
-2.41506058955565E-05,1.04562104752404E-05,3.69140625,0,0
-2.26161973841954E-05,1.1085316145909E-05,3.69140625,0,0
-2.21000118472148E-05,1.04729306258378E-05,3.69140625,0,0
-2.05158939934336E-05,9.48756496654823E-06,3.69140625,0,0
-1.95588672795566E-05,1.07394171209307E-05,3.69140625,0,0
-1.8860515410779E-05,1.15085258585168E-05,3.69140625,0,0
-1.97925764950924E-05,9.82408073468832E-06,3.69140625,0,0
-2.08587516681291E-05,7.86697910371004E-06,3.69140625,0,0
-2.20857236854499E-05,8.47949741000775E-06,3.69140625,0,0
-1.75653458427405E-05,8.04490809969138E-06,3.69140625,0,0
-2.44359234784497E-05,1.07460145954974E-05,3.69140625,0,0
-1.78837508428842E-05,6.87667397869518E-06,3.69140625,0,0
-2.25170169869671E-05,8.74652050697478E-06,3.69140625,0,0
-1.95388238353189E-05,7.25657537259394E-06,3.69140625,0,0
-2.34798662859248E-05,7.88394572737161E-06,3.69140625,0,0
-2.42096957663307E-05,7.94322477304377E-06,3.69140625,0,0
-2.80107014987152E-05,1.0122193089046E-05,3.69140625,0,0
-2.87118982669199E-05,1.0333230420656E-05,3.69140625,0,0
-2.95426689262968E-05,9.74419072008459E-06,3.69140625,0,0
-3.00112187687773E-05,8.77236379892565E-06,3.69140625,0,0
-2.92854219878791E-05,8.64279627421638E-06,3.69140625,0,0
-3.02670068776933E-05,1.00595761978184E-05,3.69140625,0,0
-2.99532421195181E-05,1.03935644801822E-05,3.69140625,0,0
-3.08120725094341E-05,1.13374198917882E-05,3.69140625,0,0
-2.86339382000733E-05,1.08065341919428E-05,3.69140625,0,0
-2.78252609859919E-05,1.03985821624519E-05,3.69140625,0,0
-2.48689175350592E-05,9.66525294643361E-06,3.69140625,0,0
-2.40756089624483E-05,1.04248902061954E-05,3.69140625,0,0
-2.30952718993649E-05,9.08497804630315E-06,3.69140625,0,0
-2.55056820606114E-05,8.23577738628956E-06,3.69140625,0,0
-2.70022210315801E-05,9.37783261178993E-06,3.69140625,0,0
-2.75884594884701E-05,1.20174645417137E-05,3.69140625,0,0
-2.69406227744184E-05,1.36351891342201E-05,3.69140625,0,0
-2.7813199267257E-05,1.43311899591936E-05,3.69140625,0,0
-2.87011407635873E-05,1.25880305859027E-05,3.69140625,0,0
-2.86681333818706E-05,8.99366841622395E-06,3.69140625,0,0
-2.23294755414827E-05,7.23962784832111E-06,3.69140625,0,0
-3.13406781060621E-05,1.24666566989617E-05,3.69140625,0,0
-2.37434269365622E-05,1.18467560241697E-05,3.69140625,0,0
-2.94810179184424E-05,1.32611976368935E-05,3.69140625,0,0
-2.45348401222145E-05,1.12941579573089E-05,3.69140625,0,0
-2.8620517696254E-05,1.10756191133987E-05,3.69140625,0,0
-2.71002299996326E-05,1.05911703940365E-05,3.69140625,0,0
-2.84070138150128E-05,1.06317002064316E-05,3.69140625,0,0
-2.78655443253228E-05,9.47975331655471E-06,3.69140625,0,0
-2.88913397525903E-05,8.5612409748137E-06,3.69140625,0,0
-2.99934927170398E-05,8.88735849002842E-06,3.69140625,0,0
-2.99575858662138E-05,1.0300336725777E-05,3.69140625,0,0
-3.11701296595857E-05,1.09375650936272E-05,3.69140625,0,0
-3.01653271890245E-05,9.71179724729154E-06,3.69140625,0,0
-3.14098942908458E-05,9.92252171272412E-06,3.69140625,0,0
-2.93479533866048E-05,9.47782973526046E-06,3.69140625,0,0
-2.98950999422232E-05,8.76416197570506E-06,3.69140625,0,0
-2.88766095764004E-05,7.90929516369943E-06,3.69140625,0,0
-2.96813395834761E-05,8.88871545612346E-06,3.69140625,0,0
-2.69450174528174E-05,1.04843484223238E-05,3.69140625,0,0
-2.61651348409941E-05,1.3147263416613E-05,3.69140625,0,0
-2.52036770689301E-05,1.33726625790587E-05,3.69140625,0,0
-2.60870256170165E-05,1.08267449832056E-05,3.69140625,0,0
-2.4436407329631E-05,8.94476579560433E-06,3.69140625,0,0
-2.20447054744E-05,8.81624328030739E-06,3.69140625,0,0
-2.12737559195375E-05,9.93971934803994E-06,3.69140625,0,0
-2.2198515580385E-05,1.07599835246219E-05,3.69140625,0,0
-1.81264294951689E-05,6.67368340145913E-06,3.69140625,0,0
-2.59822227235418E-05,8.95591892913217E-06,3.69140625,0,0
-2.02683149836957E-05,5.70261045140796E-06,3.69140625,0,0
-2.31332542171003E-05,6.78202513881843E-06,3.69140625,0,0
-1.72960662894184E-05,6.31007833362673E-06,3.69140625,0,0
-2.04624448087998E-05,7.63913067203248E-06,3.69140625,0,0
-1.98157940758392E-05,6.21864455752075E-06,3.69140625,0,0
-2.11349724850152E-05,6.00024395680521E-06,3.69140625,0,0
-1.95946449821349E-05,4.59978991784737E-06,3.69140625,0,0
-1.92244824575027E-05,4.59440752820228E-06,3.69140625,0,0
-1.88569883903256E-05,4.04370621254202E-06,3.69140625,0,0
-1.64291141118156E-05,2.59236458077794E-06,3.69140625,0,0
-1.60521994985174E-05,1.53727341967169E-06,3.69140625,0,0
-1.61782518262044E-05,7.27353835827671E-07,3.69140625,0,0
-1.99972128029913E-05,1.93237769963162E-06,3.69140625,0,0
-2.18025725189364E-05,3.56855434802128E-06,3.69140625,0,0
-2.39752625930123E-05,5.80013602302643E-06,3.69140625,0,0
-2.23879469558597E-05,4.89582089358009E-06,3.69140625,0,0
-2.25362982746447E-05,3.69923918697168E-06,3.69140625,0,0
-2.17391479964135E-05,4.17436058341991E-06,3.69140625,0,0
-2.17820579564432E-05,7.30231658963021E-06,3.69140625,0,0
-2.01104030566057E-05,9.83366953732912E-06,3.69140625,0,0
-2.06591194000794E-05,1.16425007945509E-05,3.69140625,0,0
-2.15124709939118E-05,1.12887601062539E-05,3.69140625,0,0
-2.2671516489936E-05,1.19941505545285E-05,3.69140625,0,0
-2.23788956645876E-05,1.35245918500004E-05,3.69140625,0,0
-2.22366052184952E-05,1.5124417586776E-05,3.69140625,0,0
-1.96219007193577E-05,1.18343832582468E-05,3.69140625,0,0
-3.00845968013164E-05,1.52685315697454E-05,3.69140625,0,0
-2.52595946221845E-05,9.51800666371128E-06,3.69140625,0,0
-2.91258093056967E-05,1.30400630951044E-05,3.69140625,0,0
-2.27887176151853E-05,1.12046627691598E-05,3.69140625,0,0
-2.28266817430267E-05,1.2977012374904E-05,3.69140625,0,0
-2.02911051019328E-05,1.19686765174265E-05,3.69140625,0,0
-2.10909802262904E-05,1.38283876367495E-05,3.69140625,0,0
-2.00073154701386E-05,1.41276796057355E-05,3.69140625,0,0
-1.95498487300938E-05,1.50477499119006E-05,3.69140625,0,0
-1.92412935575703E-05,1.56221867655404E-05,3.69140625,0,0
-1.90310402103933E-05,1.4601581824536E-05,3.69140625,0,0
-2.14709689316805E-05,1.50447958731093E-05,3.69140625,0,0
-2.21966092794901E-05,1.58318434841931E-05,3.69140625,0,0
-2.2803424144513E-05,1.86027591553284E-05,3.69140625,0,0
-1.98691504920134E-05,1.82095773197943E-05,3.69140625,0,0
-2.0140298147453E-05,1.6820233213366E-05,3.69140625,0,0
-2.08606252272148E-05,1.39469257192104E-05,3.69140625,0,0
-2.30819332500687E-05,1.3847519767296E-05,3.69140625,0,0
-2.08247092814418E-05,1.40008587550255E-05,3.69140625,0,0
-1.96060791495256E-05,1.47565351653611E-05,3.69140625,0,0
-1.98895395442378E-05,1.41233495014603E-05,3.69140625,0,0
-2.15541531360941E-05,1.51622907651472E-05,3.69140625,0,0
-2.20980637095636E-05,1.52708726091078E-05,3.69140625,0,0
-2.31196117965737E-05,1.45069070640602E-05,3.69140625,0,0
-2.29858669626992E-05,1.49649940794916E-05,3.69140625,0,0
-2.37025687965797E-05,1.6531716028112E-05,3.69140625,0,0
-1.97515964828199E-05,1.33473531604977E-05,3.69140625,0,0
-2.75231086561689E-05,1.80390888999682E-05,3.69140625,0,0
-1.87348759936867E-05,1.2110219358874E-05,3.69140625,0,0
-2.08726469281828E-05,1.4821679542365E-05,3.69140625,0,0
-1.56347432493931E-05,1.3399544513959E-05,3.69140625,0,0
-2.06682580028428E-05,1.79058042704128E-05,3.69140625,0,0
-2.2366686607711E-05,1.75238710653502E-05,3.69140625,0,0
-2.52883892244427E-05,1.86297893378651E-05,3.69140625,0,0
-2.34646013268502E-05,1.66301524586743E-05,3.69140625,0,0
-2.13226448977366E-05,1.48917406477267E-05,3.69140625,0,0
-2.03593062906293E-05,1.56936821440468E-05,3.69140625,0,0
-2.00800004677149E-05,1.63396343850764E-05,3.69140625,0,0
-2.2006148356013E-05,1.72885502252029E-05,3.69140625,0,0
-2.16050393646583E-05,1.64403863891494E-05,3.69140625,0,0
-2.33917980949627E-05,1.64802931976737E-05,3.69140625,0,0
-2.38233042182401E-05,1.46773090818897E-05,3.69140625,0,0
-2.6764313588501E-05,1.54164699779358E-05,3.69140625,0,0
-2.73474470304791E-05,1.53851233335445E-05,3.69140625,0,0
-2.91978376480984E-05,1.4879467926221E-05,3.69140625,0,0
-2.88206847471884E-05,1.19628275569994E-05,3.69140625,0,0
-3.01115342153935E-05,1.30829321278725E-05,3.69140625,0,0
-2.97711976600112E-05,1.5093167348823E-05,3.69140625,0,0
-2.87472885247553E-05,1.53663531818893E-05,3.69140625,0,0
-2.70466116489843E-05,1.40232905323501E-05,3.69140625,0,0
-2.71674998657545E-05,1.39154644784867E-05,3.69140625,0,0
-2.61562308878638E-05,1.32499717437895E-05,3.69140625,0,0
-2.5709843612276E-05,1.17482413770631E-05,3.69140625,0,0
-2.16541448025964E-05,7.64097603678238E-06,3.69140625,0,0
-3.1024948839331E-05,1.04274240584346E-05,3.69140625,0,0
-2.21944101213012E-05,8.71216889208881E-06,3.69140625,0,0
-2.5694333089632E-05,1.21792736536008E-05,3.69140625,0,0
-2.14003430301091E-05,9.91129218164133E-06,3.69140625,0,0
-2.5108180125244E-05,1.01613859442296E-05,3.69140625,0,0
-2.29705565288896E-05,8.86103862285381E-06,3.69140625,0,0
-2.36914675042499E-05,9.19747890293365E-06,3.69140625,0,0
-2.27195450861473E-05,9.15310738491826E-06,3.69140625,0,0
-2.24841624003602E-05,9.60576198849594E-06,3.69140625,0,0
-2.18714048969559E-05,1.12027546492754E-05,3.69140625,0,0
-2.00042904907605E-05,1.21403145385557E-05,3.69140625,0,0
-2.08983310585609E-05,1.34408037411049E-05,3.69140625,0,0
-2.1668693079846E-05,1.25974665934336E-05,3.69140625,0,0
-2.42738697124878E-05,1.11342314994545E-05,3.69140625,0,0
-2.28580847760895E-05,8.72413511388004E-06,3.69140625,0,0
-2.3127149688662E-05,6.89838134348975E-06,3.69140625,0,0
-2.21059472096385E-05,4.22703260483104E-06,3.69140625,0,0
-2.37406602536794E-05,4.20709193349467E-06,3.69140625,0,0
-2.26444444706431E-05,5.08105676999548E-06,3.69140625,0,0
-2.25552212214097E-05,5.6762605709082E-06,3.69140625,0,0
-2.27340424316935E-05,5.85707039135741E-06,3.69140625,0,0
-2.55171817116207E-05,7.65457025408978E-06,3.69140625,0,0
-2.62159373960458E-05,7.43031660022098E-06,3.69140625,0,0
-2.62540870608063E-05,4.98505278301309E-06,3.69140625,0,0
-2.6011864974862E-05,3.99795271732728E-06,3.69140625,0,0
-2.59766129602212E-05,3.88975695386762E-06,3.69140625,0,0
-2.12481991184177E-05,2.32493084695307E-06,3.69140625,0,0
-2.95207155431854E-05,3.28076953337586E-06,3.69140625,0,0
-2.14319570659427E-05,4.28651355832699E-06,3.69140625,0,0
-2.60854067164473E-05,7.69887901697075E-06,3.69140625,0,0
-2.09269892366137E-05,8.00000634626485E-06,3.69140625,0,0
-2.39709897869034E-05,8.11096469988115E-06,3.69140625,0,0
-2.2338163034874E-05,8.4339671957423E-06,3.69140625,0,0
-2.49445474764798E-05,9.1208630692563E-06,3.69140625,0,0
-2.45081428147387E-05,8.13773931440664E-06,3.69140625,0,0
-2.29089291678974E-05,7.04318654243252E-06,3.69140625,0,0
-2.20566071220674E-05,6.66522373649059E-06,3.69140625,0,0
-2.12558425118914E-05,6.24497533863178E-06,3.69140625,0,0
-2.2453907149611E-05,6.63627815811196E-06,3.69140625,0,0
-2.27557520702248E-05,7.99772806203691E-06,3.69140625,0,0
-2.56306084338576E-05,1.00718762041652E-05,3.69140625,0,0
-2.44197290157899E-05,1.15059265226591E-05,3.69140625,0,0
-2.38639713643352E-05,1.29257332446286E-05,3.69140625,0,0
-2.12844170164317E-05,1.40003021442681E-05,3.69140625,0,0
-2.18153145397082E-05,1.4249213563744E-05,3.69140625,0,0
-2.10021225939272E-05,1.37411916512065E-05,3.69140625,0,0
-2.22512517211726E-05,1.38982150019729E-05,3.69140625,0,0
-2.19814864976797E-05,1.35387854243163E-05,3.69140625,0,0
-2.21605223487131E-05,1.33680214275955E-05,3.69140625,0,0
-2.04015996132512E-05,1.35776181195979E-05,3.69140625,0,0
-1.98194793483708E-05,1.30414546219981E-05,3.69140625,0,0
-2.09050449484494E-05,1.23888430607622E-05,3.69140625,0,0
-2.2933123545954E-05,1.46664651765605E-05,3.69140625,0,0
-1.90740956895752E-05,1.50907035276759E-05,3.69140625,0,0
-2.68160765699577E-05,2.14992778637679E-05,3.69140625,0,0
-2.09118679777021E-05,1.48363051266642E-05,3.69140625,0,0
-2.58473937719828E-05,1.70348903338891E-05,3.69140625,0,0
-2.15159507206408E-05,1.25374335766537E-05,3.69140625,0,0
-2.5292776626884E-05,1.35490772663616E-05,3.69140625,0,0
-2.49541335506365E-05,1.20687909657136E-05,3.69140625,0,0
-2.76072369160829E-05,1.24648013297701E-05,3.69140625,0,0
-2.66692204604624E-05,1.14045433292631E-05,3.69140625,0,0
-2.61703335127095E-05,1.04476257547503E-05,3.69140625,0,0
-2.5479626856395E-05,9.18152272788575E-06,3.69140625,0,0
-2.32032689382322E-05,8.10619258118095E-06,3.69140625,0,0
-2.26784432015847E-05,9.51159017859027E-06,3.69140625,0,0
-2.12618615478277E-05,1.00918514363002E-05,3.69140625,0,0
-2.24766954488587E-05,1.1952575732721E-05,3.69140625,0,0
-2.07224456971744E-05,1.18682337415521E-05,3.69140625,0,0
-2.06202512345044E-05,1.27300327221747E-05,3.69140625,0,0
-1.95243828784442E-05,1.12054558485397E-05,3.69140625,0,0
-2.22949020098895E-05,1.09384018287528E-05,3.69140625,0,0
-2.35113639064366E-05,1.02587910078E-05,3.69140625,0,0
-2.56147141044494E-05,1.0272450708726E-05,3.69140625,0,0
-2.64735717792064E-05,7.91155071055982E-06,3.69140625,0,0
-2.85314017673954E-05,8.26959694677498E-06,3.69140625,0,0
-2.8618471333175E-05,1.12655625343905E-05,3.69140625,0,0
-2.77905364782782E-05,1.25878532344359E-05,3.69140625,0,0
-2.63857709796866E-05,1.04284035842284E-05,3.69140625,0,0
-2.58333038800629E-05,7.82457755121868E-06,3.69140625,0,0
-2.22066028072732E-05,6.84555834595812E-06,3.69140625,0,0
-3.20524086419027E-05,1.18720081445645E-05,3.69140625,0,0
-2.40628487517824E-05,1.14178383228136E-05,3.69140625,0,0
-2.88870451186085E-05,1.24547186715063E-05,3.69140625,0,0
-2.38365519180661E-05,1.04645605460973E-05,3.69140625,0,0
-2.49694312515203E-05,9.78427306108642E-06,3.69140625,0,0
-2.11864899029024E-05,8.70760595717002E-06,3.69140625,0,0
-2.19081393879605E-05,9.53435937844915E-06,3.69140625,0,0
-2.13353559956886E-05,9.35314983507851E-06,3.69140625,0,0
-2.16868229472311E-05,7.8811708590365E-06,3.69140625,0,0
-2.16479693335714E-05,7.52675896364963E-06,3.69140625,0,0
-2.08029468922177E-05,9.60441593633732E-06,3.69140625,0,0
-2.24606847041287E-05,1.27898711070884E-05,3.69140625,0,0
-2.26968695642427E-05,1.32116465465515E-05,3.69140625,0,0
-2.57035389950033E-05,1.11830722744344E-05,3.69140625,0,0
-2.59693042607978E-05,7.76191427576123E-06,3.69140625,0,0
-2.73178866336821E-05,6.58473845760454E-06,3.69140625,0,0
-2.55926388490479E-05,6.34263687970815E-06,3.69140625,0,0
-2.64971367869293E-05,8.19951674202457E-06,3.69140625,0,0
-2.61437526205555E-05,1.18203133752104E-05,3.69140625,0,0
-2.71749322564574E-05,1.55747111421078E-05,3.69140625,0,0
-2.64201407844666E-05,1.56074693222763E-05,3.69140625,0,0
-2.68385956587736E-05,1.38551340569393E-05,3.69140625,0,0
-2.60552424151683E-05,1.3188455341151E-05,3.69140625,0,0
-2.48830510827247E-05,1.43097895488609E-05,3.69140625,0,0
-2.39676992350724E-05,1.46625170600601E-05,3.69140625,0,0
-2.45763694692869E-05,1.39478761411738E-05,3.69140625,0,0
-2.01660877792165E-05,1.14252316052443E-05,3.69140625,0,0
-2.82294604403432E-05,1.79768776433775E-05,3.69140625,0,0
-2.08920500881504E-05,1.56170408445178E-05,3.69140625,0,0
-2.5532346626278E-05,1.71766205312451E-05,3.69140625,0,0
-1.99059359147213E-05,1.21076000141329E-05,3.69140625,0,0
-2.08029778150376E-05,1.2528381375887E-05,3.69140625,0,0
-1.79717262653867E-05,1.23252057164791E-05,3.69140625,0,0
-2.04138686967781E-05,1.20351114674122E-05,3.69140625,0,0
-2.14278534258483E-05,9.32352577365236E-06,3.69140625,0,0
-2.28269764193101E-05,7.07214030626346E-06,3.69140625,0,0
-2.44777929765405E-05,4.95388167109923E-06,3.69140625,0,0
-2.42186069954187E-05,2.48491437560006E-06,3.69140625,0,0
-2.43485173996305E-05,9.85064730230079E-07,3.69140625,0,0
-2.25941112148575E-05,1.01732007351529E-06,3.69140625,0,0
-2.29897141252877E-05,3.41779946211318E-06,3.69140625,0,0
-2.13484017876908E-05,4.13930683862418E-06,3.69140625,0,0
-2.3055516066961E-05,5.47346007806482E-06,3.69140625,0,0
-2.34081071539549E-05,5.81518361286726E-06,3.69140625,0,0
-2.52971185545903E-05,7.17598959454335E-06,3.69140625,0,0
-2.494945692888E-05,7.15715077603818E-06,3.69140625,0,0
-2.57587289524963E-05,7.08141078575864E-06,3.69140625,0,0
-2.47762382059591E-05,5.69915209780447E-06,3.69140625,0,0
-2.53864927799441E-05,5.91924572290736E-06,3.69140625,0,0
-2.61705299635651E-05,7.07778599462472E-06,3.69140625,0,0
-2.72723773377948E-05,8.72727196110645E-06,3.69140625,0,0
-2.71173303190153E-05,9.7590236691758E-06,3.69140625,0,0
-2.64599093497964E-05,1.1036704563594E-05,3.69140625,0,0
-2.22101152758114E-05,8.04184310254641E-06,3.69140625,0,0
-3.17858211928979E-05,1.08834783532075E-05,3.69140625,0,0
-2.39377659454476E-05,8.45121940074023E-06,3.69140625,0,0
-2.89611398329725E-05,1.24389052871265E-05,3.69140625,0,0
-2.42459009314189E-05,1.13337982838857E-05,3.69140625,0,0
-2.61937329923967E-05,1.02038457043818E-05,3.69140625,0,0
-2.33582395594567E-05,7.45777788324631E-06,3.69140625,0,0
-2.60202123172348E-05,9.62634112511296E-06,3.69140625,0,0
-2.66435672529042E-05,1.25693222798873E-05,3.69140625,0,0
-2.71171466010856E-05,1.39608919198508E-05,3.69140625,0,0
-2.74635276582558E-05,1.30428379634395E-05,3.69140625,0,0
-2.67737777903676E-05,1.19156566142919E-05,3.69140625,0,0
-2.75581987807527E-05,1.3352661881072E-05,3.69140625,0,0
-2.60631295532221E-05,1.4705477951793E-05,3.69140625,0,0
-2.67036648438079E-05,1.58332568389596E-05,3.69140625,0,0
-2.52044501394266E-05,1.50195228343364E-05,3.69140625,0,0
-2.65823164227186E-05,1.43034785651253E-05,3.69140625,0,0
-2.52839763561497E-05,1.27191178762587E-05,3.69140625,0,0
-2.5731154892128E-05,1.3777871572529E-05,3.69140625,0,0
-2.45042447204469E-05,1.61357602337375E-05,3.69140625,0,0
-2.55370359809604E-05,1.83335450856248E-05,3.69140625,0,0
-2.51582823693752E-05,1.76328139787074E-05,3.69140625,0,0
-2.61805271293269E-05,1.66299669217551E-05,3.69140625,0,0
-2.68191233772086E-05,1.62268061103532E-05,3.69140625,0,0
-2.73857676802436E-05,1.69250342878513E-05,3.69140625,0,0
-2.63695310422918E-05,1.65621313499287E-05,3.69140625,0,0
-2.50981320277788E-05,1.48533617903013E-05,3.69140625,0,0
-2.03057479666313E-05,9.52767095441232E-06,3.69140625,0,0
-2.77602557616774E-05,1.46041347761638E-05,3.69140625,0,0
-1.89528527698712E-05,1.36139315145556E-05,3.69140625,0,0
-2.22899725486059E-05,1.64578868862009E-05,3.69140625,0,0
-1.82841922651278E-05,1.16736700874753E-05,3.69140625,0,0
-2.30310979532078E-05,1.12802072180784E-05,3.69140625,0,0
-2.16625194298103E-05,1.06981951830676E-05,3.69140625,0,0
-2.25334188144188E-05,1.10472756205127E-05,3.69140625,0,0
-2.10331272683106E-05,1.12252482722397E-05,3.69140625,0,0
-2.01934180950047E-05,1.24450380099006E-05,3.69140625,0,0
-1.94114709302085E-05,1.27334988064831E-05,3.69140625,0,0
-1.88236590474844E-05,1.20444465210312E-05,3.69140625,0,0
-2.08172132261097E-05,1.09422844616347E-05,3.69140625,0,0
-2.03782219614368E-05,8.92557454790222E-06,3.69140625,0,0
-2.07158318517031E-05,9.33420596993528E-06,3.69140625,0,0
-1.84314103535144E-05,9.98173345578834E-06,3.69140625,0,0
-1.9215698557673E-05,1.10371256596409E-05,3.69140625,0,0
-1.92037696251646E-05,1.02124022305361E-05,3.69140625,0,0
-2.28240514843492E-05,1.02064332168084E-05,3.69140625,0,0
-2.44146322074812E-05,9.88332612905651E-06,3.69140625,0,0
-2.58854179264745E-05,1.1255247045483E-05,3.69140625,0,0
-2.38346747210016E-05,1.17726467578905E-05,3.69140625,0,0
-2.24463983613532E-05,1.23986856124247E-05,3.69140625,0,0
-2.08062101592077E-05,1.2236652764841E-05,3.69140625,0,0
-2.03285999305081E-05,1.20106315080193E-05,3.69140625,0,0
-2.06585773412371E-05,1.26493059724453E-05,3.69140625,0,0
-2.29720135394018E-05,1.31266042444622E-05,3.69140625,0,0
-1.97523240785813E-05,9.93555568129523E-06,3.69140625,0,0
-2.81806533166673E-05,1.30773141790996E-05,3.69140625,0,0
-2.18398508877726E-05,8.85789359017508E-06,3.69140625,0,0
-2.56794119195547E-05,1.29752561406349E-05,3.69140625,0,0
-1.8796039512381E-05,1.2237698683748E-05,3.69140625,0,0
-2.0114772269153E-05,1.36292010211037E-05,3.69140625,0,0
-1.9326615074533E-05,1.26183358588605E-05,3.69140625,0,0
-2.34186518355273E-05,1.38435025291983E-05,3.69140625,0,0
-2.46701856667642E-05,1.44648538480396E-05,3.69140625,0,0
-2.47474636125844E-05,1.49247407534858E-05,3.69140625,0,0
-2.41055495280307E-05,1.38417371999822E-05,3.69140625,0,0
-2.33777882385766E-05,1.16240016723168E-05,3.69140625,0,0
-2.43179729295662E-05,1.1328545951983E-05,3.69140625,0,0
-2.31406465900363E-05,1.12998914119089E-05,3.69140625,0,0
-2.42863243329339E-05,1.29167765408056E-05,3.69140625,0,0
-2.34565613936866E-05,1.26028153317748E-05,3.69140625,0,0
-2.48606374952942E-05,1.17893714559614E-05,3.69140625,0,0
-2.34934632317163E-05,8.71936572366394E-06,3.69140625,0,0
-2.33171140280319E-05,6.82272275298601E-06,3.69140625,0,0
-2.1347776055336E-05,6.20664877715171E-06,3.69140625,0,0
-2.19422763620969E-05,8.01661281002453E-06,3.69140625,0,0
-2.2705246010446E-05,9.70016662904527E-06,3.69140625,0,0
-2.54430669883732E-05,1.15160937639303E-05,3.69140625,0,0
-2.64541595242918E-05,1.14952053991146E-05,3.69140625,0,0
-2.6461661036592E-05,1.15755456135958E-05,3.69140625,0,0
-2.56629482464632E-05,1.24236812553136E-05,3.69140625,0,0
-2.53519683610648E-05,1.31412216433091E-05,3.69140625,0,0
-2.13906860153656E-05,1.00848155852873E-05,3.69140625,0,0
-3.11541989503894E-05,1.27319035527762E-05,3.69140625,0,0
-2.46979634539457E-05,6.48265950076166E-06,3.69140625,0,0
-2.97837668767897E-05,7.59937393013388E-06,3.69140625,0,0
-2.40446952375351E-05,5.54455573364976E-06,3.69140625,0,0
-2.6264051484759E-05,7.66124139772728E-06,3.69140625,0,0
-2.52119098149706E-05,7.25972540749353E-06,3.69140625,0,0
-2.75414749921765E-05,7.33490105631063E-06,3.69140625,0,0
-2.70149957941612E-05,5.01612839798327E-06,3.69140625,0,0
-2.63763031398412E-05,3.75589684153965E-06,3.69140625,0,0
-2.53974812949309E-05,4.34891626355238E-06,3.69140625,0,0
-2.35106908803573E-05,4.85939244754263E-06,3.69140625,0,0
-2.40727458731271E-05,5.73682973481482E-06,3.69140625,0,0
-2.31148314924212E-05,5.68127006772556E-06,3.69140625,0,0
-2.43741033045808E-05,6.38955816611997E-06,3.69140625,0,0
-2.32983311434509E-05,6.04148272032035E-06,3.69140625,0,0
-2.44056700466899E-05,7.26240568837966E-06,3.69140625,0,0
-2.36654232139699E-05,7.56554527470144E-06,3.69140625,0,0
-2.44155289692571E-05,7.67794972489355E-06,3.69140625,0,0
-2.19085468415869E-05,5.40048586117337E-06,3.69140625,0,0
-2.05799933610251E-05,4.71885368824587E-06,3.69140625,0,0
-1.93472696992103E-05,7.01413546266849E-06,3.69140625,0,0
-2.13385956158163E-05,1.22248984553153E-05,3.69140625,0,0
-2.21741065615788E-05,1.48925446410431E-05,3.69140625,0,0
-2.23418137466069E-05,1.41923819683143E-05,3.69140625,0,0
-2.30175119213527E-05,1.15158036351204E-05,3.69140625,0,0
-2.38306074606953E-05,1.05574335975689E-05,3.69140625,0,0
-1.94868953258265E-05,9.82193614618154E-06,3.69140625,0,0
-2.84441684925696E-05,1.40433267006301E-05,3.69140625,0,0
-2.25060848606518E-05,1.09591110231122E-05,3.69140625,0,0
-2.71481167146703E-05,1.43837523864931E-05,3.69140625,0,0
-2.25898711505579E-05,1.40662023113691E-05,3.69140625,0,0
-2.49924378294963E-05,1.59176943270722E-05,3.69140625,0,0
-2.32157708524028E-05,1.41056789288996E-05,3.69140625,0,0
-2.44126549659995E-05,1.41535074362764E-05,3.69140625,0,0
-2.32844849961111E-05,1.33170633489499E-05,3.69140625,0,0
-2.30546520469943E-05,1.18974521683413E-05,3.69140625,0,0
-2.44797411141917E-05,1.10221535578603E-05,3.69140625,0,0
-2.43307858909247E-05,1.10230494101415E-05,3.69140625,0,0
-2.37050353462109E-05,1.26268787425943E-05,3.69140625,0,0
-2.15760337596294E-05,1.35042400870589E-05,3.69140625,0,0
-2.31852591241477E-05,1.60445670189802E-05,3.69140625,0,0
-2.27812033699593E-05,1.66371319210157E-05,3.69140625,0,0
-2.31359135796083E-05,1.61374173330842E-05,3.69140625,0,0
-2.15412601392018E-05,1.41132650242071E-05,3.69140625,0,0
-2.27740965783596E-05,1.41352566060959E-05,3.69140625,0,0
-2.26021584239788E-05,1.23604040709324E-05,3.69140625,0,0
-2.43034792219987E-05,1.011949734675E-05,3.69140625,0,0
-2.49867371167056E-05,9.84909729595529E-06,3.69140625,0,0
-2.58917189057684E-05,1.15285565698287E-05,3.69140625,0,0
-2.58468644460663E-05,1.23337986224215E-05,3.69140625,0,0
-2.58416093856795E-05,1.21925431812997E-05,3.69140625,0,0
-2.45682967943139E-05,9.62973717832938E-06,3.69140625,0,0
-2.32238435273757E-05,8.29186137707438E-06,3.69140625,0,0
-1.87991390703246E-05,8.4600269474322E-06,3.69140625,0,0
-2.72201141342521E-05,1.23720019473694E-05,3.69140625,0,0
-2.03685867745662E-05,8.21968478703639E-06,3.69140625,0,0
-2.3576702005812E-05,1.01543273558491E-05,3.69140625,0,0
-1.90385726455133E-05,1.06373299786355E-05,3.69140625,0,0
-2.14708925341256E-05,1.08983258542139E-05,3.69140625,0,0
-1.95756474568043E-05,8.62714477989357E-06,3.69140625,0,0
-2.13281800824916E-05,9.13382245926186E-06,3.69140625,0,0
-2.1808566089021E-05,9.98078212433029E-06,3.69140625,0,0
-2.22638427658239E-05,1.05859380710172E-05,3.69140625,0,0
-2.27174805331742E-05,1.02919657365419E-05,3.69140625,0,0
-2.23273200390395E-05,1.00939732874394E-05,3.69140625,0,0
-2.32284182857256E-05,1.18132138595684E-05,3.69140625,0,0
-2.2596790586249E-05,1.36511080199853E-05,3.69140625,0,0
-2.34587805607589E-05,1.50877476698952E-05,3.69140625,0,0
-2.27836644626223E-05,1.41896580316825E-05,3.69140625,0,0
-2.55246268352494E-05,1.41804539453005E-05,3.69140625,0,0
-2.55753766396083E-05,1.39609328471124E-05,3.69140625,0,0
-2.49790482484968E-05,1.42449789564125E-05,3.69140625,0,0
-2.35685474763159E-05,1.33839430418448E-05,3.69140625,0,0
-2.53881189564709E-05,1.32493087221519E-05,3.69140625,0,0
-2.5212240871042E-05,1.30536809592741E-05,3.69140625,0,0
-2.44770835706731E-05,1.27243620227091E-05,3.69140625,0,0
-2.22071466851048E-05,1.15377397378325E-05,3.69140625,0,0
-2.22202543227468E-05,1.09898555820109E-05,3.69140625,0,0
-2.36369978665607E-05,1.1109503248008E-05,3.69140625,0,0
-2.51417513936758E-05,1.04455175460316E-05,3.69140625,0,0
-2.24699033424258E-05,7.08496918377932E-06,3.69140625,0,0
-3.3106429327745E-05,9.92674722510856E-06,3.69140625,0,0
-2.5175928385579E-05,8.87435271579307E-06,3.69140625,0,0
-2.86095109913731E-05,1.26828517750255E-05,3.69140625,0,0
-2.22152557398658E-05,1.01921796158422E-05,3.69140625,0,0
-2.36721334658796E-05,8.70392614160664E-06,3.69140625,0,0
-2.11072710953886E-05,6.86785733705619E-06,3.69140625,0,0
-2.32970978686353E-05,8.14502618595725E-06,3.69140625,0,0
-2.48618634941522E-05,9.3490889412351E-06,3.69140625,0,0
-2.74759058811469E-05,1.0430570000608E-05,3.69140625,0,0
-2.83847512037028E-05,1.15483453555498E-05,3.69140625,0,0
-2.69345109700225E-05,1.20242712000618E-05,3.69140625,0,0
-2.69317970378324E-05,1.28989649965661E-05,3.69140625,0,0
-2.45447336055804E-05,1.3608831068268E-05,3.69140625,0,0
-2.48136238951702E-05,1.50158839460346E-05,3.69140625,0,0
-2.39559267356526E-05,1.43894003485912E-05,3.69140625,0,0
-2.63036672549788E-05,1.40358533826657E-05,3.69140625,0,0
-2.54755523201311E-05,1.27570328913862E-05,3.69140625,0,0
-2.53108537435764E-05,1.10730516098556E-05,3.69140625,0,0
-2.33903865591856E-05,8.98807775229216E-06,3.69140625,0,0
-2.4522383682779E-05,9.69429856922943E-06,3.69140625,0,0
-2.4660994313308E-05,1.17678819151479E-05,3.69140625,0,0
-2.43104823312024E-05,1.37148153953603E-05,3.69140625,0,0
-2.25760941248154E-05,1.38724963107961E-05,3.69140625,0,0
-2.2781368897995E-05,1.28952806335292E-05,3.69140625,0,0
-2.36366231547436E-05,1.05446833913447E-05,3.69140625,0,0
-2.51326309808064E-05,1.08656740849256E-05,3.69140625,0,0
-2.08406327146804E-05,1.07506029962678E-05,3.69140625,0,0
-2.93352986773243E-05,1.48974240801181E-05,3.69140625,0,0
-2.21929039980751E-05,1.04428745544283E-05,3.69140625,0,0
-2.80234926322009E-05,1.3113238310325E-05,3.69140625,0,0
-2.39023447647924E-05,1.12606066977605E-05,3.69140625,0,0
-2.6381851057522E-05,1.2134442840761E-05,3.69140625,0,0
-2.36317391681951E-05,1.02248159237206E-05,3.69140625,0,0
-2.46080508077284E-05,1.01498299045488E-05,3.69140625,0,0
-2.40046083490597E-05,8.92087518877815E-06,3.69140625,0,0
-2.40254139498575E-05,8.91099352884339E-06,3.69140625,0,0
-2.45660921791568E-05,8.2188189480803E-06,3.69140625,0,0
-2.49069435085403E-05,6.43737712380243E-06,3.69140625,0,0
-2.61426794168074E-05,5.74581872569979E-06,3.69140625,0,0
-2.51502551691374E-05,5.38575977770961E-06,3.69140625,0,0
-2.57210740528535E-05,7.88555098552024E-06,3.69140625,0,0
-2.37360181927215E-05,8.56956921779783E-06,3.69140625,0,0
-2.48753967753146E-05,8.09742505225586E-06,3.69140625,0,0
-2.47979096457129E-05,5.98364385950845E-06,3.69140625,0,0
-2.76168975688051E-05,6.4947134887916E-06,3.69140625,0,0
-2.79356572718825E-05,7.29717567082844E-06,3.69140625,0,0
-2.86635440716054E-05,9.20046477403957E-06,3.69140625,0,0
-2.76413375104312E-05,9.67035794019466E-06,3.69140625,0,0
-2.73373843810987E-05,1.04255850601476E-05,3.69140625,0,0
-2.51860710704932E-05,1.00283687061165E-05,3.69140625,0,0
-2.37843305512797E-05,9.79634842224186E-06,3.69140625,0,0
-2.31936955970014E-05,9.94526544673136E-06,3.69140625,0,0
-2.38405827985844E-05,9.10647304408485E-06,3.69140625,0,0
-1.98877169168554E-05,5.8715822888189E-06,3.69140625,0,0
-2.78477909887442E-05,6.98874737281585E-06,3.69140625,0,0
-2.10986709134886E-05,4.95666108690784E-06,3.69140625,0,0
-2.61663099081488E-05,8.95600169315003E-06,3.69140625,0,0
-2.02214341697982E-05,9.24908181332285E-06,3.69140625,0,0
-2.0814690287807E-05,1.08120484583196E-05,3.69140625,0,0
-1.80985207407502E-05,1.00357301562326E-05,3.69140625,0,0
-1.92626375792315E-05,1.07518899312709E-05,3.69140625,0,0
-1.80303050001385E-05,1.27811790662236E-05,3.69140625,0,0
-1.78964728547726E-05,1.41391556098824E-05,3.69140625,0,0
-1.82065832632361E-05,1.38056739160675E-05,3.69140625,0,0
-1.74155666172737E-05,1.36993457999779E-05,3.69140625,0,0
-1.83240517799277E-05,1.44524001370883E-05,3.69140625,0,0
-1.76671455847099E-05,1.40607817229466E-05,3.69140625,0,0
-1.88541307579726E-05,1.50737032527104E-05,3.69140625,0,0
-1.80979714059504E-05,1.57110771397129E-05,3.69140625,0,0
-1.98095294763334E-05,1.69958693732042E-05,3.69140625,0,0
-1.88239173439797E-05,1.77763995452551E-05,3.69140625,0,0
-1.98310244741151E-05,1.87649675353896E-05,3.69140625,0,0
-1.9348841306055E-05,1.80018487299094E-05,3.69140625,0,0
-2.04822881642031E-05,1.75948043761309E-05,3.69140625,0,0
-1.99844562303042E-05,1.7912372641149E-05,3.69140625,0,0
-2.04166954063112E-05,1.7918624507729E-05,3.69140625,0,0
-2.10190664802212E-05,1.64825505635235E-05,3.69140625,0,0
-2.18931872950634E-05,1.50008727359818E-05,3.69140625,0,0
-2.20770416490268E-05,1.24691923701903E-05,3.69140625,0,0
-2.38097072724486E-05,1.05716389953159E-05,3.69140625,0,0
-1.97553763428004E-05,9.39591700443998E-06,3.69140625,0,0
-2.7783016776084E-05,1.44023933899007E-05,3.69140625,0,0
-2.0890718587907E-05,1.13265323307132E-05,3.69140625,0,0
-2.61189961747732E-05,1.14750137072406E-05,3.69140625,0,0
-2.24821142182918E-05,7.57693305786233E-06,3.69140625,0,0
-2.51464971370297E-05,8.58484872878762E-06,3.69140625,0,0
-2.20417914533755E-05,8.80348216014681E-06,3.69140625,0,0
-2.3116466763895E-05,1.04095497590606E-05,3.69140625,0,0
-2.27097189053893E-05,1.07276482594898E-05,3.69140625,0,0
-2.18136119656265E-05,1.06004554254469E-05,3.69140625,0,0
-2.05844226002228E-05,1.0412903066026E-05,3.69140625,0,0
-1.94136555364821E-05,1.07307469079387E-05,3.69140625,0,0
-2.13636085391045E-05,1.24778853205498E-05,3.69140625,0,0
-2.21665868593846E-05,1.33555013235309E-05,3.69140625,0,0
-2.43333452090155E-05,1.45610274557839E-05,3.69140625,0,0
-2.35780844377587E-05,1.37770066430676E-05,3.69140625,0,0
-2.45184073719429E-05,1.26372669910779E-05,3.69140625,0,0
-2.24945069930982E-05,1.00573406598414E-05,3.69140625,0,0
-2.25581043196144E-05,9.28739609662443E-06,3.69140625,0,0
-2.23673559958115E-05,8.59719693835359E-06,3.69140625,0,0
-2.48187261604471E-05,9.08800575416535E-06,3.69140625,0,0
-2.52071768045425E-05,9.90851458482211E-06,3.69140625,0,0
-2.50098819378763E-05,1.09830862129456E-05,3.69140625,0,0
-2.46280287683476E-05,9.74024351307889E-06,3.69140625,0,0
-2.64422706095502E-05,5.67687357033719E-06,3.69140625,0,0
-2.79530395346228E-05,2.42972146224929E-06,3.69140625,0,0
-2.92402710329043E-05,3.45336820828379E-06,3.69140625,0,0
-2.28694079851266E-05,5.33333923158352E-06,3.69140625,0,0
-3.06736765196547E-05,8.70546227815794E-06,3.69140625,0,0
-2.12154154723976E-05,8.50820561026922E-06,3.69140625,0,0
-2.73079440376023E-05,1.01123141575954E-05,3.69140625,0,0
-2.32463225984247E-05,7.86750661063707E-06,3.69140625,0,0
-2.76035571005195E-05,7.83130417403299E-06,3.69140625,0,0
-2.50678440352203E-05,8.84509609022643E-06,3.69140625,0,0
-2.55666800512699E-05,1.09122465801192E-05,3.69140625,0,0
-2.35441420954885E-05,1.15519987957668E-05,3.69140625,0,0
-2.3737980882288E-05,1.08549829747062E-05,3.69140625,0,0
-2.51445853791665E-05,1.03198408396565E-05,3.69140625,0,0
-2.59226490015863E-05,1.07511268652161E-05,3.69140625,0,0
-2.72696033789543E-05,1.31345896079438E-05,3.69140625,0,0
-2.50179600698175E-05,1.39790154207731E-05,3.69140625,0,0
-2.50290577241685E-05,1.35479695018148E-05,3.69140625,0,0
-2.28629869525321E-05,1.17615418275818E-05,3.69140625,0,0
-2.38992361119017E-05,1.02936073744786E-05,3.69140625,0,0
-2.35022234846838E-05,9.1571328084683E-06,3.69140625,0,0
-2.61203076661332E-05,9.43145187193295E-06,3.69140625,0,0
-2.57505726040108E-05,9.52555728872539E-06,3.69140625,0,0
-2.61690856859786E-05,9.20221100386698E-06,3.69140625,0,0
-2.42415171669563E-05,8.26833365863422E-06,3.69140625,0,0
-2.47605057666078E-05,7.25023573977523E-06,3.69140625,0,0
-2.56715356954373E-05,7.18680666977889E-06,3.69140625,0,0
-2.70544260274619E-05,8.16640749690123E-06,3.69140625,0,0
-2.66538372670766E-05,7.9159526649164E-06,3.69140625,0,0
-2.54718906944618E-05,6.95808057571412E-06,3.69140625,0,0
-1.89446909644175E-05,4.7677053771622E-06,3.69140625,0,0
-2.72748475254048E-05,6.64045819576131E-06,3.69140625,0,0
-2.13428429560736E-05,5.98336964685586E-06,3.69140625,0,0
-2.64521750068525E-05,1.02154654086917E-05,3.69140625,0,0
-2.34445942624006E-05,1.24362159112934E-05,3.69140625,0,0
-2.67942414211575E-05,1.33545727294404E-05,3.69140625,0,0
-2.48985961661674E-05,1.135394359153E-05,3.69140625,0,0
-2.61245786532527E-05,1.07945197669324E-05,3.69140625,0,0
-2.44557868427364E-05,1.01047262432985E-05,3.69140625,0,0
-2.28702829190297E-05,1.15661550807999E-05,3.69140625,0,0
-2.31629801419331E-05,1.2689358300122E-05,3.69140625,0,0
-2.48706819547806E-05,1.19735486805439E-05,3.69140625,0,0
-2.77908911812119E-05,1.16410337795969E-05,3.69140625,0,0
-2.64092268480454E-05,1.10517567009083E-05,3.69140625,0,0
-2.61983368545771E-05,1.09401216832339E-05,3.69140625,0,0
-2.50602679443546E-05,1.09692664409522E-05,3.69140625,0,0
-2.71651661023498E-05,1.28992405734607E-05,3.69140625,0,0
-2.83941208181204E-05,1.40182810355327E-05,3.69140625,0,0
-3.22168925777078E-05,1.38286823130329E-05,3.69140625,0,0
-3.42637977155391E-05,1.18611424113624E-05,3.69140625,0,0
-3.67244392691646E-05,1.03162883533514E-05,3.69140625,0,0
-3.64210463885684E-05,9.39586516324198E-06,3.69140625,0,0
-3.61973106919322E-05,9.17663783184253E-06,3.69140625,0,0
-3.48808316630311E-05,8.07157084636856E-06,3.69140625,0,0
-3.28661189996637E-05,7.83270115789492E-06,3.69140625,0,0
-3.02614353131503E-05,8.92441948963096E-06,3.69140625,0,0
-2.90860298264306E-05,9.75854800344678E-06,3.69140625,0,0
-2.47866246354533E-05,7.62405898058205E-06,3.69140625,0,0
-3.70518828276545E-05,8.99488532013493E-06,3.69140625,0,0
-2.88920819002669E-05,4.19711204813211E-06,3.69140625,0,0
-3.20053113682661E-05,7.1993026722339E-06,3.69140625,0,0
-2.48917895078193E-05,7.26141752238618E-06,3.69140625,0,0
-2.78177722066175E-05,9.04628905118443E-06,3.69140625,0,0
-2.49977165367454E-05,8.34714592201635E-06,3.69140625,0,0
-2.41223042394267E-05,8.48941090225708E-06,3.69140625,0,0
-2.02449955395423E-05,8.46401053422596E-06,3.69140625,0,0
-1.79185590241104E-05,8.44249916553963E-06,3.69140625,0,0
-1.58018519869074E-05,7.34401828594855E-06,3.69140625,0,0
-1.21832190416171E-05,5.96544168729451E-06,3.69140625,0,0
-1.05257131508552E-05,6.52305243420415E-06,3.69140625,0,0
-8.93086871656124E-06,7.02485203873948E-06,3.69140625,0,0
-1.12902635009959E-05,8.39135827845894E-06,3.69140625,0,0
-9.82592064247001E-06,1.02362500911113E-05,3.69140625,0,0
-9.80881395662436E-06,1.44939713209169E-05,3.69140625,0,0
-8.16627016320126E-06,1.61814423336182E-05,3.69140625,0,0
-1.01863879535813E-05,1.50833693624008E-05,3.69140625,0,0
-1.05471881397534E-05,1.22402079796302E-05,3.69140625,0,0
-1.20462691484136E-05,1.15274378913455E-05,3.69140625,0,0
-1.10304781628656E-05,1.19202350106207E-05,3.69140625,0,0
-1.19044261737145E-05,1.29009613374365E-05,3.69140625,0,0
-1.23930840345565E-05,1.26386821648339E-05,3.69140625,0,0
-1.29717163872556E-05,1.28641477203928E-05,3.69140625,0,0
-1.23315803648438E-05,1.4491564797936E-05,3.69140625,0,0
-1.24361758935265E-05,1.61663756443886E-05,3.69140625,0,0
-1.10715918708593E-05,1.38780605993816E-05,3.69140625,0,0
-1.58935908984859E-05,2.01416441996116E-05,3.69140625,0,0
-1.17391900857911E-05,1.56084333866602E-05,3.69140625,0,0
-1.34558804347762E-05,1.94252770597814E-05,3.69140625,0,0
-1.08210078906268E-05,1.74166525539476E-05,3.69140625,0,0
-1.17298041004688E-05,2.03458366740961E-05,3.69140625,0,0
-1.04755845313775E-05,1.89927941391943E-05,3.69140625,0,0
-1.11522022052668E-05,1.82163257704815E-05,3.69140625,0,0
-1.13057603812194E-05,1.64517769007944E-05,3.69140625,0,0
-1.36651997308945E-05,1.71677293110406E-05,3.69140625,0,0
-1.71428873727564E-05,1.94615040527424E-05,3.69140625,0,0
-1.98012639884837E-05,2.06570475711487E-05,3.69140625,0,0
-2.323200351384E-05,2.12411432585213E-05,3.69140625,0,0
-2.45549326791661E-05,1.94957974599674E-05,3.69140625,0,0
-2.61733403021935E-05,1.89536440302618E-05,3.69140625,0,0
-2.74511039606296E-05,1.76030753209488E-05,3.69140625,0,0
-3.10209870804101E-05,1.83070442290045E-05,3.69140625,0,0
-3.3013457141351E-05,1.71778301591985E-05,3.69140625,0,0
-3.42313724104315E-05,1.66579684446333E-05,3.69140625,0,0
-3.35086297127418E-05,1.54893423314206E-05,3.69140625,0,0
-3.39883299602661E-05,1.58794446178945E-05,3.69140625,0,0
-3.50106856785715E-05,1.47939308590139E-05,3.69140625,0,0
-3.79021475964691E-05,1.42325352499029E-05,3.69140625,0,0
-4.02976147597656E-05,1.34235579025699E-05,3.69140625,0,0
-4.11717373935971E-05,1.2961346328666E-05,3.69140625,0,0
-4.07270126743242E-05,1.17139325084281E-05,3.69140625,0,0
-3.97660332964733E-05,9.95966911432333E-06,3.69140625,0,0
-3.05903922708239E-05,6.96891402185429E-06,3.69140625,0,0
-4.12162517022807E-05,1.11602657852927E-05,3.69140625,0,0
-2.69242955255322E-05,1.16042137960903E-05,3.69140625,0,0
-3.30414732161444E-05,1.51401336552226E-05,3.69140625,0,0
-2.6943600460072E-05,1.35876061904128E-05,3.69140625,0,0
-3.23590429616161E-05,1.38042050821241E-05,3.69140625,0,0
-2.86993235931732E-05,1.24760663311463E-05,3.69140625,0,0
-2.93093125947053E-05,1.03701813713997E-05,3.69140625,0,0
-2.61216810031328E-05,7.33563729227171E-06,3.69140625,0,0
-2.48698215727927E-05,6.80451421430917E-06,3.69140625,0,0
-2.49191143666394E-05,7.74781710788375E-06,3.69140625,0,0
-2.50318244070513E-05,8.764332960709E-06,3.69140625,0,0
-2.76816863333806E-05,1.01074992926442E-05,3.69140625,0,0
-2.6518906452111E-05,1.04411956272088E-05,3.69140625,0,0
-2.63591937255114E-05,1.08275899037835E-05,3.69140625,0,0
-2.25231742660981E-05,9.89185627986444E-06,3.69140625,0,0
-2.48518645094009E-05,1.08616422949126E-05,3.69140625,0,0
-2.53050202445593E-05,1.33933417600929E-05,3.69140625,0,0
-2.84367106360151E-05,1.64563334692502E-05,3.69140625,0,0
-2.73032510449411E-05,1.60607596626505E-05,3.69140625,0,0
-2.80557687801775E-05,1.40082811412867E-05,3.69140625,0,0
-2.67003742919769E-05,1.21642142403289E-05,3.69140625,0,0
-2.64855225395877E-05,1.21192988444818E-05,3.69140625,0,0
-2.48814958467847E-05,1.15554930744111E-05,3.69140625,0,0
-2.598405808385E-05,9.34822219278431E-06,3.69140625,0,0
-2.84290526906261E-05,7.92653008829802E-06,3.69140625,0,0
-3.09404531435575E-05,1.02205758594209E-05,3.69140625,0,0
-2.56300663750153E-05,9.25517451833002E-06,3.69140625,0,0
-3.55560296156909E-05,1.17153422252159E-05,3.69140625,0,0
-2.44677066802979E-05,7.04111698723864E-06,3.69140625,0,0
-3.01297295663971E-05,9.15361943043536E-06,3.69140625,0,0
-2.8369151550578E-05,6.52888229524251E-06,3.69140625,0,0
-3.66872845916077E-05,5.44886552233947E-06,3.69140625,0,0
-3.72898648492992E-05,-2.74411490863713E-07,3.69140625,0,0
-4.05400969611946E-05,-2.77848334917508E-06,3.69140625,0,0
-3.97156472899951E-05,-3.47921854881861E-06,3.69140625,0,0
-3.8450671127066E-05,-3.02188391287928E-06,3.69140625,0,0
-3.7654801417375E-05,-1.52671407249727E-06,3.69140625,0,0
-3.51100279658567E-05,1.38968380269944E-06,3.69140625,0,0
-3.30251205014065E-05,5.53260451852111E-06,3.69140625,0,0
-2.89595845970325E-05,7.51365178075503E-06,3.69140625,0,0
-2.99341099889716E-05,8.04053070169175E-06,3.69140625,0,0
-2.84100860881153E-05,5.59348200113163E-06,3.69140625,0,0
-2.79715914075496E-05,5.05389152749558E-06,3.69140625,0,0
-2.4565579224145E-05,4.33530840382446E-06,3.69140625,0,0
-2.69415795628447E-05,1.79053051851952E-06,3.69140625,0,0
-3.00203118968057E-05,-4.42776217823848E-06,3.69140625,0,0
-3.32877207256388E-05,-5.2658415370388E-06,3.69140625,0,0
-3.20823164656758E-05,1.96249220607569E-06,3.69140625,0,0
-3.2005049433792E-05,1.21495086204959E-05,3.69140625,0,0
-3.08577436953783E-05,1.70332587003941E-05,3.69140625,0,0
-2.87470429611858E-05,1.93203159142286E-05,3.69140625,0,0
-2.54006663453765E-05,2.27939635806251E-05,3.69140625,0,0
-2.21147802221822E-05,2.64148238784401E-05,3.69140625,0,0
-1.54179742821725E-05,2.21650934690842E-05,3.69140625,0,0
-2.03886502276873E-05,2.89379368041409E-05,3.69140625,0,0
-1.37110755531467E-05,1.69103750522481E-05,3.69140625,0,0
-1.70198763953522E-05,1.85213011718588E-05,3.69140625,0,0
-1.34877864184091E-05,5.22569234817638E-06,3.69140625,0,0
-1.57454396685353E-05,-5.12309179612203E-06,3.69140625,0,0
-1.28365363707417E-05,-2.20192632696126E-05,3.69140625,0,0
-1.19868091132957E-05,-3.44738036801573E-05,3.69140625,0,0
-9.28339522943133E-06,-4.90377424284816E-05,3.69140625,0,0
-6.70266308588907E-06,-5.71665659663267E-05,3.69140625,0,0
-3.72084173250187E-06,-4.87129909743089E-05,3.69140625,0,0
5.57114560706395E-07,-2.54391816270072E-05,3.69140625,0,0
3.77460833078658E-06,2.91530204776791E-06,3.69140625,0,0
7.61078081268352E-06,2.24756131501636E-05,3.69140625,0,0
7.66231642046478E-06,3.30221919284668E-05,3.69140625,0,0
8.67465314513538E-06,2.92201621050481E-05,3.69140625,0,0
7.57257748773554E-06,2.17820670513902E-05,3.69140625,0,0
7.62882655180874E-06,1.34113452077145E-05,3.69140625,0,0
5.33977890881943E-06,1.13088672151207E-05,3.69140625,0,0
3.39309667651833E-06,1.18961852422217E-05,3.69140625,0,0
-1.74733841618036E-07,1.75408240465913E-05,3.69140625,0,0
-2.28675912694598E-06,2.0522571503534E-05,3.69140625,0,0
-4.9419404604123E-06,2.31741487368708E-05,3.69140625,0,0
-6.56657812214689E-06,2.53829130087979E-05,3.69140625,0,0
-9.54218376136851E-06,2.50166049227118E-05,3.69140625,0,0
-1.41301352414303E-05,1.81459417945007E-05,3.69140625,0,0
-1.89610218512826E-05,1.17895851872163E-05,3.69140625,0,0
-2.00262384169037E-05,6.9923098635627E-06,3.69140625,0,0
-3.23780550388619E-05,1.08752683445346E-05,3.69140625,0,0
-3.14709141093772E-05,1.20020285976352E-05,3.69140625,0,0
-4.18749878008384E-05,1.91123945114668E-05,3.69140625,0,0
-4.41708798462059E-05,2.4006687453948E-05,3.69140625,0,0
-5.12115148012526E-05,2.68069743469823E-05,3.69140625,0,0
-5.27378324477468E-05,2.0275014321669E-05,3.69140625,0,0
-5.59014843020123E-05,1.30766593429144E-05,3.69140625,0,0
-5.49593205505516E-05,9.93467256193981E-06,3.69140625,0,0
-5.37965170224197E-05,1.22298833957757E-05,3.69140625,0,0
-5.34277787664905E-05,1.71261963259894E-05,3.69140625,0,0
-5.23636590514798E-05,2.16710104723461E-05,3.69140625,0,0
-5.18834385729861E-05,2.45569281105418E-05,3.69140625,0,0
-4.8318317567464E-05,2.38721404457465E-05,3.69140625,0,0
-4.64174918306526E-05,2.25567873712862E-05,3.69140625,0,0
-4.37323469668627E-05,2.15076743188547E-05,3.69140625,0,0
-4.38803836004809E-05,2.30676760111237E-05,3.69140625,0,0
-4.24701429437846E-05,2.51161018240964E-05,3.69140625,0,0
-4.22893026552629E-05,2.94418114208383E-05,3.69140625,0,0
-3.90799687011167E-05,3.37619094352704E-05,3.69140625,0,0
-3.60757294401992E-05,3.6004505091114E-05,3.69140625,0,0
-3.03732304018922E-05,3.33330244757235E-05,3.69140625,0,0
-2.54520327871433E-05,2.82616638287436E-05,3.69140625,0,0
-2.04655352717964E-05,2.5444391212659E-05,3.69140625,0,0
-1.49542374856537E-05,2.75637539743911E-05,3.69140625,0,0
-8.50064043333987E-06,2.97832539217779E-05,3.69140625,0,0
-4.2367837522761E-06,2.91935684799682E-05,3.69140625,0,0
-3.86470219382318E-06,2.27029868256068E-05,3.69140625,0,0
-1.01014666142873E-05,3.18243946821895E-05,3.69140625,0,0
-1.50989908433985E-05,2.23162387555931E-05,3.69140625,0,0
-1.82244220923167E-05,2.61259119724855E-05,3.69140625,0,0
-1.922964474943E-05,2.00690465135267E-05,3.69140625,0,0
-1.85514672921272E-05,2.3662498279009E-05,3.69140625,0,0
-1.52032480400521E-05,2.08893779927166E-05,3.69140625,0,0
-1.25829383250675E-05,1.80571205419255E-05,3.69140625,0,0
-1.17993668027339E-05,8.27140684123151E-06,3.69140625,0,0
-1.24872540254728E-05,-4.76149489259114E-06,3.69140625,0,0
-1.26205140986713E-05,-1.69443374034017E-05,3.69140625,0,0
-1.19426103992737E-05,-2.1662468498107E-05,3.69140625,0,0
-1.33310950332088E-05,-1.37656043079915E-05,3.69140625,0,0
-1.71677947946591E-05,-3.08413950733666E-06,3.69140625,0,0
-2.07394368771929E-05,8.07243122835644E-06,3.69140625,0,0
-2.25759486056631E-05,1.32331351778703E-05,3.69140625,0,0
-2.58988311543362E-05,1.86867491720477E-05,3.69140625,0,0
-3.04734730889322E-05,2.04828957066638E-05,3.69140625,0,0
-3.44397085427772E-05,2.24073210119968E-05,3.69140625,0,0
-3.55279771611094E-05,1.95605261978926E-05,3.69140625,0,0
-3.38892205036245E-05,1.64658449648414E-05,3.69140625,0,0
-3.09576644212939E-05,9.85521546681412E-06,3.69140625,0,0
-2.846908319043E-05,9.74620846250218E-08,3.69140625,0,0
-2.62239591393154E-05,-1.46939401020063E-05,3.69140625,0,0
-2.35373645409709E-05,-3.03999549942091E-05,3.69140625,0,0
-2.0097517335671E-05,-4.62413372588344E-05,3.69140625,0,0
-1.5997715308913E-05,-5.39255524927285E-05,3.69140625,0,0
-9.91335764410906E-06,-3.72510294255335E-05,3.69140625,0,0
-1.09956208689255E-05,-3.98603733628988E-05,3.69140625,0,0
-3.75727199752873E-06,-7.30285546524101E-06,3.69140625,0,0
-5.15207239004667E-06,-9.28446752368473E-06,3.69140625,0,0
-1.29223474232276E-06,9.20659203984542E-07,3.69140625,0,0
-1.66692950642755E-06,-4.99791758556967E-06,3.69140625,0,0
-9.32216323690227E-07,2.93971993414743E-06,3.69140625,0,0
-4.03465992349084E-06,2.39146743297169E-06,3.69140625,0,0
-6.60669729768415E-06,6.24218182565528E-06,3.69140625,0,0
-8.46949660626706E-06,9.0396060841158E-06,3.69140625,0,0
-8.84435576153919E-06,1.03492820926476E-05,3.69140625,0,0
-9.00012764759595E-06,1.17951512947911E-05,3.69140625,0,0
-1.22313076644787E-05,1.09100865302025E-05,3.69140625,0,0
-1.60416529979557E-05,1.33246621771832E-05,3.69140625,0,0
-2.0157223843853E-05,1.05919689303846E-05,3.69140625,0,0
-2.04948228201829E-05,1.47514356285683E-05,3.69140625,0,0
-1.94571057363646E-05,1.68337173818145E-05,3.69140625,0,0
-1.66725349117769E-05,2.15172367461491E-05,3.69140625,0,0
-1.57724098244216E-05,1.81721952685621E-05,3.69140625,0,0
-1.37792931127478E-05,1.90626760740997E-05,3.69140625,0,0
-1.29975132949767E-05,1.73271582752932E-05,3.69140625,0,0
-1.27407165564364E-05,1.96970468095969E-05,3.69140625,0,0
-1.36801645567175E-05,2.30247369472636E-05,3.69140625,0,0
-1.27414059534203E-05,3.01759828289505E-05,3.69140625,0,0
-1.07931600723532E-05,3.50390910170972E-05,3.69140625,0,0
-8.91151648829691E-06,3.86884494218975E-05,3.69140625,0,0
-7.37165009923046E-06,3.80377641704399E-05,3.69140625,0,0
-5.60276748728938E-06,2.98972518066876E-05,3.69140625,0,0
-6.33325271337526E-06,4.26944643550087E-05,3.69140625,0,0
-1.37642018671613E-06,3.10152718157042E-05,3.69140625,0,0
6.73205363455054E-07,3.93049995182082E-05,3.69140625,0,0
4.67225936517934E-06,3.13388154609129E-05,3.69140625,0,0
2.51597771239176E-06,2.95314766844967E-05,3.69140625,0,0
-3.32903891830938E-06,1.85445678653196E-05,3.69140625,0,0
-1.28703413793119E-05,1.3723441043112E-05,3.69140625,0,0
-2.25339772441657E-05,7.6445285230875E-06,3.69140625,0,0
-3.1178817152977E-05,5.84664076086483E-06,3.69140625,0,0
-3.73682087229099E-05,6.19062029727502E-06,3.69140625,0,0
-4.07983898185194E-05,5.79641027798061E-06,3.69140625,0,0
-4.34717585449107E-05,6.49328558210982E-06,3.69140625,0,0
-4.50564984930679E-05,3.3973681183852E-06,3.69140625,0,0
-4.84879456053022E-05,3.4444469747541E-06,3.69140625,0,0
-5.29939679836389E-05,3.56985492544482E-06,3.69140625,0,0
-5.78192521061283E-05,1.14008753371309E-05,3.69140625,0,0
-5.977219552733E-05,1.86224297067383E-05,3.69140625,0,0
-6.07905567449052E-05,2.72681536443997E-05,3.69140625,0,0
-6.05404675297905E-05,2.82383916783147E-05,3.69140625,0,0
-6.10984425293282E-05,2.81003485724796E-05,3.69140625,0,0
-6.27077533863485E-05,2.60649558185833E-05,3.69140625,0,0
-6.34875759715214E-05,2.66564165940508E-05,3.69140625,0,0
-6.08507034485228E-05,2.6261117454851E-05,3.69140625,0,0
-5.5884422181407E-05,3.00541323667858E-05,3.69140625,0,0
-5.15706014994066E-05,3.54395924659912E-05,3.69140625,0,0
-4.90947095386218E-05,3.53663708665408E-05,3.69140625,0,0
-3.51792841684073E-05,2.06992044695653E-05,3.69140625,0,0
-4.62608913949225E-05,2.29688557737973E-05,3.69140625,0,0
-2.98567792924587E-05,9.90135231404565E-06,3.69140625,0,0
-3.73004222637974E-05,1.33003222799744E-05,3.69140625,0,0
-2.87007733277278E-05,3.85873090635869E-06,3.69140625,0,0
-3.46492852258962E-05,5.82961865802645E-06,3.69140625,0,0
-2.92889726551948E-05,3.18296633849968E-06,3.69140625,0,0
-3.00434312521247E-05,2.66075744548289E-06,3.69140625,0,0
-2.56061375694117E-05,-2.44750083311374E-07,3.69140625,0,0
-2.15717209357535E-05,-2.36317575286193E-07,3.69140625,0,0
-1.93089090316789E-05,1.65649316841154E-06,3.69140625,0,0
-1.77885085577145E-05,1.13201986096101E-06,3.69140625,0,0
-1.91884337255033E-05,8.31276452117891E-07,3.69140625,0,0
-1.54218960233266E-05,-1.04454250049457E-06,3.69140625,0,0
-1.36404796649003E-05,2.91659557660751E-06,3.69140625,0,0
-8.79913568496704E-06,8.04474802862387E-06,3.69140625,0,0
-1.22158808153472E-05,1.74446049641119E-05,3.69140625,0,0
-1.54009812831646E-05,2.23988918151008E-05,3.69140625,0,0
-2.34375202126103E-05,2.72319048235659E-05,3.69140625,0,0
-2.77332710538758E-05,3.0030734706088E-05,3.69140625,0,0
-3.56050259142648E-05,3.56606906279922E-05,3.69140625,0,0
-4.15027425333392E-05,3.83250408049207E-05,3.69140625,0,0
-4.89958474645391E-05,3.90695749956649E-05,3.69140625,0,0
-5.05653115396854E-05,3.84305640181992E-05,3.69140625,0,0
-4.78765177831519E-05,3.98181546188425E-05,3.69140625,0,0
-4.2003310227301E-05,3.78507320419885E-05,3.69140625,0,0
-3.73762668459676E-05,3.00553165288875E-05,3.69140625,0,0
-2.78079078270821E-05,1.32095592562109E-05,3.69140625,0,0
-3.62858518201392E-05,1.03568727354286E-05,3.69140625,0,0
-2.1619565814035E-05,-2.09181212085241E-06,3.69140625,0,0
-2.53009529842529E-05,1.83611575721443E-07,3.69140625,0,0
-1.70869807334384E-05,-5.69135590922087E-06,3.69140625,0,0
-1.88004069059389E-05,-8.57521445141174E-06,3.69140625,0,0
-1.38471332320478E-05,-1.55367524712346E-05,3.69140625,0,0
-1.45214980875608E-05,-1.40870488394285E-05,3.69140625,0,0
-1.27802113638609E-05,-1.46330303323339E-05,3.69140625,0,0
-1.23520712804748E-05,-1.18544521683361E-05,3.69140625,0,0
-1.28059909911826E-05,-4.15938893638668E-06,3.69140625,0,0
-1.16111586976331E-05,5.43549003850785E-06,3.69140625,0,0
-1.25258120533545E-05,1.33334842757904E-05,3.69140625,0,0
-1.04926321000676E-05,1.3487368960341E-05,3.69140625,0,0
-1.09887751023052E-05,1.07342420960777E-05,3.69140625,0,0
-8.54319387144642E-06,5.44897011423018E-06,3.69140625,0,0
-9.56316671363311E-06,3.81553309125593E-06,3.69140625,0,0
-8.56185215525329E-06,4.43815054040897E-07,3.69140625,0,0
-1.24053131003166E-05,1.46245258747513E-06,3.69140625,0,0
-1.44560499393265E-05,6.6603024606593E-06,3.69140625,0,0
-1.78070149559062E-05,2.09059035114478E-05,3.69140625,0,0
-1.95441371033667E-05,4.14735004596878E-05,3.69140625,0,0
-2.54339047387475E-05,6.44568644929677E-05,3.69140625,0,0
-3.32396302837878E-05,7.36061920179054E-05,3.69140625,0,0
-4.4398275349522E-05,6.49697030894458E-05,3.69140625,0,0
-5.62938621442299E-05,4.43053504568525E-05,3.69140625,0,0
-6.47793422103859E-05,2.4133434635587E-05,3.69140625,0,0
-5.40021974302363E-05,3.95087863580557E-06,3.69140625,0,0
-7.51633851905353E-05,-1.25381002362701E-05,3.69140625,0,0
-5.57732928427868E-05,-4.67365935037378E-05,3.69140625,0,0
-7.3272931331303E-05,-7.27822844055481E-05,3.69140625,0,0
-6.53565512038767E-05,-8.50786309456453E-05,3.69140625,0,0
-7.18445589882322E-05,-6.79762815707363E-05,3.69140625,0,0
-6.06314970355015E-05,-4.27777995355427E-05,3.69140625,0,0
-6.00480125285685E-05,-2.53342423093272E-05,3.69140625,0,0
-5.73665638512466E-05,-2.15119689528365E-05,3.69140625,0,0
-5.61835113330744E-05,-2.04306816158351E-05,3.69140625,0,0
-5.26177755091339E-05,-2.12805352930445E-05,3.69140625,0,0
-4.61987037851941E-05,-2.61314744420815E-05,3.69140625,0,0
-4.70093000330962E-05,-2.89998442895012E-05,3.69140625,0,0
-4.45483128714841E-05,-2.80759959423449E-05,3.69140625,0,0
-4.63829237560276E-05,-2.3756489099469E-05,3.69140625,0,0
-3.95091192331165E-05,-2.27761574933538E-05,3.69140625,0,0
-3.5878812923329E-05,-2.27201453526504E-05,3.69140625,0,0
-2.42708119913004E-05,-2.22921717067948E-05,3.69140625,0,0
-1.59672526933718E-05,-1.74592896655668E-05,3.69140625,0,0
-7.05148465840466E-07,-1.2064431757608E-05,3.69140625,0,0
1.03386082628276E-05,-8.55732196214376E-06,3.69140625,0,0
2.24881223402917E-05,-1.09934580905247E-05,3.69140625,0,0
2.87648381345207E-05,-1.63232853083173E-05,3.69140625,0,0
