biceps_emg, triceps_emg, subject_position, position_estimate, brace_position
-2.5040269974852E-05,1.10016062535578E-05,2.8125,0,0.00887535063113605
-2.41189445659984E-05,1.18582174764015E-05,2.8125,0,0.00887535063113605
-2.39350283663953E-05,1.07679652501247E-05,2.8125,0,0.00887535063113605
-2.28479220822919E-05,9.40886093303561E-06,2.8125,0,0.00887535063113605
-1.99383066501468E-05,8.96344226930523E-06,2.8125,0,0.00887535063113605
-1.99037622223841E-05,9.20647744351299E-06,2.8125,0,0.00887535063113605
-2.08406927413307E-05,8.75306614034344E-06,2.8125,0,0.00887535063113605
-2.46007730311248E-05,9.3753569672117E-06,2.8125,0,0.00887535063113605
-2.44519651459996E-05,9.68507993093226E-06,2.8125,0,0.00887535063113605
-2.57185783993918E-05,9.8877817436005E-06,2.8125,0,0.00887535063113605
-2.51801266131224E-05,8.56831502460409E-06,2.8125,0,0.00887535063113605
-2.63565816567279E-05,7.75349872128572E-06,2.8125,0,0.00887535063113605
-2.48560736508807E-05,7.35226967663039E-06,2.8125,0,0.00887535063113605
-2.53863017860567E-05,8.22845322545618E-06,2.8125,0,0.00887535063113605
-2.47636198764667E-05,7.97880784375593E-06,2.8125,0,0.00887535063113605
-2.53918351518223E-05,7.33500655769603E-06,2.8125,0,0.00887535063113605
-2.40631161432248E-05,8.83453594724415E-06,2.8125,0,0.00887535063113605
-2.23544775508344E-05,1.14011572804884E-05,2.8125,0,0.00887535063113605
-2.12803133763373E-05,1.20051081466954E-05,2.8125,0,0.00887535063113605
-2.15969412238337E-05,1.332121064479E-05,2.8125,0,0.00887535063113605
-1.81310697371373E-05,1.06014076663996E-05,2.8125,0,0.00887535063113605
-2.62394460150972E-05,1.27456569316564E-05,2.8125,0,0.00887535063113605
-2.14159808820114E-05,8.05007584858686E-06,2.8125,0,0.00887535063113605
-2.65009857685072E-05,1.3462913557305E-05,2.8125,0,0.00887535063113605
-2.27256186917657E-05,1.15732791527989E-05,2.8125,0,0.00887535063113605
-2.61486384260934E-05,1.26972981888684E-05,2.8125,0,0.00887535063113605
-2.51117962761782E-05,1.04252640085178E-05,2.8125,0,0.00887535063113605
-2.54031092481455E-05,9.73981059360085E-06,2.8125,0,0.00887535063113605
-2.33291102631483E-05,8.51882487040712E-06,2.8125,0,0.00887535063113605
-2.29353227041429E-05,7.64836386224488E-06,2.8125,0,0.00887535063113605
-2.40817298617912E-05,8.08885852165986E-06,2.8125,0,0.00887535063113605
-2.45287556026597E-05,7.99240297055803E-06,2.8125,0,0.00887535063113605
-2.48851738433586E-05,8.80226616573054E-06,2.8125,0,0.00887535063113605
-2.32965812756447E-05,9.87374733085744E-06,2.8125,0,0.00887535063113605
-2.45600549533265E-05,1.31741508084815E-05,2.8125,0,0.00887535063113605
-2.45096125581767E-05,1.42239587148651E-05,2.8125,0,0.00887535063113605
-2.59312673733803E-05,1.49601264638477E-05,2.8125,0,0.00887535063113605
-2.43943522946211E-05,1.37198303491459E-05,2.8125,0,0.00887535063113605
-2.45769915636629E-05,1.29318250401411E-05,2.8125,0,0.00887535063113605
-2.30220502999146E-05,1.12753195935511E-05,2.8125,0,0.00887535063113605
-2.25020321522607E-05,1.09057373265387E-05,2.8125,0,0.00887535063113605
-2.09166973945685E-05,1.11857316369424E-05,2.8125,0,0.00887535063113605
-2.05873620870989E-05,1.3654649592354E-05,2.8125,0,0.00887535063113605
-2.03088166017551E-05,1.41570508276345E-05,2.8125,0,0.00887535063113605
-2.20605197682744E-05,1.50945606947062E-05,2.8125,0,0.00887535063113605
-2.37441108765779E-05,1.8864675439545E-05,2.8125,0,0.00887535063113605
-2.49098302447237E-05,1.96355158550432E-05,2.8125,0,0.00887535063113605
-2.00175927602686E-05,1.19728974823374E-05,2.8125,0,0.00887535063113605
-2.7127452995046E-05,1.53309847519267E-05,2.8125,0,0.00887535063113605
-1.88908397831256E-05,1.17495892482111E-05,2.8125,0,0.00887535063113605
-2.45282190007856E-05,1.635197440919E-05,2.8125,0,0.00887535063113605
-2.06351160159102E-05,1.09231123133213E-05,2.8125,0,0.00887535063113605
-2.40708814089885E-05,9.21251466934336E-06,2.8125,0,0.00887535063113605
-2.26785359700443E-05,6.05149170951336E-06,2.8125,0,0.00887535063113605
-2.3180198695627E-05,8.16884130472317E-06,2.8125,0,0.00887535063113605
-2.23291317524854E-05,9.26798475120449E-06,2.8125,0,0.00887535063113605
-2.21724149014335E-05,9.33545288717141E-06,2.8125,0,0.00887535063113605
-2.20932943193475E-05,8.14935083326418E-06,2.8125,0,0.00887535063113605
-2.27929594984744E-05,7.27982933312887E-06,2.8125,0,0.00887535063113605
-2.49526383413468E-05,8.67913149704691E-06,2.8125,0,0.00887535063113605
-2.37282438320108E-05,8.16951705928659E-06,2.8125,0,0.00887535063113605
-2.3767162929289E-05,8.12886537460145E-06,2.8125,0,0.00887535063113605
-2.14723222597968E-05,6.71562975185225E-06,2.8125,0,0.00887535063113605
-2.13838520721765E-05,6.87395231580012E-06,2.8125,0,0.00887535063113605
-1.95107968465891E-05,5.45853436051402E-06,2.8125,0,0.00887535063113605
-2.01061939151259E-05,6.68715256324504E-06,2.8125,0,0.00887535063113605
-1.90662594832247E-05,7.42049178370507E-06,2.8125,0,0.00887535063113605
-1.91950002772501E-05,7.80185837356839E-06,2.8125,0,0.00887535063113605
-1.80345905391732E-05,6.90285878590657E-06,2.8125,0,0.00887535063113605
-1.93369032785995E-05,7.73048213886796E-06,2.8125,0,0.00887535063113605
-2.05740816454636E-05,7.72195835452294E-06,2.8125,0,0.00887535063113605
-2.1252257283777E-05,7.49530545363086E-06,2.8125,0,0.00887535063113605
-2.06603745027678E-05,5.70628253626637E-06,2.8125,0,0.00887535063113605
-2.08858782571042E-05,4.47852744400734E-06,2.8125,0,0.00887535063113605
-1.81292434717761E-05,3.56967871084635E-06,2.8125,0,0.00887535063113605
-2.57142801274313E-05,6.1866085161455E-06,2.8125,0,0.00887535063113605
-1.92605184565764E-05,7.60360944696004E-06,2.8125,0,0.00887535063113605
-2.46768031502143E-05,9.84394682745915E-06,2.8125,0,0.00887535063113605
-2.17537944990909E-05,1.01924670161679E-05,2.8125,0,0.00887535063113605
-2.31234025704907E-05,1.2482639249356E-05,2.8125,0,0.00887535063113605
-2.05906926566968E-05,1.26756649478921E-05,2.8125,0,0.00887535063113605
-2.21424925257452E-05,1.23794488899875E-05,2.8125,0,0.00887535063113605
-2.27576438192045E-05,1.27312123368029E-05,2.8125,0,0.00887535063113605
-2.3274869818124E-05,1.33941366584622E-05,2.8125,0,0.00887535063113605
-2.34569906751858E-05,1.1286258995824E-05,2.8125,0,0.00887535063113605
-2.25890998990508E-05,7.70794940763153E-06,2.8125,0,0.00887535063113605
-2.29868855967652E-05,7.17011835149606E-06,2.8125,0,0.00887535063113605
-2.22515318455407E-05,8.62596880324418E-06,2.8125,0,0.00887535063113605
-2.3662498279009E-05,1.0454006769578E-05,2.8125,0,0.00887535063113605
-2.28932785830693E-05,1.04728569567669E-05,2.8125,0,0.00887535063113605
-2.31966532737715E-05,9.95214304566616E-06,2.8125,0,0.00887535063113605
-2.13912153412821E-05,1.0511694199522E-05,2.8125,0,0.00887535063113605
-2.21461359615205E-05,1.29865011331276E-05,2.8125,0,0.00887535063113605
-2.18446930375649E-05,1.45810890899156E-05,2.8125,0,0.00887535063113605
-2.25354124268051E-05,1.49320458149305E-05,2.8125,0,0.00887535063113605
-2.19454814214259E-05,1.39298208523542E-05,2.8125,0,0.00887535063113605
-2.3031941964291E-05,1.36317548822262E-05,2.8125,0,0.00887535063113605
-2.36666419368703E-05,1.37244096549693E-05,2.8125,0,0.00887535063113605
-2.38283755606972E-05,1.2473752576625E-05,2.8125,0,0.00887535063113605
-2.4165929062292E-05,1.05885555967689E-05,2.8125,0,0.00887535063113605
-2.60726246779086E-05,9.21192713576602E-06,2.8125,0,0.00887535063113605
-2.13674502447248E-05,6.94159871272859E-06,2.8125,0,0.00887535063113605
-2.99961229757173E-05,1.09239254015847E-05,2.8125,0,0.00887535063113605
-2.33330065384507E-05,9.55186442297418E-06,2.8125,0,0.00887535063113605
-2.97573969874065E-05,1.22912006190745E-05,2.8125,0,0.00887535063113605
-2.41908237512689E-05,1.15091943371226E-05,2.8125,0,0.00887535063113605
-2.6364303266746E-05,1.24213802337181E-05,2.8125,0,0.00887535063113605
-2.51404071605066E-05,1.18943935376592E-05,2.8125,0,0.00887535063113605
-2.84256457234733E-05,1.29696818476077E-05,2.8125,0,0.00887535063113605
-2.88497158180689E-05,1.48729559441563E-05,2.8125,0,0.00887535063113605
-2.92397344310302E-05,1.50180594573612E-05,2.8125,0,0.00887535063113605
-2.91008291242179E-05,1.38735877044383E-05,2.8125,0,0.00887535063113605
-2.74782396445517E-05,1.28119709188468E-05,2.8125,0,0.00887535063113605
-2.73059558821842E-05,1.25062042570789E-05,2.8125,0,0.00887535063113605
-2.60728575085523E-05,1.12122852442553E-05,2.8125,0,0.00887535063113605
-2.76778646366438E-05,1.13884143502219E-05,2.8125,0,0.00887535063113605
-2.61674776993459E-05,1.23645913845394E-05,2.8125,0,0.00887535063113605
-2.63637284660945E-05,1.28476021927781E-05,2.8125,0,0.00887535063113605
-2.46868585236371E-05,1.16410810733214E-05,2.8125,0,0.00887535063113605
-2.61464738287032E-05,1.08096437543281E-05,2.8125,0,0.00887535063113605
-2.61284803855233E-05,8.27394433144946E-06,2.8125,0,0.00887535063113605
-2.74488065770129E-05,4.75465685667587E-06,2.8125,0,0.00887535063113605
-2.69496886176057E-05,1.96170185517985E-06,2.8125,0,0.00887535063113605
-2.77433427982032E-05,1.26902307329146E-06,2.8125,0,0.00887535063113605
-2.64939499174943E-05,2.97495535050984E-06,2.8125,0,0.00887535063113605
-2.52222889685072E-05,6.86449038767023E-06,2.8125,0,0.00887535063113605
-2.37549975281581E-05,1.08871663542232E-05,2.8125,0,0.00887535063113605
-2.31023077503778E-05,1.2860688912042E-05,2.8125,0,0.00887535063113605
-1.97612189367646E-05,9.11765073396964E-06,2.8125,0,0.00887535063113605
-2.85644618998049E-05,1.20503273137729E-05,2.8125,0,0.00887535063113605
-2.17917495319853E-05,9.93153389572399E-06,2.8125,0,0.00887535063113605
-2.65093513007741E-05,1.33326029754244E-05,2.8125,0,0.00887535063113605
-2.2975489628152E-05,9.91931210592156E-06,2.8125,0,0.00887535063113605
-2.52738936978858E-05,1.14321155706421E-05,2.8125,0,0.00887535063113605
-2.24786690523615E-05,1.10590217445861E-05,2.8125,0,0.00887535063113605
-2.34047965932405E-05,1.25217820823309E-05,2.8125,0,0.00887535063113605
-2.3629052520846E-05,1.2534047527879E-05,2.8125,0,0.00887535063113605
-2.46870586124714E-05,1.19812139018904E-05,2.8125,0,0.00887535063113605
-2.47169882641174E-05,1.10912742457003E-05,2.8125,0,0.00887535063113605
-2.28134558710735E-05,9.94861329672858E-06,2.8125,0,0.00887535063113605
-2.24626382987481E-05,1.03838392533362E-05,2.8125,0,0.00887535063113605
-2.11528040381381E-05,9.91283832263434E-06,2.8125,0,0.00887535063113605
-2.27056643780088E-05,9.94083984551253E-06,2.8125,0,0.00887535063113605
-2.29186225624289E-05,9.06916284293402E-06,2.8125,0,0.00887535063113605
-2.45501942117698E-05,1.02759049696033E-05,2.8125,0,0.00887535063113605
-2.32310285355197E-05,1.11017125163926E-05,2.8125,0,0.00887535063113605
-2.47213629336329E-05,1.26744798762957E-05,2.8125,0,0.00887535063113605
-2.50098819378763E-05,1.18762109195814E-05,2.8125,0,0.00887535063113605
-2.60040342254797E-05,1.15203329187352E-05,2.8125,0,0.00887535063113605
-2.49934400926577E-05,1.17468161988654E-05,2.8125,0,0.00887535063113605
-2.35408115258906E-05,1.3931431567471E-05,2.8125,0,0.00887535063113605
-2.15090694837272E-05,1.61780317284865E-05,2.8125,0,0.00887535063113605
-2.17347151192371E-05,1.76402845681878E-05,2.8125,0,0.00887535063113605
-2.15659474633867E-05,1.75101631612051E-05,2.8125,0,0.00887535063113605
-2.07830817089416E-05,1.59053961397149E-05,2.8125,0,0.00887535063113605
-1.54046520037809E-05,1.02125468401937E-05,2.8125,0,0.00887535063113605
-2.13223102036864E-05,1.47777363963542E-05,2.8125,0,0.00887535063113605
-1.61733878485393E-05,1.27055545817711E-05,2.8125,0,0.00887535063113605
-2.14787633012747E-05,1.62024607561762E-05,2.8125,0,0.00887535063113605
-1.9422823243076E-05,1.41880655064597E-05,2.8125,0,0.00887535063113605
-2.1734178517363E-05,1.59000719577307E-05,2.8125,0,0.00887535063113605
-2.06153727049241E-05,1.36418429974583E-05,2.8125,0,0.00887535063113605
-2.3323384084506E-05,1.27726880236878E-05,2.8125,0,0.00887535063113605
-2.3682488972554E-05,1.21527091323514E-05,2.8125,0,0.00887535063113605
-2.29311044677161E-05,1.29975132949767E-05,2.8125,0,0.00887535063113605
-2.24853301915573E-05,1.32705008581979E-05,2.8125,0,0.00887535063113605
-2.27794716920471E-05,1.33147186716087E-05,2.8125,0,0.00887535063113605
-2.48125179496128E-05,1.4485105566564E-05,2.8125,0,0.00887535063113605
-2.44797338382341E-05,1.38942841658718E-05,2.8125,0,0.00887535063113605
-2.46216277446365E-05,1.37779015858541E-05,2.8125,0,0.00887535063113605
-2.28164444706636E-05,1.31952510855626E-05,2.8125,0,0.00887535063113605
-2.27259733946994E-05,1.46517113535083E-05,2.8125,0,0.00887535063113605
-2.14799420064082E-05,1.48448252730304E-05,2.8125,0,0.00887535063113605
-2.23330607695971E-05,1.52549218910281E-05,2.8125,0,0.00887535063113605
-2.20084930333542E-05,1.43391134770354E-05,2.8125,0,0.00887535063113605
-2.38975117099471E-05,1.35550581035204E-05,2.8125,0,0.00887535063113605
-2.53342550422531E-05,1.10116052383091E-05,2.8125,0,0.00887535063113605
-2.72600827884162E-05,8.53864912642166E-06,2.8125,0,0.00887535063113605
-2.7880816560355E-05,7.10209906173986E-06,2.8125,0,0.00887535063113605
-2.72113593382528E-05,8.22447964310413E-06,2.8125,0,0.00887535063113605
-2.60025863099145E-05,7.91305046732305E-06,2.8125,0,0.00887535063113605
-2.64379177679075E-05,7.39127017368446E-06,2.8125,0,0.00887535063113605
-2.19167068280512E-05,8.33841386338463E-06,2.8125,0,0.00887535063113605
-3.1158393539954E-05,1.46624524859362E-05,2.8125,0,0.00887535063113605
-2.34907547564944E-05,1.34846231958363E-05,2.8125,0,0.00887535063113605
-2.78446459560655E-05,1.21638440759853E-05,2.8125,0,0.00887535063113605
-2.14975589187816E-05,6.37478342468967E-06,2.8125,0,0.00887535063113605
-2.48445066972636E-05,5.04484114571824E-06,2.8125,0,0.00887535063113605
-2.38152861129493E-05,4.92601611767896E-06,2.8125,0,0.00887535063113605
-2.53965354204411E-05,5.78626622882439E-06,2.8125,0,0.00887535063113605
-2.51382898568409E-05,5.7828328863252E-06,2.8125,0,0.00887535063113605
-2.54716014751466E-05,4.81509005112457E-06,2.8125,0,0.00887535063113605
-2.52211157203419E-05,4.25429607275873E-06,2.8125,0,0.00887535063113605
-2.41189281950938E-05,4.74263561045518E-06,2.8125,0,0.00887535063113605
-2.46047602558974E-05,5.76320189793478E-06,2.8125,0,0.00887535063113605
-2.27765067393193E-05,6.18301100985263E-06,2.8125,0,0.00887535063113605
-2.27431519306265E-05,8.22069523565006E-06,2.8125,0,0.00887535063113605
-2.08578221645439E-05,8.65151923790108E-06,2.8125,0,0.00887535063113605
-2.26519823627314E-05,7.575404652016E-06,2.8125,0,0.00887535063113605
-2.25064559344901E-05,6.17921978118829E-06,2.8125,0,0.00887535063113605
-2.33879691222683E-05,6.82558811604395E-06,2.8125,0,0.00887535063113605
-2.12865925277583E-05,6.88074578647502E-06,2.8125,0,0.00887535063113605
-2.21696755033918E-05,6.24232643531286E-06,2.8125,0,0.00887535063113605
-2.30885525525082E-05,4.56872885479243E-06,2.8125,0,0.00887535063113605
-2.44322109210771E-05,3.26367990055587E-06,2.8125,0,0.00887535063113605
-2.32254878937965E-05,2.46899367084552E-06,2.8125,0,0.00887535063113605
-2.18818568100687E-05,2.54333372140536E-06,2.8125,0,0.00887535063113605
-2.12381510209525E-05,2.59381658906932E-06,2.8125,0,0.00887535063113605
-2.19280300370883E-05,3.63122330782062E-06,2.8125,0,0.00887535063113605
-1.86773049790645E-05,5.32435342393001E-06,2.8125,0,0.00887535063113605
-2.64849732047878E-05,8.58317434904166E-06,2.8125,0,0.00887535063113605
-1.94740314327646E-05,8.30813496577321E-06,2.8125,0,0.00887535063113605
-2.41134621319361E-05,1.10648479676456E-05,2.8125,0,0.00887535063113605
-2.17380675167078E-05,1.04038354038494E-05,2.8125,0,0.00887535063113605
-2.42864807660226E-05,1.0610415301926E-05,2.8125,0,0.00887535063113605
-2.16623684536899E-05,1.07399901025929E-05,2.8125,0,0.00887535063113605
-2.27813125093235E-05,1.15645334517467E-05,2.8125,0,0.00887535063113605
-2.25303301704116E-05,1.24419093481265E-05,2.8125,0,0.00887535063113605
-2.37130570894806E-05,1.34728161356179E-05,2.8125,0,0.00887535063113605
-2.48374763032189E-05,1.45245830935892E-05,2.8125,0,0.00887535063113605
-2.43288450292312E-05,1.56751539179822E-05,2.8125,0,0.00887535063113605
-2.43325976043707E-05,1.65793699125061E-05,2.8125,0,0.00887535063113605
-2.2036321752239E-05,1.50278146975324E-05,2.8125,0,0.00887535063113605
-2.17243868974037E-05,1.25643000501441E-05,2.8125,0,0.00887535063113605
-1.99141468328889E-05,9.83589870884316E-06,2.8125,0,0.00887535063113605
-2.10818070627283E-05,9.03465206647525E-06,2.8125,0,0.00887535063113605
-2.10504367714748E-05,9.63885395321995E-06,2.8125,0,0.00887535063113605
-2.3362383217318E-05,1.15936345537193E-05,2.8125,0,0.00887535063113605
-2.39147175307153E-05,1.33394532895181E-05,2.8125,0,0.00887535063113605
-2.47739808401093E-05,1.53359851537971E-05,2.8125,0,0.00887535063113605
-2.365981163166E-05,1.55214347614674E-05,2.8125,0,0.00887535063113605
-2.3668646463193E-05,1.349929607386E-05,2.8125,0,0.00887535063113605
-2.27819709834876E-05,1.12534189611324E-05,2.8125,0,0.00887535063113605
-2.21917071030475E-05,1.04640193967498E-05,2.8125,0,0.00887535063113605
-2.0729827156174E-05,9.37084678298561E-06,2.8125,0,0.00887535063113605
-1.99373735085828E-05,8.21668163553113E-06,2.8125,0,0.00887535063113605
-1.75860823219409E-05,7.75908665673342E-06,2.8125,0,0.00887535063113605
-2.6649011488189E-05,1.26090490084607E-05,2.8125,0,0.00887535063113605
-2.1405039660749E-05,1.14565109470277E-05,2.8125,0,0.00887535063113605
-2.42025380430277E-05,1.1449395060481E-05,2.8125,0,0.00887535063113605
-2.09704303415492E-05,4.57990881841397E-06,2.8125,0,0.00887535063113605
-2.48942524194717E-05,-2.34322541814436E-07,2.8125,0,0.00887535063113605
-2.41644993366208E-05,-3.17144349537557E-06,2.8125,0,0.00887535063113605
-2.53773905569687E-05,1.48777360209351E-07,2.8125,0,0.00887535063113605
-2.48811575147556E-05,6.16765009908704E-06,2.8125,0,0.00887535063113605
-2.45830015046522E-05,1.11222425402957E-05,2.8125,0,0.00887535063113605
-2.41779143834719E-05,1.22446799650788E-05,2.8125,0,0.00887535063113605
-2.32708662224468E-05,1.08672238638974E-05,2.8125,0,0.00887535063113605
-2.45702776737744E-05,1.08556478153332E-05,2.8125,0,0.00887535063113605
-2.54250335274264E-05,1.13466976472409E-05,2.8125,0,0.00887535063113605
-2.75891179626342E-05,1.21036509881378E-05,2.8125,0,0.00887535063113605
-2.60620181506965E-05,1.16059991341899E-05,2.8125,0,0.00887535063113605
-2.47509015025571E-05,1.14456488518044E-05,2.8125,0,0.00887535063113605
-2.22467351704836E-05,9.93254161585355E-06,2.8125,0,0.00887535063113605
-2.31533540500095E-05,8.85457302501891E-06,2.8125,0,0.00887535063113605
-2.35603747569257E-05,7.92523042036919E-06,2.8125,0,0.00887535063113605
-2.51738201768603E-05,8.96405708772363E-06,2.8125,0,0.00887535063113605
-2.49308541242499E-05,1.01528612503898E-05,2.8125,0,0.00887535063113605
-2.43747163040098E-05,1.08735766843893E-05,2.8125,0,0.00887535063113605
-2.24912782869069E-05,9.96851940726629E-06,2.8125,0,0.00887535063113605
-2.15684067370603E-05,9.10457765712636E-06,2.8125,0,0.00887535063113605
-2.21586615225533E-05,9.7425554486108E-06,2.8125,0,0.00887535063113605
-2.36099203902995E-05,1.10585078800796E-05,2.8125,0,0.00887535063113605
-2.02962473849766E-05,7.21094465916394E-06,2.8125,0,0.00887535063113605
-2.97429814963834E-05,8.68505867401836E-06,2.8125,0,0.00887535063113605
-2.30707628361415E-05,6.02439740760019E-06,2.8125,0,0.00887535063113605
-2.8256197765586E-05,8.08839195087785E-06,2.8125,0,0.00887535063113605
-2.46132858592318E-05,4.94472442369442E-06,2.8125,0,0.00887535063113605
-2.78462903224863E-05,7.78517642174847E-06,2.8125,0,0.00887535063113605
-2.70217660727212E-05,9.91479919321137E-06,2.8125,0,0.00887535063113605
-2.84361849480774E-05,1.21375851449557E-05,2.8125,0,0.00887535063113605
-2.75085458270041E-05,1.25609358292422E-05,2.8125,0,0.00887535063113605
-2.67954310402274E-05,1.26584154713782E-05,2.8125,0,0.00887535063113605
-2.6323144993512E-05,1.23961772260373E-05,2.8125,0,0.00887535063113605
-2.54674905590946E-05,1.1874068150064E-05,2.8125,0,0.00887535063113605
-2.72334364126436E-05,1.10177224996733E-05,2.8125,0,0.00887535063113605
-2.64838909060927E-05,9.02528063306818E-06,2.8125,0,0.00887535063113605
-2.56397033808753E-05,1.00560109785874E-05,2.8125,0,0.00887535063113605
-2.26986485358793E-05,1.28786914501688E-05,2.8125,0,0.00887535063113605
-2.31766098295338E-05,1.62171872943873E-05,2.8125,0,0.00887535063113605
-2.31540179811418E-05,1.55024772539036E-05,2.8125,0,0.00887535063113605
-2.49532258749241E-05,1.31524184325826E-05,2.8125,0,0.00887535063113605
-2.44715301960241E-05,1.08002841443522E-05,2.8125,0,0.00887535063113605
-2.55938248301391E-05,1.259671535081E-05,2.8125,0,0.00887535063113605
-2.52364261541516E-05,1.47501823448692E-05,2.8125,0,0.00887535063113605
-2.58664222201332E-05,1.44297646329505E-05,2.8125,0,0.00887535063113605
-2.53123871516436E-05,1.37704000735539E-05,2.8125,0,0.00887535063113605
-2.50824705290142E-05,1.58377988555003E-05,2.8125,0,0.00887535063113605
-2.56236835411983E-05,1.60242361744167E-05,2.8125,0,0.00887535063113605
-2.59884691331536E-05,1.54131339513697E-05,2.8125,0,0.00887535063113605
-2.08306209970033E-05,1.38896566568292E-05,2.8125,0,0.00887535063113605
-2.85550577245886E-05,2.09179088415112E-05,2.8125,0,0.00887535063113605
-2.07871344173327E-05,1.5501622328884E-05,2.8125,0,0.00887535063113605
-2.62675785052124E-05,1.55088619067101E-05,2.8125,0,0.00887535063113605
-2.11766200663988E-05,1.07795212898054E-05,2.8125,0,0.00887535063113605
-2.44333969021682E-05,1.42577182487003E-05,2.8125,0,0.00887535063113605
-2.35077786783222E-05,1.66173940669978E-05,2.8125,0,0.00887535063113605
-2.5472631023149E-05,1.88756930583622E-05,2.8125,0,0.00887535063113605
-2.42335408984218E-05,1.77077236003242E-05,2.8125,0,0.00887535063113605
-2.32603815675247E-05,1.59426599566359E-05,2.8125,0,0.00887535063113605
-2.32446072914172E-05,1.48568497024826E-05,2.8125,0,0.00887535063113605
-2.31851809076034E-05,1.3270046110847E-05,2.8125,0,0.00887535063113605
-2.47275893343613E-05,1.1278217243671E-05,2.8125,0,0.00887535063113605
-2.40174467762699E-05,1.02643853097106E-05,2.8125,0,0.00887535063113605
-2.51957553700777E-05,1.35281043185387E-05,2.8125,0,0.00887535063113605
-2.36760552070336E-05,1.43357956403634E-05,2.8125,0,0.00887535063113605
-2.42057194554945E-05,1.35301897898898E-05,2.8125,0,0.00887535063113605
-2.27438231377164E-05,1.14988979476038E-05,2.8125,0,0.00887535063113605
-2.36328505707206E-05,1.24583857541438E-05,2.8125,0,0.00887535063113605
-2.16874504985753E-05,1.24882408272242E-05,2.8125,0,0.00887535063113605
-2.15440686588408E-05,1.26257982628886E-05,2.8125,0,0.00887535063113605
-2.169618892367E-05,1.20772929221857E-05,2.8125,0,0.00887535063113605
-2.35228562814882E-05,1.40677811941714E-05,2.8125,0,0.00887535063113605
-2.34137041843496E-05,1.50939677041606E-05,2.8125,0,0.00887535063113605
-2.26881420530844E-05,1.46963111546938E-05,2.8125,0,0.00887535063113605
-2.08356959774392E-05,1.37575625558384E-05,2.8125,0,0.00887535063113605
-2.07438297366025E-05,1.15117782115703E-05,2.8125,0,0.00887535063113605
-1.86719607881969E-05,6.55686744721606E-06,2.8125,0,0.00887535063113605
-2.67531231656903E-05,8.61031185195316E-06,2.8125,0,0.00887535063113605
-1.90916343854042E-05,5.63859430258162E-06,2.8125,0,0.00887535063113605
-2.2435615392169E-05,8.019319466257E-06,2.8125,0,0.00887535063113605
-1.90661394299241E-05,6.06635012445622E-06,2.8125,0,0.00887535063113605
-2.19409248529701E-05,4.41106840298744E-06,2.8125,0,0.00887535063113605
-2.11633760045515E-05,3.37619690071733E-06,2.8125,0,0.00887535063113605
-2.33939699683106E-05,5.79887864660122E-06,2.8125,0,0.00887535063113605
-2.30094246944645E-05,8.41443124954822E-06,2.8125,0,0.00887535063113605
-2.17214419535594E-05,1.03272850537905E-05,2.8125,0,0.00887535063113605
-2.02851770154666E-05,1.03062093330664E-05,2.8125,0,0.00887535063113605
-1.95507072930923E-05,8.44080113893142E-06,2.8125,0,0.00887535063113605
-2.11084279726492E-05,8.0030558819999E-06,2.8125,0,0.00887535063113605
-2.12480990740005E-05,8.91340368980309E-06,2.8125,0,0.00887535063113605
-2.35585976042785E-05,1.08433541754493E-05,2.8125,0,0.00887535063113605
-2.36091873375699E-05,1.14208314698772E-05,2.8125,0,0.00887535063113605
-2.47636271524243E-05,1.21766070151352E-05,2.8125,0,0.00887535063113605
-2.36290470638778E-05,1.14907206807402E-05,2.8125,0,0.00887535063113605
-2.39800992858363E-05,9.86439317784971E-06,2.8125,0,0.00887535063113605
-2.23345450649504E-05,8.08492222859059E-06,2.8125,0,0.00887535063113605
-2.23786482820287E-05,9.16715816856595E-06,2.8125,0,0.00887535063113605
-2.19717658183072E-05,1.05401095424895E-05,2.8125,0,0.00887535063113605
-2.20976180571597E-05,1.17098779810476E-05,2.8125,0,0.00887535063113605
-2.09169684239896E-05,1.18745983854751E-05,2.8125,0,0.00887535063113605
-2.11392925848486E-05,1.12988209366449E-05,2.8125,0,0.00887535063113605
-2.23665410885587E-05,1.125277049141E-05,2.8125,0,0.00887535063113605
-2.37440563068958E-05,1.1825303772639E-05,2.8125,0,0.00887535063113605
-1.9203054762329E-05,1.1433332474553E-05,2.8125,0,0.00887535063113605
-2.71484259428689E-05,1.65186866070144E-05,2.8125,0,0.00887535063113605
-2.01039874809794E-05,1.22665505841724E-05,2.8125,0,0.00887535063113605
-2.37616914091632E-05,1.39904113893863E-05,2.8125,0,0.00887535063113605
-1.94784861378139E-05,9.75316288531758E-06,2.8125,0,0.00887535063113605
-2.33892460528295E-05,1.00213073892519E-05,2.8125,0,0.00887535063113605
-2.3117805540096E-05,7.5759148785437E-06,2.8125,0,0.00887535063113605
-2.62643661699258E-05,5.95143910686602E-06,2.8125,0,0.00887535063113605
-2.59994103544159E-05,4.77072671856149E-06,2.8125,0,0.00887535063113605
-2.57506071648095E-05,5.2752302508452E-06,2.8125,0,0.00887535063113605
-2.63544716290198E-05,6.41156839265022E-06,2.8125,0,0.00887535063113605
-2.65727830992546E-05,6.31772491033189E-06,2.8125,0,0.00887535063113605
-2.76655191555619E-05,7.19202444088296E-06,2.8125,0,0.00887535063113605
-2.63676774920896E-05,8.30273347673938E-06,2.8125,0,0.00887535063113605
-2.7364458219381E-05,1.05643075585249E-05,2.8125,0,0.00887535063113605
-2.6712139515439E-05,1.0083090273838E-05,2.8125,0,0.00887535063113605
-2.85388887277804E-05,1.01067753348616E-05,2.8125,0,0.00887535063113605
-2.80727035715245E-05,8.37813968246337E-06,2.8125,0,0.00887535063113605
-2.82252240140224E-05,7.74511318013538E-06,2.8125,0,0.00887535063113605
-2.55162394751096E-05,7.99297777120955E-06,2.8125,0,0.00887535063113605
-2.54603855864843E-05,1.02777348729433E-05,2.8125,0,0.00887535063113605
-2.53936468652682E-05,1.12813695523073E-05,2.8125,0,0.00887535063113605
-2.60503929894185E-05,1.10956689240993E-05,2.8125,0,0.00887535063113605
-2.53787166002439E-05,1.08099447970744E-05,2.8125,0,0.00887535063113605
-2.44816419581184E-05,1.23112358778599E-05,2.8125,0,0.00887535063113605
-2.29795896302676E-05,1.26604491015314E-05,2.8125,0,0.00887535063113605
-2.23666975216474E-05,1.01290279417299E-05,2.8125,0,0.00887535063113605
-1.75795357790776E-05,6.55465146337519E-06,2.8125,0,0.00887535063113605
-2.52106656262185E-05,1.0190655302722E-05,2.8125,0,0.00887535063113605
-2.01819111680379E-05,8.05318722996162E-06,2.8125,0,0.00887535063113605
-2.50997763941996E-05,8.42882400320377E-06,2.8125,0,0.00887535063113605
-2.06093391170725E-05,7.59950125939213E-06,2.8125,0,0.00887535063113605
-2.3153523216024E-05,9.74879094428616E-06,2.8125,0,0.00887535063113605
-2.23646620725049E-05,1.00656125141541E-05,2.8125,0,0.00887535063113605
-2.3412028895109E-05,9.4244514912134E-06,2.8125,0,0.00887535063113605
-2.17961242015008E-05,6.93461879563984E-06,2.8125,0,0.00887535063113605
-2.09285808523418E-05,6.75061983201886E-06,2.8125,0,0.00887535063113605
-2.1309218936949E-05,8.52521679917118E-06,2.8125,0,0.00887535063113605
-2.13889870792627E-05,1.07833830043091E-05,2.8125,0,0.00887535063113605
-2.21959871851141E-05,1.26322456708294E-05,2.8125,0,0.00887535063113605
-2.0429419237189E-05,1.25191309052752E-05,2.8125,0,0.00887535063113605
-2.13275761780096E-05,1.27641978906468E-05,2.8125,0,0.00887535063113605
-2.14363863051403E-05,1.25355691125151E-05,2.8125,0,0.00887535063113605
-2.32881575357169E-05,1.36362577904947E-05,2.8125,0,0.00887535063113605
-2.32733182201628E-05,1.42730377774569E-05,2.8125,0,0.00887535063113605
-2.48036285483977E-05,1.36226062750211E-05,2.8125,0,0.00887535063113605
-2.43229587795213E-05,1.01962295957492E-05,2.8125,0,0.00887535063113605
-2.51089404628146E-05,7.08931065673823E-06,2.8125,0,0.00887535063113605
-2.5226516299881E-05,5.10211884829914E-06,2.8125,0,0.00887535063113605
-2.6241779778502E-05,5.00761552757467E-06,2.8125,0,0.00887535063113605
-2.47143998421961E-05,5.16468935529701E-06,2.8125,0,0.00887535063113605
-2.29492216021754E-05,4.7801681830606E-06,2.8125,0,0.00887535063113605
-2.25126041186741E-05,5.06881724504638E-06,2.8125,0,0.00887535063113605
-2.33309820032446E-05,6.78209153193166E-06,2.8125,0,0.00887535063113605
-2.00177637452725E-05,6.13733982390841E-06,2.8125,0,0.00887535063113605
-2.88366481981939E-05,8.96061555977212E-06,2.8125,0,0.00887535063113605
-2.21318714466179E-05,8.0413265095558E-06,2.8125,0,0.00887535063113605
-2.65135131485295E-05,1.09103721115389E-05,2.8125,0,0.00887535063113605
-2.21111513383221E-05,9.68371205090079E-06,2.8125,0,0.00887535063113605
-2.6528457965469E-05,9.93423691397766E-06,2.8125,0,0.00887535063113605
-2.62382854998577E-05,8.40572010929463E-06,2.8125,0,0.00887535063113605
-2.726809179876E-05,8.27749863674399E-06,2.8125,0,0.00887535063113605
-2.53685084317112E-05,7.47158082958777E-06,2.8125,0,0.00887535063113605
-2.38965258176904E-05,5.28764621776645E-06,2.8125,0,0.00887535063113605
-2.34740673477063E-05,4.25714051743853E-06,2.8125,0,0.00887535063113605
-2.3204471290228E-05,5.71591772313695E-06,2.8125,0,0.00887535063113605
-2.48454089160077E-05,9.08833317225799E-06,2.8125,0,0.00887535063113605
-2.48227315751137E-05,1.04027312772814E-05,2.8125,0,0.00887535063113605
-2.69360843958566E-05,1.07474825199461E-05,2.8125,0,0.00887535063113605
-2.67763080046279E-05,1.07102696347283E-05,2.8125,0,0.00887535063113605
-2.83610534097534E-05,1.14847298391396E-05,2.8125,0,0.00887535063113605
-2.70928503596224E-05,1.08324402390281E-05,2.8125,0,0.00887535063113605
-2.67033592535881E-05,1.04006048786687E-05,2.8125,0,0.00887535063113605
-2.37731546803843E-05,1.0344361726311E-05,2.8125,0,0.00887535063113605
-2.26306365220807E-05,1.12003872345667E-05,2.8125,0,0.00887535063113605
-2.10594062082237E-05,1.08649328467436E-05,2.8125,0,0.00887535063113605
-2.13170515053207E-05,1.05943272501463E-05,2.8125,0,0.00887535063113605
-2.18379882426234E-05,1.06868428702001E-05,2.8125,0,0.00887535063113605
-2.28702429012628E-05,1.13367477752035E-05,2.8125,0,0.00887535063113605
-2.27268556045601E-05,1.06113739093416E-05,2.8125,0,0.00887535063113605
-2.33075497817481E-05,8.89310922502773E-06,2.8125,0,0.00887535063113605
-2.00232461793348E-05,9.12238283490296E-06,2.8125,0,0.00887535063113605
-2.80415206361795E-05,1.58567363541806E-05,2.8125,0,0.00887535063113605
-2.08666515391087E-05,1.50961932376958E-05,2.8125,0,0.00887535063113605
-2.65126091107959E-05,1.4792741239944E-05,2.8125,0,0.00887535063113605
-2.1740619558841E-05,1.15460807137424E-05,2.8125,0,0.00887535063113605
-2.35907136811875E-05,1.48793869811925E-05,2.8125,0,0.00887535063113605
-2.21416212298209E-05,1.437116679881E-05,2.8125,0,0.00887535063113605
-2.40125264099333E-05,1.25439082694356E-05,2.8125,0,0.00887535063113605
-2.39078854065156E-05,1.13373416752438E-05,2.8125,0,0.00887535063113605
-2.39074361161329E-05,1.13770838652272E-05,2.8125,0,0.00887535063113605
-2.41588440985652E-05,1.20516615425004E-05,2.8125,0,0.00887535063113605
-2.40451336139813E-05,1.2830387277063E-05,2.8125,0,0.00887535063113605
-2.48482538154349E-05,1.39659241540357E-05,2.8125,0,0.00887535063113605
-2.25413677981123E-05,1.3761015907221E-05,2.8125,0,0.00887535063113605
-2.26781339733861E-05,1.50712421600474E-05,2.8125,0,0.00887535063113605
-2.22471771849087E-05,1.57762096932856E-05,2.8125,0,0.00887535063113605
-2.46006547968136E-05,1.61507668963168E-05,2.8125,0,0.00887535063113605
-2.47888219746528E-05,1.39170724651194E-05,2.8125,0,0.00887535063113605
-2.63329729932593E-05,1.18429170470336E-05,2.8125,0,0.00887535063113605
-2.51462242886191E-05,1.07138776002103E-05,2.8125,0,0.00887535063113605
-2.51247256528586E-05,1.21907514767372E-05,2.8125,0,0.00887535063113605
-2.4314686015714E-05,1.35849395519472E-05,2.8125,0,0.00887535063113605
-2.4868128093658E-05,1.39481189762591E-05,2.8125,0,0.00887535063113605
-2.37833974097157E-05,1.29915833895211E-05,2.8125,0,0.00887535063113605
-2.22525795834372E-05,1.23662948681158E-05,2.8125,0,0.00887535063113605
-2.08939145522891E-05,1.23245754366508E-05,2.8125,0,0.00887535063113605
-2.1003965230193E-05,1.23287927635829E-05,2.8125,0,0.00887535063113605
-1.79859289346496E-05,8.85052850208012E-06,2.8125,0,0.00887535063113605
-2.61867808148963E-05,1.0473533620825E-05,2.8125,0,0.00887535063113605
-2.0943722120137E-05,4.50899869974819E-06,2.8125,0,0.00887535063113605
-2.62081211985787E-05,6.27451663604006E-06,2.8125,0,0.00887535063113605
-2.36961368500488E-05,5.60679336558678E-06,2.8125,0,0.00887535063113605
-2.63213714788435E-05,8.02815338829532E-06,2.8125,0,0.00887535063113605
-2.30435271078022E-05,7.7759050327586E-06,2.8125,0,0.00887535063113605
-2.34893559536431E-05,1.02904505183687E-05,2.8125,0,0.00887535063113605
-2.34630824706983E-05,1.21546154332464E-05,2.8125,0,0.00887535063113605
-2.38526990870014E-05,1.34740657813381E-05,2.8125,0,0.00887535063113605
-2.45799601543695E-05,1.22349192679394E-05,2.8125,0,0.00887535063113605
-2.41832658502972E-05,8.05384661362041E-06,2.8125,0,0.00887535063113605
-2.3908414732432E-05,5.48891102880589E-06,2.8125,0,0.00887535063113605
-2.10431735467864E-05,4.98786539537832E-06,2.8125,0,0.00887535063113605
-2.05179185286397E-05,6.58766066408134E-06,2.8125,0,0.00887535063113605
-1.97344579646597E-05,6.53180131848785E-06,2.8125,0,0.00887535063113605
-2.14156370930141E-05,7.77592140366323E-06,2.8125,0,0.00887535063113605
-2.05719752557343E-05,7.86068540037377E-06,2.8125,0,0.00887535063113605
-2.16271109820809E-05,8.05439776740968E-06,2.8125,0,0.00887535063113605
-2.17878950934391E-05,7.59898921387503E-06,2.8125,0,0.00887535063113605
-2.29161814786494E-05,8.85125336935744E-06,2.8125,0,0.00887535063113605
-2.16748139791889E-05,9.28351710172137E-06,2.8125,0,0.00887535063113605
-2.12897029996384E-05,8.99498627404682E-06,2.8125,0,0.00887535063113605
-2.14617812162032E-05,8.23879418021534E-06,2.8125,0,0.00887535063113605
-2.2040630938136E-05,8.87187252374133E-06,2.8125,0,0.00887535063113605
-2.14009996852838E-05,9.19493049877929E-06,2.8125,0,0.00887535063113605
-2.18053573917132E-05,8.49525440571597E-06,2.8125,0,0.00887535063113605
-1.94796157302335E-05,6.68668599246303E-06,2.8125,0,0.00887535063113605
-2.84497218672186E-05,9.20313686947338E-06,2.8125,0,0.00887535063113605
-2.23756360355765E-05,4.07746711061918E-06,2.8125,0,0.00887535063113605
-2.79337746178498E-05,1.57325459326785E-07,2.8125,0,0.00887535063113605
-2.43949871219229E-05,-2.28507110477949E-06,2.8125,0,0.00887535063113605
-2.63315268966835E-05,4.90455931867473E-06,2.8125,0,0.00887535063113605
-2.41654706769623E-05,1.15254861157155E-05,2.8125,0,0.00887535063113605
-2.47341031354154E-05,1.4251674656407E-05,2.8125,0,0.00887535063113605
-2.40078115893994E-05,1.21107696031686E-05,2.8125,0,0.00887535063113605
-2.47755906457314E-05,1.0466641469975E-05,2.8125,0,0.00887535063113605
-2.56605217145989E-05,1.05818562587956E-05,2.8125,0,0.00887535063113605
-2.54260448855348E-05,1.15316452138359E-05,2.8125,0,0.00887535063113605
-2.6655055989977E-05,1.26613658721908E-05,2.8125,0,0.00887535063113605
-2.64900354522979E-05,1.19090218504425E-05,2.8125,0,0.00887535063113605
-2.77944927802309E-05,1.1291897862975E-05,2.8125,0,0.00887535063113605
-2.66294755419949E-05,1.06929946923628E-05,2.8125,0,0.00887535063113605
-2.80739732261281E-05,1.17296194730443E-05,2.8125,0,0.00887535063113605
-2.83080189547036E-05,1.12430188892176E-05,2.8125,0,0.00887535063113605
-2.92533768515568E-05,1.02680114650866E-05,2.8125,0,0.00887535063113605
-2.69626052613603E-05,9.12109226192115E-06,2.8125,0,0.00887535063113605
-2.59710577665828E-05,8.82293079484953E-06,2.8125,0,0.00887535063113605
-2.42189453274477E-05,7.7274789873627E-06,2.8125,0,0.00887535063113605
-2.41545312746894E-05,8.23792015580693E-06,2.8125,0,0.00887535063113605
-2.36468113143928E-05,1.05478584373486E-05,2.8125,0,0.00887535063113605
-2.43138802034082E-05,1.49290699482663E-05,2.8125,0,0.00887535063113605
-2.4568143999204E-05,1.79247963387752E-05,2.8125,0,0.00887535063113605
-2.47154475800926E-05,1.63426648214227E-05,2.8125,0,0.00887535063113605
-2.001402026508E-05,9.10824746824801E-06,2.8125,0,0.00887535063113605
-2.88417577394284E-05,1.00878878583899E-05,2.8125,0,0.00887535063113605
-2.26318788918434E-05,6.17223668086808E-06,2.8125,0,0.00887535063113605
-2.75178190349834E-05,1.24483221952687E-05,2.8125,0,0.00887535063113605
-2.32000729738502E-05,1.33705416374141E-05,2.8125,0,0.00887535063113605
-2.67449049715651E-05,1.51658750837669E-05,2.8125,0,0.00887535063113605
-2.456916263327E-05,1.09210741356947E-05,2.8125,0,0.00887535063113605
-2.50746270467062E-05,9.68024778558174E-06,2.8125,0,0.00887535063113605
-2.4065213438007E-05,9.8484370028018E-06,2.8125,0,0.00887535063113605
-2.34675935644191E-05,1.10572173070977E-05,2.8125,0,0.00887535063113605
-2.25068961299257E-05,1.11905546873459E-05,2.8125,0,0.00887535063113605
-2.103352562699E-05,1.03620832305751E-05,2.8125,0,0.00887535063113605
-2.13828552659834E-05,1.00656807262567E-05,2.8125,0,0.00887535063113605
-1.98417674255325E-05,8.19703745946754E-06,2.8125,0,0.00887535063113605
-2.02670889848378E-05,8.51264030643506E-06,2.8125,0,0.00887535063113605
-1.89435104402946E-05,9.7517886388232E-06,2.8125,0,0.00887535063113605
-2.10364923987072E-05,1.29713134811027E-05,2.8125,0,0.00887535063113605
-2.21116097236518E-05,1.37290498969378E-05,2.8125,0,0.00887535063113605
-2.47617663262645E-05,1.52676548168529E-05,2.8125,0,0.00887535063113605
-2.38332449953305E-05,1.61716725415317E-05,2.8125,0,0.00887535063113605
-2.32228594541084E-05,1.72747786564287E-05,2.8125,0,0.00887535063113605
-2.13451203308068E-05,1.66941117640818E-05,2.8125,0,0.00887535063113605
-2.1961952370475E-05,1.62074102263432E-05,2.8125,0,0.00887535063113605
-2.2824366169516E-05,1.45168796734652E-05,2.8125,0,0.00887535063113605
-2.35729221458314E-05,1.31666192828561E-05,2.8125,0,0.00887535063113605
-2.33413684327388E-05,1.13288224383723E-05,2.8125,0,0.00887535063113605
-2.35784409596818E-05,1.07044934338774E-05,2.8125,0,0.00887535063113605
-2.05729993467685E-05,1.02179565146798E-05,2.8125,0,0.00887535063113605
-3.07830050587654E-05,1.54264562297612E-05,2.8125,0,0.00887535063113605
-2.33121809287695E-05,1.20263457574765E-05,2.8125,0,0.00887535063113605
-2.56726325460477E-05,1.30282933241688E-05,2.8125,0,0.00887535063113605
-2.04512525669998E-05,9.96896687865956E-06,2.8125,0,0.00887535063113605
-2.34927192650503E-05,1.13518717625993E-05,2.8125,0,0.00887535063113605
-2.31798658205662E-05,1.09007150967955E-05,2.8125,0,0.00887535063113605
-2.5285411538789E-05,1.23311720017227E-05,2.8125,0,0.00887535063113605
-2.38864504353842E-05,1.3934893104306E-05,2.8125,0,0.00887535063113605
-2.26438423851505E-05,1.62393389473436E-05,2.8125,0,0.00887535063113605
-2.29204961215146E-05,1.8307478967472E-05,2.8125,0,0.00887535063113605
-2.32902220886899E-05,1.83127558557317E-05,2.8125,0,0.00887535063113605
-2.50958037213422E-05,1.70217153936392E-05,2.8125,0,0.00887535063113605
-2.47219886659877E-05,1.51386420839117E-05,2.8125,0,0.00887535063113605
-2.59613625530619E-05,1.60487197717885E-05,2.8125,0,0.00887535063113605
-2.49586410063785E-05,1.60912513820222E-05,2.8125,0,0.00887535063113605
-2.62683515757089E-05,1.59065039042616E-05,2.8125,0,0.00887535063113605
-2.52520385402022E-05,1.49709994730074E-05,2.8125,0,0.00887535063113605
-2.53958969551604E-05,1.59262617671629E-05,2.8125,0,0.00887535063113605
-2.42861933656968E-05,1.49558200064348E-05,2.8125,0,0.00887535063113605
-2.48208489210811E-05,1.23301470011938E-05,2.8125,0,0.00887535063113605
-2.36281612160383E-05,8.27456915430957E-06,2.8125,0,0.00887535063113605
-2.36615160247311E-05,7.06950822859653E-06,2.8125,0,0.00887535063113605
-2.26688880502479E-05,7.82493134465767E-06,2.8125,0,0.00887535063113605
-2.24153063754784E-05,8.51251206768211E-06,2.8125,0,0.00887535063113605
-2.21019836317282E-05,7.99475947133033E-06,2.8125,0,0.00887535063113605
-2.15616455534473E-05,7.78553931013448E-06,2.8125,0,0.00887535063113605
-1.82523999683326E-05,5.17518583365018E-06,2.8125,0,0.00887535063113605
-2.64478439930826E-05,4.98562440043315E-06,2.8125,0,0.00887535063113605
-2.04099414986558E-05,1.91619369616092E-06,2.8125,0,0.00887535063113605
-2.50012544711353E-05,6.08909613220021E-06,2.8125,0,0.00887535063113605
-2.1735782866017E-05,8.62835986481514E-06,2.8125,0,0.00887535063113605
-2.50862776738359E-05,1.1867496141349E-05,2.8125,0,0.00887535063113605
-2.35027855524095E-05,1.10163828139775E-05,2.8125,0,0.00887535063113605
-2.43068188865436E-05,1.15116927190684E-05,2.8125,0,0.00887535063113605
-2.46038562181639E-05,1.17685340228491E-05,2.8125,0,0.00887535063113605
-2.55790091614472E-05,1.11436374936602E-05,2.8125,0,0.00887535063113605
-2.57396332017379E-05,9.59145563683705E-06,2.8125,0,0.00887535063113605
-2.40723438764689E-05,8.4899866124033E-06,2.8125,0,0.00887535063113605
-2.41798206843669E-05,9.74050635704771E-06,2.8125,0,0.00887535063113605
-2.28494227485498E-05,1.05974122561747E-05,2.8125,0,0.00887535063113605
-2.28572498599533E-05,1.15966786324861E-05,2.8125,0,0.00887535063113605
-2.1074336473248E-05,1.24370108096628E-05,2.8125,0,0.00887535063113605
-2.17693923332263E-05,1.33866033138474E-05,2.8125,0,0.00887535063113605
-2.10482849070104E-05,1.05810431705322E-05,2.8125,0,0.00887535063113605
-2.23043371079257E-05,7.48931779526174E-06,2.8125,0,0.00887535063113605
-2.21442514884984E-05,5.93400227444363E-06,2.8125,0,0.00887535063113605
-2.32237489399267E-05,5.84444842388621E-06,2.8125,0,0.00887535063113605
-2.27518157771556E-05,5.6901881180238E-06,2.8125,0,0.00887535063113605
-2.28331155085471E-05,7.25236850485089E-06,2.8125,0,0.00887535063113605
-2.2701653506374E-05,8.77826278156135E-06,2.8125,0,0.00887535063113605
-2.39040364249377E-05,9.16580302146031E-06,2.8125,0,0.00887535063113605
-2.42794085352216E-05,7.88300167187117E-06,2.8125,0,0.00887535063113605
-2.41971265495522E-05,7.27682117940276E-06,2.8125,0,0.00887535063113605
-2.05566939257551E-05,7.49524406273849E-06,2.8125,0,0.00887535063113605
-2.86949452856788E-05,1.06341331047588E-05,2.8125,0,0.00887535063113605
-1.94836957234656E-05,7.36341780793737E-06,2.8125,0,0.00887535063113605
-2.19153334910516E-05,8.95353969099233E-06,2.8125,0,0.00887535063113605
-1.67156504176091E-05,8.85272675077431E-06,2.8125,0,0.00887535063113605
-2.09978788916487E-05,1.08864096546313E-05,2.8125,0,0.00887535063113605
-2.10957641684217E-05,8.99455699254759E-06,2.8125,0,0.00887535063113605
-2.44148232013686E-05,8.37974857859081E-06,2.8125,0,0.00887535063113605
-2.43785270868102E-05,8.73690987646114E-06,2.8125,0,0.00887535063113605
-2.30187524721259E-05,9.10342350834981E-06,2.8125,0,0.00887535063113605
-2.21176942432066E-05,9.00079794519115E-06,2.8125,0,0.00887535063113605
-2.1927478883299E-05,8.39199037727667E-06,2.8125,0,0.00887535063113605
-2.40114222833654E-05,9.8882928796229E-06,2.8125,0,0.00887535063113605
-2.35611478274222E-05,1.22958736028522E-05,2.8125,0,0.00887535063113605
-2.45026549237082E-05,1.46634374686982E-05,2.8125,0,0.00887535063113605
-2.32724414672703E-05,1.43749721246422E-05,2.8125,0,0.00887535063113605
-2.43215054069879E-05,1.4211934285413E-05,2.8125,0,0.00887535063113605
-2.27632936002919E-05,1.25571868920815E-05,2.8125,0,0.00887535063113605
-2.25858293561032E-05,1.118677573686E-05,2.8125,0,0.00887535063113605
-2.06843305932125E-05,1.0537305570324E-05,2.8125,0,0.00887535063113605
-2.07969897019211E-05,1.22137780635967E-05,2.8125,0,0.00887535063113605
-2.05797423404874E-05,1.34180836539599E-05,2.8125,0,0.00887535063113605
-2.25222520384705E-05,1.31594715639949E-05,2.8125,0,0.00887535063113605
-2.2717786123394E-05,1.16198989417171E-05,2.8125,0,0.00887535063113605
-2.19200264837127E-05,1.00071711131022E-05,2.8125,0,0.00887535063113605
-2.0435360056581E-05,9.29263296711724E-06,2.8125,0,0.00887535063113605
-2.09063855436398E-05,1.03584479802521E-05,2.8125,0,0.00887535063113605
-1.85341414180584E-05,9.11735696718097E-06,2.8125,0,0.00887535063113605
-2.53776088356972E-05,1.19175247164094E-05,2.8125,0,0.00887535063113605
-1.87435525731416E-05,8.60442742123269E-06,2.8125,0,0.00887535063113605
-2.47472380578984E-05,1.05097005871357E-05,2.8125,0,0.00887535063113605
-2.19863832171541E-05,7.46696741771302E-06,2.8125,0,0.00887535063113605
-2.40106528508477E-05,1.03465717984363E-05,2.8125,0,0.00887535063113605
-2.03624604182551E-05,1.15075590656488E-05,2.8125,0,0.00887535063113605
-2.1251324142213E-05,1.360826081509E-05,2.8125,0,0.00887535063113605
-2.20273595914477E-05,1.28069623315241E-05,2.8125,0,0.00887535063113605
-2.399164623057E-05,1.09803559098509E-05,2.8125,0,0.00887535063113605
-2.59639764408348E-05,9.79974538495298E-06,2.8125,0,0.00887535063113605
-2.64197860815329E-05,9.40271092986222E-06,2.8125,0,0.00887535063113605
-2.7164784114575E-05,9.18579098652117E-06,2.8125,0,0.00887535063113605
-2.57080791925546E-05,7.53347421778017E-06,2.8125,0,0.00887535063113605
-2.62872199527919E-05,7.38486369300517E-06,2.8125,0,0.00887535063113605
-2.50081939157099E-05,6.46487842459464E-06,2.8125,0,0.00887535063113605
-2.68350013357122E-05,6.73685099172872E-06,2.8125,0,0.00887535063113605
-2.70301279670093E-05,5.94260018260684E-06,2.8125,0,0.00887535063113605
-2.82390137726907E-05,6.50193942419719E-06,2.8125,0,0.00887535063113605
-2.66695988102583E-05,5.82327902520774E-06,2.8125,0,0.00887535063113605
-2.67678169620922E-05,4.85341388412053E-06,2.8125,0,0.00887535063113605
-2.65277485596016E-05,2.63192009697377E-06,2.8125,0,0.00887535063113605
-2.76482551271329E-05,2.87832085632544E-06,2.8125,0,0.00887535063113605
-2.72447286988609E-05,4.8800470722199E-06,2.8125,0,0.00887535063113605
-2.70225209533237E-05,8.44664555188501E-06,2.8125,0,0.00887535063113605
-2.62252251559403E-05,1.06582447187975E-05,2.8125,0,0.00887535063113605
-2.5216428184649E-05,1.03436759673059E-05,2.8125,0,0.00887535063113605
-1.9747558326344E-05,7.08822335582227E-06,2.8125,0,0.00887535063113605
-2.80541044048732E-05,1.04501905298093E-05,2.8125,0,0.00887535063113605
-2.17705201066565E-05,1.0019385626947E-05,2.8125,0,0.00887535063113605
-2.71809676632984E-05,1.33606445160694E-05,2.8125,0,0.00887535063113605
-2.27459750021808E-05,1.14432596092229E-05,2.8125,0,0.00887535063113605
-2.5528019250487E-05,1.21116036098101E-05,2.8125,0,0.00887535063113605
-2.36710639001103E-05,9.79808555712225E-06,2.8125,0,0.00887535063113605
-2.41360339714447E-05,8.41153996589128E-06,2.8125,0,0.00887535063113605
-2.14824176509865E-05,8.94099321158137E-06,2.8125,0,0.00887535063113605
-2.01486873265821E-05,1.1220145097468E-05,2.8125,0,0.00887535063113605
-2.06733566301409E-05,1.21376624520053E-05,2.8125,0,0.00887535063113605
-2.10080834222026E-05,1.0896437743213E-05,2.8125,0,0.00887535063113605
-2.20093115785858E-05,1.14582253445406E-05,2.8125,0,0.00887535063113605
-2.03124618565198E-05,1.28686779135023E-05,2.8125,0,0.00887535063113605
-2.10651942325057E-05,1.46159190990147E-05,2.8125,0,0.00887535063113605
-1.97704466700088E-05,1.40146530611673E-05,2.8125,0,0.00887535063113605
-2.09945974347647E-05,1.45690673889476E-05,2.8125,0,0.00887535063113605
-2.04083044081926E-05,1.65585497597931E-05,2.8125,0,0.00887535063113605
-2.19921566895209E-05,2.00728427444119E-05,2.8125,0,0.00887535063113605
-2.24939540203195E-05,2.07187094929395E-05,2.8125,0,0.00887535063113605
-2.42936639551772E-05,1.91448289115215E-05,2.8125,0,0.00887535063113605
-2.36491068790201E-05,1.67885846167337E-05,2.8125,0,0.00887535063113605
-2.3653974494664E-05,1.45510002766969E-05,2.8125,0,0.00887535063113605
-2.35170155065134E-05,1.24126900118426E-05,2.8125,0,0.00887535063113605
-2.33503142226255E-05,1.30359367176425E-05,2.8125,0,0.00887535063113605
-2.2424441340263E-05,1.45469985000091E-05,2.8125,0,0.00887535063113605
-2.23476927203592E-05,1.65635956363985E-05,2.8125,0,0.00887535063113605
-1.89493075595237E-05,1.29059535538545E-05,2.8125,0,0.00887535063113605
-2.73988243861822E-05,1.57837275764905E-05,2.8125,0,0.00887535063113605
-2.07843040698208E-05,9.65722028922755E-06,2.8125,0,0.00887535063113605
-2.53372782026418E-05,1.42062290251488E-05,2.8125,0,0.00887535063113605
-2.19600333366543E-05,1.08433259811136E-05,2.8125,0,0.00887535063113605
-2.40036242757924E-05,1.1872055438289E-05,2.8125,0,0.00887535063113605
-2.15828986256383E-05,8.42035933601437E-06,2.8125,0,0.00887535063113605
-2.27505897782976E-05,9.05143679119647E-06,2.8125,0,0.00887535063113605
-2.23798615479609E-05,1.06041252365685E-05,2.8125,0,0.00887535063113605
-2.26759075303562E-05,1.24528651213041E-05,2.8125,0,0.00887535063113605
-2.40319786826149E-05,1.45202739076922E-05,2.8125,0,0.00887535063113605
-2.51446199399652E-05,1.55857305799145E-05,2.8125,0,0.00887535063113605
-2.68852218141546E-05,1.70118546520825E-05,2.8125,0,0.00887535063113605
-2.5514307708363E-05,1.62987707881257E-05,2.8125,0,0.00887535063113605
-2.59582084254362E-05,1.66766949405428E-05,2.8125,0,0.00887535063113605
-2.46009185502771E-05,1.52797838381957E-05,2.8125,0,0.00887535063113605
-2.54009337368188E-05,1.41538348543691E-05,2.8125,0,0.00887535063113605
-2.54546175710857E-05,1.12399438876309E-05,2.8125,0,0.00887535063113605
-2.84062844002619E-05,1.06373372545931E-05,2.8125,0,0.00887535063113605
-2.98893246508669E-05,8.78141327120829E-06,2.8125,0,0.00887535063113605
-3.18110905936919E-05,7.46727164369076E-06,2.8125,0,0.00887535063113605
-3.17085832648445E-05,6.65934931021184E-06,2.8125,0,0.00887535063113605
-3.17268313665409E-05,8.98488815437304E-06,2.8125,0,0.00887535063113605
-2.99497532978421E-05,1.12896987047861E-05,2.8125,0,0.00887535063113605
-2.91360629489645E-05,1.19051101137302E-05,2.8125,0,0.00887535063113605
-2.91008873318788E-05,9.76460614765529E-06,2.8125,0,0.00887535063113605
-2.85031983366935E-05,9.07709909370169E-06,2.8125,0,0.00887535063113605
-2.08279670914635E-05,9.01040584722068E-06,2.8125,0,0.00887535063113605
-2.85606565739727E-05,1.36668477352941E-05,2.8125,0,0.00887535063113605
-2.10321522899903E-05,1.05901162896771E-05,2.8125,0,0.00887535063113605
-2.55614631896606E-05,1.06844363472192E-05,2.8125,0,0.00887535063113605
-2.00227168534184E-05,7.33298020350048E-06,2.8125,0,0.00887535063113605
-2.46853178396123E-05,7.84792155172909E-06,2.8125,0,0.00887535063113605
-2.37610329349991E-05,6.98898429618566E-06,2.8125,0,0.00887535063113605
-2.55384911724832E-05,7.27877932149568E-06,2.8125,0,0.00887535063113605
-2.46141644311138E-05,5.43216447113082E-06,2.8125,0,0.00887535063113605
-2.38711727433838E-05,3.13678629026981E-06,2.8125,0,0.00887535063113605
-2.27781329158461E-05,2.35557513406093E-06,2.8125,0,0.00887535063113605
-2.18080094782636E-05,1.07295488760428E-06,2.8125,0,0.00887535063113605
-2.3948148736963E-05,-2.19655612454517E-06,2.8125,0,0.00887535063113605
-2.40329882217338E-05,-5.53852669327171E-06,2.8125,0,0.00887535063113605
-2.59480184467975E-05,-3.35333379553049E-06,2.8125,0,0.00887535063113605
-2.56413859460736E-05,1.46504305575945E-06,2.8125,0,0.00887535063113605
-2.78119041468017E-05,7.5113825914741E-06,2.8125,0,0.00887535063113605
-2.69274787569884E-05,1.12153657028102E-05,2.8125,0,0.00887535063113605
-2.72580618911888E-05,1.37107181217289E-05,2.8125,0,0.00887535063113605
-2.52916706813267E-05,1.29753634610097E-05,2.8125,0,0.00887535063113605
-2.58194631896913E-05,1.23446525321924E-05,2.8125,0,0.00887535063113605
-2.60986180364853E-05,1.1876062671945E-05,2.8125,0,0.00887535063113605
-2.7509897336131E-05,1.16822557174601E-05,2.8125,0,0.00887535063113605
-2.66610568360193E-05,1.2123561646149E-05,2.8125,0,0.00887535063113605
-2.61702080024406E-05,1.27769453683868E-05,2.8125,0,0.00887535063113605
-2.60173892456805E-05,1.07472806121223E-05,2.8125,0,0.00887535063113605
-2.71577609964879E-05,8.33088688523276E-06,2.8125,0,0.00887535063113605
-2.30201039812528E-05,5.86200258112513E-06,2.8125,0,0.00887535063113605
-3.13762575387955E-05,9.63023649092065E-06,2.8125,0,0.00887535063113605
-2.17653978324961E-05,8.76118974701967E-06,2.8125,0,0.00887535063113605
-2.67763862211723E-05,9.53645576373674E-06,2.8125,0,0.00887535063113605
-2.10609905479942E-05,8.32042587717297E-06,2.8125,0,0.00887535063113605
-2.34197250392754E-05,9.84815414994955E-06,2.8125,0,0.00887535063113605
-1.96031487575965E-05,9.53940798353869E-06,2.8125,0,0.00887535063113605
-1.92953593796119E-05,1.00440929600154E-05,2.8125,0,0.00887535063113605
-1.78025384229841E-05,1.12122224891209E-05,2.8125,0,0.00887535063113605
-1.80827482836321E-05,1.30556245494517E-05,2.8125,0,0.00887535063113605
-1.79798589670099E-05,1.40888314490439E-05,2.8125,0,0.00887535063113605
-1.63249551405897E-05,1.36925673359656E-05,2.8125,0,0.00887535063113605
-1.73923635884421E-05,1.26799359350116E-05,2.8125,0,0.00887535063113605
-1.69459053722676E-05,1.13416053864057E-05,2.8125,0,0.00887535063113605
-1.91329872905044E-05,1.09577204057132E-05,2.8125,0,0.00887535063113605
-1.88649300980615E-05,9.48839078773744E-06,2.8125,0,0.00887535063113605
-2.07131361094071E-05,8.09956873126794E-06,2.8125,0,0.00887535063113605
-1.95049415196991E-05,6.97649920766708E-06,2.8125,0,0.00887535063113605
-2.00409776880406E-05,6.93861238687532E-06,2.8125,0,0.00887535063113605
-1.86705201485893E-05,6.56360089124064E-06,2.8125,0,0.00887535063113605
-2.0320670955698E-05,6.91748073222698E-06,2.8125,0,0.00887535063113605
-2.10688431252493E-05,5.70986685488606E-06,2.8125,0,0.00887535063113605
-2.27969139814377E-05,3.48683579431963E-06,2.8125,0,0.00887535063113605
-2.38485808949918E-05,3.2770201414678E-06,2.8125,0,0.00887535063113605
-2.57301780948183E-05,5.97779853706015E-06,2.8125,0,0.00887535063113605
-2.59099379036343E-05,8.77253842190839E-06,2.8125,0,0.00887535063113605
-2.4707132979529E-05,9.58274540607817E-06,2.8125,0,0.00887535063113605
-1.92264542420162E-05,5.3090379878995E-06,2.8125,0,0.00887535063113605
-2.71243152383249E-05,6.89283569954569E-06,2.8125,0,0.00887535063113605
-2.08874571399065E-05,7.44982116884785E-06,2.8125,0,0.00887535063113605
-2.64488789980533E-05,1.12286279545515E-05,2.98828125,0,0.00887535063113605
-2.21377231355291E-05,8.84926248545526E-06,2.98828125,0,0.00887535063113605
-2.24395553232171E-05,9.31807244342053E-06,2.98828125,0,0.00887535063113605
-1.77674683072837E-05,8.51869845064357E-06,2.98828125,0,0.00887535063113605
-1.69572249433259E-05,9.29364523472032E-06,2.98828125,0,0.00887535063113605
-1.51580852616462E-05,9.55373616307043E-06,2.98828125,0,0.00887535063113605
-1.51567473949399E-05,1.02786725619808E-05,2.98828125,0,0.00887535063113605
-1.53299151861575E-05,1.16083556349622E-05,2.98828125,0,0.00887535063113605
-1.45700596476672E-05,1.40306055982364E-05,2.98828125,0,0.00887535063113605
-1.48652925417991E-05,1.61264924827265E-05,2.98828125,0,0.00887535063113605
-1.27545135910623E-05,1.48264525705599E-05,2.98828125,0,0.00887535063113605
-1.3535029211198E-05,1.39299081638455E-05,2.98828125,0,0.00887535063113605
-1.37496981551521E-05,1.39186113301548E-05,2.98828125,0,0.00887535063113605
-1.65862220455892E-05,1.53749424498528E-05,2.98828125,0,0.00887535063113605
-1.7154699889943E-05,1.50217338159564E-05,2.98828125,0,0.00887535063113605
-1.97319113794947E-05,1.4807672414463E-05,2.98828125,0,0.00887535063113605
-2.02525916392915E-05,1.44256800922449E-05,2.98828125,0,0.00887535063113605
-2.18161130760564E-05,1.46804550240631E-05,2.98828125,0,0.00887535063113605
-2.22362232307205E-05,1.38773093567579E-05,2.98828125,0,0.00887535063113605
-2.41763609665213E-05,1.28906758618541E-05,2.98828125,0,0.00887535063113605
-2.62017492786981E-05,1.29325308080297E-05,2.98828125,0,0.00887535063113605
-2.84077414107742E-05,1.4747050954611E-05,2.98828125,0,0.00887535063113605
-2.87961465801345E-05,1.4090145668888E-05,2.98828125,0,0.00887535063113605
-3.02199132420355E-05,1.24444923130795E-05,2.98828125,0,0.00887535063113605
-2.77759390883148E-05,1.10300261439988E-05,2.98828125,0,0.00887535063113605
-4.32882698078174E-05,1.68552051036386E-05,2.98828125,0,0.00887535063113605
-3.82832295144908E-05,1.36682328957249E-05,2.98828125,0,0.00887535063113605
-4.63604774267878E-05,1.48778644870617E-05,2.98828125,0,0.00887535063113605
-4.11176406487357E-05,1.11843355625751E-05,2.98828125,0,0.00887535063113605
-4.56546549685299E-05,1.07794612631551E-05,2.98828125,0,0.00887535063113605
-4.35583206126466E-05,9.56269377638819E-06,2.98828125,0,0.00887535063113605
-4.35534457210451E-05,1.28431511257077E-05,2.98828125,0,0.00887535063113605
-3.99211312469561E-05,1.4115759768174E-05,2.98828125,0,0.00887535063113605
-3.73966431652661E-05,1.42244607559405E-05,2.98828125,0,0.00887535063113605
-3.63884391845204E-05,1.30787429952761E-05,2.98828125,0,0.00887535063113605
-3.45928856404498E-05,1.16184774014982E-05,2.98828125,0,0.00887535063113605
-3.51022972608916E-05,1.11635536086396E-05,2.98828125,0,0.00887535063113605
-3.31718183588237E-05,8.99556016520364E-06,2.98828125,0,0.00887535063113605
-3.25344190059695E-05,8.22640959086129E-06,2.98828125,0,0.00887535063113605
-2.78424249700038E-05,7.13952067599166E-06,2.98828125,0,0.00887535063113605
-2.53909183811629E-05,7.9538076533936E-06,2.98828125,0,0.00887535063113605
-2.02596875169547E-05,7.34872310204082E-06,2.98828125,0,0.00887535063113605
-1.8428361727274E-05,6.90476417730679E-06,2.98828125,0,0.00887535063113605
-1.55182169692125E-05,5.26837766301469E-06,2.98828125,0,0.00887535063113605
-1.49668203448527E-05,6.0014708651579E-06,2.98828125,0,0.00887535063113605
-1.21525645226939E-05,7.29790508557926E-06,2.98828125,0,0.00887535063113605
-1.04676910268608E-05,9.10728158487473E-06,2.98828125,0,0.00887535063113605
-8.00597717898199E-06,9.27549172047293E-06,2.98828125,0,0.00887535063113605
-6.65651577946846E-06,8.50971537147416E-06,2.98828125,0,0.00887535063113605
-5.57400926481932E-06,6.90430897520855E-06,2.98828125,0,0.00887535063113605
-5.45599868928548E-06,6.38923302176408E-06,2.98828125,0,0.00887535063113605
-5.37422283741762E-06,5.73157558392268E-06,2.98828125,0,0.00887535063113605
-7.74492400523741E-06,7.71944451116724E-06,2.98828125,0,0.00887535063113605
-6.45121735942666E-06,5.63559387956047E-06,2.98828125,0,0.00887535063113605
-9.5967634479166E-06,8.70551320986124E-06,2.98828125,0,0.00887535063113605
-1.08920239654253E-05,1.03586780824116E-05,2.98828125,0,0.00887535063113605
-1.31577744468814E-05,1.27420762510155E-05,2.98828125,0,0.00887535063113605
-1.40499832923524E-05,1.20182039609062E-05,2.98828125,0,0.00887535063113605
-1.59714745677775E-05,1.24943890114082E-05,2.98828125,0,0.00887535063113605
-1.95643806364387E-05,1.40369584187283E-05,2.98828125,0,0.00887535063113605
-2.0224228137522E-05,1.67181024153251E-05,2.98828125,0,0.00887535063113605
-1.7753243810148E-05,1.87630976142827E-05,2.98828125,0,0.00887535063113605
-1.54895660671173E-05,1.88681278814329E-05,2.98828125,0,0.00887535063113605
-1.63840595632792E-05,1.84570890269242E-05,2.98828125,0,0.00887535063113605
-1.78322079591453E-05,1.78818263520952E-05,2.98828125,0,0.00887535063113605
-1.88650101335952E-05,1.82835683517624E-05,2.98828125,0,0.00887535063113605
-1.89231068361551E-05,1.74235756276175E-05,2.98828125,0,0.00887535063113605
-1.93902487808373E-05,1.5935340343276E-05,2.98828125,0,0.00887535063113605
-2.0143250367255E-05,1.32165077957325E-05,2.98828125,0,0.00887535063113605
-2.2524684027303E-05,1.18526186270174E-05,2.98828125,0,0.00887535063113605
-2.55620980169624E-05,1.13931937448797E-05,2.98828125,0,0.00887535063113605
-2.84144080069382E-05,1.21343491628068E-05,2.98828125,0,0.00887535063113605
-2.98618888336932E-05,1.26743398141116E-05,2.98828125,0,0.00887535063113605
-3.08458584186155E-05,1.37564647957333E-05,2.98828125,0,0.00887535063113605
-3.12784795823973E-05,1.37621318572201E-05,2.98828125,0,0.00887535063113605
-3.12958763970528E-05,1.24859361676499E-05,2.98828125,0,0.00887535063113605
-3.105825453531E-05,1.10269720607903E-05,2.98828125,0,0.00887535063113605
-2.95500685751904E-05,9.46648924582405E-06,2.98828125,0,0.00887535063113605
-2.2690903278999E-05,5.58284091312089E-06,2.98828125,0,0.00887535063113605
-3.13105374516454E-05,6.35591914033284E-06,2.98828125,0,0.00887535063113605
-2.242667687824E-05,3.5031710012845E-06,2.98828125,0,0.00887535063113605
-2.7951593438047E-05,5.35269055035315E-06,2.98828125,0,0.00887535063113605
-2.33535720326472E-05,4.26671522291144E-06,2.98828125,0,0.00887535063113605
-2.81551547232084E-05,6.63686796542606E-06,2.98828125,0,0.00887535063113605
-2.64020764007E-05,7.70100177760469E-06,2.98828125,0,0.00887535063113605
-2.81933644146193E-05,8.98119287739974E-06,2.98828125,0,0.00887535063113605
-2.78713851002976E-05,8.23401569505222E-06,2.98828125,0,0.00887535063113605
-2.88805167656392E-05,7.10930180503055E-06,2.98828125,0,0.00887535063113605
-2.99223174806684E-05,6.77420030115172E-06,2.98828125,0,0.00887535063113605
-3.00915216939757E-05,8.2395426943549E-06,2.98828125,0,0.00887535063113605
-3.25404871546198E-05,1.03076008599601E-05,2.98828125,0,0.00887535063113605
-3.28398527926765E-05,9.29487941903062E-06,2.98828125,0,0.00887535063113605
-3.48820940416772E-05,8.44759324536426E-06,2.98828125,0,0.00887535063113605
-3.35355616698507E-05,8.79628532857168E-06,2.98828125,0,0.00887535063113605
-3.47046807291918E-05,1.15898492367705E-05,2.98828125,0,0.00887535063113605
-3.40389160555787E-05,1.36187227326445E-05,2.98828125,0,0.00887535063113605
-3.6569923395291E-05,1.4830746295047E-05,2.98828125,0,0.00887535063113605
-3.59127843694296E-05,1.42366970976582E-05,2.98828125,0,0.00887535063113605
-3.50714435626287E-05,1.29651471070247E-05,2.98828125,0,0.00887535063113605
-3.19613463943824E-05,1.03491001937073E-05,2.98828125,0,0.00887535063113605
-3.00225547107402E-05,9.26203210838139E-06,2.98828125,0,0.00887535063113605
-2.62143130385084E-05,9.59823046287056E-06,2.98828125,0,0.00887535063113605
-2.36962132476037E-05,1.1011178685294E-05,2.98828125,0,0.00887535063113605
-2.19894463953096E-05,1.13876894829446E-05,2.98828125,0,0.00887535063113605
-1.98557627300033E-05,1.03754055089667E-05,2.98828125,0,0.00887535063113605
-1.40490074045374E-05,7.21767173672561E-06,2.98828125,0,0.00887535063113605
-1.97761055460433E-05,9.72915859165369E-06,2.98828125,0,0.00887535063113605
-1.54028639371973E-05,6.67427957523614E-06,2.98828125,0,0.00887535063113605
-1.89398324437207E-05,9.050889275386E-06,2.98828125,0,0.00887535063113605
-1.56957958097337E-05,8.76942704053363E-06,2.98828125,0,0.00887535063113605
-1.8757595171337E-05,1.1480645298434E-05,2.98828125,0,0.00887535063113605
-1.86633169505512E-05,1.09659313238808E-05,2.98828125,0,0.00887535063113605
-1.97827157535357E-05,1.05403487395961E-05,2.98828125,0,0.00887535063113605
-1.99181449715979E-05,1.04280552477576E-05,2.98828125,0,0.00887535063113605
-2.16015887417598E-05,9.61672776611522E-06,2.98828125,0,0.00887535063113605
-2.31813719437923E-05,7.98801374912728E-06,2.98828125,0,0.00887535063113605
-2.42415317188716E-05,5.85794941798667E-06,2.98828125,0,0.00887535063113605
-2.65140424744459E-05,4.24763084083679E-06,2.98828125,0,0.00887535063113605
-2.75229158432921E-05,4.15907834394602E-06,2.98828125,0,0.00887535063113605
-2.97110564133618E-05,7.1348695200868E-06,2.98828125,0,0.00887535063113605
-2.98718859994551E-05,8.93564993020846E-06,2.98828125,0,0.00887535063113605
-3.10939831251744E-05,1.02875346783549E-05,2.98828125,0,0.00887535063113605
-3.04615514323814E-05,1.04903429019032E-05,2.98828125,0,0.00887535063113605
-3.11740222969092E-05,1.11461076812702E-05,2.98828125,0,0.00887535063113605
-3.00393348879879E-05,1.10944574771565E-05,2.98828125,0,0.00887535063113605
-3.0287956178654E-05,1.12307761810371E-05,2.98828125,0,0.00887535063113605
-3.06545698549598E-05,1.07218438643031E-05,2.98828125,0,0.00887535063113605
-3.16966870741453E-05,1.18719872261863E-05,2.98828125,0,0.00887535063113605
-2.99584953609155E-05,1.41100299515529E-05,2.98828125,0,0.00887535063113605
-2.7951809897786E-05,1.61535972438287E-05,2.98828125,0,0.00887535063113605
-2.73288023890927E-05,1.7450167433708E-05,2.98828125,0,0.00887535063113605
-2.70583623205312E-05,1.71541960298782E-05,2.98828125,0,0.00887535063113605
-2.06788063223939E-05,1.26520808407804E-05,2.98828125,0,0.00887535063113605
-2.71938333753496E-05,1.66909831023077E-05,2.98828125,0,0.00887535063113605
-1.84000673471019E-05,1.24321259136195E-05,2.98828125,0,0.00887535063113605
-2.29028610192472E-05,1.83478605322307E-05,2.98828125,0,0.00887535063113605
-1.52241318573942E-05,1.69512859429233E-05,2.98828125,0,0.00887535063113605
-1.65731307788519E-05,1.71131996467011E-05,2.98828125,0,0.00887535063113605
-1.49242650877568E-05,1.27761277326499E-05,2.98828125,0,0.00887535063113605
-1.76695739355637E-05,1.23834015539614E-05,2.98828125,0,0.00887535063113605
-1.76588273461675E-05,1.15962029667571E-05,2.98828125,0,0.00887535063113605
-1.8429975170875E-05,1.17316822070279E-05,2.98828125,0,0.00887535063113605
-1.9794431864284E-05,1.21583625514177E-05,2.98828125,0,0.00887535063113605
-1.96321834664559E-05,1.20153199532069E-05,2.98828125,0,0.00887535063113605
-2.11980113817845E-05,1.13489850264159E-05,2.98828125,0,0.00887535063113605
-2.14403607969871E-05,8.00513316789875E-06,2.98828125,0,0.00887535063113605
-2.45102964981925E-05,7.32524858904071E-06,2.98828125,0,0.00887535063113605
-2.5296869353042E-05,7.21639617040637E-06,2.98828125,0,0.00887535063113605
-2.75895290542394E-05,8.81423420651117E-06,2.98828125,0,0.00887535063113605
-2.64919963228749E-05,7.90263402450364E-06,2.98828125,0,0.00887535063113605
-2.78719307971187E-05,7.80169648351148E-06,2.98828125,0,0.00887535063113605
-2.84888064925326E-05,6.87284364175866E-06,2.98828125,0,0.00887535063113605
-3.13676719088107E-05,7.97509073890978E-06,2.98828125,0,0.00887535063113605
-3.10023860947695E-05,8.22936999611557E-06,2.98828125,0,0.00887535063113605
-3.01059244520729E-05,8.52334233059082E-06,2.98828125,0,0.00887535063113605
-2.9923852707725E-05,8.53736037242925E-06,2.98828125,0,0.00887535063113605
-3.26836670865305E-05,1.02283565865946E-05,2.98828125,0,0.00887535063113605
-3.41568229487166E-05,1.0766195373435E-05,2.98828125,0,0.00887535063113605
-3.35186123265885E-05,9.05706838238984E-06,2.98828125,0,0.00887535063113605
-2.58662275882671E-05,5.88757984587573E-06,2.98828125,0,0.00887535063113605
-3.55860756826587E-05,7.76161505200434E-06,2.98828125,0,0.00887535063113605
-2.63035090029007E-05,4.47263801106601E-06,2.98828125,0,0.00887535063113605
-3.3290809369646E-05,4.95823314849986E-06,2.98828125,0,0.00887535063113605
-2.7536883862922E-05,4.18414765590569E-06,2.98828125,0,0.00887535063113605
-3.18950733344536E-05,5.37877485839999E-06,2.98828125,0,0.00887535063113605
-2.91078849841142E-05,5.31787509316928E-06,2.98828125,0,0.00887535063113605
-2.80769963865168E-05,6.88619638822274E-06,2.98828125,0,0.00887535063113605
-2.28094759222586E-05,7.87567569204839E-06,2.98828125,0,0.00887535063113605
-1.94418917089934E-05,9.76857245404972E-06,2.98828125,0,0.00887535063113605
-1.75236546056112E-05,1.19166015792871E-05,2.98828125,0,0.00887535063113605
-1.53856399265351E-05,1.27850962599041E-05,2.98828125,0,0.00887535063113605
-1.55064044520259E-05,1.35717709781602E-05,2.98828125,0,0.00887535063113605
-1.345413056697E-05,1.30707048811018E-05,2.98828125,0,0.00887535063113605
-1.39853600558126E-05,1.27435041576973E-05,2.98828125,0,0.00887535063113605
-1.1152793376823E-05,1.23287818496465E-05,2.98828125,0,0.00887535063113605
-1.07798405224457E-05,1.32252262119437E-05,2.98828125,0,0.00887535063113605
-7.03965497450554E-06,1.31258984765736E-05,2.98828125,0,0.00887535063113605
-7.00678037901525E-06,1.29068430396728E-05,2.98828125,0,0.00887535063113605
-6.50210540698026E-06,1.22033598017879E-05,2.98828125,0,0.00887535063113605
-9.19400463317288E-06,1.25869792100275E-05,2.98828125,0,0.00887535063113605
-1.04774817373254E-05,1.28892133943737E-05,2.98828125,0,0.00887535063113605
-1.39892545121256E-05,1.32945415316499E-05,2.98828125,0,0.00887535063113605
-1.58147013280541E-05,1.33018347696634E-05,2.98828125,0,0.00887535063113605
-1.74235592567129E-05,1.35930658871075E-05,2.98828125,0,0.00887535063113605
-1.85517019417603E-05,1.28173414850608E-05,2.98828125,0,0.00887535063113605
-1.9830365999951E-05,1.22438304970274E-05,2.98828125,0,0.00887535063113605
-1.70584662555484E-05,1.07429796116776E-05,2.98828125,0,0.00887535063113605
-2.48063406615984E-05,1.58264956553467E-05,2.98828125,0,0.00887535063113605
-2.03164290724089E-05,1.36679955176078E-05,2.98828125,0,0.00887535063113605
-2.52212412306108E-05,1.71218343893997E-05,2.98828125,0,0.00887535063113605
-2.142812263628E-05,1.48680164784309E-05,2.98828125,0,0.00887535063113605
-2.33822829613928E-05,1.62511842063395E-05,2.98828125,0,0.00887535063113605
-2.29684319492662E-05,1.25900050989003E-05,2.98828125,0,0.00887535063113605
-2.72575798589969E-05,1.00808865681756E-05,2.98828125,0,0.00887535063113605
-2.91654723696411E-05,7.70383576309541E-06,2.98828125,0,0.00887535063113605
-2.83122517430456E-05,7.15793839844991E-06,2.98828125,0,0.00887535063113605
-2.68398907792289E-05,7.37160144126392E-06,2.98828125,0,0.00887535063113605
-2.59386706602527E-05,6.02219324719044E-06,2.98828125,0,0.00887535063113605
-2.72252873401158E-05,3.77908509108238E-06,2.98828125,0,0.00887535063113605
-2.6747284209705E-05,1.2281877843634E-06,2.98828125,0,0.00887535063113605
-2.77867675322341E-05,2.72790452982008E-06,2.98828125,0,0.00887535063113605
-2.74211288342485E-05,4.23477877120604E-06,2.98828125,0,0.00887535063113605
-2.91152136924211E-05,6.46919352220721E-06,2.98828125,0,0.00887535063113605
-2.87263774225721E-05,6.63656010146951E-06,2.98828125,0,0.00887535063113605
-2.9314702260308E-05,7.53247968532378E-06,2.98828125,0,0.00887535063113605
-2.77087056019809E-05,8.00906582298921E-06,2.98828125,0,0.00887535063113605
-2.88212922896491E-05,9.37599997996585E-06,2.98828125,0,0.00887535063113605
-3.08118324028328E-05,8.16322426544502E-06,2.98828125,0,0.00887535063113605
-3.20760409522336E-05,7.82588358561043E-06,2.98828125,0,0.00887535063113605
-3.06051661027595E-05,9.09893333300715E-06,2.98828125,0,0.00887535063113605
-2.98403992928797E-05,9.62045214691898E-06,2.98828125,0,0.00887535063113605
-3.00075043924153E-05,6.47093202132965E-06,2.98828125,0,0.00887535063113605
-3.09313581965398E-05,4.03872581955511E-06,2.98828125,0,0.00887535063113605
-2.54480000876356E-05,5.601876637229E-06,2.98828125,0,0.00887535063113605
-3.56724340235814E-05,9.75350303633604E-06,2.98828125,0,0.00887535063113605
-2.60472515947185E-05,9.24816322367406E-06,2.98828125,0,0.00887535063113605
-3.17583544529043E-05,1.03555166788283E-05,2.98828125,0,0.00887535063113605
-2.61258628597716E-05,1.03872544059413E-05,2.98828125,0,0.00887535063113605
-2.9536440706579E-05,1.2423942280293E-05,2.98828125,0,0.00887535063113605
-2.64693808276206E-05,1.2063318536093E-05,2.98828125,0,0.00887535063113605
-2.81600823655026E-05,1.04862001535366E-05,2.98828125,0,0.00887535063113605
-2.67986379185459E-05,8.89872990228469E-06,2.98828125,0,0.00887535063113605
-2.50377524935175E-05,8.81174128153361E-06,2.98828125,0,0.00887535063113605
-2.29402103286702E-05,9.74497652350692E-06,2.98828125,0,0.00887535063113605
-2.15031632251339E-05,1.15426410047803E-05,2.98828125,0,0.00887535063113605
-2.26262163778301E-05,1.36025355459424E-05,2.98828125,0,0.00887535063113605
-1.99794103536988E-05,1.2168224202469E-05,2.98828125,0,0.00887535063113605
-1.9389981389395E-05,8.86947782419156E-06,2.98828125,0,0.00887535063113605
-1.6434565623058E-05,6.64529716232209E-06,2.98828125,0,0.00887535063113605
-1.645795055083E-05,7.50335675547831E-06,2.98828125,0,0.00887535063113605
-1.28893379951478E-05,8.00207908469019E-06,2.98828125,0,0.00887535063113605
-1.09138527477626E-05,8.47209503263002E-06,2.98828125,0,0.00887535063113605
-7.5154825935897E-06,9.69896882452304E-06,2.98828125,0,0.00887535063113605
-8.17679574538488E-06,1.12783436634345E-05,2.98828125,0,0.00887535063113605
-7.59232216296368E-06,1.1578600606299E-05,2.98828125,0,0.00887535063113605
-8.94148615770973E-06,1.16603268907056E-05,2.98828125,0,0.00887535063113605
-1.14445028884802E-05,1.22234650916653E-05,2.98828125,0,0.00887535063113605
-1.63896929734619E-05,1.36307107823086E-05,2.98828125,0,0.00887535063113605
-2.01425937120803E-05,1.43282004501089E-05,2.98828125,0,0.00887535063113605
-2.29194920393638E-05,1.40582851599902E-05,2.98828125,0,0.00887535063113605
-1.93627674889285E-05,9.65636536420789E-06,2.98828125,0,0.00887535063113605
-2.823929025908E-05,1.41469863592647E-05,2.98828125,0,0.00887535063113605
-2.37611620832467E-05,1.20416234494769E-05,2.98828125,0,0.00887535063113605
-3.08517446683254E-05,1.56166661327006E-05,2.98828125,0,0.00887535063113605
-2.86554841295583E-05,1.41067284857854E-05,2.98828125,0,0.00887535063113605
-3.3414558856748E-05,1.54254539665999E-05,2.98828125,0,0.00887535063113605
-3.31135161104612E-05,1.4547334103554E-05,2.98828125,0,0.00887535063113605
-3.51707894878928E-05,1.63233107741689E-05,2.98828125,0,0.00887535063113605
-3.45994412782602E-05,1.6060703273979E-05,3.8671875,0,0.00887535063113605
-3.39923826686572E-05,1.4444362022914E-05,3.8671875,0,0.00887535063113605
-3.46104898198973E-05,1.19136120702024E-05,3.8671875,0,0.00887535063113605
-3.45398184435908E-05,9.82239635050064E-06,3.8671875,0,0.00887535063113605
-3.52294518961571E-05,1.00731322163483E-05,3.8671875,0,0.00887535063113605
-3.39089310728014E-05,1.06501356640365E-05,3.8671875,0,0.00887535063113605
-3.545481376932E-05,1.13131927719223E-05,3.8671875,0,0.00887535063113605
-3.50810842064675E-05,9.58130840444937E-06,3.8671875,0,0.00887535063113605
-3.52833812939934E-05,9.61964997259201E-06,3.8671875,0,0.00887535063113605
-3.24015818478074E-05,9.34644322114764E-06,3.8671875,0,0.00887535063113605
-3.11877120111603E-05,9.07101639313623E-06,3.8671875,0,0.00887535063113605
-2.72636916633928E-05,8.26036830403609E-06,3.8671875,0,0.00887535063113605
-2.2329932107823E-05,1.0804718840518E-05,3.8671875,0,0.00887535063113605
-1.48596736835316E-05,1.26241711768671E-05,3.8671875,0,0.00887535063113605
-8.36930757941445E-06,1.19488768177689E-05,3.8671875,0,0.00887535063113605
2.15202902609235E-07,1.00130810096744E-05,3.8671875,0,0.00887535063113605
9.05556225916371E-06,1.08873382487218E-05,3.8671875,0,0.00887535063113605
1.56148889800534E-05,1.2127627087466E-05,3.8671875,0,0.00887535063113605
1.72999643837102E-05,1.14403728730395E-05,3.8671875,0,0.00887535063113605
1.18902125905151E-05,8.31530633149669E-06,3.8671875,0,0.00887535063113605
1.5410836567753E-05,1.15308257591096E-05,3.8671875,0,0.00887535063113605
8.88998147274833E-06,9.89118052530102E-06,3.8671875,0,0.00887535063113605
8.1424850577605E-06,1.14380918603274E-05,3.8671875,0,0.00887535063113605
-5.66555456771312E-07,5.95772417000262E-06,3.8671875,0,0.00887535063113605
-4.00762564822799E-06,5.40052496944554E-06,3.8671875,0,0.00887535063113605
-1.13838859761017E-05,5.65679920327966E-06,3.8671875,0,0.00887535063113605
-1.60429608513368E-05,9.27822748053586E-06,3.8671875,0,0.00887535063113605
-2.35456936934497E-05,1.0441926860949E-05,3.8671875,0,0.00887535063113605
-3.03817887470359E-05,1.01228561106836E-05,3.8671875,0,0.00887535063113605
-3.54188923665788E-05,9.69509346759878E-06,3.8671875,0,0.00887535063113605
-3.93368791264948E-05,9.66772950050654E-06,3.8671875,0,0.00887535063113605
-4.107514541829E-05,1.19772785183159E-05,3.8671875,0,0.00887535063113605
-4.32884189649485E-05,1.37351253215456E-05,3.8671875,0,0.00887535063113605
-4.40046314906795E-05,1.61891257448588E-05,3.8671875,0,0.00887535063113605
-4.61692143289838E-05,1.64142602443462E-05,3.8671875,0,0.00887535063113605
-4.6641787776025E-05,1.60828512889566E-05,3.8671875,0,0.00887535063113605
-4.81135102745611E-05,1.48753124449286E-05,3.8671875,0,0.00887535063113605
-4.67832614958752E-05,1.61230036610505E-05,3.8671875,0,0.00887535063113605
-4.56715824839193E-05,1.62871256179642E-05,3.8671875,0,0.00887535063113605
-4.42401069449261E-05,1.571913708176E-05,3.8671875,0,0.00887535063113605
-4.46462217951193E-05,1.34561132654198E-05,3.8671875,0,0.00887535063113605
-4.32355045631994E-05,1.10515893538832E-05,3.8671875,0,0.00887535063113605
-4.22723423980642E-05,8.9592704171082E-06,3.8671875,0,0.00887535063113605
-4.16494804085232E-05,7.88058150646975E-06,3.8671875,0,0.00887535063113605
-4.13078487326857E-05,6.52202652418055E-06,3.8671875,0,0.00887535063113605
-4.15982431150042E-05,4.30906629844685E-06,3.8671875,0,0.00887535063113605
-3.40455153491348E-05,3.16064347316569E-06,3.8671875,0,0.00887535063113605
-4.69891601824202E-05,5.20992398378439E-06,3.8671875,0,0.00887535063113605
-3.17584344884381E-05,5.57968860448455E-06,3.8671875,0,0.00887535063113605
-3.78577897208743E-05,7.20841944712447E-06,3.8671875,0,0.00887535063113605
-2.74708963843295E-05,7.08687230144278E-06,3.8671875,0,0.00887535063113605
-2.96132948278682E-05,8.77367710927501E-06,3.8671875,0,0.00887535063113605
-2.29058496188372E-05,9.60884608502965E-06,3.8671875,0,0.00887535063113605
-2.12080358323874E-05,8.58634211908793E-06,3.8671875,0,0.00887535063113605
-1.55095658556093E-05,7.44354247217416E-06,3.8671875,0,0.00887535063113605
-1.13096539280377E-05,8.48127274366561E-06,3.8671875,0,0.00887535063113605
-7.51851803215686E-06,1.04634564195294E-05,3.8671875,0,0.00887535063113605
-3.93368873119471E-06,1.11611607280793E-05,3.8671875,0,0.00887535063113605
-3.47856644111744E-06,1.233426064573E-05,3.8671875,0,0.00887535063113605
6.49530477403459E-07,1.49485858855769E-05,3.8671875,0,0.00887535063113605
1.05934361727122E-06,1.8998503946932E-05,3.8671875,0,0.00887535063113605
3.50234654433734E-06,2.13137300306698E-05,3.8671875,0,0.00887535063113605
3.91896293194804E-07,2.14145165955415E-05,3.8671875,0,0.00887535063113605
8.33814581824299E-08,2.03604431590065E-05,3.8671875,0,0.00887535063113605
-3.7439151583385E-06,1.97482349904021E-05,3.8671875,0,0.00887535063113605
-4.51007690571714E-06,1.88719932339154E-05,3.8671875,0,0.00887535063113605
-9.30381702346494E-06,1.73980661202222E-05,3.8671875,0,0.00887535063113605
-1.16065129986964E-05,1.55896523210686E-05,3.8671875,0,0.00887535063113605
-1.52150832946063E-05,1.45084532050532E-05,3.8671875,0,0.00887535063113605
-1.80324423126876E-05,1.39723806569236E-05,3.8671875,0,0.00887535063113605
-2.13104485737858E-05,1.23781983347726E-05,3.8671875,0,0.00887535063113605
-2.22272719838656E-05,1.032167529047E-05,3.8671875,0,0.00887535063113605
-2.32250440603821E-05,1.04559840110596E-05,3.8671875,0,0.00887535063113605
-2.08887322514784E-05,9.38676657824544E-06,3.8671875,0,0.00887535063113605
-3.1914849387249E-05,1.24383968795883E-05,3.8671875,0,0.00887535063113605
-2.78333900496364E-05,7.69641701481305E-06,3.8671875,0,0.00887535063113605
-3.38520512741525E-05,9.19652302400209E-06,3.8671875,0,0.00887535063113605
-2.8450223908294E-05,6.4308451328543E-06,3.8671875,0,0.00887535063113605
-2.98476315947482E-05,7.70224960433552E-06,3.8671875,0,0.00887535063113605
-3.0105347832432E-05,8.16040210338542E-06,3.8671875,0,0.00887535063113605
-3.37502206093632E-05,1.06697307273862E-05,3.8671875,0,0.00887535063113605
-3.37780984409619E-05,1.01645618997281E-05,3.8671875,0,0.00887535063113605
-3.30650436808355E-05,7.34082186681917E-06,3.8671875,0,0.00887535063113605
-3.28054411511403E-05,4.72432611786644E-06,3.8671875,0,0.00887535063113605
-3.16106852551457E-05,4.40490339315147E-06,3.8671875,0,0.00887535063113605
-3.13997406919952E-05,6.84703627484851E-06,3.8671875,0,0.00887535063113605
-2.95672743959585E-05,8.12034068076173E-06,3.8671875,0,0.00887535063113605
-3.11306321236771E-05,9.12634186533978E-06,3.8671875,0,0.00887535063113605
-3.14539574901573E-05,7.88814031693619E-06,3.8671875,0,0.00887535063113605
-3.31323608406819E-05,7.05570028003422E-06,3.8671875,0,0.00887535063113605
-3.23467465932481E-05,5.06692504131934E-06,3.8671875,0,0.00887535063113605
-3.34807809849735E-05,4.75133674626704E-06,3.8671875,0,0.00887535063113605
-3.25433975376654E-05,4.30011823482346E-06,3.8671875,0,0.00887535063113605
-3.24719985655975E-05,4.39783343608724E-06,3.8671875,0,0.00887535063113605
-3.10183386318386E-05,3.64834568244987E-06,3.8671875,0,0.00887535063113605
-3.17839949275367E-05,4.0980739868246E-06,3.8671875,0,0.00887535063113605
-3.18458151014056E-05,5.18143406225136E-06,3.8671875,0,0.00887535063113605
-3.1675910577178E-05,6.40568396192975E-06,3.8671875,0,0.00887535063113605
-3.11158546537627E-05,5.69655821891502E-06,3.8671875,0,0.00887535063113605
-3.00680876534898E-05,4.6480740820698E-06,3.8671875,0,0.00887535063113605
-2.4229981136159E-05,4.09977883464308E-06,3.8671875,0,0.00887535063113605
-3.41864215442911E-05,8.81685627973638E-06,3.8671875,0,0.00887535063113605
-2.56150633504149E-05,1.18626994662918E-05,3.8671875,0,0.00887535063113605
-3.23679378197994E-05,1.37138213176513E-05,3.8671875,0,0.00887535063113605
-2.7679114282364E-05,1.24144744404475E-05,3.8671875,0,0.00887535063113605
-3.12553165713325E-05,1.32449831653503E-05,3.8671875,0,0.00887535063113605
-2.88530445686774E-05,1.44550522236386E-05,3.8671875,0,0.00887535063113605
-2.93909324682318E-05,1.57611866598018E-05,3.8671875,0,0.00887535063113605
-2.82225319097051E-05,1.39665471579065E-05,3.8671875,0,0.00887535063113605
-2.87710445263656E-05,1.16336523205973E-05,3.8671875,0,0.00887535063113605
-2.88000410364475E-05,1.10534037958132E-05,3.8671875,0,0.00887535063113605
-2.70801574515644E-05,1.07644245872507E-05,3.8671875,0,0.00887535063113605
-2.68983021669555E-05,9.8922946563107E-06,3.8671875,0,0.00887535063113605
-2.41075740632368E-05,8.59736519487342E-06,3.8671875,0,0.00887535063113605
-2.43458598561119E-05,8.81545656739036E-06,3.8671875,0,0.00887535063113605
-2.30496480071452E-05,8.81556024978636E-06,3.8671875,0,0.00887535063113605
-2.38127686316147E-05,8.13810584077146E-06,3.8671875,0,0.00887535063113605
-2.08615401788848E-05,7.35834146325942E-06,3.8671875,0,0.00887535063113605
-2.09126374102198E-05,7.90309240983333E-06,3.8671875,0,0.00887535063113605
-2.0260324163246E-05,7.7933436841704E-06,3.8671875,0,0.00887535063113605
-2.19736157305306E-05,7.73723968450213E-06,3.8671875,0,0.00887535063113605
-2.13924940908328E-05,8.39743006508797E-06,3.8671875,0,0.00887535063113605
-2.18492677959148E-05,9.59524186328053E-06,3.8671875,0,0.00887535063113605
-2.1458277842612E-05,9.25418135011569E-06,3.8671875,0,0.00887535063113605
-2.13357434404315E-05,7.26427924746531E-06,3.8671875,0,0.00887535063113605
-2.16084426938323E-05,5.68313180338009E-06,3.8671875,0,0.00887535063113605
-2.31274025281891E-05,6.16154284216464E-06,3.8671875,0,0.00887535063113605
-1.98998513951665E-05,6.39205200059223E-06,3.8671875,0,0.00887535063113605
-2.65190919890301E-05,1.05487742985133E-05,3.8671875,0,0.00887535063113605
-1.80657807504758E-05,9.65725939749973E-06,3.8671875,0,0.00887535063113605
-2.38058910326799E-05,1.1590665053518E-05,3.8671875,0,0.00887535063113605
-1.8594242646941E-05,1.23923655337421E-05,3.8671875,0,0.00887535063113605
-1.88209814950824E-05,1.481731851527E-05,3.8671875,0,0.00887535063113605
-1.54921417561127E-05,1.21744906209642E-05,3.8671875,0,0.00887535063113605
-1.75477453012718E-05,9.96654944174225E-06,3.8671875,0,0.00887535063113605
-1.87433506653178E-05,9.59623594098957E-06,3.8671875,0,0.00887535063113605
-1.83449046744499E-05,9.53395738179097E-06,3.8671875,0,0.00887535063113605
-1.72580657817889E-05,8.74762281455332E-06,3.8671875,0,0.00887535063113605
-1.6117714039865E-05,8.28413703857223E-06,3.8671875,0,0.00887535063113605
-1.7655886040302E-05,8.54117115522968E-06,3.8671875,0,0.00887535063113605
-1.71602641785285E-05,8.28962765808683E-06,3.8671875,0,0.00887535063113605
-1.86707475222647E-05,9.99436724669067E-06,3.8671875,0,0.00887535063113605
-1.9038476239075E-05,1.16666524263564E-05,3.8671875,0,0.00887535063113605
-2.24776722461684E-05,1.18687103167758E-05,3.8671875,0,0.00887535063113605
-2.33331211347831E-05,9.88548981695203E-06,3.8671875,0,0.00887535063113605
-2.50643333856715E-05,9.8930167951039E-06,3.8671875,0,0.00887535063113605
-2.40499230130808E-05,1.10754644992994E-05,3.8671875,0,0.00887535063113605
-2.34252565860515E-05,1.17962390504545E-05,3.8671875,0,0.00887535063113605
-2.10112066270085E-05,1.15584607556229E-05,3.8671875,0,0.00887535063113605
-2.0332174244686E-05,1.19270171126118E-05,3.8671875,0,0.00887535063113605
-1.97087701963028E-05,1.30572407215368E-05,3.8671875,0,0.00887535063113605
-1.7765896700439E-05,1.60600466188043E-05,3.8671875,0,0.00887535063113605
-1.46665606735041E-05,1.66450772667304E-05,3.8671875,0,0.00887535063113605
-1.31632250486291E-05,1.44943633131334E-05,3.8671875,0,0.00887535063113605
-1.1204210750293E-05,9.65612525760662E-06,3.8671875,0,0.00887535063113605
-1.83275878953282E-05,1.40151732921368E-05,3.8671875,0,0.00887535063113605
-1.77828369487543E-05,1.109226650442E-05,3.8671875,0,0.00887535063113605
-2.18546465475811E-05,1.34836782308412E-05,3.8671875,0,0.00887535063113605
-2.06683453143341E-05,1.05464832813595E-05,3.8671875,0,0.00887535063113605
-2.31516205531079E-05,9.26351458474528E-06,3.8671875,0,0.00887535063113605
-2.46303643507417E-05,5.21006268172641E-06,3.8671875,0,0.00887535063113605
-2.79881569440477E-05,5.6939861678984E-06,3.8671875,0,0.00887535063113605
-2.90738007606706E-05,8.16631290945224E-06,3.8671875,0,0.00887535063113605
-2.96841571980622E-05,1.16614455691888E-05,3.8671875,0,0.00887535063113605
-3.17562917189207E-05,1.30398902911111E-05,3.8671875,0,0.00887535063113605
-3.49484835169278E-05,1.24994512589183E-05,3.8671875,0,0.00887535063113605
-3.92588917748071E-05,1.27949124362203E-05,3.8671875,0,0.00887535063113605
-4.15617578255478E-05,1.2715740922431E-05,3.8671875,0,0.00887535063113605
-4.35888723586686E-05,1.3523717825592E-05,3.8671875,0,0.00887535063113605
-4.43348362750839E-05,1.25062733786763E-05,5.9765625,0,0.00887535063113605
-4.57187343272381E-05,1.16721530503128E-05,5.9765625,0,0.00887535063113605
-4.47117381554563E-05,9.93221510725562E-06,5.9765625,0,0.00887535063113605
-4.30888576374855E-05,1.01155255833874E-05,5.9765625,0,0.00887535063113605
-3.96105751860887E-05,1.01997184174252E-05,5.9765625,0,0.00887535063113605
-3.65655723726377E-05,1.23305326269474E-05,5.9765625,0,0.00887535063113605
-3.21126062772237E-05,1.33744078993914E-05,5.9765625,0,0.00887535063113605
-2.66152710537426E-05,1.21946568469866E-05,5.9765625,0,0.00887535063113605
-2.01497678062879E-05,1.10724113255856E-05,5.9765625,0,0.00887535063113605
-1.37655888465815E-05,1.15098500828026E-05,5.9765625,0,0.00887535063113605
-8.36294657347025E-06,9.57666179601802E-06,5.9765625,0,0.00887535063113605
-5.85090492677409E-06,6.25860957370605E-06,5.9765625,0,0.00887535063113605
-3.97188341594301E-06,4.24953850597376E-06,5.9765625,0,0.00887535063113605
-4.53601796834846E-06,7.9426754382439E-06,5.9765625,0,0.00887535063113605
-1.00218267107266E-06,7.9694027590449E-06,5.9765625,0,0.00887535063113605
-1.21927291729662E-06,8.78756600286579E-06,5.9765625,0,0.00887535063113605
-2.11266319638526E-06,8.84662858879892E-06,5.9765625,0,0.00887535063113605
-5.84753070143051E-06,9.4177821665653E-06,5.9765625,0,0.00887535063113605
-8.57901341078104E-06,7.83459381636931E-06,5.9765625,0,0.00887535063113605
-9.49513378145639E-06,7.03518117006752E-06,5.9765625,0,0.00887535063113605
-8.95362245501019E-06,9.05262459127698E-06,5.9765625,0,0.00887535063113605
-9.27239125303458E-06,1.12149627966573E-05,5.9765625,0,0.00887535063113605
-8.93296692083823E-06,1.09021966636647E-05,5.9765625,0,0.00887535063113605
-6.00726662014495E-06,1.0237909918942E-05,5.9765625,0,0.00887535063113605
-1.80024028395565E-06,1.08883996290388E-05,5.9765625,0,0.00887535063113605
1.56221130964695E-06,1.12062252810574E-05,5.9765625,0,0.00887535063113605
1.91154958883999E-06,1.23142053780612E-05,5.9765625,0,0.00887535063113605
1.94351900972833E-06,1.37563993121148E-05,5.9765625,0,0.00887535063113605
2.36442610912491E-06,1.49742045323364E-05,5.9765625,0,0.00887535063113605
2.30701493819652E-06,1.46529691846808E-05,5.9765625,0,0.00887535063113605
-6.65250823317365E-08,1.3951724213257E-05,5.9765625,0,0.00887535063113605
-2.88640285361907E-06,1.28117480926448E-05,5.9765625,0,0.00887535063113605
-6.91288732923567E-06,1.13971827886417E-05,5.9765625,0,0.00887535063113605
-1.25185861179489E-05,1.07737969301525E-05,5.9765625,0,0.00887535063113605
-1.96503970073536E-05,1.22526062114048E-05,5.9765625,0,0.00887535063113605
-2.60521555901505E-05,1.50527175719617E-05,5.9765625,0,0.00887535063113605
-3.10155155602843E-05,1.81322684511542E-05,5.9765625,0,0.00887535063113605
-3.46137712767813E-05,2.05413234652951E-05,5.9765625,0,0.00887535063113605
-3.6483135772869E-05,2.19130743062124E-05,5.9765625,0,0.00887535063113605
-3.12568554363679E-05,1.72543714143103E-05,5.9765625,0,0.00887535063113605
-4.53522661700845E-05,2.25085077545373E-05,5.9765625,0,0.00887535063113605
-3.46365377481561E-05,1.4376659237314E-05,5.9765625,0,0.00887535063113605
-4.24831741838716E-05,1.83364154509036E-05,5.9765625,0,0.00887535063113605
-3.71256573998835E-05,1.46034089993918E-05,5.9765625,0,0.00887535063113605
-4.35494584962726E-05,1.79319540620781E-05,5.9765625,0,0.00887535063113605
-4.26581864303444E-05,1.44843061207212E-05,5.9765625,0,0.00887535063113605
-4.53340944659431E-05,1.2098432307539E-05,5.9765625,0,0.00887535063113605
-4.33726381743327E-05,7.72667044657283E-06,5.9765625,0,0.00887535063113605
-4.276472463971E-05,6.07882930125925E-06,5.9765625,0,0.00887535063113605
-4.26428596256301E-05,6.97078621669789E-06,5.9765625,0,0.00887535063113605
-4.03325611841865E-05,7.64199739933247E-06,5.9765625,0,0.00887535063113605
-3.85722632927354E-05,8.51093500386924E-06,5.9765625,0,0.00887535063113605
-3.32396011799574E-05,6.39045401840121E-06,5.9765625,0,0.00887535063113605
-3.19756072713062E-05,5.18790920978063E-06,5.9765625,0,0.00887535063113605
-2.82630517176585E-05,3.15897000291443E-06,5.9765625,0,0.00887535063113605
-2.75756920018466E-05,5.93516460867249E-06,5.9765625,0,0.00887535063113605
-2.31927460845327E-05,7.1101717367128E-06,5.9765625,0,0.00887535063113605
-2.15431718970649E-05,9.03168529475806E-06,5.9765625,0,0.00887535063113605
-1.59330284077441E-05,8.49151365400758E-06,5.9765625,0,0.00887535063113605
-1.27860430438886E-05,9.58562031883048E-06,5.9765625,0,0.00887535063113605
-1.0120284059667E-05,1.13062478703796E-05,5.9765625,0,0.00887535063113605
-1.28804413179751E-05,1.48170529428171E-05,5.9765625,0,0.00887535063113605
-1.61611333169276E-05,1.64063658303348E-05,5.9765625,0,0.00887535063113605
-1.94677941180998E-05,1.73730713868281E-05,5.9765625,0,0.00887535063113605
-2.17133074329467E-05,1.70079492818331E-05,5.9765625,0,0.00887535063113605
-2.42284313571872E-05,1.775982491381E-05,5.9765625,0,0.00887535063113605
-2.15494110307191E-05,1.59497831191402E-05,5.9765625,0,0.00887535063113605
-3.21146762871649E-05,2.34088674915256E-05,5.9765625,0,0.00887535063113605
-2.6897596399067E-05,1.74107535713119E-05,5.9765625,0,0.00887535063113605
-3.31385053868871E-05,1.96330547623802E-05,5.9765625,0,0.00887535063113605
-3.04238856188022E-05,1.53647852130234E-05,5.9765625,0,0.00887535063113605
-3.59199002559762E-05,1.59769642777974E-05,5.9765625,0,0.00887535063113605
-3.63112376362551E-05,1.34126848934102E-05,5.9765625,0,0.00887535063113605
-3.88819826184772E-05,1.47910777741345E-05,5.9765625,0,0.00887535063113605
-3.75589079339989E-05,1.49049255924183E-05,5.9765625,0,0.00887535063113605
-3.6043296859134E-05,1.2815974514524E-05,5.9765625,0,0.00887535063113605
-3.57525786967017E-05,9.53549442783697E-06,5.9765625,0,0.00887535063113605
-3.52781389665324E-05,7.66314315114869E-06,5.9765625,0,0.00887535063113605
-3.5024404496653E-05,8.89597777131712E-06,5.9765625,0,0.00887535063113605
-3.16687765007373E-05,8.06962725619087E-06,5.9765625,0,0.00887535063113605
-3.11221228912473E-05,8.3163413364673E-06,5.9765625,0,0.00887535063113605
-2.82386845356086E-05,7.10192307451507E-06,5.9765625,0,0.00887535063113605
-2.6210718715447E-05,6.93307629262563E-06,5.9765625,0,0.00887535063113605
-2.04649350052932E-05,5.20867888553767E-06,5.9765625,0,0.00887535063113605
-1.67824327945709E-05,5.63844469070318E-06,5.9765625,0,0.00887535063113605
-1.28205165310646E-05,5.5395480558218E-06,5.9765625,0,0.00887535063113605
-1.30665875985869E-05,7.46043087929138E-06,5.9765625,0,0.00887535063113605
-1.23900072139804E-05,8.5141464296612E-06,5.9765625,0,0.00887535063113605
-1.28452475109953E-05,8.71983593242476E-06,5.9765625,0,0.00887535063113605
-1.53173477883684E-05,7.79659512772923E-06,5.9765625,0,0.00887535063113605
-1.95601533050649E-05,9.0839284894173E-06,5.9765625,0,0.00887535063113605
-2.27571490540868E-05,9.24113919609226E-06,5.9765625,0,0.00887535063113605
-2.40373756241752E-05,7.10564245309797E-06,5.9765625,0,0.00887535063113605
-2.14003975997912E-05,3.70610359823331E-06,5.9765625,0,0.00887535063113605
-3.35113436449319E-05,5.19703917234438E-06,5.9765625,0,0.00887535063113605
-3.05478206428234E-05,6.41187762084883E-06,5.9765625,0,0.00887535063113605
-3.77550604753196E-05,8.63905097503448E-06,5.9765625,0,0.00887535063113605
-3.31649680447299E-05,5.44118165635155E-06,5.9765625,0,0.00887535063113605
-3.41035447490867E-05,4.47071306552971E-06,5.9765625,0,0.00887535063113605
-3.0511231670971E-05,3.66258996109536E-06,5.9765625,0,0.00887535063113605
-2.91319101961562E-05,5.58980900677852E-06,5.9765625,0,0.00887535063113605
-2.57152169069741E-05,7.82836104917806E-06,5.9765625,0,0.00887535063113605
-2.30886053032009E-05,8.87825899553718E-06,5.9765625,0,0.00887535063113605
-2.0266585124773E-05,9.59519366006134E-06,5.9765625,0,0.00887535063113605
-1.7821257642936E-05,8.73379849508638E-06,5.9765625,0,0.00887535063113605
-1.94234435184626E-05,7.07897925167345E-06,5.9765625,0,0.00887535063113605
-2.02512946998468E-05,6.18519152340014E-06,5.9765625,0,0.00887535063113605
-2.25169769692002E-05,7.25063955542282E-06,5.9765625,0,0.00887535063113605
-2.21759892156115E-05,6.58123917673947E-06,5.9765625,0,0.00887535063113605
-2.40658682741923E-05,4.68126836494775E-06,5.9765625,0,0.00887535063113605
-2.4254912204924E-05,2.90220282295195E-06,5.9765625,0,0.00887535063113605
-2.67399082076736E-05,3.56371560883417E-06,5.9765625,0,0.00887535063113605
-2.74157609965187E-05,5.12844326294726E-06,5.9765625,0,0.00887535063113605
-2.92197692033369E-05,5.86704754823586E-06,5.9765625,0,0.00887535063113605
-3.02053322229767E-05,4.95332778882585E-06,5.9765625,0,0.00887535063113605
-3.30159382428974E-05,3.92874471799587E-06,5.9765625,0,0.00887535063113605
-3.4876968129538E-05,2.38326629187213E-06,5.9765625,0,0.00887535063113605
-3.62941900675651E-05,1.99357828023494E-06,5.9765625,0,0.00887535063113605
-3.56701566488482E-05,3.57822227670113E-06,5.9765625,0,0.00887535063113605
-3.38333265972324E-05,5.70753991269157E-06,5.9765625,0,0.00887535063113605
-2.43655867961934E-05,6.95388143867604E-06,5.9765625,0,0.00887535063113605
-3.14887474814896E-05,1.14357344500604E-05,5.9765625,0,0.00887535063113605
-1.80171264219098E-05,1.18494644993916E-05,5.9765625,0,0.00887535063113605
-2.11846418096684E-05,1.45297726703575E-05,5.9765625,0,0.00887535063113605
-1.43667793963687E-05,1.23253812489565E-05,5.9765625,0,0.00887535063113605
-1.5471561710001E-05,1.14672848212649E-05,5.9765625,0,0.00887535063113605
-9.2223317551543E-06,9.48655815591337E-06,5.9765625,0,0.00887535063113605
-7.63500429457054E-06,9.13911026145797E-06,5.9765625,0,0.00887535063113605
-3.6850003652944E-06,8.42594818095677E-06,5.9765625,0,0.00887535063113605
-2.03315357794054E-06,9.32347666093847E-06,5.9765625,0,0.00887535063113605
-2.29894749281812E-06,1.05136878119083E-05,5.9765625,0,0.00887535063113605
-2.41165730585635E-06,1.06313182186568E-05,5.9765625,0,0.00887535063113605
-3.61086540578981E-06,1.05748604255496E-05,5.9765625,0,0.00887535063113605
-3.11665326080401E-06,1.02013482319308E-05,5.9765625,0,0.00887535063113605
-7.48637330616475E-06,9.97430197458016E-06,5.9765625,0,0.00887535063113605
-9.92270997812739E-06,8.17320869828109E-06,5.9765625,0,0.00887535063113605
-1.37382648972562E-05,8.84150631463854E-06,5.9765625,0,0.00887535063113605
-1.37571678351378E-05,1.07664864117396E-05,5.9765625,0,0.00887535063113605
-1.76908561115852E-05,1.30521393657546E-05,5.9765625,0,0.00887535063113605
-2.09257577807875E-05,1.30424496092019E-05,5.9765625,0,0.00887535063113605
-2.58472427958623E-05,1.325416360487E-05,5.9765625,0,0.00887535063113605
-2.73292935162317E-05,1.28122146634269E-05,5.9765625,0,0.00887535063113605
-2.83690624200972E-05,1.24160387713346E-05,5.9765625,0,0.00887535063113605
-2.62816574831959E-05,1.19072292363853E-05,5.9765625,0,0.00887535063113605
-2.56999555858783E-05,1.18013476821943E-05,5.9765625,0,0.00887535063113605
-2.67746654571965E-05,1.22946967167081E-05,5.9765625,0,0.00887535063113605
-2.67238519882085E-05,1.38457617140375E-05,5.9765625,0,0.00887535063113605
-1.84000637091231E-05,1.40166894198046E-05,5.9765625,0,0.00887535063113605
-2.45288756559603E-05,2.1251013095025E-05,5.9765625,0,0.00887535063113605
-1.83949505299097E-05,1.58329930854961E-05,5.9765625,0,0.00887535063113605
-2.48338201345177E-05,1.53621658682823E-05,5.9765625,0,0.00887535063113605
-2.17511678783922E-05,1.03664224297972E-05,5.9765625,0,0.00887535063113605
-2.73989353445359E-05,1.19773058031569E-05,5.9765625,0,0.00887535063113605
-2.95712416118477E-05,9.97832830762491E-06,5.9765625,0,0.00887535063113605
-3.53625509887934E-05,9.69104257819708E-06,5.9765625,0,0.00887535063113605
-3.7824698665645E-05,8.92835305421613E-06,5.9765625,0,0.00887535063113605
-3.93384107155725E-05,9.78852676780662E-06,5.9765625,0,0.00887535063113605
-4.0755399822956E-05,1.03135735116666E-05,5.9765625,0,0.00887535063113605
-4.10570100939367E-05,9.81486573436996E-06,5.9765625,0,0.00887535063113605
-4.29764440923464E-05,9.25036147236824E-06,5.9765625,0,0.00887535063113605
-4.23232013417874E-05,6.34642810837249E-06,5.9765625,0,0.00887535063113605
-4.19074858655222E-05,6.32966384728206E-06,5.9765625,0,0.00887535063113605
-3.81545214622747E-05,7.58697524361196E-06,5.9765625,0,0.00887535063113605
-3.69995068467688E-05,1.19343612823286E-05,5.9765625,0,0.00887535063113605
-3.46081724273972E-05,1.35240270537906E-05,5.9765625,0,0.00887535063113605
-3.42243365594186E-05,1.35650197989889E-05,5.9765625,0,0.00887535063113605
-3.18289712595288E-05,1.0646520422597E-05,5.9765625,0,0.00887535063113605
-3.17389822157566E-05,9.43523536989233E-06,11.07421875,0,0.00887535063113605
-3.17007252306212E-05,8.95006087375805E-06,11.07421875,0,0.00887535063113605
-3.22845917253289E-05,1.07392752397573E-05,11.07421875,0,0.00887535063113605
-3.16889672831167E-05,1.34428928504349E-05,11.07421875,0,0.00887535063113605
-3.29124923155177E-05,1.56339665409178E-05,11.07421875,0,0.00887535063113605
-3.49215515598189E-05,1.5760822861921E-05,11.07421875,0,0.00887535063113605
-3.50189038726967E-05,1.75427867361577E-05,11.07421875,0,0.00887535063113605
-2.44973980443319E-05,1.60636682267068E-05,11.07421875,0,0.00887535063113605
-3.18196907755919E-05,2.16517164517427E-05,11.07421875,0,0.00887535063113605
-1.80951956281206E-05,1.30290900415275E-05,11.07421875,0,0.00887535063113605
-1.9083736333414E-05,1.56233454617905E-05,11.07421875,0,0.00887535063113605
-9.35865864448715E-06,1.37650886244955E-05,11.07421875,0,0.00887535063113605
-1.08986714622006E-05,1.64707034855383E-05,11.07421875,0,0.00887535063113605
-5.88659077038756E-06,1.44155910675181E-05,11.07421875,0,0.00887535063113605
-5.69793746763025E-06,1.6248148313025E-05,11.07421875,0,0.00887535063113605
-5.07269760419149E-06,1.72275613294914E-05,11.07421875,0,0.00887535063113605
-6.67098993289983E-06,1.79661310539814E-05,11.07421875,0,0.00887535063113605
-8.67160633788444E-06,1.7319052858511E-05,11.07421875,0,0.00887535063113605
-8.92135722097009E-06,1.62522919708863E-05,11.07421875,0,0.00887535063113605
-1.0253426808049E-05,1.67369053087896E-05,11.07421875,0,0.00887535063113605
-9.46869931794936E-06,1.56523838086287E-05,11.07421875,0,0.00887535063113605
-1.30401595015428E-05,1.50430860230699E-05,11.07421875,0,0.00887535063113605
-1.52225138663198E-05,1.09797019831603E-05,11.07421875,0,0.00887535063113605
-1.9116889234283E-05,9.08427682588808E-06,11.07421875,0,0.00887535063113605
-1.77523033926263E-05,8.26662380859489E-06,11.07421875,0,0.00887535063113605
-1.83038682735059E-05,1.13465112008271E-05,11.07421875,0,0.00887535063113605
-1.76619978446979E-05,1.21493703773012E-05,11.07421875,0,0.00887535063113605
-1.95488610188477E-05,1.21620623758645E-05,11.07421875,0,0.00887535063113605
-1.93928608496208E-05,1.01652949524578E-05,11.07421875,0,0.00887535063113605
-1.92856659850804E-05,1.05433800854371E-05,11.07421875,0,0.00887535063113605
-1.80284914677031E-05,1.18445877888007E-05,11.07421875,0,0.00887535063113605
-1.8206925233244E-05,1.32450240926119E-05,11.07421875,0,0.00887535063113605
-1.85140524990857E-05,1.33003795781406E-05,11.07421875,0,0.00887535063113605
-1.98577054106863E-05,1.3196176951169E-05,11.07421875,0,0.00887535063113605
-1.86997312994208E-05,9.26937809708761E-06,11.07421875,0,0.00887535063113605
-2.80396998277865E-05,1.2755413990817E-05,11.07421875,0,0.00887535063113605
-2.33065420616185E-05,1.03494476206833E-05,11.07421875,0,0.00887535063113605
-2.87586917693261E-05,1.37138185891672E-05,11.07421875,0,0.00887535063113605
-2.62265639321413E-05,9.60022043727804E-06,11.07421875,0,0.00887535063113605
-2.97963470075047E-05,7.78840876591858E-06,11.07421875,0,0.00887535063113605
-2.81191987596685E-05,5.06492642671219E-06,11.07421875,0,0.00887535063113605
-2.70598447968951E-05,5.11245298184804E-06,11.07421875,0,0.00887535063113605
-2.53092275670497E-05,5.57736075279536E-06,11.07421875,0,0.00887535063113605
-2.5734369046404E-05,8.4186322055757E-06,11.07421875,0,0.00887535063113605
-2.76573209703201E-05,1.13230644274154E-05,11.07421875,0,0.00887535063113605
-2.92613021883881E-05,1.08901040221099E-05,11.07421875,0,0.00887535063113605
-3.27555353578646E-05,9.70714791037608E-06,11.07421875,0,0.00887535063113605
-3.46704437106382E-05,7.74282034399221E-06,11.07421875,0,0.00887535063113605
-3.68459441233426E-05,7.75516127760056E-06,11.07421875,0,0.00887535063113605
-3.51625458279159E-05,8.21013418317307E-06,11.07421875,0,0.00887535063113605
-3.51068847521674E-05,1.01092209661147E-05,11.07421875,0,0.00887535063113605
-3.37872916134074E-05,1.03286847661366E-05,11.07421875,0,0.00887535063113605
-3.34260184899904E-05,1.0429283065605E-05,11.07421875,0,0.00887535063113605
-2.99207640637178E-05,9.14212341740495E-06,11.07421875,0,0.00887535063113605
-2.67297345999395E-05,9.45028295973316E-06,11.07421875,0,0.00887535063113605
-2.32161473832093E-05,1.00789857242489E-05,11.07421875,0,0.00887535063113605
-2.32672446145443E-05,1.17452209451585E-05,11.07421875,0,0.00887535063113605
-2.51885903708171E-05,1.28912870422937E-05,11.07421875,0,0.00887535063113605
-2.68948897428345E-05,1.12756224552868E-05,11.07421875,0,0.00887535063113605
-2.68708809016971E-05,7.64389369578566E-06,11.07421875,0,0.00887535063113605
-2.69527026830474E-05,4.77704452350736E-06,11.07421875,0,0.00887535063113605
-2.23281331273029E-05,3.01847057926352E-06,11.07421875,0,0.00887535063113605
-3.1472991395276E-05,5.41835106560029E-06,11.07421875,0,0.00887535063113605
-2.19091998587828E-05,6.50249376121792E-06,11.07421875,0,0.00887535063113605
-2.56413895840524E-05,6.172631856316E-06,11.07421875,0,0.00887535063113605
-1.98655325220898E-05,3.38843688041379E-06,11.07421875,0,0.00887535063113605
-2.0077837689314E-05,4.57286068922258E-06,11.07421875,0,0.00887535063113605
-1.30198941405979E-05,5.07362210555584E-06,11.07421875,0,0.00887535063113605
-8.491420885548E-06,4.59403645436396E-06,11.07421875,0,0.00887535063113605
-2.5312094749097E-06,4.35949868915486E-06,11.07421875,0,0.00887535063113605
1.1334022929077E-06,3.81053246201191E-06,11.07421875,0,0.00887535063113605
2.91855712930555E-06,3.07923778564145E-06,11.07421875,0,0.00887535063113605
3.67699544767675E-06,4.5422721086652E-06,11.07421875,0,0.00887535063113605
2.23366072304998E-07,7.88903889770154E-06,11.07421875,0,0.00887535063113605
-4.25584630647791E-06,1.09909060483915E-05,11.07421875,0,0.00887535063113605
-1.25702254081261E-05,1.33772518893238E-05,11.07421875,0,0.00887535063113605
-1.88939011422917E-05,1.35999680423993E-05,11.07421875,0,0.00887535063113605
-2.62048397416947E-05,1.32600489450851E-05,11.07421875,0,0.00887535063113605
-2.85803616861813E-05,1.33452986119664E-05,11.07421875,0,0.00887535063113605
-3.09784227283672E-05,1.47125292642158E-05,11.07421875,0,0.00887535063113605
-3.0599971069023E-05,1.52080538100563E-05,11.07421875,0,0.00887535063113605
-3.23022832162678E-05,1.53018791024806E-05,11.07421875,0,0.00887535063113605
-3.34720098180696E-05,1.39938974825782E-05,11.07421875,0,0.00887535063113605
-3.57474309566896E-05,1.18543757707812E-05,11.07421875,0,0.00887535063113605
-3.56235323124565E-05,1.08101994555909E-05,11.07421875,0,0.00887535063113605
-3.58283759851474E-05,1.21528846648289E-05,11.07421875,0,0.00887535063113605
-3.73158509319182E-05,1.52698430611053E-05,11.07421875,0,0.00887535063113605
-4.01573888666462E-05,1.55845173139824E-05,11.07421875,0,0.00887535063113605
-3.40197839250322E-05,9.50803678279044E-06,11.07421875,0,0.00887535063113605
-4.78682995890267E-05,1.05440731203998E-05,11.07421875,0,0.00887535063113605
-3.45764310623053E-05,4.26686756327399E-06,11.07421875,0,0.00887535063113605
-4.1344446799485E-05,7.21769720257726E-06,11.07421875,0,0.00887535063113605
-3.22300656989682E-05,5.13258146384032E-06,11.07421875,0,0.00887535063113605
-3.46368724422064E-05,5.79580910198274E-06,11.07421875,0,0.00887535063113605
-2.89404415525496E-05,3.20729463965108E-06,11.07421875,0,0.00887535063113605
-2.88167138933204E-05,3.80477081307617E-06,11.07421875,0,0.00887535063113605
-2.41122215811629E-05,4.61000490759034E-06,11.07421875,0,0.00887535063113605
-2.07924549613381E-05,4.72514602734009E-06,11.07421875,0,0.00887535063113605
-1.96867567865411E-05,4.36842765338952E-06,11.07421875,0,0.00887535063113605
-1.81657560460735E-05,4.18223180531641E-06,11.07421875,0,0.00887535063113605
-1.87387631740421E-05,4.31351509178057E-06,11.07421875,0,0.00887535063113605
-1.55947200255468E-05,2.96868961413566E-06,11.07421875,0,0.00887535063113605
-1.71533829416148E-05,3.48076127920649E-06,11.07421875,0,0.00887535063113605
-1.75891000253614E-05,3.37076426148997E-06,11.07421875,0,0.00887535063113605
-2.2895661459188E-05,4.17001774621895E-06,11.07421875,0,0.00887535063113605
-2.32025631703436E-05,4.94429878017399E-06,11.07421875,0,0.00887535063113605
-2.49933600571239E-05,9.19826106837718E-06,11.07421875,0,0.00887535063113605
-2.3259472072823E-05,1.34396386783919E-05,11.07421875,0,0.00887535063113605
-2.49450968112797E-05,1.71261344803497E-05,11.07421875,0,0.00887535063113605
-2.50143712037243E-05,1.74706219695508E-05,11.07421875,0,0.00887535063113605
-2.73399509751471E-05,1.7472533727414E-05,11.07421875,0,0.00887535063113605
-2.95964746328536E-05,1.75708901224425E-05,11.07421875,0,0.00887535063113605
-3.17131416522898E-05,1.71586725628003E-05,11.07421875,0,0.00887535063113605
-3.05178182316013E-05,1.5477313354495E-05,11.07421875,0,0.00887535063113605
-2.97484039037954E-05,1.41984510264592E-05,11.07421875,0,0.00887535063113605
-2.51043056778144E-05,1.17168892757036E-05,11.07421875,0,0.00887535063113605
-3.62095961463638E-05,1.65010151249589E-05,11.07421875,0,0.00887535063113605
-2.82736709777964E-05,1.07324685814092E-05,11.07421875,0,0.00887535063113605
-3.50277841789648E-05,1.15284738058108E-05,11.07421875,0,0.00887535063113605
-3.10936193272937E-05,8.7773614723119E-06,11.07421875,0,0.00887535063113605
-3.55713382305112E-05,1.09930724647711E-05,11.07421875,0,0.00887535063113605
-3.43711690220516E-05,9.86968098004581E-06,11.07421875,0,0.00887535063113605
-3.66271633538418E-05,9.52597565628821E-06,11.07421875,0,0.00887535063113605
-3.69413573935162E-05,8.99349470273592E-06,11.07421875,0,0.00887535063113605
-3.82871512556449E-05,8.75932255439693E-06,11.07421875,0,0.00887535063113605
-3.8036592741264E-05,7.87891985964961E-06,11.07421875,0,0.00887535063113605
-3.45484804711305E-05,7.50123081161291E-06,11.07421875,0,0.00887535063113605
-3.22059022437315E-05,9.55446648731595E-06,11.07421875,0,0.00887535063113605
-2.76536775345448E-05,1.14128642962896E-05,11.07421875,0,0.00887535063113605
-2.61407312791562E-05,1.41958562380751E-05,11.07421875,0,0.00887535063113605
-2.22622220462654E-05,1.47362015923136E-05,11.07421875,0,0.00887535063113605
-1.98270972759929E-05,1.52939301187871E-05,11.07421875,0,0.00887535063113605
-1.37640281536733E-05,1.40972715598764E-05,11.07421875,0,0.00887535063113605
-1.2003017218376E-05,1.43830620800145E-05,11.07421875,0,0.00887535063113605
-9.98975156107917E-06,1.4288090824266E-05,11.07421875,0,0.00887535063113605
-8.80922470969381E-06,1.56581427290803E-05,11.07421875,0,0.00887535063113605
-4.25384723712341E-06,1.65241235663416E-05,11.07421875,0,0.00887535063113605
-5.10758184191218E-07,1.74315664480673E-05,11.07421875,0,0.00887535063113605
2.31427520702709E-06,1.74191754922504E-05,11.07421875,0,0.00887535063113605
9.89070940704551E-07,1.67379384947708E-05,11.07421875,0,0.00887535063113605
-2.01044099412684E-06,1.44062541949097E-05,11.07421875,0,0.00887535063113605
-4.94618097945931E-06,1.24915013657301E-05,11.07421875,0,0.00887535063113605
-5.64685296922107E-06,1.11782201202004E-05,11.07421875,0,0.00887535063113605
-9.05330398381921E-06,1.545668237668E-05,11.07421875,0,0.00887535063113605
-9.72554335021414E-06,1.02752564998809E-05,11.07421875,0,0.00887535063113605
-1.35885557028814E-05,1.17258168756962E-05,11.07421875,0,0.00887535063113605
-1.48636008816538E-05,7.17301600161591E-06,11.07421875,0,0.00887535063113605
-1.69239574461244E-05,5.59963882551529E-06,11.07421875,0,0.00887535063113605
-1.66017289302545E-05,2.87053740066767E-06,11.07421875,0,0.00887535063113605
-1.62442665896378E-05,3.43362967214489E-06,11.07421875,0,0.00887535063113605
-1.61234638653696E-05,4.68596408609301E-06,11.07421875,0,0.00887535063113605
-1.69866634678328E-05,6.5325211835443E-06,11.07421875,0,0.00887535063113605
-1.89472611964447E-05,7.64844025979983E-06,11.07421875,0,0.00887535063113605
-2.12703853321727E-05,7.0802138907311E-06,11.07421875,0,0.00887535063113605
-2.36530668189516E-05,7.00823011356988E-06,11.07421875,0,0.00887535063113605
-2.43325157498475E-05,6.44711053610081E-06,11.07421875,0,0.00887535063113605
-2.5410030502826E-05,8.28960310172988E-06,11.07421875,0,0.00887535063113605
-2.70401651505381E-05,9.38879020395689E-06,11.07421875,0,0.00887535063113605
-2.99847997666802E-05,1.15008333523292E-05,11.07421875,0,0.00887535063113605
-3.17364683724009E-05,1.24521684483625E-05,11.07421875,0,0.00887535063113605
-3.26065892295446E-05,1.32869581648265E-05,11.07421875,0,0.00887535063113605
-3.25644105032552E-05,1.19822298074723E-05,11.07421875,0,0.00887535063113605
-3.23591557389591E-05,1.12636207632022E-05,11.07421875,0,0.00887535063113605
-3.09312817989849E-05,9.97392635326833E-06,11.07421875,0,0.00887535063113605
-2.95428235403961E-05,9.37485856411513E-06,18.984375,0,0.00887535063113605
-2.60662400251022E-05,9.5108371169772E-06,18.984375,0,0.00887535063113605
-2.05631731660105E-05,1.34025913212099E-05,18.984375,0,0.00887535063113605
-1.66328754858114E-05,1.74560173036298E-05,18.984375,0,0.00887535063113605
-1.53947858052561E-05,1.71450865309453E-05,18.984375,0,0.00887535063113605
-1.23719401017297E-05,1.21128887258237E-05,18.984375,0,0.00887535063113605
-1.64433804457076E-05,1.64391040016199E-05,18.984375,0,0.00887535063113605
-9.91579508990981E-06,1.32407476485241E-05,18.984375,0,0.00887535063113605
-1.27325156427105E-05,1.87902696779929E-05,18.984375,0,0.00887535063113605
-1.17148947538226E-05,1.74848628375912E-05,18.984375,0,0.00887535063113605
-1.58027978613973E-05,2.0522373233689E-05,18.984375,0,0.00887535063113605
-1.80663246283075E-05,1.91515846381662E-05,18.984375,0,0.00887535063113605
-2.37048243434401E-05,1.86970664799446E-05,18.984375,0,0.00887535063113605
-2.92574295599479E-05,1.61833995662164E-05,18.984375,0,0.00887535063113605
-3.61389393219724E-05,1.3785041119263E-05,18.984375,0,0.00887535063113605
-4.28953826485667E-05,1.22816036309814E-05,18.984375,0,0.00887535063113605
-4.72861611342523E-05,1.14934728117078E-05,18.984375,0,0.00887535063113605
-4.98349400004372E-05,1.20019540190697E-05,18.984375,0,0.00887535063113605
-4.97043547511566E-05,1.06420338852331E-05,18.984375,0,0.00887535063113605
-5.04210038343444E-05,1.0977507372445E-05,18.984375,0,0.00887535063113605
-4.95377425977495E-05,1.06480993053992E-05,18.984375,0,0.00887535063113605
-4.91031569254119E-05,1.12102616185439E-05,18.984375,0,0.00887535063113605
-4.68446451122873E-05,9.44551447901176E-06,18.984375,0,0.00887535063113605
-4.63410251541063E-05,8.89918283064617E-06,18.984375,0,0.00887535063113605
-4.51282066933345E-05,7.48769298297702E-06,18.984375,0,0.00887535063113605
-4.41174124716781E-05,8.29941473057261E-06,18.984375,0,0.00887535063113605
-4.06242070312146E-05,1.02221638371702E-05,18.984375,0,0.00887535063113605
-3.68963119399268E-05,1.25781252791057E-05,18.984375,0,0.00887535063113605
-3.19369937642477E-05,1.24692123790737E-05,18.984375,0,0.00887535063113605
-2.71028111455962E-05,1.0116993507836E-05,18.984375,0,0.00887535063113605
-2.18087679968448E-05,5.8533964875096E-06,18.984375,0,0.00887535063113605
-1.62882970471401E-05,4.95364611197147E-06,18.984375,0,0.00887535063113605
-9.53483140619937E-06,5.0628773351491E-06,18.984375,0,0.00887535063113605
-1.11747149276198E-05,7.13487952452851E-06,18.984375,0,0.00887535063113605
-3.98205247620353E-06,6.36733375358745E-06,18.984375,0,0.00887535063113605
-2.77552408078918E-06,8.93994001671672E-06,18.984375,0,0.00887535063113605
2.23562574319658E-06,7.23409448255552E-06,18.984375,0,0.00887535063113605
8.07462015472993E-07,8.58138992043678E-06,18.984375,0,0.00887535063113605
1.70917610375909E-06,1.22404308058321E-05,18.984375,0,0.00887535063113605
1.17522483833454E-06,1.53906967170769E-05,18.984375,0,0.00887535063113605
1.98764496417425E-07,1.54429999383865E-05,18.984375,0,0.00887535063113605
-6.59832551264117E-07,1.42160070026875E-05,18.984375,0,0.00887535063113605
-1.48469894156733E-06,1.39830635816907E-05,18.984375,0,0.00887535063113605
-2.40684403252089E-06,1.50171799759846E-05,18.984375,0,0.00887535063113605
-4.58163913208409E-06,1.64336142916E-05,18.984375,0,0.00887535063113605
-6.55070743960096E-06,1.59563060151413E-05,18.984375,0,0.00887535063113605
-1.11701838250156E-05,1.40031443152111E-05,18.984375,0,0.00887535063113605
-1.60288345796289E-05,1.06971820059698E-05,18.984375,0,0.00887535063113605
-2.07105276786024E-05,9.14087286219001E-06,18.984375,0,0.00887535063113605
-2.30748373724055E-05,9.34759009396657E-06,18.984375,0,0.00887535063113605
-2.69105839834083E-05,9.27410019357922E-06,18.984375,0,0.00887535063113605
-2.98116410704097E-05,6.7736486926151E-06,18.984375,0,0.00887535063113605
-3.2583480788162E-05,5.74149407839286E-06,18.984375,0,0.00887535063113605
-3.45503576681949E-05,6.3982188294176E-06,18.984375,0,0.00887535063113605
-3.75138843082823E-05,8.0458894444746E-06,18.984375,0,0.00887535063113605
-3.87803702324163E-05,9.48284650803544E-06,18.984375,0,0.00887535063113605
-3.81598765670788E-05,9.95203390630195E-06,18.984375,0,0.00887535063113605
-3.70701927749906E-05,9.83209883997915E-06,18.984375,0,0.00887535063113605
-3.60511294275057E-05,9.3538119472214E-06,18.984375,0,0.00887535063113605
-2.85517435258953E-05,7.76238175603794E-06,18.984375,0,0.00887535063113605
-4.06768740504049E-05,1.18167072287179E-05,18.984375,0,0.00887535063113605
-3.11884614347946E-05,9.93493813439272E-06,18.984375,0,0.00887535063113605
-3.87218751711771E-05,1.32616651171702E-05,18.984375,0,0.00887535063113605
-3.15172837872524E-05,1.38955019792775E-05,18.984375,0,0.00887535063113605
-3.37860910804011E-05,1.63161130330991E-05,18.984375,0,0.00887535063113605
-2.88450846710475E-05,1.64968241733732E-05,18.984375,0,0.00887535063113605
-2.87470975308679E-05,1.64972989296075E-05,18.984375,0,0.00887535063113605
-2.62765934166964E-05,1.42911685543368E-05,18.984375,0,0.00887535063113605
-2.47323787334608E-05,1.26947015814949E-05,18.984375,0,0.00887535063113605
-2.23865336010931E-05,1.15939164970769E-05,18.984375,0,0.00887535063113605
-1.86988017958356E-05,1.0211960216111E-05,18.984375,0,0.00887535063113605
-1.87698678928427E-05,1.05975605038111E-05,18.984375,0,0.00887535063113605
-1.87558071047533E-05,9.79763808572898E-06,18.984375,0,0.00887535063113605
-2.26249485422159E-05,8.9937966549769E-06,18.984375,0,0.00887535063113605
-2.23697716137394E-05,7.93561957834754E-06,18.984375,0,0.00887535063113605
-2.45395640376955E-05,8.27671647130046E-06,18.984375,0,0.00887535063113605
-2.36822215811117E-05,7.45347051633871E-06,18.984375,0,0.00887535063113605
-2.52014197030803E-05,6.9698694460385E-06,18.984375,0,0.00887535063113605
-2.36642790696351E-05,6.50165384286083E-06,18.984375,0,0.00887535063113605
-2.52140289376257E-05,6.95416065354948E-06,18.984375,0,0.00887535063113605
-2.62105641013477E-05,7.00991040503141E-06,18.984375,0,0.00887535063113605
-2.90603802568512E-05,7.71148279454792E-06,18.984375,0,0.00887535063113605
-2.96782436635112E-05,7.1292288339464E-06,18.984375,0,0.00887535063113605
-3.02956523228204E-05,5.41861618330586E-06,18.984375,0,0.00887535063113605
-2.8540509447339E-05,6.00862358623999E-06,18.984375,0,0.00887535063113605
-2.66766437562183E-05,8.88614886207506E-06,18.984375,0,0.00887535063113605
-2.19493031181628E-05,8.57277609611629E-06,18.984375,0,0.00887535063113605
-3.1914980354486E-05,1.15382072181092E-05,18.984375,0,0.00887535063113605
-2.51737073995173E-05,7.95388496044325E-06,18.984375,0,0.00887535063113605
-3.17760968755465E-05,1.09833154056105E-05,18.984375,0,0.00887535063113605
-2.94433757517254E-05,9.70456130744424E-06,18.984375,0,0.00887535063113605
-3.4087603125954E-05,1.09881548269186E-05,18.984375,0,0.00887535063113605
-3.37443452735897E-05,9.43802206165856E-06,18.984375,0,0.00887535063113605
-3.68179244105704E-05,7.66131779528223E-06,18.984375,0,0.00887535063113605
-3.65095293091144E-05,6.03448779656901E-06,18.984375,0,0.00887535063113605
-3.55630218109582E-05,6.59016177451122E-06,18.984375,0,0.00887535063113605
-3.35295371769462E-05,6.66825008011074E-06,18.984375,0,0.00887535063113605
-2.90485313598765E-05,5.33460206497693E-06,18.984375,0,0.00887535063113605
-2.61924869846553E-05,5.88650163990678E-06,18.984375,0,0.00887535063113605
-2.26823540288024E-05,6.82230665915995E-06,18.984375,0,0.00887535063113605
-2.35139013966545E-05,7.84780331741786E-06,18.984375,0,0.00887535063113605
-2.22438102355227E-05,5.20429284733837E-06,18.984375,0,0.00887535063113605
-2.16085118154297E-05,2.76950481747917E-06,18.984375,0,0.00887535063113605
-1.80407496372936E-05,2.01633702090476E-06,18.984375,0,0.00887535063113605
-1.79584785655607E-05,5.32331705471734E-06,18.984375,0,0.00887535063113605
-1.7406593542546E-05,9.0152379925712E-06,18.984375,0,0.00887535063113605
-1.75147906702477E-05,1.28088577184826E-05,18.984375,0,0.00887535063113605
-1.4685270798509E-05,1.52576749314903E-05,18.984375,0,0.00887535063113605
-1.35183681777562E-05,1.64210578077473E-05,18.984375,0,0.00887535063113605
-1.31998776851106E-05,1.59811097546481E-05,18.984375,0,0.00887535063113605
-1.43465140354238E-05,1.58118618855951E-05,18.984375,0,0.00887535063113605
-1.53627534018597E-05,1.50165460581775E-05,18.984375,0,0.00887535063113605
-1.5905487089185E-05,1.30726284623961E-05,18.984375,0,0.00887535063113605
-1.37863898999058E-05,1.00732313512708E-05,18.984375,0,0.00887535063113605
-1.95085340237711E-05,1.41899436130188E-05,18.984375,0,0.00887535063113605
-1.61984189617215E-05,1.04692462628009E-05,18.984375,0,0.00887535063113605
-2.37936455960153E-05,1.37876904773293E-05,18.984375,0,0.00887535063113605
-2.56848343269667E-05,1.32338982439251E-05,18.984375,0,0.00887535063113605
-3.09507850033697E-05,1.61012685566675E-05,18.984375,0,0.00887535063113605
-3.15289580612443E-05,1.6590904124314E-05,18.984375,0,0.00887535063113605
-3.22573250741698E-05,1.79271264642011E-05,18.984375,0,0.00887535063113605
-3.19877217407338E-05,1.70226721820654E-05,18.984375,0,0.00887535063113605
-3.31186420226004E-05,1.56275109475246E-05,18.984375,0,0.00887535063113605
-3.50416776200291E-05,1.38264967972646E-05,18.984375,0,0.00887535063113605
-3.69183071597945E-05,1.12335837911814E-05,18.984375,0,0.00887535063113605
-3.97437979700044E-05,9.55431369220605E-06,18.984375,0,0.00887535063113605
