biceps_emg, triceps_emg, subject_position, position_estimate, brace_position
-2.42431688093347E-05,1.22299261420267E-05,0.17578125,0,0
-3.312132685096E-05,1.53353685163893E-05,0.17578125,0,0
-2.47335410676897E-05,9.31206977838883E-06,0.17578125,0,0
-3.16143268719316E-05,1.31905999296578E-05,0.17578125,0,0
-2.56685143540381E-05,1.05071003417834E-05,0.17578125,0,0
-2.76755945378682E-05,1.16944183901069E-05,0.17578125,0,0
-2.30790392379276E-05,1.07240366560291E-05,0.17578125,0,0
-2.32387192227179E-05,1.32974255393492E-05,0.17578125,0,0
-2.07149059860967E-05,1.34020465338835E-05,0.17578125,0,0
-2.03054114535917E-05,1.25442538774223E-05,0.17578125,0,0
-2.15000291063916E-05,1.20411750685889E-05,0.17578125,0,0
-2.11064943869133E-05,1.26656386782997E-05,0.17578125,0,0
-2.14521824091207E-05,1.40986858241376E-05,0.17578125,0,0
-1.90708724403521E-05,1.26723307403154E-05,0.17578125,0,0
-1.94975546037313E-05,1.15904740596307E-05,0.17578125,0,0
-1.84724249265855E-05,8.2729384303093E-06,0.17578125,0,0
-2.15468335227342E-05,7.80092977947788E-06,0.17578125,0,0
-2.08059627766488E-05,8.59045576362405E-06,0.17578125,0,0
-2.11816386581631E-05,1.0663610737538E-05,0.17578125,0,0
-1.96729033632437E-05,9.02513056644239E-06,0.17578125,0,0
-2.15517920878483E-05,7.07031358615495E-06,0.17578125,0,0
-2.35134775721235E-05,5.11437883687904E-06,0.17578125,0,0
-2.71654953394318E-05,5.89129285799572E-06,0.17578125,0,0
-2.60029391938588E-05,7.25497147868737E-06,0.17578125,0,0
-2.32144575420534E-05,8.53687834023731E-06,0.17578125,0,0
-2.13370694837067E-05,8.06808293418726E-06,0.17578125,0,0
-2.15397139982088E-05,8.90529736352619E-06,0.17578125,0,0
-1.77335386979394E-05,9.95984191831667E-06,0.17578125,0,0
-2.48595570155885E-05,1.58139773702715E-05,0.17578125,0,0
-1.79396738531068E-05,1.41564223667956E-05,0.17578125,0,0
-2.14848132600309E-05,1.71328283613548E-05,0.17578125,0,0
-1.78970494744135E-05,1.20936165330932E-05,0.17578125,0,0
-2.03401905309875E-05,3.77082346858515E-06,0.17578125,0,0
-1.76491048478056E-05,-5.88987859373447E-06,0.17578125,0,0
-1.81912419066066E-05,-4.61151876152144E-06,0.17578125,0,0
-1.7979971744353E-05,2.96545704259188E-06,0.17578125,0,0
-1.85001808858942E-05,9.71909867075738E-06,0.17578125,0,0
-1.98156449187081E-05,1.37929600896314E-05,0.17578125,0,0
-2.07247267098865E-05,1.22847513921442E-05,0.17578125,0,0
-2.35278184845811E-05,8.13662700238638E-06,0.17578125,0,0
-2.59113494394114E-05,4.72115789307281E-06,0.17578125,0,0
-2.96663238259498E-05,4.94014147989219E-06,0.17578125,0,0
-2.92030217678985E-05,5.36420293428819E-06,0.17578125,0,0
-2.94805940939114E-05,7.41776239010505E-06,0.17578125,0,0
-2.91763699351577E-05,9.4432225523633E-06,0.17578125,0,0
-3.17758058372419E-05,1.17963700176915E-05,0.17578125,0,0
-3.14239077852108E-05,1.06638535726233E-05,0.17578125,0,0
-3.15639881591778E-05,8.13250244391384E-06,0.17578125,0,0
-3.20204781019129E-05,6.31995317235123E-06,0.17578125,0,0
-3.37406454491429E-05,5.6790827329678E-06,0.17578125,0,0
-3.29904687532689E-05,5.63954790777643E-06,0.17578125,0,0
-3.11852527374867E-05,7.23822222425952E-06,0.17578125,0,0
-2.96550097118597E-05,9.20112415769836E-06,0.17578125,0,0
-2.8522763386718E-05,1.10265236799023E-05,0.17578125,0,0
-2.23281003854936E-05,1.03472657428938E-05,0.17578125,0,0
-3.10784198518377E-05,1.61541211127769E-05,0.17578125,0,0
-2.33615173783619E-05,1.3814022167935E-05,0.17578125,0,0
-3.07603586406913E-05,9.91717388387769E-06,0.17578125,0,0
-2.70629134320188E-05,-2.52016138801991E-06,0.17578125,0,0
-2.92534805339528E-05,-1.52812481246656E-06,0.17578125,0,0
-2.59271855611587E-05,6.48383002044284E-06,0.17578125,0,0
-2.75279289780883E-05,1.60122508532368E-05,0.17578125,0,0
-2.78851966868388E-05,1.9384680854273E-05,0.17578125,0,0
-2.85080313915387E-05,1.87185560207581E-05,0.17578125,0,0
-2.83253248198889E-05,1.53713499457808E-05,0.17578125,0,0
-2.77108611044241E-05,9.89426916930825E-06,0.17578125,0,0
-2.86537979263812E-05,6.23516007181024E-06,0.17578125,0,0
-2.69234242296079E-05,3.41488180310989E-06,0.17578125,0,0
-2.74564481514972E-05,3.54730696017214E-06,0.17578125,0,0
-2.60803790297359E-05,5.775038516731E-06,0.17578125,0,0
-2.71639910351951E-05,1.00507431852748E-05,0.17578125,0,0
-2.47903826675611E-05,1.10920000224723E-05,0.17578125,0,0
-2.45060982706491E-05,1.17935733214836E-05,0.17578125,0,0
-2.25457060878398E-05,1.11095532702166E-05,0.17578125,0,0
-2.30766545428196E-05,1.05283688753843E-05,0.17578125,0,0
-2.26787615247304E-05,9.70863129623467E-06,0.17578125,0,0
-2.3114014766179E-05,1.04201526482939E-05,0.17578125,0,0
-2.22875823965296E-05,9.99675921775633E-06,0.17578125,0,0
-2.38427983276779E-05,8.57432678458281E-06,0.17578125,0,0
-2.60286778939189E-05,9.18614023248665E-06,0.17578125,0,0
-2.61184850387508E-05,1.35634018079145E-05,0.17578125,0,0
-1.97522622329416E-05,1.37502966026659E-05,0.17578125,0,0
-2.67337745754048E-05,1.9018183593289E-05,0.17578125,0,0
-1.91082872333936E-05,1.2616431376955E-05,0.17578125,0,0
-2.43022477661725E-05,1.49474326462951E-05,0.17578125,0,0
-2.01188831852051E-05,1.18724392450531E-05,0.17578125,0,0
-2.3628543203813E-05,1.32629520521732E-05,0.17578125,0,0
-2.15724594454514E-05,1.23260442705941E-05,0.17578125,0,0
-2.26594365813071E-05,1.44659634315758E-05,0.17578125,0,0
-2.17140532186022E-05,1.45059020724148E-05,0.17578125,0,0
-2.09077006729785E-05,1.43636170832906E-05,0.17578125,0,0
-1.9942310245824E-05,1.42583558044862E-05,0.17578125,0,0
-1.87130262929713E-05,1.30214984892518E-05,0.17578125,0,0
-2.04927982849767E-05,1.25911174109206E-05,0.17578125,0,0
-2.07522571145091E-05,1.27026733025559E-05,0.17578125,0,0
-2.26851207116852E-05,1.53329747263342E-05,0.17578125,0,0
-2.17513843381312E-05,1.53653090819716E-05,0.17578125,0,0
-2.26511492655845E-05,1.63987388077658E-05,0.17578125,0,0
-2.09720274142455E-05,1.5640052879462E-05,0.17578125,0,0
-2.18207242141943E-05,1.50954592754715E-05,0.17578125,0,0
-2.20937017729739E-05,1.30105390780955E-05,0.17578125,0,0
-2.38610264204908E-05,1.32402565213852E-05,0.17578125,0,0
-2.33585615205811E-05,1.32666309582419E-05,0.17578125,0,0
-2.3549404431833E-05,1.30076423374703E-05,0.17578125,0,0
-2.23322931560688E-05,1.1705579709087E-05,0.17578125,0,0
-2.24740215344355E-05,1.07451442090678E-05,0.17578125,0,0
-2.290693919349E-05,1.0052346624434E-05,0.17578125,0,0
-2.34649378398899E-05,8.86704947333783E-06,0.17578125,0,0
-1.92036695807474E-05,4.79380787510308E-06,0.17578125,0,0
-2.57004576269537E-05,5.56203121959697E-06,0.17578125,0,0
-1.80066017492209E-05,3.84977329304093E-06,0.17578125,0,0
-2.38117045228137E-05,5.7404899962421E-06,0.17578125,0,0
-2.0095953004784E-05,4.37681001130841E-06,0.17578125,0,0
-2.27939817705192E-05,5.90303898206912E-06,0.17578125,0,0
-2.01474304049043E-05,7.31871887182933E-06,0.17578125,0,0
-2.08316105272388E-05,1.06668185253511E-05,0.17578125,0,0
-2.10410562431207E-05,1.23011204777868E-05,0.17578125,0,0
-2.24440700549167E-05,1.13320738819311E-05,0.17578125,0,0
-2.29843171837274E-05,8.97547579370439E-06,0.17578125,0,0
-2.20207621168811E-05,6.91697232468869E-06,0.17578125,0,0
-2.30263722187374E-05,5.86439409744344E-06,0.17578125,0,0
-2.22289800149156E-05,4.03966214435059E-06,0.17578125,0,0
-2.33454429690028E-05,4.29570854976191E-06,0.17578125,0,0
-2.20078891288722E-05,6.22363450020202E-06,0.17578125,0,0
-2.17924844037043E-05,1.01685336630908E-05,0.17578125,0,0
-1.94749354704982E-05,1.20506656458019E-05,0.17578125,0,0
-2.05448995984625E-05,1.12069046735996E-05,0.17578125,0,0
-2.0726865841425E-05,9.30991154746152E-06,0.17578125,0,0
-2.24503401113907E-05,1.03982210930553E-05,0.17578125,0,0
-2.3234239051817E-05,1.30159569380339E-05,0.17578125,0,0
-2.5158164135064E-05,1.50250425576814E-05,0.17578125,0,0
-2.49806744250236E-05,1.46010015669162E-05,0.17578125,0,0
-2.45880892180139E-05,1.38849409268005E-05,0.17578125,0,0
-2.52181398536777E-05,1.33421426653513E-05,0.17578125,0,0
-2.70402888418175E-05,1.28814799609245E-05,0.17578125,0,0
-2.32913953368552E-05,1.10213941297843E-05,0.17578125,0,0
-3.34742944687605E-05,1.52858719957294E-05,0.17578125,0,0
-2.46663239522604E-05,1.02303447420127E-05,0.17578125,0,0
-2.86745926132426E-05,1.24842736113351E-05,0.17578125,0,0
-2.30664008995518E-05,1.09410348159145E-05,0.17578125,0,0
-2.74291924142744E-05,1.44644955071271E-05,0.17578125,0,0
-2.65997550741304E-05,1.60513282025931E-05,0.17578125,0,0
-2.79339492408326E-05,1.77930651261704E-05,0.17578125,0,0
-2.70133114099735E-05,1.63545264513232E-05,0.17578125,0,0
-2.61826626228867E-05,1.36755443236325E-05,0.17578125,0,0
-2.48985888902098E-05,1.09397869891836E-05,0.17578125,0,0
-2.24069099203916E-05,8.54268273542402E-06,0.17578125,0,0
-2.18250934267417E-05,8.1265852713841E-06,0.17578125,0,0
-1.98263551283162E-05,9.17769466468599E-06,0.17578125,0,0
-2.11149090318941E-05,1.28749443319975E-05,0.17578125,0,0
-2.01339844352333E-05,1.38924469865742E-05,0.17578125,0,0
-2.10780035558855E-05,1.40157344503677E-05,0.17578125,0,0
-2.01673283299897E-05,1.3003334061068E-05,0.17578125,0,0
-2.28549397434108E-05,1.48497620102717E-05,0.17578125,0,0
-2.34926665143576E-05,1.6724488887121E-05,0.17578125,0,0
-2.4755061531323E-05,1.79676626430592E-05,0.17578125,0,0
-2.43011745624244E-05,1.65385827131104E-05,0.17578125,0,0
-2.47142797888955E-05,1.42770231832401E-05,0.17578125,0,0
-2.48523701884551E-05,1.19877540782909E-05,0.17578125,0,0
-2.61583427345613E-05,1.24463495012606E-05,0.17578125,0,0
-2.6888901629718E-05,1.37136821649619E-05,0.17578125,0,0
-2.72301331278868E-05,1.4525468031934E-05,0.17578125,0,0
-2.13902912946651E-05,1.17095041787252E-05,0.17578125,0,0
-3.01044747175183E-05,1.59840510605136E-05,0.17578125,0,0
-2.27874625124969E-05,1.08445410660352E-05,0.17578125,0,0
-2.87535840470809E-05,1.26249269669643E-05,0.17578125,0,0
-2.38320699281758E-05,9.54485949478112E-06,0.17578125,0,0
-2.53083799179876E-05,1.13517899080762E-05,0.17578125,0,0
-2.2472568161902E-05,1.15502343760454E-05,0.17578125,0,0
-2.34428443945944E-05,1.29855943669099E-05,0.17578125,0,0
-2.22256276174448E-05,1.03308739198837E-05,0.17578125,0,0
-2.28333792620106E-05,8.71965949045261E-06,0.17578125,0,0
-2.41217185248388E-05,8.68282677402021E-06,0.17578125,0,0
-2.39493274420965E-05,8.6210548033705E-06,0.17578125,0,0
-2.50573230005102E-05,8.91742274689022E-06,0.17578125,0,0
-2.47821881202981E-05,7.96244512457633E-06,0.17578125,0,0
-2.64580121438485E-05,7.44971430322039E-06,0.17578125,0,0
-2.46245381276822E-05,4.83643998450134E-06,0.17578125,0,0
-2.47761781793088E-05,4.19085927205742E-06,0.17578125,0,0
-2.32455768127693E-05,3.89529850508552E-06,0.17578125,0,0
-2.4165505237761E-05,6.38600386082544E-06,0.17578125,0,0
-2.28244862228166E-05,7.19668742021895E-06,0.17578125,0,0
-2.20077690755716E-05,6.5504218582646E-06,0.17578125,0,0
-1.93931609828724E-05,4.38038887295988E-06,0.17578125,0,0
-1.95504453586182E-05,4.74865191790741E-06,0.17578125,0,0
-1.96501187019749E-05,5.16223462909693E-06,0.17578125,0,0
-2.01203420147067E-05,6.3970624069043E-06,0.17578125,0,0
-2.05385258595925E-05,8.29748296382604E-06,0.17578125,0,0
-2.09819772862829E-05,9.33875344344415E-06,0.17578125,0,0
-1.7590211427887E-05,5.87607246416155E-06,0.17578125,0,0
-2.53298967436422E-05,7.64346350479173E-06,0.17578125,0,0
-2.03861782210879E-05,6.54497716823244E-06,0.17578125,0,0
-2.62074136117008E-05,1.00407924037427E-05,0.17578125,0,0
-2.42765381699428E-05,8.81728919921443E-06,0.17578125,0,0
-2.76596565527143E-05,9.55825544224354E-06,0.17578125,0,0
-2.61926761595532E-05,9.34880245040404E-06,0.17578125,0,0
-2.79487303487258E-05,1.02765934570925E-05,0.17578125,0,0
-2.84307716356125E-05,1.14611430035438E-05,0.17578125,0,0
-2.79117593890987E-05,1.31959614009247E-05,0.17578125,0,0
-2.6286039428669E-05,1.45473168231547E-05,0.17578125,0,0
-2.50400662480388E-05,1.42600983963348E-05,0.17578125,0,0
-2.58921827480663E-05,1.36642347570159E-05,0.17578125,0,0
-2.48743326665135E-05,1.39577568916138E-05,0.17578125,0,0
-2.50051689363318E-05,1.55463167175185E-05,0.17578125,0,0
-2.30394944082946E-05,1.47868649946759E-05,0.17578125,0,0
-2.3064549168339E-05,1.32055947688059E-05,0.17578125,0,0
-2.17577871808317E-05,1.1075237125624E-05,0.17578125,0,0
-2.23856804950628E-05,1.14390413727961E-05,0.17578125,0,0
-2.16471034946153E-05,1.34263982545235E-05,0.17578125,0,0
-2.32597540161805E-05,1.493840591138E-05,0.17578125,0,0
-2.41540037677623E-05,1.31463120851549E-05,0.17578125,0,0
-2.556979052315E-05,1.19321712190867E-05,0.17578125,0,0
-2.5357801860082E-05,1.16832106868969E-05,0.17578125,0,0
-2.45006722252583E-05,1.12344214358018E-05,0.17578125,0,0
-2.2931708372198E-05,1.04090731838369E-05,0.17578125,0,0
-2.1960482627037E-05,9.20059846976073E-06,0.17578125,0,0
-1.62154883582843E-05,7.35618368707947E-06,0.17578125,0,0
-2.1699903300032E-05,8.99682436283911E-06,0.17578125,0,0
-1.60347462951904E-05,5.58147519313934E-07,0.17578125,0,0
-2.27246018766891E-05,-5.37494952368434E-06,0.17578125,0,0
-2.14225219679065E-05,-7.41462736186804E-06,0.17578125,0,0
-2.3984321160242E-05,1.50019715761118E-07,0.17578125,0,0
-2.20898691623006E-05,5.90953550272388E-06,0.17578125,0,0
-2.37815838772804E-05,1.28598749142839E-05,0.17578125,0,0
-2.30304958677152E-05,1.63507229444804E-05,0.17578125,0,0
-2.27577984333038E-05,1.17923500511097E-05,0.17578125,0,0
-2.28596654778812E-05,4.31471562478691E-06,0.17578125,0,0
-2.33931841648882E-05,3.22478285852412E-06,0.17578125,0,0
-2.65615635726135E-05,9.80698951025261E-06,0.17578125,0,0
-2.70812161033973E-05,1.61610696522985E-05,0.17578125,0,0
-2.70023538178066E-05,1.85586632142076E-05,0.17578125,0,0
-2.39438595599495E-05,1.42791323014535E-05,0.17578125,0,0
-2.328772097826E-05,8.62223259900929E-06,0.17578125,0,0
-2.21843001781963E-05,4.47077991339029E-06,0.17578125,0,0
-2.39885030168807E-05,4.5599163058796E-06,0.17578125,0,0
-2.41993384406669E-05,5.83427163292072E-06,0.17578125,0,0
-2.4962177121779E-05,7.31183627067367E-06,0.17578125,0,0
-2.34197013924131E-05,8.03623788669938E-06,0.17578125,0,0
-2.18285840674071E-05,8.96960955287796E-06,0.17578125,0,0
-2.01094244403066E-05,1.02826325019123E-05,0.17578125,0,0
-1.98116431420203E-05,1.31949382193852E-05,0.17578125,0,0
-1.974049519049E-05,1.43099096021615E-05,0.17578125,0,0
-2.05622091016266E-05,1.28746678456082E-05,0.17578125,0,0
-1.74427968886448E-05,7.62705258239293E-06,0.17578125,0,0
-2.50164339377079E-05,1.03108404800878E-05,0.17578125,0,0
-1.95300763152773E-05,8.75892419571755E-06,0.17578125,0,0
-2.42805308516836E-05,1.33941421154304E-05,0.17578125,0,0
-2.1200565242907E-05,1.348915611743E-05,0.17578125,0,0
-2.46966737904586E-05,1.61884127010126E-05,0.17578125,0,0
-2.29652614507359E-05,1.50010519064381E-05,0.17578125,0,0
-2.198416950705E-05,1.26781278595445E-05,0.17578125,0,0
-2.02377032110235E-05,9.92239074548706E-06,0.17578125,0,0
-2.09313675441081E-05,9.09660320758121E-06,0.17578125,0,0
-2.14496067201253E-05,9.59797944233287E-06,0.17578125,0,0
-2.03109048015904E-05,1.02559779406874E-05,0.17578125,0,0
-2.04167299671099E-05,1.17028130262042E-05,0.17578125,0,0
-1.91110011655837E-05,1.24007483464084E-05,0.17578125,0,0
-2.06723725568736E-05,1.35632553792675E-05,0.17578125,0,0
-2.17664546653396E-05,1.27469893413945E-05,0.17578125,0,0
-2.45106348302215E-05,1.076810167433E-05,0.17578125,0,0
-2.39460441662231E-05,8.2710948845488E-06,0.17578125,0,0
-2.46946710831253E-05,9.2104819486849E-06,0.17578125,0,0
-2.37010208365973E-05,1.00555498647736E-05,0.17578125,0,0
-2.3128488464863E-05,1.06073966890108E-05,0.17578125,0,0
-2.16292482946301E-05,1.13827027234947E-05,0.17578125,0,0
-2.21903446799843E-05,1.31143842736492E-05,0.17578125,0,0
-2.32119182328461E-05,1.25547776406165E-05,0.17578125,0,0
-2.47194875555579E-05,1.13150817924179E-05,0.17578125,0,0
-2.4962835595943E-05,1.11612034743303E-05,0.17578125,0,0
-2.47096540988423E-05,1.0703991392802E-05,0.17578125,0,0
-1.98833749891492E-05,6.80578432366019E-06,0.17578125,0,0
-2.78524221357657E-05,9.81105222308543E-06,0.17578125,0,0
-2.09673253266374E-05,7.81278231443139E-06,0.17578125,0,0
-2.64685204456327E-05,9.8347381936037E-06,0.17578125,0,0
-2.30229979933938E-05,8.93465585249942E-06,0.17578125,0,0
-2.69844949798426E-05,1.16740466182819E-05,0.17578125,0,0
-2.54547685472062E-05,1.2517804862E-05,0.17578125,0,0
-2.64973568846472E-05,1.23221525427653E-05,0.17578125,0,0
-2.52754743996775E-05,1.07659716377384E-05,0.17578125,0,0
-2.5002600523294E-05,1.03958955151029E-05,0.17578125,0,0
-2.56082748819608E-05,1.0048494914372E-05,0.17578125,0,0
-2.4825027139741E-05,9.26695065572858E-06,0.17578125,0,0
-2.46714043896645E-05,9.3165144789964E-06,0.17578125,0,0
-2.32918609981425E-05,9.02809551917017E-06,0.17578125,0,0
-2.57300307566766E-05,9.71145891526248E-06,0.17578125,0,0
-2.72506458713906E-05,9.66861261986196E-06,0.17578125,0,0
-3.02723674394656E-05,1.04055025076377E-05,0.17578125,0,0
-3.03130618704017E-05,1.08991207525833E-05,0.17578125,0,0
-3.22539308399428E-05,1.26756676763762E-05,0.17578125,0,0
-3.23142630804796E-05,1.35210284497589E-05,0.17578125,0,0
-3.34978431055788E-05,1.38562545544119E-05,0.17578125,0,0
-3.20316103170626E-05,1.29714371723821E-05,0.17578125,0,0
-3.14110584440641E-05,1.22890151033062E-05,0.17578125,0,0
-3.08121561829466E-05,1.12542302304064E-05,0.17578125,0,0
-3.15633478749078E-05,1.16240908027976E-05,0.17578125,0,0
-3.31516421283595E-05,1.38691975735128E-05,0.17578125,0,0
-3.56418386218138E-05,1.60585586854722E-05,0.17578125,0,0
-3.06206929963082E-05,1.40034480864415E-05,0.17578125,0,0
-4.40781477664132E-05,2.06092845473904E-05,0.17578125,0,0
-3.33059033437166E-05,1.54937424667878E-05,0.17578125,0,0
-3.96345349145122E-05,1.76401536009507E-05,0.17578125,0,0
-3.23357380693778E-05,1.37179204102722E-05,0.17578125,0,0
-3.64701736543793E-05,1.51565654959995E-05,0.17578125,0,0
-3.33633870468475E-05,1.33085668494459E-05,0.17578125,0,0
-3.5257100535091E-05,1.40492420541705E-05,0.17578125,0,0
-3.42359089700039E-05,1.44568621180952E-05,0.17578125,0,0
-3.39342768711504E-05,1.43563938763691E-05,0.17578125,0,0
-3.28844944306184E-05,1.36162670969497E-05,0.17578125,0,0
-2.93988832709147E-05,1.34273550429498E-05,0.17578125,0,0
-2.80977710644947E-05,1.44242621900048E-05,0.17578125,0,0
-2.45199080382008E-05,1.20288514153799E-05,0.17578125,0,0
-2.48552150878822E-05,9.72256293607643E-06,0.17578125,0,0
-2.27359032578534E-05,7.48588445276255E-06,0.17578125,0,0
-2.4567201762693E-05,7.44859471524251E-06,0.17578125,0,0
-2.35515926760854E-05,5.34301852894714E-06,0.17578125,0,0
-2.58570908044931E-05,5.69251415072358E-06,0.17578125,0,0
-2.53615089604864E-05,7.1736540121492E-06,0.17578125,0,0
-2.67166033154354E-05,9.8557702585822E-06,0.17578125,0,0
-2.52446734521072E-05,9.69549637375167E-06,0.17578125,0,0
-2.47305833909195E-05,9.37048571358901E-06,0.17578125,0,0
-2.39074270211859E-05,9.03007094166242E-06,0.17578125,0,0
-2.45868759520818E-05,8.43365251057548E-06,0.17578125,0,0
-2.50870998570463E-05,6.92491630616132E-06,0.17578125,0,0
-2.48892938543577E-05,5.92646347286063E-06,0.17578125,0,0
-1.80160513991723E-05,5.06525748278364E-06,0.17578125,0,0
-2.56333132711006E-05,9.10536346054869E-06,0.17578125,0,0
-2.09640184039017E-05,1.10037317426759E-05,0.17578125,0,0
-2.65975959337084E-05,1.33402227220358E-05,0.17578125,0,0
-2.23148053919431E-05,1.09872598841321E-05,0.17578125,0,0
-2.42768128373427E-05,1.085362964659E-05,0.17578125,0,0
-2.18344048334984E-05,9.18053501663962E-06,0.17578125,0,0
-2.25825715460815E-05,8.76412468642229E-06,0.17578125,0,0
-2.22322250920115E-05,1.16198343675933E-05,0.17578125,0,0
-2.24210816668347E-05,1.38566583700594E-05,0.17578125,0,0
-2.16038897633553E-05,1.30140451801708E-05,0.17578125,0,0
-1.90167938853847E-05,1.0567790013738E-05,0.17578125,0,0
-1.91365197679261E-05,9.82463734544581E-06,0.17578125,0,0
-1.85485660040285E-05,1.07825262603001E-05,0.17578125,0,0
-1.98378311324632E-05,1.27333250929951E-05,0.17578125,0,0
-1.93664800463011E-05,1.30888483909075E-05,0.17578125,0,0
-2.0498357116594E-05,1.3034516996413E-05,0.17578125,0,0
-1.88750436791452E-05,1.19079677460832E-05,0.17578125,0,0
-1.94715012185043E-05,1.02633084679837E-05,0.17578125,0,0
-1.97887602553237E-05,8.46540842758259E-06,0.17578125,0,0
-2.20101301238174E-05,7.85846987128025E-06,0.17578125,0,0
-2.27729742618976E-05,8.21838784759166E-06,0.17578125,0,0
-2.35560492001241E-05,1.01744435596629E-05,0.17578125,0,0
-2.24972500291187E-05,1.12373782030772E-05,0.17578125,0,0
-2.15545096580172E-05,1.18100761028472E-05,0.17578125,0,0
-2.06991935556289E-05,1.25293427117867E-05,0.17578125,0,0
-2.07099346880568E-05,1.11415774881607E-05,0.17578125,0,0
-1.73034295585239E-05,5.83797691433574E-06,0.17578125,0,0
-2.39055680140154E-05,7.42013071430847E-06,0.17578125,0,0
-1.76638386619743E-05,5.86999931329046E-06,0.17578125,0,0
-2.30926889344119E-05,8.43170528241899E-06,0.17578125,0,0
-2.11798233067384E-05,5.68898985875421E-06,0.17578125,0,0
-2.51201709033921E-05,6.6616144067666E-06,0.17578125,0,0
-2.41910202021245E-05,7.98317705630325E-06,0.17578125,0,0
-2.55094364547404E-05,1.06328980109538E-05,0.17578125,0,0
-2.36764753935859E-05,1.07632222352549E-05,0.17578125,0,0
-2.18589484575205E-05,8.84638211573474E-06,0.17578125,0,0
-2.12703271245118E-05,7.15937858331017E-06,0.17578125,0,0
-2.07310040423181E-05,6.91180321155116E-06,0.17578125,0,0
-2.14881711144699E-05,7.86635882832343E-06,0.17578125,0,0
-2.05163069040282E-05,8.7770577010815E-06,0.17578125,0,0
-2.10082998819416E-05,1.14108288471471E-05,0.17578125,0,0
-1.9043132851948E-05,1.26279574033106E-05,0.17578125,0,0
-2.00015310838353E-05,1.27574985526735E-05,0.17578125,0,0
-2.08257024496561E-05,1.09400589280995E-05,0.17578125,0,0
-2.28644566959701E-05,1.09231459646253E-05,0.17578125,0,0
-2.07490211323602E-05,1.2277472706046E-05,0.17578125,0,0
-1.97146655409597E-05,1.4553604160028E-05,0.17578125,0,0
-1.84354230441386E-05,1.57467056851601E-05,0.17578125,0,0
-1.83314623427577E-05,1.63458607858047E-05,0.17578125,0,0
-1.7553511497681E-05,1.62215364980511E-05,0.17578125,0,0
-1.71575156855397E-05,1.50199120980687E-05,0.17578125,0,0
-1.68842270795722E-05,1.33338926389115E-05,0.17578125,0,0
-1.57823924382683E-05,1.31851857076981E-05,0.17578125,0,0
-1.10458249764633E-05,1.15665143312071E-05,0.17578125,0,0
-1.50002551890793E-05,1.75065852090484E-05,0.17578125,0,0
-1.08815092971781E-05,1.46908105307375E-05,0.17578125,0,0
-1.48899944178993E-05,1.61717671289807E-05,0.17578125,0,0
-1.44877858474501E-05,9.90794615063351E-06,0.17578125,0,0
-1.75088771356968E-05,8.05156741989776E-06,0.17578125,0,0
-1.66988120327005E-05,5.70261408938677E-06,0.17578125,0,0
-1.6842599507072E-05,8.84747441887157E-06,0.17578125,0,0
-1.64473385666497E-05,1.34678221002105E-05,0.17578125,0,0
-1.834423346736E-05,1.65630099218106E-05,0.17578125,0,0
-2.08784658752847E-05,1.67348571267212E-05,0.17578125,0,0
-2.13560579140903E-05,1.49776815305813E-05,0.17578125,0,0
-2.21282843995141E-05,1.43920360642369E-05,0.17578125,0,0
-2.23119186557597E-05,1.36868839035742E-05,0.17578125,0,0
-2.32983129535569E-05,1.43645584103069E-05,0.17578125,0,0
-2.2993875973043E-05,1.14776485133916E-05,0.17578125,0,0
-2.43774411501363E-05,4.69397036795272E-06,0.17578125,0,0
-2.42799760599155E-05,-6.21747039986076E-06,0.17578125,0,0
-2.45320188696496E-05,-1.03517759271199E-05,0.17578125,0,0
-2.36579217016697E-05,-3.78128356715024E-06,0.17578125,0,0
-2.39080072788056E-05,9.978477464756E-06,0.17578125,0,0
-2.45536120928591E-05,1.799858364393E-05,0.17578125,0,0
-2.69600368483225E-05,1.73673925019102E-05,0.17578125,0,0
-2.70143991656369E-05,1.35115024022525E-05,0.17578125,0,0
-2.51540041062981E-05,1.1128691767226E-05,0.17578125,0,0
-2.278794090671E-05,1.00118786576786E-05,0.17578125,0,0
-2.10431153391255E-05,1.05368262666161E-05,0.17578125,0,0
-1.75571913132444E-05,7.77248260419583E-06,0.17578125,0,0
-2.60203996731434E-05,9.57246356847463E-06,0.17578125,0,0
-2.1561396351899E-05,6.6974730543734E-06,0.17578125,0,0
-2.66355727944756E-05,8.64354842633475E-06,0.17578125,0,0
-2.27098826144356E-05,6.01315832682303E-06,0.17578125,0,0
-2.53329799306812E-05,1.06664947452373E-05,0.17578125,0,0
-2.44371731241699E-05,1.49456154758809E-05,0.17578125,0,0
-2.43076865444891E-05,1.98267207451863E-05,0.17578125,0,0
-2.14643660001457E-05,2.2478923710878E-05,0.17578125,0,0
-2.0302009943407E-05,2.26501197175821E-05,0.17578125,0,0
-2.08407473110128E-05,2.07705325010465E-05,0.17578125,0,0
-2.14550327655161E-05,1.84393866220489E-05,0.17578125,0,0
-2.21480786422035E-05,1.69727190950653E-05,0.17578125,0,0
-2.10994294320699E-05,1.24755806609755E-05,0.17578125,0,0
-2.33269256568747E-05,5.9387589317339E-06,0.17578125,0,0
-2.48887736233883E-05,-2.02753972189385E-06,0.17578125,0,0
-2.78832885669544E-05,-3.45952230418334E-06,0.17578125,0,0
-2.73475889116526E-05,1.36632661451586E-06,0.17578125,0,0
-2.64619156951085E-05,9.01512794371229E-06,0.17578125,0,0
-2.43213544308674E-05,1.34156753119896E-05,0.17578125,0,0
-2.59869993897155E-05,1.48617300510523E-05,0.17578125,0,0
-2.67161558440421E-05,1.43991983350134E-05,0.17578125,0,0
-2.70658947556512E-05,1.47550072142622E-05,0.17578125,0,0
-2.67792147496948E-05,1.44373780130991E-05,0.17578125,0,0
-2.88280316453893E-05,1.40781303343829E-05,0.17578125,0,0
-3.18463025905658E-05,1.24594498629449E-05,0.17578125,0,0
-3.38345744239632E-05,1.04249820651603E-05,0.17578125,0,0
-2.73486894002417E-05,6.68369148115744E-06,0.17578125,0,0
-3.73341281374451E-05,6.44512465441949E-06,0.17578125,0,0
-2.65815378952539E-05,4.44950615019479E-07,0.17578125,0,0
-3.44690452038776E-05,2.19752428165521E-06,0.17578125,0,0
-2.97238148050383E-05,3.070901357205E-06,0.17578125,0,0
-3.36077355314046E-05,6.53465849609347E-06,0.17578125,0,0
-2.92571621685056E-05,5.62409240956185E-06,0.17578125,0,0
-2.97582027997123E-05,5.31057139596669E-06,0.17578125,0,0
-2.7860816771863E-05,4.73227601105464E-06,0.17578125,0,0
-2.7758500436903E-05,3.34982200911327E-06,0.17578125,0,0
-2.84084198938217E-05,3.2738378195063E-06,0.17578125,0,0
-2.67459236056311E-05,6.03729267822928E-06,0.17578125,0,0
-2.62687408394413E-05,9.28911413211608E-06,0.17578125,0,0
-2.33413502428448E-05,9.16984390642028E-06,0.17578125,0,0
-2.46804793277988E-05,9.38604080147343E-06,0.17578125,0,0
-2.42416517721722E-05,1.03002103060135E-05,0.17578125,0,0
-2.67388277279679E-05,1.27121084005921E-05,0.17578125,0,0
-2.51368928729789E-05,1.26826344057918E-05,0.17578125,0,0
-2.5819592337939E-05,1.12905108835548E-05,0.17578125,0,0
-2.39066575886682E-05,8.43814541440224E-06,0.17578125,0,0
-2.4127268261509E-05,7.54775601308211E-06,0.17578125,0,0
-2.28736134886276E-05,7.46234127291245E-06,0.17578125,0,0
-2.32594102271833E-05,6.77865273246425E-06,0.17578125,0,0
-2.2150898075779E-05,4.94951746077277E-06,0.17578125,0,0
-2.1308898794814E-05,3.68584255738824E-06,0.17578125,0,0
-1.98755769815762E-05,3.98597967432579E-06,0.17578125,0,0
-2.02816754608648E-05,5.68375617149286E-06,0.17578125,0,0
-1.81530413101427E-05,6.00206885792431E-06,0.17578125,0,0
-2.66117986029712E-05,7.71247050579404E-06,0.17578125,0,0
-2.08714609470917E-05,4.47276897830307E-06,0.17578125,0,0
-2.51106539508328E-05,4.87174929730827E-06,0.17578125,0,0
-2.16214357351419E-05,1.84350687959522E-06,0.17578125,0,0
-2.46467407123419E-05,1.75516424860689E-06,0.17578125,0,0
-2.43108916038182E-05,1.79937865141255E-06,0.17578125,0,0
-2.58147083513904E-05,3.11717667500488E-06,0.17578125,0,0
-2.56874100159621E-05,4.79652862850344E-06,0.17578125,0,0
-2.60558645095443E-05,7.2168199949374E-06,0.17578125,0,0
-2.58787331404164E-05,9.69779921433656E-06,0.17578125,0,0
-2.44262628257275E-05,1.25441965792561E-05,0.17578125,0,0
-2.48951655521523E-05,1.52707889355952E-05,0.17578125,0,0
-2.43664944719058E-05,1.62745291163446E-05,0.17578125,0,0
-2.54738133662613E-05,1.7873391698231E-05,0.17578125,0,0
-2.44248785747914E-05,1.83103438757826E-05,0.17578125,0,0
-2.48531196120894E-05,1.77173769770889E-05,0.17578125,0,0
-2.32494276133366E-05,1.55745601659874E-05,0.17578125,0,0
-2.37796466535656E-05,1.53420769493096E-05,0.17578125,0,0
-2.39262226386927E-05,1.59991759574041E-05,0.17578125,0,0
-2.58102263615001E-05,1.67397101904498E-05,0.17578125,0,0
-2.64744685409823E-05,1.54440949700074E-05,0.17578125,0,0
-2.81359152722871E-05,1.42998978844844E-05,0.17578125,0,0
-2.91668256977573E-05,1.39115518322797E-05,0.17578125,0,0
-3.06051260849927E-05,1.40452220875886E-05,0.17578125,0,0
-3.16238547384273E-05,1.49869547385606E-05,0.17578125,0,0
-3.17654848913662E-05,1.5934785551508E-05,0.17578125,0,0
-2.51774581556674E-05,1.21019947982859E-05,0.17578125,0,0
-3.40997285093181E-05,1.85553599294508E-05,0.17578125,0,0
-2.4163467969629E-05,1.65346136782318E-05,0.17578125,0,0
-3.12006122840103E-05,1.84195578185609E-05,0.17578125,0,0
-2.55935483437497E-05,1.23371955851326E-05,0.17578125,0,0
-2.79075229627779E-05,1.31214046632522E-05,0.17578125,0,0
-2.4076369300019E-05,1.28477631733404E-05,0.17578125,0,0
-2.58504114754032E-05,1.2974844139535E-05,0.17578125,0,0
-2.55029954132624E-05,9.54689312493429E-06,0.17578125,0,0
-2.63339752564207E-05,6.48210925646708E-06,0.17578125,0,0
-2.72637189482339E-05,5.11621965415543E-06,0.17578125,0,0
-2.64668869931484E-05,5.81180120207137E-06,0.17578125,0,0
-2.68339590547839E-05,7.95882169768447E-06,0.17578125,0,0
-2.50696029979736E-05,6.62862748868065E-06,0.17578125,0,0
-2.60411816270789E-05,4.7240773710655E-06,0.17578125,0,0
-2.28433218580903E-05,3.30739453602291E-06,0.17578125,0,0
-2.27054915740155E-05,6.34521120446152E-06,0.17578125,0,0
-2.19785069930367E-05,9.65480830927845E-06,0.17578125,0,0
-2.50948778557358E-05,1.38530076583265E-05,0.17578125,0,0
-2.57488118222682E-05,1.53800119733205E-05,0.17578125,0,0
-2.79283249255968E-05,1.55010475282324E-05,0.17578125,0,0
-2.73547029792098E-05,1.31730794237228E-05,0.17578125,0,0
-2.87216716969851E-05,1.1593498129514E-05,0.17578125,0,0
-2.9448994609993E-05,9.82864639809122E-06,0.17578125,0,0
-2.97122624033364E-05,9.45065949053969E-06,0.17578125,0,0
-2.80000149359694E-05,1.07203613879392E-05,0.17578125,0,0
-2.69510055659339E-05,1.23766276374226E-05,0.17578125,0,0
-2.22145536099561E-05,8.58515795698622E-06,0.17578125,0,0
-3.12566662614699E-05,9.15934106160421E-06,0.17578125,0,0
-2.31762569455896E-05,3.01076397590805E-06,0.17578125,0,0
-2.86039194179466E-05,4.43394719695789E-06,0.17578125,0,0
-2.38927477766993E-05,1.85115391104773E-06,0.17578125,0,0
-2.64265581790823E-05,3.87704812965239E-06,0.17578125,0,0
-2.42462883761618E-05,3.71430860468536E-06,0.17578125,0,0
-2.65055532508995E-05,5.51321409147931E-06,0.17578125,0,0
-2.59069747698959E-05,7.03317164152395E-06,0.17578125,0,0
-2.45443625317421E-05,8.16052670415957E-06,0.17578125,0,0
-2.32053644140251E-05,9.02602732821833E-06,0.17578125,0,0
-2.17441393033369E-05,1.02922422229312E-05,0.17578125,0,0
-2.16684456972871E-05,1.29611735246726E-05,0.17578125,0,0
-1.8499940779293E-05,1.41869004437467E-05,0.17578125,0,0
-1.77355941559654E-05,1.56047153723193E-05,0.17578125,0,0
-1.55580146383727E-05,1.62538799486356E-05,0.17578125,0,0
-1.6317397239618E-05,1.70698494912358E-05,0.17578125,0,0
-1.45000258271466E-05,1.38587647597888E-05,0.17578125,0,0
-1.47330674735713E-05,1.22413439385127E-05,0.17578125,0,0
-1.32804716486135E-05,1.59167830133811E-05,0.17578125,0,0
-1.4202434613253E-05,2.35129627981223E-05,0.17578125,0,0
-1.35329701151932E-05,2.61121531366371E-05,0.17578125,0,0
-1.39113035402261E-05,2.43120957748033E-05,0.17578125,0,0
-1.35417221827083E-05,2.14476713153999E-05,0.17578125,0,0
-1.4080645996728E-05,1.97727349586785E-05,0.17578125,0,0
-1.53924720507348E-05,1.85902590601472E-05,0.17578125,0,0
-1.55905981955584E-05,1.81915056600701E-05,0.17578125,0,0
-1.21562370622996E-05,1.49777242768323E-05,0.17578125,0,0
-1.63936856552027E-05,2.04945172299631E-05,0.17578125,0,0
-1.17683766802656E-05,1.05273484223289E-05,0.17578125,0,0
-1.5387979146908E-05,3.75333934243827E-06,0.17578125,0,0
-1.40297897814889E-05,-9.43822487897705E-06,0.17578125,0,0
-1.6829144442454E-05,-9.83256995823467E-06,0.17578125,0,0
-1.70842886291211E-05,-8.20868626760785E-06,0.17578125,0,0
-2.01147213374497E-05,-1.15346438178676E-06,0.17578125,0,0
-2.11789028981002E-05,6.08008849667385E-06,0.17578125,0,0
-2.17000488191843E-05,1.10418413896696E-05,0.17578125,0,0
-2.14700303331483E-05,1.13282749225618E-05,0.17578125,0,0
-2.11056012631161E-05,8.41767996462295E-06,0.17578125,0,0
-2.28593453357462E-05,8.07315427664435E-06,0.17578125,0,0
-2.2232601622818E-05,8.5512392615783E-06,0.17578125,0,0
-2.20774218178121E-05,1.17754543680348E-05,0.17578125,0,0
-2.13554958463646E-05,1.30893322420889E-05,0.17578125,0,0
-2.28185035666684E-05,1.53477703861427E-05,0.17578125,0,0
-2.31126123253489E-05,1.54393346747383E-05,0.17578125,0,0
-2.4877472242224E-05,1.61446369020268E-05,0.17578125,0,0
-2.57076208072249E-05,1.50683699757792E-05,0.17578125,0,0
-2.68281055468833E-05,1.51928752529784E-05,0.17578125,0,0
-2.61892273556441E-05,1.44020441439352E-05,0.17578125,0,0
-2.61715704255039E-05,1.301930842601E-05,0.17578125,0,0
-2.54367041634396E-05,9.9596536529134E-06,0.17578125,0,0
-2.58383824984776E-05,7.31991485736216E-06,0.17578125,0,0
-2.69485099124722E-05,5.17701846547425E-06,0.17578125,0,0
-2.67591349256691E-05,7.26298321751528E-06,0.17578125,0,0
-1.99959740712075E-05,1.00989227576065E-05,0.17578125,0,0
-2.87299881165382E-05,1.37672232085606E-05,0.17578125,0,0
-2.34326234931359E-05,7.77511831984157E-06,0.17578125,0,0
-2.98698323604185E-05,8.64386220200686E-06,0.17578125,0,0
-2.53541638812749E-05,8.01835540187312E-06,0.17578125,0,0
-2.86094673356274E-05,1.17737890832359E-05,0.17578125,0,0
-2.71747267106548E-05,1.28584042613511E-05,0.17578125,0,0
-2.81718694168376E-05,1.34618730953662E-05,0.17578125,0,0
-2.61618406511843E-05,1.25362594189937E-05,0.17578125,0,0
-2.55857903539436E-05,1.12689313027659E-05,0.17578125,0,0
-2.629350819916E-05,9.62470403464977E-06,0.17578125,0,0
-2.62970006588148E-05,7.38864355298574E-06,0.17578125,0,0
-2.73513451247709E-05,6.7551563915913E-06,0.17578125,0,0
-2.58711515925825E-05,7.8690118243685E-06,0.17578125,0,0
-2.66482384176925E-05,1.20210725071956E-05,0.17578125,0,0
-2.61623354163021E-05,1.37766646730597E-05,0.17578125,0,0
-2.868713454518E-05,1.32364184537437E-05,0.17578125,0,0
-2.89208619506098E-05,1.10913460957818E-05,0.17578125,0,0
-3.03403248835821E-05,1.2118950508011E-05,0.17578125,0,0
-2.89561176032294E-05,1.38460545713315E-05,0.17578125,0,0
-2.87360580841778E-05,1.53000164573314E-05,0.17578125,0,0
-2.71065637207357E-05,1.58822967932792E-05,0.17578125,0,0
-2.5872235710267E-05,1.73418738995679E-05,0.17578125,0,0
-2.43103568209335E-05,1.59081628225977E-05,0.17578125,0,0
-2.53009748121258E-05,1.35194459289778E-05,0.17578125,0,0
-2.68338208115892E-05,1.18117495730985E-05,0.17578125,0,0
-2.72816396318376E-05,1.13782680273289E-05,0.17578125,0,0
-2.07006687560352E-05,9.52528080233606E-06,0.17578125,0,0
-2.84884154098108E-05,1.28938700072467E-05,0.17578125,0,0
-2.13398325286107E-05,8.47863429953577E-06,0.17578125,0,0
-2.8322796424618E-05,9.9365188361844E-06,0.17578125,0,0
-2.57238989433972E-05,9.04435000848025E-06,0.17578125,0,0
-3.0107818020042E-05,1.39885814860463E-05,0.17578125,0,0
-2.87228631350445E-05,1.53498513100203E-05,0.17578125,0,0
-3.08150447381195E-05,1.69320628629066E-05,0.17578125,0,0
-3.00893061648821E-05,1.80513707164209E-05,0.17578125,0,0
-2.85776877717581E-05,2.01972179638688E-05,0.17578125,0,0
-2.62560970440973E-05,2.20662950596306E-05,0.17578125,0,0
-2.36861251323717E-05,2.25732819671975E-05,0.17578125,0,0
-2.42265414271969E-05,2.22138751269085E-05,0.17578125,0,0
-2.39372639043722E-05,2.01599596039159E-05,0.17578125,0,0
-2.60828128375579E-05,2.00553622562438E-05,0.17578125,0,0
-2.56582934525795E-05,1.95584198081633E-05,0.17578125,0,0
-2.71318785962649E-05,1.91544313565828E-05,0.17578125,0,0
-2.52910631388659E-05,1.69281993294135E-05,0.17578125,0,0
-2.45336905209115E-05,1.69924951478606E-05,0.17578125,0,0
-2.19809026020812E-05,1.73085973074194E-05,0.17578125,0,0
-2.19279936573002E-05,1.83266602107324E-05,0.17578125,0,0
-2.04128955374472E-05,1.75447421497665E-05,0.17578125,0,0
-2.05748438020237E-05,1.58023867697921E-05,0.17578125,0,0
-2.09703084692592E-05,1.34713782244944E-05,0.17578125,0,0
-2.26077245315537E-05,1.35991867864504E-05,0.17578125,0,0
-2.45145201915875E-05,1.26893819469842E-05,0.17578125,0,0
-2.56526418525027E-05,8.32319619803457E-06,0.17578125,0,0
-2.0432520614122E-05,3.68422365681909E-06,0.17578125,0,0
-2.86224676528946E-05,4.95507492814795E-06,0.17578125,0,0
-2.20669353439007E-05,3.98556858272059E-06,0.17578125,0,0
-2.81972770608263E-05,5.34020273335045E-06,0.17578125,0,0
-2.29998695431277E-05,4.96232541991048E-06,0.17578125,0,0
-2.43499252974289E-05,7.87445424066391E-06,0.17578125,0,0
-2.1799325622851E-05,1.13593332571327E-05,0.17578125,0,0
-2.32484544540057E-05,1.37919041662826E-05,0.17578125,0,0
-2.169280378439E-05,1.24825755847269E-05,0.17578125,0,0
-1.98144643945852E-05,9.86402210401138E-06,0.17578125,0,0
-1.92016796063399E-05,8.20464993012138E-06,0.17578125,0,0
-1.89159909496084E-05,8.73146109370282E-06,0.17578125,0,0
-1.96635191969108E-05,1.02138037618715E-05,0.17578125,0,0
-1.80927199835423E-05,1.11725967144594E-05,0.17578125,0,0
-1.96559722098755E-05,1.27439825519104E-05,0.17578125,0,0
-1.89090078492882E-05,1.24071211757837E-05,0.17578125,0,0
-1.88431695278268E-05,1.05488261397113E-05,0.17578125,0,0
-1.669332414167E-05,8.26779705676017E-06,0.17578125,0,0
-1.84317123057554E-05,7.7684653660981E-06,0.17578125,0,0
-1.77607435034588E-05,7.645914593013E-06,0.17578125,0,0
-1.72306390595622E-05,8.54445534059778E-06,0.17578125,0,0
-1.6341629816452E-05,9.61479418037925E-06,0.17578125,0,0
-1.85354274435667E-05,1.00804963949486E-05,0.17578125,0,0
-2.06834665732458E-05,1.02877729659667E-05,0.17578125,0,0
-2.24458217417123E-05,1.05950639408547E-05,0.17578125,0,0
-2.33606842812151E-05,9.95837945083622E-06,0.17578125,0,0
-2.37151543842629E-05,9.99521944322623E-06,0.17578125,0,0
-1.94875938177574E-05,8.57157101563644E-06,0.17578125,0,0
-2.87059483525809E-05,1.16704341053264E-05,0.17578125,0,0
-2.4154962375178E-05,7.25862400940969E-06,0.17578125,0,0
-3.07894952129573E-05,7.99062399892136E-06,0.17578125,0,0
-2.74093144980725E-05,5.91020670981379E-06,0.17578125,0,0
-2.93842131213751E-05,8.40289521875093E-06,0.17578125,0,0
-2.60767410509288E-05,8.68702954903711E-06,0.17578125,0,0
-2.63117017311743E-05,1.06178240457666E-05,0.17578125,0,0
-2.59225926129147E-05,1.2182042155473E-05,0.17578125,0,0
-2.63106776401401E-05,1.19676387839718E-05,0.17578125,0,0
-2.64837235590676E-05,1.05420613181195E-05,0.17578125,0,0
-2.59134631050983E-05,8.0919580796035E-06,0.17578125,0,0
-2.67960076598683E-05,4.70425084131421E-06,0.17578125,0,0
-2.51451583608286E-05,-7.213346862045E-07,0.17578125,0,0
-2.50219218287384E-05,-3.38190397997096E-06,0.17578125,0,0
-2.41230754909338E-05,-2.78244965556951E-06,0.17578125,0,0
-2.64797254203586E-05,9.41014604904922E-07,0.17578125,0,0
-2.65081034740433E-05,3.04921582028328E-06,0.17578125,0,0
-2.71239496214548E-05,4.59122611573548E-06,0.17578125,0,0
-2.51724068220938E-05,4.91820264869602E-06,0.17578125,0,0
-2.52821482717991E-05,6.69881683279527E-06,0.17578125,0,0
-2.48419655690668E-05,8.81976211530855E-06,0.17578125,0,0
-2.42428541241679E-05,1.11509571070201E-05,0.17578125,0,0
-2.12813920370536E-05,1.10937999124872E-05,0.17578125,0,0
-2.03208528546384E-05,8.29936470836401E-06,0.17578125,0,0
-2.15515919990139E-05,6.51787831884576E-06,0.17578125,0,0
-2.34799208556069E-05,7.14651332600624E-06,0.17578125,0,0
-2.01601833396126E-05,6.81969277138705E-06,0.17578125,0,0
-2.7181313271285E-05,1.11097824628814E-05,0.17578125,0,0
-1.82241874426836E-05,8.72707641974557E-06,0.17578125,0,0
-2.3730115572107E-05,7.98286691860994E-06,0.17578125,0,0
-2.02813189389417E-05,4.19665366280242E-06,0.17578125,0,0
-2.23641563934507E-05,3.98786824007402E-06,0.17578125,0,0
-1.87999194167787E-05,5.93011964156176E-06,0.17578125,0,0
-1.90050250239437E-05,8.6804075181135E-06,0.17578125,0,0
-1.88380781764863E-05,9.21036189538427E-06,0.17578125,0,0
-1.94147178262938E-05,9.74557588051539E-06,0.17578125,0,0
-1.89512011274928E-05,1.0522221600695E-05,0.17578125,0,0
-1.58211041707546E-05,1.0127017958439E-05,0.17578125,0,0
-1.49187944771256E-05,9.42520910029998E-06,0.17578125,0,0
-1.50197765833582E-05,8.9884588305722E-06,0.17578125,0,0
-1.84567143151071E-05,1.13417354441481E-05,0.17578125,0,0
-1.84722703124862E-05,1.3907546417613E-05,0.17578125,0,0
-2.04408970603254E-05,1.53719029185595E-05,0.17578125,0,0
-2.15870059037115E-05,1.41080245157355E-05,0.17578125,0,0
-2.40894314629259E-05,1.29968830151483E-05,0.17578125,0,0
-2.2539121346199E-05,1.21226885312353E-05,0.17578125,0,0
-2.17506240005605E-05,1.20930017146748E-05,0.17578125,0,0
-2.13320490729529E-05,1.24385724120657E-05,0.17578125,0,0
-2.34494491451187E-05,1.28936717374017E-05,0.17578125,0,0
-2.36626146943308E-05,1.1778637599491E-05,0.17578125,0,0
-2.30734840442892E-05,1.06186907942174E-05,0.17578125,0,0
-2.24113409785787E-05,1.09075754153309E-05,0.17578125,0,0
-2.3103350031306E-05,1.16481651275535E-05,0.17578125,0,0
-2.08443034352968E-05,9.24404866964323E-06,0.17578125,0,0
-3.06447691400535E-05,1.25160095194587E-05,0.17578125,0,0
-2.43617541855201E-05,8.8072183643817E-06,0.17578125,0,0
-2.95261852443218E-05,1.18576399472659E-05,0.17578125,0,0
-2.53543366852682E-05,1.13010064524133E-05,0.17578125,0,0
-2.74437243206194E-05,1.4526011000271E-05,0.17578125,0,0
-2.31623671425041E-05,1.48555209307233E-05,0.17578125,0,0
-2.23787919821916E-05,1.58655020641163E-05,0.17578125,0,0
-2.12568356801057E-05,1.49236029756139E-05,0.17578125,0,0
-2.06701697607059E-05,1.30874168462469E-05,0.17578125,0,0
-1.93374580703676E-05,1.05781073216349E-05,0.17578125,0,0
-1.67260186572094E-05,7.26300822861958E-06,0.17578125,0,0
-1.62301221280359E-05,4.8124647946679E-06,0.17578125,0,0
-1.41503114718944E-05,2.87374791696493E-06,0.17578125,0,0
-1.47286782521405E-05,2.1199700768193E-06,0.17578125,0,0
-1.40686388476752E-05,1.27455805909449E-07,0.17578125,0,0
-1.7055908756447E-05,3.87191875006465E-07,0.17578125,0,0
-1.97914978343761E-05,2.10195980798744E-06,0.17578125,0,0
-2.42185833485564E-05,5.44150952919154E-06,0.17578125,0,0
-2.46618110395502E-05,6.11598761679488E-06,0.17578125,0,0
-2.57365809375187E-05,7.09568848833442E-06,0.17578125,0,0
-2.63206766248913E-05,8.61988792166812E-06,0.17578125,0,0
-2.84003399428912E-05,1.11008976091398E-05,0.17578125,0,0
-2.88178871414857E-05,1.36496473714942E-05,0.17578125,0,0
-2.85070436802926E-05,1.53351247718092E-05,0.17578125,0,0
-2.80030399153475E-05,1.56551723193843E-05,0.17578125,0,0
-2.83054196188459E-05,1.71911306097172E-05,0.17578125,0,0
-2.35597599385073E-05,1.40214597195154E-05,0.17578125,0,0
-3.36027624143753E-05,1.88812882697675E-05,0.17578125,0,0
-2.53340731433127E-05,1.44229243232985E-05,0.17578125,0,0
-3.18224083457608E-05,2.06646727747284E-05,0.17578125,0,0
-2.77201525022974E-05,1.81025934580248E-05,0.17578125,0,0
-3.08477719954681E-05,1.82230432983488E-05,0.17578125,0,0
-2.84613361145603E-05,1.3795946870232E-05,0.17578125,0,0
-3.00849987979745E-05,1.01845425888314E-05,0.17578125,0,0
-2.99346993415384E-05,5.45135253560147E-06,0.17578125,0,0
-3.06807196466252E-05,4.48597256763605E-06,0.17578125,0,0
-3.14331882691476E-05,6.641555501119E-06,0.17578125,0,0
-3.0783012334723E-05,1.00822571766912E-05,0.17578125,0,0
-3.13786367769353E-05,1.39835337904515E-05,0.17578125,0,0
-3.02059943351196E-05,1.2753980627167E-05,0.17578125,0,0
-3.25282890116796E-05,1.09476231955341E-05,0.17578125,0,0
-3.18401253025513E-05,8.49324987939326E-06,0.17578125,0,0
-3.2370302506024E-05,9.6221065177815E-06,0.17578125,0,0
-3.06069778162055E-05,1.13745018097688E-05,0.17578125,0,0
-3.19064747600351E-05,1.52406246343162E-05,0.17578125,0,0
-3.0885301384842E-05,1.54744793690043E-05,0.17578125,0,0
-3.08190537907649E-05,1.51139920490095E-05,0.17578125,0,0
-2.93103712465381E-05,1.4105171430856E-05,0.17578125,0,0
-2.92196236841846E-05,1.36720354930731E-05,0.17578125,0,0
-2.81276497844374E-05,1.2586810044013E-05,0.17578125,0,0
-2.75229358521756E-05,1.29496547742747E-05,0.17578125,0,0
-2.69630836555734E-05,1.35220880110865E-05,0.17578125,0,0
-2.70200052909786E-05,1.31774968394893E-05,0.17578125,0,0
-2.18009281525156E-05,1.02297108242055E-05,0.17578125,0,0
-3.0155633794493E-05,1.35738146127551E-05,0.17578125,0,0
-2.09522295335773E-05,8.85921599547146E-06,0.17578125,0,0
-2.46145664277719E-05,1.06517782114679E-05,0.17578125,0,0
-1.91941544471774E-05,7.22701861377573E-06,0.17578125,0,0
-2.30013920372585E-05,7.35941739549162E-06,0.17578125,0,0
-2.14057617995422E-05,5.82757547817891E-06,0.17578125,0,0
-2.28747521759942E-05,6.24761923972983E-06,0.17578125,0,0
-2.2455444195657E-05,5.67212237001513E-06,0.17578125,0,0
-2.18305631278781E-05,4.76651439385023E-06,0.17578125,0,0
-2.07798366318457E-05,2.6292273105355E-06,0.17578125,0,0
-1.9705805243575E-05,1.19685307709005E-06,0.17578125,0,0
-2.16878161154455E-05,3.08819380734349E-06,0.17578125,0,0
-2.12655086215818E-05,4.18526133216801E-06,0.17578125,0,0
-2.16046555578941E-05,4.90267484565265E-06,0.17578125,0,0
-1.9043209249503E-05,3.24687221109343E-06,0.17578125,0,0
-1.99988789972849E-05,2.4684568415978E-06,0.17578125,0,0
-2.0204039174132E-05,1.90561638646614E-06,0.17578125,0,0
-2.25670573854586E-05,4.27806708103162E-06,0.17578125,0,0
-2.17827619053423E-05,6.3913958001649E-06,0.17578125,0,0
-2.14933497773018E-05,9.1636438810383E-06,0.17578125,0,0
-1.97976769413799E-05,1.12486459329375E-05,0.17578125,0,0
-2.03971285372972E-05,1.21648045023903E-05,0.17578125,0,0
-1.98904635908548E-05,1.15667362479144E-05,0.17578125,0,0
-1.98055549844867E-05,1.18277957881219E-05,0.17578125,0,0
-2.08868677873397E-05,1.11886165541364E-05,0.17578125,0,0
-2.25001531362068E-05,1.03663887784933E-05,0.17578125,0,0
-1.94895128515782E-05,5.86843907512957E-06,0.17578125,0,0
-2.72562720056158E-05,6.46857097308384E-06,0.17578125,0,0
-2.01613675017143E-05,4.94440109832794E-06,0.17578125,0,0
-2.54572169069434E-05,1.18063671834534E-05,0.17578125,0,0
-2.13705552596366E-05,1.50615342136007E-05,0.17578125,0,0
-2.34650415222859E-05,1.73950156749925E-05,0.17578125,0,0
-2.16193202504655E-05,1.58574748638785E-05,0.17578125,0,0
-2.36371488426812E-05,1.51935855683405E-05,0.17578125,0,0
-2.42563255596906E-05,1.46927159221377E-05,0.17578125,0,0
-2.45038663706509E-05,1.62416217790451E-05,0.17578125,0,0
-2.4899631171138E-05,1.87142995855538E-05,0.17578125,0,0
-2.50015382334823E-05,1.9940831407439E-05,0.17578125,0,0
-2.58891050179955E-05,1.98561920115026E-05,0.17578125,0,0
-2.44002094405005E-05,1.86479101103032E-05,0.17578125,0,0
-2.49698568950407E-05,1.81650157173863E-05,0.17578125,0,0
-2.42961541516706E-05,1.6315860193572E-05,0.17578125,0,0
-2.61976201727521E-05,1.63118638738524E-05,0.17578125,0,0
-2.47963344008895E-05,1.70622679434018E-05,0.17578125,0,0
-2.41836387431249E-05,1.78422887984198E-05,0.17578125,0,0
-2.30362074944424E-05,1.74078304553404E-05,0.17578125,0,0
-2.47943280555774E-05,1.83827014552662E-05,0.17578125,0,0
-2.5049217583728E-05,1.81608047569171E-05,0.17578125,0,0
-2.54964743362507E-05,1.61201405717293E-05,0.17578125,0,0
-2.46827221417334E-05,1.30809303300339E-05,0.17578125,0,0
-2.44241618929664E-05,1.05678482213989E-05,0.17578125,0,0
-2.3925575078465E-05,8.09148605185328E-06,0.17578125,0,0
-2.29783272516215E-05,7.41091162126395E-06,0.17578125,0,0
-1.81254763447214E-05,7.76774140831549E-06,0.17578125,0,0
-2.70353430096293E-05,1.07576724985847E-05,0.17578125,0,0
-2.23002225538949E-05,6.26500241196482E-06,0.17578125,0,0
-2.65453563770279E-05,5.44614840691793E-06,0.17578125,0,0
-2.22906510316534E-05,3.13763371195819E-06,0.17578125,0,0
-2.49484928644961E-05,6.18233207205776E-06,0.17578125,0,0
-2.40868503169622E-05,7.80074515205342E-06,0.17578125,0,0
-2.69394422502955E-05,1.00333936643437E-05,0.17578125,0,0
-2.8370923246257E-05,1.11885437945602E-05,0.17578125,0,0
-2.99835119221825E-05,1.16207884275354E-05,0.17578125,0,0
-3.15756915370002E-05,1.19533879114897E-05,0.17578125,0,0
-3.18027996399906E-05,1.15188922791276E-05,0.17578125,0,0
-3.2810141419759E-05,1.13638971015462E-05,0.17578125,0,0
-3.23597523674835E-05,1.02886851891526E-05,0.17578125,0,0
-3.40668666467536E-05,1.03821885204525E-05,0.17578125,0,0
-3.26970111927949E-05,1.1134400665469E-05,0.17578125,0,0
-3.18142447213177E-05,1.32824261527276E-05,0.17578125,0,0
-2.9089624149492E-05,1.29311656564823E-05,0.17578125,0,0
-2.8218677471159E-05,1.03075617516879E-05,0.17578125,0,0
-2.58711588685401E-05,5.55878386876429E-06,0.17578125,0,0
-2.51320907409536E-05,2.65143876276852E-06,0.17578125,0,0
-2.35625084314961E-05,3.03863271255977E-06,0.17578125,0,0
-2.37221429415513E-05,5.47125227967626E-06,0.17578125,0,0
-2.45192040893016E-05,4.19176512878039E-06,0.17578125,0,0
-2.59124662989052E-05,2.39000428337022E-07,0.17578125,0,0
-2.59804346569581E-05,-2.00106728698302E-06,0.17578125,0,0
-2.58548061538022E-05,4.80921869439044E-07,0.17578125,0,0
-2.0561890778481E-05,5.0608505262062E-06,0.17578125,0,0
-2.86914400930982E-05,8.58033581607742E-06,0.17578125,0,0
-2.22696726268623E-05,7.45824581827037E-06,0.17578125,0,0
-2.93439861707157E-05,8.95176344783977E-06,0.17578125,0,0
-2.49725308094639E-05,1.00504939837265E-05,0.17578125,0,0
-2.66881470452063E-05,1.15521397674456E-05,0.17578125,0,0
-2.49796885327669E-05,1.06375091490918E-05,0.17578125,0,0
-2.7763544494519E-05,1.03801539808046E-05,0.17578125,0,0
-2.74126923613949E-05,1.2120088285883E-05,0.17578125,0,0
-2.72759953077184E-05,1.38330633490114E-05,0.17578125,0,0
-2.6662768505048E-05,1.37326014737482E-05,0.17578125,0,0
-2.49312361120246E-05,1.28021119962796E-05,0.17578125,0,0
-2.4377286536037E-05,1.31956485347473E-05,0.17578125,0,0
-2.0866607883363E-05,1.28633491840446E-05,0.17578125,0,0
-2.07202829187736E-05,1.26363511299132E-05,0.17578125,0,0
-2.03008476091782E-05,1.16543142212322E-05,0.17578125,0,0
-2.29037141252775E-05,1.0507211300137E-05,0.17578125,0,0
-2.23594361159485E-05,1.05644394352566E-05,0.17578125,0,0
-2.23234364966629E-05,1.28463270812063E-05,0.17578125,0,0
-1.97850531549193E-05,1.36267699417658E-05,0.17578125,0,0
-2.00286012841389E-05,1.17174085971783E-05,0.17578125,0,0
-2.03734125534538E-05,9.59364115260541E-06,0.17578125,0,0
-2.21354002860608E-05,8.84596465766663E-06,0.17578125,0,0
-2.20837155211484E-05,7.92643822933314E-06,0.17578125,0,0
-2.23110309889307E-05,6.66881078359438E-06,0.17578125,0,0
-2.20444908336503E-05,6.31039847576176E-06,0.17578125,0,0
-2.16002426896011E-05,8.50001015351154E-06,0.17578125,0,0
-1.64866614795756E-05,1.02070844150148E-05,0.17578125,0,0
-2.23517290578457E-05,1.5041585356812E-05,0.17578125,0,0
-1.54436529555824E-05,1.0053356163553E-05,0.17578125,0,0
-1.88355334103107E-05,1.02684316516388E-05,0.17578125,0,0
-1.51934700625134E-05,8.7734670159989E-06,0.17578125,0,0
-1.84552591235843E-05,1.13667329060263E-05,0.17578125,0,0
-1.7386368199368E-05,9.12339055503253E-06,0.17578125,0,0
-1.87103669304634E-05,6.34415937383892E-06,0.17578125,0,0
-1.8134940546588E-05,4.52546100859763E-06,0.17578125,0,0
-1.77977835846832E-05,5.27231441083131E-06,0.17578125,0,0
-1.76244993781438E-05,7.03712794347666E-06,0.17578125,0,0
-1.70828443515347E-05,8.88620070327306E-06,0.17578125,0,0
-1.79703238245565E-05,1.08356589407776E-05,0.17578125,0,0
-1.7666636267677E-05,1.09070988401072E-05,0.17578125,0,0
-1.84937798621831E-05,1.14979393401882E-05,0.17578125,0,0
-1.7292877600994E-05,1.09928741949261E-05,0.17578125,0,0
-1.87258974619908E-05,1.14905287773581E-05,0.17578125,0,0
-1.87089517567074E-05,1.13207952381345E-05,0.17578125,0,0
-2.04249463422457E-05,1.26712639030302E-05,0.17578125,0,0
-2.0823930753977E-05,1.27302182590938E-05,0.17578125,0,0
-2.19859630306019E-05,1.16762612378807E-05,0.17578125,0,0
-2.12900176848052E-05,9.14050542633049E-06,0.17578125,0,0
-2.13387556868838E-05,8.21631874714512E-06,0.17578125,0,0
-2.07156663236674E-05,9.11092774913413E-06,0.17578125,0,0
-2.22644957830198E-05,1.15363154691295E-05,0.17578125,0,0
-2.32555557886371E-05,1.27036846606643E-05,0.17578125,0,0
-2.21639493247494E-05,1.24807702377439E-05,0.17578125,0,0
-1.75756631506374E-05,1.03540860436624E-05,0.17578125,0,0
-2.56078255915781E-05,1.56205587700242E-05,0.17578125,0,0
-2.06264521693811E-05,1.35647687784513E-05,0.17578125,0,0
-2.54826190939639E-05,1.72316831594799E-05,0.17578125,0,0
-2.16548669413896E-05,1.61736279551405E-05,0.17578125,0,0
-2.4448505428154E-05,1.92905336007243E-05,0.17578125,0,0
-2.28620010602754E-05,1.89295133168343E-05,0.17578125,0,0
-2.34126073337393E-05,1.84320560947526E-05,0.17578125,0,0
-2.37801432376727E-05,1.78137925104238E-05,0.17578125,0,0
-2.57553328992799E-05,1.66571408044547E-05,0.17578125,0,0
-2.72119705186924E-05,1.18505195132457E-05,0.17578125,0,0
-2.6663183234632E-05,4.04250340579893E-06,0.17578125,0,0
-2.75239199254429E-05,9.84513576440804E-07,0.17578125,0,0
-2.69438314717263E-05,4.73932323075132E-06,0.17578125,0,0
-2.80963267869083E-05,1.30554362840485E-05,0.17578125,0,0
-2.71918070211541E-05,1.92973893717863E-05,0.17578125,0,0
-2.90104035229888E-05,2.31542671826901E-05,0.17578125,0,0
-3.00502761092503E-05,2.13167331821751E-05,0.17578125,0,0
-3.206083420082E-05,1.69219347299077E-05,0.17578125,0,0
-3.15927973133512E-05,1.18710386232124E-05,0.17578125,0,0
-3.26514345942996E-05,1.05150074887206E-05,0.17578125,0,0
-3.25815781252459E-05,1.1576563338167E-05,0.17578125,0,0
-3.28345740854274E-05,1.46496240631677E-05,0.17578125,0,0
-3.15757206408307E-05,1.59768715093378E-05,0.17578125,0,0
-2.99050716421334E-05,1.63918848556932E-05,0.17578125,0,0
-2.84889247268438E-05,1.64600187417818E-05,0.17578125,0,0
-2.82330584013835E-05,1.56791611516383E-05,0.17578125,0,0
-2.29962224693736E-05,1.07448622657103E-05,0.17578125,0,0
-3.21908519254066E-05,1.41165173772606E-05,0.17578125,0,0
-2.37699532590341E-05,1.03000656963559E-05,0.17578125,0,0
-2.95080608339049E-05,1.50707692228025E-05,0.17578125,0,0
-2.36994255828904E-05,1.40067186293891E-05,0.17578125,0,0
-2.53396228799829E-05,1.60284052981297E-05,0.17578125,0,0
-2.12346876651281E-05,1.45610320032574E-05,0.17578125,0,0
-2.1725420083385E-05,1.64179618877824E-05,0.17578125,0,0
-2.09785084734904E-05,1.79414637386799E-05,0.17578125,0,0
-2.17164379137103E-05,1.72164491232252E-05,0.17578125,0,0
-2.22818816837389E-05,1.49617735587526E-05,0.17578125,0,0
-2.11225451494101E-05,1.31521182993311E-05,0.17578125,0,0
-2.17138167499797E-05,1.29468608065508E-05,0.17578125,0,0
-2.06533240998397E-05,1.22042629300267E-05,0.17578125,0,0
-2.24808445636882E-05,1.25637325254502E-05,0.17578125,0,0
-2.12085233215475E-05,1.04902082966873E-05,0.17578125,0,0
-2.16335793083999E-05,8.88967042556033E-06,0.17578125,0,0
-1.99589121621102E-05,7.47179865356884E-06,0.17578125,0,0
-2.17145934584551E-05,9.37071035878034E-06,0.17578125,0,0
-2.16286589420633E-05,1.061785951606E-05,0.17578125,0,0
-2.2960100977798E-05,1.09183256427059E-05,0.17578125,0,0
-2.26529209612636E-05,8.74405486683827E-06,0.17578125,0,0
-2.31059020734392E-05,7.52822779759299E-06,0.17578125,0,0
-2.1847001335118E-05,6.88583031660528E-06,0.17578125,0,0
-2.13898529182188E-05,6.77153775541228E-06,0.17578125,0,0
-2.09103436645819E-05,7.49960054235999E-06,0.17578125,0,0
-1.97969984583324E-05,1.02510284705204E-05,0.17578125,0,0
-1.6510706700501E-05,1.00868364825146E-05,0.17578125,0,0
-2.44291786657413E-05,1.27280809465447E-05,0.17578125,0,0
-2.01708571694326E-05,7.24728624845739E-06,0.17578125,0,0
-2.51132623816375E-05,9.21030095923925E-06,0.17578125,0,0
-2.25706226046896E-05,7.90708418207942E-06,0.17578125,0,0
-2.42770147451665E-05,1.08983458630973E-05,0.17578125,0,0
-2.16623302549124E-05,9.5347422757186E-06,0.17578125,0,0
-2.2615357011091E-05,8.89659804670373E-06,0.17578125,0,0
-2.3578897526022E-05,8.1382286225562E-06,0.17578125,0,0
-2.56857256317744E-05,8.91419858817244E-06,0.17578125,0,0
-2.74443391390378E-05,1.02695448731538E-05,0.17578125,0,0
-2.77089729934232E-05,1.0354688129155E-05,0.17578125,0,0
-2.8907006708323E-05,9.62457033892861E-06,0.17578125,0,0
-2.77070848824224E-05,6.7474343268259E-06,0.17578125,0,0
-2.74264166364446E-05,5.93442746321671E-06,0.17578125,0,0
-2.62232679233421E-05,4.66168103230302E-06,0.17578125,0,0
-2.80781678156927E-05,4.11694236390758E-06,0.17578125,0,0
-2.8568911147886E-05,1.97359963749477E-06,0.17578125,0,0
-3.02648695651442E-05,2.01787975129264E-06,0.17578125,0,0
-3.02398675557924E-05,2.45382352659362E-06,0.17578125,0,0
-3.08164853777271E-05,4.34127196058398E-06,0.17578125,0,0
-2.98905906674918E-05,4.52777339887689E-06,0.17578125,0,0
-3.07728587358724E-05,3.31904607264732E-06,0.17578125,0,0
-3.0721628718311E-05,1.90702064628567E-06,0.17578125,0,0
-2.86619379039621E-05,3.09572328660579E-06,0.17578125,0,0
-2.61987188423518E-05,5.02978355143568E-06,0.17578125,0,0
-2.47957450483227E-05,5.61789556741132E-06,0.17578125,0,0
-2.02913797693327E-05,3.95933420804795E-06,0.17578125,0,0
-2.8958509574295E-05,6.65541983835283E-06,0.17578125,0,0
-2.20479614654323E-05,8.46777766128071E-06,0.17578125,0,0
-2.73065779765602E-05,1.25442229546024E-05,0.17578125,0,0
-2.31831254495773E-05,1.28044530356419E-05,0.17578125,0,0
-2.54767983278725E-05,1.23822710520471E-05,0.17578125,0,0
-2.33697155636037E-05,1.00073684734525E-05,0.17578125,0,0
-2.51475121331168E-05,9.4128563432605E-06,0.17578125,0,0
-2.4766772185103E-05,9.69363645708654E-06,0.17578125,0,0
-2.53181970037986E-05,9.99647363641998E-06,0.17578125,0,0
-2.6375504603493E-05,1.1644793630694E-05,0.17578125,0,0
-2.58227410085965E-05,1.53122164192609E-05,0.17578125,0,0
-2.48661781370174E-05,1.79077633220004E-05,0.17578125,0,0
-2.15006839425769E-05,1.70001603692072E-05,0.17578125,0,0
-2.23068655031966E-05,1.51206641021417E-05,0.17578125,0,0
-2.27861801249674E-05,1.45183612403343E-05,0.17578125,0,0
-2.56200619332958E-05,1.61317584570497E-05,0.17578125,0,0
-2.54786391451489E-05,1.78308218892198E-05,0.17578125,0,0
-2.63182519120164E-05,1.84227101271972E-05,0.17578125,0,0
-2.48114483838435E-05,1.54098415805493E-05,0.17578125,0,0
-2.51172459684312E-05,1.10796854642103E-05,0.17578125,0,0
-2.46452400460839E-05,8.9831764853443E-06,0.17578125,0,0
-2.49899458140135E-05,1.1957574315602E-05,0.17578125,0,0
-2.36871328525012E-05,1.74846572917886E-05,0.17578125,0,0
-2.2280682969722E-05,2.1038118575234E-05,0.17578125,0,0
-2.03100898943376E-05,1.88177618838381E-05,0.17578125,0,0
-1.90690207091393E-05,1.47463169923867E-05,0.17578125,0,0
-1.5824698493816E-05,1.10181927084341E-05,0.17578125,0,0
-2.2546428226633E-05,1.58149305207189E-05,0.17578125,0,0
-1.70796647580573E-05,1.33953826662037E-05,0.17578125,0,0
-2.21289410546888E-05,1.65478941198671E-05,0.17578125,0,0
-1.96972778212512E-05,1.07522619146039E-05,0.17578125,0,0
-2.06934328161879E-05,9.30516944208648E-06,0.17578125,0,0
-1.87664791155839E-05,7.51081461203285E-06,0.17578125,0,0
-2.00275862880517E-05,7.7149607022875E-06,0.17578125,0,0
-1.93315518117743E-05,6.04423530603526E-06,0.17578125,0,0
-1.74566939676879E-05,5.07855565956561E-06,0.17578125,0,0
-1.58346319949487E-05,5.99031773163006E-06,0.17578125,0,0
-1.48021672430332E-05,6.34095840723603E-06,0.17578125,0,0
-1.58648490469204E-05,6.95436801834148E-06,0.17578125,0,0
-1.54520257638069E-05,7.65667482482968E-06,0.17578125,0,0
-1.67487251019338E-05,1.05272647488164E-05,0.17578125,0,0
-1.75557943293825E-05,1.16759911179543E-05,0.17578125,0,0
-2.08875426324084E-05,1.29728450701805E-05,0.17578125,0,0
-2.19039102375973E-05,1.24423268061946E-05,0.17578125,0,0
-2.29420093091903E-05,1.3402981494437E-05,0.17578125,0,0
-2.22203361772699E-05,1.39171906994306E-05,0.17578125,0,0
-2.33561440836638E-05,1.46777920235763E-05,0.17578125,0,0
-2.55802515312098E-05,1.27155790323741E-05,0.17578125,0,0
-2.864834277716E-05,1.07855630631093E-05,0.17578125,0,0
-2.90081825369271E-05,1.04136925074272E-05,0.17578125,0,0
-2.93263910862152E-05,1.04302762338193E-05,0.17578125,0,0
-2.90523275907617E-05,7.92224818724208E-06,0.17578125,0,0
-2.78003553830786E-05,5.30177021573763E-06,0.17578125,0,0
-2.21853788389126E-05,4.92586696054786E-06,0.17578125,0,0
-3.07597620121669E-05,1.0493411537027E-05,0.17578125,0,0
-2.17516480915947E-05,1.39022267831024E-05,0.17578125,0,0
-2.62384164670948E-05,1.60898362082662E-05,0.17578125,0,0
-2.09604459087132E-05,1.4265569006966E-05,0.17578125,0,0
-2.37719013966853E-05,1.3651922927238E-05,0.17578125,0,0
-2.06568984140176E-05,1.17251256597228E-05,0.17578125,0,0
-2.09999234357383E-05,1.04180880953209E-05,0.17578125,0,0
-1.98172892851289E-05,9.87107796390774E-06,0.17578125,0,0
-2.05820851988392E-05,9.07112644199515E-06,0.17578125,0,0
-2.13307739613811E-05,7.60789180276333E-06,0.17578125,0,0
-2.06540662475163E-05,7.62567924539326E-06,0.17578125,0,0
-2.2261107005761E-05,9.27319615584565E-06,0.17578125,0,0
-2.24951381824212E-05,8.58790008351207E-06,0.17578125,0,0
-2.42805290326942E-05,6.73731210554251E-06,0.17578125,0,0
-2.36523046623915E-05,7.09731284587178E-06,0.17578125,0,0
-2.66122260654811E-05,1.07639198176912E-05,0.17578125,0,0
-2.66983606707072E-05,1.31912065626238E-05,0.17578125,0,0
-2.6871570298681E-05,1.29030140669784E-05,0.17578125,0,0
-2.42246132984292E-05,9.67811047303258E-06,0.17578125,0,0
-2.45418887061533E-05,6.1539813032141E-06,0.17578125,0,0
-2.35116203839425E-05,4.25290363637032E-06,0.17578125,0,0
-2.43058348132763E-05,5.5147456805571E-06,0.17578125,0,0
-2.50934026553296E-05,7.36358242647839E-06,0.17578125,0,0
-2.63584061030997E-05,3.39149346473278E-06,0.17578125,0,0
-2.65217786363792E-05,-3.99356849811738E-06,0.17578125,0,0
-2.61766235780669E-05,-5.42739871889353E-06,0.17578125,0,0
-2.09778809221461E-05,-9.9925713925586E-08,0.17578125,0,0
-2.96582711598603E-05,3.9762389860698E-06,0.17578125,0,0
-2.29137494898168E-05,8.02430531621212E-06,0.17578125,0,0
-3.00125484500313E-05,6.25266829956672E-06,0.17578125,0,0
-2.75420861726161E-05,2.69116094386845E-06,0.17578125,0,0
-3.10329705826007E-05,-2.07718883871166E-07,0.17578125,0,0
-2.72455308731878E-05,1.57538761413889E-06,0.17578125,0,0
-2.69903066509869E-05,3.79810444428585E-06,0.17578125,0,0
-2.63569181697676E-05,5.97406551605673E-06,0.17578125,0,0
-2.67638006334892E-05,8.00056022853823E-06,0.17578125,0,0
-2.74218218692113E-05,1.02529011201113E-05,0.17578125,0,0
-2.65851649601245E-05,1.10145720100263E-05,0.17578125,0,0
-2.76917635346763E-05,1.0713975825638E-05,0.17578125,0,0
-2.72244269581279E-05,1.0494741218281E-05,0.17578125,0,0
-2.87985949398717E-05,9.77374747890281E-06,0.17578125,0,0
-2.69960310106399E-05,9.51706533669494E-06,0.17578125,0,0
-2.69285592366941E-05,9.89181808108697E-06,0.17578125,0,0
-2.5406352506252E-05,1.07495152406045E-05,0.17578125,0,0
-2.69210595433833E-05,1.07257465060684E-05,0.17578125,0,0
-2.66768747678725E-05,1.05232375062769E-05,0.17578125,0,0
-2.75355960184243E-05,9.82900837698253E-06,0.17578125,0,0
-2.70367308985442E-05,9.93932189885527E-06,0.17578125,0,0
-2.71048174909083E-05,1.07401283457875E-05,0.17578125,0,0
-2.57976280408911E-05,1.24911684906692E-05,0.17578125,0,0
-2.46306335611735E-05,1.27794519357849E-05,0.17578125,0,0
-2.35797342611477E-05,1.06855859485222E-05,0.17578125,0,0
-2.23490660573589E-05,7.80646132625407E-06,0.17578125,0,0
-1.70404764503473E-05,5.1553174671426E-06,0.17578125,0,0
-2.4957706045825E-05,1.01360910775838E-05,0.17578125,0,0
-1.9980019715149E-05,1.21209004646516E-05,0.17578125,0,0
-2.40309600485489E-05,1.44041823659791E-05,0.17578125,0,0
-2.00484046217753E-05,1.25696060422342E-05,0.17578125,0,0
-2.21861373574939E-05,1.27712355606491E-05,0.17578125,0,0
-2.07118373509729E-05,1.23679055832326E-05,0.17578125,0,0
-2.16670396184782E-05,1.2365263501124E-05,0.17578125,0,0
-2.08890814974438E-05,1.18552197818644E-05,0.17578125,0,0
-2.05746637220727E-05,1.13430223791511E-05,0.17578125,0,0
-2.06500044441782E-05,1.19120068120537E-05,0.17578125,0,0
-2.0934414351359E-05,1.30173029901925E-05,0.17578125,0,0
-2.21979898924474E-05,1.40020329126855E-05,0.17578125,0,0
-2.10388279811013E-05,1.47146274684928E-05,0.17578125,0,0
-2.06535296456423E-05,1.59188402903965E-05,0.17578125,0,0
-1.85528278962011E-05,1.50758742165635E-05,0.17578125,0,0
-1.98188154172385E-05,1.34767487907084E-05,0.17578125,0,0
-2.02130704565207E-05,1.21959419630002E-05,0.17578125,0,0
-2.20457641262328E-05,1.23786621770705E-05,0.17578125,0,0
-2.18448913074099E-05,1.38065488499706E-05,0.17578125,0,0
-2.21661339310231E-05,1.69125287357019E-05,0.17578125,0,0
-2.16315620491514E-05,1.96717628568877E-05,0.17578125,0,0
-2.25589774345281E-05,2.04298685275717E-05,0.17578125,0,0
-2.27583113883156E-05,1.93302093975944E-05,0.17578125,0,0
-2.36772539210506E-05,1.91407543752575E-05,0.17578125,0,0
-2.38978045672411E-05,1.94491403817665E-05,0.17578125,0,0
-2.44914317590883E-05,1.94785097846761E-05,0.17578125,0,0
-2.02831906790379E-05,1.5083484868228E-05,0.17578125,0,0
-2.85736587102292E-05,1.97992158064153E-05,0.17578125,0,0
-2.15911932173185E-05,1.20907006930793E-05,0.17578125,0,0
-2.76645114354324E-05,1.61803727678489E-05,0.17578125,0,0
-2.44096790993353E-05,1.52422071550973E-05,0.17578125,0,0
-2.80705116892932E-05,1.84162145160371E-05,0.17578125,0,0
-2.62458288489142E-05,1.5675026588724E-05,0.17578125,0,0
-2.76540667982772E-05,1.55955603986513E-05,0.17578125,0,0
-2.80068525171373E-05,1.38940722536063E-05,0.17578125,0,0
-2.92152726615313E-05,1.24490243251785E-05,0.17578125,0,0
-2.97945971396985E-05,1.08413642010419E-05,0.17578125,0,0
-2.89785712084267E-05,9.212893928634E-06,0.17578125,0,0
-3.01591117022326E-05,8.58122257341165E-06,0.17578125,0,0
-2.92274216917576E-05,7.0960886660032E-06,0.17578125,0,0
-2.96769721899182E-05,9.36309152166359E-06,0.17578125,0,0
-2.80928361462429E-05,1.02633030110155E-05,0.17578125,0,0
-2.92375316348625E-05,1.10862365545472E-05,0.17578125,0,0
-2.86138256342383E-05,8.72044893185375E-06,0.17578125,0,0
-2.99626026389888E-05,7.74399995862041E-06,0.17578125,0,0
-2.94842338917078E-05,6.21791241428582E-06,0.17578125,0,0
-3.05368557746988E-05,6.61215517538949E-06,0.17578125,0,0
-3.02460193779552E-05,5.04761283082189E-06,0.17578125,0,0
-3.0059249183978E-05,3.89414844903513E-06,0.17578125,0,0
-2.7699312340701E-05,3.90214336221106E-06,0.17578125,0,0
-2.62956982624019E-05,6.44283772999188E-06,0.17578125,0,0
-2.40841709455708E-05,7.22135382602573E-06,0.17578125,0,0
-2.12101786019048E-05,6.28693715043482E-06,0.17578125,0,0
-1.6087076801341E-05,5.75729973206762E-06,0.17578125,0,0
-2.34713061217917E-05,9.53436756390147E-06,0.17578125,0,0
-1.88841495400993E-05,8.96631627256284E-06,0.17578125,0,0
-2.339070852031E-05,9.89869749901118E-06,0.17578125,0,0
-2.04422867682297E-05,9.72062662185635E-06,0.17578125,0,0
-2.28847056860104E-05,1.22420697152847E-05,0.17578125,0,0
-2.17013966903323E-05,1.18540847324766E-05,0.17578125,0,0
-2.31657431868371E-05,1.20635040730122E-05,0.17578125,0,0
-2.28868830163265E-05,1.28082319861278E-05,0.17578125,0,0
-2.40206900343765E-05,1.19326459753211E-05,0.17578125,0,0
-2.63203364738729E-05,9.81191715254681E-06,0.17578125,0,0
-2.68763214990031E-05,8.59435294842115E-06,0.17578125,0,0
-2.76626560662407E-05,1.02555304692942E-05,0.17578125,0,0
-2.74834710580762E-05,1.30627986436593E-05,0.17578125,0,0
-2.98731247312389E-05,1.6136627891683E-05,0.17578125,0,0
-2.93265275104204E-05,1.65698984346818E-05,0.17578125,0,0
-2.84656489384361E-05,1.60465533554088E-05,0.17578125,0,0
-2.55774484685389E-05,1.50776322698221E-05,0.17578125,0,0
-2.46612853516126E-05,1.5881461877143E-05,0.17578125,0,0
-2.31660069403006E-05,1.6843816410983E-05,0.17578125,0,0
-2.33764749282273E-05,1.58942239067983E-05,0.17578125,0,0
-2.20974361582194E-05,1.31186798171257E-05,0.17578125,0,0
-2.16221014852636E-05,1.17225790745579E-05,0.17578125,0,0
-2.02410847123247E-05,1.02677522590966E-05,0.17578125,0,0
-1.82780531758908E-05,9.21183709579054E-06,0.17578125,0,0
-1.6950631106738E-05,1.0533542081248E-05,0.17578125,0,0
-1.69187969731865E-05,1.32766899696435E-05,0.17578125,0,0
-1.44476880450384E-05,1.10085493361112E-05,0.17578125,0,0
-2.03639810933964E-05,1.4116933925834E-05,0.17578125,0,0
-1.38155101012671E-05,8.49676416692091E-06,0.17578125,0,0
-1.59901428560261E-05,1.13952874016832E-05,0.17578125,0,0
-1.4735538570676E-05,1.03621205198579E-05,0.17578125,0,0
-1.92276602319907E-05,1.34710171550978E-05,0.17578125,0,0
-1.84596337930998E-05,1.12398993223906E-05,0.17578125,0,0
-1.88310241355794E-05,1.05305889519514E-05,0.17578125,0,0
-1.89480269909836E-05,9.81553239398636E-06,0.17578125,0,0
-2.03874787985114E-05,9.67633059190121E-06,0.17578125,0,0
-2.1238491171971E-05,9.5294608399854E-06,0.17578125,0,0
-2.08067685889546E-05,1.02256080936058E-05,0.17578125,0,0
-2.11546775972238E-05,1.33444873426924E-05,0.17578125,0,0
-2.10579946724465E-05,1.47015889524482E-05,0.17578125,0,0
-2.31842805078486E-05,1.60663221322466E-05,0.17578125,0,0
-2.30645637202542E-05,1.57966896949802E-05,0.17578125,0,0
-2.45850496867206E-05,1.6469039110234E-05,0.17578125,0,0
-2.5632174583734E-05,1.49175912156352E-05,0.17578125,0,0
-2.7787853468908E-05,1.40918027682346E-05,0.17578125,0,0
-2.67404666374205E-05,1.28234578369302E-05,0.17578125,0,0
-2.61925979430089E-05,1.31020015032846E-05,0.17578125,0,0
-2.52710015047342E-05,1.08558269857895E-05,0.17578125,0,0
-2.44373568420997E-05,5.40303653906449E-06,0.17578125,0,0
-2.31015201279661E-05,-1.36552864660189E-06,0.17578125,0,0
-2.31440699280938E-05,-3.27424504575902E-06,0.17578125,0,0
-2.27509754040511E-05,1.16265857741382E-06,0.17578125,0,0
-2.27045784413349E-05,7.13017107045744E-06,0.17578125,0,0
-2.01487473532325E-05,9.14330303203315E-06,0.17578125,0,0
-2.95600530080264E-05,1.29413256217958E-05,0.17578125,0,0
-2.3546357624582E-05,8.26270934339846E-06,0.17578125,0,0
-2.86597169179004E-05,7.39153529139003E-06,0.17578125,0,0
-2.51145502261352E-05,3.03770343634824E-06,0.17578125,0,0
-2.87423845293233E-05,3.04613877233351E-06,0.17578125,0,0
-2.71267072093906E-05,5.39019026746246E-07,0.17578125,0,0
-2.81849388557021E-05,-9.13765347831941E-07,0.17578125,0,0
-2.75202455668477E-05,4.04563593292551E-07,0.17578125,0,0
-2.78407424048055E-05,4.94290543429088E-06,0.17578125,0,0
-2.80739659501705E-05,9.49710738495924E-06,0.17578125,0,0
-2.79160522040911E-05,1.11654653665028E-05,0.17578125,0,0
-2.9163276849431E-05,1.0871393897105E-05,0.17578125,0,0
-2.76151058642427E-05,9.203092304233E-06,0.17578125,0,0
-2.74645462923218E-05,1.02543908724329E-05,0.17578125,0,0
-2.53422458627028E-05,1.15739539978676E-05,0.17578125,0,0
-2.55664981523296E-05,1.33450521389022E-05,0.17578125,0,0
-2.36667601711815E-05,1.3580816812464E-05,0.17578125,0,0
-2.40463250520406E-05,1.4463904335571E-05,0.17578125,0,0
-2.31045287364395E-05,1.40076808747835E-05,0.17578125,0,0
-2.4522581952624E-05,1.32687964651268E-05,0.17578125,0,0
-2.50821321969852E-05,1.18728557936265E-05,0.17578125,0,0
-2.6785291993292E-05,1.04603768704692E-05,0.17578125,0,0
-2.72718789346982E-05,8.13242149888538E-06,0.17578125,0,0
-2.7007061362383E-05,6.72901433063089E-06,0.17578125,0,0
-2.47612460952951E-05,7.19010449756752E-06,0.17578125,0,0
-2.24747200263664E-05,9.45167084864806E-06,0.17578125,0,0
-1.81267259904416E-05,8.58150087879039E-06,0.17578125,0,0
-2.51905348704895E-05,1.13983915071003E-05,0.17578125,0,0
-1.73561293195235E-05,7.264582109201E-06,0.17578125,0,0
-1.91017625184031E-05,8.2497535913717E-06,0.17578125,0,0
-1.21798138934537E-05,4.61116678707185E-06,0.17578125,0,0
-1.34158372020465E-05,5.5179798437166E-06,0.17578125,0,0
-1.27786670418573E-05,4.96848269904149E-06,0.17578125,0,0
-1.5183763935056E-05,4.90481033921242E-06,0.17578125,0,0
-1.52581105794525E-05,4.679754965764E-06,0.17578125,0,0
-1.59284991241293E-05,5.20249977853382E-06,0.17578125,0,0
-1.66901609190973E-05,5.49473588762339E-06,0.17578125,0,0
-1.58670900418656E-05,6.07235415372998E-06,0.17578125,0,0
-1.58151287905639E-05,8.76433841767721E-06,0.17578125,0,0
-1.41845985126565E-05,9.93911362456856E-06,0.17578125,0,0
-1.47049731822335E-05,1.1209617696295E-05,0.17578125,0,0
-1.34165429699351E-05,1.16875644380343E-05,0.17578125,0,0
-1.38198747663409E-05,1.34046349558048E-05,0.17578125,0,0
-1.26847553474363E-05,1.43080460475176E-05,0.17578125,0,0
-1.4656625353382E-05,1.48760882439092E-05,0.17578125,0,0
-1.55742236529477E-05,1.35441523525515E-05,0.17578125,0,0
-1.78031968971482E-05,1.25894512166269E-05,0.17578125,0,0
-1.75677923834883E-05,1.08232779894024E-05,0.17578125,0,0
-1.76204066519858E-05,9.61082878347952E-06,0.17578125,0,0
-1.83317588380305E-05,8.9752775238594E-06,0.17578125,0,0
-1.94056065083714E-05,9.66871175478445E-06,0.17578125,0,0
-1.84699420060497E-05,1.02511176010012E-05,0.17578125,0,0
-1.811849688238E-05,9.91368051472818E-06,0.17578125,0,0
-1.62156102305744E-05,8.58378916746005E-06,0.17578125,0,0
-2.35388160945149E-05,1.37633105623536E-05,0.17578125,0,0
-1.80779898073524E-05,1.19676024041837E-05,0.17578125,0,0
-2.13226740015671E-05,1.40456195367733E-05,0.17578125,0,0
-1.82471976586385E-05,1.47556102092494E-05,0.17578125,0,0
-2.20772799366387E-05,1.82273251994047E-05,0.17578125,0,0
-2.25039166252827E-05,1.75711138581391E-05,0.17578125,0,0
-2.47733314608922E-05,1.66488862305414E-05,0.17578125,0,0
-2.37715103139635E-05,1.51275844473275E-05,0.17578125,0,0
-2.19358971662587E-05,1.46975316965836E-05,0.17578125,0,0
-2.01088405447081E-05,1.37643764901441E-05,0.52734375,0,0
-1.8156797523261E-05,1.3063290680293E-05,0.52734375,0,0
-1.81867308128858E-05,1.31806746139773E-05,0.52734375,0,0
-1.69183113030158E-05,1.28670262711239E-05,0.52734375,0,0
-1.75345794559689E-05,1.40016063596704E-05,0.52734375,0,0
-1.68916485563386E-05,1.53177716128994E-05,0.52734375,0,0
-1.77223646460334E-05,1.75504064827692E-05,0.52734375,0,0
-1.6776839402155E-05,1.73023126990302E-05,0.52734375,0,0
-1.8153989003622E-05,1.73595963133266E-05,0.52734375,0,0
-1.8578664821689E-05,1.710173637548E-05,0.52734375,0,0
-2.08533765544416E-05,1.70250332303112E-05,0.52734375,0,0
-2.22412527364213E-05,1.49442221299978E-05,0.52734375,0,0
-2.37498170463368E-05,1.32565683088615E-05,0.52734375,0,0
-2.46226700255647E-05,1.29990403365809E-05,0.52734375,0,0
-2.69742486125324E-05,1.45737622005981E-05,0.52734375,0,0
-2.88704577542376E-05,1.57861086336197E-05,0.52734375,0,0
-2.98816266877111E-05,1.66510362760164E-05,0.52734375,0,0
-2.50347202381818E-05,1.45564672493492E-05,0.52734375,0,0
-3.68068576790392E-05,2.04525913432008E-05,0.52734375,0,0
-3.03580909530865E-05,1.4126485439192E-05,0.52734375,0,0
-3.88642074540257E-05,1.67347061506007E-05,0.52734375,0,0
-3.58000543201342E-05,1.25362130347639E-05,0.52734375,0,0
-3.9728642150294E-05,1.21908760775113E-05,0.52734375,0,0
-3.55357296939474E-05,8.51395816425793E-06,0.52734375,0,0
-3.57192584488075E-05,8.93998821993591E-06,0.52734375,0,0
-3.48953981301747E-05,8.87004989635898E-06,0.52734375,0,0
-3.50262816937175E-05,7.14151883585146E-06,0.52734375,0,0
-3.42058883688878E-05,4.43512362835463E-06,0.52734375,0,0
-3.17266822094098E-05,3.05055982607882E-06,0.52734375,0,0
-3.10672039631754E-05,5.43122678209329E-06,0.52734375,0,0
-2.97433816740522E-05,7.29619932826608E-06,0.52734375,0,0
-3.23018066410441E-05,1.01213508969522E-05,0.52734375,0,0
-3.1492247217102E-05,9.69253505900269E-06,0.52734375,0,0
-3.12758347718045E-05,8.82383119460428E-06,0.52734375,0,0
-2.76557839242741E-05,6.49931689622463E-06,0.52734375,0,0
-2.80564800050342E-05,7.93530580267543E-06,0.52734375,0,0
-2.77744802588131E-05,9.91657907434274E-06,0.52734375,0,0
-3.00394458463416E-05,1.17706331366207E-05,0.52734375,0,0
-2.92230706691043E-05,1.06534989754437E-05,0.52734375,0,0
-2.80368076346349E-05,9.96382823359454E-06,0.52734375,0,0
-2.69749289145693E-05,9.07911362446612E-06,0.52734375,0,0
-2.87914663203992E-05,8.28870815894334E-06,0.52734375,0,0
-3.02677635772852E-05,7.39345023248461E-06,0.52734375,0,0
-3.1016406865092E-05,6.90138813297381E-06,0.52734375,0,0
-2.57454448728822E-05,5.06343576489598E-06,0.52734375,0,0
-3.65592131856829E-05,6.60859950585291E-06,0.52734375,0,0
-2.70057935267687E-05,4.97113387609716E-06,0.52734375,0,0
-3.3603220799705E-05,8.00534780864837E-06,0.52734375,0,0
-2.95316276606172E-05,7.84563417255413E-06,0.52734375,0,0
-3.44353829859756E-05,8.65971105667995E-06,0.52734375,0,0
-3.35892909788527E-05,8.03960665507475E-06,0.52734375,0,0
-3.52606439264491E-05,7.86949931352865E-06,0.52734375,0,0
-3.42443781846669E-05,8.7178550529643E-06,0.52734375,0,0
-3.55471020156983E-05,9.02655301615596E-06,0.52734375,0,0
-3.65872474503703E-05,8.08258209872292E-06,0.52734375,0,0
-3.5503959225025E-05,7.74748968979111E-06,0.52734375,0,0
-3.6905868910253E-05,9.53882954490837E-06,0.52734375,0,0
-3.63012077286839E-05,9.76991668721894E-06,0.52734375,0,0
-3.73630173271522E-05,8.19837441667914E-06,0.52734375,0,0
-3.41262712026946E-05,5.2327050070744E-06,0.52734375,0,0
-3.31312294292729E-05,4.13006637245417E-06,0.52734375,0,0
-3.02739499602467E-05,4.55399458587635E-06,0.52734375,0,0
-3.11271942337044E-05,5.26820758750546E-06,0.52734375,0,0
-3.07527370750904E-05,4.43100680058706E-06,0.52734375,0,0
-3.23911262967158E-05,2.96183338832634E-06,0.52734375,0,0
-3.13400232698768E-05,2.17293177229294E-06,0.52734375,0,0
-3.03516590065556E-05,3.07679488287249E-06,0.52734375,0,0
-2.75518905255012E-05,4.22796802013181E-06,0.52734375,0,0
-2.61259974649874E-05,5.9213157328486E-06,0.52734375,0,0
-2.56049097515643E-05,7.51622656025575E-06,0.52734375,0,0
-2.4794240744086E-05,9.20537786441855E-06,0.52734375,0,0
-1.78571081050904E-05,8.57585291669238E-06,0.52734375,0,0
-2.38840148085728E-05,1.06136494650855E-05,0.52734375,0,0
-1.63535660249181E-05,5.35711296834052E-06,0.52734375,0,0
-2.09440113394521E-05,7.31443606127868E-06,0.52734375,0,0
-1.76842531800503E-05,6.26861856289906E-06,0.52734375,0,0
-2.04323350772029E-05,8.78614628163632E-06,0.52734375,0,0
-1.74756787600927E-05,7.95496544014895E-06,0.52734375,0,0
-1.73480912053492E-05,7.53196309233317E-06,0.52734375,0,0
-1.69310533237876E-05,7.98898236098466E-06,0.52734375,0,0
-1.85610624612309E-05,8.72645068739075E-06,0.52734375,0,0
-1.9354290998308E-05,8.65675519889919E-06,0.52734375,0,0
-1.77998299477622E-05,8.69751056598034E-06,0.52734375,0,0
-1.75578079506522E-05,1.02466092357645E-05,0.52734375,0,0
-1.62604046636261E-05,1.03379397842218E-05,0.52734375,0,0
-1.70959683600813E-05,1.16701594379265E-05,0.52734375,0,0
-1.64392840815708E-05,1.28927367768483E-05,0.52734375,0,0
-1.81707546289545E-05,1.35434702315251E-05,0.52734375,0,0
-1.84983910003211E-05,1.17682329801028E-05,0.52734375,0,0
-2.08477904379833E-05,1.18824154924368E-05,0.52734375,0,0
-2.05729629669804E-05,1.25321348605212E-05,0.52734375,0,0
-2.12473041756311E-05,1.36662883960526E-05,0.52734375,0,0
-2.11213300644886E-05,1.44639479913167E-05,0.52734375,0,0
-2.21341651922558E-05,1.51528902279097E-05,0.52734375,0,0
-2.16427779378137E-05,1.45389367389726E-05,0.52734375,0,0
-2.112257607223E-05,1.43455563375028E-05,0.52734375,0,0
-1.94788553926628E-05,1.45738122228067E-05,0.52734375,0,0
-1.88228968909243E-05,1.52008760778699E-05,0.52734375,0,0
-1.60800191224553E-05,1.26583208839293E-05,0.52734375,0,0
-2.29510005738121E-05,1.87900513992645E-05,0.52734375,0,0
-1.79897651833016E-05,1.6375575796701E-05,0.52734375,0,0
-2.23629340325715E-05,1.99973255803343E-05,0.52734375,0,0
-1.94223448488628E-05,1.39068306452828E-05,0.52734375,0,0
-2.24701634579105E-05,1.16478413474397E-05,0.52734375,0,0
-2.11310343729565E-05,1.01705491033499E-05,0.52734375,0,0
-2.12653267226415E-05,1.33112671392155E-05,0.52734375,0,0
-1.95176144188736E-05,1.45422400237294E-05,0.52734375,0,0
-2.01709226530511E-05,1.51814047057997E-05,0.52734375,0,0
-2.19248940993566E-05,1.56735331984237E-05,0.52734375,0,0
-2.18439672607929E-05,1.58860566443764E-05,0.52734375,0,0
-2.17677225009538E-05,1.58262646436924E-05,0.52734375,0,0
-2.0213035895722E-05,1.29750042106025E-05,0.52734375,0,0
-2.20181755139492E-05,1.19934420581558E-05,0.52734375,0,0
-2.35189963859739E-05,1.1291846021777E-05,0.52734375,0,0
-2.67824925686E-05,1.23555628306349E-05,0.52734375,0,0
-2.70364289463032E-05,1.1720355360012E-05,0.52734375,0,0
-2.76734026556369E-05,1.28687115648063E-05,0.52734375,0,0
-2.63732854364207E-05,1.34753026941326E-05,0.52734375,0,0
-2.56817729678005E-05,1.44566383823985E-05,0.52734375,0,0
-2.3430207875208E-05,1.32142831716919E-05,0.52734375,0,0
-2.26357533392729E-05,1.19575233838987E-05,0.52734375,0,0
-2.25497515202733E-05,1.03355714600184E-05,0.52734375,0,0
-2.36258510994958E-05,8.74515808391152E-06,0.52734375,0,0
-2.29633660637774E-05,6.30033400739194E-06,0.52734375,0,0
-2.07474058697699E-05,4.47070169684594E-06,0.52734375,0,0
-1.56732439791085E-05,3.02515900330036E-06,0.52734375,0,0
-2.15799682337092E-05,5.41218832950108E-06,0.52734375,0,0
-1.46316679092706E-05,6.50806077828747E-06,0.52734375,0,0
-1.70571274793474E-05,8.47594765218673E-06,0.52734375,0,0
-1.30610405904008E-05,8.10069104772992E-06,0.52734375,0,0
-1.47589153129957E-05,8.99378937901929E-06,0.52734375,0,0
-1.32490713440347E-05,9.89981617749436E-06,0.52734375,0,0
-1.5831590644666E-05,9.35597290663281E-06,0.52734375,0,0
-1.62426313181641E-05,7.57720317778876E-06,0.52734375,0,0
-1.51555277625448E-05,6.47522301733261E-06,0.52734375,0,0
-1.39252260851208E-05,5.89671617490239E-06,0.52734375,0,0
-1.24504394989344E-05,5.31523937752354E-06,0.52734375,0,0
-1.2719238839054E-05,5.03857154399157E-06,0.52734375,0,0
-1.18378138722619E-05,4.56273482996039E-06,0.52734375,0,0
-1.33438688862952E-05,5.58659439775511E-06,0.52734375,0,0
-1.43086672323989E-05,8.13745737104909E-06,0.52734375,0,0
-1.7423632016289E-05,1.05614935819176E-05,0.52734375,0,0
-1.81717732630204E-05,1.04356449810439E-05,0.52734375,0,0
-1.88122285180725E-05,9.83054269454442E-06,0.52734375,0,0
-1.73799999174662E-05,1.13256164695485E-05,0.52734375,0,0
-1.76468511199346E-05,1.47063037729822E-05,0.52734375,0,0
-1.76034791365964E-05,1.6678972315276E-05,0.52734375,0,0
-1.92205588973593E-05,1.73100524989422E-05,0.52734375,0,0
-2.02847622858826E-05,1.77108831849182E-05,0.52734375,0,0
-2.16394419112476E-05,1.85238386620767E-05,0.52734375,0,0
-2.21403588511748E-05,2.02975588763366E-05,0.52734375,0,0
-2.18362092709867E-05,2.28478365897899E-05,0.52734375,0,0
-1.770422932168E-05,1.9423738194746E-05,0.52734375,0,0
-2.5546509277774E-05,2.77184390142793E-05,0.52734375,0,0
-2.10164344025543E-05,2.01600014406722E-05,0.52734375,0,0
-2.74114991043461E-05,2.21814789256314E-05,0.52734375,0,0
-2.42259902734077E-05,1.4602688679588E-05,0.52734375,0,0
-2.6816456738743E-05,1.55289544636616E-05,0.52734375,0,0
-2.55210106843151E-05,1.12658581201686E-05,0.52734375,0,0
-2.67385130428011E-05,1.08845679278602E-05,0.52734375,0,0
-2.63131478277501E-05,9.52641312323976E-06,0.52734375,0,0
-2.71020089712692E-05,7.29844850866357E-06,0.52734375,0,0
-2.86388694803463E-05,2.90602088170999E-06,0.52734375,0,0
-2.9197335607023E-05,-1.79809546807519E-06,0.52734375,0,0
-3.01594827760709E-05,-3.22801383845217E-06,0.52734375,0,0
-2.82023065665271E-05,-4.93118295707973E-06,0.52734375,0,0
-2.80653912341222E-05,-3.03843148685701E-06,0.52734375,0,0
-2.74776339210803E-05,-2.9262241696415E-06,0.52734375,0,0
-3.01128020510077E-05,-1.3418025446299E-07,0.52734375,0,0
-3.12262855004519E-05,1.19289086342178E-06,0.52734375,0,0
-3.33943389705382E-05,4.22653238274506E-06,0.52734375,0,0
-3.21395527862478E-05,5.41744248039322E-06,0.52734375,0,0
-3.1793588277651E-05,7.44099907024065E-06,0.52734375,0,0
-3.22576634061988E-05,6.5875369728019E-06,0.52734375,0,0
-3.3833559427876E-05,6.33249328529928E-06,0.52734375,0,0
-3.32457129843533E-05,4.62109892396256E-06,0.52734375,0,0
-3.2753716368461E-05,3.75576928490773E-06,0.52734375,0,0
-3.30330367432907E-05,5.107046035846E-06,0.52734375,0,0
-3.290952736279E-05,7.92170521890512E-06,0.52734375,0,0
-2.46321960730711E-05,7.93320759839844E-06,0.52734375,0,0
-3.3459498808952E-05,1.1581674698391E-05,0.52734375,0,0
-2.40137414948549E-05,9.41599773796042E-06,0.52734375,0,0
-3.01477684843121E-05,1.02251560747391E-05,0.52734375,0,0
-2.33277714869473E-05,7.37128630134976E-06,0.52734375,0,0
-2.61418608715758E-05,9.16075623536017E-06,0.52734375,0,0
-2.32787351706065E-05,8.74225861480227E-06,0.52734375,0,0
-2.49371278187027E-05,7.96451058704406E-06,0.52734375,0,0
-2.4211311028921E-05,5.58912142878398E-06,0.52734375,0,0
-2.39817873080028E-05,4.02642990593449E-06,0.52734375,0,0
-2.29917422984727E-05,5.13918166689109E-06,0.52734375,0,0
-1.97831523109926E-05,7.76411798142362E-06,0.52734375,0,0
-1.75352161022602E-05,1.16459659693646E-05,0.52734375,0,0
-1.45648182297009E-05,1.49429351949948E-05,0.52734375,0,0
-1.70857820194215E-05,1.86257111636223E-05,0.52734375,0,0
-1.70038056239719E-05,1.9315932149766E-05,0.52734375,0,0
-1.84382697625551E-05,2.01108759938506E-05,0.52734375,0,0
-1.6565896657994E-05,2.07159919227706E-05,0.52734375,0,0
-1.74477208929602E-05,2.27201708185021E-05,0.52734375,0,0
-1.61276075232308E-05,2.40016834140988E-05,0.52734375,0,0
-1.74576325662201E-05,2.38840075326152E-05,0.52734375,0,0
-1.85197459359188E-05,2.16379557969049E-05,0.52734375,0,0
-2.12389222724596E-05,1.83113443199545E-05,0.52734375,0,0
-2.17367996810935E-05,1.36635817398201E-05,0.52734375,0,0
-2.3838318156777E-05,1.08494459709618E-05,0.52734375,0,0
-2.58461568591883E-05,1.13042788143503E-05,0.52734375,0,0
-2.5356612241012E-05,1.17801064334344E-05,0.52734375,0,0
-1.73103835550137E-05,7.49675336919609E-06,0.52734375,0,0
-2.27183518290985E-05,9.58475447987439E-06,0.52734375,0,0
-1.51874992297962E-05,6.5895128500415E-06,0.52734375,0,0
-2.00071335711982E-05,9.13877738639712E-06,0.52734375,0,0
-1.61854313773802E-05,7.74071031628409E-06,0.52734375,0,0
-1.84585060196696E-05,1.16637756946147E-05,0.52734375,0,0
-1.64690718520433E-05,1.4627583368565E-05,0.52734375,0,0
-1.75052864506142E-05,1.5245474060066E-05,0.52734375,0,0
-1.66058271133807E-05,1.25185151773621E-05,0.52734375,0,0
-1.65261135407491E-05,9.96618564386154E-06,0.52734375,0,0
-1.7566637325217E-05,8.4241701188148E-06,0.52734375,0,0
-1.73659318534192E-05,8.07980723038781E-06,0.52734375,0,0
-1.81959294422995E-05,7.60196280680248E-06,0.52734375,0,0
-1.80598908627871E-05,4.28114117312361E-06,0.52734375,0,0
-2.02348346647341E-05,2.60494266512978E-06,0.52734375,0,0
-2.02187457034597E-05,3.13371128868312E-06,0.52734375,0,0
-2.15492509596515E-05,6.00048588239588E-06,0.52734375,0,0
-2.10699963645311E-05,7.79974652687088E-06,0.52734375,0,0
-2.38447028095834E-05,1.06225625131628E-05,0.52734375,0,0
-2.60067608905956E-05,1.23563158922479E-05,0.52734375,0,0
-2.84824709524401E-05,1.31525366668939E-05,0.52734375,0,0
-2.87162310996791E-05,1.24107709780219E-05,0.52734375,0,0
-2.88842147710966E-05,1.09868642539368E-05,0.52734375,0,0
-2.75354377663461E-05,7.89733257988701E-06,0.52734375,0,0
-2.86602444248274E-05,5.03143246533E-06,0.52734375,0,0
-3.05904613924213E-05,4.06479921366554E-06,0.52734375,0,0
-3.01869677059585E-05,5.32181138623855E-06,0.52734375,0,0
-2.3546988813905E-05,5.04597210237989E-06,0.52734375,0,0
-3.40112819685601E-05,8.07319793239003E-06,0.52734375,0,0
-2.71573753707344E-05,9.20379807212157E-06,0.52734375,0,0
-3.44158579537179E-05,1.15409666250343E-05,0.52734375,0,0
-3.00237406918313E-05,8.60693580762018E-06,0.52734375,0,0
-3.39259531756397E-05,9.24066807783674E-06,0.52734375,0,0
-3.30292350554373E-05,9.57650991040282E-06,0.52734375,0,0
-3.56944183295127E-05,9.35992102313321E-06,0.52734375,0,0
-3.46339074894786E-05,8.54470181366196E-06,0.52734375,0,0
-3.40198203048203E-05,8.45709200802958E-06,0.52734375,0,0
-3.43729298037943E-05,8.29282816994237E-06,0.52734375,0,0
-3.3399246603949E-05,7.27912038200884E-06,0.52734375,0,0
-3.26436238538008E-05,6.70559575155494E-06,0.52734375,0,0
-2.86724571196828E-05,6.6378111114318E-06,0.52734375,0,0
-2.76681221293984E-05,8.27189160190756E-06,0.52734375,0,0
-2.62212670349982E-05,8.71839620231185E-06,3.8671875,0,0
-2.89624786091736E-05,8.95404173206771E-06,3.8671875,0,0
-2.79752930509858E-05,9.70273686107248E-06,3.8671875,0,0
-2.69490919890814E-05,1.18502875920967E-05,3.8671875,0,0
-2.39720757235773E-05,1.31911483549629E-05,3.8671875,0,0
-2.46498657361371E-05,1.49252418850665E-05,3.8671875,0,0
-2.38427855947521E-05,1.6082258298411E-05,3.8671875,0,0
-2.33612536248984E-05,1.60150029842043E-05,3.8671875,0,0
-2.33581085922197E-05,1.55771067511523E-05,3.8671875,0,0
-2.69377032964258E-05,1.69261529663345E-05,3.8671875,0,0
-2.97033639071742E-05,1.85372846317478E-05,3.8671875,0,0
-2.89286363113206E-05,1.86957277037436E-05,3.8671875,0,0
-2.22053076868178E-05,1.59142600750783E-05,3.8671875,0,0
-3.03452579828445E-05,2.3312313714996E-05,3.8671875,0,0
-2.29703382501611E-05,1.90844493772602E-05,3.8671875,0,0
-3.09615825244691E-05,2.4166145522031E-05,3.8671875,0,0
-2.70568252744852E-05,2.05769392778166E-05,3.8671875,0,0
-3.01669570035301E-05,2.19556368392659E-05,3.8671875,0,0
-2.81191278190818E-05,1.98722191271372E-05,3.8671875,0,0
-3.06524016195908E-05,2.0519582903944E-05,3.8671875,0,0
-3.09002425638027E-05,1.99391361093149E-05,3.8671875,0,0
-3.05558496620506E-05,1.96259297808865E-05,3.8671875,0,0
-2.86807498923736E-05,2.02603878278751E-05,3.8671875,0,0
-2.53643793257652E-05,2.04666393983644E-05,3.8671875,0,0
-2.61914774455363E-05,1.97864756046329E-05,3.8671875,0,0
-2.62931334873429E-05,1.704900751065E-05,3.8671875,0,0
-2.81283391814213E-05,1.8030654246104E-05,3.8671875,0,0
-2.66386796283768E-05,1.87762052519247E-05,3.8671875,0,0
-2.77752042165957E-05,2.14685860555619E-05,3.8671875,0,0
-2.6389527192805E-05,2.21855298150331E-05,3.8671875,0,0
-2.79363521258347E-05,2.25347157538636E-05,3.8671875,0,0
-2.85015430563362E-05,1.99447313207202E-05,3.8671875,0,0
-3.0295055694296E-05,1.83161828317679E-05,3.8671875,0,0
-2.96086454909528E-05,1.48613999044755E-05,3.8671875,0,0
-3.06706970150117E-05,1.23009112940053E-05,3.8671875,0,0
-3.15343313559424E-05,1.11103227027343E-05,3.8671875,0,0
-3.19558930641506E-05,1.15367383841658E-05,3.8671875,0,0
-3.13775926770177E-05,1.18112584459595E-05,3.8671875,0,0
-3.07504269585479E-05,1.19670303320163E-05,3.8671875,0,0
-2.46503186644986E-05,8.32665773486951E-06,3.8671875,0,0
-3.55451302311849E-05,1.02056155810715E-05,3.8671875,0,0
-2.84778870991431E-05,7.73834563005948E-06,3.8671875,0,0
-3.65455271094106E-05,1.23492409329629E-05,3.8671875,0,0
-3.18339225486852E-05,1.10455803223886E-05,3.8671875,0,0
-3.33364368998446E-05,1.33772109620622E-05,3.8671875,0,0
-2.86559206870152E-05,1.30104835989187E-05,3.8671875,0,0
-2.92443801299669E-05,1.27604353110655E-05,3.8671875,0,0
-2.84325105894823E-05,1.10427436084137E-05,3.8671875,0,0
-2.89929012069479E-05,9.54549068410415E-06,3.8671875,0,0
-3.00346546282526E-05,9.31002705328865E-06,3.8671875,0,0
-2.91035757982172E-05,8.92994739842834E-06,3.8671875,0,0
-2.86809663521126E-05,8.71777319844114E-06,3.8671875,0,0
-2.62555713561596E-05,6.30250588073977E-06,3.8671875,0,0
-2.80091117019765E-05,4.83232315673376E-06,3.8671875,0,0
-2.77205344900722E-05,3.89942761103157E-06,3.8671875,0,0
-2.88163337245351E-05,6.36236609352636E-06,3.8671875,0,0
-2.67925897787791E-05,8.23051050247159E-06,3.8671875,0,0
-2.79668984148884E-05,9.01608382264385E-06,3.8671875,0,0
-2.67700179392705E-05,7.06196351529798E-06,3.8671875,0,0
-2.60959950537654E-05,5.25065206602449E-06,3.8671875,0,0
-2.39689197769621E-05,3.90841341868509E-06,3.8671875,0,0
-2.4171360564651E-05,3.1223792120727E-06,3.8671875,0,0
-2.31038702622755E-05,1.44219575304305E-06,3.8671875,0,0
-2.24762388825184E-05,4.62441931858848E-07,3.8671875,0,0
-2.19792727875756E-05,7.81001290306449E-07,3.8671875,0,0
-2.25364365178393E-05,1.75589480022609E-06,3.8671875,0,0
-1.86794459295925E-05,1.24888379104959E-06,3.8671875,0,0
-2.71425178652862E-05,1.32494744775613E-06,3.8671875,0,0
-2.08060700970236E-05,2.69067470526352E-07,3.8671875,0,0
-2.39740838878788E-05,-1.39234930429666E-06,3.8671875,0,0
-1.92279658222105E-05,-4.1579137359804E-06,3.8671875,0,0
-2.2424026610679E-05,-4.28199109592242E-06,3.8671875,0,0
-2.06979293579934E-05,-3.53538598574232E-06,3.8671875,0,0
-1.94208278117003E-05,-1.93275036508567E-06,3.8671875,0,0
-1.5697081835242E-05,2.78504728612461E-07,3.8671875,0,0
-1.37491133500589E-05,1.3763667539024E-06,3.8671875,0,0
-1.31367332869559E-05,1.69344195910526E-06,3.8671875,0,0
-1.15042694233125E-05,3.21054653795727E-06,3.8671875,0,0
-1.06567595139495E-05,6.95853623255971E-06,3.8671875,0,0
-8.34063575894106E-06,1.14997546916129E-05,3.8671875,0,0
-9.25159838516265E-06,1.48538829307654E-05,3.8671875,0,0
-9.45967622101307E-06,1.48304861795623E-05,3.8671875,0,0
-1.09292304841802E-05,1.23292456919444E-05,3.8671875,0,0
-9.40847348829266E-06,1.0121595551027E-05,3.8671875,0,0
-1.02667308965465E-05,1.0895711966441E-05,3.8671875,0,0
-1.06852276076097E-05,1.33797266244073E-05,3.8671875,0,0
-1.28652372950455E-05,1.43688266689423E-05,3.8671875,0,0
-1.37983815875486E-05,1.33256044136942E-05,3.8671875,0,0
-1.46275106089888E-05,1.32323475554585E-05,3.8671875,0,0
-1.40686215672758E-05,1.46052825584775E-05,3.8671875,0,0
-1.50817377289059E-05,1.66898425959516E-05,3.8671875,0,0
-1.67420021170983E-05,1.8149783500121E-05,3.8671875,0,0
-1.73792541318107E-05,1.67728467204142E-05,3.8671875,0,0
-1.37766010084306E-05,1.01810255728196E-05,3.8671875,0,0
-2.03089803108014E-05,1.29678292069002E-05,3.8671875,0,0
-1.83433839993086E-05,9.37060303840553E-06,3.8671875,0,0
-2.43923877860652E-05,1.27044922919595E-05,3.8671875,0,0
-2.19166722672526E-05,9.30043825064786E-06,3.8671875,0,0
-2.31023714150069E-05,1.01297100627562E-05,3.8671875,0,0
-2.20446527237073E-05,7.51587822378497E-06,3.8671875,0,0
-2.36014693655306E-05,8.12620783108287E-06,3.8671875,0,0
-2.30750720220385E-05,8.45049089548411E-06,3.8671875,0,0
-2.32318270718679E-05,9.63689217314823E-06,3.8671875,0,0
-2.34067738347221E-05,1.11537392513128E-05,3.8671875,0,0
-2.20090078073554E-05,1.21459406727809E-05,3.8671875,0,0
-2.16241733141942E-05,1.23324007290648E-05,3.8671875,0,0
-2.20945130422479E-05,1.10124865386751E-05,3.8671875,0,0
-2.50748980761273E-05,1.27259836517624E-05,3.8671875,0,0
-2.49586464633467E-05,1.47516084325616E-05,3.8671875,0,0
-2.34440994972829E-05,1.79879207280464E-05,3.8671875,0,0
-1.93350024346728E-05,1.8365873984294E-05,3.8671875,0,0
-1.92404731933493E-05,1.91696417459752E-05,3.8671875,0,0
-2.02490537049016E-05,1.80913557414897E-05,3.8671875,0,0
-2.16480002563912E-05,1.52523452925379E-05,3.8671875,0,0
-2.05147553060669E-05,9.78005937213311E-06,3.8671875,0,0
-2.07258126465604E-05,6.77435764373513E-06,3.8671875,0,0
-2.25086096179439E-05,4.57392889074981E-06,3.8671875,0,0
-2.53221442108043E-05,4.08816777053289E-06,3.8671875,0,0
-2.65807957475772E-05,4.94040978082921E-06,3.8671875,0,0
-2.60010656347731E-05,5.23878134117695E-06,3.8671875,0,0
-2.05526939680567E-05,4.79211530546309E-06,3.8671875,0,0
-2.89623349090107E-05,7.66572156862821E-06,3.8671875,0,0
-2.08731835300568E-05,7.03234536558739E-06,3.8671875,0,0
-2.49433142016642E-05,7.3506630542397E-06,3.8671875,0,0
-2.01530310732778E-05,5.01463864566176E-06,3.8671875,0,0
-2.29552842938574E-05,6.23477535555139E-06,3.8671875,0,0
-2.10371235880302E-05,6.45555974188028E-06,3.8671875,0,0
-2.2680644178763E-05,5.09791107106139E-06,3.8671875,0,0
-2.17720480577555E-05,4.13792213294073E-06,3.8671875,0,0
-2.04570351343136E-05,5.1836605052813E-06,3.8671875,0,0
-1.88938865903765E-05,7.55656765250023E-06,3.8671875,0,0
-1.73976095538819E-05,9.04157604963984E-06,3.8671875,0,0
-1.9112778318231E-05,9.1650290414691E-06,3.8671875,0,0
-2.0301707991166E-05,7.8263847171911E-06,3.8671875,0,0
-2.32231286645401E-05,8.19780507299583E-06,3.8671875,0,0
-2.18968361878069E-05,9.36062861001119E-06,3.8671875,0,0
-2.17412653000792E-05,1.12513071144349E-05,3.8671875,0,0
-2.01828097488033E-05,1.24233883980196E-05,3.8671875,0,0
-2.16952666960424E-05,1.28356496134074E-05,3.8671875,0,0
-2.15768468478927E-05,1.22275387184345E-05,3.8671875,0,0
-2.33236678468529E-05,1.23411509775906E-05,3.8671875,0,0
-2.32384045375511E-05,1.25465167002403E-05,3.8671875,0,0
-2.34238887060201E-05,1.24136868180358E-05,3.8671875,0,0
-2.23235601879423E-05,1.12767820610316E-05,3.8671875,0,0
-2.04000461963005E-05,1.03962220237008E-05,3.8671875,0,0
-1.77609981619753E-05,1.17826066343696E-05,3.8671875,0,0
-1.70234798133606E-05,1.36549106173334E-05,3.8671875,0,0
-1.52757565956563E-05,1.12844954855973E-05,3.8671875,0,0
-2.20390520553337E-05,1.46304100780981E-05,3.8671875,0,0
-1.66153658938129E-05,7.59674730943516E-06,3.8671875,0,0
-2.0104494979023E-05,8.00849920779001E-06,3.8671875,0,0
-1.7149259292637E-05,4.18451463701786E-06,3.8671875,0,0
-1.9006905858987E-05,4.85271175421076E-06,3.8671875,0,0
-1.81198302016128E-05,3.98918245991808E-06,3.8671875,0,0
-1.9015005818801E-05,6.4543919506832E-06,3.8671875,0,0
-1.79131784534547E-05,7.97921529738232E-06,3.8671875,0,0
-1.83817264769459E-05,9.47416810959112E-06,3.8671875,0,0
-1.97068529814715E-05,1.00285869848449E-05,3.8671875,0,0
-1.95268821698846E-05,9.12943323783111E-06,3.8671875,0,0
-1.99080695892917E-05,8.446127139905E-06,3.8671875,0,0
-1.95806605916005E-05,7.33371598471422E-06,3.8671875,0,0
-2.20218153117457E-05,8.62215802044375E-06,3.8671875,0,0
-2.34390718105715E-05,9.97313054540427E-06,3.8671875,0,0
-2.60336582869058E-05,1.29252739498043E-05,3.8671875,0,0
-2.70889249804895E-05,1.38117275128025E-05,3.8671875,0,0
-3.01189902529586E-05,1.55272682604846E-05,3.8671875,0,0
-3.13005657517351E-05,1.52719585457817E-05,3.8671875,0,0
-3.28327078022994E-05,1.48678682307946E-05,3.8671875,0,0
-3.33616881107446E-05,1.3674020920007E-05,3.8671875,0,0
-3.39491853083018E-05,1.44772875501076E-05,11.953125,0,0
-3.30916336679365E-05,1.57801478053443E-05,11.953125,0,0
-3.3374333725078E-05,1.59916380653158E-05,11.953125,0,0
-3.36817356583197E-05,1.5180385162239E-05,11.953125,0,0
-3.25604487443343E-05,1.54729877976933E-05,11.953125,0,0
-2.47579937422415E-05,1.26572322187712E-05,11.953125,0,0
-3.45837725035381E-05,1.74750912265154E-05,11.953125,0,0
-2.53608486673329E-05,1.26960958368727E-05,11.953125,0,0
-3.16868354275357E-05,1.56141668412602E-05,11.953125,0,0
-2.62716894212645E-05,1.20413724289392E-05,11.953125,0,0
-3.08992493955884E-05,1.45654184962041E-05,11.953125,0,0
-2.98558352369582E-05,1.41121890919749E-05,11.953125,0,0
-3.1478084565606E-05,1.39909179779352E-05,11.953125,0,0
-3.05754947476089E-05,1.16032215373707E-05,11.953125,0,0
-3.09296374325641E-05,8.95433549885638E-06,11.953125,0,0
-3.06433757941704E-05,7.25982727090013E-06,11.953125,0,0
-2.90666139335372E-05,6.84216092849965E-06,11.953125,0,0
-2.995842078235E-05,8.37121933727758E-06,11.953125,0,0
-2.82256442005746E-05,7.16509339326876E-06,11.953125,0,0
-2.83038461930119E-05,6.79115555612952E-06,11.953125,0,0
-2.57251776929479E-05,6.03466423854115E-06,11.953125,0,0
-2.62409321294399E-05,8.31406305223936E-06,11.953125,0,0
-2.43244267039699E-05,1.12526568045723E-05,11.953125,0,0
-2.58640902757179E-05,1.44795531014097E-05,11.953125,0,0
-2.69306510745082E-05,1.29188319988316E-05,11.953125,0,0
-2.96163598250132E-05,9.59894532570615E-06,11.953125,0,0
-2.84867637674324E-05,5.18080923939124E-06,11.953125,0,0
-2.83974422927713E-05,4.24340987592586E-06,11.953125,0,0
-2.83509598375531E-05,4.59380498796236E-06,11.953125,0,0
-2.82108048850205E-05,4.19848583987914E-06,11.953125,0,0
-2.69225074589485E-05,4.80952803627588E-06,11.953125,0,0
-2.58569070865633E-05,6.67692984279711E-06,11.953125,0,0
-2.0178864360787E-05,5.73469060327625E-06,11.953125,0,0
-2.90059906546958E-05,7.98063138063299E-06,11.953125,0,0
-2.09102563530905E-05,7.78963203629246E-06,11.953125,0,0
-2.21715836232761E-05,1.15243728942005E-05,11.953125,0,0
-1.52572720253374E-05,1.11447170638712E-05,11.953125,0,0
-1.76106368598994E-05,1.34735855681356E-05,11.953125,0,0
-1.71875562955393E-05,1.34479159896728E-05,11.953125,0,0
-2.09004210773855E-05,1.29436730276211E-05,11.953125,0,0
-2.28424032684416E-05,1.1306819942547E-05,11.953125,0,0
-2.54777060035849E-05,9.37240292842034E-06,11.953125,0,0
-2.65185772150289E-05,8.7153457570821E-06,11.953125,0,0
-2.46462150244042E-05,9.350424988952E-06,11.953125,0,0
-2.40063745877706E-05,1.00902807389502E-05,11.953125,0,0
-2.27599193749484E-05,9.04546322999522E-06,11.953125,0,0
-2.41387988353381E-05,8.58018938743044E-06,11.953125,0,0
-2.30230671149911E-05,7.97644588601543E-06,11.953125,0,0
-2.45141491177492E-05,9.24042615224607E-06,11.953125,0,0
-2.45476694544777E-05,1.00901615951443E-05,11.953125,0,0
-2.654763738974E-05,1.03873753687367E-05,11.953125,0,0
-2.59319804172264E-05,9.44476869335631E-06,11.953125,0,0
-2.56545736192493E-05,8.68652568897232E-06,11.953125,0,0
-2.33011887758039E-05,6.96604774930165E-06,11.953125,0,0
-2.25848307309207E-05,5.77833407078288E-06,11.953125,0,0
-2.22423859668197E-05,6.40920188743621E-06,11.953125,0,0
-2.21774807869224E-05,9.28466488403501E-06,11.953125,0,0
-2.18954119191039E-05,1.14595168270171E-05,11.953125,0,0
-2.23149436351378E-05,1.27048233480309E-05,11.953125,0,0
-1.7443217075197E-05,1.15622206067201E-05,11.953125,0,0
-2.34386588999769E-05,1.77745805558516E-05,11.953125,0,0
-1.72388336068252E-05,1.59529008669779E-05,11.953125,0,0
-2.3455864720745E-05,1.98625912162242E-05,11.953125,0,0
-2.08617784664966E-05,1.69429476954974E-05,11.953125,0,0
-2.42502628680086E-05,1.68929636856774E-05,11.953125,0,0
-2.32778220379259E-05,1.38797840918414E-05,11.953125,0,0
-2.47879415837815E-05,1.3055700037512E-05,11.953125,0,0
-2.30083951464621E-05,1.26835739138187E-05,11.953125,0,0
-2.09058034670306E-05,1.53199089254485E-05,11.953125,0,0
-2.01749280677177E-05,1.82748080987949E-05,11.953125,0,0
-1.91603849089006E-05,1.7630765796639E-05,11.953125,0,0
-1.88394442375284E-05,1.50828227560851E-05,11.953125,0,0
-1.74702690856066E-05,1.15188586278236E-05,11.953125,0,0
-1.93398464034544E-05,1.08929407360847E-05,11.953125,0,0
-2.05275700864149E-05,1.10332603071583E-05,11.953125,0,0
-2.41816869674949E-05,1.22219835247961E-05,11.953125,0,0
-2.43320155277615E-05,1.15279626697884E-05,11.953125,0,0
-2.39997934841085E-05,1.16841019917047E-05,11.953125,0,0
-2.2810938389739E-05,1.06279758256278E-05,11.953125,0,0
-2.51041747105774E-05,1.07774612843059E-05,11.953125,0,0
-2.57587889791466E-05,1.07717614810099E-05,11.953125,0,0
-2.51778365054633E-05,1.2672026969085E-05,11.953125,0,0
-2.32220718316967E-05,1.35823802338564E-05,11.953125,0,0
-2.34307462960714E-05,1.28835135910776E-05,11.953125,0,0
-2.3867292838986E-05,1.2185918421892E-05,11.953125,0,0
-2.54024616879178E-05,1.19871110655367E-05,11.953125,0,0
-2.20606925722677E-05,9.67757841863204E-06,11.953125,0,0
-3.08175876853056E-05,1.29378886413178E-05,11.953125,0,0
-2.2756767066312E-05,8.07480500952806E-06,11.953125,0,0
-2.92970653390512E-05,9.1417432486196E-06,11.953125,0,0
-2.5817649657256E-05,6.69700239086524E-06,11.953125,0,0
-2.92028344119899E-05,8.96139590622624E-06,11.953125,0,0
-2.70957225438906E-05,9.48186971072573E-06,11.953125,0,0
-2.79220002994407E-05,1.14925142042921E-05,11.953125,0,0
-2.49542918027146E-05,1.1808783710876E-05,11.953125,0,0
-2.25574331125245E-05,1.06723591670743E-05,11.953125,0,0
-2.12396007555071E-05,9.53935159486718E-06,11.953125,0,0
-1.88694193639094E-05,9.5624964160379E-06,11.953125,0,0
-1.97507433767896E-05,1.07646146716434E-05,11.953125,0,0
-2.10452708415687E-05,1.02313761090045E-05,11.953125,0,0
-2.50243447226239E-05,1.00546749308705E-05,11.953125,0,0
-2.51806231972296E-05,8.74320994626032E-06,11.953125,0,0
-2.63775655184872E-05,8.10523852123879E-06,11.953125,0,0
-2.43796403083252E-05,7.10920949131832E-06,11.953125,0,0
-2.42088972299825E-05,8.61001899465919E-06,11.953125,0,0
-2.25282146857353E-05,1.00302077044034E-05,11.953125,0,0
-2.27603250095854E-05,1.09485581560875E-05,11.953125,0,0
-2.19122302951291E-05,9.52696518652374E-06,11.953125,0,0
-2.22423113882542E-05,8.20607056084555E-06,11.953125,0,0
-2.14768315345282E-05,5.81004860578105E-06,11.953125,0,0
-2.1785663193441E-05,6.39725067230756E-06,11.953125,0,0
-2.19325684156502E-05,9.45015744946431E-06,11.953125,0,0
-2.24275772779947E-05,1.14309414129821E-05,11.953125,0,0
-1.92242732737213E-05,1.02160893220571E-05,11.953125,0,0
-2.7520174626261E-05,1.26652466860833E-05,11.953125,0,0
-2.14594620047137E-05,7.0067549131636E-06,11.953125,0,0
-2.65338094322942E-05,1.09223419713089E-05,11.953125,0,0
-2.31712838285603E-05,1.17732415674254E-05,11.953125,0,0
-2.71186399913859E-05,1.49815086842864E-05,11.953125,0,0
-2.67333180090645E-05,1.53541132021928E-05,11.953125,0,0
-2.942582614196E-05,1.83336396730738E-05,11.953125,0,0
-3.07878144667484E-05,1.99038659047801E-05,11.953125,0,0
-3.2899777579587E-05,2.09135305340169E-05,11.953125,0,0
-3.3644333598204E-05,2.00740396394394E-05,11.953125,0,0
-3.27559173456393E-05,1.64313769346336E-05,11.953125,0,0
-3.37079654855188E-05,1.30849002744071E-05,11.953125,0,0
-3.27136222040281E-05,1.03462234619656E-05,11.953125,0,0
-3.34445612679701E-05,1.10677874545217E-05,11.953125,0,0
-3.11515941575635E-05,1.13068590508192E-05,11.953125,0,0
-3.03936121781589E-05,1.10044466055115E-05,11.953125,0,0
-2.84654615825275E-05,7.77105469751405E-06,11.953125,0,0
-3.00023621093715E-05,6.68891607347177E-06,11.953125,0,0
-3.01551372103859E-05,6.46429498374346E-06,11.953125,0,0
-3.09994829876814E-05,7.25799100109725E-06,11.953125,0,0
-2.89319577859715E-05,6.19006004853873E-06,11.953125,0,0
-2.66665028902935E-05,3.9940146052686E-06,11.953125,0,0
-2.47546795435483E-05,5.91302068642108E-07,11.953125,0,0
-2.38774500758154E-05,-1.37942561195814E-06,11.953125,0,0
-2.33500941249076E-05,-1.57626323016302E-06,11.953125,0,0
-2.31264002650278E-05,-1.18375498914247E-06,11.953125,0,0
-1.81263585545821E-05,-9.17538841349597E-07,11.953125,0,0
-2.49293261731509E-05,-6.00271789608087E-07,11.953125,0,0
-1.69713694049278E-05,3.18311299452034E-06,11.953125,0,0
-1.95350821741158E-05,5.80973937758245E-06,11.953125,0,0
-1.37459273901186E-05,7.67502024245914E-06,11.953125,0,0
-1.62077649292769E-05,9.92676359601319E-06,11.953125,0,0
-1.77404290298E-05,1.21573175420053E-05,11.953125,0,0
-2.18104505620431E-05,1.40333077069954E-05,11.953125,0,0
-2.08384226425551E-05,1.5596622688463E-05,11.953125,0,0
-1.94660060515162E-05,1.63356944540283E-05,11.953125,0,0
-1.93547730304999E-05,1.60713807417778E-05,11.953125,0,0
-1.91350554814562E-05,1.64477387443185E-05,11.953125,0,0
-2.05145352083491E-05,1.65020210260991E-05,11.953125,0,0
-2.08096989808837E-05,1.62220421771053E-05,11.953125,0,0
-2.25059411604889E-05,1.79974758793833E-05,11.953125,0,0
-2.07956163649214E-05,2.02378978428897E-05,11.953125,0,0
-2.11654332815669E-05,1.9363427782082E-05,11.953125,0,0
-2.13394814636558E-05,1.55570414790418E-05,11.953125,0,0
-2.37993262999225E-05,1.28929004858946E-05,11.953125,0,0
-2.39772707573138E-05,1.39204157676431E-05,11.953125,0,0
-2.52698337135371E-05,1.67293637787225E-05,11.953125,0,0
-2.4495766410837E-05,1.77860802068608E-05,11.953125,0,0
-2.36260584642878E-05,1.69050999829778E-05,11.953125,0,0
-2.28802164201625E-05,1.59475275722798E-05,11.953125,0,0
-2.39092296396848E-05,1.54669487528736E-05,11.953125,0,0
-2.42577152675949E-05,1.4075058970775E-05,11.953125,0,0
-2.40624704019865E-05,1.23246218208806E-05,11.953125,0,0
-1.89350794244092E-05,8.55054440762615E-06,23.37890625,0,0
-2.71517037617741E-05,1.15619968710234E-05,23.37890625,0,0
-2.22838280024007E-05,9.44785006140592E-06,23.37890625,0,0
-2.8977368856431E-05,1.32711666083196E-05,23.37890625,0,0
-2.44862967520021E-05,1.06861498352373E-05,23.37890625,0,0
-2.54564620263409E-05,1.06547613540897E-05,23.37890625,0,0
-2.29366414714605E-05,9.19212016015081E-06,23.37890625,0,0
-2.46108720602933E-05,1.06489806057652E-05,23.37890625,0,0
-2.47803181991912E-05,1.13289888759027E-05,23.37890625,0,0
-2.50222528848099E-05,1.21315242722631E-05,23.37890625,0,0
-2.4976443455671E-05,1.1474350685603E-05,23.37890625,0,0
-2.43864615185885E-05,9.4054166766E-06,23.37890625,0,0
-2.62206322076963E-05,7.78753383201547E-06,23.37890625,0,0
-2.66128045041114E-05,5.49288461115793E-06,23.37890625,0,0
-2.85355763480766E-05,5.54373536942876E-06,23.37890625,0,0
-2.83652134385193E-05,5.32437525180285E-06,23.37890625,0,0
-2.98497707262868E-05,4.96627171742148E-06,23.37890625,0,0
-2.82117962342454E-05,3.0091505323071E-06,23.37890625,0,0
-2.81175525742583E-05,2.64051550402655E-06,23.37890625,0,0
-2.72134675469715E-05,2.18844161281595E-06,23.37890625,0,0
-2.82724395219702E-05,3.62772857442906E-06,23.37890625,0,0
-2.79204250546172E-05,3.67763118447328E-06,23.37890625,0,0
-2.76183600362856E-05,3.21014431392541E-06,23.37890625,0,0
-2.58480740740197E-05,2.67104314843891E-06,23.37890625,0,0
-2.49549375439528E-05,3.85553039450315E-06,23.37890625,0,0
-2.29635479627177E-05,5.73948500459665E-06,23.37890625,0,0
-2.10368325497257E-05,5.96939253227902E-06,23.37890625,0,0
-1.59412247739965E-05,3.68777182302438E-06,23.37890625,0,0
-2.31571939366404E-05,4.42432565250783E-06,23.37890625,0,0
-1.90402806765633E-05,3.60741751137539E-06,23.37890625,0,0
-2.26089305215282E-05,6.15073031440261E-06,23.37890625,0,0
-1.75535806192784E-05,4.02457044401672E-06,23.37890625,0,0
-1.9831159079331E-05,1.81625466666446E-06,23.37890625,0,0
-1.88925714610377E-05,1.89230860314638E-07,23.37890625,0,0
-2.02980008907616E-05,6.61558942738338E-07,23.37890625,0,0
-1.96416749531636E-05,1.42838507599663E-06,23.37890625,0,0
-1.8297039787285E-05,2.5755568913155E-06,23.37890625,0,0
-1.65489582286682E-05,4.13876341553987E-06,23.37890625,0,0
-1.54829285747837E-05,6.01760166318854E-06,23.37890625,0,0
-1.70775711012539E-05,7.88207216828596E-06,23.37890625,0,0
-1.7840473446995E-05,7.82073220761959E-06,23.37890625,0,0
-1.98928664758569E-05,7.94499283074401E-06,23.37890625,0,0
-1.99426613107789E-05,9.23858533496968E-06,23.37890625,0,0
-2.17707456613425E-05,1.21480115922168E-05,23.37890625,0,0
-2.13575149246026E-05,1.33185067170416E-05,23.37890625,0,0
-2.23114457185147E-05,1.30049184008385E-05,23.37890625,0,0
-2.26506708713714E-05,1.24406069517136E-05,23.37890625,0,0
-2.48245833063265E-05,1.33593857754022E-05,23.37890625,0,0
-2.56259445450269E-05,1.3780021618004E-05,23.37890625,0,0
-2.71564476861386E-05,1.32799414132023E-05,23.37890625,0,0
-2.71686258201953E-05,1.30100497699459E-05,23.37890625,0,0
-2.66821916738991E-05,1.48239505506353E-05,23.37890625,0,0
-2.65314611169742E-05,1.69504019140732E-05,23.37890625,0,0
-2.81137308775214E-05,1.76944413396996E-05,23.37890625,0,0
-2.38152733800234E-05,1.42662347570877E-05,23.37890625,0,0
-3.51913804479409E-05,1.75850636878749E-05,23.37890625,0,0
-2.88466580968816E-05,9.6810999821173E-06,23.37890625,0,0
-3.42406965501141E-05,1.35125228553079E-05,23.37890625,0,0
-2.74138328677509E-05,1.10171667984105E-05,23.37890625,0,0
-2.9999579055584E-05,1.39364246933837E-05,23.37890625,0,0
-2.72873057838297E-05,1.16144992716727E-05,23.37890625,0,0
-2.74208068731241E-05,1.25077722259448E-05,23.37890625,0,0
-2.44354723690776E-05,1.35522332129767E-05,23.37890625,0,0
-2.21131904254435E-05,1.43829820444807E-05,23.37890625,0,0
-1.89298243640224E-05,1.51573958646622E-05,23.37890625,0,0
-1.47799555634265E-05,1.57157064677449E-05,23.37890625,0,0
-1.33693265524926E-05,1.67796679306775E-05,23.37890625,0,0
-1.1023639672203E-05,1.52522043208592E-05,23.37890625,0,0
-1.20337717817165E-05,1.59689352585701E-05,23.37890625,0,0
-1.17610870802309E-05,1.54419267346384E-05,23.37890625,0,0
-1.5329980669776E-05,1.57599279191345E-05,23.37890625,0,0
-1.57862432388356E-05,1.36521712192916E-05,23.37890625,0,0
-1.68202459462918E-05,1.3589045011031E-05,23.37890625,0,0
-1.50261503222282E-05,1.3518899322662E-05,23.37890625,0,0
-1.57921131176408E-05,1.39549920277204E-05,23.37890625,0,0
-1.65978854056448E-05,1.22061210277025E-05,23.37890625,0,0
-2.10849029826932E-05,1.22622013805085E-05,23.37890625,0,0
-2.42448459175648E-05,1.32826726257917E-05,23.37890625,0,0
-2.62696448771749E-05,1.55944453581469E-05,23.37890625,0,0
-2.58856962318532E-05,1.6815594790387E-05,23.37890625,0,0
-2.41326306422707E-05,1.58366692630807E-05,23.37890625,0,0
-1.79898142960155E-05,1.02255062301992E-05,23.37890625,0,0
-2.48688102146843E-05,1.27914308905019E-05,23.37890625,0,0
-1.8530925444793E-05,8.71777956490405E-06,23.37890625,0,0
-2.37112944887485E-05,1.04213286249433E-05,23.37890625,0,0
-2.00863360078074E-05,6.50051288175746E-06,23.37890625,0,0
-2.23136175918626E-05,1.08685899249394E-05,23.37890625,0,0
-1.97789267986082E-05,1.47079135786043E-05,23.37890625,0,0
-2.02971259568585E-05,1.86599736480275E-05,23.37890625,0,0
-1.99474288820056E-05,1.81289415195351E-05,23.37890625,0,0
-2.16573880607029E-05,1.72130021383055E-05,23.37890625,0,0
-2.43865561060375E-05,1.67051803146023E-05,23.37890625,0,0
-2.60970064118737E-05,1.65080964507069E-05,23.37890625,0,0
-2.80127005680697E-05,1.63669046742143E-05,23.37890625,0,0
-2.79504274658393E-05,1.37566066769068E-05,23.37890625,0,0
-3.09454153466504E-05,1.24648331620847E-05,23.37890625,0,0
-3.23075655614957E-05,1.12252919279854E-05,23.37890625,0,0
-3.41790328093339E-05,1.21536595543148E-05,23.37890625,0,0
-3.29613467329182E-05,1.17370145744644E-05,23.37890625,0,0
-3.33299321937375E-05,1.23391819215612E-05,23.37890625,0,0
-3.22170562867541E-05,1.18853749881964E-05,23.37890625,0,0
-3.33319185301661E-05,1.1150359569001E-05,23.37890625,0,0
-3.28789865307044E-05,8.71504289534641E-06,23.37890625,0,0
-3.22883497574367E-05,9.55400082602864E-06,23.37890625,0,0
-2.99127768812468E-05,1.09158545456012E-05,23.37890625,0,0
-2.82339424302336E-05,1.06638999568531E-05,23.37890625,0,0
-2.85062360489974E-05,8.62822253111517E-06,23.37890625,0,0
-3.0604383937316E-05,7.87667158874683E-06,23.37890625,0,0
-2.48998876486439E-05,6.15204771747813E-06,23.37890625,0,0
-3.43768697348423E-05,1.01310179161374E-05,23.37890625,0,0
-2.55744143942138E-05,9.39092387852725E-06,23.37890625,0,0
-3.2601037673885E-05,9.49654440773884E-06,23.37890625,0,0
-2.59727185039083E-05,5.76671800445183E-06,23.37890625,0,0
-2.88066294160672E-05,5.39308257430093E-06,23.37890625,0,0
-2.67502218775917E-05,7.22805407349369E-06,23.37890625,0,0
-2.89313702523941E-05,9.97928236756707E-06,23.37890625,0,0
-2.78591978712939E-05,1.03117690741783E-05,23.37890625,0,0
-2.64655209321063E-05,1.00811066658935E-05,23.37890625,0,0
-2.48370615736349E-05,7.73905048845336E-06,23.37890625,0,0
-2.22665330511518E-05,5.02356215292821E-06,23.37890625,0,0
-2.18976019823458E-05,4.78065294373664E-06,23.37890625,0,0
-1.97433655557688E-05,6.32890032647992E-06,23.37890625,0,0
-2.13351486308966E-05,9.66582138062222E-06,23.37890625,0,0
-2.07355988095514E-05,1.25194874271983E-05,23.37890625,0,0
-2.30912537517725E-05,1.53576565935509E-05,23.37890625,0,0
-2.31556041399017E-05,1.61674670380307E-05,23.37890625,0,0
-2.56085204455303E-05,1.60872114065569E-05,23.37890625,0,0
-2.47509215114405E-05,1.39690246214741E-05,23.37890625,0,0
-2.47540720010875E-05,1.15773782454198E-05,23.37890625,0,0
-2.16678454307839E-05,9.28128702071263E-06,23.37890625,0,0
-1.97632289200556E-05,9.14217798708705E-06,23.37890625,0,0
-1.93734013009816E-05,9.84163398243254E-06,23.37890625,0,0
-2.03967811103212E-05,9.87149815045996E-06,23.37890625,0,0
-1.96491710084956E-05,9.15053806238575E-06,23.37890625,0,0
-1.92747847904684E-05,8.83585107658291E-06,23.37890625,0,0
-1.56947444338584E-05,6.93715674060513E-06,23.37890625,0,0
-2.06372060347348E-05,1.21134080472984E-05,23.37890625,0,0
-1.31914566736668E-05,1.35403988679172E-05,23.37890625,0,0
-1.62836749950657E-05,1.55843808897771E-05,23.37890625,0,0
-1.31043534565833E-05,1.16484688987839E-05,23.37890625,0,0
-1.67329544638051E-05,1.18913858386804E-05,23.37890625,0,0
-1.66152531164698E-05,1.20292042993242E-05,23.37890625,0,0
-1.75740187842166E-05,1.31597262225114E-05,23.37890625,0,0
-1.65982055477798E-05,1.4002001080371E-05,23.37890625,0,0
-1.67493635672145E-05,1.53575092554092E-05,23.37890625,0,0
-1.72484142240137E-05,1.60378076543566E-05,23.37890625,0,0
-1.66477093443973E-05,1.54093049786752E-05,23.37890625,0,0
-1.60261515702587E-05,1.4874685803079E-05,23.37890625,0,0
-1.36288963403786E-05,1.40291267598514E-05,23.37890625,0,0
-1.5397399693029E-05,1.43427832881571E-05,23.37890625,0,0
-1.71744577528443E-05,1.39028261401108E-05,23.37890625,0,0
-1.94779804587597E-05,1.35680547828088E-05,23.37890625,0,0
-1.78871414391324E-05,1.24170837807469E-05,23.37890625,0,0
-1.75901914190035E-05,1.24076077554491E-05,23.37890625,0,0
-1.67996240634238E-05,1.20472086564405E-05,23.37890625,0,0
-1.79359103640309E-05,1.29248292068951E-05,23.37890625,0,0
-1.81270370376296E-05,1.30931484818575E-05,23.37890625,0,0
-1.96862565644551E-05,1.12149909909931E-05,23.37890625,0,0
-2.16819153138204E-05,8.85030840436229E-06,23.37890625,0,0
-2.43656540988013E-05,8.15563089417992E-06,23.37890625,0,0
-2.62509929598309E-05,7.03086880093906E-06,23.37890625,0,0
-2.69945958280005E-05,6.45068712401553E-06,23.37890625,0,0
-2.10957641684217E-05,3.67059715244977E-06,23.37890625,0,0
-3.00033898383845E-05,4.70719487566384E-06,23.37890625,0,0
-2.27246400754666E-05,4.60011688119266E-06,36.03515625,0,0
-2.86415270238649E-05,6.80884568282636E-06,36.03515625,0,0
-2.55260074482067E-05,5.70385782339145E-06,36.03515625,0,0
-2.96294547297293E-05,6.4676260080887E-06,36.03515625,0,0
-2.81174452538835E-05,4.60740420749062E-06,36.03515625,0,0
-3.00323026749538E-05,4.22381845055497E-06,36.03515625,0,0
-3.04920795315411E-05,5.95180790696759E-06,36.03515625,0,0
-3.19535756716505E-05,7.66641096561216E-06,36.03515625,0,0
-3.17603626172058E-05,6.86266776028788E-06,36.03515625,0,0
-3.00592691928614E-05,4.96339998790063E-06,36.03515625,0,0
-3.13959317281842E-05,3.91763160223491E-06,36.03515625,0,0
-3.08116468659136E-05,3.73317584489996E-06,36.03515625,0,0
-3.07573245663662E-05,5.69951134821167E-06,36.03515625,0,0
-2.84853849734645E-05,7.51768448026269E-06,36.03515625,0,0
-2.97441747534322E-05,8.90787578100571E-06,36.03515625,0,0
-2.85526693915017E-05,9.07952744455542E-06,36.03515625,0,0
-2.76976188615663E-05,9.4596907729283E-06,36.03515625,0,0
-2.38137290580198E-05,9.78718162514269E-06,36.03515625,0,0
-2.28073586185928E-05,1.17773779493291E-05,36.03515625,0,0
-2.31613594223745E-05,1.46256043080939E-05,36.03515625,0,0
-2.56062285188818E-05,1.7231463061762E-05,36.03515625,0,0
-2.45177288888954E-05,1.72809577634325E-05,36.03515625,0,0
-2.27416003326653E-05,1.68330425367458E-05,36.03515625,0,0
-2.17601336771622E-05,1.70145631273044E-05,36.03515625,0,0
-2.24171017180197E-05,1.64508746820502E-05,36.03515625,0,0
-2.00271970243193E-05,1.2238363524375E-05,36.03515625,0,0
-2.89576273644343E-05,1.70368184626568E-05,36.03515625,0,0
-2.19543453567894E-05,1.24336456792662E-05,36.03515625,0,0
-2.65718663285952E-05,1.4737990568392E-05,36.03515625,0,0
-2.31773683481151E-05,1.2162429811724E-05,36.03515625,0,0
-2.60002580034779E-05,1.67717844306026E-05,36.03515625,0,0
-2.41693378484342E-05,1.73457920027431E-05,36.03515625,0,0
-2.57843821600545E-05,1.70590974448714E-05,36.03515625,0,0
-2.6302464902983E-05,1.49681063703611E-05,36.03515625,0,0
-2.87861494143726E-05,1.40281445055734E-05,36.03515625,0,0
-3.10640716634225E-05,1.38762334245257E-05,36.03515625,0,0
-3.25292021443602E-05,1.49493607750628E-05,36.03515625,0,0
-3.59018740709871E-05,1.71281062648632E-05,36.03515625,0,0
-3.78501899831463E-05,1.67399157362524E-05,36.03515625,0,0
-4.15519825764932E-05,1.68169153766939E-05,36.03515625,0,0
-4.21261975134257E-05,1.52391494339099E-05,36.03515625,0,0
-4.30061409133486E-05,1.48644066939596E-05,36.03515625,0,0
-4.01112483814359E-05,1.30128964883625E-05,36.03515625,0,0
-3.97926996811293E-05,1.25446304082288E-05,36.03515625,0,0
-3.92096226278227E-05,1.06599009086494E-05,36.03515625,0,0
-3.96033719880506E-05,9.65754315984668E-06,36.03515625,0,0
-3.75723429897334E-05,8.71673273650231E-06,36.03515625,0,0
-3.66789645340759E-05,1.04169921542052E-05,36.03515625,0,0
-3.56715427187737E-05,1.17420831884374E-05,36.03515625,0,0
-3.67410866601858E-05,1.16132250695955E-05,36.03515625,0,0
-3.80526580556761E-05,1.04616174212424E-05,36.03515625,0,0
-3.82490688934922E-05,9.88975989457686E-06,36.03515625,0,0
-2.95334721158724E-05,7.50193203202798E-06,36.03515625,0,0
-4.04250931751449E-05,1.16830879051122E-05,36.03515625,0,0
-2.88189457933186E-05,1.07883988675894E-05,36.03515625,0,0
-3.57569224433973E-05,1.21335824587732E-05,36.03515625,0,0
-2.78544721368235E-05,7.77741024649004E-06,36.03515625,0,0
-3.1492247217102E-05,6.13334759691497E-06,36.03515625,0,0
-2.73881523753516E-05,3.93613572668983E-06,36.03515625,0,0
-2.67617324425373E-05,3.27811267197831E-06,36.03515625,0,0
-2.25614367082017E-05,2.48690889748104E-06,36.03515625,0,0
-1.88223402801668E-05,1.97213444153022E-06,36.03515625,0,0
-1.59600385813974E-05,1.19887033633859E-06,36.03515625,0,0
-1.27898065329646E-05,1.13283545033482E-06,36.03515625,0,0
-1.220498506882E-05,2.82811879515066E-06,36.03515625,0,0
-8.49059415486408E-06,4.80813696412952E-06,36.03515625,0,0
-8.2466240201029E-06,7.30637793822098E-06,36.03515625,0,0
-6.35293099549017E-06,8.02555859991116E-06,36.03515625,0,0
-8.77251113706734E-06,8.74884790391661E-06,36.03515625,0,0
-7.79277797846589E-06,7.92552873463137E-06,36.03515625,0,0
-9.07222693058429E-06,6.98917347108363E-06,36.03515625,0,0
-7.2093043854693E-06,5.65827076570713E-06,36.03515625,0,0
-8.00880752649391E-06,5.29419776285067E-06,36.03515625,0,0
-7.60214834372164E-06,3.42348539561499E-06,36.03515625,0,0
-9.24576670513488E-06,2.24917539526359E-06,36.03515625,0,0
-9.37893946684198E-06,3.54640201294387E-06,36.03515625,0,0
-1.02927633633954E-05,6.4054252106871E-06,36.03515625,0,0
