biceps_emg, triceps_emg, subject_position, position_estimate, brace_position
-2.55722989095375E-05,5.33823686055257E-06,1.58203125,0,0
-2.643202424224E-05,5.39052280146279E-06,1.58203125,0,0
-2.47491425398039E-05,4.93127436129726E-06,1.58203125,0,0
-2.49812455876963E-05,5.98866108703078E-06,1.58203125,0,0
-2.58002201007912E-05,5.42095995115233E-06,1.58203125,0,0
-2.96892430924345E-05,6.32020328339422E-06,1.58203125,0,0
-3.04966251860606E-05,8.19165779830655E-06,1.58203125,0,0
-3.06928486679681E-05,1.25573160403292E-05,1.58203125,0,0
-2.78038787655532E-05,1.38195737235947E-05,1.58203125,0,0
-2.82539931504289E-05,1.40728243422927E-05,1.58203125,0,0
-2.78209045063704E-05,1.1175903637195E-05,1.58203125,0,0
-2.78658444585744E-05,8.98265261639608E-06,1.58203125,0,0
-2.6446385163581E-05,6.5535273279238E-06,1.58203125,0,0
-2.69514584942954E-05,6.93762285663979E-06,1.58203125,0,0
-2.80295244010631E-05,9.306771971751E-06,1.58203125,0,0
-2.95354147965554E-05,1.22945421026088E-05,1.58203125,0,0
-2.88724913843907E-05,1.33014391394681E-05,1.58203125,0,0
-2.7485484679346E-05,1.29048303278978E-05,1.58203125,0,0
-2.11054048122605E-05,9.94628499029204E-06,1.58203125,0,0
-2.92034856101964E-05,1.54358058352955E-05,1.58203125,0,0
-2.12115282920422E-05,1.60963918460766E-05,1.58203125,0,0
-2.75290731224231E-05,2.12038394238334E-05,1.58203125,0,0
-2.52519694186049E-05,1.97572553588543E-05,1.58203125,0,0
-2.96969137707492E-05,2.40920544456458E-05,1.58203125,0,0
-2.73257355729584E-05,2.39727523876354E-05,1.58203125,0,0
-2.74851608992321E-05,2.06969380087685E-05,1.58203125,0,0
-2.61844961642055E-05,1.5786245057825E-05,1.58203125,0,0
-2.64331429207232E-05,1.36254202516284E-05,1.58203125,0,0
-2.62088542513084E-05,1.4342365830089E-05,1.58203125,0,0
-2.54658352787374E-05,1.55988782353234E-05,1.58203125,0,0
-2.66584556811722E-05,1.56152364070294E-05,1.58203125,0,0
-2.60780052485643E-05,1.30592306959443E-05,1.58203125,0,0
-2.82659329968737E-05,1.25490505524795E-05,1.58203125,0,0
-2.83119607047411E-05,1.13514643089729E-05,1.58203125,0,0
-2.90134030365152E-05,9.86115082923789E-06,1.58203125,0,0
-2.51491674134741E-05,6.9764591899002E-06,1.58203125,0,0
-2.38227421505144E-05,7.11125539964996E-06,1.58203125,0,0
-2.26729644055013E-05,8.1378193499404E-06,1.58203125,0,0
-2.3877353669377E-05,1.06453508124105E-05,1.58203125,0,0
-2.29266042879317E-05,1.27302364489879E-05,1.58203125,0,0
-2.41357993218116E-05,1.54061581270071E-05,1.58203125,0,0
-2.5323035515612E-05,1.78827576746698E-05,1.58203125,0,0
-2.69916235993151E-05,1.78642276296159E-05,1.58203125,0,0
-2.74719895969611E-05,1.35553382278886E-05,1.58203125,0,0
-2.63381025433773E-05,1.06110828710371E-05,1.58203125,0,0
-1.97500867216149E-05,6.26575774731464E-06,1.58203125,0,0
-2.69990905508166E-05,7.84981784818228E-06,1.58203125,0,0
-1.96141845663078E-05,6.64672279526712E-06,1.58203125,0,0
-2.47928783210227E-05,1.10267073978321E-05,1.58203125,0,0
-2.02820810955018E-05,1.00021406979067E-05,1.58203125,0,0
-2.30163932428695E-05,7.96910808276152E-06,1.58203125,0,0
-2.14460687857354E-05,1.56647570292989E-06,1.58203125,0,0
-2.38174652622547E-05,-1.82956944172474E-06,1.58203125,0,0
-2.40735935221892E-05,-1.97569761439809E-06,1.58203125,0,0
-2.52004756475799E-05,1.92782840713335E-06,1.58203125,0,0
-2.58495019807015E-05,5.41129475095659E-06,1.58203125,0,0
-2.4549541194574E-05,6.12905250818585E-06,1.58203125,0,0
-2.39034798141802E-05,6.95279686624417E-06,1.58203125,0,0
-2.12890572584001E-05,7.35984167477E-06,1.58203125,0,0
-2.12695667869411E-05,8.52911125548417E-06,1.58203125,0,0
-1.94215390365571E-05,8.80669722391758E-06,1.58203125,0,0
-2.04546377062798E-05,1.01962441476644E-05,1.58203125,0,0
-1.91597118828213E-05,1.01648565760115E-05,1.58203125,0,0
-1.9692661226145E-05,8.40855955175357E-06,1.58203125,0,0
-1.84897871804424E-05,4.71611429020413E-06,1.58203125,0,0
-1.89249585673679E-05,4.11822929891059E-06,1.58203125,0,0
-1.80642091436312E-05,6.17048544881982E-06,1.58203125,0,0
-1.86685629159911E-05,9.0538651420502E-06,1.58203125,0,0
-1.8569942767499E-05,8.92917705641594E-06,1.58203125,0,0
-1.93846772162942E-05,8.02738577476703E-06,1.58203125,0,0
-2.02774426725227E-05,9.33645333134336E-06,1.58203125,0,0
-2.13346920645563E-05,1.16714309115196E-05,1.58203125,0,0
-1.88083595276112E-05,8.56331917020725E-06,1.58203125,0,0
-2.64200043602614E-05,9.70808832789771E-06,1.58203125,0,0
-1.88562316907337E-05,4.89016883875593E-06,1.58203125,0,0
-2.31919366342481E-05,8.69701489136787E-06,1.58203125,0,0
-2.09330537472852E-05,8.06955995358294E-06,1.58203125,0,0
-2.51189030677779E-05,1.12266889118473E-05,1.58203125,0,0
-2.36387077166E-05,1.0768205356726E-05,1.58203125,0,0
-2.502066672605E-05,1.01973564596847E-05,1.58203125,0,0
-2.56202456512256E-05,9.78571461018873E-06,1.58203125,0,0
-2.65877461060882E-05,1.0880814443226E-05,1.58203125,0,0
-2.64806149061769E-05,1.29395648400532E-05,1.58203125,0,0
-2.53030993917491E-05,1.44330251714564E-05,1.58203125,0,0
-2.59829648712184E-05,1.48791896208422E-05,1.58203125,0,0
-2.47758925979724E-05,1.29840054796659E-05,1.58203125,0,0
-2.56954881479032E-05,1.23919498946634E-05,1.58203125,0,0
-2.44816346821608E-05,1.21430994113325E-05,1.58203125,0,0
-2.46826875809347E-05,1.37387160066282E-05,1.58203125,0,0
-2.20082347368589E-05,1.36130620376207E-05,1.58203125,0,0
-2.06145850825123E-05,1.34773572426639E-05,1.58203125,0,0
-1.80954284587642E-05,1.27562298075645E-05,1.58203125,0,0
-1.80282459041337E-05,1.27412777146674E-05,1.58203125,0,0
-1.79640410351567E-05,1.19241303764284E-05,1.58203125,0,0
-1.96783330466133E-05,1.14693602881744E-05,1.58203125,0,0
-1.95699358300772E-05,1.1078268471465E-05,1.58203125,0,0
-1.91640046978137E-05,1.12563548100297E-05,1.58203125,0,0
-1.90318714885507E-05,1.02047633845359E-05,1.58203125,0,0
-1.94713538803626E-05,1.03847523860168E-05,1.58203125,0,0
-1.75792210939107E-05,8.30786484584678E-06,1.58203125,0,0
-2.62613266386325E-05,1.06188881545677E-05,1.58203125,0,0
-2.0699266315205E-05,6.64750587020535E-06,1.58203125,0,0
-2.42996829911135E-05,9.27115434024017E-06,1.58203125,0,0
-2.06887689273572E-05,8.38828873384045E-06,1.58203125,0,0
-2.238916567876E-05,1.19975729830912E-05,1.58203125,0,0
-1.928874735313E-05,1.32435998239089E-05,1.58203125,0,0
-1.8951386664412E-05,1.3059472621535E-05,1.58203125,0,0
-1.85735279956134E-05,1.07720643427456E-05,1.58203125,0,0
-1.89255515579134E-05,9.53742619458353E-06,1.58203125,0,0
-1.94998901861254E-05,9.2738864623243E-06,1.58203125,0,0
-1.93570685951272E-05,8.54296649777098E-06,1.58203125,0,0
-2.01517377718119E-05,9.45773354033008E-06,1.58203125,0,0
-1.97035024029901E-05,1.03371476143366E-05,1.58203125,0,0
-2.08097753784386E-05,1.14021295303246E-05,1.58203125,0,0
-2.04590596695198E-05,1.0679545084713E-05,1.58203125,0,0
-2.23740862566046E-05,1.09121538116597E-05,1.58203125,0,0
-2.24435279960744E-05,1.0786506209115E-05,1.58203125,0,0
-2.39424407482147E-05,1.09691918623867E-05,1.58203125,0,0
-2.4611546905362E-05,9.61837122304132E-06,1.58203125,0,0
-2.74614831141662E-05,1.06104253063677E-05,1.58203125,0,0
-2.86799622699618E-05,1.33236444526119E-05,1.58203125,0,0
-2.98529175779549E-05,1.54116623889422E-05,1.58203125,0,0
-2.91669712169096E-05,1.48994413393666E-05,1.58203125,0,0
-2.7507472623256E-05,1.30967755467282E-05,1.58203125,0,0
-2.65006401605206E-05,1.07063206087332E-05,1.58203125,0,0
-2.66527767962543E-05,9.40678091865266E-06,1.58203125,0,0
-2.19137837120797E-05,7.49279934098013E-06,1.58203125,0,0
-3.14241588057484E-05,1.1560076927708E-05,1.58203125,0,0
-2.23513688979438E-05,9.57740121521056E-06,1.58203125,0,0
-2.62479443335906E-05,1.32761406348436E-05,1.58203125,0,0
-2.30422247113893E-05,1.41584496304858E-05,1.58203125,0,0
-2.78927782346727E-05,1.41587242978858E-05,1.58203125,0,0
-2.66371716861613E-05,1.0561236194917E-05,1.58203125,0,0
-2.85969599644886E-05,8.71268730406882E-06,1.58203125,0,0
-2.87967941403622E-05,8.52023549668957E-06,1.58203125,0,0
-2.93335451715393E-05,9.51326910580974E-06,1.58203125,0,0
-2.8403228498064E-05,1.11495037344866E-05,1.58203125,0,0
-2.54531551036052E-05,1.17935142043279E-05,1.58203125,0,0
-2.50150678766659E-05,1.12403631646885E-05,1.58203125,0,0
-2.38563006860204E-05,8.90082355908817E-06,1.58203125,0,0
-2.54133083217312E-05,8.59162992128404E-06,1.58203125,0,0
-2.51087622018531E-05,9.75904822553275E-06,1.58203125,0,0
-2.66147308138898E-05,1.09654902189504E-05,1.58203125,0,0
-2.41862944676541E-05,9.72349334915634E-06,1.58203125,0,0
-2.27631207962986E-05,9.30677379074041E-06,1.58203125,0,0
-2.05085361812962E-05,9.64094851951813E-06,1.58203125,0,0
-2.17303240788169E-05,1.0404388376628E-05,1.58203125,0,0
-2.2360502043739E-05,1.0018287866842E-05,1.58203125,0,0
-2.40508707065601E-05,9.22195886232657E-06,1.58203125,0,0
-2.40247027250007E-05,9.2725022113882E-06,1.58203125,0,0
-2.32374568440719E-05,1.04184455267387E-05,1.58203125,0,0
-2.25610474444693E-05,1.00310790003277E-05,1.58203125,0,0
-2.31375142902834E-05,8.89496641320875E-06,1.58203125,0,0
-2.08582878258312E-05,8.44229452923173E-06,1.58203125,0,0
-3.15505276375916E-05,1.39687208502437E-05,1.58203125,0,0
-2.58394593402045E-05,1.35281488837791E-05,1.58203125,0,0
-3.03840624837903E-05,1.55254874698585E-05,1.58203125,0,0
-2.58826239587506E-05,1.19199348773691E-05,1.58203125,0,0
-2.77015860774554E-05,1.1329488188494E-05,1.58203125,0,0
-2.48314172495157E-05,1.06013985714526E-05,1.58203125,0,0
-2.45336959778797E-05,1.21876482808148E-05,1.58203125,0,0
-2.22139387915377E-05,1.35604914248688E-05,1.58203125,0,0
-2.22956532525131E-05,1.47253058457864E-05,1.58203125,0,0
-2.3283677364816E-05,1.4605348042096E-05,1.58203125,0,0
-2.26865340664517E-05,1.31066699395888E-05,1.58203125,0,0
-2.36999439948704E-05,1.16341389002628E-05,1.58203125,0,0
-2.31845315283863E-05,9.37299319048179E-06,1.58203125,0,0
-2.43477970798267E-05,9.05007709661732E-06,1.58203125,0,0
-2.30308305617655E-05,8.8220986071974E-06,1.58203125,0,0
-2.49497170443647E-05,9.28874851524597E-06,1.58203125,0,0
-2.57337960647419E-05,7.57912857807241E-06,1.58203125,0,0
-2.76184291578829E-05,6.4865562308114E-06,1.58203125,0,0
-2.70518794422969E-05,6.14024429523852E-06,1.58203125,0,0
-2.76305036095437E-05,7.54314532969147E-06,1.58203125,0,0
-2.65435410256032E-05,9.47715670918114E-06,1.58203125,0,0
-2.68204912572401E-05,1.20339509521727E-05,1.58203125,0,0
-2.67460145551013E-05,1.32804561872035E-05,1.58203125,0,0
-2.65764083451359E-05,1.28840301840683E-05,1.58203125,0,0
-2.48252090386814E-05,1.10325581772486E-05,1.58203125,0,0
-2.27203727263259E-05,7.67137225921033E-06,1.58203125,0,0
-1.75870554812718E-05,9.56274107011268E-07,1.58203125,0,0
-2.49394197453512E-05,-2.32755473916768E-06,1.58203125,0,0
-1.8543370970292E-05,-6.8454928623396E-06,1.58203125,0,0
-2.2297956093098E-05,-6.67673884890974E-06,1.58203125,0,0
-1.80379120138241E-05,-3.30647844748455E-06,1.58203125,0,0
-1.89613838301739E-05,2.91023684440006E-06,1.58203125,0,0
-1.54117860802216E-05,5.17089347340516E-06,1.58203125,0,0
-1.58636539708823E-05,6.18257308815373E-06,1.58203125,0,0
-1.47447899507824E-05,6.10367715125903E-06,1.58203125,0,0
-1.30332773551345E-05,3.98893052988569E-06,1.58203125,0,0
-1.20054392027669E-05,1.8670261852094E-06,1.58203125,0,0
-1.15920174721396E-05,2.05221454052662E-06,1.58203125,0,0
-1.28851525005302E-05,3.90084505852428E-06,1.58203125,0,0
-1.23034533316968E-05,5.532083378057E-06,1.58203125,0,0
-1.35620484797982E-05,6.70359486321104E-06,1.58203125,0,0
-1.34613364934921E-05,7.63358821131988E-06,1.58203125,0,0
-1.54347235366004E-05,9.69022494246019E-06,1.58203125,0,0
-1.53548608068377E-05,1.0853586900339E-05,1.58203125,0,0
-1.67251146194758E-05,9.67048799793702E-06,1.58203125,0,0
-1.69481318152975E-05,6.86731118548778E-06,1.58203125,0,0
-1.80276965693338E-05,6.03905436946661E-06,1.58203125,0,0
-1.73068765434437E-05,6.85372197040124E-06,1.58203125,0,0
-1.89278944162652E-05,8.42944973555859E-06,1.58203125,0,0
-2.03980216610944E-05,7.86956388765248E-06,1.58203125,0,0
-2.17033084481955E-05,5.61085107619874E-06,1.58203125,0,0
-2.23482511501061E-05,3.72502995560353E-06,1.58203125,0,0
-2.34573817579076E-05,2.76886134997767E-06,1.58203125,0,0
-2.01535731321201E-05,3.12662677970366E-06,1.58203125,0,0
-2.86358517769258E-05,7.34947661840124E-06,1.58203125,0,0
-2.0694307750091E-05,9.60995657806052E-06,1.58203125,0,0
-2.52247973548947E-05,1.02994545159163E-05,1.58203125,0,0
-2.27684558922192E-05,9.39981691772118E-06,1.58203125,0,0
-2.83591834886465E-05,9.73540863924427E-06,1.58203125,0,0
-2.78200786851812E-05,7.85662450653035E-06,1.58203125,0,0
-2.84667912637815E-05,4.91113951284206E-06,1.58203125,0,0
-2.77189355983865E-05,4.55380632047309E-06,1.58203125,0,0
-2.82640849036397E-05,8.24725520942593E-06,1.58203125,0,0
-2.85990190604934E-05,1.16223636723589E-05,1.58203125,0,0
-2.79071045952151E-05,1.31964352476643E-05,1.58203125,0,0
-2.92825789074413E-05,1.47571818160941E-05,1.58203125,0,0
-2.92866498057265E-05,1.52592674567131E-05,1.58203125,0,0
-3.14313765557017E-05,1.38307905217516E-05,1.58203125,0,0
-3.12249103444628E-05,1.09459306258941E-05,1.58203125,0,0
-3.25887631333899E-05,9.22695380722871E-06,1.58203125,0,0
-3.18762104143389E-05,9.67872438195627E-06,1.58203125,0,0
-3.30433394992724E-05,1.25975366245257E-05,1.58203125,0,0
-3.28936039295513E-05,1.50573769133189E-05,1.58203125,0,0
-3.46986926160753E-05,1.46646079883794E-05,1.58203125,0,0
-3.48329958796967E-05,1.22238534459029E-05,1.58203125,0,0
-3.57158533006441E-05,1.1130841812701E-05,1.58203125,0,0
-3.59896366717294E-05,1.05082426671288E-05,1.58203125,0,0
-3.70866255252622E-05,9.15373402676778E-06,1.58203125,0,0
-3.69453300663736E-05,7.36349647922907E-06,1.58203125,0,0
-3.62724713340867E-05,6.05510558671085E-06,1.58203125,0,0
-2.95327736239415E-05,5.3020630730316E-06,1.58203125,0,0
-4.1608429455664E-05,8.34332877275301E-06,1.58203125,0,0
-3.07908157992642E-05,8.40920984046534E-06,1.58203125,0,0
-3.77238502551336E-05,1.05706985777942E-05,1.58203125,0,0
-3.1098403269425E-05,9.36629749048734E-06,1.58203125,0,0
-3.61664024239872E-05,1.09566399260075E-05,1.58203125,0,0
-3.51472808688413E-05,1.18032048703753E-05,1.58203125,0,0
-3.77530013793148E-05,1.23909176181769E-05,1.58203125,0,0
-3.5450175346341E-05,9.94074980553705E-06,1.58203125,0,0
-3.42286984960083E-05,7.35404591978295E-06,1.58203125,0,0
-3.46057859132998E-05,6.42377654003212E-06,1.58203125,0,0
-3.42017010552809E-05,7.01677117831423E-06,1.58203125,0,0
-3.46086017088965E-05,7.57446514398907E-06,1.58203125,0,0
-3.08266971842386E-05,6.01725741944392E-06,1.58203125,0,0
-3.03612669085851E-05,6.37224638921907E-06,1.58203125,0,0
-2.75289494311437E-05,8.26962786959484E-06,1.58203125,0,0
-2.81818502116948E-05,1.03789989225334E-05,1.58203125,0,0
-2.59730786638102E-05,1.08274307422107E-05,1.58203125,0,0
-2.72928100457648E-05,1.17075360321905E-05,1.58203125,0,0
-2.58793861576123E-05,1.20065988085116E-05,1.58203125,0,0
-2.66180813923711E-05,1.16882592919865E-05,1.58203125,0,0
-2.55029553954955E-05,1.10504770418629E-05,1.58203125,0,0
-2.64367154159117E-05,1.2226628314238E-05,1.58203125,0,0
-2.67351169895846E-05,1.16084502224112E-05,1.58203125,0,0
-2.74330923275556E-05,1.04963382909773E-05,1.58203125,0,0
-2.76543178188149E-05,1.12619463834562E-05,1.58203125,0,0
-2.7667016183841E-05,1.33066196212894E-05,1.58203125,0,0
-2.14137417060556E-05,1.33328003357747E-05,1.58203125,0,0
-2.82381042779889E-05,1.88399226317415E-05,1.58203125,0,0
-1.81169762072386E-05,1.34993779283832E-05,1.58203125,0,0
-2.11821188713657E-05,1.6225858416874E-05,1.58203125,0,0
-1.46931779454462E-05,1.27625353343319E-05,1.58203125,0,0
-1.78356749529485E-05,1.54186236613896E-05,1.58203125,0,0
-1.78074642462889E-05,1.53939854499185E-05,1.58203125,0,0
-2.2105985408416E-05,1.63224067364354E-05,1.58203125,0,0
-2.19608064071508E-05,1.73425396496896E-05,1.58203125,0,0
-2.03106574190315E-05,1.80062161234673E-05,1.58203125,0,0
-1.8852775610867E-05,1.70625862665474E-05,1.58203125,0,0
-1.752756179485E-05,1.54338595166337E-05,1.58203125,0,0
-1.78881800820818E-05,1.506636999693E-05,1.58203125,0,0
-1.60184026753996E-05,1.33135445139487E-05,1.58203125,0,0
-1.79664239112753E-05,1.38079813041259E-05,1.58203125,0,0
-1.82183266588254E-05,1.38933173730038E-05,1.58203125,0,0
-2.03456456802087E-05,1.60055842570728E-05,1.58203125,0,0
-1.93513787962729E-05,1.6745854736655E-05,1.58203125,0,0
-2.03771378437523E-05,1.764994522091E-05,1.58203125,0,0
-1.93020205188077E-05,1.68605220096651E-05,1.58203125,0,0
-1.924669231812E-05,1.7362041035085E-05,1.58203125,0,0
-1.70969233295182E-05,1.7978065443458E-05,1.58203125,0,0
-1.70121784321964E-05,1.9876721125911E-05,1.58203125,0,0
-1.72712716448586E-05,2.18551540456247E-05,1.58203125,0,0
-1.72791314980714E-05,2.36763571592746E-05,1.58203125,0,0
-1.60169147420675E-05,2.4966702767415E-05,1.58203125,0,0
-1.67256766872015E-05,2.57613264693646E-05,1.58203125,0,0
-1.59707433340373E-05,1.93229243450332E-05,1.58203125,0,0
-2.33871833188459E-05,2.73599871434271E-05,1.58203125,0,0
-1.81918640009826E-05,2.13712028198643E-05,1.58203125,0,0
-2.24439827434253E-05,2.74846770480508E-05,1.58203125,0,0
-2.00712147488957E-05,2.3661668819841E-05,1.58203125,0,0
-2.23653532884782E-05,2.59842763625784E-05,1.58203125,0,0
-2.11572005355265E-05,2.18422628677217E-05,1.58203125,0,0
-2.19054090848658E-05,1.99139467440546E-05,1.58203125,0,0
-2.14034444070421E-05,1.90088994713733E-05,1.58203125,0,0
-2.00180656975135E-05,2.07013072213158E-05,1.58203125,0,0
-1.8163238564739E-05,2.05373726203106E-05,1.58203125,0,0
-1.56781679834239E-05,1.92903899005614E-05,1.58203125,0,0
-1.53490473167039E-05,1.96262008103076E-05,1.58203125,0,0
-1.56525820784736E-05,1.79151265911059E-05,1.58203125,0,0
-1.81816667463863E-05,1.88637077371823E-05,1.58203125,0,0
-1.84710770554375E-05,1.80766601260984E-05,1.58203125,0,0
-1.99425394384889E-05,1.90559749171371E-05,1.58203125,0,0
-2.07242392207263E-05,1.78105492523173E-05,1.58203125,0,0
-2.40650078922044E-05,1.8008202459896E-05,1.58203125,0,0
-2.49750046350528E-05,1.46916772791883E-05,1.58203125,0,0
-2.4522649255232E-05,1.28424999275012E-05,1.58203125,0,0
-2.27533346333075E-05,1.15103493953939E-05,1.58203125,0,0
-2.22067792492453E-05,1.20563281598152E-05,1.58203125,0,0
-2.03308100026334E-05,1.14089680209872E-05,1.58203125,0,0
-1.85666503966786E-05,1.09865795820951E-05,1.58203125,0,0
-1.91155922948383E-05,1.02022804640001E-05,1.58203125,0,0
-2.06124386750162E-05,9.33388855628436E-06,1.58203125,0,0
-1.75713848875603E-05,6.57322652841685E-06,1.58203125,0,0
-2.6006640837295E-05,7.01400540492614E-06,1.58203125,0,0
-2.15744512388483E-05,1.34297908971348E-06,1.58203125,0,0
-2.6866422558669E-05,5.11053428908781E-07,1.58203125,0,0
-2.33267728617648E-05,-1.57504643993889E-06,1.58203125,0,0
-2.41056786762783E-05,5.75571561967081E-07,1.58203125,0,0
-1.95679895114154E-05,3.80711497882658E-07,1.58203125,0,0
-1.79635117092403E-05,8.92374202976498E-07,1.58203125,0,0
-1.56267997226678E-05,7.34532534352184E-07,1.58203125,0,0
-1.55762954818783E-05,-6.80579432810191E-07,1.58203125,0,0
-1.70466319104889E-05,-3.01019485959841E-06,1.58203125,0,0
-1.8047192497761E-05,-4.45556725026108E-06,1.58203125,0,0
-1.98468369490001E-05,-3.46445744980883E-06,1.58203125,0,0
-1.99182122742059E-05,-2.52581344284408E-06,1.58203125,0,0
-2.20040583371883E-05,-2.75338329913666E-08,1.58203125,0,0
-2.16080152313225E-05,2.33902824220422E-06,1.58203125,0,0
-2.1906000256422E-05,5.22116988577181E-06,1.58203125,0,0
-1.995205093408E-05,5.29163980900194E-06,1.58203125,0,0
-2.09120844374411E-05,3.82641519536264E-06,1.58203125,0,0
-2.07883531402331E-05,2.58466684499581E-06,1.58203125,0,0
-2.04458865482593E-05,3.93439268009388E-06,1.58203125,0,0
-1.74431825143984E-05,5.24068536833511E-06,1.58203125,0,0
-1.5536623322987E-05,6.55316853226395E-06,1.58203125,0,0
-1.46651873365045E-05,6.55453231956926E-06,1.58203125,0,0
-1.43948600452859E-05,6.4320006458729E-06,1.58203125,0,0
-1.32382447191048E-05,5.56300119569642E-06,1.58203125,0,0
-1.27898501887103E-05,3.11808616970666E-06,1.58203125,0,0
-1.10609680632479E-05,1.65692199516343E-06,1.58203125,0,0
-1.74828473973321E-05,3.08861058329057E-06,1.58203125,0,0
-1.71817773662042E-05,4.07557035941863E-06,1.58203125,0,0
-2.09519403142622E-05,6.23691448708996E-06,1.58203125,0,0
-1.79245053004706E-05,8.21480807644548E-06,1.58203125,0,0
-1.88075882761041E-05,1.02006206361693E-05,1.58203125,0,0
-1.82496405614074E-05,9.62540616455954E-06,1.58203125,0,0
-2.01850361918332E-05,6.19905267740251E-06,1.58203125,0,0
-2.07045522984117E-05,3.50074878952E-06,1.58203125,0,0
-2.14201027119998E-05,3.88282569474541E-06,1.58203125,0,0
-2.17832839553012E-05,5.25792438565986E-06,1.58203125,0,0
-2.1525489501073E-05,6.67591120873112E-06,1.58203125,0,0
-2.20082074520178E-05,8.20084278529976E-06,1.58203125,0,0
-2.10728885576827E-05,9.42186943575507E-06,1.58203125,0,0
-2.10375164897414E-05,1.11854515125742E-05,1.58203125,0,0
-2.04928601306165E-05,1.32330178530538E-05,1.58203125,0,0
-2.28983699344099E-05,1.51599879245623E-05,1.58203125,0,0
-2.44930324697634E-05,1.60429444804322E-05,1.58203125,0,0
-2.55508493864909E-05,1.58823659148766E-05,1.58203125,0,0
-2.42920286837034E-05,1.58942548296181E-05,1.58203125,0,0
-2.3257745851879E-05,1.64005778060528E-05,1.58203125,0,0
-2.24578980123624E-05,1.55635880219052E-05,1.58203125,0,0
-2.37490767176496E-05,1.47004029713571E-05,1.58203125,0,0
-2.38060019910336E-05,1.41246582643362E-05,1.58203125,0,0
-2.42853257077513E-05,1.25844926515128E-05,1.58203125,0,0
-2.69602023763582E-05,1.06521974885254E-05,1.58203125,0,0
-3.04766927001765E-05,9.31599515752168E-06,1.58203125,0,0
-2.51623114309041E-05,7.06683158568922E-06,1.58203125,0,0
-3.6352652386995E-05,9.94414313026937E-06,1.58203125,0,0
-2.97936658171238E-05,6.95978678777465E-06,1.58203125,0,0
-3.99019445467275E-05,8.16823012428358E-06,1.58203125,0,0
-3.55756856151856E-05,6.804863915022E-06,1.58203125,0,0
-3.83269907615613E-05,8.93976630322868E-06,1.58203125,0,0
-3.66924250556622E-05,8.89147941052215E-06,1.58203125,0,0
-3.9109363569878E-05,9.46580075833481E-06,1.58203125,0,0
-3.7225730920909E-05,1.04292057585553E-05,1.58203125,0,0
-3.45899607054889E-05,1.22040746646235E-05,1.58203125,0,0
-3.25518958561588E-05,1.34471756609855E-05,1.58203125,0,0
-3.06532965623774E-05,1.3729064448853E-05,1.58203125,0,0
-3.20906474371441E-05,1.34014280774863E-05,1.58203125,0,0
-3.15581528411713E-05,1.08281137727317E-05,1.58203125,0,0
-3.21391198667698E-05,9.22473554965109E-06,1.58203125,0,0
-2.83463141386164E-05,9.28357167140348E-06,1.58203125,0,0
-2.75580023298971E-05,1.1558064215933E-05,1.58203125,0,0
-2.62528355960967E-05,1.30254065879853E-05,1.58203125,0,0
-2.87277362076566E-05,1.36409234983148E-05,1.58203125,0,0
-2.92941440420691E-05,1.20192744361702E-05,1.58203125,0,0
-3.07348018395714E-05,1.06808029158856E-05,1.58203125,0,0
-2.95240497507621E-05,9.70694327406818E-06,1.58203125,0,0
-2.90308471448952E-05,9.76025694399141E-06,1.58203125,0,0
-2.74096946668578E-05,9.7354732133681E-06,1.58203125,0,0
-2.7450398192741E-05,9.87897510640323E-06,1.58203125,0,0
-2.76443079201272E-05,9.82200435828418E-06,1.58203125,0,0
-2.76824957836652E-05,1.03950396805885E-05,1.58203125,0,0
-2.24823452299461E-05,9.40318932407536E-06,1.58203125,0,0
-3.13855125568807E-05,1.47896653288626E-05,1.58203125,0,0
-2.18190161831444E-05,1.26654504128965E-05,1.58203125,0,0
-2.58187101280782E-05,1.30493526739883E-05,1.58203125,0,0
-2.15259242395405E-05,7.29182011127705E-06,1.58203125,0,0
-2.57731280726148E-05,6.69781184114981E-06,1.58203125,0,0
-2.42381083808141E-05,6.97444420438842E-06,1.58203125,0,0
-2.5463079509791E-05,8.01062833488686E-06,1.58203125,0,0
-2.4821632905514E-05,7.73378542362479E-06,1.58203125,0,0
-2.67113045993028E-05,7.04165859133354E-06,1.58203125,0,0
-2.96376583719393E-05,7.12954533810262E-06,1.58203125,0,0
-3.11450530716684E-05,8.90728915692307E-06,1.58203125,0,0
-3.27591551467776E-05,1.19805426948005E-05,1.58203125,0,0
-3.0697621696163E-05,1.29052668853546E-05,1.58203125,0,0
-2.99281309708022E-05,1.26289942272706E-05,1.58203125,0,0
-2.72230645350646E-05,1.11385015770793E-05,1.58203125,0,0
-2.87125185423065E-05,1.13565329229459E-05,1.58203125,0,0
-2.83316076092888E-05,1.1995942259091E-05,1.58203125,0,0
-2.87215952994302E-05,1.38930226967204E-05,1.58203125,0,0
-2.63850706687663E-05,1.39190215122653E-05,1.58203125,0,0
-2.72413817583583E-05,1.43923725772765E-05,1.58203125,0,0
-2.6839661586564E-05,1.47355194712873E-05,1.58203125,0,0
-2.58466952800518E-05,1.61149037012365E-05,1.58203125,0,0
-2.22758244490251E-05,1.82514613698004E-05,1.58203125,0,0
-1.95214961422607E-05,1.8897508198279E-05,1.58203125,0,0
-1.86698307516053E-05,1.66624013218097E-05,1.58203125,0,0
-1.84089967660839E-05,1.35848986246856E-05,1.58203125,0,0
-1.40549082061625E-05,7.89195291872602E-06,1.58203125,0,0
-1.97691770154051E-05,8.86219550011447E-06,1.58203125,0,0
-1.62963642651448E-05,5.61905244467198E-06,1.58203125,0,0
-2.24385967158014E-05,1.07768337329617E-05,1.58203125,0,0
-2.11713559110649E-05,1.14209979074076E-05,1.58203125,0,0
-2.33160535572097E-05,1.47739174281014E-05,1.58203125,0,0
-2.23610404646024E-05,1.38234727273812E-05,1.58203125,0,0
-2.46557920036139E-05,1.28564433907741E-05,1.58203125,0,0
-2.55213926720899E-05,1.15832008305006E-05,1.58203125,0,0
-2.66332317551132E-05,1.24922698887531E-05,1.58203125,0,0
-2.61698369286023E-05,1.4105396985542E-05,1.58203125,0,0
-2.37930962612154E-05,1.50719642988406E-05,1.58203125,0,0
-2.41270445258124E-05,1.63383974722819E-05,1.58203125,0,0
-2.57421197602525E-05,1.55924990394851E-05,1.58203125,0,0
-2.99143066513352E-05,1.52968950715149E-05,1.58203125,0,0
-3.05813155137002E-05,1.45190051625832E-05,1.58203125,0,0
-2.98358008876676E-05,1.57892864081077E-05,1.58203125,0,0
-2.67875584540889E-05,1.59570172399981E-05,1.58203125,0,0
-2.68909152509877E-05,1.56669884745497E-05,1.58203125,0,0
-2.67359155259328E-05,1.40422616823344E-05,1.58203125,0,0
-2.68338517344091E-05,1.39050080179004E-05,1.58203125,0,0
-2.56729072134476E-05,1.26598624774488E-05,1.58203125,0,0
-2.5902918423526E-05,1.12783345684875E-05,1.58203125,0,0
-2.51195651799208E-05,1.15372504296829E-05,1.58203125,0,0
-2.36763371503912E-05,1.34894598886603E-05,1.58203125,0,0
-2.14259653148474E-05,1.32290751935216E-05,1.58203125,0,0
-1.98538891709177E-05,1.28093142848229E-05,1.58203125,0,0
-1.62091564561706E-05,1.00740217021666E-05,1.58203125,0,0
-2.36781288549537E-05,1.32695640786551E-05,1.58203125,0,0
-1.92724000953604E-05,1.05242615973111E-05,1.58203125,0,0
-2.37197000387823E-05,1.6029916878324E-05,1.58203125,0,0
-2.02860537683591E-05,1.51459416883881E-05,1.58203125,0,0
-2.21969348785933E-05,1.74017004610505E-05,1.58203125,0,0
-2.00642480194801E-05,1.58258717419812E-05,1.58203125,0,0
-2.02162245841464E-05,1.37663637360674E-05,1.58203125,0,0
-1.81158575287554E-05,1.02205340226647E-05,1.58203125,0,0
-1.70099519891664E-05,8.05000127002131E-06,1.58203125,0,0
-1.66190657182597E-05,7.59252088755602E-06,1.58203125,0,0
-1.53357195813442E-05,8.41589007904986E-06,1.58203125,0,0
-1.43874212881201E-05,1.03839302028064E-05,1.58203125,0,0
-1.23681547847809E-05,9.71471945376834E-06,1.58203125,0,0
-1.34937054099282E-05,9.41979124036152E-06,1.58203125,0,0
-1.34679830807727E-05,8.8316919573117E-06,1.58203125,0,0
-1.48761073432979E-05,9.44678322412074E-06,1.58203125,0,0
-1.47868322528666E-05,7.33821480025654E-06,1.58203125,0,0
-1.62204669322819E-05,5.57754901819862E-06,1.58203125,0,0
-1.37949746203958E-05,4.26721635449212E-06,1.58203125,0,0
-1.09159091152833E-05,5.29022690898273E-06,1.58203125,0,0
-8.47520277602598E-06,6.48261675451067E-06,1.58203125,0,0
-9.41893540584715E-06,9.16288263397291E-06,1.58203125,0,0
-1.08396989162429E-05,1.03431348179583E-05,1.58203125,0,0
-1.26163076856756E-05,9.30288661038503E-06,1.58203125,0,0
-1.31882297864649E-05,7.60268403610098E-06,1.58203125,0,0
-1.28359970403835E-05,6.89320586388931E-06,1.58203125,0,0
-1.07840096461587E-05,5.3275589380064E-06,1.58203125,0,0
-1.68371698237024E-05,8.58259318192722E-06,1.58203125,0,0
-1.49825036714901E-05,9.06569312064676E-06,1.58203125,0,0
-1.77826259459835E-05,1.17141526061459E-05,1.58203125,0,0
-1.64493030752055E-05,1.06793022496277E-05,1.58203125,0,0
-1.92255956790177E-05,1.21585180750117E-05,1.58203125,0,0
-1.97794124687789E-05,1.38623863676912E-05,1.58203125,0,0
-2.17431243072497E-05,1.56690512085333E-05,1.58203125,0,0
-2.16344578802818E-05,1.36841808853205E-05,1.58203125,0,0
-2.19762150663882E-05,9.71623376244679E-06,1.58203125,0,0
-2.25679232244147E-05,6.61525473333313E-06,1.58203125,0,0
-2.20334477489814E-05,5.00485339216539E-06,1.58203125,0,0
-2.19360663322732E-05,5.00008445669664E-06,1.58203125,0,0
-2.11804544960614E-05,5.43433543498395E-06,1.58203125,0,0
-2.23316474148305E-05,7.32769467504113E-06,1.58203125,0,0
-2.27165564865572E-05,8.30365024739876E-06,1.58203125,0,0
-2.40325935010333E-05,8.85588906385237E-06,1.58203125,0,0
-2.43555368797388E-05,8.35193441162119E-06,1.58203125,0,0
-2.68489457084797E-05,8.58665771374945E-06,1.58203125,0,0
-2.88515893771546E-05,8.180140866898E-06,1.58203125,0,0
-3.05636713164859E-05,7.7150125434855E-06,1.58203125,0,0
-2.97229817078914E-05,7.18791852705181E-06,1.58203125,0,0
-2.77434082818218E-05,7.43924829293974E-06,1.58203125,0,0
-2.60742199316155E-05,8.4660832726513E-06,1.58203125,0,0
-2.67034265561961E-05,9.25744643609505E-06,1.58203125,0,0
-2.77620783890598E-05,9.05773867998505E-06,1.58203125,0,0
-2.76239970844472E-05,8.90648061613319E-06,1.58203125,0,0
-2.16258031286998E-05,7.89903151598992E-06,1.58203125,0,0
-3.15805373247713E-05,9.77250874711899E-06,1.58203125,0,0
-2.68508738372475E-05,6.33508398095728E-06,1.58203125,0,0
-3.54497315129265E-05,9.65320123214042E-06,1.58203125,0,0
-3.12554657284636E-05,7.98815563030075E-06,1.58203125,0,0
-3.28937567246612E-05,8.99556198419305E-06,1.58203125,0,0
-3.05309222312644E-05,9.03525597095722E-06,1.58203125,0,0
-3.35381555487402E-05,9.65070466918405E-06,1.58203125,0,0
-3.43677129421849E-05,7.95828691479983E-06,1.58203125,0,0
-3.46812666975893E-05,6.57883720123209E-06,1.58203125,0,0
-3.41039121849462E-05,7.18893716111779E-06,1.58203125,0,0
-3.3090756915044E-05,7.75793523644097E-06,1.58203125,0,0
-3.44475483871065E-05,6.24591984887957E-06,1.58203125,0,0
-3.38464342348743E-05,1.80762003765267E-06,1.58203125,0,0
-3.50705922755878E-05,-3.58992338078679E-07,1.58203125,0,0
-3.40324695571326E-05,-4.35013561173037E-07,1.58203125,0,0
-3.54928743035998E-05,2.02617025024665E-06,1.58203125,0,0
-3.48289795510937E-05,3.83003634851775E-06,1.58203125,0,0
-3.64210463885684E-05,6.31897364655742E-06,1.58203125,0,0
-3.59836703864858E-05,8.23428854346275E-06,1.58203125,0,0
-3.68066284863744E-05,1.07348159872345E-05,1.58203125,0,0
-3.52417446265463E-05,1.09832926682429E-05,1.58203125,0,0
-3.43112151313107E-05,1.04362370620947E-05,1.58203125,0,0
-3.22639643854927E-05,1.02363082987722E-05,1.58203125,0,0
-3.16606601700187E-05,1.02313433671952E-05,1.58203125,0,0
-3.16626465064473E-05,8.8777542259777E-06,1.58203125,0,0
-3.36584525939543E-05,8.73509816301521E-06,1.58203125,0,0
-2.99445800919784E-05,9.68029598880094E-06,1.58203125,0,0
-4.37633134424686E-05,1.66176669154083E-05,1.58203125,0,0
-3.39072394126561E-05,1.51926087710308E-05,1.58203125,0,0
-3.95408460462932E-05,1.45178082675557E-05,1.58203125,0,0
-3.06630572595168E-05,9.45519423112273E-06,1.58203125,0,0
-3.26781337207649E-05,9.21970695344498E-06,1.58203125,0,0
-2.90638381557073E-05,8.1536190918996E-06,1.58203125,0,0
-3.07865484501235E-05,8.94608092494309E-06,1.58203125,0,0
-2.86301401501987E-05,1.07019068309455E-05,1.58203125,0,0
-2.71222452283837E-05,1.3708814549318E-05,1.58203125,0,0
-2.62833782471716E-05,1.55144916789141E-05,1.58203125,0,0
-2.46638664975762E-05,1.5836643797229E-05,1.58203125,0,0
-2.6364406949142E-05,1.70468010765035E-05,1.58203125,0,0
-2.56569273915375E-05,1.67742182384245E-05,1.58203125,0,0
-2.7364525521989E-05,1.62675642059185E-05,1.58203125,0,0
-2.39268101722701E-05,1.46036600199295E-05,1.58203125,0,0
-2.28501885430887E-05,1.46011461765738E-05,1.58203125,0,0
-2.02606006496353E-05,1.43319475682802E-05,1.58203125,0,0
-2.23937731789192E-05,1.46399197546998E-05,1.58203125,0,0
-2.15395320992684E-05,1.45436561069801E-05,1.58203125,0,0
-2.16827975236811E-05,1.5935398550937E-05,1.58203125,0,0
-1.99720634554978E-05,1.68194237630814E-05,1.58203125,0,0
-1.97439894691342E-05,1.73029675352154E-05,1.58203125,0,0
-1.77719339262694E-05,1.75687764567556E-05,1.58203125,0,0
-1.691921352176E-05,1.82072017196333E-05,1.58203125,0,0
-1.66282879945356E-05,1.7414467947674E-05,1.58203125,0,0
-1.72893342096359E-05,1.65713554451941E-05,1.58203125,0,0
-1.40694319270551E-05,1.51089452629094E-05,1.58203125,0,0
-1.90975315490505E-05,2.27970340347383E-05,1.58203125,0,0
-1.43431161632179E-05,1.62547930813162E-05,1.58203125,0,0
-1.98037141672103E-05,1.58204475155799E-05,1.58203125,0,0
-1.92002680705627E-05,1.10073815449141E-05,1.58203125,0,0
-2.21686932491139E-05,1.34254751174012E-05,1.58203125,0,0
-2.10278358281357E-05,1.22498540804372E-05,1.58203125,0,0
-2.23009883484337E-05,1.14876820589416E-05,1.58203125,0,0
-2.16521420952631E-05,1.08083295344841E-05,1.58203125,0,0
-2.19669254875043E-05,1.19250398711301E-05,1.58203125,0,0
-2.3392340153805E-05,1.25446522361017E-05,1.58203125,0,0
-2.35012503253529E-05,1.32665591081604E-05,1.58203125,0,0
-2.32927923207171E-05,1.52767952386057E-05,1.58203125,0,0
-2.2092228391557E-05,1.46914289871347E-05,1.58203125,0,0
-2.33808259508805E-05,1.36049866341637E-05,1.58203125,0,0
-2.29603247134946E-05,1.06472652987577E-05,1.58203125,0,0
-2.32997208513552E-05,1.00680745163118E-05,1.58203125,0,0
-2.17770866584033E-05,8.69952600623947E-06,1.58203125,0,0
-2.20537167479051E-05,8.63099103298737E-06,1.58203125,0,0
-2.16999742406188E-05,7.56887175157317E-06,1.58203125,0,0
-2.3283582777367E-05,8.84605742612621E-06,1.58203125,0,0
-2.49520944635151E-05,9.55992709350539E-06,1.58203125,0,0
-2.82127457467141E-05,1.12517718662275E-05,1.58203125,0,0
-2.88816245301859E-05,1.16738629003521E-05,1.58203125,0,0
-2.77905201073736E-05,1.11047656901064E-05,1.58203125,0,0
-2.69737865892239E-05,1.0559345355432E-05,1.58203125,0,0
-2.62875637417892E-05,9.81921766651794E-06,1.58203125,0,0
-2.10988000617363E-05,5.72830549572245E-06,1.58203125,0,0
-3.10509785776958E-05,8.64673074829625E-06,1.58203125,0,0
-2.53960588452173E-05,8.35401169752004E-06,1.58203125,0,0
-3.16525110974908E-05,9.89699037745595E-06,1.58203125,0,0
-2.7373238481232E-05,7.04074818713707E-06,1.58203125,0,0
-2.92546446871711E-05,6.99828387951129E-06,1.58203125,0,0
-2.6923988116323E-05,6.08978962191031E-06,1.58203125,0,0
-2.94153851427836E-05,7.35929370421218E-06,1.58203125,0,0
-2.9590282792924E-05,8.883142072591E-06,1.58203125,0,0
-2.98238483082969E-05,1.01335754152387E-05,1.58203125,0,0
-2.90688221866731E-05,1.05509925560909E-05,1.58203125,0,0
-2.5516552341287E-05,1.07992618723074E-05,1.58203125,0,0
-2.27472646656679E-05,1.1310394256725E-05,1.58203125,0,0
-1.99119513126789E-05,1.08481408460648E-05,1.58203125,0,0
-2.06389922823291E-05,1.19357655421481E-05,1.58203125,0,0
-1.97719036805211E-05,1.35957516249618E-05,1.58203125,0,0
-2.16077623917954E-05,1.54105018737027E-05,1.58203125,0,0
-2.0557261450449E-05,1.5149366845435E-05,1.58203125,0,0
-2.0583418518072E-05,1.43526194733568E-05,1.58203125,0,0
-1.8464043023414E-05,1.29533309518592E-05,1.58203125,0,0
-1.8470538634574E-05,1.34193605845212E-05,1.58203125,0,0
-1.73116459336597E-05,1.37585893753567E-05,1.58203125,0,0
-1.8012538930634E-05,1.36748694785638E-05,1.58203125,0,0
-1.82021667569643E-05,1.43346032928093E-05,1.58203125,0,0
-1.77181864273734E-05,1.61790576385101E-05,1.58203125,0,0
-1.63636213983409E-05,1.52862867253134E-05,1.58203125,0,0
-1.647045428399E-05,1.27162984426832E-05,1.58203125,0,0
-1.35008594952524E-05,9.6575504358043E-06,1.58203125,0,0
-1.80831666511949E-05,1.40114880196052E-05,1.58203125,0,0
-1.2211447028676E-05,1.0338582796976E-05,1.58203125,0,0
-1.59981445904123E-05,1.0158209988731E-05,1.58203125,0,0
-1.3754434803559E-05,4.54082464784733E-06,1.58203125,0,0
-1.48360977618722E-05,5.87671638641041E-06,1.58203125,0,0
-1.26540544442832E-05,7.62573336032801E-06,1.58203125,0,0
-1.41265036290861E-05,9.97397910396103E-06,1.58203125,0,0
-1.46027432492701E-05,1.00071620181552E-05,1.58203125,0,0
-1.5239987988025E-05,8.64367302710889E-06,1.58203125,0,0
-1.7537613530294E-05,7.01155886417837E-06,1.58203125,0,0
-1.94101085071452E-05,4.74099670100259E-06,1.58203125,0,0
-2.04558891709894E-05,1.96036057786841E-06,1.58203125,0,0
-1.97730114450678E-05,-6.24309166141757E-07,1.58203125,0,0
-2.08026631298708E-05,3.23550381153837E-07,1.58203125,0,0
-2.02099508896936E-05,3.66936291129605E-07,1.58203125,0,0
-2.09592126338976E-05,5.24235190368927E-07,1.58203125,0,0
-2.08547171496321E-05,1.27275052363984E-06,1.58203125,0,0
-2.29935958486749E-05,3.41503005074628E-06,1.58203125,0,0
-2.3794131266186E-05,2.08303390536457E-06,1.58203125,0,0
-2.37619569816161E-05,1.51856295360631E-06,1.58203125,0,0
-2.18472669075709E-05,2.18332934309728E-06,1.58203125,0,0
-2.08099736482836E-05,2.50421771852416E-06,1.58203125,0,0
-1.96070195670472E-05,1.55191742123861E-06,1.58203125,0,0
-2.028260496445E-05,1.85426608823036E-06,1.58203125,0,0
-2.03118488570908E-05,4.1514758777339E-06,1.58203125,0,0
-1.95300290215528E-05,8.23749815026531E-06,1.58203125,0,0
-1.59374776558252E-05,8.44030910229776E-06,1.58203125,0,0
-2.2369138605427E-05,1.13409942059661E-05,1.58203125,0,0
-1.71372976183193E-05,8.94897311809473E-06,1.58203125,0,0
-2.22756370931165E-05,1.17646022772533E-05,1.58203125,0,0
-2.07318098546239E-05,8.75055775395595E-06,1.58203125,0,0
-2.60068554780446E-05,1.00708466561628E-05,1.58203125,0,0
-2.74737139989156E-05,9.77804847934749E-06,1.58203125,0,0
-2.9574479412986E-05,1.06111756394967E-05,1.58203125,0,0
-2.93185803457163E-05,1.10307919385377E-05,1.58203125,0,0
-3.09883434965741E-05,1.25704891615896E-05,1.58203125,0,0
-3.39367397828028E-05,1.46460715768626E-05,1.58203125,0,0
-3.5391996789258E-05,1.51671047206037E-05,1.58203125,0,0
-3.51553680957295E-05,1.56678161147283E-05,1.58203125,0,0
-3.16892001137603E-05,1.54801218741341E-05,1.58203125,0,0
-3.0687155231135E-05,1.64894372574054E-05,1.58203125,0,0
-2.95057961920975E-05,1.57130907609826E-05,1.58203125,0,0
-3.0788331059739E-05,1.48934850585647E-05,1.58203125,0,0
-2.98443119390868E-05,1.30044818433817E-05,1.58203125,0,0
-3.0213672289392E-05,1.21407747428748E-05,1.58203125,0,0
-2.90224379568826E-05,1.06325169326738E-05,1.58203125,0,0
-2.84611924143974E-05,1.03232951005339E-05,1.58203125,0,0
-2.70234122581314E-05,9.93417506833794E-06,1.58203125,0,0
-2.63312213064637E-05,1.09449674710049E-05,1.58203125,0,0
-2.47673779085744E-05,1.28598148876335E-05,1.58203125,0,0
-2.51240435318323E-05,1.36424414449721E-05,1.58203125,0,0
-2.58327054325491E-05,1.24625303214998E-05,1.58203125,0,0
-2.5380402803421E-05,1.19167316370294E-05,1.58203125,0,0
-1.9613144104369E-05,1.07659243440139E-05,1.58203125,0,0
-2.7595184292295E-05,1.68548995134188E-05,1.58203125,0,0
-2.0231818780303E-05,1.31938031699974E-05,1.58203125,0,0
-2.42138612520648E-05,1.41865002660779E-05,1.58203125,0,0
-1.99899386643665E-05,1.2585196600412E-05,1.58203125,0,0
-2.44400234805653E-05,1.37875131258625E-05,1.58203125,0,0
-2.47564403252909E-05,9.78413299890235E-06,1.58203125,0,0
-2.72930665232707E-05,7.29239400243387E-06,1.58203125,0,0
-2.68349431280512E-05,7.00915325069218E-06,1.58203125,0,0
-2.63397196249571E-05,7.37365189706907E-06,1.58203125,0,0
-2.54311653407058E-05,6.77480147714959E-06,1.58203125,0,0
-2.4881037461455E-05,5.47559011465637E-06,1.58203125,0,0
-2.68498770310543E-05,3.8650223359582E-06,1.58203125,0,0
-2.63573601841927E-05,1.14924171157327E-06,1.58203125,0,0
-2.77046128758229E-05,1.55121927036816E-06,1.58203125,0,0
-2.70938453468261E-05,2.75707725450047E-06,1.58203125,0,0
-2.78307306871284E-05,4.65195307697286E-06,1.58203125,0,0
-2.66008828475606E-05,5.93795493841753E-06,1.58203125,0,0
-2.79943978966912E-05,9.6927424237947E-06,1.58203125,0,0
-2.78261904895771E-05,1.26905470096972E-05,1.58203125,0,0
-2.93988032353809E-05,1.44545047078282E-05,1.58203125,0,0
-2.92271070065908E-05,1.35767550091259E-05,1.58203125,0,0
-3.01495692838216E-05,1.26778368212399E-05,1.58203125,0,0
-2.97951173706679E-05,1.35438785946462E-05,1.58203125,0,0
-2.98431568808155E-05,1.60613672051113E-05,1.58203125,0,0
-3.05379362544045E-05,1.77263318619225E-05,1.58203125,0,0
-3.03717770293588E-05,1.79744165507145E-05,1.58203125,0,0
-2.43755457631778E-05,1.45729754876811E-05,1.58203125,0,0
-3.47643945133314E-05,2.0436387785594E-05,1.58203125,0,0
-2.54596870945534E-05,1.43951110658236E-05,1.58203125,0,0
-2.97266797133489E-05,1.5032076589705E-05,1.58203125,0,0
-2.46928902924992E-05,7.7030590546201E-06,1.58203125,0,0
-2.95146091957577E-05,6.68463007968967E-06,1.58203125,0,0
-2.69978027063189E-05,4.15667636843864E-06,1.58203125,0,0
-2.80642107099993E-05,7.39125789550599E-06,1.58203125,0,0
-2.76685859716963E-05,1.13505011540838E-05,1.58203125,0,0
-2.80271397059551E-05,1.50049809235497E-05,1.58203125,0,0
-2.83385561488103E-05,1.75588738784427E-05,1.58203125,0,0
-2.75508155027637E-05,1.80029328475939E-05,1.58203125,0,0
-2.89321033051237E-05,1.74504821188748E-05,1.58203125,0,0
-2.77503659162903E-05,1.34225210786099E-05,1.58203125,0,0
-2.86741287709447E-05,1.13062469608849E-05,1.58203125,0,0
-2.70985037786886E-05,9.95009668258717E-06,1.58203125,0,0
-2.83223380392883E-05,1.14488038889249E-05,1.58203125,0,0
-2.62941412074724E-05,9.9147664514021E-06,1.58203125,0,0
-2.58820673479931E-05,1.02798458101461E-05,1.58203125,0,0
-2.330778806936E-05,1.23308836919023E-05,1.58203125,0,0
-2.25880539801437E-05,1.58612565428484E-05,1.58203125,0,0
-2.09441950573819E-05,1.58245074999286E-05,1.58203125,0,0
-2.16658681893023E-05,1.35820300783962E-05,1.58203125,0,0
-2.04641892196378E-05,9.63129150477471E-06,1.58203125,0,0
-1.91248163901037E-05,6.50149968350888E-06,1.58203125,0,0
-1.88309149962151E-05,5.62102104595397E-06,1.58203125,0,0
-2.02112551050959E-05,6.93123411110719E-06,1.58203125,0,0
-1.85460976354079E-05,6.02238742430927E-06,1.58203125,0,0
-2.64177087956341E-05,8.61501484905602E-06,1.58203125,0,0
-1.86369798029773E-05,7.97565007815138E-06,1.58203125,0,0
-2.06888798857108E-05,1.14218328235438E-05,1.58203125,0,0
-1.54402587213553E-05,1.20422118925489E-05,1.58203125,0,0
-1.75216409843415E-05,1.4588507838198E-05,1.58203125,0,0
-1.61042353283847E-05,1.3974660760141E-05,1.58203125,0,0
-1.66385016200366E-05,1.3474743354891E-05,1.58203125,0,0
-1.4799398741161E-05,1.24860771393287E-05,1.58203125,0,0
-1.42645885716775E-05,1.07210807982483E-05,1.58203125,0,0
-1.51851872942643E-05,8.82982476468896E-06,1.58203125,0,0
-1.63498862093547E-05,8.32031219033524E-06,1.58203125,0,0
-1.86762008524965E-05,9.53991002461407E-06,1.58203125,0,0
-1.84650780283846E-05,9.76814862951869E-06,1.58203125,0,0
-2.04181724257069E-05,1.08075446405564E-05,1.58203125,0,0
-2.08479868888389E-05,1.17813833639957E-05,1.58203125,0,0
-2.19799803744536E-05,1.37538181661512E-05,1.58203125,0,0
-2.04550215130439E-05,1.43288561957888E-05,1.58203125,0,0
-2.17531978705665E-05,1.43195820783149E-05,1.58203125,0,0
-2.25057956413366E-05,1.24493353723665E-05,1.58203125,0,0
-2.43623289861716E-05,1.03874917840585E-05,1.58203125,0,0
-2.29954821406864E-05,9.22649269341491E-06,1.58203125,0,0
-2.13112143683247E-05,9.39835899771424E-06,1.58203125,0,0
-2.00526956177782E-05,8.23818390927045E-06,1.58203125,0,0
-2.04377647605725E-05,6.05526884100982E-06,1.58203125,0,0
-2.11516216950258E-05,5.59325007998268E-06,1.58203125,0,0
-2.11126953217899E-05,7.86297368904343E-06,1.58203125,0,0
-1.64904686243972E-05,8.85099143488333E-06,1.58203125,0,0
-2.33986847888445E-05,1.40233078127494E-05,1.58203125,0,0
-1.79890121216886E-05,1.30802827698062E-05,1.58203125,0,0
-2.28724547923775E-05,1.61392999871168E-05,1.58203125,0,0
-2.0034944100189E-05,1.43287625178345E-05,1.58203125,0,0
-2.14630799746374E-05,1.65232304425444E-05,1.58203125,0,0
-1.78248428710504E-05,1.64595130627276E-05,1.58203125,0,0
-1.69687355082715E-05,1.66682566486998E-05,1.58203125,0,0
-1.6435404177173E-05,1.68430378835183E-05,1.58203125,0,0
-1.76163157448173E-05,1.65057645062916E-05,1.58203125,0,0
-1.81212362804217E-05,1.64776101883035E-05,1.58203125,0,0
-1.81636332854396E-05,1.72718246176373E-05,1.58203125,0,0
-1.98022844415391E-05,1.85154913197039E-05,1.58203125,0,0
-1.98273373825941E-05,1.69934337463928E-05,1.58203125,0,0
-2.09619574889075E-05,1.69751092471415E-05,1.58203125,0,0
-2.01076472876593E-05,1.82875373866409E-05,1.58203125,0,0
-2.17798096855404E-05,1.94424974324647E-05,1.58203125,0,0
-2.17606793739833E-05,1.85975459316978E-05,1.58203125,0,0
-2.26711927098222E-05,1.91775452549336E-05,1.58203125,0,0
-2.18642817344517E-05,1.81418927240884E-05,1.58203125,0,0
-2.27331092901295E-05,1.67974394571502E-05,1.58203125,0,0
-2.28633707592962E-05,1.662342583586E-05,1.58203125,0,0
-2.39355413214071E-05,1.73482512764167E-05,1.58203125,0,0
-2.3564103685203E-05,1.62297383212717E-05,1.58203125,0,0
-2.35074730881024E-05,1.2651786164497E-05,1.58203125,0,0
-2.42755322688026E-05,8.38667529023951E-06,1.58203125,0,0
-2.4208331524278E-05,6.13865722698392E-06,1.58203125,0,0
-1.89343008969445E-05,5.32429567101644E-06,1.58203125,0,0
-2.75462170975516E-05,8.97903555596713E-06,1.58203125,0,0
-2.20978090510471E-05,9.13136864255648E-06,1.58203125,0,0
-2.81725642707897E-05,1.06800134744844E-05,1.58203125,0,0
-2.53327689279104E-05,9.26627217268106E-06,1.58203125,0,0
-2.75764232355868E-05,9.84172220341861E-06,1.58203125,0,0
-2.54960323218256E-05,8.54224526847247E-06,1.58203125,0,0
-2.76311875495594E-05,7.20515845387126E-06,1.58203125,0,0
-2.85501209873473E-05,7.07037270331057E-06,1.58203125,0,0
-2.93595348921372E-05,8.32728892419254E-06,1.58203125,0,0
-2.9391956559266E-05,9.64540868153563E-06,1.58203125,0,0
-2.83025638054824E-05,1.09899492599652E-05,1.58203125,0,0
-2.84572561213281E-05,1.17989602586022E-05,1.58203125,0,0
-2.78883471764857E-05,1.10783457785146E-05,1.58203125,0,0
-2.97219903586665E-05,1.05841018012143E-05,1.58203125,0,0
-2.9156119126128E-05,8.84122255229158E-06,1.58203125,0,0
-3.0301789593068E-05,7.34778132027714E-06,1.58203125,0,0
-2.93661232717568E-05,6.92932735546492E-06,1.58203125,0,0
-3.03393098874949E-05,8.97720565262716E-06,1.58203125,0,0
-2.90682328341063E-05,9.6541689345031E-06,1.58203125,0,0
-2.84716697933618E-05,8.23479876999045E-06,1.58203125,0,0
-2.6718364097178E-05,7.078725957399E-06,1.58203125,0,0
-2.65153594227741E-05,7.76646993472241E-06,1.58203125,0,0
-2.5823901523836E-05,8.12829603091814E-06,1.58203125,0,0
-2.54688548011472E-05,8.70537587616127E-06,1.58203125,0,0
-2.50607772613876E-05,8.03786042524735E-06,1.58203125,0,0
-2.62689463852439E-05,6.41916449239943E-06,1.58203125,0,0
-2.26001593546243E-05,5.03702904097736E-06,1.58203125,0,0
-3.19912760460284E-05,5.71265445614699E-06,1.58203125,0,0
-2.35346942645265E-05,2.47373668571527E-06,1.58203125,0,0
-2.82190303551033E-05,3.6999149415351E-06,1.58203125,0,0
-2.21695336222183E-05,2.41789325627906E-06,1.58203125,0,0
-2.42633068410214E-05,4.73878208140377E-06,1.58203125,0,0
-2.30364348681178E-05,6.57982855045702E-06,1.58203125,0,0
-2.57313331530895E-05,7.50137314753374E-06,1.58203125,0,0
-2.57646079262486E-05,7.24972233001608E-06,1.58203125,0,0
-2.70104501396418E-05,8.28126758278813E-06,1.58203125,0,0
-2.75853617495159E-05,1.11016097434913E-05,1.58203125,0,0
-2.71302851615474E-05,1.28325937112095E-05,1.58203125,0,0
-2.85107234958559E-05,1.28455376398051E-05,1.58203125,0,0
-2.73560981440824E-05,1.15272669063415E-05,1.58203125,0,0
-2.76669070444768E-05,1.05712861113716E-05,1.58203125,0,0
-2.65651688096114E-05,9.71661575022154E-06,1.58203125,0,0
-2.97977403533878E-05,1.12509405880701E-05,1.58203125,0,0
-3.06034016830381E-05,1.20603990581003E-05,1.58203125,0,0
-3.21337320201565E-05,1.15663906399277E-05,1.58203125,0,0
-3.06536312564276E-05,1.01500263554044E-05,1.58203125,0,0
-3.10342365992256E-05,9.82773599389475E-06,1.58203125,0,0
-2.97640272037825E-05,1.04418668342987E-05,1.58203125,0,0
-2.9493556212401E-05,1.20780596262193E-05,1.58203125,0,0
-2.76973987638485E-05,1.16568335215561E-05,1.58203125,0,0
-2.60010347119533E-05,9.74379418039462E-06,1.58203125,0,0
-2.4102922907332E-05,8.24931339593604E-06,1.58203125,0,0
-2.44665188802173E-05,6.85361965224729E-06,1.58203125,0,0
-2.04376865440281E-05,4.76787363368203E-06,1.58203125,0,0
-2.8748454496963E-05,7.29703742763377E-06,1.58203125,0,0
-2.16307635128032E-05,7.06585342413746E-06,1.58203125,0,0
-2.71554363280302E-05,8.59979718370596E-06,1.58203125,0,0
-2.32195634453092E-05,6.32160117675085E-06,1.58203125,0,0
-2.7033453079639E-05,5.82441862206906E-06,1.58203125,0,0
-2.63264246314066E-05,3.26390295413148E-06,1.58203125,0,0
-2.76940718322294E-05,1.24629514175467E-06,1.58203125,0,0
-2.57610427070176E-05,8.53353640195564E-07,1.58203125,0,0
-2.41360521613387E-05,1.55455143158179E-06,1.58203125,0,0
-2.28733442781959E-05,1.9908120520995E-06,1.58203125,0,0
-2.11640581255779E-05,3.3871599498525E-06,1.58203125,0,0
-2.15042036870727E-05,6.01466035732301E-06,1.58203125,0,0
-1.91817289305618E-05,7.72853491071146E-06,1.58203125,0,0
-1.85935004992643E-05,1.08602180262096E-05,1.58203125,0,0
-1.7036305507645E-05,1.37955603349837E-05,1.58203125,0,0
-1.89653765119147E-05,1.5480283764191E-05,1.58203125,0,0
-1.90177979675354E-05,1.45314124893048E-05,1.58203125,0,0
-2.1410065528471E-05,1.38403856908553E-05,1.58203125,0,0
-2.2447118681157E-05,1.3181193935452E-05,1.58203125,0,0
-2.47649495577207E-05,1.27266393974423E-05,1.58203125,0,0
-2.49856893788092E-05,1.36457410917501E-05,1.58203125,0,0
-2.58648688031826E-05,1.5433315638802E-05,1.58203125,0,0
-2.58862364717061E-05,1.51922722579911E-05,1.58203125,0,0
-2.71373082796345E-05,1.45360827445984E-05,1.58203125,0,0
-2.78537336271256E-05,1.45025269375765E-05,1.58203125,0,0
-2.7233298169449E-05,1.43698143801885E-05,1.58203125,0,0
-2.06951644941E-05,1.03372512967326E-05,1.58203125,0,0
-2.71780118055176E-05,1.59035098477034E-05,1.58203125,0,0
-1.84150503628189E-05,1.49366469486267E-05,1.58203125,0,0
-2.39823366428027E-05,1.71200263139326E-05,1.58203125,0,0
-1.9011016775039E-05,1.05505996543798E-05,1.58203125,0,0
-2.21531063289149E-05,8.85853478393983E-06,1.58203125,0,0
-2.07913453778019E-05,7.72663952375297E-06,1.58203125,0,0
-2.27396321861306E-05,1.01221430668375E-05,1.58203125,0,0
-2.10465877898969E-05,1.17767940537306E-05,1.58203125,0,0
-1.96318524103845E-05,1.3438311725622E-05,1.58203125,0,0
-1.85121061804239E-05,1.41287409860524E-05,1.58203125,0,0
-1.7442802345613E-05,1.37562665258883E-05,1.58203125,0,0
-1.97988501895452E-05,1.25512078739121E-05,1.58203125,0,0
-2.03359813895077E-05,9.74235717876581E-06,1.58203125,0,0
-2.18669047171716E-05,9.65921663009794E-06,1.58203125,0,0
-2.08374040084891E-05,8.7775179054006E-06,1.58203125,0,0
-2.29988399951253E-05,7.34163904780871E-06,1.58203125,0,0
-2.31362519116374E-05,3.38933796228957E-06,1.58203125,0,0
-2.5177429051837E-05,1.69441329944675E-06,1.58203125,0,0
-2.43424910877366E-05,2.47767047767411E-06,1.58203125,0,0
-2.50683315243805E-05,6.37573111816891E-06,1.58203125,0,0
-2.49182758125244E-05,8.37888546811882E-06,1.58203125,0,0
-2.5175080736517E-05,8.90096907824045E-06,1.58203125,0,0
-2.29264114750549E-05,8.88899467099691E-06,1.58203125,0,0
-2.23755050683394E-05,9.94406673271442E-06,1.58203125,0,0
-2.38388256548205E-05,1.0851668776013E-05,1.58203125,0,0
-2.57247338595334E-05,1.13818077807082E-05,1.58203125,0,0
-2.00240920094075E-05,9.12959058041452E-06,1.58203125,0,0
-2.73855494015152E-05,1.23000418170705E-05,1.58203125,0,0
-1.96556193259312E-05,7.79650054028025E-06,1.58203125,0,0
-2.45412302319892E-05,8.87386795511702E-06,1.58203125,0,0
-1.99157038878184E-05,7.5166371971136E-06,1.58203125,0,0
-2.3595701350132E-05,1.04535602076794E-05,1.58203125,0,0
-2.4039019990596E-05,8.603511560068E-06,1.58203125,0,0
-2.80825206573354E-05,7.56167764848215E-06,1.58203125,0,0
-2.79139821941499E-05,8.66582649905467E-06,1.58203125,0,0
-2.71253247774439E-05,1.06069237517659E-05,1.58203125,0,0
-2.64064965449506E-05,1.12466759674135E-05,1.58203125,0,0
-2.50364591920516E-05,1.18269372251234E-05,1.58203125,0,0
-2.56648600043263E-05,1.34288466142607E-05,1.58203125,0,0
-2.42066071223235E-05,1.30242415252724E-05,1.58203125,0,0
-2.46897743636509E-05,1.15446382551454E-05,1.58203125,0,0
-2.34211111092009E-05,8.98175585462013E-06,1.58203125,0,0
-2.45635437750025E-05,1.00419147202047E-05,1.58203125,0,0
-2.32757611229317E-05,1.15103739517508E-05,1.58203125,0,0
-2.35740262723994E-05,1.30382841234677E-05,1.58203125,0,0
-2.17057149711763E-05,1.24530770335696E-05,1.58203125,0,0
-2.17226515815128E-05,1.1392890883144E-05,1.58203125,0,0
-2.09275804081699E-05,1.03792608570075E-05,1.58203125,0,0
-2.11188107641647E-05,1.13907335617114E-05,1.58203125,0,0
-1.98497709789081E-05,1.16095216071699E-05,1.58203125,0,0
-1.96864875761094E-05,1.02926906038192E-05,1.58203125,0,0
-1.94419808394741E-05,7.62327090342296E-06,1.58203125,0,0
-2.07829107239377E-05,5.832465376443E-06,1.58203125,0,0
-1.96236833289731E-05,4.51643518317724E-06,1.58203125,0,0
-2.8634991394938E-05,8.73105091159232E-06,1.58203125,0,0
-2.15190866583725E-05,1.23723839351442E-05,1.58203125,0,0
-2.50210614467505E-05,1.6958731066552E-05,1.58203125,0,0
-2.10369071282912E-05,1.57166014105314E-05,1.58203125,0,0
-2.38079173868755E-05,1.50176329043461E-05,1.58203125,0,0
-2.14863102883101E-05,1.39589255923056E-05,1.58203125,0,0
-2.14432147913612E-05,1.3753830899077E-05,1.58203125,0,0
-1.87386740435613E-05,1.39996054713265E-05,1.58203125,0,0
-1.69943814398721E-05,1.32270852191141E-05,1.58203125,0,0
-1.69638078659773E-05,1.25206461234484E-05,1.58203125,0,0
-1.62517208082136E-05,1.27749708553893E-05,1.58203125,0,0
-1.77304555109004E-05,1.33406001623371E-05,1.58203125,0,0
-1.95725751837017E-05,1.35957125166897E-05,1.58203125,0,0
-2.43398098973557E-05,1.55324541992741E-05,1.58203125,0,0
-2.57007486652583E-05,1.78608734131558E-05,1.58203125,0,0
-2.70838081632974E-05,1.88133872143226E-05,1.58203125,0,0
-2.5645102141425E-05,1.6934422092163E-05,1.58203125,0,0
-2.57473930105334E-05,1.49092411447782E-05,1.58203125,0,0
-2.43356444116216E-05,1.30452144730953E-05,1.58203125,0,0
-2.48876476689475E-05,1.17718291221536E-05,1.58203125,0,0
-2.38089050981216E-05,1.13742589746835E-05,1.58203125,0,0
-2.27159398491494E-05,1.21556186059024E-05,1.58203125,0,0
-2.1435203962028E-05,1.19867654575501E-05,1.58203125,0,0
-2.12660088436678E-05,1.04648897831794E-05,1.58203125,0,0
-2.06690910999896E-05,8.04429055278888E-06,1.58203125,0,0
-2.1177549569984E-05,5.67197412237874E-06,1.58203125,0,0
-1.86703709914582E-05,4.22012044509756E-06,1.58203125,0,0
-2.67550531134475E-05,6.26216251475853E-06,1.58203125,0,0
-2.03549134312198E-05,5.46014007341E-06,1.58203125,0,0
-2.62677094724495E-05,6.50183392281178E-06,1.58203125,0,0
-2.50787161348853E-05,4.0398740566161E-06,1.58203125,0,0
-3.01538129861001E-05,3.30799662151549E-06,1.58203125,0,0
-2.89043582597515E-05,3.45395824297157E-06,1.58203125,0,0
-2.72974066319875E-05,5.70972997593344E-06,1.58203125,0,0
-2.44987895712256E-05,7.3834135037032E-06,1.58203125,0,0
-2.35561365116155E-05,6.76956051393063E-06,1.58203125,0,0
-2.27642922254745E-05,5.34265518581378E-06,1.58203125,0,0
-2.12157992791617E-05,5.6258345466631E-06,1.58203125,0,0
-2.21984155359678E-05,7.02333909430308E-06,1.58203125,0,0
-2.18547029362526E-05,6.92315552441869E-06,1.58203125,0,0
-2.28783992497483E-05,6.34110665487242E-06,1.58203125,0,0
-2.21223890548572E-05,5.42193629371468E-06,1.58203125,0,0
-2.36201340158004E-05,5.60161561224959E-06,1.58203125,0,0
-2.42178393818904E-05,6.19306774751749E-06,1.58203125,0,0
-2.7211175620323E-05,7.62337731430307E-06,1.58203125,0,0
-2.70301788987126E-05,8.7746475401218E-06,1.58203125,0,0
-2.63931015069829E-05,9.26354368857574E-06,1.58203125,0,0
-2.56634193647187E-05,8.5763213064638E-06,1.58203125,0,0
-2.87588645733194E-05,8.62907836562954E-06,1.58203125,0,0
-3.1714305805508E-05,1.04412629298167E-05,1.58203125,0,0
-3.17164776788559E-05,1.44414234455326E-05,1.58203125,0,0
-2.88690462184604E-05,1.64965495059732E-05,1.58203125,0,0
-2.70393884420628E-05,1.50648102135165E-05,1.58203125,0,0
-2.05513188120676E-05,9.92587501968956E-06,1.58203125,0,0
-2.8440077585401E-05,1.2825224075641E-05,1.58203125,0,0
-2.01039638341172E-05,7.57854695621063E-06,1.58203125,0,0
-2.33794962696265E-05,9.05951765162172E-06,1.58203125,0,0
-1.65290821314557E-05,6.79053482599556E-06,1.58203125,0,0
-1.86701781785814E-05,1.08641634142259E-05,1.58203125,0,0
-1.62489577633096E-05,1.24151792988414E-05,1.58203125,0,0
-1.66802383319009E-05,1.35626387418597E-05,1.58203125,0,0
-1.58504044520669E-05,1.37389297378832E-05,1.58203125,0,0
-1.70012244780082E-05,1.42945000334294E-05,1.58203125,0,0
-1.84852815436898E-05,1.41733462442062E-05,1.58203125,0,0
-1.80271781573538E-05,1.40890042530373E-05,1.58203125,0,0
-1.78119662450626E-05,1.51363456097897E-05,1.58203125,0,0
-1.6726949979784E-05,1.5011378309282E-05,1.58203125,0,0
-1.91969429579331E-05,1.5028865163913E-05,1.58203125,0,0
-1.91896306205308E-05,1.41046084536356E-05,1.58203125,0,0
-2.13456842175219E-05,1.64265056810109E-05,1.58203125,0,0
-2.15953477891162E-05,1.92078114196192E-05,1.58203125,0,0
-2.35812512983102E-05,2.29381384997396E-05,1.58203125,0,0
-2.33478731388459E-05,2.39445762417745E-05,1.58203125,0,0
-2.51176352321636E-05,2.24838040594477E-05,1.58203125,0,0
-2.5364373868797E-05,1.8718897990766E-05,1.58203125,0,0
-2.67189789155964E-05,1.58890070451889E-05,1.58203125,0,0
-2.76055634458316E-05,1.31610777316382E-05,1.58203125,0,0
-2.8064687285223E-05,1.19402784548583E-05,1.58203125,0,0
-2.66367387666833E-05,1.1008803085133E-05,1.58203125,0,0
-2.62321118498221E-05,1.11051203930401E-05,1.58203125,0,0
-2.13807652471587E-05,1.02197545857052E-05,1.58203125,0,0
-2.87971470243065E-05,1.47668697536574E-05,1.58203125,0,0
-1.79622911673505E-05,1.06946254163631E-05,1.58203125,0,0
-2.15855798160192E-05,1.26829381770222E-05,1.58203125,0,0
-1.67053512996063E-05,1.17304853120004E-05,1.58203125,0,0
-2.01666844077408E-05,1.47203190863365E-05,1.58203125,0,0
-1.94662225112552E-05,1.41855571200722E-05,1.58203125,0,0
-2.07922803383553E-05,1.34646461447119E-05,1.58203125,0,0
-1.87051045941189E-05,1.2261974006833E-05,1.58203125,0,0
-1.59743813128443E-05,1.15183875095681E-05,1.58203125,0,0
-1.42006356327329E-05,1.16471073852153E-05,1.58203125,0,0
-1.26463428387069E-05,1.31277938635321E-05,1.58203125,0,0
-1.22918881970691E-05,1.45332423926448E-05,1.58203125,0,0
-9.53446669882396E-06,1.37095548780053E-05,1.58203125,0,0
-9.7386582638137E-06,1.30007883853978E-05,1.58203125,0,0
-8.97026075108442E-06,1.16150140456739E-05,1.58203125,0,0
-9.75229158939328E-06,1.22767823995673E-05,1.58203125,0,0
-7.76319484430132E-06,1.26114400700317E-05,1.58203125,0,0
-7.76437536842423E-06,1.34252904899768E-05,1.58203125,0,0
-5.4175852710614E-06,1.09214133772184E-05,1.58203125,0,0
-6.01848660153337E-06,6.79433742334368E-06,1.58203125,0,0
-6.37707807982224E-06,3.44583941114252E-06,1.58203125,0,0
-6.70249755785335E-06,4.50248307970469E-06,1.58203125,0,0
-5.89169758313801E-06,6.4655232563382E-06,1.58203125,0,0
-6.99653583069448E-06,7.8578314059996E-06,1.58203125,0,0
-9.12557425181149E-06,7.56163763071527E-06,1.58203125,0,0
-1.31449551190599E-05,6.63186892779777E-06,1.58203125,0,0
-1.58229413500521E-05,2.45854766944831E-06,1.58203125,0,0
-2.51767432928318E-05,4.52674527195995E-07,1.58203125,0,0
-2.17839242395712E-05,-9.7155577805097E-07,1.58203125,0,0
-2.4256516553578E-05,4.38903316535288E-06,1.58203125,0,0
-2.05705491680419E-05,7.09718278812943E-06,1.58203125,0,0
-2.24990417336812E-05,1.01617397376685E-05,1.58203125,0,0
-2.11072365345899E-05,1.1367718798283E-05,1.58203125,0,0
-2.16445168916835E-05,1.08070007627248E-05,1.58203125,0,0
-2.07366501854267E-05,8.77653656061739E-06,1.58203125,0,0
-2.0029476218042E-05,8.22620131657459E-06,1.58203125,0,0
-1.96221135411179E-05,9.12817813514266E-06,1.58203125,0,0
-1.93624055100372E-05,1.10827722892282E-05,1.58203125,0,0
-2.10733396670548E-05,1.31292345031397E-05,1.58203125,0,0
-2.19819976337021E-05,1.38607820190373E-05,1.58203125,0,0
-2.39068249356933E-05,1.34643860292272E-05,1.58203125,0,0
-2.36224568652688E-05,1.08212625491433E-05,1.58203125,0,0
-2.54242368100677E-05,9.12895666260738E-06,1.58203125,0,0
-2.69320535153383E-05,8.88808426680043E-06,1.58203125,0,0
-3.01872078125598E-05,9.48252818488982E-06,1.58203125,0,0
-3.14776552841067E-05,7.97942266217433E-06,1.58203125,0,0
-3.32856434397399E-05,6.42055601929314E-06,1.58203125,0,0
-3.43853025697172E-05,7.54537086322671E-06,1.58203125,0,0
-3.64081315638032E-05,1.19327150969184E-05,1.58203125,0,0
-3.76440839318093E-05,1.4281518815551E-05,1.58203125,0,0
-3.8716312701581E-05,1.31829392557847E-05,1.58203125,0,0
-3.77978940377943E-05,1.08661479316652E-05,1.58203125,0,0
-3.59188888978679E-05,1.06302240965306E-05,1.58203125,0,0
-2.81593729596352E-05,1.16982873805682E-05,1.58203125,0,0
-3.94227790820878E-05,1.67803991644178E-05,1.58203125,0,0
-2.99338389595505E-05,1.18594516607118E-05,1.58203125,0,0
-3.94179842260201E-05,1.44291498145321E-05,1.58203125,0,0
-3.57823846570682E-05,1.1814059689641E-05,1.58203125,0,0
-4.12939771194942E-05,1.24960342873237E-05,1.58203125,0,0
-3.80035671696533E-05,1.1902652659046E-05,1.58203125,0,0
-3.88291809940711E-05,1.24455691548064E-05,1.58203125,0,0
-3.78085496777203E-05,1.08118310890859E-05,1.58203125,0,0
-3.91011490137316E-05,8.61348780745175E-06,1.58203125,0,0
-4.17412011302076E-05,6.15257067693165E-06,1.58203125,0,0
-4.26644874096382E-05,5.06264086652664E-06,1.58203125,0,0
-4.44263241661247E-05,6.58283215670963E-06,1.58203125,0,0
-4.27222730650101E-05,6.82585823597037E-06,1.58203125,0,0
-4.4123393308837E-05,7.785906745994E-06,1.58203125,0,0
-4.16372058680281E-05,7.56757026465493E-06,1.58203125,0,0
-4.12722038163338E-05,8.08510048955213E-06,1.58203125,0,0
-3.81510399165563E-05,7.13258532414329E-06,1.58203125,0,0
-3.86666943086311E-05,7.36984975446831E-06,1.58203125,0,0
-3.68954133591615E-05,7.41166422812967E-06,1.58203125,0,0
-3.66104286513291E-05,9.4333772722166E-06,1.58203125,0,0
-3.39307080139406E-05,1.03237862276728E-05,1.58203125,0,0
-3.26406152453274E-05,1.0170628229389E-05,1.58203125,0,0
-2.99057392112445E-05,8.1859880083357E-06,1.58203125,0,0
-2.79577288893051E-05,4.961872491549E-06,1.58203125,0,0
-2.57241154031362E-05,1.2986727142561E-06,1.58203125,0,0
-2.40928384300787E-05,-4.41346742263704E-07,1.58203125,0,0
-2.0056178982486E-05,1.54124677465006E-06,1.58203125,0,0
-2.90606785711134E-05,4.31870694228564E-06,1.58203125,0,0
-2.05274009204004E-05,7.31764066586038E-06,1.58203125,0,0
-2.27865093620494E-05,8.71149040904129E-06,1.58203125,0,0
-1.87060450116405E-05,8.1973275882774E-06,1.58203125,0,0
-2.24443447223166E-05,8.58525618241401E-06,1.58203125,0,0
-2.20661731873406E-05,8.79125218489207E-06,1.58203125,0,0
-2.34666094911518E-05,8.8447714006179E-06,1.58203125,0,0
-2.3230231818161E-05,1.00488941825461E-05,1.58203125,0,0
-2.49122331297258E-05,1.08030317278462E-05,1.58203125,0,0
-2.66499391727848E-05,1.2530576896097E-05,1.58203125,0,0
-2.59857770288363E-05,1.46442043842399E-05,1.58203125,0,0
-2.6916915885522E-05,1.58089023898356E-05,1.58203125,0,0
-2.73830555670429E-05,1.56857240654062E-05,1.58203125,0,0
-2.97879378194921E-05,1.56244841491571E-05,1.58203125,0,0
-2.87801940430654E-05,1.49960178532638E-05,1.58203125,0,0
-2.84492634818889E-05,1.35482032419532E-05,1.58203125,0,0
-2.54335882345913E-05,1.29132331494475E-05,1.58203125,0,0
-2.36411942751147E-05,1.33734638438909E-05,1.58203125,0,0
-2.07277425943175E-05,1.27600696941954E-05,1.58203125,0,0
-2.10025282285642E-05,1.16633900688612E-05,1.58203125,0,0
-2.16186617763015E-05,1.31966817207285E-05,1.58203125,0,0
-2.36052110267337E-05,1.51745625771582E-05,1.58203125,0,0
-2.44940329139354E-05,1.35938262246782E-05,1.58203125,0,0
-2.48579617618816E-05,1.08115718830959E-05,1.58203125,0,0
-2.37333952100016E-05,1.17058261821512E-05,1.58203125,0,0
-2.08940982702188E-05,1.32768373077852E-05,1.58203125,0,0
-1.51369122249889E-05,1.0461892998137E-05,1.58203125,0,0
-2.22455073526362E-05,1.38698824230232E-05,1.58203125,0,0
-1.77919737325283E-05,9.0498660938465E-06,1.58203125,0,0
-2.18760596908396E-05,1.24326925288187E-05,1.58203125,0,0
-1.95787451957585E-05,1.11544968603994E-05,1.58203125,0,0
-2.24466821237002E-05,1.32619388750754E-05,1.58203125,0,0
-2.21480295294896E-05,1.16102182801114E-05,1.58203125,0,0
-2.3946678993525E-05,1.06022562249564E-05,1.58203125,0,0
-2.37184340221575E-05,1.00952347565908E-05,1.58203125,0,0
-2.42395162786124E-05,1.20677250379231E-05,1.58203125,0,0
-2.48840569838649E-05,1.46376723932917E-05,1.58203125,0,0
-2.39717865042621E-05,1.60043291543843E-05,1.58203125,0,0
-2.39521450566826E-05,1.62665601237677E-05,1.58203125,0,0
-2.30899022426456E-05,1.45523308674456E-05,1.58203125,0,0
-2.38636275753379E-05,1.49890838656574E-05,1.58203125,0,0
-2.22362104977947E-05,1.52253760461463E-05,1.58203125,0,0
-2.21310801862273E-05,1.64186822075862E-05,1.58203125,0,0
-2.19298035517568E-05,1.47154887599754E-05,1.58203125,0,0
-2.4340482923435E-05,1.20857903311844E-05,1.58203125,0,0
-2.54602855420671E-05,8.76988451636862E-06,1.58203125,0,0
-2.66121514869155E-05,7.75924581830623E-06,1.58203125,0,0
-2.59933640336385E-05,6.57864893582882E-06,1.58203125,0,0
-2.55088343692478E-05,6.05579543844215E-06,1.58203125,0,0
-2.38616503338562E-05,6.76635590934893E-06,1.58203125,0,0
-2.38467873714399E-05,9.40130576054798E-06,1.58203125,0,0
-2.45459286816185E-05,1.11783547254163E-05,1.58203125,0,0
-2.54844562732615E-05,1.20212043839274E-05,1.58203125,0,0
-2.16376920434413E-05,1.04930768429767E-05,1.58203125,0,0
-3.20943618135061E-05,1.38372342917137E-05,1.58203125,0,0
-2.61079403571785E-05,8.3237791841384E-06,1.58203125,0,0
-3.13443233608268E-05,1.01748455563211E-05,1.58203125,0,0
-2.60925680777291E-05,8.48093895911006E-06,1.58203125,0,0
-2.88480805465952E-05,1.04757718872861E-05,1.58203125,0,0
-2.73263049166417E-05,8.63132754602702E-06,1.58203125,0,0
-2.93824250547914E-05,9.19946342037292E-06,1.58203125,0,0
-2.85545884253224E-05,1.20459217214375E-05,1.58203125,0,0
-2.74544454441639E-05,1.52909869939322E-05,1.58203125,0,0
-2.5850622478174E-05,1.61470161401667E-05,1.58203125,0,0
-2.43554713961203E-05,1.48421759149642E-05,1.58203125,0,0
-2.6022471502074E-05,1.36656844915706E-05,1.58203125,0,0
-2.61505865637446E-05,1.1728671779565E-05,1.58203125,0,0
-2.77008912235033E-05,1.18391099022119E-05,1.58203125,0,0
-2.53555899689673E-05,1.13865762614296E-05,1.58203125,0,0
-2.36146115639713E-05,1.23792269732803E-05,1.58203125,0,0
-2.00511076400289E-05,1.31469396364992E-05,1.58203125,0,0
-2.01996972464258E-05,1.4570191524399E-05,1.58203125,0,0
-1.89884285646258E-05,1.34402644107467E-05,1.58203125,0,0
-1.9505225282046E-05,1.2158526260464E-05,1.58203125,0,0
-1.88334179256344E-05,1.10710343506071E-05,1.58203125,0,0
-1.94426993402885E-05,1.26093536891858E-05,1.58203125,0,0
-1.96142536879051E-05,1.32963432406541E-05,1.58203125,0,0
-2.12684717553202E-05,1.3734642379859E-05,1.58203125,0,0
-2.15646468859632E-05,1.54587032739073E-05,1.58203125,0,0
-1.95939483091934E-05,1.51193871715805E-05,1.58203125,0,0
-1.43230445246445E-05,9.67315281741321E-06,1.58203125,0,0
-1.96337605302688E-05,1.32083541757311E-05,1.58203125,0,0
-1.49390743899858E-05,1.09775310193072E-05,1.58203125,0,0
-1.97953322640387E-05,1.41970422191662E-05,1.58203125,0,0
-1.73162843566388E-05,1.19228343464783E-05,1.58203125,0,0
-1.94028179976158E-05,1.5561658074148E-05,1.58203125,0,0
-1.77721249201568E-05,1.49717816384509E-05,1.58203125,0,0
-1.87070127140032E-05,1.41058981171227E-05,1.58203125,0,0
-1.92397856153548E-05,1.26797986013116E-05,1.58203125,0,0
-2.02465016627684E-05,1.18968291644705E-05,1.58203125,0,0
-2.02111459657317E-05,1.22230730994488E-05,1.58203125,0,0
-1.98367615666939E-05,1.29025520436699E-05,1.58203125,0,0
-2.23022507270798E-05,1.29255731735611E-05,1.58203125,0,0
-2.4372242478421E-05,9.46609452512348E-06,1.58203125,0,0
-2.72982706519542E-05,6.11022915109061E-06,1.58203125,0,0
-2.66905899479752E-05,3.03802335110959E-06,1.58203125,0,0
-2.64021073235199E-05,3.23180665873224E-06,1.58203125,0,0
-2.46790623350535E-05,3.12343422592676E-06,1.58203125,0,0
-2.49279910349287E-05,3.87950149161043E-06,1.58203125,0,0
-2.3981652702787E-05,2.57425426752889E-06,1.58203125,0,0
-2.39799010159913E-05,1.81623386197316E-06,1.58203125,0,0
-2.22188045881921E-05,2.87892430606007E-06,1.58203125,0,0
-2.06173990591196E-05,5.35829713044222E-06,1.58203125,0,0
-1.8453067241353E-05,5.68270615985966E-06,1.58203125,0,0
-1.71428691828623E-05,5.3038843361719E-06,1.58203125,0,0
-1.83736156031955E-05,4.50573134003207E-06,1.58203125,0,0
-2.08887031476479E-05,4.22698894908535E-06,1.58203125,0,0
-1.78450700332178E-05,3.56932491740736E-06,1.58203125,0,0
-2.46817853621906E-05,5.65976961297565E-06,1.58203125,0,0
-1.67337893799413E-05,5.32339572600904E-06,1.58203125,0,0
-2.02283554244787E-05,4.54919063486159E-06,1.58203125,0,0
-1.63016266014893E-05,2.28851945394126E-06,1.58203125,0,0
-1.90618357009953E-05,4.14966189055122E-06,1.58203125,0,0
-1.96300316019915E-05,4.93437255499884E-06,1.58203125,0,0
-2.2344707758748E-05,4.42370583186857E-06,1.58203125,0,0
-2.1292689780239E-05,4.17614455727744E-06,1.58203125,0,0
-2.01719467440853E-05,5.30957004230004E-06,1.58203125,0,0
-1.9561772205634E-05,5.23709923072602E-06,1.58203125,0,0
-1.94653621292673E-05,3.28839655594493E-06,1.58203125,0,0
-2.15779527934501E-05,1.81588029590785E-06,1.58203125,0,0
-2.08160890906584E-05,1.35661503009032E-06,1.58203125,0,0
-2.10804410016863E-05,2.47076741288765E-06,1.58203125,0,0
-2.14295487239724E-05,3.60405829269439E-06,1.58203125,0,0
-2.50157299888087E-05,5.15650617671781E-06,1.58203125,0,0
-2.63486090261722E-05,6.25741677140468E-06,1.58203125,0,0
-2.81381944660097E-05,8.37758761917939E-06,1.58203125,0,0
-2.74607773462776E-05,1.09902266558493E-05,1.58203125,0,0
-2.81574193650158E-05,1.29693544295151E-05,1.58203125,0,0
-2.8009857487632E-05,1.22689534691744E-05,1.58203125,0,0
-2.8292866772972E-05,1.24108200907358E-05,1.58203125,0,0
-2.68503717961721E-05,1.42998751471168E-05,1.58203125,0,0
-2.61048880929593E-05,1.55438574438449E-05,1.58203125,0,0
-2.52695772360312E-05,1.58129441842902E-05,1.58203125,0,0
-2.40244935412193E-05,1.55960569827585E-05,1.58203125,0,0
-1.70241346495459E-05,1.11355147964787E-05,1.58203125,0,0
-2.23439674300607E-05,1.33985831780592E-05,1.58203125,0,0
-1.48812987390556E-05,7.3002111093956E-06,1.58203125,0,0
-1.97711851797067E-05,1.02943176898407E-05,1.58203125,0,0
-1.59350838657701E-05,8.86812631506473E-06,1.58203125,0,0
-1.70795537997037E-05,1.29087593450095E-05,1.58203125,0,0
-1.45214280564687E-05,1.10184873847174E-05,1.58203125,0,0
-1.62463147717062E-05,9.24534106161445E-06,1.58203125,0,0
-1.65489418577636E-05,6.83468033457757E-06,1.58203125,0,0
-1.71973533724668E-05,5.87086924497271E-06,1.58203125,0,0
-1.8254326278111E-05,7.048769020912E-06,1.58203125,0,0
-2.07056436920539E-05,9.76782212092076E-06,1.58203125,0,0
-2.53597318078391E-05,1.18045563795022E-05,1.58203125,0,0
-2.5879524400807E-05,1.00001834653085E-05,1.58203125,0,0
-2.56745734077413E-05,9.63400907494361E-06,1.58203125,0,0
-2.48223805101588E-05,1.05162489489885E-05,1.58203125,0,0
-2.8512080461951E-05,1.38865789267584E-05,1.58203125,0,0
-3.02555909001967E-05,1.40901602208032E-05,1.58203125,0,0
-3.21615589200519E-05,1.45502017403487E-05,1.58203125,0,0
-3.08841554215178E-05,1.40956326504238E-05,1.58203125,0,0
-2.90001662506256E-05,1.45786498251255E-05,1.58203125,0,0
-2.55932081927313E-05,1.31142523969174E-05,1.58203125,0,0
-2.60687011177652E-05,1.13471805889276E-05,1.58203125,0,0
-2.76256887445925E-05,9.95576647255803E-06,1.58203125,0,0
-2.83897898043506E-05,1.08564272522926E-05,1.58203125,0,0
-2.70711825578474E-05,1.14302538349875E-05,1.58203125,0,0
-2.59024909610162E-05,1.12282477857661E-05,1.58203125,0,0
-2.13818784686737E-05,9.13354051590431E-06,1.58203125,0,0
-3.03736542264232E-05,1.41378723128582E-05,1.58203125,0,0
-2.20262063521659E-05,1.4394118807104E-05,1.58203125,0,0
-2.72365305136191E-05,1.86381748790154E-05,1.58203125,0,0
-2.42725836869795E-05,1.55817851918982E-05,1.58203125,0,0
-2.89935287582921E-05,1.64046014106134E-05,1.58203125,0,0
-2.87467773887329E-05,1.54505287355278E-05,1.58203125,0,0
-3.00132542179199E-05,1.5418512703036E-05,1.58203125,0,0
-2.77276794804493E-05,1.55556645040633E-05,1.58203125,0,0
-2.56181829172419E-05,1.64707307703793E-05,1.58203125,0,0
-2.47990174102597E-05,1.65774472407065E-05,1.58203125,0,0
-2.42271489696577E-05,1.46756865433417E-05,1.58203125,0,0
-2.46804538619472E-05,1.34498241095571E-05,1.58203125,0,0
-2.3496477297158E-05,1.34116398839979E-05,1.58203125,0,0
-2.52470472332789E-05,1.66386853379663E-05,1.58203125,0,0
-2.4084392862278E-05,1.83461288543185E-05,1.58203125,0,0
-2.45265455305343E-05,1.93383202713449E-05,1.58203125,0,0
-2.38105985772563E-05,1.94540552911349E-05,1.58203125,0,0
-2.65708440565504E-05,2.10588386835298E-05,1.58203125,0,0
-2.79555733868619E-05,2.11309306905605E-05,2.109375,0,0
-3.06853617075831E-05,2.00226895685773E-05,2.109375,0,0
-3.2165120501304E-05,1.70293769770069E-05,2.109375,0,0
-3.38557329087052E-05,1.45238846016582E-05,2.109375,0,0
-3.27352790918667E-05,1.48796871144441E-05,2.109375,0,0
-3.12166484945919E-05,1.91983508557314E-05,2.109375,0,0
-3.08642047457397E-05,1.97842218767619E-05,2.109375,0,0
-3.18977217830252E-05,1.60749241331359E-05,2.109375,0,0
-2.57375813816907E-05,1.04771206679288E-05,2.109375,0,0
-3.4989439882338E-05,1.56989190145396E-05,2.109375,0,0
-2.33149239647901E-05,1.32494815261452E-05,2.109375,0,0
-2.77954950433923E-05,1.37501556309871E-05,2.109375,0,0
-2.08287910936633E-05,7.59750946599524E-06,2.109375,0,0
-2.31596495723352E-05,9.30022360989824E-06,2.109375,0,0
-1.90935261343839E-05,9.63285492616706E-06,2.109375,0,0
-1.83300871867687E-05,9.7988286142936E-06,2.109375,0,0
-1.57959839270916E-05,8.74998568178853E-06,2.109375,0,0
-1.54734789248323E-05,7.68478548707208E-06,2.109375,0,0
-1.5447874829988E-05,6.4453874983883E-06,2.109375,0,0
-1.52204793266719E-05,5.59467980565387E-06,2.109375,0,0
-1.71845695149386E-05,6.11509221926099E-06,2.109375,0,0
-1.64156735991128E-05,5.89091951042064E-06,2.109375,0,0
-1.82664498424856E-05,6.2906706261856E-06,2.109375,0,0
-1.75861805473687E-05,4.72229021397652E-06,2.109375,0,0
-1.98669149540365E-05,5.40288692718605E-06,2.109375,0,0
-1.88147641893011E-05,6.65268362354254E-06,2.109375,0,0
-2.04592433874495E-05,8.42456211103126E-06,2.109375,0,0
-2.14705269172555E-05,7.65482946007978E-06,2.109375,0,0
-2.46739182330202E-05,7.45552688385942E-06,2.109375,0,0
-2.48710257437779E-05,6.9382190304168E-06,2.109375,0,0
-2.63772908510873E-05,6.80876064507174E-06,2.109375,0,0
-2.65088510786882E-05,6.10786264587659E-06,2.109375,0,0
-2.74031935987296E-05,7.08508150637499E-06,2.109375,0,0
-2.71083899860969E-05,8.68090955918888E-06,2.109375,0,0
-2.74913418252254E-05,9.93919547909172E-06,2.109375,0,0
-2.24842242459999E-05,1.06210327430745E-05,2.109375,0,0
-3.07265981973615E-05,1.5879482816672E-05,2.109375,0,0
-2.22576782107353E-05,1.2654921192734E-05,2.109375,0,0
-2.81154025287833E-05,1.49683273775736E-05,2.109375,0,0
-2.1684072635253E-05,1.37162687678938E-05,2.109375,0,0
-2.3311209588428E-05,1.73341104527935E-05,2.109375,0,0
-2.06703698495403E-05,1.68699989444576E-05,2.109375,0,0
-2.1648409529007E-05,1.5615121810697E-05,2.109375,0,0
-2.09944082598668E-05,1.31440774566727E-05,2.109375,0,0
-2.17072793020634E-05,1.15812736112275E-05,2.109375,0,0
-2.27154650929151E-05,1.1313867616991E-05,2.109375,0,0
-2.30369569180766E-05,9.64940682024462E-06,2.109375,0,0
-2.55762533925008E-05,7.86797954788199E-06,2.109375,0,0
-2.55932282016147E-05,6.29717715128209E-06,2.109375,0,0
-2.79701744148042E-05,6.74141301715281E-06,2.109375,0,0
-2.79455689451424E-05,5.57444036530796E-06,2.109375,0,0
-2.95907848339994E-05,4.94949426865787E-06,2.109375,0,0
-2.83130266325315E-05,3.95091046812013E-06,2.109375,0,0
-2.91445521725109E-05,4.59894499726943E-06,2.109375,0,0
-2.7655079975375E-05,4.0994304981723E-06,2.109375,0,0
-2.86318827420473E-05,2.68646590484423E-06,2.109375,0,0
-2.89851996058133E-05,7.38656979137886E-07,2.109375,0,0
-2.95712525257841E-05,1.36202220346604E-06,2.109375,0,0
-2.87340808426961E-05,3.02393800666323E-06,2.109375,0,0
-2.98982704407535E-05,6.47231627226574E-06,2.109375,0,0
-2.98573540931102E-05,8.92640036909143E-06,2.109375,0,0
-2.89467679976951E-05,8.70425174070988E-06,2.109375,0,0
-2.32847924053203E-05,6.96346069162246E-06,2.109375,0,0
-3.33514362864662E-05,1.10331666292041E-05,2.109375,0,0
-2.45917890424607E-05,9.25864060263848E-06,2.109375,0,0
-2.83602421404794E-05,9.96440667222487E-06,2.109375,0,0
-2.26978700084146E-05,8.26010273158317E-06,2.109375,0,0
-2.79291343758814E-05,9.54710139922099E-06,2.109375,0,0
-2.85334208456334E-05,9.74666727415752E-06,2.109375,0,0
-3.08781418425497E-05,1.08962058220641E-05,2.109375,0,0
-2.92778440780239E-05,1.16469627755578E-05,2.109375,0,0
-2.86879676423268E-05,1.12624484245316E-05,2.109375,0,0
-2.89685485768132E-05,9.37431104830466E-06,2.109375,0,0
-2.84606412606081E-05,7.13322333467659E-06,2.109375,0,0
-2.85549758700654E-05,5.42049247087562E-06,2.109375,0,0
-2.5442164769629E-05,3.55512315763917E-06,2.109375,0,0
-2.47979296545964E-05,3.65228288501385E-06,2.109375,0,0
-2.19843823288102E-05,3.6307530990598E-06,2.109375,0,0
-2.09895624720957E-05,3.19556147587718E-06,2.109375,0,0
-1.78198588400846E-05,2.84860084320826E-06,2.109375,0,0
-1.90544815268368E-05,4.24996414949419E-06,2.109375,0,0
-1.87883706530556E-05,4.22433549829293E-06,2.109375,0,0
-1.87568384717451E-05,4.62197067463421E-06,2.109375,0,0
-1.63340882863849E-05,5.02951888847747E-06,2.109375,0,0
-1.50552241393598E-05,5.79968036618084E-06,2.109375,0,0
-1.39310823215055E-05,4.9538421080797E-06,2.109375,0,0
-1.57204303832259E-05,2.91500941784761E-06,2.109375,0,0
-1.77578331204131E-05,3.57425437869097E-06,2.109375,0,0
-1.83710144483484E-05,7.79692254582187E-06,2.109375,0,0
-1.4466883840214E-05,8.42730332806241E-06,2.109375,0,0
-2.13986968446989E-05,1.13539535959717E-05,2.109375,0,0
-1.83948541234713E-05,7.92397440818604E-06,2.109375,0,0
-2.3524085918325E-05,1.05108611023752E-05,2.109375,0,0
-2.0659013898694E-05,6.96708366376697E-06,2.109375,0,0
-2.24068207899109E-05,6.47050910629332E-06,2.109375,0,0
-2.234543353552E-05,6.71542875352316E-06,2.109375,0,0
-2.47936859523179E-05,9.19818376132753E-06,2.109375,0,0
-2.53214238910005E-05,1.03300599221257E-05,2.109375,0,0
-2.52703612204641E-05,1.04993332570302E-05,2.109375,0,0
-2.53271973633673E-05,1.12228135549231E-05,2.109375,0,0
-2.49481017817743E-05,1.15957709567738E-05,2.109375,0,0
-2.4855691663106E-05,1.17987765406724E-05,2.109375,0,0
-2.42923542828066E-05,1.13255091491737E-05,2.109375,0,0
-2.63252532022307E-05,1.26459808598156E-05,2.109375,0,0
-2.57546289503807E-05,1.35116924866452E-05,2.109375,0,0
-2.50504326686496E-05,1.4773854672967E-05,2.109375,0,0
-2.37431249843212E-05,1.35308764583897E-05,2.109375,0,0
-2.62910089077195E-05,1.11861863842933E-05,2.109375,0,0
-2.83135632344056E-05,9.50327194004785E-06,2.109375,0,0
-3.04559362120926E-05,1.2314028936089E-05,2.109375,0,0
-3.04040495393565E-05,1.55274574353825E-05,2.109375,0,0
-2.98650265904143E-05,1.77477104443824E-05,2.109375,0,0
-2.82326309388736E-05,1.83174379344564E-05,2.109375,0,0
-2.71928784059128E-05,1.81539508048445E-05,2.109375,0,0
-2.72839170065708E-05,1.86018496606266E-05,2.109375,0,0
-2.82835771940881E-05,1.89416878129123E-05,2.109375,0,0
-2.20373076444957E-05,1.50917558130459E-05,2.109375,0,0
-3.07117988995742E-05,1.88687499758089E-05,2.109375,0,0
-2.26652737183031E-05,1.00065562946838E-05,2.109375,0,0
-2.79058149317279E-05,1.31375827550073E-05,2.109375,0,0
-2.22413000301458E-05,1.04873115560622E-05,2.109375,0,0
-2.53824891842669E-05,1.34502406581305E-05,2.109375,0,0
-2.22485195990885E-05,1.13135611172765E-05,2.109375,0,0
-2.22574471990811E-05,1.30774969875347E-05,2.109375,0,0
-2.13191124203149E-05,1.59598621394252E-05,2.109375,0,0
-2.14193405554397E-05,1.86304441740504E-05,2.109375,0,0
-2.05261021619663E-05,1.97725003090454E-05,2.109375,0,0
-1.85330209205858E-05,2.04639218281955E-05,2.109375,0,0
-1.99224832613254E-05,2.25440180656733E-05,2.109375,0,0
-2.05685882974649E-05,2.06139866349986E-05,2.109375,0,0
-2.31171507039107E-05,1.87318873940967E-05,2.109375,0,0
-2.20331767195603E-05,1.56050755322212E-05,2.109375,0,0
-2.31568919843994E-05,1.53906585182995E-05,2.109375,0,0
-2.26970078074373E-05,1.47262726386543E-05,2.109375,0,0
-2.45726259890944E-05,1.64847406267654E-05,2.109375,0,0
-2.36082432820695E-05,1.84442360477988E-05,2.109375,0,0
-2.30757796089165E-05,2.3126405721996E-05,2.109375,0,0
-2.02037790586473E-05,2.42038604483241E-05,2.109375,0,0
-1.99680816876935E-05,2.23529514187248E-05,2.109375,0,0
-2.04010138986632E-05,1.84382752195233E-05,2.109375,0,0
-2.05966080102371E-05,1.48866392919444E-05,2.109375,0,0
-1.8433662262396E-05,1.29151394503424E-05,2.109375,0,0
-1.63492331921589E-05,1.17089848572505E-05,2.109375,0,0
-1.50166342791636E-05,9.14544671104522E-06,2.109375,0,0
-2.49274180532666E-05,1.29414856928634E-05,2.109375,0,0
-2.3507471269113E-05,1.05384006019449E-05,2.109375,0,0
-2.59630469372496E-05,1.29767977341544E-05,2.109375,0,0
-2.07254724955419E-05,1.04016507975757E-05,2.109375,0,0
-2.06800996238599E-05,1.10811079139239E-05,2.109375,0,0
-1.96742785192328E-05,9.70091423369013E-06,2.109375,0,0
-2.28565168072237E-05,1.08133735921001E-05,2.109375,0,0
-2.46406580117764E-05,1.03914162536967E-05,2.109375,0,0
-2.6017012714874E-05,8.77845195645932E-06,2.109375,0,0
-2.77712097158656E-05,8.41607925394783E-06,2.109375,0,0
-2.7545849661692E-05,9.71628378465539E-06,2.109375,0,0
-2.63506008195691E-05,1.12310226541013E-05,2.109375,0,0
-2.4194281650125E-05,1.04428700069548E-05,2.109375,0,0
-2.49591794272419E-05,1.01524065030389E-05,2.109375,0,0
-2.45750143221812E-05,8.34044658404309E-06,2.109375,0,0
-2.50383473030524E-05,8.1695216067601E-06,2.109375,0,0
-2.39256642089458E-05,8.54810241435189E-06,2.109375,0,0
-2.40762728935806E-05,1.10946093627717E-05,2.109375,0,0
-2.28019071073504E-05,1.30148491734872E-05,2.109375,0,0
-2.25409821723588E-05,1.45759413499036E-05,2.109375,0,0
-2.14329793379875E-05,1.37863244162872E-05,2.109375,0,0
-2.11001079151174E-05,1.31943852466065E-05,2.109375,0,0
-2.08145902433898E-05,1.23199488371029E-05,2.109375,0,0
-2.13750390685163E-05,1.23810968943872E-05,2.109375,0,0
-2.07959437830141E-05,1.43149745781557E-05,2.109375,0,0
-1.8118582374882E-05,1.64491630130215E-05,2.109375,0,0
-1.19847536552697E-05,1.22400324471528E-05,2.109375,0,0
-1.62381129484857E-05,1.49320640048245E-05,2.109375,0,0
-1.34797401187825E-05,9.75929378910223E-06,2.109375,0,0
-2.00167414732277E-05,1.37578354042489E-05,2.109375,0,0
-2.00263093574904E-05,9.27083328861045E-06,2.109375,0,0
-2.30965451919474E-05,1.07557771116262E-05,2.109375,0,0
-2.07765824598027E-05,1.05480139609426E-05,2.109375,0,0
-2.03363069886109E-05,1.2473597053031E-05,2.109375,0,0
-1.94142867258051E-05,1.23798690765398E-05,2.109375,0,0
-1.9433609850239E-05,1.37695515149971E-05,2.109375,0,0
-1.93685264093801E-05,1.3684530131286E-05,2.109375,0,0
-1.83860756806098E-05,1.02949252323015E-05,2.109375,0,0
-1.90577848115936E-05,7.47940794099122E-06,2.109375,0,0
-1.96666351257591E-05,3.82623147743288E-06,2.109375,0,0
-2.0863844838459E-05,3.4122308534279E-06,2.109375,0,0
-1.85157878149766E-05,3.24577240462531E-06,2.109375,0,0
-1.74785072886152E-05,5.55843280380941E-06,2.109375,0,0
-1.69349677889841E-05,6.66759478917811E-06,2.109375,0,0
-1.90262107935268E-05,8.16280589788221E-06,2.109375,0,0
-2.05580836336594E-05,6.20144419372082E-06,2.109375,0,0
-2.26905522140441E-05,5.78794833927532E-06,2.109375,0,0
-2.25730072997976E-05,5.63599496672396E-06,2.109375,0,0
-2.29416400543414E-05,5.63699677513796E-06,2.109375,0,0
-2.21558002522215E-05,4.76977038488258E-06,2.109375,0,0
-2.16677672142396E-05,3.41814529747353E-06,2.109375,0,0
-2.18484055949375E-05,1.39836072321486E-06,2.109375,0,0
-2.2219363017939E-05,2.15543605008861E-06,2.109375,0,0
-1.91904709936352E-05,3.02310854749521E-06,2.109375,0,0
-2.88694645860232E-05,4.6247864702309E-06,2.109375,0,0
-2.32077127293451E-05,3.59000728167302E-06,2.109375,0,0
-2.87265811493853E-05,3.4796621548594E-06,2.109375,0,0
-2.68081275862642E-05,3.23070958074823E-06,2.109375,0,0
-3.05037738144165E-05,4.83159647046705E-06,2.109375,0,0
-2.81973989331163E-05,4.34351841249736E-06,2.109375,0,0
-2.86281137960032E-05,3.26088684232673E-06,2.109375,0,0
-3.015384390892E-05,3.23747781294514E-06,2.109375,0,0
-3.31274859490804E-05,3.71550754607597E-06,2.109375,0,0
-3.50067202816717E-05,4.57983469459577E-06,2.109375,0,0
-3.49847505276557E-05,6.32234832664835E-06,2.109375,0,0
-3.61538914148696E-05,7.23776520317188E-06,2.109375,0,0
-3.58142569893971E-05,6.29080068392796E-06,2.109375,0,0
-3.7818361306563E-05,7.13840836397139E-06,2.109375,0,0
-3.80095989385154E-05,9.71712506725453E-06,2.109375,0,0
-3.88941043638624E-05,1.18383322842419E-05,2.109375,0,0
-3.67795655620284E-05,1.18824718811084E-05,2.109375,0,0
-3.69409972336143E-05,1.15490574899013E-05,2.109375,0,0
-3.65566593245603E-05,1.22529390864656E-05,2.109375,0,0
-3.71310161426663E-05,1.40197462314973E-05,2.109375,0,0
-3.60110061592422E-05,1.42792814585846E-05,2.109375,0,0
-3.51995076925959E-05,1.30225816974416E-05,2.109375,0,0
-3.29897120536771E-05,1.24236075862427E-05,2.109375,0,0
-3.1985360692488E-05,1.42400049298885E-05,2.109375,0,0
-3.20033323077951E-05,1.63653603522107E-05,2.109375,0,0
-3.20671242661774E-05,1.72540803760057E-05,2.109375,0,0
-2.51728324656142E-05,1.48189265019028E-05,2.109375,0,0
-3.423653106438E-05,2.13762541534379E-05,2.109375,0,0
-2.35892803175375E-05,1.59331229951931E-05,2.109375,0,0
-2.88885839836439E-05,1.81150717253331E-05,2.109375,0,0
-2.23411752813263E-05,1.40532911245828E-05,2.109375,0,0
-2.54577862506267E-05,1.73470798472408E-05,2.109375,0,0
-2.28010521823308E-05,1.68886745086638E-05,2.109375,0,0
-2.52469399129041E-05,1.64072189363651E-05,2.109375,0,0
-2.472500091244E-05,1.3699564988201E-05,2.109375,0,0
-2.42719688685611E-05,1.24086227515363E-05,2.109375,0,0
-2.41382804233581E-05,1.22244837257313E-05,2.109375,0,0
-2.31771537073655E-05,1.1449800695118E-05,2.109375,0,0
-2.40467034018366E-05,9.86148188530933E-06,2.109375,0,0
-2.22701746679377E-05,6.7245032369101E-06,2.109375,0,0
-2.33139253396075E-05,7.01035787642468E-06,2.109375,0,0
-2.13498788070865E-05,7.63138723414158E-06,2.109375,0,0
-2.15515665331623E-05,1.04597993413336E-05,2.109375,0,0
-1.89448965102201E-05,1.08382428152254E-05,2.109375,0,0
-1.939081994351E-05,1.10697274067206E-05,2.109375,0,0
-1.74101187440101E-05,8.93335891305469E-06,2.109375,0,0
-1.73120042745722E-05,9.03514592209831E-06,2.109375,0,0
-1.73205389728537E-05,8.89338025444886E-06,2.109375,0,0
-2.06246422749246E-05,8.7048265413614E-06,2.109375,0,0
-2.17219603655394E-05,7.78661797085078E-06,2.109375,0,0
-2.18998302443651E-05,7.92038645158755E-06,2.98828125,0,0
-2.22058442886919E-05,7.38696644475567E-06,2.98828125,0,0
-2.3551676349598E-05,4.82657424072386E-06,2.98828125,0,0
-1.81344512384385E-05,8.55901532759162E-07,2.98828125,0,0
-2.47919906541938E-05,1.51864378494793E-06,2.98828125,0,0
-1.86824527190765E-05,5.66792778045055E-06,2.98828125,0,0
-2.4399058020208E-05,9.68703807302518E-06,2.98828125,0,0
-1.87321329576662E-05,8.10356686997693E-06,2.98828125,0,0
-1.82121420948533E-05,7.35145704311435E-06,2.98828125,0,0
-1.58019101945683E-05,7.33023898646934E-06,2.98828125,0,0
-1.82942731044022E-05,7.06771606928669E-06,2.98828125,0,0
-1.86438828677638E-05,7.07465414961916E-06,2.98828125,0,0
-1.88049452845007E-05,6.66689447825775E-06,2.98828125,0,0
-1.91981707757805E-05,5.24928145750891E-06,2.98828125,0,0
-1.90380906133214E-05,4.71518751510303E-06,2.98828125,0,0
-2.03735817194683E-05,5.27207976119826E-06,2.98828125,0,0
-1.98273555724882E-05,5.34922946826555E-06,2.98828125,0,0
-2.02900937438244E-05,6.8818394538539E-06,2.98828125,0,0
-1.83101292350329E-05,9.53151902649552E-06,2.98828125,0,0
-1.91111612366512E-05,1.21313487397856E-05,2.98828125,0,0
-1.8846663806471E-05,1.32827062770957E-05,2.98828125,0,0
-2.104355917254E-05,1.31840779431514E-05,2.98828125,0,0
-2.22186663449975E-05,1.13599489850458E-05,2.98828125,0,0
-2.49625009018928E-05,8.96320852916688E-06,2.98828125,0,0
-2.61447676166426E-05,7.29311977920588E-06,2.98828125,0,0
-2.74779395113001E-05,7.55636347093969E-06,2.98828125,0,0
-2.76935206784401E-05,1.01142622952466E-05,2.98828125,0,0
-2.8306492822594E-05,1.38722543852055E-05,2.98828125,0,0
-2.84265788650373E-05,1.67079433595063E-05,2.98828125,0,0
-3.00627143587917E-05,1.61023490363732E-05,2.98828125,0,0
-2.62708781519905E-05,1.07358519016998E-05,2.98828125,0,0
-3.7352780054789E-05,1.37299193738727E-05,2.98828125,0,0
-2.7956015401287E-05,1.01003161034896E-05,2.98828125,0,0
-3.51651251548901E-05,1.45853255162365E-05,2.98828125,0,0
-3.10828363581095E-05,1.07680807559518E-05,2.98828125,0,0
-3.55196061718743E-05,1.00451579783112E-05,2.98828125,0,0
-3.22061277984176E-05,6.90511478751432E-06,2.98828125,0,0
-3.20824947266374E-05,6.81021356285783E-06,2.98828125,0,0
-2.9688393624383E-05,6.95323706167983E-06,2.98828125,0,0
-2.82367382169468E-05,9.2112513812026E-06,2.98828125,0,0
-2.75703205261379E-05,1.16497294584406E-05,2.98828125,0,0
-2.59555836237269E-05,1.26645636555622E-05,2.98828125,0,0
-2.65373728325358E-05,1.42045309985406E-05,2.98828125,0,0
-2.53936595981941E-05,1.36525413836353E-05,2.98828125,0,0
-2.70466443907935E-05,1.34852580231382E-05,2.98828125,0,0
-2.54739261436043E-05,1.22863730211975E-05,2.98828125,0,0
-2.59274074778659E-05,1.34895071823848E-05,2.98828125,0,0
-2.26403135457076E-05,1.38069199238089E-05,2.98828125,0,0
-2.18074310396332E-05,1.6010322724469E-05,2.98828125,0,0
-2.01116454263683E-05,1.81528066605097E-05,2.98828125,0,0
-2.09530644497136E-05,2.00914128072327E-05,2.98828125,0,0
-1.96176024473971E-05,1.92789902939694E-05,2.98828125,0,0
-1.98976758838398E-05,1.83272968570236E-05,2.98828125,0,0
-1.92362458619755E-05,1.70468883879948E-05,2.98828125,0,0
-1.79346861841623E-05,1.76163066498702E-05,2.98828125,0,0
-1.55254947458161E-05,1.74111755768536E-05,2.98828125,0,0
-1.48689732668572E-05,1.59737774083624E-05,2.98828125,0,0
-1.18901934911264E-05,1.32091508930898E-05,2.98828125,0,0
-1.65282162924996E-05,1.8767241272144E-05,2.98828125,0,0
-1.14803415272036E-05,1.40577694764943E-05,2.98828125,0,0
-1.36369344545528E-05,1.76683770405361E-05,2.98828125,0,0
-1.14125650725327E-05,1.52177981362911E-05,2.98828125,0,0
-1.33312523757922E-05,1.66957033798099E-05,2.98828125,0,0
-1.28733572637429E-05,1.42947219501366E-05,2.98828125,0,0
-1.43834895425243E-05,1.32365794343059E-05,2.98828125,0,0
-1.56282949319575E-05,1.18178095362964E-05,2.98828125,0,0
-1.68387887242716E-05,1.18057323561516E-05,2.98828125,0,0
-1.69612685567699E-05,1.19019869089243E-05,2.98828125,0,0
-1.66785885085119E-05,1.08464300865307E-05,2.98828125,0,0
-1.78873233380727E-05,1.00320739875315E-05,2.98828125,0,0
-1.82438034244115E-05,7.90162084740587E-06,2.98828125,0,0
-1.82843650691211E-05,7.78240155341337E-06,2.98828125,0,0
-1.63728927873308E-05,7.10924086888554E-06,2.98828125,0,0
-1.6810397937661E-05,9.42746100918157E-06,2.98828125,0,0
-1.80533133971039E-05,1.19131882456713E-05,2.98828125,0,0
-2.17036249523517E-05,1.44286350405309E-05,2.98828125,0,0
-2.28667340707034E-05,1.32486429720302E-05,2.98828125,0,0
-2.23983988689724E-05,1.19401629490312E-05,2.98828125,0,0
-2.07077100640163E-05,1.00681172625627E-05,2.98828125,0,0
-2.17394645005697E-05,9.30261103349039E-06,2.98828125,0,0
-2.43253034568625E-05,8.22652964416193E-06,2.98828125,0,0
-2.70808977802517E-05,8.6595791799482E-06,2.98828125,0,0
-2.87161456071772E-05,9.93314279185142E-06,2.98828125,0,0
-2.91188534902176E-05,1.0599683264445E-05,2.98828125,0,0
-2.38088159676408E-05,6.41138831269927E-06,2.98828125,0,0
-3.46702072420157E-05,8.03374769020593E-06,2.98828125,0,0
-2.8206430215505E-05,6.42401892037014E-06,2.98828125,0,0
-3.56541895598639E-05,8.93459946382791E-06,2.98828125,0,0
-3.14992794301361E-05,6.05262221142766E-06,2.98828125,0,0
-3.52446149918251E-05,7.68794416217133E-06,2.98828125,0,0
-3.34897922584787E-05,8.52783705340698E-06,2.98828125,0,0
-3.58667930413503E-05,8.58385192259448E-06,2.98828125,0,0
-3.49749243468978E-05,7.36475021767546E-06,2.98828125,0,0
-3.44764193869196E-05,6.85600298311329E-06,2.98828125,0,0
-3.36261764459778E-05,6.2474991864292E-06,2.98828125,0,0
-3.09867573378142E-05,6.23732239546371E-06,2.98828125,0,0
-2.87515194941079E-05,7.13306417310378E-06,2.98828125,0,0
-2.35639236052521E-05,7.20730849934625E-06,2.98828125,0,0
-2.09728095796891E-05,9.13824715098599E-06,2.98828125,0,0
-1.60533782036509E-05,1.08562444438576E-05,2.98828125,0,0
-1.36306616695947E-05,1.18881871458143E-05,2.98828125,0,0
-9.38398898142623E-06,1.00787392511847E-05,2.98828125,0,0
-9.31112299440429E-06,8.18492299003992E-06,2.98828125,0,0
-7.81009111960884E-06,6.16036959399935E-06,2.98828125,0,0
-7.38364542485215E-06,6.46823764327564E-06,2.98828125,0,0
-5.57809198653558E-06,7.38418975743116E-06,2.98828125,0,0
-6.59936858937726E-06,8.99353290151339E-06,2.98828125,0,0
-6.90869001118699E-06,1.01993373391451E-05,2.98828125,0,0
-7.25142444935045E-06,1.16930423246231E-05,2.98828125,0,0
-6.90235447109444E-06,1.30368598547648E-05,2.98828125,0,0
-8.59621468407568E-06,1.29768113765749E-05,2.98828125,0,0
-9.45171541388845E-06,9.65834351518424E-06,2.98828125,0,0
-1.42141652759165E-05,1.40116271722945E-05,2.98828125,0,0
-1.06857305581798E-05,1.16031087600277E-05,2.98828125,0,0
-1.18526222649962E-05,1.35035952553153E-05,2.98828125,0,0
-1.122036792367E-05,9.34199397306656E-06,2.98828125,0,0
-1.43712959470577E-05,1.10679138742853E-05,2.98828125,0,0
-1.64593966474058E-05,1.25718015624443E-05,2.98828125,0,0
-1.95966658793623E-05,1.3859807040717E-05,2.98828125,0,0
-2.1285410184646E-05,1.18977386591723E-05,2.98828125,0,0
-2.29800316446926E-05,1.00259985629236E-05,2.98828125,0,0
-2.5627450668253E-05,9.28080498852069E-06,2.98828125,0,0
-2.72270917776041E-05,1.04096652648877E-05,2.98828125,0,0
-2.70359796559205E-05,1.32587647385662E-05,2.98828125,0,0
-2.4723680326133E-05,1.4631886187999E-05,2.98828125,0,0
-2.377789496677E-05,1.42279914143728E-05,2.98828125,0,0
-2.36446012422675E-05,1.05671606434043E-05,2.98828125,0,0
-2.57893352682004E-05,8.99719998415094E-06,2.98828125,0,0
-2.7469803171698E-05,8.51786990097025E-06,2.98828125,0,0
-2.93511620839126E-05,9.75375769485254E-06,2.98828125,0,0
-2.97045535262441E-05,9.99333042273065E-06,2.98828125,0,0
-3.09228125843219E-05,1.1649429325189E-05,2.98828125,0,0
-3.26159388350789E-05,1.25343358376995E-05,2.98828125,0,0
-3.43986212101299E-05,1.25799388115411E-05,2.98828125,0,0
-3.42219464073423E-05,1.02592703115079E-05,2.98828125,0,0
-3.40254628099501E-05,7.89505429565907E-06,2.98828125,0,0
-3.50738882843871E-05,5.81188487558393E-06,2.98828125,0,0
-3.74497722077649E-05,4.56013867733418E-06,2.98828125,0,0
-3.23536187352147E-05,4.24176505475771E-06,2.98828125,0,0
-4.72888605145272E-05,7.02900115356897E-06,2.98828125,0,0
-3.63935869245324E-05,8.39916265249485E-06,2.98828125,0,0
-4.294035534258E-05,1.12342850115965E-05,2.98828125,0,0
-3.3888645702973E-05,1.0536338777456E-05,2.98828125,0,0
-3.73830043827184E-05,1.11704184746486E-05,2.98828125,0,0
-3.42103521688841E-05,1.11706503957976E-05,2.98828125,0,0
-3.5477180063026E-05,1.1109762453998E-05,2.98828125,0,0
-3.28666938003153E-05,1.12215993794962E-05,2.98828125,0,0
-3.13185810227878E-05,1.27597040773253E-05,2.98828125,0,0
-3.04959139612038E-05,1.34440306283068E-05,2.98828125,0,0
-2.76163227681536E-05,1.33831608764012E-05,2.98828125,0,0
-2.74428566626739E-05,1.25083279272076E-05,2.98828125,0,0
-2.59686457866337E-05,1.09491047624033E-05,2.98828125,0,0
-2.91165106318658E-05,1.11045092126005E-05,2.98828125,0,0
-2.92981458187569E-05,1.15978200483369E-05,2.98828125,0,0
-3.14728968078271E-05,1.23394183901837E-05,2.98828125,0,0
-2.83161607512739E-05,1.25204333016882E-05,2.98828125,0,0
-2.73400401056279E-05,1.34851070470177E-05,2.98828125,0,0
-2.46448271354893E-05,1.36440703499829E-05,2.98828125,0,0
-2.58875606959919E-05,1.31937704281881E-05,2.98828125,0,0
-2.55083232332254E-05,1.01365194495884E-05,2.98828125,0,0
-2.72935685643461E-05,7.23337143426761E-06,2.98828125,0,0
-2.75900529231876E-05,7.74021646066103E-06,2.98828125,0,0
-2.84409052255796E-05,1.0149274203286E-05,2.98828125,0,0
-2.89818999590352E-05,1.0611375728331E-05,2.98828125,0,0
-2.90214011329226E-05,1.0236595699098E-05,2.98828125,0,0
-2.26266856770962E-05,7.75297121435869E-06,2.98828125,0,0
-3.27565576299094E-05,1.02487074400415E-05,2.98828125,0,0
-2.68519543169532E-05,7.38110838938155E-06,2.98828125,0,0
-3.31567644025199E-05,7.69532744016033E-06,2.98828125,0,0
-2.59942244156264E-05,2.68836629402358E-06,4.5703125,0,0
-2.6039766453323E-05,4.13205998484045E-06,4.5703125,0,0
-2.29598317673663E-05,4.34400453741546E-06,4.5703125,0,0
-2.4985674826894E-05,5.92953711020527E-06,4.5703125,0,0
-2.38059965340653E-05,9.22650178836193E-06,4.5703125,0,0
-2.23695460590534E-05,1.2996804798604E-05,4.5703125,0,0
-2.17288743442623E-05,1.4894130799803E-05,4.5703125,0,0
-2.10663565667346E-05,1.52935081132455E-05,4.5703125,0,0
-2.20237307075877E-05,1.55751167767448E-05,4.5703125,0,0
-2.07291268452536E-05,1.43891084007919E-05,4.5703125,0,0
-2.19347530219238E-05,1.39181956910761E-05,4.5703125,0,0
-2.02111004909966E-05,1.32683653646382E-05,4.5703125,0,0
-2.03444160433719E-05,1.45812882692553E-05,4.5703125,0,0
-1.87778041436104E-05,1.52144311869051E-05,4.5703125,0,0
-2.06809945666464E-05,1.58662551257294E-05,4.5703125,0,0
-2.07138818950625E-05,1.45990088640247E-05,4.5703125,0,0
-2.07401462830603E-05,1.39626272357418E-05,4.5703125,0,0
-1.70938419614686E-05,1.3002632840653E-05,4.5703125,0,0
-1.52076609083451E-05,1.23463496493059E-05,4.5703125,0,0
-1.44114046634058E-05,1.17037425297895E-05,4.5703125,0,0
-1.46606207636069E-05,1.18433799798368E-05,4.5703125,0,0
-1.38990080813528E-05,1.10419996417477E-05,4.5703125,0,0
-1.27159191833925E-05,1.04884693428176E-05,4.5703125,0,0
-1.08052408904769E-05,8.98754387890222E-06,4.5703125,0,0
-1.6289184713969E-05,1.2769634849974E-05,4.5703125,0,0
-1.32287805172382E-05,9.86363647825783E-06,4.5703125,0,0
-1.5895831893431E-05,1.18159614430624E-05,4.5703125,0,0
-1.56017104018247E-05,8.78112768987194E-06,4.5703125,0,0
-1.9550476281438E-05,9.71456483966904E-06,4.5703125,0,0
-2.03288673219504E-05,8.92710886546411E-06,4.5703125,0,0
-2.10482958209468E-05,9.28760891838465E-06,4.5703125,0,0
-2.04778370971326E-05,1.05547569546616E-05,4.5703125,0,0
-2.04080206458457E-05,1.39285502882558E-05,4.5703125,0,0
-2.09885984077118E-05,1.72385844052769E-05,4.5703125,0,0
-2.06063486984931E-05,1.65403216669802E-05,4.5703125,0,0
-2.06605582206976E-05,1.24099487948115E-05,4.5703125,0,0
-1.98084799194476E-05,8.61530224938178E-06,4.5703125,0,0
-2.0507399312919E-05,9.56857638811925E-06,4.5703125,0,0
-2.08502096938901E-05,1.14419917736086E-05,4.5703125,0,0
-2.27593900490319E-05,1.21447574201738E-05,4.5703125,0,0
-2.30297191592399E-05,8.92804382601753E-06,4.5703125,0,0
-2.2219768652576E-05,7.05314050719608E-06,4.5703125,0,0
-2.08508117793826E-05,6.34005755273392E-06,4.5703125,0,0
-2.39833243540488E-05,6.54596897220472E-06,4.5703125,0,0
-2.87161656160606E-05,5.30963052369771E-06,4.5703125,0,0
-3.27472771459725E-05,3.98803831558325E-06,4.5703125,0,0
-3.48084286088124E-05,2.74567787528213E-06,4.5703125,0,0
-3.63811559509486E-05,1.79322535132087E-06,4.5703125,0,0
-3.73165930795949E-05,1.61841569479293E-06,4.5703125,0,0
-3.61610218533315E-05,4.08632558901445E-06,4.5703125,0,0
-2.80085896520177E-05,4.78494439448696E-06,4.5703125,0,0
-4.0691731555853E-05,5.96308564126957E-06,4.5703125,0,0
-3.30080947605893E-05,3.78527943212248E-06,4.5703125,0,0
-4.10174798162188E-05,6.0997367654636E-06,4.5703125,0,0
-3.30545408360194E-05,5.35140770807629E-06,4.5703125,0,0
-3.42907260346692E-05,5.25146424479317E-06,4.5703125,0,0
-2.98293398373062E-05,5.15200736117549E-06,4.5703125,0,0
-3.09727438434493E-05,5.35167509951862E-06,4.5703125,0,0
-3.02324915537611E-05,4.18981153416098E-06,4.5703125,0,0
-3.11556323140394E-05,3.00094438898668E-06,4.5703125,0,0
-3.11639669234864E-05,2.56208591054019E-06,4.5703125,0,0
-2.90542247967096E-05,2.4386786208197E-06,4.5703125,0,0
-2.9483806429198E-05,2.77301160167553E-06,4.5703125,0,0
-2.86717440758366E-05,2.8762842703145E-06,4.5703125,0,0
-3.03715041809483E-05,4.36505433754064E-06,4.5703125,0,0
-2.7724337996915E-05,7.14039379090536E-06,4.5703125,0,0
-2.75576785497833E-05,1.04891987575684E-05,4.5703125,0,0
-2.51060973823769E-05,1.10550245153718E-05,4.5703125,0,0
-2.66895367531106E-05,9.4306569735636E-06,4.5703125,0,0
-2.6758571038954E-05,6.49318417345057E-06,4.5703125,0,0
-2.89124054688727E-05,6.23725736659253E-06,4.5703125,0,0
-2.69323954853462E-05,8.07442756922683E-06,4.5703125,0,0
-2.53463549597654E-05,1.09700013126712E-05,4.5703125,0,0
-2.46030504058581E-05,1.41915816129767E-05,4.5703125,0,0
-2.60447814071085E-05,1.50752175613889E-05,4.5703125,0,0
-2.51816036325181E-05,1.29824420582736E-05,4.5703125,0,0
-2.37719250435475E-05,1.07806608866667E-05,4.5703125,0,0
-1.97842182387831E-05,8.44069381855661E-06,4.5703125,0,0
-2.85410660580965E-05,1.33131998154568E-05,4.5703125,0,0
-2.08025703614112E-05,1.26980703498702E-05,4.5703125,0,0
-2.54640708590159E-05,1.43600345836603E-05,4.5703125,0,0
-2.40424924413674E-05,1.11601793832961E-05,4.5703125,0,0
-2.79393407254247E-05,1.28789688460529E-05,4.5703125,0,0
-2.56703806371661E-05,1.17517629405484E-05,4.5703125,0,0
-2.50174052780494E-05,1.11384679257753E-05,4.5703125,0,0
-2.25713047257159E-05,1.05081089714076E-05,4.5703125,0,0
-2.18765981117031E-05,1.10892742668511E-05,4.5703125,0,0
-2.25971707550343E-05,1.18986808956834E-05,4.5703125,0,0
-2.20571873796871E-05,1.0762169949885E-05,4.5703125,0,0
-2.19055418710923E-05,9.25928452488733E-06,4.5703125,0,0
-2.01632410607999E-05,8.33461308502592E-06,4.5703125,0,0
-2.13449729926651E-05,1.02357880678028E-05,4.5703125,0,0
-2.02115061256336E-05,1.08581916720141E-05,4.5703125,0,0
-2.0062543626409E-05,1.10634282464162E-05,4.5703125,0,0
-1.77518159034662E-05,1.04501204987173E-05,4.5703125,0,0
-1.74147844518302E-05,1.10914097604109E-05,4.5703125,0,0
-1.6210497051361E-05,1.09948668978177E-05,4.5703125,0,0
-1.74575561686652E-05,1.21756211228785E-05,4.5703125,0,0
-1.79290709638735E-05,1.26669510791544E-05,4.5703125,0,0
-1.88921694643795E-05,1.24580037663691E-05,4.5703125,0,0
-1.81859213626012E-05,1.25687056424795E-05,4.5703125,0,0
-1.79738908627769E-05,1.49036250149948E-05,4.5703125,0,0
-1.88805988727836E-05,1.70924522535643E-05,4.5703125,0,0
-2.06321510631824E-05,1.84664149855962E-05,4.5703125,0,0
-1.68946553458227E-05,1.48226927194628E-05,4.5703125,0,0
-2.28002882067813E-05,2.03221388801467E-05,4.5703125,0,0
-1.54434364958433E-05,1.26351078506559E-05,4.5703125,0,0
-1.93432897503953E-05,1.47628807098954E-05,4.5703125,0,0
-1.51103231473826E-05,1.30836479002028E-05,4.5703125,0,0
-1.62265532708261E-05,1.80229144461919E-05,4.5703125,0,0
-1.26530812849524E-05,1.68502137967153E-05,4.5703125,0,0
-1.11284025479108E-05,1.54998906509718E-05,4.5703125,0,0
-8.65133188199252E-06,1.31422857521102E-05,4.5703125,0,0
-7.97259235696401E-06,1.18592470244039E-05,4.5703125,0,0
-7.32020316718263E-06,1.20921040434041E-05,4.5703125,0,0
-5.21313450008165E-06,1.2432578841981E-05,4.5703125,0,0
-4.57037685919204E-06,1.30062699099653E-05,4.5703125,0,0
-2.65171365754213E-06,1.27045477711363E-05,4.5703125,0,0
-3.78693334823765E-06,1.52100792547571E-05,4.5703125,0,0
-5.70559677726123E-06,1.62241958605591E-05,4.5703125,0,0
-1.11719245978747E-05,1.74882115970831E-05,4.5703125,0,0
-1.4807395018579E-05,1.63132208399475E-05,4.5703125,0,0
-1.93934447452193E-05,1.65150031534722E-05,4.5703125,0,0
-2.1886924514547E-05,1.60088202392217E-05,4.5703125,0,0
-2.59642147284467E-05,1.73945772985462E-05,4.5703125,0,0
-2.94340989057673E-05,1.72008531080792E-05,4.5703125,0,0
-3.32083473040257E-05,1.7202186427312E-05,4.5703125,0,0
-3.43932770192623E-05,1.62430806085467E-05,4.5703125,0,0
-3.5041528462898E-05,1.53131259139627E-05,4.5703125,0,0
-3.50615846400615E-05,1.51374078996014E-05,4.5703125,0,0
-3.38703612214886E-05,1.55055404320592E-05,4.5703125,0,0
-2.69414758804487E-05,1.27996199807967E-05,4.5703125,0,0
-3.87258733098861E-05,1.58193724928424E-05,4.5703125,0,0
-3.02669322991278E-05,7.2705811362539E-06,4.5703125,0,0
-3.82959005946759E-05,1.00806910268147E-05,4.5703125,0,0
-3.34012693201657E-05,9.85796214081347E-06,4.5703125,0,0
-3.63730687240604E-05,1.29129221022595E-05,4.5703125,0,0
-3.18801976391114E-05,9.80710501607973E-06,4.5703125,0,0
-3.35599106620066E-05,8.49756725074258E-06,4.5703125,0,0
-3.44362924806774E-05,8.54162226460176E-06,4.5703125,0,0
-3.51691523974296E-05,8.10506116977194E-06,4.5703125,0,0
-3.40836195391603E-05,6.18980038780137E-06,4.5703125,0,0
-3.02426360576646E-05,4.93799507239601E-06,4.5703125,0,0
-2.7575581043493E-05,6.30828117209603E-06,4.5703125,0,0
-2.23597489821259E-05,6.4879664023465E-06,4.5703125,0,0
-2.03951931325719E-05,8.54961308505153E-06,4.5703125,0,0
-1.65567380463472E-05,9.99810526991496E-06,4.5703125,0,0
-1.58945422299439E-05,1.15048069346813E-05,4.5703125,0,0
-1.12999832708738E-05,9.56523126660613E-06,4.5703125,0,0
-1.02094272733666E-05,8.41471228341106E-06,4.5703125,0,0
-1.06853631223203E-05,7.33494516680366E-06,4.5703125,0,0
-1.57091490109451E-05,9.04300213733222E-06,4.5703125,0,0
-1.74349843291566E-05,1.05119243016816E-05,4.5703125,0,0
-1.82615549420007E-05,1.14572167149163E-05,4.5703125,0,0
-1.72666459548054E-05,1.0235256922897E-05,4.5703125,0,0
-1.89949132618494E-05,9.42212045629276E-06,4.5703125,0,0
-2.17504093598109E-05,1.0937163096969E-05,4.5703125,0,0
-2.36132345889928E-05,1.31033775687683E-05,4.5703125,0,0
-1.9900615370716E-05,1.13085725388373E-05,4.5703125,0,0
-2.80983458651463E-05,1.52635911945254E-05,4.5703125,0,0
-2.07328939723084E-05,1.1738799912564E-05,4.5703125,0,0
-2.65383569058031E-05,1.46640459206537E-05,4.5703125,0,0
-2.53911293839337E-05,1.00742281574639E-05,4.5703125,0,0
-3.0446282835328E-05,1.09930097096367E-05,4.5703125,0,0
-2.93869161396287E-05,1.06596198747866E-05,4.5703125,0,0
-3.13447781081777E-05,1.20064414659282E-05,4.5703125,0,0
-3.20633698720485E-05,1.08565400296357E-05,4.5703125,0,0
-3.3611519029364E-05,9.038989446708E-06,6.50390625,0,0
-3.39770267601125E-05,7.81732705945615E-06,6.50390625,0,0
-3.21017505484633E-05,7.2509628807893E-06,6.50390625,0,0
-3.18849051836878E-05,7.9849478424876E-06,6.50390625,0,0
-3.06047550111543E-05,7.85355496191187E-06,6.50390625,0,0
-3.18249258270953E-05,9.6804824352148E-06,6.50390625,0,0
-3.096673390246E-05,1.00678516901098E-05,6.50390625,0,0
-3.24554057442583E-05,1.00078896139166E-05,6.50390625,0,0
-3.15321158268489E-05,7.72571183915716E-06,6.50390625,0,0
-3.16129298880696E-05,7.23899665899808E-06,6.50390625,0,0
-3.00944648188306E-05,6.21783692622557E-06,6.50390625,0,0
-2.97692167805508E-05,6.52052722216467E-06,6.50390625,0,0
-2.67532141151605E-05,6.74365946906619E-06,6.50390625,0,0
-2.46784311457304E-05,9.19007561606122E-06,6.50390625,0,0
-2.30718997045187E-05,1.12661937237135E-05,6.50390625,0,0
-2.35150600929046E-05,1.20839104056358E-05,6.50390625,0,0
-2.47954649239546E-05,1.12536072265357E-05,6.50390625,0,0
-2.54334809142165E-05,1.00206252682256E-05,6.50390625,0,0
-2.04386615223484E-05,7.09757205186179E-06,6.50390625,0,0
-2.94053297693608E-05,8.46635157358833E-06,6.50390625,0,0
-2.33446826314321E-05,4.76472132504568E-06,6.50390625,0,0
-2.83072149613872E-05,5.57257044420112E-06,6.50390625,0,0
-2.26375868805917E-05,2.86716567643452E-06,6.50390625,0,0
-2.4172320991056E-05,5.74907653572154E-06,6.50390625,0,0
-2.10769321711268E-05,5.57825615032925E-06,6.50390625,0,0
-2.12863633350935E-05,3.91865251003765E-06,6.50390625,0,0
-1.95000757230446E-05,2.95811355499609E-06,6.50390625,0,0
-1.88678695849376E-05,3.92454830944189E-06,6.50390625,0,0
-1.86894085345557E-05,5.6013636822172E-06,6.50390625,0,0
-1.84812834049808E-05,6.25375605523004E-06,6.50390625,0,0
-2.12541781365871E-05,6.39476047581411E-06,6.50390625,0,0
-2.24838386202464E-05,6.41275801172014E-06,6.50390625,0,0
-2.44279653998092E-05,8.69878840603633E-06,6.50390625,0,0
-2.32348156714579E-05,1.00891948022763E-05,6.50390625,0,0
-2.42492333200062E-05,1.0429414032842E-05,6.50390625,0,0
-2.16980770346709E-05,8.775619789958E-06,6.50390625,0,0
-1.95648444787366E-05,8.04745741334045E-06,6.50390625,0,0
-1.5667652405682E-05,7.84859184932429E-06,6.50390625,0,0
-1.43871338877943E-05,1.00487604868249E-05,6.50390625,0,0
-1.38380828502704E-05,1.163593151432E-05,6.50390625,0,0
-1.65221335919341E-05,1.14135973490193E-05,6.50390625,0,0
-1.75999375642277E-05,8.9315199147677E-06,6.50390625,0,0
-1.7600903447601E-05,6.91315290168859E-06,6.50390625,0,0
-1.61117877723882E-05,6.80525317875436E-06,6.50390625,0,0
-1.54686440509977E-05,8.11527661426226E-06,6.50390625,0,0
-1.2140383660153E-05,8.31938814371824E-06,6.50390625,0,0
-1.57535378093598E-05,1.28406309158891E-05,6.50390625,0,0
-1.10488563223043E-05,1.10466571641155E-05,6.50390625,0,0
-1.673550104897E-05,1.36203643705812E-05,6.50390625,0,0
-1.69496415765025E-05,1.33930379888625E-05,6.50390625,0,0
-2.05971628020052E-05,1.68792685144581E-05,6.50390625,0,0
-2.04218940780265E-05,1.7804661183618E-05,6.50390625,0,0
-2.13230559893418E-05,1.65736255439697E-05,6.50390625,0,0
-2.12615141208516E-05,1.33494622787111E-05,6.50390625,0,0
-2.20080273720669E-05,1.10871969809523E-05,6.50390625,0,0
-2.35113002418075E-05,1.02075118775247E-05,6.50390625,0,0
-2.47970438067568E-05,1.11675617517903E-05,6.50390625,0,0
-2.68689709628234E-05,1.23234831335139E-05,6.50390625,0,0
-2.92190907202894E-05,1.07372343336465E-05,6.50390625,0,0
-3.39269790856633E-05,1.12876414277707E-05,6.50390625,0,0
-3.61731908924412E-05,1.31526412587846E-05,6.50390625,0,0
-3.78190961782821E-05,1.53384389705025E-05,6.50390625,0,0
-3.7174660974415E-05,1.50567129821866E-05,6.50390625,0,0
-3.74400297005195E-05,1.41836972034071E-05,6.50390625,0,0
-3.59946097887587E-05,1.24332627819967E-05,6.50390625,0,0
-3.4260367101524E-05,1.22028159239562E-05,6.50390625,0,0
-3.06879010167904E-05,1.12117813841905E-05,6.50390625,0,0
-2.84643701888854E-05,9.63832644629292E-06,6.50390625,0,0
-2.76836290140636E-05,8.55518010212108E-06,6.50390625,0,0
-2.81770589936059E-05,9.11586721485946E-06,6.50390625,0,0
-2.81501579593169E-05,1.12781899588299E-05,6.50390625,0,0
-2.70184082182823E-05,1.27004968817346E-05,6.50390625,0,0
-1.96000346477376E-05,8.44153873913456E-06,6.50390625,0,0
-2.48458363785176E-05,1.13421674541314E-05,6.50390625,0,0
-1.41877162604942E-05,9.45187730394537E-06,6.50390625,0,0
-1.93964024219895E-05,1.22810870379908E-05,6.50390625,0,0
-1.77720194187714E-05,7.3479686761857E-06,6.50390625,0,0
-2.30751847993815E-05,6.23904679741827E-06,6.50390625,0,0
-2.22862399823498E-05,5.88731836614897E-06,6.50390625,0,0
-2.42154201259837E-05,8.53614074003417E-06,6.50390625,0,0
-2.3746504666633E-05,9.12006998987636E-06,6.50390625,0,0
-2.34061935771024E-05,9.90836542769102E-06,6.50390625,0,0
-2.31969879678218E-05,1.09273369162111E-05,6.50390625,0,0
-2.31296580750495E-05,1.06926599983126E-05,6.50390625,0,0
-2.43964041146683E-05,1.12343386717839E-05,6.50390625,0,0
-2.29467732424382E-05,1.10263272290467E-05,6.50390625,0,0
-2.34392427955754E-05,1.30281941892463E-05,6.50390625,0,0
-2.23921215365408E-05,1.53037181007676E-05,6.50390625,0,0
-2.39667569985613E-05,1.74344349943567E-05,6.50390625,0,0
-2.28443586820504E-05,1.61740081239259E-05,6.50390625,0,0
-2.40502613451099E-05,1.53748696902767E-05,6.50390625,0,0
-2.41113211814081E-05,1.43211109389085E-05,6.50390625,0,0
-2.61517525359523E-05,1.41195587275433E-05,6.50390625,0,0
-2.76951122941682E-05,1.51297044794774E-05,6.50390625,0,0
-3.07158916257322E-05,1.77021047420567E-05,6.50390625,0,0
-3.17888843710534E-05,1.76519261003705E-05,6.50390625,0,0
-3.19468854286242E-05,1.70855873875553E-05,6.50390625,0,0
-3.04105378745589E-05,1.69511804415379E-05,6.50390625,0,0
-2.91177984763635E-05,1.60407471412327E-05,6.50390625,0,0
-2.38357388298027E-05,1.22488900160533E-05,6.50390625,0,0
-3.46434389939532E-05,1.70265138876857E-05,6.50390625,0,0
-2.696696719795E-05,1.34559095386066E-05,6.50390625,0,0
-3.22856867569499E-05,1.64804077940062E-05,6.50390625,0,0
-2.6718986191554E-05,1.18951238619047E-05,6.50390625,0,0
-3.02577227557777E-05,1.18844436656218E-05,6.50390625,0,0
-2.87116781692021E-05,8.35931678011548E-06,6.50390625,0,0
-3.09081442537718E-05,8.0591271398589E-06,6.50390625,0,0
-3.11562107526697E-05,7.64437118050409E-06,6.50390625,0,0
-3.14730823447462E-05,7.58128635425237E-06,6.50390625,0,0
-3.00164701911854E-05,7.00605050951708E-06,6.50390625,0,0
-2.64847694779746E-05,6.36470895187813E-06,6.50390625,0,0
-2.6009025532403E-05,7.65995264373487E-06,6.50390625,0,0
-2.33567170653259E-05,7.95690357335843E-06,6.50390625,0,0
-2.18166842387291E-05,9.65208892012015E-06,6.50390625,0,0
-1.86452161869965E-05,9.63710499490844E-06,6.50390625,0,0
-1.99434434762225E-05,9.81831635726849E-06,6.50390625,0,0
-1.94263193407096E-05,7.21508740753052E-06,6.50390625,0,0
-2.13258281291928E-05,6.76997206028318E-06,6.50390625,0,0
-2.13765033549862E-05,7.03238720234367E-06,6.50390625,0,0
-2.2354872271535E-05,9.61160276347073E-06,6.50390625,0,0
-2.06747190532042E-05,1.05405333670205E-05,6.50390625,0,0
-1.9848508600262E-05,1.00093839137116E-05,6.50390625,0,0
-1.77749170688912E-05,8.78504761203658E-06,6.50390625,0,0
-1.6649893950671E-05,8.77934326126706E-06,6.50390625,0,0
-1.67534399224678E-05,9.87566272669937E-06,6.50390625,0,0
-1.83976208063541E-05,1.12414300019736E-05,6.50390625,0,0
-1.58223174366867E-05,7.77548393671168E-06,6.50390625,0,0
-2.26819338422501E-05,1.18073494377313E-05,6.50390625,0,0
-1.71386618603719E-05,1.12062798507395E-05,6.50390625,0,0
-1.97882709471742E-05,1.49019278978813E-05,6.50390625,0,0
-1.55941306729801E-05,1.35261770992656E-05,6.50390625,0,0
-1.8624294170877E-05,1.39660387503682E-05,6.50390625,0,0
-1.85848912224174E-05,1.24903899632045E-05,6.50390625,0,0
-1.97977515199455E-05,1.2741336831823E-05,6.50390625,0,0
-1.95325173990568E-05,1.23484533105511E-05,6.50390625,0,0
-2.09780901059275E-05,1.174567387352E-05,6.50390625,0,0
-2.21250920731109E-05,1.17523641165462E-05,6.50390625,0,0
-2.05433752853423E-05,1.212204915646E-05,6.50390625,0,0
-1.90760401892476E-05,1.27551938930992E-05,6.50390625,0,0
-1.76514204213163E-05,1.21162938739872E-05,6.50390625,0,0
-2.00913455046248E-05,1.18624921014998E-05,6.50390625,0,0
-2.09610643651104E-05,1.12962552520912E-05,6.50390625,0,0
-2.20947822526796E-05,1.26373106468236E-05,6.50390625,0,0
-2.12425675272243E-05,1.34570327645633E-05,6.50390625,0,0
-2.22035341721494E-05,1.39873636726406E-05,6.50390625,0,0
-2.17907472688239E-05,1.3581377970695E-05,6.50390625,0,0
-2.17378492379794E-05,1.46113789014635E-05,6.50390625,0,0
-1.99643363885116E-05,1.43528914122726E-05,6.50390625,0,0
-1.95593238458969E-05,1.3108819075569E-05,6.50390625,0,0
-1.93444575415924E-05,1.13380137918284E-05,6.50390625,0,0
-2.02553146664286E-05,1.10823802970117E-05,6.50390625,0,0
-2.23521146835992E-05,1.34356760099763E-05,6.50390625,0,0
-2.61396507994505E-05,1.62449832714628E-05,6.50390625,0,0
-2.13650710065849E-05,1.29152149384026E-05,6.50390625,0,0
-2.9078526495141E-05,1.73514490597881E-05,6.50390625,0,0
-2.00953745661536E-05,1.3350642802834E-05,6.50390625,0,0
-2.53974776569521E-05,1.67309208336519E-05,6.50390625,0,0
-2.01269158424111E-05,1.11371191451326E-05,6.50390625,0,0
-2.17624074139167E-05,1.17614799819421E-05,6.50390625,0,0
-1.80834849743405E-05,9.11728602659423E-06,6.50390625,0,0
-1.80816132342443E-05,8.46598777570762E-06,6.50390625,0,0
-1.7771517377696E-05,7.48925867810613E-06,6.50390625,0,0
-1.97590270545334E-05,7.4412300818949E-06,6.50390625,0,0
-2.09873942367267E-05,6.31092962066759E-06,6.50390625,0,0
-2.01747552637244E-05,4.35256288255914E-06,8.61328125,0,0
-1.99650130525697E-05,4.74102353109629E-06,8.61328125,0,0
-1.75538443727419E-05,4.56184852737351E-06,8.61328125,0,0
-1.88773410627618E-05,5.89353203395149E-06,8.61328125,0,0
-1.92714142031036E-05,6.3868023971736E-06,8.61328125,0,0
-2.18652221519733E-05,8.35359060147312E-06,8.61328125,0,0
-2.20281126530608E-05,7.26373218640219E-06,8.61328125,0,0
-2.54379574471386E-05,6.02144609729294E-06,8.61328125,0,0
-2.80792974081123E-05,3.64615266335022E-06,8.61328125,0,0
-3.19672653859016E-05,4.61305353383068E-06,8.61328125,0,0
-3.27484231092967E-05,6.49162984700524E-06,8.61328125,0,0
-3.32822201016825E-05,8.76916874403832E-06,8.61328125,0,0
-3.14950048050378E-05,9.13884923647856E-06,8.61328125,0,0
-2.89304261968937E-05,9.7526617537369E-06,8.61328125,0,0
-2.67076393356547E-05,9.56395615503425E-06,8.61328125,0,0
-2.67716950475005E-05,9.09165191842476E-06,8.61328125,0,0
-2.16579119296512E-05,7.37834488973022E-06,8.61328125,0,0
-2.95744084723992E-05,9.8966047517024E-06,8.61328125,0,0
-2.06052081921371E-05,6.59551142234704E-06,8.61328125,0,0
-2.51609344559256E-05,7.12958262738539E-06,8.61328125,0,0
-1.89440634130733E-05,4.64011145595578E-06,8.61328125,0,0
-2.01834682229673E-05,5.68616906093666E-06,8.61328125,0,0
-1.68191072589252E-05,4.7847106543486E-06,8.61328125,0,0
-1.73281423485605E-05,4.89030571770854E-06,8.61328125,0,0
-1.55498946696753E-05,4.26196493208408E-06,8.61328125,0,0
-1.39924577524653E-05,4.52577251053299E-06,8.61328125,0,0
-1.26122713481891E-05,5.34167929799878E-06,8.61328125,0,0
-1.17514637167915E-05,4.97566770718549E-06,8.61328125,0,0
-1.43218148878077E-05,3.7431846067193E-06,8.61328125,0,0
-1.60400923050474E-05,1.55109512434137E-06,8.61328125,0,0
-2.02875580725959E-05,1.79561436652875E-06,8.61328125,0,0
-2.17203360080021E-05,2.35927859648655E-06,8.61328125,0,0
-2.40031604334945E-05,3.71400301446556E-06,8.61328125,0,0
-2.23495062527945E-05,3.9617466427444E-06,8.61328125,0,0
-2.30222321988549E-05,5.21371248396463E-06,8.61328125,0,0
-2.25029416469624E-05,5.74179239265504E-06,8.61328125,0,0
-2.47442185354885E-05,7.17981947673252E-06,8.61328125,0,0
-2.72763954853872E-05,9.49030618357938E-06,8.61328125,0,0
-3.24199318129104E-05,1.23162353702355E-05,8.61328125,0,0
-3.54516159859486E-05,1.22138035294483E-05,8.61328125,0,0
-3.68803994206246E-05,9.95766822597943E-06,8.61328125,0,0
-3.76922180294059E-05,7.77646619098959E-06,8.61328125,0,0
-3.86741885449737E-05,6.46596890874207E-06,8.61328125,0,0
-3.08892704197206E-05,5.05128809891175E-06,8.61328125,0,0
-4.28920611739159E-05,7.01438193573267E-06,8.61328125,0,0
-3.24435641232412E-05,6.67241192786605E-06,8.61328125,0,0
-4.22158991568722E-05,9.67531650530873E-06,8.61328125,0,0
-3.56048112735152E-05,7.13912595529109E-06,8.61328125,0,0
-3.905803168891E-05,4.96781103720423E-06,8.61328125,0,0
-3.48088724422269E-05,3.57380940840812E-06,8.61328125,0,0
-3.56126511178445E-05,5.45308830623981E-06,8.61328125,0,0
-3.42938546964433E-05,6.65649986331118E-06,8.61328125,0,0
-3.49679212376941E-05,6.54090126772644E-06,8.61328125,0,0
-3.60417579940986E-05,7.23770381227951E-06,8.61328125,0,0
-3.65833475370891E-05,8.70229723659577E-06,8.61328125,0,0
-3.97679723391775E-05,9.48543583945138E-06,8.61328125,0,0
-3.89070883102249E-05,8.89628063305281E-06,8.61328125,0,0
-3.94026756111998E-05,1.01615632956964E-05,8.61328125,0,0
-3.52977112925146E-05,1.13011474240921E-05,8.61328125,0,0
-3.53701034327969E-05,1.22880910566892E-05,8.61328125,0,0
-3.38782447215635E-05,1.25725910038454E-05,8.61328125,0,0
-3.60444319085218E-05,1.33438061311608E-05,8.61328125,0,0
-3.54949333996046E-05,1.32984769152245E-05,8.61328125,0,0
-3.73776783817448E-05,1.30930229715887E-05,8.61328125,0,0
-3.54214935214259E-05,1.28216142911697E-05,8.61328125,0,0
-3.43714200425893E-05,1.30471125885379E-05,8.61328125,0,0
-3.26192239299417E-05,1.22210958579672E-05,8.61328125,0,0
-3.11531366605777E-05,1.17723957373528E-05,8.61328125,0,0
-2.79427458735881E-05,1.31752185552614E-05,8.61328125,0,0
-2.56419698416721E-05,1.59937699208967E-05,8.61328125,0,0
-1.9240007532062E-05,1.42800845424063E-05,8.61328125,0,0
-2.68491621682188E-05,1.83603497134754E-05,8.61328125,0,0
-1.91243452718481E-05,1.21050752568408E-05,8.61328125,0,0
-2.17573888221523E-05,1.66492427524645E-05,8.61328125,0,0
-1.55215002450859E-05,1.36128619487863E-05,8.61328125,0,0
-1.70119183167117E-05,1.53197015606565E-05,8.61328125,0,0
-1.46340062201489E-05,1.18216203190968E-05,8.61328125,0,0
-1.46606180351228E-05,1.19921614896157E-05,8.61328125,0,0
-1.1536960300873E-05,1.500049711467E-05,8.61328125,0,0
-9.33037335926201E-06,1.94057902263012E-05,8.61328125,0,0
-9.4092656581779E-06,2.05773521884112E-05,8.61328125,0,0
-9.7824649856193E-06,1.92363568203291E-05,8.61328125,0,0
-1.05139888546546E-05,1.98356956389034E-05,8.61328125,0,0
-8.30195858725347E-06,1.87949426617706E-05,8.61328125,0,0
-8.7610524133197E-06,1.82221847353503E-05,8.61328125,0,0
-7.81424023443833E-06,1.6061014321167E-05,8.61328125,0,0
-9.50205776462099E-06,1.7049318557838E-05,8.61328125,0,0
