biceps_emg, triceps_emg, subject_position, position_estimate, brace_position
-3.0839644750813E-05,1.87866953638149E-05,-0.17578125,0,0
-2.75531219813274E-05,1.7803002265282E-05,-0.17578125,0,0
-2.50508510362124E-05,1.60321578732692E-05,-0.17578125,0,0
-2.43098420469323E-05,1.49631614476675E-05,-0.17578125,0,0
-1.78750869963551E-05,1.14290296551189E-05,-0.17578125,0,0
-2.25501935346983E-05,1.5605466614943E-05,-0.17578125,0,0
-1.37047063617501E-05,1.16800065370626E-05,-0.17578125,0,0
-1.84167929546675E-05,1.56642145157093E-05,-0.17578125,0,0
-1.48140234159655E-05,1.33179055410437E-05,-0.17578125,0,0
-1.69109916896559E-05,1.50695695992908E-05,-0.17578125,0,0
-1.45185349538224E-05,1.36831367854029E-05,-0.17578125,0,0
-1.64365628734231E-05,1.25085025501903E-05,-0.17578125,0,0
-1.70250805240357E-05,8.92063417268218E-06,-0.17578125,0,0
-1.784405685612E-05,6.50906713417498E-06,-0.17578125,0,0
-1.83734773600008E-05,6.19971024207189E-06,-0.17578125,0,0
-1.7839323845692E-05,6.39713744021719E-06,-0.17578125,0,0
-1.89035563380457E-05,7.10312360752141E-06,-0.17578125,0,0
-1.76994089997606E-05,4.81866572954459E-06,-0.17578125,0,0
-1.77713172888616E-05,2.49991080636391E-06,-0.17578125,0,0
-1.63450931722764E-05,6.37585060303536E-07,-0.17578125,0,0
-1.81506820808863E-05,2.53132907346298E-06,-0.17578125,0,0
-1.83662959898356E-05,3.55642941940459E-06,-0.17578125,0,0
-2.06294498639181E-05,5.23493145010434E-06,-0.17578125,0,0
-2.17238884943072E-05,5.433464593807E-06,-0.17578125,0,0
-2.44666643993696E-05,5.35428716830211E-06,-0.17578125,0,0
-2.40235603996553E-05,4.05850596507662E-06,-0.17578125,0,0
-2.33399950957391E-05,2.9158752568037E-06,-0.17578125,0,0
-2.27715045184596E-05,1.26519807963632E-06,-0.17578125,0,0
-2.22348680836149E-05,2.18427703657653E-06,-0.17578125,0,0
-2.09810314117931E-05,3.64198899660551E-06,-0.17578125,0,0
-2.00466292881174E-05,4.3030613596784E-06,-0.17578125,0,0
-1.59477331180824E-05,4.52207450507558E-06,-0.17578125,0,0
-2.1569685486611E-05,7.14527368472773E-06,-0.17578125,0,0
-1.53697237692541E-05,5.53567724637105E-06,-0.17578125,0,0
-1.95732591237174E-05,5.68820632906863E-06,-0.17578125,0,0
-1.66564968822058E-05,5.73013721805182E-06,-0.17578125,0,0
-1.959716064448E-05,7.25017980585108E-06,-0.17578125,0,0
-1.73134358192328E-05,7.50110075387056E-06,-0.17578125,0,0
-1.60051986313192E-05,8.01270653028041E-06,-0.17578125,0,0
-1.29112913782592E-05,7.25420113667496E-06,-0.17578125,0,0
-1.26476770674344E-05,7.01906446920475E-06,-0.17578125,0,0
-1.5056818483572E-05,7.64822743803961E-06,-0.17578125,0,0
-1.76421181095066E-05,7.80169284553267E-06,-0.17578125,0,0
-1.9713612346095E-05,8.14268878457369E-06,-0.17578125,0,0
-1.81957002496347E-05,8.18550142867025E-06,-0.17578125,0,0
-1.83738629857544E-05,8.43746056489181E-06,-0.17578125,0,0
-1.76204757735832E-05,8.30184580991045E-06,-0.17578125,0,0
-1.98377692868235E-05,8.64253252075287E-06,-0.17578125,0,0
-2.12728737096768E-05,7.51481138649979E-06,-0.17578125,0,0
-2.4325801859959E-05,5.40686005479074E-06,-0.17578125,0,0
-2.45659175561741E-05,2.9702400752285E-06,-0.17578125,0,0
-2.50084303843323E-05,2.2919634830032E-06,-0.17578125,0,0
-2.46771342062857E-05,1.1662392580547E-06,-0.17578125,0,0
-2.63489346252754E-05,-1.22298683891131E-06,-0.17578125,0,0
-2.69100964942481E-05,-3.79348853130068E-06,-0.17578125,0,0
-2.71491771854926E-05,-5.9203684941167E-06,-0.17578125,0,0
-2.756583126029E-05,-6.60152545606252E-06,-0.17578125,0,0
-2.7612713893177E-05,-6.5092549448309E-06,-0.17578125,0,0
-2.19197409023764E-05,-4.46405010734452E-06,-0.17578125,0,0
-3.19454884447623E-05,-5.49511605640873E-06,-0.17578125,0,0
-2.65350736299297E-05,-2.10936536859663E-06,-0.17578125,0,0
-3.50955670000985E-05,3.16129984412328E-07,-0.17578125,0,0
-3.25994296872523E-05,6.46096623313497E-06,-0.17578125,0,0
-3.51815433532465E-05,9.33105638978304E-06,-0.17578125,0,0
-3.16723853757139E-05,1.16592782433145E-05,-0.17578125,0,0
-3.26167682942469E-05,1.15123011710239E-05,-0.17578125,0,0
-3.21600527968258E-05,1.25911110444576E-05,-0.17578125,0,0
-3.27051384374499E-05,1.40842394102947E-05,-0.17578125,0,0
-3.33239768224303E-05,1.28094652609434E-05,-0.17578125,0,0
-3.21135157719254E-05,9.48429442360066E-06,-0.17578125,0,0
-3.07583322864957E-05,7.74804539105389E-06,-0.17578125,0,0
-2.72062043222832E-05,8.34985894471174E-06,-0.17578125,0,0
-2.63710044237087E-05,7.89421119407052E-06,-0.17578125,0,0
-2.29389024752891E-05,7.50365688872989E-06,-0.17578125,0,0
-2.23910792556126E-05,6.33144645689754E-06,-0.17578125,0,0
-2.09205300052417E-05,5.61251727049239E-06,-0.17578125,0,0
-2.24687428271864E-05,4.21317099608132E-06,-0.17578125,0,0
-2.17469405470183E-05,3.23959011439001E-06,-0.17578125,0,0
-2.15258151001763E-05,2.10253483601264E-06,-0.17578125,0,0
-1.96471119124908E-05,3.11456597046345E-06,-0.17578125,0,0
-1.9952853108407E-05,4.77347157357144E-06,-0.17578125,0,0
-1.98514990188414E-05,4.12551980844E-06,-0.17578125,0,0
-1.97657827811781E-05,2.06004574465624E-06,-0.17578125,0,0
-1.85984135896433E-05,2.41900693254138E-06,-0.17578125,0,0
-1.78619375219569E-05,4.53978782388731E-06,-0.17578125,0,0
-1.59704741236055E-05,5.2923678595107E-06,-0.17578125,0,0
-2.41761536017293E-05,8.61590433487436E-06,-0.17578125,0,0
-2.1615247533191E-05,8.14893610368017E-06,-0.17578125,0,0
-2.75874081125949E-05,9.08580113900825E-06,-0.17578125,0,0
-2.36845680774422E-05,5.56121631234419E-06,-0.17578125,0,0
-2.29995130212046E-05,4.87310035168775E-06,-0.17578125,0,0
-2.16166645259364E-05,6.12276153333369E-06,-0.17578125,0,0
-2.52383670158451E-05,8.47429510031361E-06,-0.17578125,0,0
-2.69434312940575E-05,9.0456087491475E-06,-0.17578125,0,0
-2.71073495241581E-05,8.50613378133858E-06,-0.17578125,0,0
-2.63160327449441E-05,4.44130273535848E-06,-0.17578125,0,0
-2.5236653527827E-05,-3.56854184246913E-06,-0.17578125,0,0
-2.60001197602833E-05,-9.81108132691588E-06,-0.17578125,0,0
-2.50519042310771E-05,-1.08222775452305E-05,-0.17578125,0,0
-2.43224876612658E-05,-8.18902026367141E-06,-0.17578125,0,0
-2.21478276216658E-05,-7.07096978658228E-06,-0.17578125,0,0
-2.29425368161174E-05,-6.19923412159551E-06,-0.17578125,0,0
-2.27913496928522E-05,-5.05725347466068E-06,-0.17578125,0,0
-2.41748821281362E-05,-2.33425521400932E-06,-0.17578125,0,0
-2.43647609750042E-05,8.06595494395879E-07,-0.17578125,0,0
-2.65698945440818E-05,4.09729864259134E-06,-0.17578125,0,0
-2.83558438241016E-05,6.60636669636006E-06,-0.17578125,0,0
-2.98349532386055E-05,8.99513543117791E-06,-0.17578125,0,0
-2.92516306217294E-05,8.90926276042592E-06,-0.17578125,0,0
-2.92750264634378E-05,6.19173533777939E-06,-0.17578125,0,0
-3.04398545267759E-05,3.64531933882972E-06,-0.17578125,0,0
-3.10510804411024E-05,4.00971703129471E-06,-0.17578125,0,0
-2.35451461776393E-05,4.49908384325681E-06,-0.17578125,0,0
-3.19085811497644E-05,6.64221443003044E-06,-0.17578125,0,0
-2.321678584849E-05,6.77458956488408E-06,-0.17578125,0,0
-3.05775356537197E-05,1.34731335492688E-05,-0.17578125,0,0
-2.65688759100158E-05,1.73647913470631E-05,-0.17578125,0,0
-3.10931645799428E-05,1.72494655998889E-05,-0.17578125,0,0
-2.87031652987935E-05,1.41580667332164E-05,-0.17578125,0,0
-3.12868032779079E-05,1.15836755867349E-05,-0.17578125,0,0
-3.16709556500427E-05,1.1063846613979E-05,-0.17578125,0,0
-3.10202958644368E-05,1.33051307784626E-05,-0.17578125,0,0
-3.02247935906053E-05,1.70954117493238E-05,-0.17578125,0,0
-2.83489061985165E-05,2.32078491535503E-05,-0.17578125,0,0
-2.75250804406824E-05,3.12012743961532E-05,-0.17578125,0,0
-2.51905166805955E-05,3.68111032003071E-05,-0.17578125,0,0
-2.75996972050052E-05,3.83326841983944E-05,-0.17578125,0,0
-2.81286629615352E-05,3.65231244359165E-05,-0.17578125,0,0
-3.03530378005235E-05,3.42274652211927E-05,-0.17578125,0,0
-2.91569267574232E-05,3.17194317176472E-05,-0.17578125,0,0
-3.05505600408651E-05,3.08170892822091E-05,-0.17578125,0,0
-2.97498409054242E-05,3.00309093290707E-05,-0.17578125,0,0
-3.02094431390287E-05,2.94274632324232E-05,-0.17578125,0,0
-2.89798426820198E-05,3.05266621580813E-05,-0.17578125,0,0
-3.00201318168547E-05,3.31090086547192E-05,-0.17578125,0,0
-3.05469802697189E-05,3.33863754349295E-05,-0.17578125,0,0
-3.23767017107457E-05,3.24575121339876E-05,-0.17578125,0,0
-3.34277028741781E-05,3.26357585436199E-05,-0.17578125,0,0
-3.39262915076688E-05,3.44344953191467E-05,-0.17578125,0,0
-2.79110372503055E-05,3.03010601783171E-05,-0.17578125,0,0
-3.91431858588476E-05,4.57115093013272E-05,-0.17578125,0,0
-2.75754900940228E-05,3.96231553168036E-05,-0.17578125,0,0
-3.18957390845753E-05,5.00121932418551E-05,-0.17578125,0,0
-2.40627487073652E-05,4.21484182879794E-05,-0.17578125,0,0
-2.65399266936583E-05,4.20093056163751E-05,-0.17578125,0,0
-2.11126080102986E-05,3.69339250028133E-05,-0.17578125,0,0
-1.9481019990053E-05,3.92037036363035E-05,-0.17578125,0,0
-1.62542037287494E-05,3.85804814868607E-05,-0.17578125,0,0
-1.55692905536853E-05,3.93634982174262E-05,-0.17578125,0,0
-1.68226961250184E-05,3.95033093809616E-05,-0.17578125,0,0
-1.76084868144244E-05,3.59555742761586E-05,-0.17578125,0,0
-1.91563831322128E-05,3.13656746584456E-05,-0.17578125,0,0
-1.61033858603332E-05,2.33970276894979E-05,-0.17578125,0,0
-1.61312564159743E-05,2.14432529901387E-05,-0.17578125,0,0
-1.50131190821412E-05,2.02822684514103E-05,-0.17578125,0,0
-1.70078747032676E-05,2.26467818720266E-05,-0.17578125,0,0
-1.46327165566618E-05,1.97118060896173E-05,-0.17578125,0,0
-1.44498799272696E-05,1.92958123079734E-05,-0.17578125,0,0
-1.32965160446474E-05,1.68358983501093E-05,-0.17578125,0,0
-1.541697565699E-05,1.77919264388038E-05,-0.17578125,0,0
-1.4639104847447E-05,1.75909062818391E-05,-0.17578125,0,0
-1.38525638249121E-05,1.87388632184593E-05,-0.17578125,0,0
-1.13390997285023E-05,1.68887781910598E-05,-0.17578125,0,0
-1.10904074972495E-05,1.47512773764902E-05,-0.17578125,0,0
-1.09662169052172E-05,1.34763722599018E-05,-0.17578125,0,0
-1.08060257844045E-05,1.39269786814111E-05,-0.17578125,0,0
-1.01358700703713E-05,1.1771330719057E-05,-0.17578125,0,0
-1.46523416333366E-05,1.46041747939307E-05,-0.17578125,0,0
-1.10426490209647E-05,7.86298187449574E-06,-0.17578125,0,0
-1.29768395709107E-05,9.60677789407782E-06,-0.17578125,0,0
-1.16402788989944E-05,7.14975885784952E-06,-0.17578125,0,0
-1.32789973577019E-05,8.39623589854455E-06,-0.17578125,0,0
-1.19746428026701E-05,6.10551796853542E-06,-0.17578125,0,0
-1.25274527817965E-05,5.00606029163464E-06,-0.17578125,0,0
-1.39523281177389E-05,2.03911690732639E-06,-0.17578125,0,0
-1.55850775627187E-05,-7.56402243951015E-07,-0.17578125,0,0
-1.56409823830472E-05,-2.76547029898211E-06,-0.17578125,0,0
-1.35051341203507E-05,-3.85974499295116E-06,-0.17578125,0,0
-1.21854382086894E-05,-4.12833242080524E-06,-0.17578125,0,0
-1.15207822091179E-05,-7.72272233007243E-06,-0.17578125,0,0
-1.34877991513349E-05,-1.0417270459584E-05,-0.17578125,0,0
-1.52500733747729E-05,-1.16211713248049E-05,-0.17578125,0,0
-1.74413526110584E-05,-8.22624588181498E-06,-0.17578125,0,0
-1.7602742445888E-05,-6.49730600343901E-06,-0.17578125,0,0
-1.8254871974932E-05,-6.09931657891138E-06,-0.17578125,0,0
-1.82560452230973E-05,-8.25894949230133E-06,-0.17578125,0,0
-1.95009488379583E-05,-8.84255587152438E-06,-0.17578125,0,0
-2.07268931262661E-05,-9.71687404671684E-06,-0.17578125,0,0
-2.12250597542152E-05,-9.75356942944927E-06,-0.17578125,0,0
-2.0326629964984E-05,-9.4703618742642E-06,-0.17578125,0,0
-2.08959281735588E-05,-7.93243088992313E-06,-0.17578125,0,0
-2.21764585148776E-05,-6.58773797113099E-06,-0.17578125,0,0
-2.2566333427676E-05,-6.53877805234515E-06,-0.17578125,0,0
-1.72798081621295E-05,-4.98570761919837E-06,-0.17578125,0,0
-2.41939087572973E-05,-5.50114555153414E-06,-0.17578125,0,0
-1.83989304787247E-05,-1.66186600836227E-06,-0.17578125,0,0
-2.50780067290179E-05,-2.03255376618472E-06,-0.17578125,0,0
-2.33013506658608E-05,1.26507029563072E-06,-0.17578125,0,0
-2.49348813667893E-05,2.33027867579949E-06,-0.17578125,0,0
-2.26119555009063E-05,3.70438965546782E-06,-0.17578125,0,0
-2.37015574384714E-05,3.36174957737967E-06,-0.17578125,0,0
-2.25405419769231E-05,4.36812888437998E-06,-0.17578125,0,0
-2.32238126045559E-05,6.75436649544281E-06,-0.17578125,0,0
-2.42057776631555E-05,1.01368214018294E-05,-0.17578125,0,0
-2.35514798987424E-05,1.21306575238123E-05,-0.17578125,0,0
-2.34820145124104E-05,1.03392876553698E-05,-0.17578125,0,0
-2.28118060476845E-05,8.2996675700997E-06,-0.17578125,0,0
-2.46250037889695E-05,8.31212764751399E-06,-0.17578125,0,0
-2.39380551647628E-05,1.12255120257032E-05,-0.17578125,0,0
-2.41742764046649E-05,1.31329697978799E-05,-0.17578125,0,0
-2.23682945943438E-05,1.32398145069601E-05,-0.17578125,0,0
-2.23919523705263E-05,1.13647993202903E-05,-0.17578125,0,0
-2.03751314984402E-05,1.13336445792811E-05,-0.17578125,0,0
-1.98582019947935E-05,1.33458715936285E-05,-0.17578125,0,0
-1.89185102499323E-05,1.54312747326912E-05,-0.17578125,0,0
-2.04206007765606E-05,1.30329599414836E-05,-0.17578125,0,0
-2.23852784984047E-05,1.08253752841847E-05,-0.17578125,0,0
-2.46867621171987E-05,1.22925321193179E-05,-0.17578125,0,0
-2.64905374933733E-05,1.53981090988964E-05,-0.17578125,0,0
-2.80013664450962E-05,1.69819431903306E-05,-0.17578125,0,0
-2.24621271627257E-05,1.28867613966577E-05,-0.17578125,0,0
-3.25902728945948E-05,1.92222360055894E-05,-0.17578125,0,0
-2.76912669505691E-05,1.53597939061001E-05,-0.17578125,0,0
-3.71781679859851E-05,1.84014461410698E-05,-0.17578125,0,0
-3.46267952409107E-05,1.57325303007383E-05,-0.17578125,0,0
-3.83452388632577E-05,1.85923527169507E-05,-0.17578125,0,0
-3.54635740222875E-05,1.78616210178006E-05,-0.17578125,0,0
-3.6349880247144E-05,1.88573867490049E-05,-0.17578125,0,0
-3.53901741618756E-05,1.9200291717425E-05,-0.17578125,0,0
-3.51306844095234E-05,1.99192345462507E-05,-0.17578125,0,0
-3.53647883457597E-05,1.90486716746818E-05,-0.17578125,0,0
-3.46508677466773E-05,1.70635885297088E-05,-0.17578125,0,0
-3.57620701834094E-05,1.59138635353884E-05,-0.17578125,0,0
-3.46835986420047E-05,1.27680632431293E-05,-0.17578125,0,0
-3.57698481820989E-05,1.16214787340141E-05,-0.17578125,0,0
-3.52276110788807E-05,1.18449961519218E-05,-0.17578125,0,0
-3.7358324334491E-05,1.49689167301403E-05,-0.17578125,0,0
-3.57912904291879E-05,1.63193417392904E-05,-0.17578125,0,0
-3.60554731742013E-05,1.82351341209142E-05,-0.17578125,0,0
-3.48136709362734E-05,1.89708061952842E-05,-0.17578125,0,0
-3.51405615219846E-05,2.06765216717031E-05,-0.17578125,0,0
-3.41228478646372E-05,2.10600355785573E-05,-0.17578125,0,0
-3.35263939632569E-05,2.08393248612992E-05,-0.17578125,0,0
-2.89613744826056E-05,1.7798580302042E-05,-0.17578125,0,0
-2.45223272941075E-05,1.58090279001044E-05,-0.17578125,0,0
-2.23907773033716E-05,1.69347204064252E-05,-0.17578125,0,0
-2.05890901270323E-05,1.82906605914468E-05,-0.17578125,0,0
-1.50055775520741E-05,1.2378864994389E-05,-0.17578125,0,0
-2.02051232918166E-05,1.47289674714557E-05,-0.17578125,0,0
-1.42196677188622E-05,6.93131460138829E-06,-0.17578125,0,0
-1.91851704585133E-05,7.84243638918269E-06,-0.17578125,0,0
-1.77957645064453E-05,6.17039461303648E-07,-0.17578125,0,0
-2.09997106139781E-05,-8.54315771903202E-07,-0.17578125,0,0
-1.98510861082468E-05,-2.58971112998552E-06,-0.17578125,0,0
-2.03884919756092E-05,-8.82522215306381E-07,-0.17578125,0,0
-1.92795341718011E-05,-4.4810761323788E-07,-0.17578125,0,0
-1.88808990060352E-05,4.37545480735935E-07,-0.17578125,0,0
-1.91619274119148E-05,1.18531420412182E-06,-0.17578125,0,0
-1.84479849849595E-05,1.73383966739493E-06,-0.17578125,0,0
-1.74229098774958E-05,4.24887002736796E-06,-0.17578125,0,0
-1.3874765500077E-05,6.54079349260428E-06,-0.17578125,0,0
-1.22763922263402E-05,1.08104313767399E-05,-0.17578125,0,0
-1.0381467291154E-05,1.29815589389182E-05,-0.17578125,0,0
-1.17610488814535E-05,1.56187943503028E-05,-0.17578125,0,0
-1.37441293190932E-05,1.48109793371987E-05,-0.17578125,0,0
-1.83680440386524E-05,1.40111160362721E-05,-0.17578125,0,0
-2.08463879971532E-05,1.38878267534892E-05,-0.17578125,0,0
-2.34619874390773E-05,1.57061949721538E-05,-0.17578125,0,0
-2.37612912314944E-05,1.2175461051811E-05,-0.17578125,0,0
-2.37143340200419E-05,5.65142909181304E-06,-0.17578125,0,0
-2.29293382290052E-05,6.00473413214786E-07,-0.17578125,0,0
-2.38263473875122E-05,9.79462015493482E-07,-0.17578125,0,0
-2.53354282904183E-05,4.94344249091228E-06,-0.17578125,0,0
-2.6366755264462E-05,7.7725680966978E-06,-0.17578125,0,0
-2.27274595090421E-05,4.09455424232874E-06,-0.17578125,0,0
-3.23243948514573E-05,3.82595681003295E-06,-0.17578125,0,0
-2.43719787249574E-05,1.1860570339195E-06,-0.17578125,0,0
-2.97991082334192E-05,2.93594075628789E-06,-0.17578125,0,0
-2.52518602792406E-05,1.41149985211086E-06,-0.17578125,0,0
-2.98188151646173E-05,7.23837445093523E-07,-0.17578125,0,0
-2.89982181129744E-05,-2.85461226212647E-07,-0.17578125,0,0
-3.11390867864247E-05,2.6312541194784E-06,-0.17578125,0,0
-2.94620203931117E-05,6.26456312602386E-06,-0.17578125,0,0
-2.7434112780611E-05,9.78335810941644E-06,-0.17578125,0,0
-2.54001824941952E-05,1.14529202619451E-05,-0.17578125,0,0
-2.29515462706331E-05,1.13557889562799E-05,-0.17578125,0,0
-2.42366040765774E-05,1.37108736453229E-05,-0.17578125,0,0
-2.43881986534689E-05,1.79103717528051E-05,-0.17578125,0,0
-2.61081841017585E-05,2.22039907384897E-05,-0.17578125,0,0
-2.48698579525808E-05,2.35336410696618E-05,-0.17578125,0,0
-2.72433026111685E-05,2.25100429815939E-05,-0.17578125,0,0
-2.75582424364984E-05,1.95806915144203E-05,-0.17578125,0,0
-2.81506090686889E-05,1.95347965927795E-05,-0.17578125,0,0
-2.44414386543212E-05,2.1676622054656E-05,-0.17578125,0,0
-2.37929652939783E-05,2.29132929234765E-05,-0.17578125,0,0
-2.47509469772922E-05,2.1559237211477E-05,-0.17578125,0,0
-2.66955248662271E-05,1.90627633855911E-05,-0.17578125,0,0
-2.68943640548969E-05,1.41588179758401E-05,-0.17578125,0,0
-2.80580425169319E-05,1.08052072391729E-05,-0.17578125,0,0
-2.80753738479689E-05,1.20078439067584E-05,-0.17578125,0,0
-2.82418914139271E-05,1.33338962768903E-05,-0.17578125,0,0
-2.45212449954124E-05,9.92953118839068E-06,-0.17578125,0,0
-3.52106908394489E-05,1.334711760137E-05,-0.17578125,0,0
-2.58729378401767E-05,1.08774111140519E-05,-0.17578125,0,0
-3.17114863719326E-05,1.53697874338832E-05,-0.17578125,0,0
-2.79148280242225E-05,1.24925400086795E-05,-0.17578125,0,0
-3.04396198771428E-05,1.29886948343483E-05,-0.17578125,0,0
-2.632708492456E-05,1.21741777547868E-05,-0.17578125,0,0
-2.59381595242303E-05,1.42483877425548E-05,-0.17578125,0,0
-2.30631267186254E-05,1.49516008605133E-05,-0.17578125,0,0
-2.07272587431362E-05,1.55941579578212E-05,-0.17578125,0,0
-1.94426756934263E-05,1.51632757479092E-05,-0.17578125,0,0
-1.85384342330508E-05,1.30972684928565E-05,-0.17578125,0,0
-2.08126621146221E-05,1.31772731037927E-05,-0.17578125,0,0
-2.20366873691091E-05,1.3096459042572E-05,-0.17578125,0,0
-2.4749742806307E-05,1.27194152810262E-05,-0.17578125,0,0
-2.31584108405514E-05,8.40273969515692E-06,-0.17578125,0,0
-2.32769580179593E-05,5.23795370099833E-06,-0.17578125,0,0
-2.19178582483437E-05,4.87236366097932E-06,-0.17578125,0,0
-2.38874399656197E-05,9.11570623429725E-06,-0.17578125,0,0
-2.30660807574168E-05,1.19640835691825E-05,-0.17578125,0,0
-2.31441572395852E-05,1.26524319057353E-05,-0.17578125,0,0
-2.1372905393946E-05,1.1005780834239E-05,-0.17578125,0,0
-2.16703847399913E-05,8.92466323421104E-06,-0.17578125,0,0
-2.18174882320454E-05,5.51936000192654E-06,-0.17578125,0,0
-2.04585012397729E-05,3.1021295399114E-06,-0.17578125,0,0
-1.70615439856192E-05,1.50080245475692E-06,-0.17578125,0,0
-1.5768187950016E-05,2.22931021198747E-06,-0.17578125,0,0
-1.3931577996118E-05,4.52326275990345E-06,-0.17578125,0,0
-2.12711947824573E-05,9.51205856836168E-06,-0.17578125,0,0
-1.72528325492749E-05,1.09954853542149E-05,-0.17578125,0,0
-1.94405256479513E-05,1.14037557068514E-05,-0.17578125,0,0
-1.56384830916068E-05,9.4445576905855E-06,-0.17578125,0,0
-1.7022954125423E-05,8.39050881040748E-06,-0.17578125,0,0
-1.80940351128811E-05,8.50197739055147E-06,-0.17578125,0,0
-2.16743374039652E-05,1.03414968180005E-05,-0.17578125,0,0
-2.27662694669561E-05,1.11166964416043E-05,-0.17578125,0,0
-2.27474338316824E-05,1.19516962513444E-05,-0.17578125,0,0
-2.15952986764023E-05,1.32865216073697E-05,-0.17578125,0,0
-1.91523795365356E-05,1.29645868582884E-05,-0.17578125,0,0
-1.91952894965652E-05,1.17049248729018E-05,-0.17578125,0,0
-2.03738745767623E-05,1.25421975099016E-05,-0.17578125,0,0
-2.2601834643865E-05,1.72630007000407E-05,-0.17578125,0,0
-2.14358678931603E-05,2.15533145819791E-05,-0.17578125,0,0
-2.10368853004184E-05,2.31652866204968E-05,-0.17578125,0,0
-2.11028127523605E-05,2.21853333641775E-05,-0.17578125,0,0
-2.29419929382857E-05,2.07599041459616E-05,-0.17578125,0,0
-2.26470256166067E-05,1.88613121281378E-05,-0.17578125,0,0
-2.32378042710479E-05,1.74260712810792E-05,-0.17578125,0,0
-2.32513921218924E-05,1.7664815459284E-05,-0.17578125,0,0
-2.40596073126653E-05,2.02395149244694E-05,-0.17578125,0,0
-2.45920728048077E-05,2.27252294280333E-05,-0.17578125,0,0
-2.43925587710692E-05,2.12509130506078E-05,-0.17578125,0,0
-2.43142549152253E-05,1.60912859428208E-05,-0.17578125,0,0
-2.64114041783614E-05,1.1048909072997E-05,-0.17578125,0,0
-2.29954730457393E-05,6.80564744470757E-06,-0.17578125,0,0
-3.17953454214148E-05,7.83538143878104E-06,-0.17578125,0,0
-2.29467477765866E-05,4.4494959183794E-06,-0.17578125,0,0
-3.0014025469427E-05,7.67524761613458E-06,-0.17578125,0,0
-2.63047895714408E-05,6.80375205774908E-06,-0.17578125,0,0
-2.95146637654398E-05,8.57301165524405E-06,-0.17578125,0,0
-2.77484741673106E-05,9.01664498087484E-06,-0.17578125,0,0
-3.10448594973423E-05,9.03018462850014E-06,-0.17578125,0,0
-3.26375629811082E-05,5.83282690058695E-06,-0.17578125,0,0
-3.41618397214916E-05,2.6866828193306E-06,-0.17578125,0,0
-3.47681270795874E-05,1.1504057511047E-06,-0.17578125,0,0
-3.31655464833602E-05,8.46133332288446E-07,-0.17578125,0,0
-3.24129141517915E-05,3.28245369018987E-06,-0.17578125,0,0
-3.00123101624195E-05,6.12412486589164E-06,-0.17578125,0,0
-3.10401919705328E-05,7.9506817201036E-06,-0.17578125,0,0
-3.02527423627907E-05,8.45563045004383E-06,-0.17578125,0,0
-3.20478429784998E-05,1.26557406474603E-05,-0.17578125,0,0
-3.17457925120834E-05,1.73945918504614E-05,-0.17578125,0,0
-3.4216256608488E-05,2.04374482564162E-05,-0.17578125,0,0
-3.36782068188768E-05,1.90308110177284E-05,-0.17578125,0,0
-3.2100248063216E-05,1.60835115821101E-05,-0.17578125,0,0
-2.74391059065238E-05,1.36224043671973E-05,-0.17578125,0,0
-2.5389192160219E-05,1.40171141538303E-05,-0.17578125,0,0
-2.39054679695982E-05,1.43185070555774E-05,-0.17578125,0,0
-2.32728689297801E-05,1.27274870465044E-05,-0.17578125,0,0
-2.18517634493764E-05,9.45643205341185E-06,-0.17578125,0,0
-1.93645810213638E-05,7.84027997724479E-06,-0.17578125,0,0
-1.3380901691562E-05,8.04432329459814E-06,-0.17578125,0,0
-1.95851735043107E-05,1.15345446829451E-05,-0.17578125,0,0
-1.70879357028753E-05,7.51711786506348E-06,-0.17578125,0,0
-2.27394739340525E-05,7.55249538997305E-06,-0.17578125,0,0
-2.20297060877783E-05,3.94376820622711E-06,-0.17578125,0,0
-2.39071760006482E-05,3.20885328619624E-06,-0.17578125,0,0
-2.09066711249761E-05,1.84968769190164E-06,-0.17578125,0,0
-2.16774660657393E-05,2.52885752161092E-06,-0.17578125,0,0
-2.23681781790219E-05,3.6939131859981E-06,-0.17578125,0,0
-2.36984651564853E-05,4.32294700658531E-06,-0.17578125,0,0
-2.5143104721792E-05,4.30794580097427E-06,-0.17578125,0,0
-2.55006543739E-05,4.33741888627992E-06,-0.17578125,0,0
-2.71761455223896E-05,5.78772005610517E-06,-0.17578125,0,0
-2.81398606603034E-05,5.6233466239064E-06,-0.17578125,0,0
-2.96029757009819E-05,6.80054836266208E-06,-0.17578125,0,0
-2.86822814814514E-05,8.56750830280362E-06,-0.17578125,0,0
-2.92722197627882E-05,9.35572188609513E-06,-0.17578125,0,0
-2.77871113212314E-05,7.67066194384824E-06,-0.17578125,0,0
-2.71847493422683E-05,8.08921322459355E-06,-0.17578125,0,0
-2.68926232820377E-05,8.19735123513965E-06,-0.17578125,0,0
-2.77585768344579E-05,6.00718021814828E-06,-0.17578125,0,0
-2.51281162491068E-05,2.85098121821648E-06,-0.17578125,0,0
-2.23650931729935E-05,3.50903565049521E-06,-0.17578125,0,0
-2.04034458874958E-05,5.05387197335949E-06,-0.17578125,0,0
-2.0030125597259E-05,4.76966533824452E-06,-0.17578125,0,0
-1.98852249013726E-05,2.48304445449321E-06,-0.17578125,0,0
-1.89720576599939E-05,-2.08588608074933E-06,-0.17578125,0,0
-1.32096074594301E-05,-6.24884842181928E-06,-0.17578125,0,0
-1.62695887411246E-05,-1.28589836094761E-05,-0.17578125,0,0
-1.11885156002245E-05,-1.38920950121246E-05,-0.17578125,0,0
-1.71711944858544E-05,-1.4901178474247E-05,-0.17578125,0,0
-1.43074494189932E-05,-1.5034433999972E-05,-0.17578125,0,0
-1.51652911881683E-05,-1.73721891769674E-05,-0.17578125,0,0
-1.17019635581528E-05,-1.86944616871187E-05,-0.17578125,0,0
-1.07025989564136E-05,-1.98520083358744E-05,-0.17578125,0,0
-9.86976647254778E-06,-1.84751188498922E-05,-0.17578125,0,0
-1.21508901429479E-05,-1.60810614033835E-05,-0.17578125,0,0
-1.56760124809807E-05,-1.25352535178536E-05,-0.17578125,0,0
-1.61918378580594E-05,-7.9731480582268E-06,-0.17578125,0,0
-1.45322837852291E-05,-5.52224855709937E-06,-0.17578125,0,0
-1.12088628156926E-05,-4.61198806078755E-06,-0.17578125,0,0
-1.23764057207154E-05,-3.86377087124856E-06,-0.17578125,0,0
-1.32380801005638E-05,-2.08353981179243E-06,-0.17578125,0,0
-1.38158357003704E-05,-1.95391157831182E-06,-0.17578125,0,0
-1.16256615001475E-05,-2.41714360527112E-06,-0.17578125,0,0
-1.19233236546279E-05,-2.98959207611915E-06,-0.17578125,0,0
-1.21426755868015E-05,-2.63596848526504E-06,-0.17578125,0,0
-1.31786555357394E-05,-9.7620649341934E-08,-0.17578125,0,0
-1.24194648378761E-05,5.40135079063475E-06,-0.17578125,0,0
-1.22717847261811E-05,9.28040481085191E-06,-0.17578125,0,0
-1.18423113235622E-05,9.07981848285999E-06,-0.17578125,0,0
-1.36188427859452E-05,4.79558320876095E-06,-0.17578125,0,0
-1.57574868353549E-05,-8.05685488103336E-07,-0.17578125,0,0
-1.7697120711091E-05,-7.41171652407502E-06,-0.17578125,0,0
-1.62108244694537E-05,-1.17008603410795E-05,-0.17578125,0,0
-2.45969749812502E-05,-1.59880546561908E-05,-0.17578125,0,0
-2.11163023777772E-05,-4.26420319854515E-06,-0.17578125,0,0
-2.64931386482203E-05,6.29705982646556E-06,-0.17578125,0,0
-2.4123071852955E-05,1.89633847185178E-05,-0.17578125,0,0
-2.69876054517226E-05,2.13674175029155E-05,-0.17578125,0,0
-2.68911717284936E-05,2.22054732148536E-05,-0.17578125,0,0
-2.86319009319413E-05,2.08468500204617E-05,-0.17578125,0,0
-2.81240627373336E-05,2.06421900657006E-05,-0.17578125,0,0
-2.7518457500264E-05,2.25669064093381E-05,-0.17578125,0,0
-2.67301475105342E-05,2.60204178630374E-05,-0.17578125,0,0
-2.62381272477796E-05,2.86650265479693E-05,-0.17578125,0,0
-2.66773768089479E-05,2.8314376322669E-05,-0.17578125,0,0
-2.47170883085346E-05,2.91094693238847E-05,-0.17578125,0,0
-2.43104459514143E-05,3.05277790175751E-05,-0.17578125,0,0
-2.20315578189911E-05,3.26049157592934E-05,-0.17578125,0,0
-2.14477386180079E-05,3.13005584757775E-05,-0.17578125,0,0
-1.98366979020648E-05,3.05557878164109E-05,-0.17578125,0,0
-1.8929047655547E-05,3.08220478473231E-05,-0.17578125,0,0
-1.56762835104018E-05,3.43064893968403E-05,-0.17578125,0,0
-1.51939684656099E-05,3.62140635843389E-05,-0.17578125,0,0
-1.65240653586807E-05,3.65052474080585E-05,-0.17578125,0,0
-1.89935199159663E-05,3.68070832337253E-05,-0.17578125,0,0
-1.99890218937071E-05,3.80956844310276E-05,-0.17578125,0,0
-2.11591977858916E-05,3.72748218069319E-05,-0.17578125,0,0
-2.07308003155049E-05,3.53444702341221E-05,-0.17578125,0,0
-2.08361798286205E-05,3.47407622030005E-05,-0.17578125,0,0
-1.907212936203E-05,2.97283477266319E-05,-0.17578125,0,0
-2.7472688088892E-05,4.40435978816822E-05,-0.17578125,0,0
-2.02244573301869E-05,3.47617205989081E-05,-0.17578125,0,0
-2.3896411221358E-05,4.24563077103812E-05,-0.17578125,0,0
-2.05508185899816E-05,3.71825772162993E-05,-0.17578125,0,0
-2.43883005168755E-05,4.32684319093823E-05,-0.17578125,0,0
-2.34377166634658E-05,4.27739396400284E-05,-0.17578125,0,0
-2.56446219282225E-05,4.65027951577213E-05,-0.17578125,0,0
-2.70590699074091E-05,4.56005982414354E-05,-0.17578125,0,0
-2.72632587439148E-05,4.49964536528569E-05,-0.17578125,0,0
-2.53816706390353E-05,4.41301708633546E-05,-0.17578125,0,0
-2.3147018509917E-05,4.05974169552792E-05,-0.17578125,0,0
-2.39761866396293E-05,3.7978828913765E-05,-0.17578125,0,0
-2.38031079788925E-05,3.17338890454266E-05,-0.17578125,0,0
-2.53034086199477E-05,2.936230157502E-05,-0.17578125,0,0
-2.40158497035736E-05,2.68326894001802E-05,-0.17578125,0,0
-2.35380030062515E-05,2.96937578241341E-05,-0.17578125,0,0
-2.1558087610174E-05,2.89916679321323E-05,-0.17578125,0,0
-2.38273587456206E-05,2.79376017715549E-05,-0.17578125,0,0
-2.5704885047162E-05,2.18480690818978E-05,-0.17578125,0,0
-2.73347650363576E-05,1.93905125343008E-05,-0.17578125,0,0
-2.54883070738288E-05,1.66761874424992E-05,-0.17578125,0,0
-2.47168500209227E-05,1.61745683726622E-05,-0.17578125,0,0
-2.53408834396396E-05,1.50626019603806E-05,-0.17578125,0,0
-2.77905819530133E-05,1.3615634998132E-05,-0.17578125,0,0
-2.98871400445933E-05,1.02297844932764E-05,-0.17578125,0,0
-3.10261239064857E-05,7.79960828367621E-06,-0.17578125,0,0
-2.68224284809548E-05,7.14830093784258E-06,-0.17578125,0,0
-4.04869206249714E-05,1.13078449430759E-05,-0.17578125,0,0
-3.33804091496859E-05,1.02804051493877E-05,-0.17578125,0,0
-3.95708993892185E-05,1.26487866509706E-05,-0.17578125,0,0
-3.32251875079237E-05,1.14096874312963E-05,-0.17578125,0,0
-3.600226045819E-05,1.05369726952631E-05,-0.17578125,0,0
-3.21505140163936E-05,8.31932629807852E-06,-0.17578125,0,0
-3.15978650178295E-05,8.39340464153793E-06,-0.17578125,0,0
-3.02430053125136E-05,1.02827771115699E-05,-0.17578125,0,0
-3.18816128128674E-05,1.35045647766674E-05,-0.17578125,0,0
-3.37554338329937E-05,1.86786310223397E-05,-0.17578125,0,0
-3.39972211804707E-05,2.29403467528755E-05,-0.17578125,0,0
-3.58377292286605E-05,2.49167296715314E-05,-0.17578125,0,0
-3.42483072017785E-05,2.40928202401847E-05,-0.17578125,0,0
-3.42338425980415E-05,2.3569647964905E-05,-0.17578125,0,0
-3.10584364342503E-05,2.22473190660821E-05,-0.17578125,0,0
-3.13207237923052E-05,2.05628093681298E-05,-0.17578125,0,0
-3.05502762785181E-05,1.72726813616464E-05,-0.17578125,0,0
-3.30315706378315E-05,1.43217066579382E-05,-0.17578125,0,0
-3.26222834701184E-05,1.21562125059427E-05,-0.17578125,0,0
-3.43175997841172E-05,1.07999176179874E-05,-0.17578125,0,0
-3.42547136824578E-05,8.54635891300859E-06,-0.17578125,0,0
-3.36637676809914E-05,6.66041023578146E-06,-0.17578125,0,0
-3.1758681870997E-05,5.82181064601173E-06,-0.17578125,0,0
-3.12304473482072E-05,4.83270332551911E-06,-0.17578125,0,0
-3.03801007248694E-05,2.39154405790032E-06,-0.17578125,0,0
-3.09175447910093E-05,1.39723556458193E-06,-0.17578125,0,0
-2.47915268118959E-05,2.6066193186125E-06,-0.17578125,0,0
-3.50768787029665E-05,3.65594928553037E-06,-0.17578125,0,0
-2.62824632955017E-05,1.43151157772081E-06,-0.17578125,0,0
-3.08656744891778E-05,-1.52319626067765E-06,-0.17578125,0,0
-2.28894969040994E-05,-5.25448376720306E-06,-0.17578125,0,0
-2.56275197898503E-05,-4.87301167595433E-06,-0.17578125,0,0
-2.43211179622449E-05,-1.79208700501476E-06,-0.17578125,0,0
-2.73762507276842E-05,1.10298594790947E-06,-0.17578125,0,0
-2.68221301666927E-05,4.98441067975364E-07,-0.17578125,0,0
-2.56224175245734E-05,-1.80754091161361E-06,-0.17578125,0,0
-2.43576887442032E-05,-2.84113480120141E-06,-0.17578125,0,0
-2.17691031139111E-05,-2.88654291580315E-06,-0.17578125,0,0
-2.22774651774671E-05,-2.27389455176308E-06,-0.17578125,0,0
-2.2146192350192E-05,-8.86171164893312E-07,-0.17578125,0,0
-2.45245519181481E-05,1.1655985190373E-06,-0.17578125,0,0
-2.35554907703772E-05,2.61853870142659E-06,-0.17578125,0,0
-2.53174712270265E-05,3.68847850040765E-06,-0.17578125,0,0
-2.44899583776714E-05,3.39377356795012E-06,-0.17578125,0,0
-2.4846582164173E-05,1.437539822291E-06,-0.17578125,0,0
-2.24537106987555E-05,-3.57580603349561E-07,-0.17578125,0,0
-2.34579401876545E-05,3.00253987006727E-07,-0.17578125,0,0
-2.55612285400275E-05,8.69898087785259E-07,-0.17578125,0,0
-3.07372029055841E-05,5.95336075548403E-07,-0.17578125,0,0
-3.24022948916536E-05,7.77025320530811E-07,-0.17578125,0,0
-3.11777621391229E-05,3.23239851240942E-06,-0.17578125,0,0
-2.92399290628964E-05,5.65503796678968E-06,-0.17578125,0,0
-2.83794834103901E-05,6.04362503509037E-06,-0.17578125,0,0
-2.26168067456456E-05,4.48589480583905E-06,-0.17578125,0,0
-3.19759419653565E-05,7.18319415682345E-06,-0.17578125,0,0
-2.4054701498244E-05,7.14222505848738E-06,-0.17578125,0,0
-2.99331150017679E-05,9.02853935258463E-06,-0.17578125,0,0
-2.67239411186893E-05,7.69061716709984E-06,-0.17578125,0,0
-3.10768919007387E-05,6.5535273279238E-06,-0.17578125,0,0
-2.78802581306081E-05,3.70544967154274E-06,-0.17578125,0,0
-2.80168205790687E-05,1.62658227509382E-06,-0.17578125,0,0
-2.64151767623844E-05,1.29705460949481E-06,-0.17578125,0,0
-2.52679110417375E-05,4.99322368341382E-06,-0.17578125,0,0
-2.32603524636943E-05,9.12647192308214E-06,-0.17578125,0,0
-2.00638623937266E-05,1.07216837932356E-05,-0.17578125,0,0
-1.87647547136294E-05,8.81605137692532E-06,-0.17578125,0,0
-1.59336013894062E-05,4.32540718975361E-06,-0.17578125,0,0
-1.6056195818237E-05,4.98978351970436E-07,-0.17578125,0,0
-1.31481665448518E-05,-1.79310438852553E-06,-0.17578125,0,0
-1.23704794532387E-05,-1.83206975634675E-06,-0.17578125,0,0
-1.02876338132774E-05,-2.28321437134582E-06,-0.17578125,0,0
-1.18527104859822E-05,-3.21207880915608E-06,-0.17578125,0,0
-1.06601301013143E-05,-5.20742560183862E-06,-0.17578125,0,0
-9.86954728432465E-06,-5.57721114091692E-06,-0.17578125,0,0
-7.38079734219355E-06,-3.90574086850393E-06,-0.17578125,0,0
-7.7327122198767E-06,-2.23865799853229E-06,-0.17578125,0,0
-8.6362915681093E-06,-3.03433193948877E-06,-0.17578125,0,0
-8.92044863576302E-06,-2.39422797676525E-06,-0.17578125,0,0
-7.36744550522417E-06,-1.14548151941563E-06,-0.17578125,0,0
-7.04828744346742E-06,-2.09590984923125E-06,-0.17578125,0,0
-8.08728145784698E-06,-3.10921427626454E-06,-0.17578125,0,0
-1.32022905745544E-05,-5.78870321987779E-06,-0.17578125,0,0
-1.33284538605949E-05,-5.53112795387278E-06,-0.17578125,0,0
-1.72820437001064E-05,-5.02685225001187E-06,-0.17578125,0,0
-1.73206590261543E-05,-3.19439482154849E-06,-0.17578125,0,0
-1.87618443305837E-05,-2.33707282859541E-06,-0.17578125,0,0
-1.81271570909303E-05,-4.90568254463142E-07,-0.17578125,0,0
-1.87990735867061E-05,-1.22808557989629E-06,-0.17578125,0,0
-2.0637608031393E-05,-3.18651791531011E-06,-0.17578125,0,0
-2.37764434132259E-05,-3.95219240090228E-06,-0.17578125,0,0
-2.66314800683176E-05,-2.6609054657456E-06,-0.17578125,0,0
-2.68190251517808E-05,1.32777802264172E-06,-0.17578125,0,0
-2.52943573286757E-05,5.92720243730582E-06,-0.17578125,0,0
-2.27793188969372E-05,7.3138025982189E-06,-0.17578125,0,0
-2.24579143832671E-05,5.20010962645756E-06,-0.17578125,0,0
-2.23793231270975E-05,3.48277490047622E-06,-0.17578125,0,0
-2.26490737986751E-05,2.4612477318442E-06,-0.17578125,0,0
-2.218895497208E-05,2.05461833502341E-06,-0.17578125,0,0
-2.23269998969045E-05,2.24830455408664E-06,-0.17578125,0,0
-2.08668770937948E-05,3.83461065212032E-06,-0.17578125,0,0
-2.01056918740505E-05,7.50508525015903E-06,-0.17578125,0,0
-2.0822903024964E-05,1.25271017168416E-05,-0.17578125,0,0
-2.17960805457551E-05,1.52156462718267E-05,-0.17578125,0,0
-2.1550289602601E-05,1.64017019415041E-05,-0.17578125,0,0
-2.18389559449861E-05,1.56751866597915E-05,-0.17578125,0,0
-2.28247608902166E-05,1.40031461342005E-05,-0.17578125,0,0
-2.40029949054588E-05,1.38753557621385E-05,-0.17578125,0,0
-2.09560766961658E-05,1.3316617696546E-05,-0.17578125,0,0
-3.07307673210744E-05,2.0566199964378E-05,-0.17578125,0,0
-2.41686975641642E-05,1.68496098922333E-05,-0.17578125,0,0
-2.89072886516806E-05,2.01177408598596E-05,-0.17578125,0,0
-2.37122785620159E-05,1.81490831892006E-05,-0.17578125,0,0
-2.76962582574924E-05,2.07272878469666E-05,-0.17578125,0,0
-2.81961220025551E-05,1.98986872419482E-05,-0.17578125,0,0
-3.05833054881077E-05,2.0323122953414E-05,-0.17578125,0,0
-2.98599916277453E-05,2.01847451535286E-05,-0.17578125,0,0
-2.82226446870482E-05,1.98117413674481E-05,-0.17578125,0,0
-2.56608891504584E-05,1.93940904864576E-05,-0.17578125,0,0
-2.23659080802463E-05,1.94447457033675E-05,-0.17578125,0,0
-2.26513584493659E-05,1.8862327124225E-05,-0.17578125,0,0
-2.29434481298085E-05,1.48158105730545E-05,-0.17578125,0,0
-2.43415179284057E-05,1.30859762066393E-05,-0.17578125,0,0
-2.11590304388665E-05,1.31601864268305E-05,-0.17578125,0,0
-1.94830263353651E-05,1.38941713885288E-05,-0.17578125,0,0
-1.75531695276732E-05,1.05412727862131E-05,-0.17578125,0,0
-1.88242538570194E-05,9.06328295968706E-06,-0.17578125,0,0
-1.78581085492624E-05,9.83165318757528E-06,-0.17578125,0,0
-1.72419840964722E-05,1.37813121909858E-05,-0.17578125,0,0
-1.52850243466673E-05,1.66138761414913E-05,-0.17578125,0,0
-1.60033287102124E-05,1.82017338374862E-05,-0.17578125,0,0
-1.65529490914196E-05,1.7093560018111E-05,-0.17578125,0,0
-1.87496480066329E-05,1.53852852236014E-05,-0.17578125,0,0
-2.1902322259848E-05,1.70114744832972E-05,-0.17578125,0,0
-2.33620758081088E-05,2.10615999094443E-05,-0.17578125,0,0
-1.75734039657982E-05,1.75530949491076E-05,-0.17578125,0,0
-2.36390023928834E-05,2.41843608819181E-05,-0.17578125,0,0
-1.57337690325221E-05,1.73650059878128E-05,-0.17578125,0,0
-2.02236606128281E-05,2.10662401514128E-05,-0.17578125,0,0
-1.84766631718958E-05,1.65923611348262E-05,-0.17578125,0,0
-2.1341185856727E-05,1.83953397936421E-05,-0.17578125,0,0
-1.78317277459428E-05,1.51620406541042E-05,-0.17578125,0,0
-1.93631749425549E-05,1.56407240865519E-05,-0.17578125,0,0
-2.01653856493067E-05,1.46372831295594E-05,-0.17578125,0,0
-2.12154809560161E-05,1.48317685670918E-05,-0.17578125,0,0
-2.24176983465441E-05,1.46330594361643E-05,-0.17578125,0,0
-2.31316535064252E-05,1.35673826662241E-05,-0.17578125,0,0
-2.56921430263901E-05,1.4226770872483E-05,-0.17578125,0,0
-2.62891444435809E-05,1.29563613882056E-05,-0.17578125,0,0
-2.77915551123442E-05,1.48373828778858E-05,-0.17578125,0,0
-2.61504355876241E-05,1.58410275616916E-05,-0.17578125,0,0
-2.58806339843431E-05,1.69091053976445E-05,-0.17578125,0,0
-2.41296529566171E-05,1.41072996484581E-05,-0.17578125,0,0
-2.42588575929403E-05,1.54090757860104E-05,-0.17578125,0,0
-2.20584042835981E-05,1.72900709003443E-05,-0.17578125,0,0
-2.18531731661642E-05,1.86013439815724E-05,-0.17578125,0,0
-2.12818395084469E-05,1.60722902364796E-05,-0.17578125,0,0
-2.24311024794588E-05,1.47649725477095E-05,-0.17578125,0,0
-2.35412317124428E-05,1.48918907143525E-05,-0.17578125,0,0
-2.43572922045132E-05,1.54440476762829E-05,-0.17578125,0,0
-2.39842411247082E-05,1.40228039526846E-05,-0.17578125,0,0
-2.3086509827408E-05,1.3069301530777E-05,-0.17578125,0,0
-1.93452069652267E-05,8.33883404993685E-06,-0.17578125,0,0
-2.99652147077722E-05,9.93134926829953E-06,-0.17578125,0,0
-2.63539841398597E-05,7.36679930923856E-06,-0.17578125,0,0
-3.05717439914588E-05,1.44703162732185E-05,-0.17578125,0,0
-2.55624090641504E-05,1.60504660016159E-05,-0.17578125,0,0
-2.96384805551497E-05,1.49183651956264E-05,-0.17578125,0,0
-3.03312244795961E-05,1.05092594822054E-05,-0.17578125,0,0
-3.16651130560786E-05,1.16257433546707E-05,-0.17578125,0,0
-2.9866580007365E-05,1.37155566335423E-05,-0.17578125,0,0
-2.90517400571844E-05,1.56248515850166E-05,-0.17578125,0,0
-2.86886970570777E-05,1.59574738063384E-05,-0.17578125,0,0
-2.82362052530516E-05,1.56681599037256E-05,-0.17578125,0,0
-2.84796569758328E-05,1.77929105120711E-05,-0.17578125,0,0
-2.55713584920159E-05,2.05985270440578E-05,-0.17578125,0,0
-2.36937612498878E-05,2.30970272241393E-05,-0.17578125,0,0
-2.2597498173127E-05,2.1213041691226E-05,-0.17578125,0,0
-2.78214065474458E-05,1.865447666205E-05,-0.17578125,0,0
-3.18586462526582E-05,1.57047506945673E-05,-0.17578125,0,0
-3.45243024639785E-05,1.50921168824425E-05,-0.17578125,0,0
-3.31390983774327E-05,1.44146624734276E-05,-0.17578125,0,0
-3.48259782185778E-05,1.49745746966801E-05,-0.17578125,0,0
-3.65199884981848E-05,1.54121225932613E-05,-0.17578125,0,0
-3.76336829503998E-05,1.56838177645113E-05,-0.17578125,0,0
-3.52833812939934E-05,1.40097436087672E-05,-0.17578125,0,0
-3.35972290486097E-05,1.2580835573317E-05,-0.17578125,0,0
-3.51514318026602E-05,1.13228534246446E-05,-0.17578125,0,0
-3.79739321942907E-05,1.04168320831377E-05,-0.17578125,0,0
-3.14323879138101E-05,8.04049795988249E-06,-0.17578125,0,0
-4.52449930889998E-05,1.16733990580542E-05,-0.17578125,0,0
-3.60829362762161E-05,1.01021178124938E-05,-0.17578125,0,0
-4.60009250673465E-05,1.5671650544391E-05,-0.17578125,0,0
-4.04367019655183E-05,1.72012332768645E-05,-0.17578125,0,0
-4.55899244116154E-05,1.79673061211361E-05,-0.17578125,0,0
-4.23606688855216E-05,1.55544421431841E-05,-0.17578125,0,0
-4.4134612835478E-05,1.65964538609842E-05,-0.17578125,0,0
-4.22913981310558E-05,1.89382299140561E-05,-0.17578125,0,0
-3.91198482248001E-05,2.15912568819476E-05,-0.17578125,0,0
-3.54089170286898E-05,2.30205296247732E-05,-0.17578125,0,0
-3.14687931677327E-05,2.13833300222177E-05,-0.17578125,0,0
-3.17076373903546E-05,1.99203677766491E-05,-0.17578125,0,0
-3.01375803246628E-05,1.73865100805415E-05,-0.17578125,0,0
-3.19073151331395E-05,1.39471057991614E-05,-0.17578125,0,0
-2.98916293104412E-05,9.30553051148308E-06,-0.17578125,0,0
-2.99019156955183E-05,8.45121667225612E-06,-0.17578125,0,0
-2.48493906838121E-05,8.85081863088999E-06,-0.17578125,0,0
-2.27577147597913E-05,8.79060826264322E-06,-0.17578125,0,0
-1.913175037771E-05,7.72344537836034E-06,-0.17578125,0,0
-1.84803247975651E-05,9.38660468818853E-06,-0.17578125,0,0
-1.46083930303575E-05,1.15922957775183E-05,-0.17578125,0,0
-1.23643285405706E-05,1.17400841190829E-05,-0.17578125,0,0
-9.96213748294394E-06,9.8587452157517E-06,-0.17578125,0,0
-8.47490809974261E-06,8.35822993394686E-06,-0.17578125,0,0
-6.6341704041406E-06,8.65630954649532E-06,-0.17578125,0,0
-5.81561153012444E-06,9.66410880209878E-06,-0.17578125,0,0
-4.70299210064695E-06,8.58008024806622E-06,-0.17578125,0,0
-7.29559678802616E-06,1.32410268633976E-05,-0.17578125,0,0
-7.36914080334827E-06,1.05677336250665E-05,-0.17578125,0,0
-9.01450584933627E-06,9.95568734651897E-06,-0.17578125,0,0
-7.84811527410056E-06,4.69367159894318E-06,-0.17578125,0,0
-8.58819748827955E-06,2.9825389447069E-06,-0.17578125,0,0
-1.01924433693057E-05,1.22712219763343E-06,-0.17578125,0,0
-1.29729896798381E-05,3.57891076419037E-06,-0.17578125,0,0
-1.42835860970081E-05,5.15938063472277E-06,-0.17578125,0,0
-1.49320167111E-05,6.21944673184771E-06,-0.17578125,0,0
-1.5887591871433E-05,6.34062826065929E-06,-0.17578125,0,0
-1.71613010024885E-05,6.06275716563687E-06,-0.17578125,0,0
-1.90377122635255E-05,7.58413852963713E-06,-0.17578125,0,0
-1.97144290723372E-05,8.1336129369447E-06,-0.17578125,0,0
-2.02046503545716E-05,9.8238142527407E-06,-0.17578125,0,0
-1.92481857084204E-05,1.0210154869128E-05,-0.17578125,0,0
-1.82448511623079E-05,1.01366531453095E-05,-0.17578125,0,0
-1.77101828739978E-05,7.34012382963556E-06,-0.17578125,0,0
-1.83077245310415E-05,5.46764567843638E-06,-0.17578125,0,0
-1.80117149284342E-05,6.29730539003504E-06,-0.17578125,0,0
-1.78472746483749E-05,8.78397713677259E-06,-0.17578125,0,0
-1.79948983713984E-05,7.37345362722408E-06,-0.17578125,0,0
-1.91876624739962E-05,5.3390745051729E-06,-0.17578125,0,0
-2.02122791961301E-05,5.68036648473935E-06,-0.17578125,0,0
-1.98048637685133E-05,6.30693466519006E-06,-0.17578125,0,0
-1.87752848432865E-05,5.63113189855358E-06,-0.17578125,0,0
-1.71681094798259E-05,2.91831861432001E-06,-0.17578125,0,0
-1.31927799884579E-05,1.73125897617865E-07,-0.17578125,0,0
-1.87842142622685E-05,3.44719569511653E-06,-0.17578125,0,0
-1.45468284244998E-05,9.12560426513664E-06,-0.17578125,0,0
-1.78322006831877E-05,9.64018090598984E-06,-0.17578125,0,0
-1.4177338925947E-05,6.41710403215257E-06,-0.17578125,0,0
-1.50005507748574E-05,3.81285235562245E-06,-0.17578125,0,0
-1.33512257889379E-05,3.11827739096771E-06,-0.17578125,0,0
-1.45945505209966E-05,2.73799810202036E-06,-0.17578125,0,0
-1.41954124046606E-05,1.58322427523672E-06,-0.17578125,0,0
-1.52603879541857E-05,1.46025820413342E-06,-0.17578125,0,0
-1.69920767802978E-05,1.69091663337895E-06,-0.17578125,0,0
-1.81209161382867E-05,9.37425681968307E-07,-0.17578125,0,0
-2.00643517018761E-05,-5.98498900217237E-07,-0.17578125,0,0
-2.02572737180162E-05,-7.28987743059406E-07,-0.17578125,0,0
-2.12581671803491E-05,1.43039153499558E-06,-0.17578125,0,0
-2.10800717468373E-05,3.50392497239227E-06,-0.17578125,0,0
-2.2927993995836E-05,4.20024707636912E-06,-0.17578125,0,0
-2.30634686886333E-05,4.09223821407068E-06,-0.17578125,0,0
-2.49550448643276E-05,4.24726795245078E-06,-0.17578125,0,0
-2.66183451458346E-05,5.89617275181809E-06,-0.17578125,0,0
-2.88723695121007E-05,9.21307946555316E-06,-0.17578125,0,0
-2.80777458101511E-05,1.27163211800507E-05,-0.17578125,0,0
-2.61679870163789E-05,1.46193406180828E-05,-0.17578125,0,0
-2.44164493778953E-05,1.48875606100773E-05,-0.17578125,0,0
-2.58702257269761E-05,1.45628155223676E-05,-0.17578125,0,0
-2.74644553428516E-05,1.36875823955052E-05,-0.17578125,0,0
-2.63613565039122E-05,1.32204631881905E-05,-0.17578125,0,0
-2.00125086848857E-05,1.155090649263E-05,-0.17578125,0,0
-3.09479037241545E-05,1.69955928868148E-05,-0.17578125,0,0
-2.9226490369183E-05,1.08760268631158E-05,-0.17578125,0,0
-3.66563690477051E-05,9.72303951130016E-06,-0.17578125,0,0
-3.16568475682288E-05,4.64079812445561E-06,-0.17578125,0,0
-3.23395033774432E-05,4.7167636694212E-06,-0.17578125,0,0
-2.80414678854868E-05,4.08627010983764E-06,-0.17578125,0,0
-2.81255051959306E-05,6.59255510981893E-06,-0.17578125,0,0
-2.74273388640722E-05,7.98802102508489E-06,-0.17578125,0,0
-2.95227127935505E-05,7.34342393116094E-06,-0.17578125,0,0
-3.19350292556919E-05,4.87088436784688E-06,-0.17578125,0,0
-3.23672611557413E-05,3.15405895889853E-06,-0.17578125,0,0
-3.43494502885733E-05,5.42551561011351E-06,-0.17578125,0,0
-3.57572644134052E-05,8.8132228484028E-06,-0.17578125,0,0
-3.8790785765741E-05,1.27727507788222E-05,-0.17578125,0,0
-3.81523241230752E-05,1.37044808070641E-05,-0.17578125,0,0
-3.89907327189576E-05,1.32592986119562E-05,-0.17578125,0,0
-3.74043011106551E-05,1.15776483653462E-05,-0.17578125,0,0
-3.80168057745323E-05,1.3406945981842E-05,-0.17578125,0,0
-3.75478739442769E-05,1.65024193847785E-05,-0.17578125,0,0
-3.936071152566E-05,1.97944664250826E-05,-0.17578125,0,0
-3.96735085814726E-05,1.84596428880468E-05,-0.17578125,0,0
-4.0242652175948E-05,1.51331505549024E-05,-0.17578125,0,0
-4.04290767619386E-05,1.36307107823086E-05,-0.17578125,0,0
-4.20752221543808E-05,1.49590259752586E-05,-0.17578125,0,0
-4.23496167059056E-05,1.46569591379375E-05,-0.17578125,0,0
-4.20637770730536E-05,1.27525327116018E-05,-0.17578125,0,0
-3.30673792632297E-05,8.03160855866736E-06,-0.17578125,0,0
-4.51986124971882E-05,1.02364501799457E-05,-0.17578125,0,0
-3.16348814521916E-05,8.11917288956465E-06,-0.17578125,0,0
-3.91694738937076E-05,1.13065643745358E-05,-0.17578125,0,0
-3.13009841192979E-05,7.60996044846252E-06,-0.17578125,0,0
-3.60350350092631E-05,8.68823190103285E-06,-0.17578125,0,0
-3.11553485516924E-05,9.95474783849204E-06,-0.17578125,0,0
-3.05066841974622E-05,1.31858487293357E-05,-0.17578125,0,0
-2.72092966042692E-05,1.40318015837693E-05,-0.17578125,0,0
-2.50669472734444E-05,1.46523889270611E-05,-0.17578125,0,0
-2.23754614125937E-05,1.69343074958306E-05,-0.17578125,0,0
-1.85669596248772E-05,1.90152932191268E-05,-0.17578125,0,0
-1.94769145309692E-05,1.99365349544678E-05,-0.17578125,0,0
-1.81712548510404E-05,1.71568008227041E-05,-0.17578125,0,0
-1.88514404726448E-05,1.28764513647184E-05,-0.17578125,0,0
-1.44989853652078E-05,6.20886703472934E-06,-0.17578125,0,0
-1.43155402838602E-05,3.02339117297379E-06,-0.17578125,0,0
-1.18226616905304E-05,4.40933308709646E-06,-0.17578125,0,0
-1.3395918358583E-05,1.15682269097306E-05,-0.17578125,0,0
-1.14394570118748E-05,1.80086863110773E-05,-0.17578125,0,0
-1.09622151285294E-05,1.9999622963951E-05,-0.17578125,0,0
-7.90077137935441E-06,1.75331970240222E-05,-0.17578125,0,0
-9.08801030163886E-06,1.58272014232352E-05,-0.17578125,0,0
-1.0971221854561E-05,1.41566179081565E-05,-0.17578125,0,0
-1.23563304441632E-05,1.23833851830568E-05,-0.17578125,0,0
-1.20124259410659E-05,1.04755745269358E-05,-0.17578125,0,0
-1.31111883092672E-05,8.39443509903504E-06,-0.17578125,0,0
-1.23191421153024E-05,5.59265663468977E-06,-0.17578125,0,0
-1.73497246578336E-05,7.92455648479518E-06,-0.17578125,0,0
-1.32132890939829E-05,7.8271514212247E-06,-0.17578125,0,0
-1.62702490342781E-05,1.21037055578199E-05,-0.17578125,0,0
-1.44243340400863E-05,1.37272863867111E-05,-0.17578125,0,0
-1.64685534400633E-05,1.62524938787101E-05,-0.17578125,0,0
-1.53110431710957E-05,1.73083044501254E-05,-0.17578125,0,0
-1.53192340803798E-05,2.15660002140794E-05,-0.17578125,0,0
-1.3301823855727E-05,2.42810456256848E-05,-0.17578125,0,0
-1.21158909678343E-05,2.50273205892881E-05,-0.17578125,0,0
-1.20974436867982E-05,2.3305939976126E-05,-0.17578125,0,0
-1.18238922368619E-05,1.98207417270169E-05,-0.17578125,0,0
-1.28665151351015E-05,1.81433042598655E-05,-0.17578125,0,0
-1.23743284348166E-05,1.94106050912524E-05,-0.17578125,0,0
-1.264383263333E-05,2.16612315853126E-05,-0.17578125,0,0
-1.19257210826618E-05,2.16452735912753E-05,-0.17578125,0,0
-1.30632497530314E-05,2.17211854760535E-05,-0.17578125,0,0
-1.23258269013604E-05,2.05436845135409E-05,-0.17578125,0,0
-1.13148817035835E-05,1.98032194020925E-05,-0.17578125,0,0
-9.17175566428341E-06,1.82737567229196E-05,-0.17578125,0,0
-9.72697398538003E-06,1.75931199919432E-05,-0.17578125,0,0
-9.74097474681912E-06,1.69171526067657E-05,-0.17578125,0,0
-9.44921430345858E-06,1.59967603394762E-05,-0.17578125,0,0
-8.02919021225534E-06,1.44885552799678E-05,-0.17578125,0,0
-7.05142110746237E-06,1.39787225634791E-05,-0.17578125,0,0
-8.05890340416227E-06,1.32052828121232E-05,-0.17578125,0,0
-9.07690446183551E-06,1.20961558423005E-05,-0.17578125,0,0
-6.96300367053482E-06,9.94509900920093E-06,-0.17578125,0,0
-9.32409784581978E-06,1.38549921757658E-05,-0.17578125,0,0
-7.03002251611906E-06,8.62370416143676E-06,-0.17578125,0,0
-1.02165813586907E-05,8.14164377516136E-06,-0.17578125,0,0
-1.15622797238757E-05,4.56273210147629E-06,-0.17578125,0,0
-1.67743364727357E-05,8.36829622130608E-06,-0.17578125,0,0
-1.94614276551874E-05,1.14503372969921E-05,-0.17578125,0,0
-2.16710996028269E-05,1.30683920360752E-05,-0.17578125,0,0
-2.29349425353576E-05,1.12016023194883E-05,-0.17578125,0,0
-2.39631299336907E-05,9.19873764360091E-06,-0.17578125,0,0
-2.45007722696755E-05,8.25771621748572E-06,-0.17578125,0,0
-2.54515798587818E-05,7.35306957722059E-06,-0.17578125,0,0
-2.7228195904172E-05,6.9373977567011E-06,-0.17578125,0,0
-2.80664698948385E-05,5.05284879182E-06,-0.17578125,0,0
-2.98188278975431E-05,4.28169823862845E-06,-0.17578125,0,0
-3.11708281515166E-05,2.04231128009269E-06,-0.17578125,0,0
-3.34175128955394E-05,6.00761552504991E-07,-0.17578125,0,0
-3.34830001520459E-05,-3.26643458947729E-07,-0.17578125,0,0
-3.23433305311482E-05,1.5049762396302E-06,-0.17578125,0,0
-3.00986466754694E-05,3.08392941406055E-06,-0.17578125,0,0
-2.96379730571061E-05,4.72602414447465E-06,-0.17578125,0,0
-3.00010415230645E-05,4.02578643843299E-06,-0.17578125,0,0
-3.07196169160306E-05,3.95404185837833E-06,-0.17578125,0,0
-3.03074339171872E-05,5.84011013415875E-06,-0.17578125,0,0
-2.99037110380596E-05,9.61955811362714E-06,-0.17578125,0,0
-3.10208342853002E-05,1.29975451272912E-05,-0.17578125,0,0
-3.41879749612417E-05,1.38995037559653E-05,-0.17578125,0,0
-3.11348594550509E-05,1.15685934360954E-05,-0.17578125,0,0
-4.63283249700908E-05,1.59257215273101E-05,-0.17578125,0,0
-3.68530381820165E-05,1.22773062685155E-05,-0.17578125,0,0
-4.42137970821932E-05,1.64896155183669E-05,-0.17578125,0,0
-3.57872559106909E-05,1.33378216560232E-05,-0.17578125,0,0
-3.65302039426751E-05,1.08319400169421E-05,-0.17578125,0,0
-3.15851466439199E-05,5.32616604687064E-06,-0.17578125,0,0
-3.1840056180954E-05,6.16148872722988E-06,-0.17578125,0,0
-2.92485383397434E-05,8.28057363833068E-06,-0.17578125,0,0
-2.9515498681576E-05,9.77548552327789E-06,-0.17578125,0,0
-3.02484986605123E-05,8.63948298501782E-06,-0.17578125,0,0
-2.83247154584387E-05,5.00197120345547E-06,-0.17578125,0,0
-2.863858389901E-05,2.54803831012396E-06,-0.17578125,0,0
-2.75895145023242E-05,1.1448400982772E-06,-0.17578125,0,0
-3.04921850329265E-05,2.96173948299838E-06,-0.17578125,0,0
-2.97511887765722E-05,3.96549512515776E-06,-0.17578125,0,0
-3.08724193018861E-05,5.18473552801879E-06,-0.17578125,0,0
-2.85524711216567E-05,3.74523665414017E-06,-0.17578125,0,0
-3.00786468869774E-05,4.25413963967003E-06,-0.17578125,0,0
-3.0131617677398E-05,5.48381058251834E-06,-0.17578125,0,0
-3.26172448694706E-05,8.28344036563067E-06,-0.17578125,0,0
-3.10013747366611E-05,9.15753389563179E-06,-0.17578125,0,0
-2.83754052361473E-05,9.16268527362263E-06,-0.17578125,0,0
-2.533871702326E-05,7.70658971305238E-06,-0.17578125,0,0
-2.49947534030071E-05,8.23835853225319E-06,-0.17578125,0,0
-2.37535568885505E-05,1.02678095572628E-05,-0.17578125,0,0
-2.44215898419498E-05,1.27258545035147E-05,-0.17578125,0,0
-2.2371901650331E-05,1.18459156510653E-05,-0.17578125,0,0
-3.31376759277191E-05,1.51233571159537E-05,-0.17578125,0,0
-2.63334641203983E-05,8.96275287232129E-06,-0.17578125,0,0
-3.17106241709553E-05,1.26726163216517E-05,-0.17578125,0,0
-2.81084794551134E-05,1.31235219669179E-05,-0.17578125,0,0
-3.12140437017661E-05,1.79737944563385E-05,-0.17578125,0,0
-2.8500622647698E-05,1.65873898367863E-05,-0.17578125,0,0
-3.04567183775362E-05,1.57388658408308E-05,-0.17578125,0,0
-3.21482693834696E-05,1.57368558575399E-05,-0.17578125,0,0
-3.36181437887717E-05,1.75298682734137E-05,-0.17578125,0,0
-3.45339212799445E-05,1.90288719750242E-05,-0.17578125,0,0
-3.4161945222877E-05,1.78791287908098E-05,-0.17578125,0,0
-3.47920686181169E-05,1.63719487318303E-05,-0.17578125,0,0
-3.16947043756954E-05,1.30005928440369E-05,-0.17578125,0,0
-2.95816589641618E-05,1.09005004560458E-05,-0.17578125,0,0
-2.62493431364419E-05,7.99289500719169E-06,-0.17578125,0,0
-2.67805826297263E-05,7.1200188358489E-06,-0.17578125,0,0
-2.48226988333045E-05,5.62335299036931E-06,-0.17578125,0,0
-2.39774944930105E-05,6.23887399342493E-06,-0.17578125,0,0
-2.207111538155E-05,5.93990444031078E-06,-0.17578125,0,0
-2.22248418140225E-05,5.73742454434978E-06,-0.17578125,0,0
-2.0780726117664E-05,5.14311886945507E-06,-0.17578125,0,0
-2.07084467547247E-05,5.7586212278693E-06,-0.17578125,0,0
-2.01120092242491E-05,4.6106015361147E-06,-0.17578125,0,0
-2.0017396309413E-05,3.13793930217798E-06,-0.17578125,0,0
-1.89220718311844E-05,3.0007470286364E-06,-0.17578125,0,0
-1.70159692061134E-05,3.75604554392339E-06,-0.17578125,0,0
-1.31089545902796E-05,3.84020859200973E-06,-0.17578125,0,0
-1.88017766049597E-05,6.83770440446096E-06,-0.17578125,0,0
-1.6603142285021E-05,7.64715514378622E-06,-0.17578125,0,0
-2.44282055064105E-05,9.20321508601774E-06,-0.17578125,0,0
-2.55486866080901E-05,7.68735208112048E-06,-0.17578125,0,0
-2.82131732092239E-05,7.39119832360302E-06,-0.17578125,0,0
-2.49906024691882E-05,8.7625394371571E-06,-0.17578125,0,0
-2.28926710406085E-05,1.11475110315951E-05,-0.17578125,0,0
-2.15174695767928E-05,1.24231855807011E-05,-0.17578125,0,0
-2.28154131036717E-05,1.33153116621543E-05,-0.17578125,0,0
-2.48325559368823E-05,1.37174201881862E-05,-0.17578125,0,0
-2.52515110332752E-05,1.42770431921235E-05,-0.17578125,0,0
-2.5844014089671E-05,1.47950386235607E-05,-0.17578125,0,0
-2.4290404326166E-05,1.42037579280441E-05,-0.17578125,0,0
-2.42433343373705E-05,1.42591197800357E-05,-0.17578125,0,0
-2.44518832914764E-05,1.56910937221255E-05,-0.17578125,0,0
-2.6537707526586E-05,1.95642169273924E-05,-0.17578125,0,0
-2.64244226855226E-05,2.1459427443915E-05,-0.17578125,0,0
-2.67636187345488E-05,2.05158921744442E-05,-0.17578125,0,0
-2.50112807407277E-05,1.97256540559465E-05,-0.17578125,0,0
-2.40386452787789E-05,2.08574856515042E-05,-0.17578125,0,0
-2.29253892030101E-05,2.11688075069105E-05,-0.17578125,0,0
-2.31150133913616E-05,2.04376665351447E-05,-0.17578125,0,0
-2.23042097786674E-05,1.97989957086975E-05,-0.17578125,0,0
-2.06425593205495E-05,2.06825716304593E-05,-0.17578125,0,0
-1.99122368940152E-05,2.28949575102888E-05,-0.17578125,0,0
-2.01448201551102E-05,2.45600622292841E-05,-0.17578125,0,0
-1.67477210197831E-05,1.8878563423641E-05,-0.17578125,0,0
-2.48527103394736E-05,2.53676371357869E-05,-0.17578125,0,0
-1.89105157915037E-05,1.62653777806554E-05,-0.17578125,0,0
-2.11881797440583E-05,2.02081628231099E-05,-0.17578125,0,0
-1.75072746060323E-05,1.6664489521645E-05,-0.17578125,0,0
-2.22373328142567E-05,1.97136650967877E-05,-0.17578125,0,0
-2.38366028497694E-05,1.63296608661767E-05,-0.17578125,0,0
-2.6147910830332E-05,1.56115092977416E-05,-0.17578125,0,0
-2.55099348578369E-05,1.18669113362557E-05,-0.17578125,0,0
-2.54387432505609E-05,8.78525497682858E-06,-0.17578125,0,0
-2.61691784544382E-05,6.36690447208821E-06,-0.17578125,0,0
-2.53897760558175E-05,5.28149166711955E-06,-0.17578125,0,0
-2.47032330662478E-05,8.18223452370148E-06,-0.17578125,0,0
-2.34236940741539E-05,8.59605825098697E-06,-0.17578125,0,0
-2.60302294918802E-05,8.9972290879814E-06,-0.17578125,0,0
-2.74298690783326E-05,5.74462455915636E-06,-0.17578125,0,0
-2.90973603114253E-05,4.39393079432193E-06,-0.17578125,0,0
-2.74673948297277E-05,1.61579498580977E-06,-0.17578125,0,0
-2.71732915280154E-05,1.75236402810697E-06,-0.17578125,0,0
-2.74169760814402E-05,4.25820473992644E-07,-0.17578125,0,0
-2.94832734653028E-05,-4.82433279103134E-07,-0.17578125,0,0
-2.82608034467557E-05,-3.76038087779307E-06,-0.17578125,0,0
-2.5301489586127E-05,-5.36776042281417E-06,-0.17578125,0,0
-2.19237062992761E-05,-4.93324159833719E-06,-0.17578125,0,0
-2.22126818698598E-05,-2.19052617467241E-06,-0.17578125,0,0
-2.40140761889052E-05,-1.29767147427629E-06,-0.17578125,0,0
-2.44107977778185E-05,-5.29405213001155E-07,-0.17578125,0,0
-1.8377273590886E-05,-8.2786243638111E-08,-0.17578125,0,0
-2.54710957960924E-05,-9.03677801034064E-07,-0.17578125,0,0
-1.80656188604189E-05,-2.18992408917984E-06,-0.17578125,0,0
-2.02908377104905E-05,-3.89294791602879E-06,-0.17578125,0,0
-1.38548175527831E-05,-3.66794006367854E-06,-0.17578125,0,0
-1.59415758389514E-05,-1.34393940243172E-06,-0.17578125,0,0
-1.44325695146108E-05,-3.44241755101393E-07,-0.17578125,0,0
-1.65512938110624E-05,-4.31067263662044E-07,-0.17578125,0,0
-1.58944967552088E-05,7.25751192476309E-07,-0.17578125,0,0
-1.55279412865639E-05,2.78575225820532E-06,-0.17578125,0,0
-1.65108067449182E-05,5.18844217367587E-06,-0.17578125,0,0
-1.81315390364034E-05,4.76806917504291E-06,-0.17578125,0,0
-2.05230007850332E-05,3.1680876872997E-06,-0.17578125,0,0
-2.05788328457857E-05,2.51905294135213E-06,-0.17578125,0,0
-2.25605945161078E-05,3.75820059161924E-06,-0.17578125,0,0
-2.28408880502684E-05,6.06930416324758E-06,-0.17578125,0,0
-2.59106909652473E-05,6.10449660598533E-06,-0.17578125,0,0
-2.66714341705665E-05,3.99531609218684E-06,-0.17578125,0,0
-2.83366498479154E-05,2.74350304607651E-06,-0.17578125,0,0
-2.81139309663558E-05,4.26264205088955E-06,-0.17578125,0,0
-2.95540303341113E-05,7.20449088476016E-06,-0.17578125,0,0
-2.89801118924515E-05,1.06729412436835E-05,-0.17578125,0,0
-2.91389387712115E-05,1.3544562534662E-05,-0.17578125,0,0
-2.94765213766368E-05,1.57975537149468E-05,-0.17578125,0,0
-3.06573929265141E-05,1.67352645803476E-05,-0.17578125,0,0
-3.03964934573742E-05,1.69107624969911E-05,-0.17578125,0,0
-3.106709846179E-05,1.80207225639606E-05,-0.17578125,0,0
-2.61388559010811E-05,1.16660512503586E-05,-0.17578125,0,0
-3.6102475860389E-05,1.41909249578021E-05,-0.17578125,0,0
-2.48947890213458E-05,1.10322625914705E-05,-0.17578125,0,0
-3.04880977637367E-05,1.91690760402707E-05,-0.17578125,0,0
-2.51307956204982E-05,1.83663760253694E-05,-0.17578125,0,0
-2.72659908659989E-05,2.04668504011352E-05,-0.17578125,0,0
-2.15770378417801E-05,1.74456745298812E-05,-0.17578125,0,0
-2.22559665417066E-05,1.81410287041217E-05,-0.17578125,0,0
-2.14006340684136E-05,1.96196997421794E-05,-0.17578125,0,0
-1.99553833226673E-05,1.99388287001057E-05,-0.17578125,0,0
-1.86676770681515E-05,1.65098190336721E-05,-0.17578125,0,0
-1.70249004440848E-05,1.16131141112419E-05,-0.17578125,0,0
-1.82347266672878E-05,8.51447657623794E-06,-0.17578125,0,0
-1.66027530212887E-05,6.24349377176259E-06,-0.17578125,0,0
-1.66963018273236E-05,8.49569551064633E-06,-0.17578125,0,0
-1.42464623422711E-05,1.02907206382952E-05,-0.17578125,0,0
-1.61646166816354E-05,1.27217717817985E-05,-0.17578125,0,0
-1.58574621309526E-05,1.37651168188313E-05,-0.17578125,0,0
-1.67757134477142E-05,1.67785510711838E-05,-0.17578125,0,0
-1.45992325997213E-05,1.72423860931303E-05,-0.17578125,0,0
-1.49415864143521E-05,1.88567391887773E-05,-0.17578125,0,0
-1.4298316273198E-05,2.27505770453718E-05,-0.17578125,0,0
-1.53768178279279E-05,2.75129496003501E-05,-0.17578125,0,0
-1.52299107867293E-05,2.70958862529369E-05,-0.17578125,0,0
-1.64716384460917E-05,2.28531462198589E-05,-0.17578125,0,0
-1.72079344338272E-05,1.92565348697826E-05,-0.17578125,0,0
-1.65518704307033E-05,2.09366371564101E-05,-0.17578125,0,0
-1.21613120427355E-05,2.04265070351539E-05,-0.17578125,0,0
-1.82331605174113E-05,3.09935057885014E-05,-0.17578125,0,0
-1.59575265570311E-05,2.55003978963941E-05,-0.17578125,0,0
-1.89024558494566E-05,3.1137555197347E-05,-0.17578125,0,0
-1.638152571104E-05,2.90864481939934E-05,-0.17578125,0,0
-1.86928955372423E-05,3.21492443617899E-05,-0.17578125,0,0
-1.80641436600126E-05,2.8347114493954E-05,-0.17578125,0,0
-1.93458672583802E-05,2.6886611522059E-05,-0.17578125,0,0
-1.86961660801899E-05,2.52670452027814E-05,-0.17578125,0,0
-1.96215842152014E-05,2.74508602160495E-05,-0.17578125,0,0
-2.12634186027572E-05,2.9921882742201E-05,-0.17578125,0,0
-2.20843994611641E-05,2.92109598376555E-05,-0.17578125,0,0
-2.3809529011487E-05,2.73866717179772E-05,-0.17578125,0,0
-2.3719216187601E-05,2.32137190323556E-05,-0.17578125,0,0
-2.37668773479527E-05,2.32374659390189E-05,-0.17578125,0,0
-2.27681121032219E-05,2.29711222345941E-05,-0.17578125,0,0
-2.41035559156444E-05,2.29437810048694E-05,-0.17578125,0,0
-2.46018989855656E-05,1.86690103873843E-05,-0.17578125,0,0
-2.60922461166047E-05,1.75982149812626E-05,-0.17578125,0,0
-2.57424017036101E-05,1.63374224939616E-05,-0.17578125,0,0
-2.53829257417237E-05,1.57414870045614E-05,-0.17578125,0,0
-2.32773345487658E-05,1.39161620609229E-05,-0.17578125,0,0
-2.25261992454762E-05,1.56278365466278E-05,-0.17578125,0,0
-2.17877750401385E-05,1.80519491550513E-05,-0.17578125,0,0
-2.16052012547152E-05,1.96005421457812E-05,-0.17578125,0,0
-2.10527268791338E-05,1.78738318936666E-05,-0.17578125,0,0
-2.0302086340962E-05,1.38135292218067E-05,-0.17578125,0,0
-1.59230694407597E-05,5.613241228275E-06,-0.17578125,0,0
-2.30428304348607E-05,3.43401779900887E-06,-0.17578125,0,0
-1.87070181709714E-05,-3.45313196703501E-06,-0.17578125,0,0
-2.44716120505473E-05,-3.08874905385892E-06,-0.17578125,0,0
-2.27769232878927E-05,-4.88497880724026E-06,-0.17578125,0,0
-2.66602910414804E-05,-3.37429673891165E-06,-0.17578125,0,0
-2.78709703707136E-05,-3.22370669891825E-06,-0.17578125,0,0
-3.10679315589368E-05,-2.0834179395024E-06,-0.17578125,0,0
-3.02795506286202E-05,-2.45981982516241E-06,-0.17578125,0,0
-2.86251615762012E-05,-2.8180204481032E-06,-0.17578125,0,0
-2.61675286310492E-05,-2.59862667917332E-06,-0.17578125,0,0
-2.33990740525769E-05,-2.38711868405517E-06,-0.17578125,0,0
-2.41511643253034E-05,-2.62523076344223E-06,-0.17578125,0,0
-2.67542600340676E-05,-4.00036788050784E-06,-0.17578125,0,0
-3.05218600260559E-05,-1.48213450756884E-06,-0.17578125,0,0
-2.91022352030268E-05,4.11592418458895E-06,-0.17578125,0,0
-2.74861213256372E-05,8.27766780275851E-06,-0.17578125,0,0
-2.53464768320555E-05,6.5717390498321E-06,-0.17578125,0,0
-2.648435656738E-05,5.45122566109058E-06,-0.17578125,0,0
-2.56297080341028E-05,6.28277302894276E-06,-0.17578125,0,0
-2.56308067037025E-05,7.26739472156623E-06,-0.17578125,0,0
-2.63053152593784E-05,4.4201278797118E-06,-0.17578125,0,0
-2.85946352960309E-05,1.08911956431257E-06,-0.17578125,0,0
-2.92190961772576E-05,1.24766097542306E-06,-0.17578125,0,0
-3.07899463223293E-05,4.38976121586165E-06,-0.17578125,0,0
-3.24540560541209E-05,5.35610251972685E-06,-0.17578125,0,0
-3.35110671585426E-05,6.10564984526718E-06,-0.17578125,0,0
-2.65267572103767E-05,6.13224074186292E-06,-0.17578125,0,0
-3.78898694179952E-05,1.08081503640278E-05,-0.17578125,0,0
-2.8801503503928E-05,9.94661786535289E-06,-0.17578125,0,0
-3.57827411789913E-05,1.09127513496787E-05,-0.17578125,0,0
-2.94019737339113E-05,1.05125436675735E-05,-0.17578125,0,0
-3.1689469324192E-05,1.13989090095856E-05,-0.17578125,0,0
-2.84177604044089E-05,1.08609556264128E-05,-0.17578125,0,0
-3.07733898807783E-05,1.25245851450018E-05,-0.17578125,0,0
-3.12562915496528E-05,1.4008667676535E-05,-0.17578125,0,0
-3.25331711792387E-05,1.44834766615531E-05,-0.17578125,0,0
-3.38566751452163E-05,1.33061503220233E-05,-0.17578125,0,0
-3.27439847751521E-05,9.80672302830499E-06,-0.17578125,0,0
-3.29555914504454E-05,7.09018195266253E-06,-0.17578125,0,0
-3.07209847960621E-05,5.54209964320762E-06,-0.17578125,0,0
-3.10414143314119E-05,5.69399799132952E-06,-0.17578125,0,0
-2.85301030089613E-05,6.41035876469687E-06,-0.17578125,0,0
-2.85298683593282E-05,8.16419924376532E-06,-0.17578125,0,0
-2.59005064435769E-05,8.63350396684837E-06,-0.17578125,0,0
-2.6591851565172E-05,7.88244233262958E-06,-0.17578125,0,0
-2.51478431891883E-05,6.11029008723563E-06,-0.17578125,0,0
-2.42132136918372E-05,6.2000776779314E-06,-0.17578125,0,0
-2.04256612050813E-05,7.3598462222435E-06,-0.17578125,0,0
-2.08828441827791E-05,8.90652336238418E-06,-0.17578125,0,0
-2.28101544053061E-05,9.40207337407628E-06,-0.17578125,0,0
-2.40775789279724E-05,9.47574517340399E-06,-0.17578125,0,0
-2.39463824982522E-05,1.03842248790897E-05,-0.17578125,0,0
-2.34004783123964E-05,1.19093410830828E-05,-0.17578125,0,0
-1.85435073944973E-05,1.18208190542646E-05,-0.17578125,0,0
-2.65536436927505E-05,1.7384389138897E-05,-0.17578125,0,0
-2.08466717595002E-05,1.29415257106302E-05,-0.17578125,0,0
-2.58070558629697E-05,1.41888658617972E-05,-0.17578125,0,0
-2.25393778237049E-05,1.00140878203092E-05,-0.17578125,0,0
-2.57529973168857E-05,1.12031339085661E-05,-0.17578125,0,0
-2.48763553827303E-05,1.10219662019517E-05,-0.17578125,0,0
-2.76284263236448E-05,1.27385792438872E-05,-0.17578125,0,0
-2.73607729468495E-05,1.33420662677963E-05,-0.17578125,0,0
-2.70861255557975E-05,1.35838417918421E-05,-0.17578125,0,0
-2.72650995611912E-05,1.16971923489473E-05,-0.17578125,0,0
-2.56880193774123E-05,8.12742200650973E-06,-0.17578125,0,0
-2.51291385211516E-05,5.87983140576398E-06,-0.17578125,0,0
-2.39263081311947E-05,3.89197111871908E-06,-0.17578125,0,0
-2.47523912548786E-05,4.40316716776579E-06,-0.17578125,0,0
-2.25471812882461E-05,5.14482417202089E-06,-0.17578125,0,0
-2.12167706195032E-05,8.02409613243071E-06,-0.17578125,0,0
-1.78519785549724E-05,1.02027770481072E-05,-0.17578125,0,0
-1.81753675860818E-05,1.34177425934467E-05,-0.17578125,0,0
-1.9029763279832E-05,1.37603128678165E-05,-0.17578125,0,0
-2.1394243958639E-05,1.34931988213793E-05,-0.17578125,0,0
-2.04439584194915E-05,1.40935717354296E-05,-0.17578125,0,0
-2.04789903364144E-05,1.82101921382127E-05,-0.17578125,0,0
-2.15325380850118E-05,2.1119200027897E-05,-0.17578125,0,0
-2.37928270507837E-05,2.13414550671587E-05,-0.17578125,0,0
-2.3669381334912E-05,2.01559942070162E-05,-0.17578125,0,0
-2.22831185965333E-05,2.09966801776318E-05,-0.17578125,0,0
-1.75660698005231E-05,1.91830713447416E-05,-0.17578125,0,0
-2.49609747697832E-05,2.63759338849923E-05,-0.17578125,0,0
-1.97873305296525E-05,1.83129577635555E-05,-0.17578125,0,0
-2.55411650869064E-05,2.26584743359126E-05,-0.17578125,0,0
-2.2401989554055E-05,1.68802489497466E-05,-0.17578125,0,0
-2.48712003667606E-05,1.86242632480571E-05,-0.17578125,0,0
-2.32431339100003E-05,1.71302290254971E-05,-0.17578125,0,0
-2.53379475907423E-05,1.60810377565213E-05,-0.17578125,0,0
-2.64797326963162E-05,1.34857855300652E-05,-0.17578125,0,0
-2.76424307230627E-05,1.56957958097337E-05,-0.17578125,0,0
-2.71683820756152E-05,1.97946992557263E-05,-0.17578125,0,0
-2.52141198870959E-05,2.07653265533736E-05,-0.17578125,0,0
-2.45359369728249E-05,1.98017241928028E-05,-0.17578125,0,0
-2.28322223847499E-05,1.35446480271639E-05,-0.17578125,0,0
-2.30911646212917E-05,7.64361811889103E-06,-0.17578125,0,0
-2.1334208213375E-05,-1.67007712548184E-07,-0.17578125,0,0
-2.17988545045955E-05,-3.14279577651178E-06,-0.17578125,0,0
-2.04012794711161E-05,-3.59722344001057E-06,-0.17578125,0,0
-2.09469544643071E-05,4.22298818136824E-08,-0.17578125,0,0
-2.06238109967671E-05,4.6016700139262E-07,-0.17578125,0,0
-2.28138633246999E-05,1.40111137625354E-06,-0.17578125,0,0
-2.41422712861095E-05,1.83309782642027E-06,-0.17578125,0,0
-2.55050472333096E-05,3.48705452779541E-06,-0.17578125,0,0
-2.48655833274825E-05,4.76661216453067E-06,-0.17578125,0,0
-2.38188076764345E-05,6.01018518864294E-06,-0.17578125,0,0
-2.3768077880959E-05,6.98103440299747E-06,-0.17578125,0,0
-2.65272483375156E-05,6.47437673251261E-06,-0.17578125,0,0
-2.32822749239858E-05,3.723168219949E-06,-0.17578125,0,0
-3.38786303473171E-05,4.12590088672005E-06,-0.17578125,0,0
-2.67472860286944E-05,4.5257770580065E-06,-0.17578125,0,0
-3.22478699672502E-05,1.01336290754261E-05,-0.17578125,0,0
-2.60287852142937E-05,1.10357495941571E-05,-0.17578125,0,0
-2.73662772087846E-05,1.07726573332911E-05,-0.17578125,0,0
-2.36933228734415E-05,9.96381641016342E-06,-0.17578125,0,0
-2.57632418652065E-05,9.53918788582087E-06,-0.17578125,0,0
-2.60475117102033E-05,8.60338786878856E-06,-0.17578125,0,0
-2.49498098128242E-05,8.28086467663525E-06,-0.17578125,0,0
-2.32003621931653E-05,6.38673964203917E-06,-0.17578125,0,0
-2.17087999772048E-05,3.22067967317707E-06,-0.17578125,0,0
-2.35526931646746E-05,3.01028194371611E-06,-0.17578125,0,0
-2.34424751397455E-05,3.75898662241525E-06,-0.17578125,0,0
-2.54913138633128E-05,3.47893001162447E-06,-0.17578125,0,0
-2.51415185630322E-05,1.02534386314801E-06,-0.17578125,0,0
-2.66380247921916E-05,-1.44760622333706E-06,-0.17578125,0,0
-2.53365196840605E-05,-4.44973920821212E-06,-0.17578125,0,0
-2.59057615039637E-05,-5.66939206692041E-06,-0.17578125,0,0
-2.33900245802943E-05,-5.69966960028978E-06,-0.17578125,0,0
-2.12606064451393E-05,-6.02122372583835E-06,-0.17578125,0,0
-1.71644805959659E-05,-8.03176408226136E-06,-0.17578125,0,0
-1.60473082360113E-05,-1.02376725408249E-05,-0.17578125,0,0
-1.64497669175034E-05,-1.21058455988532E-05,-0.17578125,0,0
-1.79599137482001E-05,-1.23211366371834E-05,-0.17578125,0,0
-1.74496690306114E-05,-1.15279199235374E-05,-0.17578125,0,0
-1.60697345563676E-05,-1.10374103314825E-05,-0.17578125,0,0
-1.27022231026785E-05,-9.91362776403548E-06,-0.17578125,0,0
-1.95354023162508E-05,-1.40169522637734E-05,-0.17578125,0,0
-1.74366959981853E-05,-7.52020514482865E-06,-0.17578125,0,0
-2.05457436095458E-05,-5.8249793255527E-06,-0.17578125,0,0
-1.60926301759901E-05,-1.92058678294416E-06,-0.17578125,0,0
-1.52201682794839E-05,-2.1988178104948E-06,-0.17578125,0,0
-1.33039529828238E-05,-1.24111238619662E-06,-0.17578125,0,0
-1.50868163473206E-05,-1.92930178855022E-06,-0.17578125,0,0
-1.58784077939345E-05,-8.23416179684955E-09,-0.17578125,0,0
-1.64410412253346E-05,2.74756735052506E-06,-0.17578125,0,0
-1.68331116583431E-05,5.97028838456026E-06,-0.17578125,0,0
-1.70758357853629E-05,8.8954020611709E-06,-0.17578125,0,0
-1.78980062628398E-05,1.08112417365192E-05,-0.17578125,0,0
-1.73115713550942E-05,1.41085374707473E-05,-0.17578125,0,0
-1.8351080143475E-05,1.67647522175685E-05,-0.17578125,0,0
-1.85744374903152E-05,2.07150842470583E-05,-0.17578125,0,0
-1.97306944755837E-05,2.26702559302794E-05,-0.17578125,0,0
-1.88109152077232E-05,2.35068146139383E-05,-0.17578125,0,0
-1.89372440217994E-05,2.17305423575453E-05,-0.17578125,0,0
-1.85664175660349E-05,2.04098450922174E-05,-0.17578125,0,0
-1.97649551409995E-05,1.87728837772738E-05,-0.17578125,0,0
-1.98911657207645E-05,2.01148632186232E-05,-0.17578125,0,0
-2.01670354726957E-05,2.3201226213132E-05,-0.17578125,0,0
-2.09042191272601E-05,2.49815857387148E-05,-0.17578125,0,0
-2.26806314458372E-05,2.38057818933157E-05,-0.17578125,0,0
-2.29835313803051E-05,2.12492050195578E-05,-0.17578125,0,0
-2.10434773180168E-05,1.92964089364978E-05,-0.17578125,0,0
-1.32058721646899E-05,1.64078683155822E-05,-0.17578125,0,0
-1.68010737979785E-05,2.42690766754095E-05,-0.17578125,0,0
-1.28309357023682E-05,1.94354106497485E-05,-0.17578125,0,0
-1.99489950318821E-05,2.34393428399926E-05,-0.17578125,0,0
-1.7974756701733E-05,2.02516366698546E-05,-0.17578125,0,0
-1.86160486919107E-05,2.36017858696869E-05,-0.17578125,0,0
-1.43767765621305E-05,2.30979403568199E-05,-0.17578125,0,0
-1.42544868140249E-05,2.63858455582522E-05,-0.17578125,0,0
-1.57868253154447E-05,2.69249667326221E-05,-0.17578125,0,0
-1.8729657313088E-05,2.73443129117368E-05,-0.17578125,0,0
-1.97287772607524E-05,2.71906646958087E-05,-0.17578125,0,0
-1.81998002517503E-05,2.54847491305554E-05,-0.17578125,0,0
-1.81142695510061E-05,2.41492853092495E-05,-0.17578125,0,0
-1.78581649379339E-05,2.17793767660623E-05,-0.17578125,0,0
-1.87032528629061E-05,2.17596370930551E-05,-0.17578125,0,0
-1.75279437826248E-05,1.93712403415702E-05,-0.17578125,0,0
-1.87717105291085E-05,1.85187764145667E-05,-0.17578125,0,0
-1.87298974196892E-05,1.66628378792666E-05,-0.17578125,0,0
-2.06578806682955E-05,1.89225320355035E-05,-0.17578125,0,0
-2.30283258133568E-05,2.13394650927512E-05,-0.17578125,0,0
-2.66803035628982E-05,2.38860684476094E-05,-0.17578125,0,0
-2.69846023002174E-05,2.31240119319409E-05,-0.17578125,0,0
-2.64853533735732E-05,2.27274958888302E-05,-0.17578125,0,0
-2.54443548328709E-05,2.2109483325039E-05,-0.17578125,0,0
-2.5705534426379E-05,2.21496738959104E-05,-0.17578125,0,0
-2.5649835151853E-05,2.19910107261967E-05,-0.17578125,0,0
-2.5077430109377E-05,2.34383878705557E-05,-0.17578125,0,0
-2.19243393075885E-05,1.86476227099774E-05,-0.17578125,0,0
-3.33849166054279E-05,2.52018817263888E-05,-0.17578125,0,0
-2.7125162887387E-05,1.70259954757057E-05,-0.17578125,0,0
-3.13111959258094E-05,2.14084084291244E-05,-0.17578125,0,0
-2.66572715190705E-05,1.83038609975483E-05,-0.17578125,0,0
-3.01775435218588E-05,2.17053038795711E-05,-0.17578125,0,0
-3.09045281028375E-05,1.87872155947844E-05,0,0,0
-3.54742041963618E-05,1.97229710465763E-05,0,0,0
-3.68140244972892E-05,1.9853656340274E-05,0,0,0
-3.84202066925354E-05,1.89659913303331E-05,0,0,0
-3.90882159990724E-05,1.53564305946929E-05,0,0,0
-3.79059420083649E-05,1.02157373476075E-05,0,0,0
-3.8462269003503E-05,8.70521580509376E-06,0,0,0
-3.78056902263779E-05,7.10221956978785E-06,0,0,0
-3.85442217520904E-05,7.75409625930479E-06,0,0,0
-3.59272344212513E-05,7.59155636842479E-06,0,0,0
-3.46945780620445E-05,1.03267502709059E-05,0,0,0
-3.1129049602896E-05,9.099110684474E-06,0,0,0
-3.04248715110589E-05,7.7918075476191E-06,0,0,0
-2.81437223748071E-05,5.28581085745827E-06,0,0,0
-2.8197811843711E-05,6.26255769020645E-06,0,0,0
-2.830738958437E-05,6.69284190735198E-06,0,0,0
-3.03443339362275E-05,6.43768453301163E-06,0,0,0
-3.11238400172442E-05,5.12453016199288E-06,0,0,0
-3.11574585794006E-05,5.9105964282935E-06,0,0,0
-3.00948850053828E-05,6.23502774033113E-06,0,0,0
-3.02580465358915E-05,6.74396687827539E-06,0,0,0
-2.38210432144115E-05,4.80176322525949E-06,0,0,0
-3.25553264701739E-05,3.84335953640402E-06,0,0,0
-2.44026632572059E-05,-6.46273235815897E-07,0,0,0
-3.13886303047184E-05,2.22264293370245E-06,0,0,0
-2.52909558184911E-05,3.00216220239236E-06,0,0,0
-2.74595877272077E-05,2.86377598968102E-06,0,0,0
-2.41103916778229E-05,1.58747843670426E-06,0,0,0
-2.57204956142232E-05,3.44858085554733E-06,0,0,0
-2.41611323872348E-05,4.63913056591991E-06,0,0,0
-2.3732793124509E-05,4.79827258459409E-06,0,0,0
-2.40558638324728E-05,5.66502149013104E-06,0,0,0
-2.29588804359082E-05,6.59296620142413E-06,0,0,0
-2.2741180146113E-05,7.35928233552841E-06,0,0,0
-2.04187672352418E-05,8.33977992442669E-06,0,0,0
-2.23371152969776E-05,1.20688046081341E-05,0,0,0
-2.22803264477989E-05,1.47395139720174E-05,0,0,0
-2.36765317822574E-05,1.49998222696013E-05,0,0,0
-2.0509445675998E-05,1.31740398501279E-05,0,0,0
-2.03040308406344E-05,1.4095940059633E-05,0,0,0
-1.96959572349442E-05,1.67982361745089E-05,0,0,0
-2.19621906580869E-05,1.83505944733042E-05,0,0,0
-2.12490776902996E-05,1.70642706507351E-05,0,0,0
-2.12488303077407E-05,1.72095897141844E-05,0,0,0
-2.18772838707082E-05,1.91992439795285E-05,0,0,0
-2.48772976192413E-05,2.0046929421369E-05,0,0,0
-2.58883919741493E-05,1.8753786207526E-05,0,0,0
-2.50218054134166E-05,1.73276948771672E-05,0,0,0
-1.7985137674259E-05,1.30499493025127E-05,0,0,0
-2.51389265031321E-05,1.7282956832787E-05,0,0,0
-2.10548932955135E-05,9.31933300307719E-06,0,0,0
-2.8442434995668E-05,7.55581550038187E-06,0,0,0
-2.45331884798361E-05,6.89896808125923E-07,0,0,0
-2.73493842541939E-05,2.52731024374953E-06,0,0,0
-2.66199076577323E-05,2.63335891759198E-06,0,0,0
-2.80418007605476E-05,4.04547927246313E-06,0,0,0
-2.69383272097912E-05,3.832089532807E-06,0,0,0
-2.68185776803875E-05,4.20692049374338E-06,0,0,0
-2.67054747382645E-05,4.06054414270329E-06,0,0,0
-2.53699527092977E-05,5.07737695443211E-06,0,0,0
-2.46623258135514E-05,8.98827238415834E-06,0,0,0
-2.25706717174035E-05,9.98788618744584E-06,0,0,0
-2.31770427490119E-05,9.74368867900921E-06,0,0,0
-2.15282980207121E-05,8.0571762737236E-06,0,0,0
-2.12753748201067E-05,9.66366678767372E-06,0,0,0
-1.98539255507058E-05,1.05302542579011E-05,0,0,0
-2.07621524168644E-05,1.2352646990621E-05,0,0,0
-1.78883419721387E-05,1.21805442176992E-05,0,0,0
-1.50830619531916E-05,1.16059527499601E-05,0,0,0
-1.27806943055475E-05,1.08679178083548E-05,0,0,0
-1.40026913868496E-05,1.25473961816169E-05,0,0,0
-1.52522661664989E-05,1.27131970657501E-05,0,0,0
-1.64879566000309E-05,1.29228774312651E-05,0,0,0
-1.58490875037387E-05,1.14493932414916E-05,0,0,0
-1.38947516461485E-05,9.56247731664917E-06,0,0,0
-9.56637450144626E-06,9.0095427367487E-06,0,0,0
-1.36422931973357E-05,1.28775009216042E-05,0,0,0
-1.15612647277885E-05,9.44629209698178E-06,0,0,0
-1.48421095218509E-05,1.42782209877623E-05,0,0,0
-1.1980632734776E-05,1.6174779375433E-05,0,0,0
-1.18854513857514E-05,1.70333496498642E-05,0,0,0
-1.14514859888004E-05,1.50831174323685E-05,0,0,0
-1.45908798003802E-05,1.46363981912145E-05,0,0,0
-1.66072477441048E-05,1.45073317980859E-05,0,0,0
-1.76321136677871E-05,1.56703954417026E-05,0,0,0
-1.8594364519231E-05,1.70238745340612E-05,0,0,0
-2.0201154256938E-05,1.75329314515693E-05,0,0,0
-2.23433271457907E-05,1.90104856301332E-05,0,0,0
-2.12643190025119E-05,1.94261556316633E-05,0,0,0
-1.94924359675497E-05,1.9197443180019E-05,0,0,0
-1.73399221239379E-05,1.77883430296788E-05,0,0,0
-1.72961099451641E-05,1.80709666892653E-05,0,0,0
-1.71992996911285E-05,1.72899472090648E-05,0,0,0
-1.86527668120107E-05,1.65505989571102E-05,0,0,0
-1.88009817065904E-05,1.51035992530524E-05,0,0,0
-1.93303167179693E-05,1.40197580549284E-05,0,0,0
-1.95208667719271E-05,1.29607642520568E-05,0,0,0
-2.15586405829526E-05,1.21480497909943E-05,0,0,0
-2.36394807870965E-05,1.01378891486092E-05,0,0,0
-2.50870198215125E-05,8.67560720507754E-06,0,0,0
-2.62873072642833E-05,8.39052790979622E-06,0,0,0
-2.757598667813E-05,9.26739448914304E-06,0,0,0
-2.28466615226353E-05,6.94444906912395E-06,0,0,0
-3.20097060466651E-05,9.21263108466519E-06,0,0,0
-2.32316415349487E-05,5.93243248658837E-06,0,0,0
-2.90115567622706E-05,7.18845740266261E-06,0,0,0
-2.53153939411277E-05,6.01020519752637E-06,0,0,0
-2.98930226563243E-05,9.65255640039686E-06,0,0,0
-2.68154017248889E-05,1.18610050776624E-05,0,0,0
-2.68936764769023E-05,1.40334968818934E-05,0,0,0
-2.56477669609012E-05,1.45351523315185E-05,0,0,0
-2.51252076850506E-05,1.39953572215745E-05,0,0,0
-2.50216016866034E-05,1.33262155941338E-05,0,0,0
-2.44938546529738E-05,1.32731956909993E-05,0,0,0
-2.63951278611785E-05,1.43362221933785E-05,0,0,0
-2.65862909145653E-05,1.3466530617734E-05,0,0,0
-2.88069950329373E-05,1.2014950698358E-05,0,0,0
-2.82440578303067E-05,1.06572806544136E-05,0,0,0
-2.99725434160791E-05,1.19335481940652E-05,0,0,0
-2.94759174721548E-05,1.28169294839608E-05,0,0,0
-3.17535377689637E-05,1.37876841108664E-05,0,0,0
-3.19561004289426E-05,1.49293464346556E-05,0,0,0
-3.28570895362645E-05,1.68050974025391E-05,0,0,0
-3.0641404009657E-05,1.62339383678045E-05,0,0,0
-2.84215220744954E-05,1.55947000166634E-05,0,0,0
-2.55197646765737E-05,1.52992961375276E-05,0,0,0
-2.56929743045475E-05,1.4061018191569E-05,0,0,0
-2.6273612093064E-05,1.21948005471495E-05,0,0,0
-2.54748811130412E-05,1.27241291920654E-05,0,0,0
-1.98955767700681E-05,1.15544798973133E-05,0,0,0
-2.90247771772556E-05,1.47561495396076E-05,0,0,0
-2.38340744544985E-05,6.87612737237941E-06,0,0,0
-3.0598839657614E-05,6.89064700054587E-06,0,0,0
-2.86400209006388E-05,2.07052767109417E-06,0,0,0
-3.23178646794986E-05,2.54091560236702E-06,0,0,0
-2.94441033474868E-05,7.37284722163167E-07,0,0,0
-2.90728148684138E-05,-5.44768226973247E-07,0,0,0
-2.69342144747498E-05,-2.77517960967089E-06,0,0,0
-2.75455840892391E-05,-1.27333441923838E-06,0,0,0
-2.87499369733268E-05,3.43103920386056E-06,0,0,0
-2.77172784990398E-05,4.13371708418708E-06,0,0,0
-2.77225499303313E-05,2.88176397589268E-06,0,0,0
-2.51620640483452E-05,1.86017769010505E-06,0,0,0
-2.40004901570501E-05,3.68875407730229E-06,0,0,0
-2.15904638025677E-05,3.61522984348994E-06,0,0,0
-2.29254401347134E-05,4.03418562200386E-06,0,0,0
-2.20313959289342E-05,4.60555156678311E-06,0,0,0
-2.21169921132969E-05,8.38302185002249E-06,0,0,0
-1.97613990167156E-05,1.18007537821541E-05,0,0,0
-1.9533928934834E-05,1.43472498166375E-05,0,0,0
-1.92025563592324E-05,1.37889046527562E-05,0,0,0
-1.97720855794614E-05,1.30467633425724E-05,0,0,0
-1.90514074347448E-05,1.33745579660172E-05,0,0,0
-1.90638820640743E-05,1.47807077155448E-05,0,0,0
-1.80426541191991E-05,1.52691372932168E-05,0,0,0
-1.6361940652132E-05,1.54050158016616E-05,0,0,0
-1.28233632494812E-05,1.25121596283861E-05,0,0,0
-1.90862410818227E-05,1.82129242602969E-05,0,0,0
-1.58562252181582E-05,1.38724171847571E-05,0,0,0
-1.98341167561011E-05,1.62496053235373E-05,0,0,0
-1.85879307537107E-05,1.30020753204008E-05,0,0,0
-2.13462935789721E-05,1.53477867570473E-05,0,0,0
-2.11965052585583E-05,1.53843011503341E-05,0,0,0
-2.26112788368482E-05,1.53772216435755E-05,0,0,0
-2.1791698600282E-05,1.10309110823437E-05,0,0,0
-2.07922439585673E-05,6.97477298672311E-06,0,0,0
-1.96361907001119E-05,5.83185692448751E-06,0,0,0
-1.92303396033822E-05,6.2441908994515E-06,0,0,0
-2.08018063858617E-05,7.77933746576309E-06,0,0,0
-2.06056247407105E-05,8.38494270283263E-06,0,0,0
-2.08026158361463E-05,1.06667403088068E-05,0,0,0
-1.97381414182018E-05,1.10344135464402E-05,0,0,0
-2.06472013815073E-05,1.10572609628434E-05,0,0,0
-2.10187808988849E-05,9.3160015239846E-06,0,0,0
-2.26150987145957E-05,9.03598993318155E-06,0,0,0
-2.23829301830847E-05,8.03380680736154E-06,0,0,0
-2.30766418098938E-05,8.71679822012084E-06,0,0,0
-2.2113661543699E-05,8.5444162323256E-06,0,0,0
-2.0286792278057E-05,7.10820540916757E-06,0,0,0
-1.88195353985066E-05,3.19255013891961E-06,0,0,0
-1.95777047338197E-05,1.53427959048713E-06,0,0,0
-1.82512976607541E-05,4.14069154430763E-06,0,0,0
-1.48743556565023E-05,6.75722776577459E-06,0,0,0
-1.07654432213167E-05,2.05782907869434E-06,0,0,0
-1.59358896780759E-05,-1.84492614607734E-06,0,0,0
-1.41332484417944E-05,-5.78635399506311E-06,0,0,0
-1.9572540622903E-05,-2.7672360829456E-06,0,0,0
-1.96364599105436E-05,-3.59306477548671E-06,0,0,0
-2.2125985196908E-05,-4.96919028591947E-06,0,0,0
-2.13531748158857E-05,-5.4926117627474E-06,0,0,0
-2.25617786782095E-05,-3.31774822370789E-06,0,0,0
-2.35898096434539E-05,-2.59187095252855E-06,0,0,0
-2.56195926340297E-05,-2.09843938137055E-06,0,0,0
-2.84206980722956E-05,-3.69080396467325E-07,0,0,0
-3.08407725242432E-05,1.49640652580274E-06,0,0,0
-3.33315692842007E-05,2.48127025770373E-06,0,0,0
-3.41936975019053E-05,1.77316189819976E-06,0,0,0
-3.65100713679567E-05,2.04227831090975E-06,0,0,0
-3.86424399039242E-05,3.81668178306427E-06,0,0,0
-4.21532131440472E-05,7.21214883014909E-06,0,0,0
-4.35789843322709E-05,8.55247981235152E-06,0,0,0
-4.47535858256742E-05,9.42857968766475E-06,0,0,0
-4.44764991698321E-05,1.09488028101623E-05,0,0,0
-4.46958511020057E-05,1.33749026645091E-05,0,0,0
-4.33227396570146E-05,1.54143453983124E-05,0,0,0
-4.26431688538287E-05,1.67893958860077E-05,0,0,0
-4.22153243562207E-05,1.52491647895658E-05,0,0,0
-4.2661569750635E-05,1.27464536490152E-05,0,0,0
-4.26817605330143E-05,1.15697312139673E-05,0,0,0
-4.31685402872972E-05,1.18768366519362E-05,0,0,0
-3.65590130968485E-05,1.01923951660865E-05,0,0,0
-5.06709293404128E-05,1.36112976178993E-05,0,0,0
-3.54922376573086E-05,8.06316347734537E-06,0,0,0
-4.36781447206158E-05,8.34064394439338E-06,0,0,0
-3.54939329554327E-05,4.18546960645472E-06,0,0,0
-3.9990853110794E-05,6.52342896501068E-06,0,0,0
-3.45899861713406E-05,9.08308447833406E-06,0,0,0
-3.47711284121033E-05,1.24342668641475E-05,0,0,0
-3.15868928737473E-05,1.14929234769079E-05,0,0,0
-3.07535810861737E-05,9.62515332503244E-06,0,0,0
-3.07710215565749E-05,8.671638170199E-06,0,0,0
-2.94039618893294E-05,7.77606783231022E-06,0,0,0
-3.01591680909041E-05,7.81234484747984E-06,0,0,0
-2.74949688900961E-05,7.32649596102419E-06,0,0,0
-2.8360465876176E-05,8.69322411745088E-06,0,0,0
-2.51530182140414E-05,9.22342314879643E-06,0,0,0
-2.56956500379601E-05,1.03373104138882E-05,0,0,0
-2.1555766579695E-05,1.0276942703058E-05,0,0,0
-2.13292114494834E-05,1.28078581838054E-05,0,0,0
-1.77601705217967E-05,1.5552097465843E-05,0,0,0
-1.69478153111413E-05,1.73048829310574E-05,0,0,0
-1.42433418659493E-05,1.66410518431803E-05,0,0,0
-1.54269000631757E-05,1.61257248691982E-05,0,0,0
-1.58790571731515E-05,1.47372875289875E-05,0,0,0
-1.62774285854539E-05,1.45165731737507E-05,0,0,0
-1.62404285219964E-05,1.50926744026947E-05,0,0,0
-1.69857012224384E-05,1.62848409672733E-05,0,0,0
-1.3420001778286E-05,1.33377570818993E-05,0,0,0
-1.94132444448769E-05,1.77856381924357E-05,0,0,0
-1.64315733854892E-05,1.1719187568815E-05,0,0,0
-2.02159535547253E-05,1.51383155753138E-05,0,0,0
-1.58279999595834E-05,1.16323026304599E-05,0,0,0
-1.55357683979673E-05,1.31166316350573E-05,0,0,0
-1.52323491420248E-05,1.25141687021824E-05,0,0,0
-1.99110581888817E-05,1.27374905787292E-05,0,0,0
-2.23426322918385E-05,9.04130047274521E-06,0,0,0
-2.2712958525517E-05,4.81345568914548E-06,0,0,0
-2.37154745263979E-05,2.6445029561728E-06,0,0,0
-2.50756456807721E-05,1.58110810843937E-06,1.0546875,0,0
-2.75115016847849E-05,1.86042404948239E-06,1.0546875,0,0
-2.8126007237006E-05,-4.49168823024593E-07,1.0546875,0,0
-2.916727498814E-05,-2.43570752900268E-06,1.0546875,0,0
-2.83441768260673E-05,-4.14564647144289E-06,1.0546875,0,0
-2.89351719402475E-05,-1.14361307623767E-06,1.0546875,0,0
-2.76582995866193E-05,2.15622139876359E-06,1.0546875,0,0
-2.70164127869066E-05,5.7487973208481E-06,1.0546875,0,0
-2.49883869400946E-05,5.75683316128561E-06,1.0546875,0,0
-2.35182142205304E-05,4.77408320875838E-06,1.0546875,0,0
-2.08164492505603E-05,4.24634981754934E-06,1.0546875,0,0
-1.90273658517981E-05,5.86568603466731E-06,1.0546875,0,0
-1.81717459781794E-05,6.69602331981878E-06,1.0546875,0,0
-1.8600287148729E-05,7.35293815523619E-06,1.0546875,0,0
-1.76965277205454E-05,6.02701902607805E-06,1.0546875,0,0
-1.66375411936315E-05,5.41941926712752E-06,1.0546875,0,0
-1.32174081954872E-05,5.61379329155898E-06,1.0546875,0,0
-1.82340318133356E-05,8.55962935020216E-06,1.0546875,0,0
-1.20349113785778E-05,9.18419937079307E-06,1.0546875,0,0
-1.38418608912616E-05,1.47318642120808E-05,1.0546875,0,0
-1.09264601633186E-05,1.55344441736816E-05,1.0546875,0,0
-1.30202015498071E-05,1.56630467245122E-05,1.0546875,0,0
-1.10887576738605E-05,1.58765051310183E-05,1.0546875,0,0
-1.11622748590889E-05,1.74108990904642E-05,1.0546875,0,0
-9.98956693365471E-06,1.79012913577026E-05,1.0546875,0,0
-8.53505571285496E-06,1.78179816430202E-05,1.0546875,0,0
-7.69936013966799E-06,1.85609987966018E-05,1.0546875,0,0
-7.20541675036657E-06,2.01133334485348E-05,1.0546875,0,0
-8.64307094161632E-06,2.12924369407119E-05,1.0546875,0,0
-9.21563514566515E-06,2.01372586161597E-05,1.0546875,0,0
-1.07793657662114E-05,1.90648333955323E-05,1.0546875,0,0
-1.08125186670804E-05,1.8777265722747E-05,1.0546875,0,0
-1.21022194434772E-05,2.04759762709728E-05,1.0546875,0,0
-1.09649345176877E-05,2.06872337003006E-05,1.0546875,0,0
-1.07195473901811E-05,1.86662437045015E-05,1.0546875,0,0
-1.06619954749476E-05,1.54627705342136E-05,1.0546875,0,0
-1.32639388539246E-05,1.55546113091987E-05,1.0546875,0,0
-1.561602766742E-05,1.65811561601004E-05,1.0546875,0,0
-1.76848643604899E-05,1.65214587468654E-05,1.0546875,0,0
-1.85208846232854E-05,1.69317172549199E-05,1.0546875,0,0
-1.94871099665761E-05,1.83807169378269E-05,1.0546875,0,0
-2.22327253140975E-05,1.96930977836018E-05,1.0546875,0,0
-2.6393552616355E-05,2.06317727133865E-05,1.0546875,0,0
-2.36805753957015E-05,1.76658468262758E-05,1.0546875,0,0
-3.36788034474012E-05,2.34785056818509E-05,1.0546875,0,0
-2.47719235630939E-05,1.59046558110276E-05,1.0546875,0,0
-2.94120236503659E-05,2.39704768318916E-05,1.0546875,0,0
-2.33029204537161E-05,2.37143540289253E-05,1.0546875,0,0
-2.61623918049736E-05,2.60590750258416E-05,1.0546875,0,0
-2.37543445109623E-05,2.29481356655015E-05,1.0546875,0,0
-2.47790030698525E-05,2.40035915339831E-05,1.0546875,0,0
-2.33999526244588E-05,2.49202676059213E-05,1.0546875,0,0
-2.33313330681995E-05,2.47194875555579E-05,1.0546875,0,0
-2.40593835769687E-05,2.27688069571741E-05,1.0546875,0,0
-2.35626248468179E-05,1.96810833585914E-05,1.0546875,0,0
-2.3865313778515E-05,1.7039379599737E-05,1.0546875,0,0
-2.15968429984059E-05,1.27658558994881E-05,1.0546875,0,0
-2.33240753004793E-05,1.12550715130055E-05,1.0546875,0,0
-2.40296794800088E-05,7.34473678676295E-06,1.0546875,0,0
-2.61658533418085E-05,5.43951591680525E-06,1.0546875,0,0
-2.41321795328986E-05,4.18000900026527E-06,1.0546875,0,0
-2.52868048846722E-05,5.90026957070222E-06,1.0546875,0,0
-2.55491668212926E-05,4.54308610642329E-06,1.0546875,0,0
-2.77274903055513E-05,3.67699112757691E-06,1.0546875,0,0
-2.78346105915261E-05,2.5338010800624E-06,1.0546875,0,0
-2.7690712158801E-05,3.93811751564499E-06,1.0546875,0,0
-2.68640942522325E-05,5.32404646946816E-06,1.0546875,0,0
-2.79418927675579E-05,7.75926037022145E-06,1.0546875,0,0
-2.95767713396344E-05,1.06309071270516E-05,1.0546875,0,0
-3.22950472764205E-05,1.4519130672852E-05,1.0546875,0,0
-2.86010763375089E-05,1.22524998005247E-05,1.0546875,0,0
-4.11519613408018E-05,1.54461686179275E-05,1.0546875,0,0
-3.16234327328857E-05,9.64808623393765E-06,1.0546875,0,0
-4.04060410801321E-05,1.46060419865535E-05,1.0546875,0,0
-3.66595886589494E-05,1.33479779833579E-05,1.0546875,0,0
-4.17115152231418E-05,1.64738830790157E-05,1.0546875,0,0
-3.99024975195061E-05,1.78475420398172E-05,1.0546875,0,0
-4.20943833887577E-05,2.09017343877349E-05,1.0546875,0,0
-4.25183825427666E-05,2.17403230635682E-05,1.0546875,0,0
-4.31355947512202E-05,2.16657954297261E-05,1.0546875,0,0
-4.19902353314683E-05,2.0658306311816E-05,1.0546875,0,0
-3.82580910809338E-05,1.94811436813325E-05,1.0546875,0,0
-3.71410533261951E-05,2.0238287106622E-05,1.0546875,0,0
-3.46595770679414E-05,2.03343624889385E-05,1.0546875,0,0
-3.5698485589819E-05,2.01024649868486E-05,1.0546875,0,0
-3.38840582116973E-05,1.53097971633542E-05,1.0546875,0,0
-3.51333474100102E-05,1.12114830699284E-05,1.0546875,0,0
-3.36849370796699E-05,8.09825451142387E-06,1.0546875,0,0
-3.44487707479857E-05,8.27764870336978E-06,1.0546875,0,0
-3.21022889693268E-05,6.78747392157675E-06,1.0546875,0,0
-3.22189298458397E-05,5.28418786416296E-06,1.0546875,0,0
-3.0632501875516E-05,4.50657353212591E-06,1.0546875,0,0
-2.89198706013849E-05,6.11370660408284E-06,1.0546875,0,0
-2.57455849350663E-05,8.04279898147797E-06,1.0546875,0,0
-2.51410911005223E-05,1.05423714558128E-05,1.0546875,0,0
-2.55459181062179E-05,1.14639560706564E-05,1.0546875,0,0
-2.52837871812517E-05,1.22386236398597E-05,1.0546875,0,0
-1.92279931070516E-05,1.0629484677338E-05,1.0546875,0,0
-2.67294490186032E-05,1.52159509525518E-05,1.0546875,0,0
-2.17062079173047E-05,1.15777629616787E-05,1.0546875,0,0
-2.97762690024683E-05,1.46364427564549E-05,1.0546875,0,0
-2.63368510786677E-05,1.21920202218462E-05,1.0546875,0,0
-2.80581552942749E-05,1.21362782010692E-05,1.0546875,0,0
-2.52884019573685E-05,1.0733585440903E-05,1.0546875,0,0
-2.69604606728535E-05,1.07111700344831E-05,1.0546875,0,0
-2.7643311113934E-05,8.16292777017225E-06,1.0546875,0,0
-2.74700832960662E-05,8.41692599351518E-06,1.0546875,0,0
-2.56899002124555E-05,1.03290394690703E-05,1.0546875,0,0
-2.34171020565555E-05,9.83051086222986E-06,1.0546875,0,0
-2.47661791945575E-05,9.38527409743983E-06,1.0546875,0,0
-2.37665699387435E-05,8.12847792985849E-06,1.0546875,0,0
-2.2850437744637E-05,8.12600865174318E-06,1.0546875,0,0
-1.99655805772636E-05,6.40868574919296E-06,1.0546875,0,0
-2.02519440790638E-05,6.51267146167811E-06,1.0546875,0,0
-1.76494249899406E-05,7.57646148485946E-06,1.0546875,0,0
-1.60479103215039E-05,9.54193092184141E-06,1.0546875,0,0
-1.37922725116368E-05,8.56754013511818E-06,1.0546875,0,0
-1.40673264468205E-05,8.47238061396638E-06,1.0546875,0,0
-1.31597926156246E-05,9.57904740062077E-06,1.0546875,0,0
-1.27129815155058E-05,9.85146834864281E-06,1.0546875,0,0
-1.14028835014324E-05,7.76995875639841E-06,1.0546875,0,0
-1.19774476843304E-05,6.38925985185779E-06,1.0546875,0,0
-1.30257230921416E-05,5.05146090290509E-06,1.0546875,0,0
-1.3548398783314E-05,3.5059283618466E-06,1.0546875,0,0
-8.87346050149063E-06,1.66079291830101E-06,1.0546875,0,0
-1.15062357508577E-05,4.53414213552605E-06,1.0546875,0,0
-8.07642391009722E-06,1.00965398814878E-05,1.0546875,0,0
-1.18146826935117E-05,1.58003076649038E-05,1.0546875,0,0
-1.09653428808087E-05,1.61015577759827E-05,1.0546875,0,0
-1.21500333989388E-05,1.40993279273971E-05,1.0546875,0,0
-1.06803690869128E-05,1.04335640571662E-05,1.0546875,0,0
-1.05074122984661E-05,6.54315272186068E-06,1.0546875,0,0
-9.48015713220229E-06,5.03113278682576E-06,1.0546875,0,0
-9.75371131062275E-06,6.44131205262966E-06,1.0546875,0,0
-1.06239449451095E-05,9.005232641357E-06,1.0546875,0,0
-1.07492051029112E-05,1.11274894152302E-05,1.0546875,0,0
-1.08133936009835E-05,1.24243251775624E-05,1.0546875,0,0
-1.02864814834902E-05,1.25793276311015E-05,1.0546875,0,0
-1.17433510240517E-05,1.2262715245015E-05,1.0546875,0,0
-1.25651067719446E-05,1.21355597002548E-05,1.0546875,0,0
-1.38202858579461E-05,1.30326034195605E-05,1.0546875,0,0
-1.35862173920032E-05,1.43704919537413E-05,1.0546875,0,0
-1.47835371535621E-05,1.6382233297918E-05,1.0546875,0,0
-1.55354173330124E-05,1.89314450835809E-05,1.0546875,0,0
-1.64217999554239E-05,2.07630237127887E-05,1.0546875,0,0
-1.66538266057614E-05,2.11510359804379E-05,1.0546875,0,0
-1.92091156350216E-05,2.07279244932579E-05,1.0546875,0,0
-2.20387591980398E-05,2.06989352591336E-05,1.0546875,0,0
-2.41153556999052E-05,2.27035834541311E-05,1.0546875,0,0
-2.64691279880935E-05,2.44739894696977E-05,1.0546875,0,0
-2.77414837910328E-05,2.43799950112589E-05,1.0546875,0,0
-2.17556698771659E-05,1.87426630873233E-05,1.0546875,0,0
-3.17804115184117E-05,2.53042962867767E-05,1.0546875,0,0
-2.66124388872413E-05,1.50455152834184E-05,1.0546875,0,0
-3.4223197872052E-05,1.68276783369947E-05,1.0546875,0,0
-2.98778977594338E-05,1.34036117742653E-05,1.0546875,0,0
-3.36123885062989E-05,1.87937021109974E-05,1.0546875,0,0
-3.25068940583151E-05,1.82132771442411E-05,1.0546875,0,0
-3.38540157827083E-05,2.02802548301406E-05,1.0546875,0,0
-3.26293156831525E-05,2.04843090614304E-05,1.0546875,0,0
-3.25124092341866E-05,2.01280745386612E-05,1.0546875,0,0
-3.26200497511309E-05,1.85036406037398E-05,1.0546875,0,0
-3.20162398566026E-05,1.75053955899784E-05,1.0546875,0,0
-3.21224433719181E-05,2.00556278286967E-05,1.0546875,0,0
-2.92396744043799E-05,2.05476226255996E-05,1.0546875,0,0
-2.89524959953269E-05,2.18758741539204E-05,1.0546875,0,0
-2.69995980488602E-05,2.15930376725737E-05,1.0546875,0,0
-2.69868978648447E-05,2.33615119213937E-05,1.0546875,0,0
-2.53372691076947E-05,2.20211877604015E-05,1.0546875,0,0
-2.77555809589103E-05,2.29325250984402E-05,1.0546875,0,0
-2.79333871731069E-05,2.37917156482581E-05,1.0546875,0,0
-2.83829504041933E-05,2.60133529081941E-05,1.0546875,0,0
-2.58818326983601E-05,2.50220982707106E-05,1.0546875,0,0
-2.31047979468713E-05,2.48555279540597E-05,1.0546875,0,0
-2.02672108571278E-05,2.50592765951296E-05,1.0546875,0,0
-2.06098247872433E-05,2.49922686634818E-05,1.0546875,0,0
-2.18768182094209E-05,2.09543977689464E-05,1.0546875,0,0
-2.30766108870739E-05,1.5147622434597E-05,1.0546875,0,0
-1.89406346180476E-05,9.28890403883997E-06,1.0546875,0,0
-2.55660233960953E-05,1.31289880300756E-05,1.0546875,0,0
-1.75983441295102E-05,9.9313365353737E-06,1.0546875,0,0
-2.29782290261937E-05,1.22683013614733E-05,1.0546875,0,0
-2.01336533791618E-05,9.0913154053851E-06,1.0546875,0,0
-2.3393800802296E-05,7.33715296519222E-06,1.0546875,0,0
-2.20073598029558E-05,2.84535803984909E-06,1.0546875,0,0
-2.42612641159212E-05,-1.29685918182076E-06,1.0546875,0,0
-2.42496025748551E-05,-3.49472520611016E-06,1.0546875,0,0
-2.22148810280487E-05,4.68558738475622E-07,1.0546875,0,0
-1.97534754988737E-05,6.53222514301888E-06,1.0546875,0,0
-1.84530999831622E-05,9.90180888038594E-06,1.0546875,0,0
-2.00883587240241E-05,1.10586897790199E-05,1.0546875,0,0
-2.09030677069677E-05,1.0200179531239E-05,1.0546875,0,0
-2.39482924371259E-05,9.69605298450915E-06,1.0546875,0,0
-2.43600170506397E-05,6.93560878062272E-06,1.0546875,0,0
-2.5745534003363E-05,4.95209314976819E-06,1.0546875,0,0
-2.46979561779881E-05,3.17973990604514E-06,1.0546875,0,0
-2.65878043137491E-05,3.5466202916723E-06,1.0546875,0,0
-2.81038010143675E-05,5.02354487252887E-06,1.0546875,0,0
-3.13453128910623E-05,9.44066596275661E-06,1.0546875,0,0
-3.29947833961342E-05,1.26817503769416E-05,1.0546875,0,0
-3.46570268447977E-05,1.3213395504863E-05,1.0546875,0,0
-3.43397659889888E-05,1.25844262583996E-05,1.0546875,0,0
-3.42209132213611E-05,1.32816330733476E-05,1.0546875,0,0
-3.36746961693279E-05,1.38624182000058E-05,1.0546875,0,0
-3.35927616106346E-05,1.3668183783011E-05,1.0546875,0,0
-2.65437265625224E-05,1.11689550976735E-05,1.0546875,0,0
-3.64251864084508E-05,1.6520758435945E-05,1.0546875,0,0
-2.65941853285767E-05,1.38127188620274E-05,1.0546875,0,0
-3.35627846652642E-05,1.49857987707946E-05,1.0546875,0,0
-2.76436403510161E-05,1.00098759503453E-05,1.0546875,0,0
-3.11045005219057E-05,9.71536246652249E-06,1.0546875,0,0
-2.63296587945661E-05,6.82384643369005E-06,1.0546875,0,0
-2.62071116594598E-05,6.55828671369818E-06,1.0546875,0,0
-2.47550779022276E-05,5.10746440340881E-06,1.0546875,0,0
-2.52111040026648E-05,4.04575803258922E-06,1.0546875,0,0
-2.55978739005513E-05,1.08201618331805E-06,1.0546875,0,0
-2.32567053899402E-05,-2.15680029214127E-06,1.0546875,0,0
-2.21347690967377E-05,-2.1841985926585E-06,1.0546875,0,0
-1.9169636289007E-05,-1.70559542311821E-06,1.0546875,0,0
-2.02009705390083E-05,2.2280809730546E-07,1.0546875,0,0
-1.91637554962654E-05,1.40837769890823E-07,1.0546875,0,0
-2.15323198062833E-05,7.9938115504774E-07,1.0546875,0,0
-2.09601585083874E-05,-1.37566800617606E-07,1.0546875,0,0
-2.29992438107729E-05,-4.35816019717095E-07,1.0546875,0,0
-2.26345036935527E-05,-2.26929751079297E-06,1.0546875,0,0
-2.43540853261948E-05,-9.78234083959251E-07,1.0546875,0,0
-2.31450394494459E-05,5.1307483772689E-07,1.0546875,0,0
-2.26034480874659E-05,8.53579706472374E-07,1.0546875,0,0
-2.04331863642437E-05,1.28706392388267E-06,1.0546875,0,0
-1.82986059371615E-05,4.40362327935873E-06,1.0546875,0,0
-1.59950614033733E-05,7.14909947419073E-06,1.0546875,0,0
-1.53974597196793E-05,7.54969732952304E-06,1.0546875,0,0
-1.2440349564713E-05,5.8835848903982E-06,1.0546875,0,0
-1.55851230374537E-05,8.42251392896287E-06,1.0546875,0,0
-9.21864375413861E-06,8.96755045687314E-06,1.0546875,0,0
-1.30621638163575E-05,1.25693641166436E-05,1.0546875,0,0
-1.23789313875022E-05,8.96946767170448E-06,1.0546875,0,0
-1.54397966980468E-05,7.77281820774078E-06,1.0546875,0,0
-1.45832873386098E-05,8.35346963867778E-06,1.0546875,0,0
-1.54598474182421E-05,1.1050522516598E-05,1.0546875,0,0
-1.41569289553445E-05,1.21825032692868E-05,1.0546875,0,0
-1.11590325104771E-05,1.23330682981759E-05,1.0546875,0,0
-9.33942919800757E-06,1.34281053760787E-05,1.0546875,0,0
-9.47793887462467E-06,1.50883406604407E-05,1.0546875,0,0
-1.1948483006563E-05,1.79478847712744E-05,1.0546875,0,0
-1.36442431539763E-05,1.87309342436492E-05,1.0546875,0,0
-1.57045269588707E-05,1.79041799128754E-05,1.0546875,0,0
-1.39756948556169E-05,1.55481120600598E-05,1.0546875,0,0
-1.24486205095309E-05,1.43398865475319E-05,1.0546875,0,0
-1.09178272396093E-05,1.31648421302089E-05,1.0546875,0,0
-1.27599778352305E-05,1.36180306071765E-05,1.0546875,0,0
-1.42748558573658E-05,1.42826420415076E-05,1.0546875,0,0
-1.5871901268838E-05,1.49274164868984E-05,3.515625,0,0
-1.52238280861638E-05,1.48966200868017E-05,3.515625,0,0
-1.48373137562885E-05,1.62462401931407E-05,3.515625,0,0
-1.44538453241694E-05,1.71214687725296E-05,3.515625,0,0
-1.6035970475059E-05,1.55583511514124E-05,3.515625,0,0
-1.78060308826389E-05,1.31697215692839E-05,3.515625,0,0
-1.65688434208278E-05,1.25655551528325E-05,3.515625,0,0
-1.15811299110646E-05,1.07408059193403E-05,3.515625,0,0
-1.64412304002326E-05,1.59609735419508E-05,3.515625,0,0
-1.55802008521277E-05,1.42348926601699E-05,3.515625,0,0
-2.40128847508458E-05,1.79630078491755E-05,3.515625,0,0
-2.45140327024274E-05,1.62689921126002E-05,3.515625,0,0
-2.65572634816635E-05,1.86972338269698E-05,3.515625,0,0
-2.51516121352324E-05,1.67737616720842E-05,3.515625,0,0
-2.57824922300642E-05,1.7812044461607E-05,3.515625,0,0
-2.58778272836935E-05,1.98586276383139E-05,3.515625,0,0
-2.89358686131891E-05,2.21193713514367E-05,3.515625,0,0
-3.29381327901501E-05,2.1732199456892E-05,3.515625,0,0
-3.386575190234E-05,1.8946568161482E-05,3.515625,0,0
-3.24912944051903E-05,1.75724344444461E-05,3.515625,0,0
-2.95716999971773E-05,1.64473422046285E-05,3.515625,0,0
-3.00104165944504E-05,1.65722303790972E-05,3.515625,0,0
-2.98253489745548E-05,1.50250207298086E-05,3.515625,0,0
-2.94726924039423E-05,1.38022342071054E-05,3.515625,0,0
-2.70451873802813E-05,1.13785899884533E-05,3.515625,0,0
-2.74092508334434E-05,1.18496436698479E-05,3.515625,0,0
-2.82508408417925E-05,1.22735000331886E-05,3.515625,0,0
-2.90896769001847E-05,1.23957888717996E-05,3.515625,0,0
-2.63876718236133E-05,9.94784659269499E-06,3.515625,0,0
-2.34588460443774E-05,8.14200757304206E-06,3.515625,0,0
-2.27187356358627E-05,7.74996169639053E-06,3.515625,0,0
-2.49700842687162E-05,9.48501292441506E-06,3.515625,0,0
-2.63089550571749E-05,9.94605488813249E-06,3.515625,0,0
-2.63596230070107E-05,9.54714869294548E-06,3.515625,0,0
-2.14986357605085E-05,6.81709025229793E-06,3.515625,0,0
-2.96661746688187E-05,8.74621946422849E-06,3.515625,0,0
-2.06918793992372E-05,6.29969872534275E-06,3.515625,0,0
-2.60797478404129E-05,9.71507779468084E-06,3.515625,0,0
-2.29186898650369E-05,1.01070063465158E-05,3.515625,0,0
-2.91566339001292E-05,1.25842079796712E-05,3.515625,0,0
-3.03457036352484E-05,1.25698834381183E-05,3.515625,0,0
-3.23639033013023E-05,1.42013377626427E-05,3.515625,0,0
-3.13152122544125E-05,1.57677804963896E-05,3.515625,0,0
-3.18799393426161E-05,1.69997820194112E-05,3.515625,0,0
-3.2679716241546E-05,1.70276762219146E-05,3.515625,0,0
-3.20573053613771E-05,1.66274458024418E-05,3.515625,0,0
-3.21637853630818E-05,1.77473939402262E-05,3.515625,0,0
-2.92027270916151E-05,1.73822645592736E-05,3.515625,0,0
-2.9509530577343E-05,1.54695480887312E-05,3.515625,0,0
-2.93793127639219E-05,1.19152709885384E-05,3.515625,0,0
-3.17828998959158E-05,1.03810598375276E-05,3.515625,0,0
-3.02383796224603E-05,9.89050931821112E-06,3.515625,0,0
-3.00044775940478E-05,1.02242083812598E-05,3.515625,0,0
-2.78416646324331E-05,8.12490270618582E-06,3.515625,0,0
-2.68664098257432E-05,6.21787421550835E-06,3.515625,0,0
-2.42131463892292E-05,5.15399960931973E-06,3.515625,0,0
-2.433092231513E-05,5.38734093424864E-06,3.515625,0,0
-2.56367638939992E-05,5.11752659804188E-06,3.515625,0,0
-2.73450750682969E-05,4.54070777777815E-06,3.515625,0,0
-2.79247615253553E-05,3.61032857654209E-06,3.515625,0,0
-2.85166697722161E-05,1.5091386558197E-06,3.515625,0,0
-2.54643400694476E-05,1.3930558679931E-06,3.515625,0,0
-3.76269308617339E-05,3.87486261388403E-06,3.515625,0,0
-2.88028404611396E-05,6.01618467044318E-06,3.515625,0,0
-3.48908324667718E-05,7.83851555752335E-06,3.515625,0,0
-3.21418447128963E-05,8.22353467810899E-06,3.515625,0,0
-3.69662338925991E-05,7.83097584644565E-06,3.515625,0,0
-3.4173674066551E-05,9.66967581916833E-06,3.515625,0,0
-3.41803752235137E-05,1.06070756373811E-05,3.515625,0,0
-3.26457047776785E-05,8.56398855830776E-06,3.515625,0,0
-3.33905773004517E-05,5.58643114345614E-06,3.515625,0,0
-3.49216534232255E-05,2.75839761343377E-06,3.515625,0,0
-3.51138951373287E-05,5.94967559663928E-07,3.515625,0,0
-3.68098371836822E-05,-3.18031645463179E-08,3.515625,0,0
-3.5296608984936E-05,4.71926284717483E-07,3.515625,0,0
-3.45381813531276E-05,-2.43854913151154E-07,3.515625,0,0
-2.93813736789161E-05,-2.11543692785199E-06,3.515625,0,0
-2.71028930001194E-05,-3.23227823173511E-06,3.515625,0,0
-2.44318998738891E-05,-3.26661302096909E-06,3.515625,0,0
-2.42194655584171E-05,-1.62859089414269E-06,3.515625,0,0
-2.12031009141356E-05,1.37601273308974E-06,3.515625,0,0
-2.15070213016588E-05,4.18793706558063E-06,3.515625,0,0
-2.05850938073127E-05,5.01101203553844E-06,3.515625,0,0
-1.87059577001492E-05,4.38446249972912E-06,3.515625,0,0
-1.46852662510355E-05,3.58283568857587E-06,3.515625,0,0
-1.21088223750121E-05,3.07259870169219E-06,3.515625,0,0
-1.08268395706546E-05,3.83306405637995E-06,3.515625,0,0
-1.01792520581512E-05,5.07748109157546E-06,3.515625,0,0
-7.81483686296269E-06,6.39225072518457E-06,3.515625,0,0
-1.07129353636992E-05,1.1072501365561E-05,3.515625,0,0
-8.33141348266508E-06,1.01716914286953E-05,3.515625,0,0
-1.10983319245861E-05,1.10783366835676E-05,3.515625,0,0
-1.01683108368888E-05,9.14129304874223E-06,3.515625,0,0
-1.1807722330559E-05,8.98996677278774E-06,3.515625,0,0
-1.29482350530452E-05,8.48887884785654E-06,3.515625,0,0
-1.5706096746726E-05,8.93724063644186E-06,3.515625,0,0
-1.72295985976234E-05,1.02148796941037E-05,3.515625,0,0
-1.87023124453845E-05,1.29762538563227E-05,3.515625,0,0
-2.07120101549663E-05,1.3841319741914E-05,3.515625,0,0
-2.29295510507654E-05,1.26330578495981E-05,3.515625,0,0
-2.4979959562188E-05,1.26954182633199E-05,3.515625,0,0
-2.48526848736219E-05,1.36286435008515E-05,3.515625,0,0
-2.45083319896366E-05,1.59828377945814E-05,3.515625,0,0
-2.34012750297552E-05,1.74727465491742E-05,3.515625,0,0
-2.38166921917582E-05,1.79229227796895E-05,3.515625,0,0
-2.37760814343346E-05,1.61851439770544E-05,3.515625,0,0
-2.50429347943282E-05,1.48230847116793E-05,3.515625,0,0
-2.69135525741149E-05,1.38724044518312E-05,3.515625,0,0
-3.04484892694745E-05,1.39809326356044E-05,3.515625,0,0
-3.29586582665797E-05,1.37712149808067E-05,3.515625,0,0
-3.46571505360771E-05,1.32107625177014E-05,3.515625,0,0
-3.50256159435958E-05,1.20175172924064E-05,3.515625,0,0
-3.4928772947751E-05,9.75111743173329E-06,3.515625,0,0
-3.32564159180038E-05,5.50950608158018E-06,3.515625,0,0
-3.14061471726745E-05,2.26367501454661E-06,3.515625,0,0
-2.26875872613164E-05,2.32607794714568E-06,3.515625,0,0
-2.94749133900041E-05,4.3295608520566E-06,3.515625,0,0
-2.06332642846974E-05,3.79366201741504E-06,3.515625,0,0
-3.00982865155675E-05,2.95794484372891E-06,3.515625,0,0
-2.62247795035364E-05,1.39140377086733E-06,3.515625,0,0
-2.87063503492391E-05,2.07487687475805E-06,3.515625,0,0
-2.58059772022534E-05,3.80911751562962E-06,3.515625,0,0
-2.87032416963484E-05,4.89992771690595E-06,3.515625,0,0
-3.0246608730522E-05,4.47340516984696E-06,3.515625,0,0
-3.21457810059655E-05,3.02438752441958E-06,3.515625,0,0
-3.12361771648284E-05,2.47314324042236E-06,3.515625,0,0
-2.76214595942292E-05,2.71180761046708E-06,3.515625,0,0
-2.56015428021783E-05,3.6935789466952E-06,3.515625,0,0
-2.24501382035669E-05,4.01376018999144E-06,3.515625,0,0
-2.28395238082157E-05,4.0307677409146E-06,3.515625,0,0
-2.02599348995136E-05,4.76320474263048E-06,3.515625,0,0
-2.00279228010913E-05,5.84511690249201E-06,3.515625,0,0
-1.78544050868368E-05,6.05280001764186E-06,3.515625,0,0
-1.86382440006128E-05,7.46257501305081E-06,3.515625,0,0
-1.72871878021397E-05,1.15237080535735E-05,3.515625,0,0
-1.85771441465477E-05,1.56704645632999E-05,3.515625,0,0
-1.93462528841337E-05,1.67920516105369E-05,3.515625,0,0
-2.18421810131986E-05,1.58395541802747E-05,3.515625,0,0
-2.13293333217734E-05,1.55826037371298E-05,3.515625,0,0
-1.89572801900795E-05,1.58055627252907E-05,3.515625,0,0
-1.54400240717223E-05,1.59344090207014E-05,3.515625,0,0
-1.47869632201036E-05,1.62489232025109E-05,3.515625,0,0
-1.28399660752621E-05,1.52276970766252E-05,3.515625,0,0
-1.86740962817566E-05,2.57709289144259E-05,3.515625,0,0
-1.55548659677152E-05,2.2415597413783E-05,3.515625,0,0
-2.01081093109678E-05,2.14587980735814E-05,3.515625,0,0
-1.85748431249522E-05,1.48677172546741E-05,3.515625,0,0
-2.11223286896711E-05,1.53456294356147E-05,3.515625,0,0
-2.24598097702255E-05,1.3700800082006E-05,3.515625,0,0
-2.69717656919966E-05,1.54073186422465E-05,3.515625,0,0
-2.93696957669454E-05,1.73835433088243E-05,3.515625,0,0
-3.01948366541183E-05,1.92391435120953E-05,3.515625,0,0
-2.998809395649E-05,1.86152574315201E-05,3.515625,0,0
-2.94902911264217E-05,1.57651866175001E-05,3.515625,0,0
-3.01454801956424E-05,1.33878320411895E-05,3.515625,0,0
-2.99318653560476E-05,1.13668338599382E-05,3.515625,0,0
-3.06921756418888E-05,1.15273860501475E-05,3.515625,0,0
-2.88611227006186E-05,1.0067692528537E-05,3.515625,0,0
-2.73295136139495E-05,1.09136335595394E-05,3.515625,0,0
-2.47772713919403E-05,1.09794600575697E-05,3.515625,0,0
-2.41898960666731E-05,1.04011469375109E-05,3.515625,0,0
-2.1624271539622E-05,6.72395663059433E-06,3.515625,0,0
-1.92011775652645E-05,4.88723799207946E-06,3.515625,0,0
-1.81220821104944E-05,4.57412397736334E-06,3.515625,0,0
-2.05543110496365E-05,6.32672299616388E-06,3.515625,0,0
-2.21391983359354E-05,5.68807945455774E-06,3.515625,0,0
-2.26188931264915E-05,3.8894932004041E-06,3.515625,0,0
-2.393111026322E-05,1.95670440916729E-06,3.515625,0,0
-2.59690295933979E-05,1.13547491764621E-06,3.515625,0,0
-1.9046188754146E-05,7.11812958797964E-07,3.515625,0,0
-2.47414627665421E-05,1.59496585183661E-06,3.515625,0,0
-1.63093136507086E-05,2.85932833321567E-06,3.515625,0,0
-2.14601295738248E-05,3.33769526150718E-06,3.515625,0,0
-1.7832788216765E-05,3.5439286421024E-06,3.515625,0,0
-2.18257791857468E-05,7.01258795743342E-06,3.515625,0,0
-1.99769001483219E-05,1.07005262179882E-05,3.515625,0,0
-2.02959818125237E-05,1.11791187009658E-05,3.515625,0,0
-1.79532726178877E-05,7.79486163082765E-06,3.515625,0,0
-1.77942074515158E-05,2.92848676508584E-06,3.515625,0,0
-1.80820698005846E-05,5.13802717705403E-07,3.515625,0,0
-1.78481623152038E-05,-3.03601069617798E-07,3.515625,0,0
-1.92388160940027E-05,-6.01083854689932E-07,3.515625,0,0
-1.88061312655918E-05,-1.45854482980212E-06,3.515625,0,0
-2.07371358555974E-05,-2.05262972485798E-06,3.515625,0,0
-2.11552396649495E-05,-7.36591914574092E-07,3.515625,0,0
-2.40691060753306E-05,2.59090325016587E-06,3.515625,0,0
-2.29762499657227E-05,5.13440181748592E-06,3.515625,0,0
-2.18219502130523E-05,6.6925454120792E-06,3.515625,0,0
-1.93213090824429E-05,6.98030225976254E-06,3.515625,0,0
-2.04565258172806E-05,4.90253114548977E-06,3.515625,0,0
-2.1800231479574E-05,3.46737442669109E-06,3.515625,0,0
-2.56969888141612E-05,3.21810784953414E-06,3.515625,0,0
-2.75119000434643E-05,3.13079249281145E-06,3.515625,0,0
-2.85619771602796E-05,2.99911766887817E-06,3.515625,0,0
-2.93362318188883E-05,3.79397829419759E-06,3.515625,0,0
-2.96589696517913E-05,5.69521625948255E-06,3.515625,0,0
-2.31549784075469E-05,6.94134314471739E-06,3.515625,0,0
-3.35459590132814E-05,9.6059948191396E-06,3.515625,0,0
-2.71746430371422E-05,6.63641503706458E-06,3.515625,0,0
-3.4984594094567E-05,8.91195668373257E-06,3.515625,0,0
-3.12197189487051E-05,8.74489887792151E-06,3.515625,0,0
-3.40361184498761E-05,1.04457330962759E-05,3.515625,0,0
-3.12265437969472E-05,1.06502884591464E-05,3.515625,0,0
-3.27811067108996E-05,1.13353407868999E-05,3.515625,0,0
-3.10723517031875E-05,9.63720412983093E-06,3.515625,0,0
-2.94626297545619E-05,8.80085008247988E-06,3.515625,0,0
-2.93522643914912E-05,1.10334831333603E-05,3.515625,0,0
-2.80992171610706E-05,1.41083901326056E-05,3.515625,0,0
-2.75022430287208E-05,1.6124105968629E-05,3.515625,0,0
-2.42365385929588E-05,1.60402432811679E-05,3.515625,0,0
-2.39800847339211E-05,1.77206529770046E-05,3.515625,0,0
-2.22723956539994E-05,1.8487766283215E-05,3.515625,0,0
-2.36920513998484E-05,1.85937478818232E-05,3.515625,0,0
-2.28200788114918E-05,1.88971444003982E-05,3.515625,0,0
-2.4175868020393E-05,2.06589156732662E-05,3.515625,0,0
-2.36889554798836E-05,2.01129805645905E-05,3.515625,0,0
-2.44669008679921E-05,1.90376358659705E-05,3.515625,0,0
-2.30900059250416E-05,1.81992527359398E-05,3.515625,0,0
-2.22272483370034E-05,1.94533495232463E-05,3.515625,0,0
-2.07381490326952E-05,2.13000403164187E-05,3.515625,0,0
-2.02640821953537E-05,2.21283316932386E-05,3.515625,0,0
-1.78953305294272E-05,2.21391619561473E-05,3.515625,0,0
-1.51232316056849E-05,2.14126957871486E-05,3.515625,0,0
-7.5152520366828E-06,1.80897604877828E-05,3.515625,0,0
-7.46502291804063E-06,2.50949105975451E-05,3.515625,0,0
-4.43438329966739E-06,1.75107943505282E-05,3.515625,0,0
-9.38788798521273E-06,2.13717885344522E-05,3.515625,0,0
-7.49185574022704E-06,1.70849762071157E-05,3.515625,0,0
-8.3345521488809E-06,1.99662699742476E-05,3.515625,0,0
-8.41579912957968E-06,1.90406972251367E-05,3.515625,0,0
-1.11654380816617E-05,2.01623406610452E-05,3.515625,0,0
-1.2657406841754E-05,1.95787797565572E-05,3.515625,0,0
-1.52968314068858E-05,2.049065369647E-05,3.515625,0,0
-1.79004218807677E-05,2.19227476918604E-05,3.515625,0,0
-1.84676136996131E-05,2.16527932934696E-05,3.515625,0,0
-1.87583082151832E-05,2.05676678888267E-05,3.515625,0,0
-1.92977586266352E-05,1.58882085088408E-05,3.515625,0,0
-2.17840970435645E-05,1.46674565257854E-05,3.515625,0,0
-2.2541185899172E-05,1.43162906169891E-05,3.515625,0,0
-2.3546168449684E-05,1.58613529492868E-05,3.515625,0,0
-2.37831427511992E-05,1.44791392813204E-05,3.515625,0,0
-2.62978537648451E-05,1.52900465764105E-05,3.515625,0,0
-2.85850710497471E-05,1.50223149830708E-05,3.515625,0,0
-3.08042326651048E-05,1.60487525135977E-05,3.515625,0,0
-3.03412580251461E-05,1.58325801749015E-05,3.515625,0,0
-2.91765700239921E-05,1.77916626853403E-05,3.515625,0,0
-2.80638159892987E-05,2.05352534976555E-05,3.515625,0,0
-2.67533796431962E-05,2.281422894157E-05,3.515625,0,0
-2.42790611082455E-05,2.14629690162838E-05,6.328125,0,0
-2.33119335462106E-05,1.87785044545308E-05,6.328125,0,0
-2.0004346879432E-05,1.38999303089804E-05,6.328125,0,0
-2.95067602564814E-05,1.93317755474709E-05,6.328125,0,0
-2.29480556299677E-05,1.24579573821393E-05,6.328125,0,0
-2.68415351456497E-05,1.184643497254E-05,6.328125,0,0
-2.26012598432135E-05,7.03954901837278E-06,6.328125,0,0
-2.6244051696267E-05,1.03206057247007E-05,6.328125,0,0
-2.5254183128709E-05,1.02427775345859E-05,6.328125,0,0
-2.70270465989597E-05,1.09084239738877E-05,6.328125,0,0
-2.64273912762292E-05,8.78656464919914E-06,6.328125,0,0
-2.61785426118877E-05,7.98680503066862E-06,6.328125,0,0
-2.5549461497576E-05,7.37126765670837E-06,6.328125,0,0
-2.41260440816404E-05,5.35415938429651E-06,6.328125,0,0
-2.51061792369001E-05,4.80893459098297E-06,6.328125,0,0
-2.44232851400739E-05,3.0379796953639E-06,6.328125,0,0
-2.47906737058656E-05,2.04710795514984E-06,6.328125,0,0
-2.28883782256162E-05,7.65927499202235E-09,6.328125,0,0
-2.44274051510729E-05,6.01706858560647E-07,6.328125,0,0
-2.43207614403218E-05,-8.88305066837347E-07,6.328125,0,0
-2.45809387706686E-05,-2.55762620327005E-06,6.328125,0,0
-2.14619358303025E-05,-5.05923389937379E-06,6.328125,0,0
-2.06042186619015E-05,-5.07032746099867E-06,6.328125,0,0
-2.0488521840889E-05,-4.40809571955469E-06,6.328125,0,0
-2.17018859984819E-05,-5.12115434503357E-08,6.328125,0,0
-2.06206623261096E-05,3.75358763449185E-06,6.328125,0,0
-1.84545206138864E-05,4.73616637464147E-06,6.328125,0,0
-1.75667846633587E-05,3.26420081364631E-06,6.328125,0,0
-1.95621814782498E-05,2.49806203100889E-06,6.328125,0,0
-1.97699919226579E-05,2.3549318939331E-06,6.328125,0,0
-2.96051312034251E-05,5.74971863898099E-06,6.328125,0,0
-2.32054699154105E-05,9.08048332348699E-06,6.328125,0,0
-2.76260852842825E-05,1.17298959594336E-05,6.328125,0,0
-2.57588526437758E-05,1.16281207738211E-05,6.328125,0,0
-3.01937034237199E-05,1.21359935292276E-05,6.328125,0,0
-2.98400045721792E-05,1.43159741128329E-05,6.328125,0,0
-3.1612395105185E-05,1.68219830811722E-05,6.328125,0,0
-3.04725326714106E-05,1.88342164619826E-05,6.328125,0,0
-2.96583530143835E-05,2.03197687369538E-05,6.328125,0,0
-3.06318033835851E-05,2.0060902897967E-05,6.328125,0,0
-3.27085181197617E-05,1.79411199496826E-05,6.328125,0,0
-3.548723179847E-05,1.55046400323045E-05,6.328125,0,0
-3.47859895555303E-05,1.38564273584052E-05,6.328125,0,0
-3.58595643774606E-05,1.44200785143767E-05,6.328125,0,0
-3.59485093213152E-05,1.58930906763999E-05,6.328125,0,0
-3.85358980565798E-05,1.62040341820102E-05,6.328125,0,0
-3.85134590032976E-05,1.43010674946709E-05,6.328125,0,0
-4.00937969970983E-05,1.13185315058217E-05,6.328125,0,0
-4.02887490054127E-05,8.44502392283175E-06,6.328125,0,0
-4.17123555962462E-05,6.32781848253217E-06,6.328125,0,0
-4.10119828302413E-05,6.12282383372076E-06,6.328125,0,0
-4.02157966163941E-05,7.55040991862188E-06,6.328125,0,0
-3.83933329430874E-05,6.46442458673846E-06,6.328125,0,0
-3.61943857569713E-05,3.73448733625992E-06,6.328125,0,0
-3.3115178666776E-05,3.70898123946972E-06,6.328125,0,0
-3.1045561627252E-05,4.57335727332975E-06,6.328125,0,0
-2.49174154305365E-05,2.99260113933997E-06,6.328125,0,0
-3.61994934792165E-05,4.91928767587524E-06,6.328125,0,0
-2.68732583208475E-05,5.71174041397171E-06,6.328125,0,0
-3.13906384690199E-05,8.75893965712748E-06,6.328125,0,0
-2.48815158556681E-05,1.15604443635675E-05,6.328125,0,0
-2.65229682554491E-05,1.47431846926338E-05,6.328125,0,0
-2.41349862335483E-05,1.45455969686736E-05,6.328125,0,0
-2.63454003288643E-05,1.45881285789073E-05,6.328125,0,0
-2.50466655415948E-05,1.35237760332529E-05,6.328125,0,0
-2.41710640693782E-05,1.15764605652657E-05,6.328125,0,0
-2.36221058003139E-05,9.62932153925067E-06,6.328125,0,0
-2.07123466680059E-05,8.32525620353408E-06,6.328125,0,0
-1.9348228306626E-05,7.91115508036455E-06,6.328125,0,0
-1.79604958248092E-05,6.39915151623427E-06,6.328125,0,0
-2.12417508009821E-05,4.63488731838879E-06,6.328125,0,0
-2.13538551179226E-05,3.29979729940533E-06,6.328125,0,0
-2.12024915526854E-05,2.74956278190075E-06,6.328125,0,0
-1.69820159499068E-05,2.25813573706546E-06,6.328125,0,0
-1.63469285325846E-05,3.0434666768997E-06,6.328125,0,0
-1.4413145436265E-05,3.24981306221162E-06,6.328125,0,0
-1.39820494950982E-05,1.13373914700787E-06,6.328125,0,0
-1.2416327081155E-05,-2.64448340203671E-06,6.328125,0,0
-1.29516511151451E-05,-2.71872841040022E-06,6.328125,0,0
-1.51953217937262E-05,1.81653575737073E-07,6.328125,0,0
-1.9132165107294E-05,2.32783577303053E-06,6.328125,0,0
-2.04061361728236E-05,3.1887734621705E-06,6.328125,0,0
-2.01851689780597E-05,3.78044364879315E-06,6.328125,0,0
-1.67806665558601E-05,4.2228311940562E-06,6.328125,0,0
-2.29771248996258E-05,5.73178795093554E-06,6.328125,0,0
-1.42487797347712E-05,5.20858429808868E-06,6.328125,0,0
-1.48234403241077E-05,9.44431121752132E-06,6.328125,0,0
-1.00080733318464E-05,9.49869900068734E-06,6.328125,0,0
-1.38070881803287E-05,8.4992743722978E-06,6.328125,0,0
-1.48505314427894E-05,8.48594572744332E-06,6.328125,0,0
-1.71864321600879E-05,1.11539538920624E-05,6.328125,0,0
-1.79793059942313E-05,1.29353438751423E-05,6.328125,0,0
-2.00784033950185E-05,1.33723233375349E-05,6.328125,0,0
-2.12198683584575E-05,1.43867664519348E-05,6.328125,0,0
-1.97357385331998E-05,1.53450528159738E-05,6.328125,0,0
-1.98477118829032E-05,1.6582389434916E-05,6.328125,0,0
-1.96991350094322E-05,1.6657728338032E-05,6.328125,0,0
-2.13840485230321E-05,1.64010707521811E-05,6.328125,0,0
-2.10662801691797E-05,1.70162857102696E-05,6.328125,0,0
-2.32718321058201E-05,1.86518045666162E-05,6.328125,0,0
-2.42670466832351E-05,1.81503091880586E-05,6.328125,0,0
-2.59290427493397E-05,1.65579258464277E-05,6.328125,0,0
-2.49123295361642E-05,1.39993180710007E-05,6.328125,0,0
-2.51725577982143E-05,1.15749644464813E-05,6.328125,0,0
-2.54734532063594E-05,1.03040747490013E-05,6.328125,0,0
