biceps_emg, triceps_emg, subject_position, position_estimate, brace_position
-2.17541528400034E-05,8.03704551799456E-06,0.87890625,0,0
-1.91941890079761E-05,6.34266939414374E-07,0.87890625,0,0
-2.23449587792857E-05,1.8175760487793E-06,0.87890625,0,0
-2.24051836994477E-05,2.38862241985771E-07,0.87890625,0,0
-2.36441555898637E-05,5.35850449523423E-06,0.87890625,0,0
-2.32183938351227E-05,7.66381253924919E-06,0.87890625,0,0
-2.3284430426429E-05,9.11928327695932E-06,0.87890625,0,0
-2.40165172726847E-05,1.08193144114921E-05,0.87890625,0,0
-2.34556882787729E-05,1.16558112495113E-05,0.87890625,0,0
-2.23710085265338E-05,1.46564780152403E-05,0.87890625,0,0
-2.03622421395266E-05,1.57482318172697E-05,0.87890625,0,0
-2.06110998988152E-05,1.76013836608035E-05,0.87890625,0,0
-2.01389229914639E-05,1.58123675646493E-05,0.87890625,0,0
-2.17475808312884E-05,1.60704548761714E-05,0.87890625,0,0
-2.15404415939702E-05,1.30740854729083E-05,0.87890625,0,0
-2.18053955904907E-05,1.04939172160812E-05,0.87890625,0,0
-2.09004210773855E-05,5.67839697396266E-06,0.87890625,0,0
-2.18713012145599E-05,4.2501992538746E-06,0.87890625,0,0
-2.16833977901842E-05,3.6977594390919E-06,0.87890625,0,0
-2.11308197322069E-05,6.29552823738777E-06,0.87890625,0,0
-1.9428245650488E-05,1.01473960967269E-05,0.87890625,0,0
-1.77596593857743E-05,1.42673816299066E-05,0.87890625,0,0
-1.67110065376619E-05,1.40873025884503E-05,0.87890625,0,0
-1.80002462002449E-05,1.2866684301116E-05,0.87890625,0,0
-1.63402874022722E-05,1.13365758807049E-05,0.87890625,0,0
-2.5192204702762E-05,1.60240924742538E-05,0.87890625,0,0
-2.24616378545761E-05,1.1773386177083E-05,0.87890625,0,0
-2.77122508123284E-05,1.42026347020874E-05,0.87890625,0,0
-2.44333914452E-05,1.10820219560992E-05,0.87890625,0,0
-2.59369971900014E-05,9.97014285530895E-06,0.87890625,0,0
-2.37740787270013E-05,8.13134829513729E-06,0.87890625,0,0
-2.34964736591792E-05,1.07031773950439E-05,0.87890625,0,0
-2.0710769604193E-05,1.03308611869579E-05,0.87890625,0,0
-2.00934882741421E-05,9.31369140744209E-06,0.87890625,0,0
-2.25899784709327E-05,1.0383653716417E-05,0.87890625,0,0
-2.59850712609477E-05,1.06178940768586E-05,0.87890625,0,0
-2.89370382233756E-05,1.05307735793758E-05,0.87890625,0,0
-2.87016773654614E-05,1.07456453406485E-05,0.87890625,0,0
-2.98335326078814E-05,1.48997751239222E-05,0.87890625,0,0
-2.93829471047502E-05,1.79964426934021E-05,0.87890625,0,0
-3.13575765176211E-05,1.8948019715026E-05,0.87890625,0,0
-3.29596950905398E-05,1.62832839123439E-05,0.87890625,0,0
-3.53358336724341E-05,1.54421959450701E-05,0.87890625,0,0
-3.39075777446851E-05,1.46577385748969E-05,0.87890625,0,0
-3.31002011080273E-05,1.47289028973319E-05,0.87890625,0,0
-3.07562513626181E-05,1.38999203045387E-05,0.87890625,0,0
-2.90293100988492E-05,1.32165296236053E-05,0.87890625,0,0
-2.78374864137731E-05,1.30381486087572E-05,0.87890625,0,0
-2.73668301815633E-05,1.33570420075557E-05,0.87890625,0,0
-2.56183684541611E-05,1.25377946460503E-05,0.87890625,0,0
-2.2569434804609E-05,1.18539846880594E-05,0.87890625,0,0
-1.58008533617249E-05,6.95318703947123E-06,0.87890625,0,0
-2.21776408579899E-05,6.04724664299283E-06,0.87890625,0,0
-1.6606838471489E-05,9.57691668190819E-08,0.87890625,0,0
-2.12876948353369E-05,4.61279933006153E-06,0.87890625,0,0
-1.91601302503841E-05,7.29944986233022E-06,0.87890625,0,0
-2.26199845201336E-05,8.97108475328423E-06,0.87890625,0,0
-2.11984024645062E-05,5.40204609933426E-06,0.87890625,0,0
-2.12295999517664E-05,3.49553351952636E-06,0.87890625,0,0
-2.02342325792415E-05,8.17858506252378E-07,0.87890625,0,0
-2.04468033189187E-05,-6.05505590556277E-07,0.87890625,0,0
-2.06714266823838E-05,2.06544925163143E-07,0.87890625,0,0
-1.95166685443837E-05,2.69065708380367E-06,0.87890625,0,0
-1.90571317943977E-05,6.25443954049842E-06,0.87890625,0,0
-1.79080379894003E-05,8.22506899567088E-06,0.87890625,0,0
-1.91479084605817E-05,9.26630582398502E-06,0.87890625,0,0
-1.7794893210521E-05,8.25878669274971E-06,0.87890625,0,0
-1.77301335497759E-05,8.58507792145247E-06,0.87890625,0,0
-1.6469331967528E-05,8.92224215931492E-06,0.87890625,0,0
-1.69824033946497E-05,1.04549990282976E-05,0.87890625,0,0
-1.6745043467381E-05,1.1221231034142E-05,0.87890625,0,0
-1.86756515176967E-05,1.22849514809786E-05,0.87890625,0,0
-1.86206034413772E-05,1.16255587272462E-05,0.87890625,0,0
-1.75154964381363E-05,1.16244718810776E-05,0.87890625,0,0
-1.42572480399394E-05,1.23731215353473E-05,0.87890625,0,0
-1.11678482426214E-05,1.45988642543671E-05,0.87890625,0,0
-1.09103466456872E-05,1.66392455867026E-05,0.87890625,0,0
-1.35594518724247E-05,1.68852384376805E-05,0.87890625,0,0
-1.18534453577013E-05,1.12882389657898E-05,0.87890625,0,0
-1.64335051522357E-05,1.43659553941689E-05,0.87890625,0,0
-1.28986193885794E-05,1.01250370789785E-05,0.87890625,0,0
-1.81599680217914E-05,1.58148395712487E-05,0.87890625,0,0
-1.85078479262302E-05,1.44866708069458E-05,0.87890625,0,0
-2.12157265195856E-05,1.56485839397646E-05,0.87890625,0,0
-1.85279313882347E-05,1.35258014779538E-05,0.87890625,0,0
-1.75803870661184E-05,1.46283637150191E-05,0.87890625,0,0
-1.72114705492277E-05,1.56120131578064E-05,0.87890625,0,0
-1.96800647245254E-05,1.5712254025857E-05,0.87890625,0,0
-2.23594906856306E-05,1.31323831737973E-05,0.87890625,0,0
-2.3701912141405E-05,9.40102108870633E-06,0.87890625,0,0
-2.50149842031533E-05,8.99563019629568E-06,0.87890625,0,0
-2.52535865001846E-05,8.87778696778696E-06,0.87890625,0,0
-2.73388741334202E-05,9.66970583249349E-06,0.87890625,0,0
-2.78966144833248E-05,8.78006812854437E-06,0.87890625,0,0
-2.87072580249514E-05,9.61582372838166E-06,0.87890625,0,0
-2.67673258349532E-05,1.00607994681923E-05,0.87890625,0,0
-2.54892347584246E-05,1.09498887468362E-05,0.87890625,0,0
-2.39820601564134E-05,8.3519944382715E-06,0.87890625,0,0
-2.51724832196487E-05,5.66275639357627E-06,0.87890625,0,0
-2.57426454481902E-05,3.41031523021229E-06,0.87890625,0,0
-2.6500971216592E-05,4.79683649245999E-06,0.87890625,0,0
-2.69036027020775E-05,7.3336800596735E-06,0.87890625,0,0
-2.91684082185384E-05,9.93304365692893E-06,0.87890625,0,0
-3.03796005027834E-05,1.25016867968952E-05,0.87890625,0,0
-2.8722342904075E-05,1.44261803143308E-05,0.87890625,0,0
-2.36737687373534E-05,1.18426132758032E-05,0.87890625,0,0
-3.59218392986804E-05,1.52593984239502E-05,0.87890625,0,0
-2.97804399451707E-05,9.52773643803084E-06,0.87890625,0,0
-3.48503090208396E-05,1.20581353257876E-05,0.87890625,0,0
-2.8063510399079E-05,7.74342061049538E-06,0.87890625,0,0
-2.90527532342821E-05,7.93648814578773E-06,0.87890625,0,0
-2.56035091297235E-05,7.45699480830808E-06,0.87890625,0,0
-2.64761147263926E-05,1.05751196315396E-05,0.87890625,0,0
-2.44785587710794E-05,1.16072087621433E-05,0.87890625,0,0
-2.35229072131915E-05,1.15738448585034E-05,0.87890625,0,0
-2.39575110754231E-05,1.23438712762436E-05,0.87890625,0,0
-2.41563629970187E-05,1.32109616970411E-05,0.87890625,0,0
-2.60148062807275E-05,1.3905454579799E-05,0.87890625,0,0
-2.58204436249798E-05,1.31565120682353E-05,0.87890625,0,0
-2.83257813862292E-05,1.46183592732996E-05,0.87890625,0,0
-2.74652156804223E-05,1.47415512401494E-05,0.87890625,0,0
-2.72984707407886E-05,1.52340289787389E-05,0.87890625,0,0
-2.39638666243991E-05,1.37374136102153E-05,0.87890625,0,0
-2.33440259762574E-05,1.32602071971633E-05,0.87890625,0,0
-2.21516438614344E-05,1.23294876175351E-05,0.87890625,0,0
-2.3349974071607E-05,1.31060123749194E-05,0.87890625,0,0
-2.22959297389025E-05,1.21189023047918E-05,0.87890625,0,0
-2.37537697103107E-05,1.14960475912085E-05,0.87890625,0,0
-2.56686380453175E-05,1.23417867143871E-05,0.87890625,0,0
-2.70899799943436E-05,1.35347208924941E-05,0.87890625,0,0
-2.69927058980102E-05,1.43778233905323E-05,0.87890625,0,0
-2.67026935034664E-05,1.57943868543953E-05,0.87890625,0,0
-2.00220238184556E-05,1.40419542731252E-05,0.87890625,0,0
-2.686150946829E-05,1.9647824956337E-05,0.87890625,0,0
-1.87637651833938E-05,1.30608596009552E-05,0.87890625,0,0
-2.36335399677046E-05,1.424449874321E-05,0.87890625,0,0
-1.73362841451308E-05,1.00736569947912E-05,0.87890625,0,0
-1.81185569090303E-05,9.43672421271913E-06,0.87890625,0,0
-1.52890625031432E-05,4.97710107083549E-06,0.87890625,0,0
-1.71147039509378E-05,4.45728574050008E-06,0.87890625,0,0
-1.77777983481064E-05,4.89208377985051E-06,0.87890625,0,0
-1.98941979761003E-05,7.48072307032999E-06,0.87890625,0,0
-2.17096039705211E-05,8.23961818241514E-06,0.87890625,0,0
-2.21453865378862E-05,5.68753011975787E-06,0.87890625,0,0
-2.53632370004198E-05,5.17243461217731E-06,0.87890625,0,0
-2.75423117273021E-05,5.39379789188388E-06,0.87890625,0,0
-3.08539456455037E-05,6.99086785971303E-06,0.87890625,0,0
-2.89973668259336E-05,6.38892697679694E-06,0.87890625,0,0
-2.71323951892555E-05,7.47147623769706E-06,0.87890625,0,0
-2.32827478612307E-05,7.58099213271635E-06,0.87890625,0,0
-2.25847052206518E-05,9.78984735411359E-06,0.87890625,0,0
-2.10102371056564E-05,1.14911736091017E-05,0.87890625,0,0
-2.22331709665013E-05,1.39638859764091E-05,0.87890625,0,0
-2.2805885237176E-05,1.30001662910217E-05,0.87890625,0,0
-2.38979500863934E-05,1.07401556306286E-05,0.87890625,0,0
-2.20475867536152E-05,9.15635609999299E-06,0.87890625,0,0
-2.04661355382996E-05,9.68257518252358E-06,0.87890625,0,0
-2.06737568078097E-05,1.07174901131657E-05,0.87890625,0,0
-2.26642932830146E-05,1.4598275811295E-05,0.87890625,0,0
-2.24846080527641E-05,1.3885006410419E-05,0.87890625,0,0
-3.57213175448123E-05,1.67148737091338E-05,0.87890625,0,0
-3.14129028993193E-05,7.87005410529673E-06,0.87890625,0,0
-3.74825140170287E-05,1.2344269634923E-05,0.87890625,0,0
-3.31021001329646E-05,1.29547042888589E-05,0.87890625,0,0
-3.41066079272423E-05,1.60408962983638E-05,0.87890625,0,0
-2.98694449156756E-05,1.2944457012054E-05,0.87890625,0,0
-2.78523402812425E-05,1.29012669276563E-05,0.87890625,0,0
-2.55581653618719E-05,1.31771375890821E-05,0.87890625,0,0
-2.57513329415815E-05,1.52231850734097E-05,0.87890625,0,0
-2.65100679825991E-05,1.61553234647727E-05,0.87890625,0,0
-2.56811581493821E-05,1.35046875584521E-05,0.87890625,0,0
-2.50361517828424E-05,1.2175131814729E-05,0.87890625,0,0
-2.25064068217762E-05,1.28572592075216E-05,0.87890625,0,0
-2.31270751100965E-05,1.61604220920708E-05,0.87890625,0,0
-2.26789888984058E-05,1.45152034747298E-05,0.87890625,0,0
-2.32901275012409E-05,1.14230597318965E-05,0.87890625,0,0
-2.00244485313306E-05,8.9333652795176E-06,0.87890625,0,0
-1.95118755073054E-05,1.16910432552686E-05,0.87890625,0,0
-1.91218005056726E-05,1.38176947075408E-05,0.87890625,0,0
-2.04746593226446E-05,1.54533718159655E-05,0.87890625,0,0
-1.95446482393891E-05,1.4435908269661E-05,0.87890625,0,0
-1.98657617147546E-05,1.27415141832898E-05,0.87890625,0,0
-2.16839671338676E-05,8.58728435559897E-06,0.87890625,0,0
-2.44420753006125E-05,6.36213553661946E-06,0.87890625,0,0
-2.55953236774076E-05,7.31069530957029E-06,0.87890625,0,0
-2.659996971488E-05,9.05459091882221E-06,0.87890625,0,0
-2.13799576158635E-05,8.05430863692891E-06,0.87890625,0,0
-2.98513114103116E-05,1.19221558634308E-05,0.87890625,0,0
-2.16372645809315E-05,8.34684760775417E-06,0.87890625,0,0
-2.70877917500911E-05,7.40581890568137E-06,0.87890625,0,0
-2.25273415708216E-05,3.18247157338192E-06,0.87890625,0,0
-2.56136827374576E-05,3.30193779518595E-06,0.87890625,0,0
-2.40662066062214E-05,3.89801789424382E-06,0.87890625,0,0
-2.53517937380821E-05,6.54887344353483E-06,0.87890625,0,0
-2.42020796576981E-05,7.2271614044439E-06,0.87890625,0,0
-2.41560574067989E-05,6.95616836310364E-06,0.87890625,0,0
-2.57635601883521E-05,8.20524746814044E-06,0.87890625,0,0
-2.72612705884967E-05,9.37398635869613E-06,0.87890625,0,0
-3.06145229842514E-05,8.97294194146525E-06,0.87890625,0,0
-3.11108815367334E-05,5.98772567173E-06,0.87890625,0,0
-3.23691820085514E-05,4.0623172026244E-06,0.87890625,0,0
-3.02267653751187E-05,4.52296262665186E-06,0.87890625,0,0
-3.00822612189222E-05,8.52475477586268E-06,0.87890625,0,0
-2.84212401311379E-05,1.23709342005895E-05,0.87890625,0,0
-2.90499065158656E-05,1.56928999786032E-05,0.87890625,0,0
-2.7572628823691E-05,1.62196738529019E-05,0.87890625,0,0
-2.75653110293206E-05,1.57579506776528E-05,0.87890625,0,0
-2.69548363576178E-05,1.54029021359747E-05,0.87890625,0,0
-2.8655415007961E-05,1.71082174347248E-05,0.87890625,0,0
-2.95402460324112E-05,1.90046448551584E-05,0.87890625,0,0
-2.99821658700239E-05,1.91481303772889E-05,0.87890625,0,0
-2.84646393993171E-05,1.82782714546192E-05,0.87890625,0,0
-2.64539194176905E-05,1.91818962775869E-05,0.87890625,0,0
-2.002066867135E-05,1.45491903822403E-05,0.87890625,0,0
-2.87046404991997E-05,1.73054922925076E-05,0.87890625,0,0
-2.30783225561026E-05,7.51065090298653E-06,0.87890625,0,0
-2.95222725981148E-05,9.52523987507448E-06,0.87890625,0,0
-2.44806687987875E-05,3.87578029403812E-06,0.87890625,0,0
-2.56154798989883E-05,3.40334622705996E-06,0.87890625,0,0
-2.3831556973164E-05,3.00132887787186E-06,0.87890625,0,0
-2.55414415732957E-05,6.19765387455118E-06,0.87890625,0,0
-2.36276082432596E-05,4.26116366725182E-06,0.87890625,0,0
-2.31535541388439E-05,3.2390819342254E-06,0.87890625,0,0
-2.44863786065253E-05,5.59797172172694E-06,0.87890625,0,0
-2.35687111853622E-05,7.19085983291734E-06,0.87890625,0,0
-2.24547347897897E-05,8.69784253154648E-06,0.87890625,0,0
-2.04484313144349E-05,9.06203513295623E-06,0.87890625,0,0
-2.17439774132799E-05,9.99013536784332E-06,0.87890625,0,0
-2.07809407584136E-05,7.21434844308533E-06,0.87890625,0,0
-2.1667692635674E-05,5.6767744354147E-06,0.87890625,0,0
-1.99998612515628E-05,3.01845648209564E-06,0.87890625,0,0
-1.99468613573117E-05,2.82437531495816E-06,0.87890625,0,0
-1.87113037100062E-05,3.77140645468899E-06,0.87890625,0,0
-2.00643207790563E-05,8.67331709741848E-06,0.87890625,0,0
-2.07917073566932E-05,1.15708662633551E-05,0.87890625,0,0
-2.22400285565527E-05,1.20902559501701E-05,0.87890625,0,0
-2.23920887947315E-05,1.11641202238388E-05,0.87890625,0,0
-2.32916790992022E-05,1.15648590508499E-05,0.87890625,0,0
-2.42251335293986E-05,1.115917621064E-05,0.87890625,0,0
-2.49810564127984E-05,1.0979943908751E-05,0.87890625,0,0
-2.07071225304389E-05,9.00558370631188E-06,0.87890625,0,0
-2.87427938019391E-05,1.18311972983065E-05,0.87890625,0,0
-2.04664247576147E-05,8.5449783000513E-06,0.87890625,0,0
-2.49026452365797E-05,1.35448199216626E-05,0.87890625,0,0
-2.0736484657391E-05,1.43769448186504E-05,0.87890625,0,0
-2.39825203607325E-05,1.57351496454794E-05,0.87890625,0,0
-2.11541446333285E-05,1.2488192624005E-05,0.87890625,0,0
-2.16622665902833E-05,1.10575874714414E-05,0.87890625,0,0
-2.16821263165912E-05,1.11527633634978E-05,0.87890625,0,0
-2.45856626861496E-05,1.31841279653599E-05,0.87890625,0,0
-2.83356675936375E-05,1.65497949637938E-05,0.87890625,0,0
-2.89932177111041E-05,1.78697573574027E-05,0.87890625,0,0
-2.77120070677483E-05,1.72746204043506E-05,0.87890625,0,0
-2.25280000449857E-05,1.4342505892273E-05,0.87890625,0,0
-2.09344525501365E-05,1.30638663904392E-05,0.87890625,0,0
-2.00655031221686E-05,1.25159413073561E-05,0.87890625,0,0
-2.32486745517235E-05,1.28687679534778E-05,0.87890625,0,0
-2.40126264543505E-05,1.0851964361791E-05,0.87890625,0,0
-2.72735396720236E-05,8.96937945071841E-06,0.87890625,0,0
-2.96544367301976E-05,7.57173484089435E-06,0.87890625,0,0
-3.22315063385759E-05,9.26345910556847E-06,0.87890625,0,0
-3.0838815291645E-05,1.03437723737443E-05,0.87890625,0,0
-2.91753021883778E-05,1.05791314126691E-05,0.87890625,0,0
-2.5591110897949E-05,1.11944809759734E-05,0.87890625,0,0
-2.33082810154883E-05,1.18597217806382E-05,0.87890625,0,0
-2.16443731915206E-05,1.12575417006155E-05,0.87890625,0,0
-1.87850382644683E-05,9.72984889813233E-06,0.87890625,0,0
-1.3506911272998E-05,7.49711580283474E-06,0.87890625,0,0
-2.0051464161952E-05,1.16865867312299E-05,0.87890625,0,0
-1.57097219926072E-05,1.16719638754148E-05,0.87890625,0,0
-1.70007369888481E-05,1.62490559887374E-05,0.87890625,0,0
-1.27142584460671E-05,1.47591754284804E-05,0.87890625,0,0
-1.55051711772103E-05,1.33907415147405E-05,0.87890625,0,0
-1.7027809008141E-05,1.07243859019945E-05,0.87890625,0,0
-2.05734049814055E-05,9.78034040599596E-06,0.87890625,0,0
-2.10976850212319E-05,9.92970399238402E-06,0.87890625,0,0
-2.04246425710153E-05,1.09942766357563E-05,0.87890625,0,0
-2.02943774638698E-05,1.05208264358225E-05,0.87890625,0,0
-2.05685282708146E-05,9.99870644591283E-06,0.87890625,0,0
-2.16191001527477E-05,1.1438806723163E-05,0.87890625,0,0
-2.1192041458562E-05,1.14650238174363E-05,0.87890625,0,0
-2.31545400311006E-05,1.08315452962415E-05,0.87890625,0,0
-2.50819994107587E-05,9.72104862739798E-06,0.87890625,0,0
-2.80754920822801E-05,1.06366078398423E-05,0.87890625,0,0
-2.79649466392584E-05,1.19906790132518E-05,0.87890625,0,0
-2.84611160168424E-05,1.40748843477922E-05,0.87890625,0,0
-2.93338598567061E-05,1.4058737178857E-05,0.87890625,0,0
-3.38760764861945E-05,1.26205022752401E-05,0.87890625,0,0
-3.74207520508207E-05,1.02014528238215E-05,0.87890625,0,0
-3.83517217414919E-05,9.96973540168256E-06,0.87890625,0,0
-3.66431922884658E-05,1.12232055471395E-05,0.87890625,0,0
-3.5068213037448E-05,1.25439519251813E-05,0.87890625,0,0
-3.3459971746197E-05,1.26591994558112E-05,0.87890625,0,0
-3.18398888339289E-05,1.28149176816805E-05,0.87890625,0,0
-2.47524458245607E-05,1.04746368378983E-05,0.87890625,0,0
-3.41936502081808E-05,1.43834322443581E-05,0.87890625,0,0
-2.47849875449901E-05,9.82528217718937E-06,0.87890625,0,0
-3.14825265377294E-05,1.19273681775667E-05,0.87890625,0,0
-2.62153280345956E-05,8.69889208843233E-06,0.87890625,0,0
-3.03602682834025E-05,9.88327792583732E-06,0.87890625,0,0
-2.80825861409539E-05,9.2856853370904E-06,0.87890625,0,0
-2.92578952212352E-05,9.52010577748297E-06,0.87890625,0,0
-2.90045863948762E-05,8.10367328085704E-06,0.87890625,0,0
-3.09587485389784E-05,7.36407355361735E-06,0.87890625,0,0
-3.31827141053509E-05,7.89478417573264E-06,0.87890625,0,0
-3.1645849958295E-05,8.25907682155957E-06,0.87890625,0,0
-2.88912397081731E-05,9.75634156930028E-06,0.87890625,0,0
-2.37773547269171E-05,9.54052939050598E-06,0.87890625,0,0
-2.29018623940647E-05,8.01254373072879E-06,0.87890625,0,0
-2.03225827135611E-05,4.32647175330203E-06,0.87890625,0,0
-2.01254497369519E-05,3.52659230884456E-06,0.87890625,0,0
-1.72062045749044E-05,4.41161864728201E-06,0.87890625,0,0
-1.7564392692293E-05,8.33147714729421E-06,0.87890625,0,0
-1.54660083353519E-05,1.17170875455486E-05,0.87890625,0,0
-1.48887293107691E-05,1.40042711791466E-05,0.87890625,0,0
-1.34405081553268E-05,1.38678169605555E-05,0.87890625,0,0
-1.49059851537459E-05,1.31673714349745E-05,0.87890625,0,0
-1.62777905643452E-05,1.24731495816377E-05,0.87890625,0,0
-1.69401901075616E-05,1.22041710710619E-05,0.87890625,0,0
-1.5961610188242E-05,1.22880546769011E-05,0.87890625,0,0
-1.63248514581937E-05,1.41359796543838E-05,0.87890625,0,0
-1.35178597702179E-05,1.1305706721032E-05,0.87890625,0,0
-1.85924964171136E-05,1.59263909154106E-05,0.87890625,0,0
-1.45094982144656E-05,1.26858139992692E-05,0.87890625,0,0
-1.88454869203269E-05,1.65154924616218E-05,0.87890625,0,0
-1.56167425302556E-05,1.31160431919852E-05,0.87890625,0,0
-1.51715657921159E-05,1.25753313113819E-05,0.87890625,0,0
-1.09861839518999E-05,1.02855647128308E-05,0.87890625,0,0
-1.16237233669381E-05,1.18554271466564E-05,0.87890625,0,0
-1.26773584270268E-05,1.12925126813934E-05,0.87890625,0,0
-1.38710265673581E-05,8.92447133082896E-06,0.87890625,0,0
-1.45170688483631E-05,9.4199876912171E-06,0.87890625,0,0
-1.49205670822994E-05,1.23642284961534E-05,0.87890625,0,0
-1.66475019796053E-05,1.60837262228597E-05,0.87890625,0,0
-1.73514999914914E-05,1.69264203577768E-05,0.87890625,0,0
-1.85865064850077E-05,1.72302297869464E-05,0.87890625,0,0
-1.59697592607699E-05,1.62618707690854E-05,0.87890625,0,0
-1.56570749823004E-05,1.69634131452767E-05,0.87890625,0,0
-1.69123213709099E-05,1.60557046910981E-05,0.87890625,0,0
-2.03357776626945E-05,1.38484620038071E-05,0.87890625,0,0
-2.1300393200363E-05,9.63095317274565E-06,0.87890625,0,0
-2.30052137339953E-05,8.3793875091942E-06,0.87890625,0,0
-2.33723949349951E-05,9.26766279008007E-06,0.87890625,0,0
-2.41120160353603E-05,1.1843791071442E-05,0.87890625,0,0
-2.39117780438391E-05,1.18699936138E-05,0.87890625,0,0
-2.39358651015209E-05,1.08186695797485E-05,0.87890625,0,0
-2.42572114075301E-05,9.41138841881184E-06,0.87890625,0,0
-2.45195242314367E-05,8.46991679281928E-06,0.87890625,0,0
-2.0559127733577E-05,8.8657525338931E-06,0.87890625,0,0
-3.09292845486198E-05,1.51914109665086E-05,0.87890625,0,0
-2.75373386102729E-05,1.36748058139347E-05,0.87890625,0,0
-3.55172560375649E-05,1.67467751452932E-05,0.87890625,0,0
-3.11852636514232E-05,1.81997274921741E-05,0.87890625,0,0
-3.26499466609675E-05,1.95210486708675E-05,0.87890625,0,0
-3.03348551824456E-05,1.70487128343666E-05,0.87890625,0,0
-3.20014441967942E-05,1.59517057909397E-05,0.87890625,0,0
-3.1956828024704E-05,1.48422868733178E-05,0.87890625,0,0
-3.18044076266233E-05,1.17707522804267E-05,0.87890625,0,0
-3.07179470837582E-05,8.52095126901986E-06,0.87890625,0,0
-2.93311786663253E-05,6.93607989887823E-06,0.87890625,0,0
-2.9723903935519E-05,6.11147652307409E-06,0.87890625,0,0
-2.78920779237524E-05,3.29336421600601E-06,0.87890625,0,0
-2.87883503915509E-05,1.05579067621875E-06,0.87890625,0,0
-2.76583723461954E-05,6.48644231660001E-07,0.87890625,0,0
-2.72741253866116E-05,3.79259063265636E-06,0.87890625,0,0
-2.41845427808585E-05,7.08433026375133E-06,0.87890625,0,0
-2.49469740083441E-05,1.0474671398697E-05,0.87890625,0,0
-2.47358366323169E-05,1.15282928163651E-05,0.87890625,0,0
-2.50095527007943E-05,1.00060187833151E-05,0.87890625,0,0
-2.27847995120101E-05,7.13167446519947E-06,0.87890625,0,0
-2.10763555514859E-05,6.49189269097405E-06,0.87890625,0,0
-1.92909046745626E-05,8.21186858956935E-06,0.87890625,0,0
-1.96341788978316E-05,1.22319570436957E-05,0.87890625,0,0
-2.00391459657112E-05,1.5141318726819E-05,0.87890625,0,0
-2.06261829589494E-05,1.41807531690574E-05,0.87890625,0,0
-1.88056201295694E-05,8.83622760738945E-06,0.87890625,0,0
-2.69482898147544E-05,1.15416178232408E-05,0.87890625,0,0
-2.01240782189416E-05,9.30895657802466E-06,0.87890625,0,0
-2.50328976107994E-05,1.57959075295366E-05,0.87890625,0,0
-2.2894868379808E-05,1.66744703165023E-05,0.87890625,0,0
-2.62316625594394E-05,1.72379368450493E-05,0.87890625,0,0
-2.4439472326776E-05,1.27055627672235E-05,0.87890625,0,0
-2.47791758738458E-05,9.37992717808811E-06,0.87890625,0,0
-2.11053447856102E-05,5.49549304196262E-06,0.87890625,0,0
-1.7703720004647E-05,3.45194712281227E-06,0.87890625,0,0
-1.72874479176244E-05,3.06580568576464E-06,0.87890625,0,0
-1.79302569449646E-05,4.44163788415608E-06,0.87890625,0,0
-1.99563382921042E-05,9.48144952417351E-06,0.87890625,0,0
-1.83523352461634E-05,1.36225662572542E-05,0.87890625,0,0
-1.75674049387453E-05,1.5141181393119E-05,0.87890625,0,0
-1.65819692483637E-05,1.08323883978301E-05,0.87890625,0,0
-1.89119109563762E-05,6.51439813736943E-06,0.87890625,0,0
-1.97300669242395E-05,5.23882590641733E-06,0.87890625,0,0
-2.28728367801523E-05,9.56160965870367E-06,0.87890625,0,0
-2.42310525209177E-05,1.29916006699204E-05,0.87890625,0,0
-2.6119301764993E-05,1.45865815284196E-05,0.87890625,0,0
-2.46140189119615E-05,1.45543690450722E-05,0.87890625,0,0
-2.30579844355816E-05,1.46287038660375E-05,0.87890625,0,0
-2.18505429074867E-05,1.24092866826686E-05,0.87890625,0,0
-2.21024602069519E-05,9.20198272069683E-06,0.87890625,0,0
-2.09106710826745E-05,8.95313587534474E-06,0.87890625,0,0
-1.93568357644835E-05,9.13855001272168E-06,0.87890625,0,0
-1.75734694494167E-05,6.00554631091654E-06,0.87890625,0,0
-2.75819784292253E-05,8.1055004557129E-06,0.87890625,0,0
-2.23494735109853E-05,7.57600810175063E-06,0.87890625,0,0
-2.4089382350212E-05,1.23750596685568E-05,0.87890625,0,0
-1.87473924597725E-05,1.2551171494124E-05,0.87890625,0,0
-2.04913048946764E-05,1.16227147373138E-05,0.87890625,0,0
-2.25223993766122E-05,8.04290357336868E-06,0.87890625,0,0
-2.79802861768985E-05,7.8818347901688E-06,0.87890625,0,0
-2.93531174975215E-05,8.5516503531835E-06,0.87890625,0,0
-2.9191074645496E-05,9.88225656328723E-06,0.87890625,0,0
-2.877801489376E-05,1.17317122203531E-05,0.87890625,0,0
-2.8405094781192E-05,1.32066215883242E-05,0.87890625,0,0
-3.04659224639181E-05,1.45692501973826E-05,0.87890625,0,0
-3.16897312586661E-05,1.39492167363642E-05,0.87890625,0,0
-3.37376550305635E-05,1.30104854179081E-05,0.87890625,0,0
-3.31869268848095E-05,1.17836334538879E-05,0.87890625,0,0
-3.34956494043581E-05,1.21602133731358E-05,0.87890625,0,0
-3.1691506592324E-05,1.2465021427488E-05,0.87890625,0,0
-3.17039193760138E-05,1.33943176479079E-05,0.87890625,0,0
-3.11879084620159E-05,1.35462360049132E-05,0.87890625,0,0
-3.15461838908959E-05,1.51774020196171E-05,0.87890625,0,0
-2.97927217616234E-05,1.59412593347952E-05,0.87890625,0,0
-2.94463643513154E-05,1.46076381497551E-05,0.87890625,0,0
-2.96121052087983E-05,1.14466438390082E-05,0.87890625,0,0
-3.06365218420979E-05,1.0550123079156E-05,0.87890625,0,0
-3.27039124385919E-05,1.1965210433118E-05,0.87890625,0,0
-3.55523552570958E-05,1.36575545184314E-05,0.87890625,0,0
-3.06135734717827E-05,1.25100195873529E-05,0.87890625,0,0
-4.26370934292208E-05,1.67650014191167E-05,0.87890625,0,0
-2.99369712593034E-05,1.02587746368954E-05,0.87890625,0,0
-3.52526476490311E-05,1.31817996589234E-05,0.87890625,0,0
-2.68161111307563E-05,1.11975950858323E-05,0.87890625,0,0
-2.95287172775716E-05,1.29530026242719E-05,0.87890625,0,0
-2.39636374317342E-05,1.26515315059805E-05,0.87890625,0,0
-2.32043512369273E-05,1.36374228532077E-05,0.87890625,0,0
-2.07594966923352E-05,1.07907781057293E-05,0.87890625,0,0
-2.15638119698269E-05,8.2400565588614E-06,0.87890625,0,0
-2.32506517932052E-05,8.24026938062161E-06,0.87890625,0,0
-2.19378252950264E-05,8.82579661265481E-06,0.87890625,0,0
-2.08392648346489E-05,1.03132633739733E-05,0.87890625,0,0
-1.67162797879428E-05,1.01105415524216E-05,0.87890625,0,0
-1.73800763150211E-05,1.07125833892496E-05,0.87890625,0,0
-1.53816854435718E-05,1.0588076293061E-05,0.87890625,0,0
-1.63210261234781E-05,1.21045450214297E-05,0.87890625,0,0
-1.42641838465352E-05,1.19865053420654E-05,0.87890625,0,0
-1.58021284732968E-05,1.26517179523944E-05,0.87890625,0,0
-1.48086073750164E-05,1.15365401143208E-05,0.87890625,0,0
-1.57386803039117E-05,1.01843634183751E-05,0.87890625,0,0
-1.29829895740841E-05,8.0628187788534E-06,0.87890625,0,0
-1.21899929581559E-05,8.12603502708953E-06,0.87890625,0,0
-1.27278044601553E-05,8.71111842570826E-06,0.87890625,0,0
-1.51758549691294E-05,1.00885972642573E-05,0.87890625,0,0
-1.54568970174296E-05,1.09682050606352E-05,0.87890625,0,0
-1.38761433845502E-05,1.24756570585305E-05,0.87890625,0,0
-9.46518593991641E-06,1.26728873510729E-05,0.87890625,0,0
-1.19666610771674E-05,1.87727709999308E-05,0.87890625,0,0
-7.19825402484275E-06,1.27249613797176E-05,0.87890625,0,0
-1.02560825325781E-05,1.19563883345108E-05,0.87890625,0,0
-1.15193952296977E-05,7.8229440987343E-06,0.87890625,0,0
-1.51456733874511E-05,1.03664115158608E-05,0.87890625,0,0
-1.52004768096958E-05,9.93518733594101E-06,0.87890625,0,0
-1.74352608155459E-05,9.66469542618142E-06,0.87890625,0,0
-1.93154610315105E-05,8.80037350725615E-06,0.87890625,0,0
-2.10477537621045E-05,1.02082849480212E-05,0.87890625,0,0
-2.19662451854674E-05,1.32234063130454E-05,0.87890625,0,0
-2.19541743717855E-05,1.34621959659853E-05,0.87890625,0,0
-2.40870358538814E-05,1.25962560559856E-05,0.87890625,0,0
-2.75370020972332E-05,1.12656234705355E-05,0.87890625,0,0
-3.15965335175861E-05,1.26357954286505E-05,0.87890625,0,0
-3.16382975142915E-05,1.29927684611175E-05,0.87890625,0,0
-3.10841787722893E-05,1.28953934108722E-05,0.87890625,0,0
-3.06288457068149E-05,9.69491429714253E-06,0.87890625,0,0
-3.27504130837042E-05,7.24653227734962E-06,0.87890625,0,0
-3.30058574036229E-05,5.36901143277646E-06,0.87890625,0,0
-3.2611900678603E-05,5.85745601711096E-06,0.87890625,0,0
-3.23419444612227E-05,6.45740647087223E-06,0.87890625,0,0
-3.30737202602904E-05,8.01986243459396E-06,0.87890625,0,0
-3.28200549120083E-05,8.88415161170997E-06,0.87890625,0,0
-3.3286301913904E-05,9.60851866693702E-06,0.87890625,0,0
-3.35146251018159E-05,1.03214388218476E-05,0.87890625,0,0
-3.32914969476406E-05,1.03026495708036E-05,0.87890625,0,0
-2.75990478257881E-05,7.49991204429534E-06,0.87890625,0,0
-3.95848364860285E-05,9.57985866989475E-06,0.87890625,0,0
-3.10444811475463E-05,6.21620620222529E-06,0.87890625,0,0
-4.06769686378539E-05,1.02663343568565E-05,0.87890625,0,0
-3.68480541510507E-05,1.16513729153667E-05,0.87890625,0,0
-4.05593709729146E-05,1.33562361952499E-05,0.87890625,0,0
-3.71172282029875E-05,1.26959694171092E-05,0.87890625,0,0
-3.89410670322832E-05,1.33224330056692E-05,0.87890625,0,0
-3.90835411963053E-05,1.08486065073521E-05,0.87890625,0,0
-4.02036966988817E-05,7.80162099545123E-06,0.87890625,0,0
-4.00588396587409E-05,7.5550624387688E-06,0.87890625,0,0
-3.69710724044126E-05,9.61022396950284E-06,0.87890625,0,0
-3.51378257619217E-05,1.16247865662444E-05,0.87890625,0,0
-3.15251418214757E-05,1.10134487840696E-05,0.87890625,0,0
-3.05612556985579E-05,9.55019277171232E-06,0.87890625,0,0
-2.66297411144478E-05,7.95404775999486E-06,0.87890625,0,0
-2.67505565716419E-05,9.71846748143435E-06,0.87890625,0,0
-2.48078431468457E-05,1.25925816973904E-05,0.87890625,0,0
-2.6884375984082E-05,1.64015182235744E-05,0.87890625,0,0
-2.78381703537889E-05,1.70401654031593E-05,0.87890625,0,0
-3.0409028113354E-05,1.57408394443337E-05,0.87890625,0,0
-2.91722681140527E-05,1.39421326821321E-05,0.87890625,0,0
-2.78979005088331E-05,1.30361504488974E-05,0.87890625,0,0
-2.55341274169041E-05,1.20503746074974E-05,0.87890625,0,0
-2.45183437073138E-05,1.15572174763656E-05,0.87890625,0,0
-2.32118563872064E-05,1.22933342936449E-05,0.87890625,0,0
-2.18774821405532E-05,1.34004367282614E-05,0.87890625,0,0
-1.5560121028102E-05,1.11755462057772E-05,0.87890625,0,0
-2.11020087590441E-05,1.65131750691216E-05,0.87890625,0,0
-1.5134402019612E-05,1.15431221274775E-05,0.87890625,0,0
-1.94014683074784E-05,9.88169449556153E-06,0.87890625,0,0
-1.57062877406133E-05,4.67617792310193E-06,0.87890625,0,0
-1.59712453751126E-05,8.10669826023513E-06,0.87890625,0,0
-1.13813375719474E-05,1.13858195618377E-05,0.87890625,0,0
-9.59299813985126E-06,1.4541512427968E-05,0.87890625,0,0
-7.46225441616843E-06,1.38105297082802E-05,0.87890625,0,0
-7.40985342417844E-06,1.40660731631215E-05,0.87890625,0,0
-9.86724353424506E-06,1.60449726536172E-05,0.87890625,0,0
-1.25227415992413E-05,1.47524242493091E-05,0.87890625,0,0
-1.53475211845944E-05,1.07646810647566E-05,0.87890625,0,0
-1.52620505105006E-05,5.67302868148545E-06,0.87890625,0,0
-1.62114247359568E-05,4.11426708524232E-06,0.87890625,0,0
-1.47995779116172E-05,3.33484990733268E-06,0.87890625,0,0
-1.42921117003425E-05,5.42120415047975E-06,0.87890625,0,0
-1.25596834550379E-05,7.2574016485305E-06,0.87890625,0,0
-1.32538543766714E-05,9.37685581448022E-06,0.87890625,0,0
-1.25154047054821E-05,8.98237158253323E-06,0.87890625,0,0
-1.27412349684164E-05,8.98510370461736E-06,0.87890625,0,0
-1.2769021850545E-05,9.54854567680741E-06,0.87890625,0,0
-1.51405820361106E-05,1.19482947411598E-05,0.87890625,0,0
-1.67189682542812E-05,1.33265612021205E-05,0.87890625,0,0
-1.75955283339135E-05,1.38978803079226E-05,0.87890625,0,0
-1.87602163350675E-05,1.46769234561361E-05,0.87890625,0,0
-1.89504080481129E-05,1.57171725732042E-05,0.87890625,0,0
-1.44454352266621E-05,1.27852053992683E-05,0.87890625,0,0
-2.07625271286815E-05,1.78096415766049E-05,0.87890625,0,0
-1.64073662745068E-05,1.21381062854198E-05,0.87890625,0,0
-1.93422565644141E-05,1.40311331051635E-05,0.87890625,0,0
-1.4370468306879E-05,9.09220489120344E-06,0.87890625,0,0
-1.48940180224599E-05,7.18059663995518E-06,0.87890625,0,0
-1.27512439576094E-05,4.91982927997014E-06,0.87890625,0,0
-1.3801024579152E-05,7.48301317798905E-06,0.87890625,0,0
-1.32994355226401E-05,8.14674240245949E-06,0.87890625,0,0
-1.26354434542009E-05,9.58998589339899E-06,0.87890625,0,0
-1.24169855553191E-05,9.78675234364346E-06,0.87890625,0,0
-1.34472338686464E-05,7.33751039661001E-06,0.87890625,0,0
-1.69349477801006E-05,5.64531865165918E-06,0.87890625,0,0
-1.85063108801842E-05,3.20881053994526E-06,0.87890625,0,0
-2.10907110158587E-05,2.56443854596E-06,0.87890625,0,0
-2.20505808101734E-05,3.31555202137679E-06,0.87890625,0,0
-2.4793722332106E-05,7.98771179688629E-06,0.87890625,0,0
-2.60289689322235E-05,1.06005572888535E-05,0.87890625,0,0
-2.78261668427149E-05,1.16931723823654E-05,0.87890625,0,0
-2.71444987447467E-05,8.80667175806593E-06,0.87890625,0,0
-2.76413829851663E-05,6.78479136695387E-06,0.87890625,0,0
-2.88712926703738E-05,5.39194479642902E-06,0.87890625,0,0
-3.21613406413235E-05,5.85658108320786E-06,0.87890625,0,0
-3.46738197549712E-05,6.75459114063415E-06,0.87890625,0,0
-3.58105353370775E-05,8.08726963441586E-06,0.87890625,0,0
-3.49315341736656E-05,9.40493009693455E-06,0.87890625,0,0
-3.44135260093026E-05,1.11601248136139E-05,0.87890625,0,0
-2.87106377072632E-05,9.54786082729697E-06,0.87890625,0,0
-4.26890474045649E-05,1.35279506139341E-05,0.87890625,0,0
-3.37765086442232E-05,1.05955341496156E-05,0.87890625,0,0
-3.92691981687676E-05,1.34530773721053E-05,0.87890625,0,0
-3.18784659611993E-05,1.15051579996361E-05,0.87890625,0,0
-3.51111011696048E-05,1.30206108224229E-05,0.87890625,0,0
-3.12497613776941E-05,1.20566355690244E-05,0.87890625,0,0
-3.17259946314152E-05,1.10755099740345E-05,0.87890625,0,0
-2.93246721412288E-05,8.37935658637434E-06,0.87890625,0,0
-2.74296562565723E-05,7.73478313931264E-06,0.87890625,0,0
-2.5809473299887E-05,9.6333906185464E-06,0.87890625,0,0
-2.3774027795298E-05,1.02270705610863E-05,0.87890625,0,0
-2.6302031983505E-05,1.01555451692548E-05,0.87890625,0,0
-2.82260207313811E-05,1.00311890491867E-05,0.87890625,0,0
-3.24971442751121E-05,1.26639733935008E-05,0.87890625,0,0
-3.01961845252663E-05,1.43225770443678E-05,0.87890625,0,0
-2.75024976872373E-05,1.59715509653324E-05,0.87890625,0,0
-2.18747773033101E-05,1.65206238307292E-05,0.87890625,0,0
-2.11068618227728E-05,1.68259648489766E-05,0.87890625,0,0
-1.95857846847503E-05,1.41201426231419E-05,0.87890625,0,0
-2.11112328543095E-05,1.28196252262569E-05,0.87890625,0,0
-2.15298277908005E-05,1.47087393997936E-05,0.87890625,0,0
-2.357191988267E-05,1.82001876964932E-05,0.87890625,0,0
-2.38386546698166E-05,1.82465173566015E-05,0.87890625,0,0
-2.412275171082E-05,1.70826551766368E-05,0.87890625,0,0
-2.43072063312866E-05,1.58712082338752E-05,0.87890625,0,0
-2.49012864514953E-05,1.28566825878806E-05,0.87890625,0,0
-2.04498319362756E-05,7.49544597056229E-06,0.87890625,0,0
-2.83417375612771E-05,1.16908840936958E-05,0.87890625,0,0
-2.1323241526261E-05,1.03999645943986E-05,0.87890625,0,0
-2.71931330644293E-05,1.1212829122087E-05,0.87890625,0,0
-2.29428951570299E-05,8.84841574588791E-06,0.87890625,0,0
-2.44670009124093E-05,9.91095384961227E-06,0.87890625,0,0
-2.05441538128071E-05,8.81774758454412E-06,0.87890625,0,0
-2.12507911783177E-05,1.00948191175121E-05,0.87890625,0,0
-2.02675837499555E-05,1.0945064786938E-05,0.87890625,0,0
-2.02293831534917E-05,1.1620509212662E-05,0.87890625,0,0
-1.97181416297099E-05,1.00797424238408E-05,0.87890625,0,0
-1.71292958839331E-05,6.99652173352661E-06,0.87890625,0,0
-1.6424315617769E-05,6.72123815093073E-06,0.87890625,0,0
-1.45685289680841E-05,7.7017248258926E-06,0.87890625,0,0
-1.53993096319027E-05,8.60453292261809E-06,0.87890625,0,0
-1.35958562168526E-05,8.11320387583692E-06,0.87890625,0,0
-1.39759076773771E-05,8.78070750331972E-06,0.87890625,0,0
-1.29131540234084E-05,9.52773098106263E-06,0.87890625,0,0
-1.45653175422922E-05,1.15174825623399E-05,0.87890625,0,0
-1.4198582903191E-05,1.18909047159832E-05,0.87890625,0,0
-1.5022631487227E-05,1.15987395474804E-05,0.87890625,0,0
-1.40300162456697E-05,1.06373472590349E-05,0.87890625,0,0
-1.45443927976885E-05,1.19203641588683E-05,0.87890625,0,0
-1.49015013448661E-05,1.50758396557649E-05,0.87890625,0,0
-1.62846026796615E-05,1.93392352230148E-05,0.87890625,0,0
-1.69213271874469E-05,2.12282157008303E-05,0.87890625,0,0
-1.66340923897224E-05,2.0330231564003E-05,0.87890625,0,0
-1.44667901622597E-05,1.29104209918296E-05,0.87890625,0,0
-2.11336300708354E-05,1.59113860718207E-05,0.87890625,0,0
-1.72577420016751E-05,1.09902248368599E-05,0.87890625,0,0
-2.19659723370569E-05,1.82375479198527E-05,0.87890625,0,0
-1.94384811038617E-05,1.71468109328998E-05,0.87890625,0,0
-2.15534291783115E-05,1.90675837075105E-05,0.87890625,0,0
-2.31094236369245E-05,1.7535427105031E-05,0.87890625,0,0
-2.6728434022516E-05,1.92996503756149E-05,0.87890625,0,0
-2.74655758403242E-05,1.9095108655165E-05,0.87890625,0,0
-2.78654351859586E-05,1.73422849911731E-05,0.87890625,0,0
-2.72054639935959E-05,1.35186855914071E-05,0.87890625,0,0
-2.69978063442977E-05,1.02006724773673E-05,0.87890625,0,0
-2.97375154332258E-05,1.11665713120601E-05,0.87890625,0,0
-3.16659898089711E-05,1.15273078336031E-05,0.87890625,0,0
-3.35090189764742E-05,1.21294751807E-05,0.87890625,0,0
-3.16429868689738E-05,1.09544789665961E-05,0.87890625,0,0
-3.12539741571527E-05,1.07482628664002E-05,0.87890625,0,0
-3.11477961076889E-05,7.91988986748038E-06,0.87890625,0,0
-3.30847287841607E-05,7.98208202468231E-06,0.87890625,0,0
-3.28077585436404E-05,9.54920142248739E-06,0.87890625,0,0
-3.34980722982436E-05,1.35019990921137E-05,0.87890625,0,0
-3.40393198712263E-05,1.40762685987283E-05,0.87890625,0,0
-3.57091339537874E-05,1.24414882520796E-05,0.87890625,0,0
-3.66436652257107E-05,1.08638769233949E-05,0.87890625,0,0
-3.6465822631726E-05,9.35576736083021E-06,0.87890625,0,0
-3.46486267517321E-05,6.71637508276035E-06,0.87890625,0,0
-3.55222182406578E-05,6.97225914336741E-06,0.87890625,0,0
-3.33336574840359E-05,5.73815441384795E-06,0.87890625,0,0
-4.91389509988949E-05,6.52987046123599E-06,0.87890625,0,0
-3.74631126760505E-05,2.02502133106464E-06,0.87890625,0,0
-4.37804083048832E-05,2.82263818007777E-06,0.87890625,0,0
-3.56004129571375E-05,3.72524755221093E-06,0.87890625,0,0
-3.77618271159008E-05,7.7344566307147E-06,0.87890625,0,0
-3.28561327478383E-05,1.04327828012174E-05,0.87890625,0,0
-3.52416027453728E-05,1.38556988531491E-05,0.87890625,0,0
-3.6844805435976E-05,1.47738746818504E-05,0.87890625,0,0
-3.89686356356833E-05,1.50905534610501E-05,0.87890625,0,0
-3.89379456464667E-05,1.62333471962484E-05,0.87890625,0,0
-3.72359718312509E-05,1.68577316799201E-05,0.87890625,0,0
-3.8610593037447E-05,1.60213894560002E-05,0.87890625,0,0
-3.62206774298102E-05,1.40932070280542E-05,0.87890625,0,0
-3.64565603376832E-05,1.35443533508806E-05,0.87890625,0,0
-3.33386487909593E-05,1.21801931527443E-05,0.87890625,0,0
-3.41209379257634E-05,1.22753435789491E-05,0.87890625,0,0
-3.24614411510993E-05,1.29916888909065E-05,0.87890625,0,0
-3.37689671141561E-05,1.36027010739781E-05,0.87890625,0,0
-3.08719208987895E-05,1.21644570754142E-05,0.87890625,0,0
-2.97103197226534E-05,9.92759578366531E-06,0.87890625,0,0
-2.69683350779815E-05,7.01147700965521E-06,0.87890625,0,0
-2.57434166996973E-05,5.98674614593619E-06,0.87890625,0,0
-2.16281023313059E-05,5.7133265727316E-06,0.87890625,0,0
-1.92208790394943E-05,5.19439709023573E-06,0.87890625,0,0
-1.78435147972777E-05,3.83750648325076E-06,0.87890625,0,0
-1.7086753359763E-05,5.63830053579295E-06,0.87890625,0,0
-1.36714488689904E-05,8.44446094561135E-06,0.87890625,0,0
-1.8110888049705E-05,1.21237408166053E-05,0.87890625,0,0
-1.15686971184914E-05,1.01021505543031E-05,0.87890625,0,0
-1.37208226078656E-05,1.36261560328421E-05,0.87890625,0,0
-1.001690634439E-05,1.22734736578423E-05,0.87890625,0,0
-1.16558394438471E-05,1.28190986288246E-05,0.87890625,0,0
-1.08672620626749E-05,1.2047548807459E-05,0.87890625,0,0
-1.1870563866978E-05,1.24223743114271E-05,0.87890625,0,0
-1.15853481474915E-05,1.10031160147628E-05,0.87890625,0,0
-1.25145861602505E-05,1.08992671812302E-05,0.87890625,0,0
-1.43525130624766E-05,1.13871337816818E-05,0.87890625,0,0
-1.48353437907645E-05,1.04066311905626E-05,0.87890625,0,0
-1.54515291796997E-05,1.00353663583519E-05,0.87890625,0,0
-1.41500322570209E-05,9.43182840273948E-06,0.87890625,0,0
-1.3794635378872E-05,9.81306129688164E-06,0.87890625,0,0
-1.16290739242686E-05,9.86851409834344E-06,0.87890625,0,0
-1.11454291982227E-05,1.14254262371105E-05,0.87890625,0,0
-9.60757733992068E-06,1.14334216050338E-05,0.87890625,0,0
-9.02346164366463E-06,1.20572603918845E-05,0.87890625,0,0
-7.54089205656783E-06,1.2104388588341E-05,0.87890625,0,0
-7.44921862860792E-06,1.17508543553413E-05,0.87890625,0,0
-5.56987879463122E-06,7.85385964263696E-06,0.87890625,0,0
-4.8740712372819E-06,2.98679492516385E-06,0.87890625,0,0
-6.41145607005456E-06,-6.35435640106152E-07,0.87890625,0,0
-8.63472087075934E-06,-1.84166253802687E-06,0.87890625,0,0
-7.81482776801568E-06,-1.86787451639248E-06,0.87890625,0,0
-6.26968358119484E-06,-2.29049783229129E-06,0.87890625,0,0
-7.25814788893331E-06,-1.46714864968089E-06,0.87890625,0,0
-1.44216101034544E-05,-5.46608553975148E-08,0.87890625,0,0
-1.67508915183134E-05,2.97904193757859E-06,0.87890625,0,0
-1.91185135918204E-05,5.65062191526522E-06,0.87890625,0,0
-1.72744985320605E-05,9.67565210885368E-06,0.87890625,0,0
-1.66712252394063E-05,9.13780968403444E-06,0.87890625,0,0
-1.58225266204681E-05,8.17239742900711E-06,0.87890625,0,0
-1.65369201567955E-05,8.02605154603953E-06,0.87890625,0,0
-1.80695296876365E-05,9.85092628980055E-06,0.87890625,0,0
-2.10952293855371E-05,1.13302421596018E-05,0.87890625,0,0
-2.3681574020884E-05,1.1481984074635E-05,0.87890625,0,0
-2.28168901230674E-05,1.17434519779636E-05,0.87890625,0,0
-2.11612987186527E-05,1.45912472362397E-05,0.87890625,0,0
-2.06068289116956E-05,1.87645255209645E-05,0.87890625,0,0
-2.2224803615245E-05,1.95453976630233E-05,0.87890625,0,0
-2.34073013416491E-05,1.65453548106598E-05,0.87890625,0,0
-2.4242088329629E-05,1.20474369396106E-05,0.87890625,0,0
-2.40532936004456E-05,9.14830252440879E-06,0.87890625,0,0
-2.41182879108237E-05,6.8269764597062E-06,0.87890625,0,0
-2.41777288465528E-05,5.22681648362777E-06,0.87890625,0,0
-2.43259128183126E-05,5.67904453419033E-06,0.87890625,0,0
-2.34204835578566E-05,1.01614896266256E-05,0.87890625,0,0
-2.23637143790256E-05,1.4601773727918E-05,0.87890625,0,0
-2.07630764634814E-05,1.66546815307811E-05,0.87890625,0,0
-2.07809098355938E-05,1.70348557730904E-05,0.87890625,0,0
-2.31520207307767E-05,1.83350111910841E-05,0.87890625,0,0
-2.52498612098861E-05,2.13982930290513E-05,0.87890625,0,0
-2.06614131457172E-05,1.94110525626456E-05,0.87890625,0,0
-2.93160646833712E-05,2.74668345809914E-05,0.87890625,0,0
-2.29540091822855E-05,2.0400990251801E-05,0.87890625,0,0
-2.98897393804509E-05,2.55060622293968E-05,0.87890625,0,0
-2.66189672402106E-05,2.07244193006773E-05,0.87890625,0,0
-3.11742260237224E-05,2.22977887460729E-05,0.87890625,0,0
-3.02634416584624E-05,1.82805797521723E-05,0.87890625,0,0
-3.20712715620175E-05,1.8029748389381E-05,0.87890625,0,0
-3.23338172165677E-05,1.81985542440088E-05,0.87890625,0,0
-3.41494633175898E-05,1.97939170902828E-05,0.87890625,0,0
-3.53632131009363E-05,1.90595019375905E-05,0.87890625,0,0
-3.36963894369546E-05,1.51779668158269E-05,0.87890625,0,0
-3.31628834828734E-05,1.22158025988028E-05,0.87890625,0,0
-3.2256095437333E-05,4.95671883982141E-06,0.87890625,0,0
-3.43175124726258E-05,-4.52346330348519E-06,0.87890625,0,0
-3.33844582200982E-05,-1.48218732647365E-05,0.87890625,0,0
-3.4522105124779E-05,-1.45072071973118E-05,0.87890625,0,0
-3.38510435540229E-05,-8.07971082394943E-06,0.87890625,0,0
-3.43651809089351E-05,1.65909102634032E-06,0.87890625,0,0
-3.14574572257698E-05,5.76275306229945E-06,0.87890625,0,0
-2.98019149340689E-05,7.91513411968481E-06,0.87890625,0,0
-2.7532507374417E-05,7.82994084147504E-06,0.87890625,0,0
-2.7372314434615E-05,9.37136428547092E-06,0.87890625,0,0
-2.66725473920815E-05,1.03012062027119E-05,0.87890625,0,0
-2.64728842012119E-05,1.02334106486524E-05,0.87890625,0,0
-2.60680444625905E-05,8.00453562987968E-06,0.87890625,0,0
-2.51905967161292E-05,6.26620885668672E-06,0.87890625,0,0
-1.89381898962893E-05,6.72068063067854E-06,0.87890625,0,0
-2.50433458859334E-05,1.04820337583078E-05,0.87890625,0,0
-1.70839211932616E-05,7.41535404813476E-06,0.87890625,0,0
-2.32466609304538E-05,8.67372364155017E-06,0.87890625,0,0
-2.09177524084225E-05,1.16771534521831E-05,0.87890625,0,0
-2.47013194893952E-05,1.42430344567401E-05,0.87890625,0,0
-2.24710493057501E-05,1.14878030217369E-05,0.87890625,0,0
-2.31676895054989E-05,1.01162022474455E-05,0.87890625,0,0
-2.29189736273838E-05,1.03423535620095E-05,0.87890625,0,0
-2.43640952248825E-05,1.12415618787054E-05,0.87890625,0,0
-2.64305799646536E-05,1.22375868158997E-05,0.87890625,0,0
-2.70378513960168E-05,1.17763556772843E-05,0.87890625,0,0
-3.06401707348414E-05,1.1277546036581E-05,0.87890625,0,0
-3.40436345140915E-05,9.99504027276998E-06,0.87890625,0,0
-3.81210884370375E-05,9.40042718866607E-06,0.87890625,0,0
-3.73524162569083E-05,9.26560369407525E-06,0.87890625,0,0
-3.70561938325409E-05,1.12937213998521E-05,0.87890625,0,0
-3.47661989508197E-05,1.26422664834536E-05,0.87890625,0,0
-3.49020629073493E-05,1.35721766127972E-05,0.87890625,0,0
-3.4305478038732E-05,1.44135728987749E-05,0.87890625,0,0
-3.66314088751096E-05,1.63495660672197E-05,0.87890625,0,0
-3.84929480787832E-05,1.79940889211139E-05,0.87890625,0,0
-3.98978882003576E-05,1.8325639757677E-05,0.87890625,0,0
-3.78637450921815E-05,1.75979639607249E-05,0.87890625,0,0
-3.68113142030779E-05,1.63615550263785E-05,0.87890625,0,0
-3.66313288395759E-05,1.49709876495763E-05,0.87890625,0,0
-3.69618137483485E-05,1.45964868352166E-05,0.87890625,0,0
-2.97977039735997E-05,1.21099092211807E-05,0.87890625,0,0
-3.92407237086445E-05,1.69668564922176E-05,0.87890625,0,0
-2.5299736080342E-05,9.95404025161406E-06,0.87890625,0,0
-3.21884363074787E-05,1.00742099675699E-05,0.87890625,0,0
-2.47006337303901E-05,7.7385066106217E-06,0.87890625,0,0
-2.79417854471831E-05,8.66008485900238E-06,0.87890625,0,0
-2.41827128775185E-05,6.84829728925251E-06,0.87890625,0,0
-2.52387289947364E-05,9.38493212743197E-06,0.87890625,0,0
-2.16459411603864E-05,1.02205358416541E-05,0.87890625,0,0
-1.87137211469235E-05,9.99896747089224E-06,0.87890625,0,0
-1.76408339029877E-05,8.9779932750389E-06,0.87890625,0,0
-1.53939854499185E-05,7.67933761380846E-06,0.87890625,0,0
-1.49587576743215E-05,7.36544370738557E-06,0.87890625,0,0
-1.18497982839472E-05,6.10000051892712E-06,0.87890625,0,0
-1.21196444524685E-05,6.79925915392232E-06,0.87890625,0,0
-9.77050876826979E-06,7.1450572249887E-06,0.87890625,0,0
-1.11332838059752E-05,9.05197521205992E-06,0.87890625,0,0
-8.9985633167089E-06,9.54850838752463E-06,0.87890625,0,0
-9.37036475079367E-06,1.22514411486918E-05,0.87890625,0,0
-6.55943404126447E-06,1.4268481209001E-05,0.87890625,0,0
-6.91740933689289E-06,1.52279399117106E-05,0.87890625,0,0
-6.65886318529374E-06,1.34161964524537E-05,0.87890625,0,0
-8.95862467586994E-06,1.1660249583656E-05,0.87890625,0,0
-9.70914607023587E-06,1.06639272416942E-05,0.87890625,0,0
-1.22004375953111E-05,1.03162919913302E-05,0.87890625,0,0
-1.59633236762602E-05,7.47668536860147E-06,0.87890625,0,0
-1.91529161384096E-05,5.78823028263287E-06,0.87890625,0,0
-1.73500029632123E-05,7.51909556129249E-06,0.87890625,0,0
-2.42516325670294E-05,1.27136718219845E-05,0.87890625,0,0
-1.79057751665823E-05,1.06948955362896E-05,0.87890625,0,0
-2.21991485886974E-05,1.1218001418456E-05,0.87890625,0,0
-2.03131767193554E-05,1.06391080407775E-05,0.87890625,0,0
-2.57218707702123E-05,1.3144594959158E-05,0.87890625,0,0
-2.65820144704776E-05,1.506937405793E-05,0.87890625,0,0
-2.83410408883356E-05,1.60801355377771E-05,0.87890625,0,0
-2.75304901151685E-05,1.58930361067178E-05,0.87890625,0,0
-2.80654967355076E-05,1.5386622180813E-05,0.87890625,0,0
-3.03871001960943E-05,1.23821837405558E-05,0.87890625,0,0
-3.04715485981433E-05,7.76402248447994E-06,0.87890625,0,0
-2.92680069833295E-05,6.3238080656447E-06,0.87890625,0,0
-2.5296472813352E-05,7.38270273359376E-06,0.87890625,0,0
-2.36516498262063E-05,9.28892677620752E-06,0.87890625,0,0
-2.07100692932727E-05,9.29996713239234E-06,0.87890625,0,0
-2.00229442270938E-05,9.7162383099203E-06,0.87890625,0,0
-1.79414000740508E-05,1.01534815257764E-05,0.87890625,0,0
-1.80798251676606E-05,1.05327226265217E-05,0.87890625,0,0
-1.75481454789406E-05,9.47022999753244E-06,0.87890625,0,0
-1.82709827640792E-05,8.36634080769727E-06,0.87890625,0,0
-1.64265256898943E-05,7.368002570729E-06,0.87890625,0,0
-1.45296298796893E-05,7.97046868683537E-06,0.87890625,0,0
-1.27123903439497E-05,1.01895102488925E-05,0.87890625,0,0
-1.16213559522294E-05,1.24330808830564E-05,0.87890625,0,0
-9.97460392682115E-06,1.16889186756453E-05,0.87890625,0,0
-8.90979481482646E-06,9.84017242444679E-06,0.87890625,0,0
-6.84306360199116E-06,9.12931773200398E-06,0.87890625,0,0
-1.05623994386406E-05,1.50612277138862E-05,0.87890625,0,0
-9.37476852413965E-06,1.26914455904625E-05,0.87890625,0,0
-1.2114043784095E-05,1.32174718601163E-05,0.87890625,0,0
-1.22841893244185E-05,9.87777548289159E-06,0.87890625,0,0
-1.42732305903337E-05,1.00712113635382E-05,0.87890625,0,0
-1.47418404594646E-05,1.09422180685215E-05,0.87890625,0,0
-1.64342200150713E-05,1.28618285089033E-05,0.87890625,0,0
-1.77677848114399E-05,1.28548235807102E-05,0.87890625,0,0
-1.77228030224796E-05,1.39824323923676E-05,0.87890625,0,0
-1.62945252668578E-05,1.68479637068231E-05,0.87890625,0,0
-1.53832916112151E-05,1.88818521564826E-05,0.87890625,0,0
-1.71517640410457E-05,1.97064600797603E-05,0.87890625,0,0
-1.91467752301833E-05,1.81321174750337E-05,0.87890625,0,0
-2.02289538719924E-05,1.60261515702587E-05,0.87890625,0,0
-1.94714575627586E-05,1.2065511327819E-05,0.87890625,0,0
-2.09140071092406E-05,1.00634679256473E-05,0.87890625,0,0
-2.38425109273521E-05,8.32382193038939E-06,0.87890625,0,0
-2.72973848041147E-05,6.88193540554494E-06,0.87890625,0,0
-2.81843058473896E-05,5.77358696318697E-06,0.87890625,0,0
-2.84339366771746E-05,6.97846598995966E-06,0.87890625,0,0
-2.84625602944288E-05,7.49752052797703E-06,0.87890625,0,0
-2.85162350337487E-05,7.77222430770053E-06,0.87890625,0,0
-2.90838452201569E-05,9.64969694905449E-06,0.87890625,0,0
-3.04647346638376E-05,1.15967277452E-05,0.87890625,0,0
-3.22565538226627E-05,1.18560237751808E-05,0.87890625,0,0
-3.35370641550981E-05,1.13528576548561E-05,0.87890625,0,0
-2.62247740465682E-05,9.12611631065374E-06,0.87890625,0,0
-3.66119675163645E-05,1.38821624204866E-05,0.87890625,0,0
-2.8280439437367E-05,1.23602158055292E-05,0.87890625,0,0
-3.58488359779585E-05,1.69869199453387E-05,0.87890625,0,0
-2.73885871138191E-05,1.77126476046396E-05,0.87890625,0,0
-2.84642810584046E-05,1.9339497157489E-05,0.87890625,0,0
-2.41802117670886E-05,1.80966435436858E-05,0.87890625,0,0
-2.55316608672729E-05,1.82030016731005E-05,0.87890625,0,0
-2.3927697839099E-05,1.53475320985308E-05,0.87890625,0,0
-2.26221691264072E-05,1.36969474624493E-05,0.87890625,0,0
-2.22045728150988E-05,1.54156041389797E-05,0.87890625,0,0
-2.15711734199431E-05,1.73524822457694E-05,0.87890625,0,0
-2.32549482461764E-05,1.83030115294969E-05,0.87890625,0,0
-2.29977686103666E-05,1.63948843692197E-05,0.87890625,0,0
-2.61222958215512E-05,1.38347704705666E-05,0.87890625,0,0
-2.56211460509803E-05,1.0086362635775E-05,0.87890625,0,0
-2.70026357611641E-05,9.79050219029887E-06,0.87890625,0,0
-2.61389468505513E-05,1.06967099782196E-05,0.87890625,0,0
-2.85319110844284E-05,1.16256369437906E-05,0.87890625,0,0
-2.75112088274909E-05,8.92567823029822E-06,0.87890625,0,0
-2.91534561256412E-05,4.25209691456985E-06,0.87890625,0,0
-3.01882191706682E-05,-5.73738759612752E-07,0.87890625,0,0
-3.20584149449132E-05,-1.70570729096653E-06,0.87890625,0,0
-3.03832239296753E-05,1.02329329365602E-06,0.87890625,0,0
-2.76790324278409E-05,4.259743491275E-06,0.87890625,0,0
-2.3788086764398E-05,5.13732220497332E-06,0.87890625,0,0
-1.99395162781002E-05,7.75802436692175E-06,0.87890625,0,0
-1.48810777318431E-05,1.11817225842969E-05,0.87890625,0,0
-2.28940789384069E-05,1.75567111000419E-05,0.87890625,0,0
-2.06850872928044E-05,1.25741889860365E-05,0.87890625,0,0
-2.49008317041444E-05,1.33513740365743E-05,0.87890625,0,0
-2.15178642974934E-05,1.26419099615305E-05,0.87890625,0,0
-2.26378942898009E-05,1.36718736030161E-05,0.87890625,0,0
-2.0319454051787E-05,1.04028385976562E-05,0.87890625,0,0
-2.07686862268019E-05,8.53604797157459E-06,0.87890625,0,0
-2.02497849386418E-05,9.3247781478567E-06,0.87890625,0,0
-2.06649092433508E-05,1.40082720463397E-05,0.87890625,0,0
-1.93138002941851E-05,1.91323051694781E-05,0.87890625,0,0
-1.61005627887789E-05,1.99550049728714E-05,0.87890625,0,0
-1.50515325003653E-05,1.96260643861024E-05,0.87890625,0,0
-1.5110032109078E-05,1.85500884981593E-05,0.87890625,0,0
-1.78586724359775E-05,1.7749858670868E-05,0.87890625,0,0
-1.77551391971065E-05,1.50009827848407E-05,0.87890625,0,0
-1.84879809239646E-05,1.27735338537605E-05,0.87890625,0,0
-1.79923681571381E-05,1.00061652119621E-05,0.87890625,0,0
-1.87461700988933E-05,8.0876488937065E-06,0.87890625,0,0
-1.76763260242296E-05,5.80722462473204E-06,0.87890625,0,0
-1.88080084626563E-05,5.29703402207815E-06,0.87890625,0,0
-1.9801418602583E-05,6.36026788924937E-06,0.87890625,0,0
-2.07995817618212E-05,9.53176368057029E-06,0.87890625,0,0
-2.06400000024587E-05,1.22009487313335E-05,0.87890625,0,0
-2.14624014915898E-05,1.36245480462094E-05,0.87890625,0,0
-2.18218574445928E-05,1.27489956867066E-05,0.87890625,0,0
-2.1489555365406E-05,1.15456805360736E-05,0.87890625,0,0
-1.79759699676652E-05,8.16459305497119E-06,0.87890625,0,0
-2.65910221060039E-05,9.90685657598078E-06,0.87890625,0,0
-2.12539125641342E-05,5.60235821467359E-06,0.87890625,0,0
-2.58031996054342E-05,7.69985035731224E-06,0.87890625,0,0
-2.10875532502541E-05,3.73658599528426E-06,0.87890625,0,0
-2.09499175980454E-05,1.88754233931832E-06,0.87890625,0,0
-1.72908694366924E-05,1.22332926366653E-06,0.87890625,0,0
-1.7487922377768E-05,6.10204779150081E-06,0.87890625,0,0
-1.73977969097905E-05,9.53394010139164E-06,0.87890625,0,0
-1.8950593585032E-05,1.16316468847799E-05,0.87890625,0,0
-2.14239607885247E-05,1.36365970320185E-05,0.87890625,0,0
-2.34287508646958E-05,1.41644704854116E-05,0.87890625,0,0
-2.54821679845918E-05,1.41233394970186E-05,0.87890625,0,0
-2.43801296164747E-05,1.18876569104032E-05,0.87890625,0,0
-2.51420515269274E-05,1.09833272290416E-05,0.87890625,0,0
-2.57145293289796E-05,1.0449706678628E-05,0.87890625,0,0
-2.90677944576601E-05,1.05203871498816E-05,0.87890625,0,0
-2.98450413538376E-05,1.04318578451057E-05,0.87890625,0,0
-3.11033909383696E-05,1.2607172720891E-05,0.87890625,0,0
-3.01046893582679E-05,1.22288220154587E-05,0.87890625,0,0
-3.07580194203183E-05,1.06313045762363E-05,0.87890625,0,0
-3.10370705847163E-05,1.0684552762541E-05,0.87890625,0,0
-3.25711043842603E-05,1.50170999404509E-05,0.87890625,0,0
-3.30878756358288E-05,1.94657895917771E-05,0.87890625,0,0
-3.30147850036155E-05,2.09053232538281E-05,0.87890625,0,0
-3.1343715818366E-05,1.93861415027641E-05,0.87890625,0,0
-2.78138759313151E-05,1.74293672898784E-05,0.87890625,0,0
-1.94670519704232E-05,1.14209742605453E-05,0.87890625,0,0
-2.82026903732913E-05,1.35104119181051E-05,0.87890625,0,0
-2.42531568801496E-05,5.95903611610993E-06,0.87890625,0,0
-3.15351935569197E-05,9.31653084990103E-06,0.87890625,0,0
-2.76040482276585E-05,9.66176685324172E-06,0.87890625,0,0
-3.05202629533596E-05,1.38723853524425E-05,0.87890625,0,0
-2.91093692794675E-05,1.2478909411584E-05,0.87890625,0,0
-3.14517528750002E-05,1.01484774859273E-05,0.87890625,0,0
-3.05425237456802E-05,7.14997531758854E-06,0.87890625,0,0
-2.96563503070502E-05,8.5740166468895E-06,0.87890625,0,0
-2.9340188120841E-05,1.13861551653827E-05,0.87890625,0,0
-2.89955842163181E-05,1.2298795809329E-05,0.87890625,0,0
-3.01819909509504E-05,1.19485757750226E-05,0.87890625,0,0
-2.86108224827331E-05,9.26946268009488E-06,0.87890625,0,0
-2.88115570583614E-05,8.52055109135108E-06,0.87890625,0,0
-2.75826914730715E-05,8.60910040501039E-06,0.87890625,0,0
-2.93507473543286E-05,1.18306488730013E-05,0.87890625,0,0
-3.00478805002058E-05,1.37544493554742E-05,0.87890625,0,0
-3.34227079292759E-05,1.5046083717607E-05,0.87890625,0,0
-3.40817714459263E-05,1.21999282782781E-05,0.87890625,0,0
-3.60860285582021E-05,9.63482034421759E-06,0.87890625,0,0
-3.54999465344008E-05,8.09951961855404E-06,0.87890625,0,0
-3.23819658660796E-05,8.72245072969235E-06,0.87890625,0,0
-2.71720145974541E-05,9.66492007137276E-06,0.87890625,0,0
-2.44384318648372E-05,1.01330451798276E-05,0.87890625,0,0
-2.27861364692217E-05,8.89807415660471E-06,0.87890625,0,0
-2.1179104805924E-05,7.97243865235941E-06,0.87890625,0,0
-1.54032240970992E-05,6.69713381284964E-06,0.87890625,0,0
-2.18499080801848E-05,9.58672080741962E-06,0.87890625,0,0
-1.76944595295936E-05,6.81248047840199E-06,0.87890625,0,0
-2.22394264710601E-05,8.418320248893E-06,0.87890625,0,0
-1.82849398697726E-05,8.98509370017564E-06,0.87890625,0,0
-2.01911771000596E-05,1.05701365100686E-05,0.87890625,0,0
-1.80699316842947E-05,1.0476513125468E-05,0.87890625,0,0
-1.82644853339298E-05,1.16386281661107E-05,0.87890625,0,0
-1.7868685972644E-05,1.04933751572389E-05,0.87890625,0,0
-1.95588654605672E-05,9.77909076027572E-06,0.87890625,0,0
-2.27892323891865E-05,9.46068757912144E-06,0.87890625,0,0
-2.57071878877468E-05,8.53794335853308E-06,0.87890625,0,0
-2.79964715446113E-05,8.4323801274877E-06,0.87890625,0,0
-2.64706868620124E-05,8.81045889400411E-06,0.87890625,0,0
-2.5945897505153E-05,9.41679627430858E-06,0.87890625,0,0
-2.46796007559169E-05,8.26015912025468E-06,0.87890625,0,0
-2.67119212367106E-05,8.08586264611222E-06,0.87890625,0,0
-2.68402291112579E-05,8.31027591630118E-06,0.87890625,0,0
-2.73286223091418E-05,1.03128641057992E-05,0.87890625,0,0
-2.67746399913449E-05,1.09351885839715E-05,0.87890625,0,0
-2.88777937385021E-05,1.04776645457605E-05,0.87890625,0,0
-2.99029306916054E-05,9.4543065642938E-06,0.87890625,0,0
-3.00265455734916E-05,1.06409461295698E-05,0.87890625,0,0
-2.82018318102928E-05,1.18255829875125E-05,0.87890625,0,0
-2.68902931566117E-05,1.16925339170848E-05,0.87890625,0,0
-2.68254698312376E-05,1.17309282359201E-05,0.87890625,0,0
-2.65510934696067E-05,1.08630429167533E-05,0.87890625,0,0
-1.97406025108648E-05,4.75974320579553E-06,0.87890625,0,0
-2.74039903160883E-05,3.09805295728438E-06,0.87890625,0,0
-2.08085475605913E-05,-1.70912676367152E-06,0.87890625,0,0
-2.70469681709073E-05,1.67738983236632E-06,0.87890625,0,0
-2.36946852965048E-05,4.18832951254444E-06,0.87890625,0,0
-2.69882530119503E-05,7.42942756914999E-06,0.87890625,0,0
-2.44993534579407E-05,7.0775472522655E-06,0.87890625,0,0
-2.47215193667216E-05,8.80515744938748E-06,0.87890625,0,0
-2.30273108172696E-05,1.06576026155381E-05,0.87890625,0,0
-2.34164981520735E-05,1.30941316456301E-05,0.87890625,0,0
-2.43497470364673E-05,1.5148616512306E-05,0.87890625,0,0
-2.241990659968E-05,1.6654748833389E-05,0.87890625,0,0
-1.96877463167766E-05,1.85469380085124E-05,0.87890625,0,0
-1.51674876178731E-05,1.87633413588628E-05,0.87890625,0,0
-1.38544928631745E-05,1.76191751961596E-05,0.87890625,0,0
-1.0920081876975E-05,1.46007296280004E-05,0.87890625,0,0
-1.0516875590838E-05,1.32911009131931E-05,0.87890625,0,0
-8.71866450324887E-06,1.39196145028109E-05,0.87890625,0,0
-8.43372345116222E-06,1.63184413395356E-05,0.87890625,0,0
-5.25844097865047E-06,1.5712790627731E-05,0.87890625,0,0
-4.21283994000987E-06,1.41535947477678E-05,0.87890625,0,0
-2.46533068093413E-06,1.36076787384809E-05,0.87890625,0,0
-2.41421139435261E-06,1.5911427908577E-05,0.87890625,0,0
-2.69228621618822E-06,1.74273154698312E-05,0.87890625,0,0
-4.21695358454599E-06,1.45707872434286E-05,0.87890625,0,0
-5.43523810847546E-06,9.94252968666842E-06,0.87890625,0,0
-7.36323363526026E-06,8.80583047546679E-06,0.87890625,0,0
-7.94768311607186E-06,8.03646707936423E-06,0.87890625,0,0
-1.24867883641855E-05,1.16755809358438E-05,0.87890625,0,0
-1.11475719677401E-05,8.58303337736288E-06,0.87890625,0,0
-1.35246109493892E-05,9.88449210126419E-06,0.87890625,0,0
-1.31210845211172E-05,6.36455388303148E-06,0.87890625,0,0
-1.59310693561565E-05,6.195948117238E-06,0.87890625,0,0
-1.76890443981392E-05,7.44265935281874E-06,0.87890625,0,0
-2.07262746698689E-05,8.80085372045869E-06,0.87890625,0,0
-2.39706550928531E-05,7.09207597537898E-06,0.87890625,0,0
-2.67183204414323E-05,5.30037368662306E-06,0.87890625,0,0
-2.94788715109462E-05,4.60898945675581E-06,0.87890625,0,0
-3.10938448819797E-05,3.98452903027646E-06,0.87890625,0,0
-3.21816187351942E-05,4.55278222943889E-06,0.87890625,0,0
-3.29322283505462E-05,6.55501798974001E-06,0.87890625,0,0
-3.51529561157804E-05,1.03907541415538E-05,0.87890625,0,0
-3.64481929864269E-05,1.17395475172088E-05,0.87890625,0,0
-3.68282489944249E-05,1.09718466774211E-05,0.87890625,0,0
-3.51477428921498E-05,7.60958164391923E-06,0.87890625,0,0
-3.40869737556204E-05,5.29935414306237E-06,0.87890625,0,0
-3.30423936247826E-05,5.2359623623488E-06,0.87890625,0,0
-3.2224281312665E-05,9.12265295482939E-06,0.87890625,0,0
-3.06153924611863E-05,1.35941518237814E-05,0.87890625,0,0
-3.00959400192369E-05,1.72095824382268E-05,0.87890625,0,0
-3.01147665595636E-05,1.83625998033676E-05,0.87890625,0,0
-3.07982518279459E-05,1.70884159160778E-05,0.87890625,0,0
-3.10920950141735E-05,1.54707213368965E-05,0.87890625,0,0
-3.05592584481929E-05,1.55505640577758E-05,0.87890625,0,0
-2.43285685428418E-05,1.3608596418635E-05,0.87890625,0,0
-3.36284429067746E-05,2.1725136321038E-05,0.87890625,0,0
-2.43276099354262E-05,1.98228317458415E-05,0.87890625,0,0
-3.22823252645321E-05,2.52144363912521E-05,0.87890625,0,0
-2.89496365439845E-05,2.43874474108452E-05,0.87890625,0,0
-3.34867727360688E-05,2.62047251453623E-05,0.87890625,0,0
-3.11763069476001E-05,2.48253272729926E-05,0.87890625,0,0
-3.17605263262521E-05,2.56458151852712E-05,0.87890625,0,0
-3.01742220472079E-05,2.42623573285528E-05,0.87890625,0,0
-2.98777049465571E-05,2.29237102757907E-05,0.87890625,0,0
-2.93700741167413E-05,2.2558837372344E-05,0.87890625,0,0
-2.7993175535812E-05,2.15231102629332E-05,0.87890625,0,0
-2.83273257082328E-05,2.0281275283196E-05,0.87890625,0,0
-2.54658534686314E-05,1.60565778060118E-05,0.87890625,0,0
-2.58650889009004E-05,1.14109643618576E-05,0.87890625,0,0
-2.55137420026585E-05,5.91574644204229E-06,0.87890625,0,0
-2.69853462668834E-05,4.02448222303065E-06,0.87890625,0,0
-2.30435907724313E-05,3.63303865924536E-06,0.87890625,0,0
-2.10322523344075E-05,5.84502140554832E-06,0.87890625,0,0
-1.86330398719292E-05,7.8736293289694E-06,0.87890625,0,0
-1.92318620975129E-05,1.18082116387086E-05,0.87890625,0,0
-1.78796108230017E-05,1.27955663629109E-05,0.87890625,0,0
-1.77248639374739E-05,9.60349734668853E-06,0.87890625,0,0
-1.68949827639153E-05,3.28060764331894E-06,0.87890625,0,0
-1.57739232236054E-05,-1.5358451719294E-06,0.87890625,0,0
-1.37130518851336E-05,-2.90250318357721E-06,0.87890625,0,0
-1.41916898428462E-05,-3.28339524457988E-06,0.87890625,0,0
-1.51619269672665E-05,-4.17249839301803E-06,0.87890625,0,0
-2.41895777435275E-05,-5.25620043845265E-06,0.87890625,0,0
-2.2077867470216E-05,-1.8648025843504E-06,0.87890625,0,0
-2.61656441580271E-05,-1.59737885496725E-06,0.87890625,0,0
-2.29558736464242E-05,1.46184379445913E-06,0.87890625,0,0
-2.37657350226073E-05,4.01860688725719E-06,0.87890625,0,0
-2.25414332817309E-05,8.48443232825957E-06,0.87890625,0,0
-2.44892471528146E-05,1.08555832412094E-05,0.87890625,0,0
-2.58692671195604E-05,1.00297702374519E-05,0.87890625,0,0
-2.78724401141517E-05,7.93699291534722E-06,0.87890625,0,0
-2.88090159301646E-05,7.89612295193365E-06,0.87890625,0,0
-2.72788020083681E-05,1.05239359982079E-05,0.87890625,0,0
-2.72163943009218E-05,1.09475668068626E-05,0.87890625,0,0
-2.81346146948636E-05,9.50410685618408E-06,0.87890625,0,0
-3.0786595743848E-05,8.40075608721236E-06,0.87890625,0,0
-3.05526373267639E-05,9.32680359255755E-06,0.87890625,0,0
-3.16513469442725E-05,1.09165102912812E-05,0.87890625,0,0
-3.22631094604731E-05,1.39918738568667E-05,0.87890625,0,0
-3.38624959113076E-05,1.55210382217774E-05,0.87890625,0,0
-3.38697645929642E-05,1.39345884235809E-05,0.87890625,0,0
-3.51388844137546E-05,1.02282601801562E-05,0.87890625,0,0
-3.43441388395149E-05,8.27781059342669E-06,0.87890625,0,0
-3.40384649462067E-05,9.56561962084379E-06,0.87890625,0,0
-3.48806715919636E-05,1.1240056664974E-05,0.87890625,0,0
-3.75916024495382E-05,1.13032119770651E-05,0.87890625,0,0
-3.86597639590036E-05,1.18297330118367E-05,0.87890625,0,0
-3.7788679037476E-05,1.42248200063477E-05,0.87890625,0,0
-2.97794013022212E-05,1.28884566947818E-05,0.87890625,0,0
-4.08380728913471E-05,1.69816867128247E-05,0.87890625,0,0
-2.82031123788329E-05,1.04777627711883E-05,0.87890625,0,0
-3.51919406966772E-05,1.38785653689411E-05,0.87890625,0,0
-2.89230392809259E-05,1.00347024272196E-05,0.87890625,0,0
-3.28707646986004E-05,9.61734349402832E-06,0.87890625,0,0
-2.90957141260151E-05,8.50000651553273E-06,0.87890625,0,0
-3.06221882055979E-05,1.04101727629313E-05,0.87890625,0,0
-2.90231528197182E-05,1.06368343040231E-05,0.87890625,0,0
-2.78519983112346E-05,1.2219632480992E-05,0.87890625,0,0
-2.57650171988644E-05,1.22056480904575E-05,0.87890625,0,0
-2.29312718147412E-05,9.51199581322726E-06,0.87890625,0,0
-2.47671705437824E-05,8.29025429993635E-06,0.87890625,0,0
-2.52572772296844E-05,7.73716419644188E-06,0.87890625,0,0
-2.7450199922896E-05,9.10878225113265E-06,0.87890625,0,0
-2.38754400925245E-05,8.38964933791431E-06,0.87890625,0,0
-2.213335937995E-05,8.39452695799991E-06,0.87890625,0,0
-1.72661566466559E-05,7.67506026022602E-06,0.87890625,0,0
-1.57221711560851E-05,9.68617132457439E-06,0.87890625,0,0
-1.21896500786534E-05,1.00237693914096E-05,0.87890625,0,0
-1.254203471035E-05,9.81184712145478E-06,0.87890625,0,0
-1.14740469143726E-05,8.79563503985992E-06,0.87890625,0,0
-1.26254881251953E-05,8.89856073627016E-06,0.87890625,0,0
-1.22818637464661E-05,7.60843477110029E-06,0.87890625,0,0
-1.36887547341757E-05,8.13005044619786E-06,0.87890625,0,0
-1.57760696311016E-05,1.11377175926464E-05,0.87890625,0,0
-1.64700049936073E-05,1.39922931339242E-05,0.87890625,0,0
-1.28506990222377E-05,1.1037015610782E-05,0.87890625,0,0
-1.72165728145046E-05,1.4613835446653E-05,0.87890625,0,0
-1.06822581074084E-05,9.16269618755905E-06,0.87890625,0,0
-1.12631723823142E-05,1.12917859951267E-05,0.87890625,0,0
-6.14217469774303E-06,9.63529510045191E-06,0.87890625,0,0
-7.15269061402068E-06,1.45890326166409E-05,0.87890625,0,0
-6.39118979961495E-06,1.62982123583788E-05,0.87890625,0,0
-7.28033137420425E-06,1.6158182916115E-05,0.87890625,0,0
-7.49435730540426E-06,1.37014358188026E-05,0.87890625,0,0
-8.72748660185607E-06,1.25386131912819E-05,0.87890625,0,0
-1.06839888758259E-05,1.34708325276733E-05,0.87890625,0,0
-1.13653932203306E-05,1.36370235850336E-05,0.87890625,0,0
-1.44092909977189E-05,1.43973929880303E-05,0.87890625,0,0
-1.7135795133072E-05,1.48899325722596E-05,0.87890625,0,0
-1.94559561350616E-05,1.57599697558908E-05,0.87890625,0,0
-1.88181929843267E-05,1.42816761581344E-05,0.87890625,0,0
-1.98255092982436E-05,1.40306519824662E-05,0.87890625,0,0
-2.02279225050006E-05,1.2287820027268E-05,0.87890625,0,0
-2.1709747670684E-05,1.12021361928782E-05,0.87890625,0,0
-2.22317794396076E-05,1.06395746115595E-05,0.87890625,0,0
-2.29062352445908E-05,1.26242930491571E-05,0.87890625,0,0
-2.06116656045197E-05,1.39357780426508E-05,0.87890625,0,0
-1.77931506186724E-05,1.48873559737694E-05,0.87890625,0,0
-1.5696959962952E-05,1.45708181662485E-05,0.87890625,0,0
-1.51041913341032E-05,1.50008445416461E-05,0.87890625,0,0
-1.58837410708657E-05,1.55624329636339E-05,0.87890625,0,0
-1.77532037923811E-05,1.39923477036064E-05,0.87890625,0,0
-1.63431432156358E-05,8.43741872813553E-06,0.87890625,0,0
-2.43992526520742E-05,1.00307179309311E-05,0.87890625,0,0
-1.86637043952942E-05,5.7685460888024E-06,0.87890625,0,0
-2.12682025448885E-05,9.48131491895765E-06,0.87890625,0,0
-1.87865498446627E-05,9.30011810851283E-06,0.87890625,0,0
-2.1093628674862E-05,1.21429675346008E-05,0.87890625,0,0
-1.85070857696701E-05,1.2002074981865E-05,0.87890625,0,0
-2.05805354198674E-05,1.24158495964366E-05,0.87890625,0,0
-2.28677072300343E-05,1.23608751891879E-05,0.87890625,0,0
-2.58380841842154E-05,1.4534778529196E-05,0.87890625,0,0
-2.72431097982917E-05,1.65315450431081E-05,0.87890625,0,0
-2.6139923647861E-05,1.51551485032542E-05,0.87890625,0,0
-2.55342911259504E-05,1.22589708553278E-05,0.87890625,0,0
-2.33581231441349E-05,1.0298997949576E-05,0.87890625,0,0
-2.37728036154294E-05,1.14740923891077E-05,0.87890625,0,0
-2.50680132012349E-05,1.16682149382541E-05,0.87890625,0,0
-3.03094457194675E-05,1.30484650071594E-05,0.87890625,0,0
-3.3028449252015E-05,1.44812383950921E-05,0.87890625,0,0
-3.46025517501403E-05,1.67948837770382E-05,0.87890625,0,0
-3.29445610987023E-05,1.53641940414673E-05,0.87890625,0,0
-3.23827807733323E-05,1.25436627058662E-05,0.87890625,0,0
-3.0600800528191E-05,1.14159383883816E-05,0.87890625,0,0
-2.90958469122415E-05,1.22273750093882E-05,0.87890625,0,0
-2.7459638658911E-05,1.1053218258894E-05,0.87890625,0,0
-2.7234975277679E-05,1.07488467619987E-05,0.87890625,0,0
-2.71245662588626E-05,1.20655649880064E-05,0.87890625,0,0
-2.63191959675169E-05,1.32749228214379E-05,0.87890625,0,0
-2.02811424969696E-05,1.02161284303293E-05,0.87890625,0,0
-2.84441994153894E-05,1.21403791126795E-05,0.87890625,0,0
-2.24107134272344E-05,6.11456835031277E-06,0.87890625,0,0
-2.82964119833196E-05,9.53006110648857E-06,0.87890625,0,0
-2.23419556277804E-05,8.09626362752169E-06,0.87890625,0,0
-2.496403430996E-05,8.56321457831655E-06,0.87890625,0,0
-2.48958785959985E-05,7.06116588844452E-06,0.87890625,0,0
-2.89155141217634E-05,8.97740756045096E-06,0.87890625,0,0
-2.86877057078527E-05,9.16304725251393E-06,0.87890625,0,0
-2.81062220892636E-05,8.53718847793061E-06,0.87890625,0,0
-2.96433063340373E-05,7.64999367675046E-06,0.87890625,0,0
-3.07991685986053E-05,7.15775013304665E-06,0.87890625,0,0
-3.25653782056179E-05,9.28665212995838E-06,0.87890625,0,0
-3.16439218295272E-05,1.17593353934353E-05,0.87890625,0,0
-3.3034615626093E-05,1.39800340548391E-05,0.87890625,0,0
-3.21094194077887E-05,1.13178612082265E-05,0.87890625,0,0
-3.33811876771506E-05,8.08039385447046E-06,0.87890625,0,0
-3.23898166243453E-05,4.30728505307343E-06,0.87890625,0,0
-3.37387791660149E-05,3.40346150551341E-06,0.87890625,0,0
-3.24531429214403E-05,3.71671762877668E-06,0.87890625,0,0
-3.07118280034047E-05,5.42594398211804E-06,0.87890625,0,0
-2.85333080682904E-05,5.14226803716156E-06,0.87890625,0,0
-3.02328280668007E-05,4.46145850219182E-06,0.87890625,0,0
-3.08852904709056E-05,4.17951559938956E-06,0.87890625,0,0
-3.06170804833528E-05,5.74574687561835E-06,0.87890625,0,0
-2.84733487205813E-05,6.84886617818847E-06,0.87890625,0,0
-2.54048318311106E-05,7.7736449384247E-06,0.87890625,0,0
-1.89362363016699E-05,5.73409897697275E-06,0.87890625,0,0
-2.75460406555794E-05,8.3771274148603E-06,0.87890625,0,0
-2.13371604331769E-05,7.59976182962419E-06,0.87890625,0,0
-2.53428861469729E-05,1.18183525046334E-05,0.87890625,0,0
-2.2273092326941E-05,1.377959142701E-05,0.87890625,0,0
-2.76531263807556E-05,1.7165977624245E-05,0.87890625,0,0
-2.72736215265468E-05,1.73370681295637E-05,0.87890625,0,0
-2.74639551207656E-05,1.59588744281791E-05,0.87890625,0,0
-2.53480957326246E-05,1.24324587886804E-05,0.87890625,0,0
-2.53107609751169E-05,7.8122739068931E-06,0.87890625,0,0
-2.66220322373556E-05,4.61741637991508E-06,0.87890625,0,0
-2.63648089458002E-05,2.82127098216733E-06,0.87890625,0,0
-2.58556356129702E-05,1.88700607850478E-06,0.87890625,0,0
-2.33703922276618E-05,-2.8645303018493E-07,0.87890625,0,0
-2.34780382015742E-05,-2.6010675355792E-06,0.87890625,0,0
-2.20369129237952E-05,-5.19583772984333E-06,0.87890625,0,0
-2.27108266699361E-05,-4.98176405017148E-06,0.87890625,0,0
-2.13368784898194E-05,-3.03440879179107E-06,0.87890625,0,0
-2.19486664718715E-05,-1.80022013296366E-07,0.87890625,0,0
-2.21125792450039E-05,2.66304573415255E-06,0.87890625,0,0
-2.46477429755032E-05,5.02826242154697E-06,0.87890625,0,0
-2.4777427825029E-05,5.61545493837912E-06,0.87890625,0,0
-2.50890025199624E-05,6.51451910016476E-06,0.87890625,0,0
-2.55487902904861E-05,7.28896065993467E-06,0.87890625,0,0
-2.83852787106298E-05,6.43427256363793E-06,0.87890625,0,0
-3.04143122775713E-05,5.74403020436876E-06,0.87890625,0,0
-3.06179281324148E-05,6.1109949456295E-06,0.87890625,0,0
-2.46279196289834E-05,5.86975284022628E-06,0.87890625,0,0
-3.39884863933548E-05,1.17261051855166E-05,0.87890625,0,0
-2.50285720539978E-05,1.29623122120393E-05,0.87890625,0,0
-3.2582651328994E-05,1.47161008499097E-05,0.87890625,0,0
-2.84588313661516E-05,1.54414628923405E-05,0.87890625,0,0
-3.28143505612388E-05,1.79907874553464E-05,0.87890625,0,0
-3.03812958009075E-05,2.03341023734538E-05,0.87890625,0,0
-3.17474368785042E-05,2.37572257901775E-05,0.87890625,0,0
-3.13127711706329E-05,2.41014640778303E-05,0.87890625,0,0
-3.28614260070026E-05,2.19332741835387E-05,0.87890625,0,0
-3.47639397659805E-05,1.93535870494088E-05,0.87890625,0,0
-3.38059617206454E-05,1.76232770172646E-05,0.87890625,0,0
-3.35850891133305E-05,1.81486393557861E-05,0.87890625,0,0
-3.21318475471344E-05,1.86441793630365E-05,0.87890625,0,0
-3.42044950230047E-05,1.75330442289123E-05,0.87890625,0,0
-3.38298232236411E-05,1.54789941007039E-05,0.87890625,0,0
-3.59088116965722E-05,1.56940768647473E-05,0.87890625,0,0
-3.54927469743416E-05,1.69645754795056E-05,0.87890625,0,0
-3.81783247576095E-05,1.86954894161318E-05,0.87890625,0,0
-3.77752548956778E-05,1.98276757146232E-05,0.87890625,0,0
-3.79679113393649E-05,2.09419540624367E-05,0.87890625,0,0
-3.60384328814689E-05,2.01950242626481E-05,0.87890625,0,0
-3.62295504601207E-05,1.66519785125274E-05,0.87890625,0,0
-3.67922111763619E-05,1.05396211438347E-05,0.87890625,0,0
-3.78003278456163E-05,6.04860815656139E-06,0.87890625,0,0
-3.76391326426528E-05,5.6302437769773E-06,0.87890625,0,0
-3.78117074433248E-05,8.4381763372221E-06,0.87890625,0,0
-3.00923038594192E-05,9.10777816898189E-06,0.87890625,0,0
-4.09206477343105E-05,1.32419481815305E-05,0.87890625,0,0
-2.82841483567609E-05,9.23860079637961E-06,0.87890625,0,0
-3.45575463143177E-05,1.04949494925677E-05,0.87890625,0,0
-2.65922390099149E-05,9.24812047742307E-06,0.87890625,0,0
-3.03564374917187E-05,1.11777490019449E-05,0.87890625,0,0
-2.71454682660988E-05,1.02723761301604E-05,0.87890625,0,0
-2.88415649265517E-05,1.21878683785326E-05,0.87890625,0,0
-2.67176692432258E-05,1.35745622173999E-05,0.87890625,0,0
-2.45333267230308E-05,1.34787824208615E-05,0.87890625,0,0
-2.27281361731002E-05,1.18337884487119E-05,0.87890625,0,0
-1.92472816706868E-05,7.23979246686213E-06,0.87890625,0,0
-1.78631034941645E-05,3.12511792799341E-06,0.87890625,0,0
-1.40590291266562E-05,5.81919664455199E-07,0.87890625,0,0
-1.3474209481501E-05,1.32196635149739E-06,0.87890625,0,0
-9.7283955255989E-06,3.69670374311681E-06,0.87890625,0,0
-1.01263822216424E-05,1.00479301181622E-05,0.87890625,0,0
-7.98912060417933E-06,1.63431559485616E-05,0.87890625,0,0
-9.53622293309309E-06,2.02460014406824E-05,0.87890625,0,0
-8.76629474078072E-06,1.91684448509477E-05,0.87890625,0,0
-1.04810687844292E-05,1.70747134689009E-05,0.87890625,0,0
-1.006638740364E-05,1.47586943057831E-05,0.87890625,0,0
-1.11839462988428E-05,1.3525108442991E-05,0.87890625,0,0
-1.07647547338274E-05,1.45832891575992E-05,0.87890625,0,0
-1.11654835563968E-05,1.71999272424728E-05,0.87890625,0,0
-9.7193697001785E-06,1.75652494363021E-05,0.87890625,0,0
-5.95962637817138E-06,1.77955171238864E-05,0.87890625,0,0
-2.6702784907684E-06,1.60557574417908E-05,0.87890625,0,0
-3.98892007069662E-06,2.27110431296751E-05,0.87890625,0,0
-3.83407950721448E-06,1.58148886839626E-05,0.87890625,0,0
-5.39997017767746E-06,1.98070920305327E-05,0.87890625,0,0
-6.69204200676177E-06,1.78261871042196E-05,0.87890625,0,0
-8.03705734142568E-06,1.92162606253987E-05,0.87890625,0,0
-8.85504596226383E-06,1.39813018904533E-05,0.87890625,0,0
-1.02997000794858E-05,1.12762054413906E-05,0.87890625,0,0
-1.16682622319786E-05,1.18073921839823E-05,0.87890625,0,0
-1.26920058391988E-05,1.66251302289311E-05,0.87890625,0,0
-1.43813458635123E-05,2.13258499570657E-05,0.87890625,0,0
-1.61280204338254E-05,2.17239248740952E-05,0.87890625,0,0
-1.81763625732856E-05,2.11217065952951E-05,0.87890625,0,0
-1.98744110093685E-05,1.94064105016878E-05,0.87890625,0,0
-2.07929388125194E-05,1.91226044989889E-05,0.87890625,0,0
-2.09711834031623E-05,1.74163033079822E-05,0.87890625,0,0
-2.21511800191365E-05,1.81592513399664E-05,0.87890625,0,0
-2.31906888075173E-05,1.65851597557776E-05,0.87890625,0,0
-2.34015351452399E-05,1.46114407471032E-05,0.87890625,0,0
-2.31648718909128E-05,1.15570692287292E-05,0.87890625,0,0
-2.3669683287153E-05,1.18992829811759E-05,0.87890625,0,0
-2.38158263528021E-05,1.3057877367828E-05,0.87890625,0,0
-2.26801912504015E-05,1.41527070809389E-05,0.87890625,0,0
-2.12764207390137E-05,1.20853437692858E-05,0.87890625,0,0
-2.12224476854317E-05,9.86183476925362E-06,0.87890625,0,0
-2.30776058742777E-05,7.44211047276622E-06,0.87890625,0,0
-2.50150987994857E-05,6.40838015897316E-06,0.87890625,0,0
-2.07860339287436E-05,4.92429217047174E-06,0.87890625,0,0
-2.83363897324307E-05,5.62898276257329E-06,0.87890625,0,0
-1.85906028491445E-05,4.30842283094535E-06,0.87890625,0,0
-2.25183393922634E-05,9.81210723693948E-06,0.87890625,0,0
-1.87423484021565E-05,1.03409147413913E-05,0.87890625,0,0
-2.29957731789909E-05,8.99883434613002E-06,0.87890625,0,0
-2.22977323574014E-05,8.55178041092586E-06,0.87890625,0,0
-2.59998942055972E-05,1.06824663816951E-05,0.87890625,0,0
-2.67597679339815E-05,1.1621164958342E-05,0.87890625,0,0
-2.72616198344622E-05,1.1632909263426E-05,0.87890625,0,0
-2.6262938263244E-05,1.06801935544354E-05,0.87890625,0,0
-2.43769081862411E-05,8.4886523836758E-06,0.87890625,0,0
-2.49043641815661E-05,7.01813951309305E-06,0.87890625,0,0
-2.40167682932224E-05,6.42072564005503E-06,0.87890625,0,0
-2.53340222116094E-05,7.2089969762601E-06,0.87890625,0,0
-2.45385599555448E-05,8.20132390799699E-06,0.87890625,0,0
-2.63523252215236E-05,8.51272034196882E-06,0.87890625,0,0
-2.54687165579526E-05,6.42233408143511E-06,0.87890625,0,0
-2.6791431082529E-05,5.99975101067685E-06,0.87890625,0,0
-2.68282474280568E-05,6.50200081508956E-06,0.87890625,0,0
-2.88685841951519E-05,6.81866231388994E-06,0.87890625,0,0
-2.83393237623386E-05,5.69487747270614E-06,0.87890625,0,0
-2.64126920228591E-05,3.29393606079975E-06,0.87890625,0,0
-2.26268748519942E-05,8.59015131027263E-07,0.87890625,0,0
-2.16231383092236E-05,4.76683510441944E-07,0.87890625,0,0
-2.2333515516948E-05,3.29075021454628E-07,0.87890625,0,0
-2.25736603169935E-05,-4.14414103033778E-07,0.87890625,0,0
-1.71861029230058E-05,-2.30281307267433E-06,0.87890625,0,0
-2.26403390115593E-05,-3.82507732865633E-06,0.87890625,0,0
-1.48704739331151E-05,-3.26377016790502E-06,0.87890625,0,0
-1.89000475074863E-05,-1.65978042332426E-06,0.87890625,0,0
-1.45670373967732E-05,2.70411374003743E-06,0.87890625,0,0
-1.48547769640572E-05,5.14997691425378E-06,0.87890625,0,0
-1.18511652544839E-05,7.2816364991013E-06,0.87890625,0,0
-1.29722984638647E-05,8.76632475410588E-06,0.87890625,0,0
-1.14378954094718E-05,8.47127557790373E-06,0.87890625,0,0
-1.05420967884129E-05,7.83655832492514E-06,0.87890625,0,0
-1.11373810796067E-05,8.5960737123969E-06,0.87890625,0,0
-1.26553386508022E-05,9.92055174720008E-06,0.87890625,0,0
-1.63123113452457E-05,1.06905390566681E-05,0.87890625,0,0
-1.74931628862396E-05,1.01792302302783E-05,0.87890625,0,0
-1.85711833182722E-05,8.70156873133965E-06,0.87890625,0,0
-1.73993594216881E-05,8.40629127196735E-06,0.87890625,0,0
-1.97822100744816E-05,8.09790344646899E-06,0.87890625,0,0
-2.0297691662563E-05,7.05635329723009E-06,0.87890625,0,0
-2.15047748497454E-05,5.99485201746575E-06,0.87890625,0,0
-2.16311600524932E-05,6.72276928526117E-06,0.87890625,0,0
-2.42615569732152E-05,7.59425802243641E-06,0.87890625,0,0
-2.61886016232893E-05,6.71323914502864E-06,0.87890625,0,0
-2.95920599455712E-05,4.26890846938477E-06,0.87890625,0,0
-3.09158604068216E-05,3.62615855920012E-06,0.87890625,0,0
-3.12483607558534E-05,4.82686346003902E-06,0.87890625,0,0
-3.06969122902956E-05,5.77791479372536E-06,0.87890625,0,0
-2.96486814477248E-05,5.21228230354609E-06,0.87890625,0,0
-2.32800502999453E-05,5.85119232709985E-06,0.87890625,0,0
-3.26975678035524E-05,1.18735124488012E-05,0.87890625,0,0
-2.41410361923045E-05,1.18744983410579E-05,0.87890625,0,0
-2.93390330625698E-05,1.15326956802164E-05,0.87890625,0,0
-2.30734840442892E-05,1.01131727205939E-05,0.87890625,0,0
-2.57909414358437E-05,1.01884988907841E-05,0.87890625,0,0
-2.44027905864641E-05,1.12532588900649E-05,0.87890625,0,0
-2.71592798526399E-05,1.38221093948232E-05,0.87890625,0,0
-2.69440752163064E-05,1.46939300975646E-05,0.87890625,0,0
-2.66544211626751E-05,1.54980534716742E-05,0.87890625,0,0
-2.60934521065792E-05,1.73852949956199E-05,0.87890625,0,0
-2.50643097388092E-05,1.98296802409459E-05,0.87890625,0,0
-2.69927168119466E-05,2.19107805605745E-05,0.87890625,0,0
-2.7168593078386E-05,2.28522785619134E-05,0.87890625,0,0
-2.85408041236224E-05,2.32907623285428E-05,0.87890625,0,0
-2.59144871961325E-05,2.27258533413988E-05,0.87890625,0,0
-2.6563440769678E-05,2.19864668906666E-05,0.87890625,0,0
-2.71359767793911E-05,2.01294242287986E-05,0.87890625,0,0
-3.05750836560037E-05,1.92711941053858E-05,0.87890625,0,0
-3.09877505060285E-05,1.98861707758624E-05,0.87890625,0,0
-3.30106668116059E-05,2.10199050343363E-05,0.87890625,0,0
-3.33058560499921E-05,1.914501626743E-05,0.87890625,0,0
-3.38732716045342E-05,1.46814873005496E-05,0.87890625,0,0
-3.32663548761047E-05,1.18608859338565E-05,0.87890625,0,0
-3.41629238391761E-05,1.195500317408E-05,0.87890625,0,0
-3.44636609952431E-05,1.20078257168643E-05,0.87890625,0,0
-3.38701029249933E-05,1.34722859002068E-05,0.87890625,0,0
-2.68297226284631E-05,1.18243542601704E-05,0.87890625,0,0
-3.85085077141412E-05,1.52773245645221E-05,0.87890625,0,0
-2.9256420020829E-05,7.99192002887139E-06,0.87890625,0,0
-3.43410902132746E-05,9.44684143178165E-06,0.87890625,0,0
-2.7075206162408E-05,7.90932426752988E-06,0.87890625,0,0
-3.06411602650769E-05,1.08359508885769E-05,0.87890625,0,0
-2.75701768259751E-05,1.07796295196749E-05,0.87890625,0,0
-2.78813058685046E-05,1.35570880956948E-05,0.87890625,0,0
-2.48863379965769E-05,1.4514327631332E-05,0.87890625,0,0
-2.38164739130298E-05,1.5387460734928E-05,0.87890625,0,0
-2.49177137447987E-05,1.50552041304763E-05,0.87890625,0,0
-2.52097561315168E-05,1.24740236060461E-05,0.87890625,0,0
-2.74055037152721E-05,1.09663787952741E-05,0.87890625,0,0
-2.5031255063368E-05,8.5088140622247E-06,0.87890625,0,0
-2.35299812629819E-05,6.07541369390674E-06,0.87890625,0,0
-1.97004101210041E-05,3.49360811924271E-06,0.87890625,0,0
-2.05128071684157E-05,4.45110208602273E-06,0.87890625,0,0
-1.9562583474908E-05,5.52880783288856E-06,0.87890625,0,0
-2.12030809052521E-05,8.54674726724625E-06,0.87890625,0,0
-1.98647576326039E-05,9.9741691883537E-06,0.87890625,0,0
-1.85504632099764E-05,1.22592218758655E-05,0.87890625,0,0
-1.45591175169102E-05,1.29831523736357E-05,0.87890625,0,0
-1.29106338135898E-05,1.27341372717638E-05,0.87890625,0,0
-9.31057093112031E-06,1.15590146378963E-05,0.87890625,0,0
-5.99849045102019E-06,1.34042275021784E-05,0.87890625,0,0
-3.92359106626827E-06,1.53717301145662E-05,0.87890625,0,0
-3.15523288918484E-06,1.39935018523829E-05,0.87890625,0,0
-3.75101558347524E-06,9.94249876384856E-06,0.87890625,0,0
-6.33301579000545E-06,1.38594214149634E-05,0.87890625,0,0
-6.15368708167807E-06,1.17814997793175E-05,0.87890625,0,0
-7.40722953196382E-06,1.67510024766671E-05,0.87890625,0,0
-8.9335180746275E-06,1.5597488527419E-05,0.87890625,0,0
-9.89343789115082E-06,1.66939898917917E-05,0.87890625,0,0
-7.98944165580906E-06,1.49750330820098E-05,0.87890625,0,0
-7.64732249081135E-06,1.57220765686361E-05,0.87890625,0,0
-9.52511527430033E-06,1.49644756675116E-05,0.87890625,0,0
-1.16022483780398E-05,1.25886790556251E-05,0.87890625,0,0
-1.25859623949509E-05,1.00097131507937E-05,0.87890625,0,0
-1.26658615045017E-05,8.21588309918297E-06,0.87890625,0,0
-1.43855995702324E-05,7.74201635067584E-06,0.87890625,0,0
-1.77646306838142E-05,7.27715860193712E-06,0.87890625,0,0
-2.16346797969891E-05,9.08839592739241E-06,0.87890625,0,0
-2.32201073231408E-05,9.6033782028826E-06,0.87890625,0,0
-2.35415700444719E-05,1.06336065073265E-05,0.87890625,0,0
-2.44751754507888E-05,1.07979312815587E-05,0.87890625,0,0
-2.74976737273391E-05,1.19489777716808E-05,0.87890625,0,0
-3.02434946206631E-05,1.04793180071283E-05,0.87890625,0,0
-3.20538274536375E-05,1.03589536593063E-05,0.87890625,0,0
-3.41311133524869E-05,1.02548119684798E-05,0.87890625,0,0
-3.64739789802115E-05,9.31533304537879E-06,0.87890625,0,0
-3.73967050109059E-05,8.43494672153611E-06,0.87890625,0,0
-3.72964568668976E-05,9.21267837838968E-06,0.87890625,0,0
-3.59161422238685E-05,9.84312100626994E-06,0.87890625,0,0
-3.44181171385571E-05,9.33773844735697E-06,0.87890625,0,0
-2.62133307842305E-05,6.95459584676428E-06,0.87890625,0,0
-3.58349170710426E-05,1.0516064321564E-05,0.87890625,0,0
-2.56045132118743E-05,9.75193597696489E-06,0.87890625,0,0
-3.23343811032828E-05,1.12593443191145E-05,0.87890625,0,0
-2.5071547497646E-05,7.64649030315923E-06,0.87890625,0,0
-2.84233174170367E-05,6.39290374238044E-06,0.87890625,0,0
-2.55991017183987E-05,6.37177799944766E-06,0.87890625,0,0
-2.73023688350804E-05,1.00970901257824E-05,0.87890625,0,0
-2.67501472990261E-05,1.14068307084381E-05,0.87890625,0,0
-2.6677458663471E-05,1.14032509372919E-05,0.87890625,0,0
-2.62816211034078E-05,1.0067509720102E-05,0.87890625,0,0
-2.56857201748062E-05,8.12458711152431E-06,0.87890625,0,0
-2.76157097687246E-05,6.9933644226694E-06,0.87890625,0,0
-2.63026595348492E-05,6.681339982606E-06,0.87890625,0,0
-2.66801052930532E-05,7.22661025065463E-06,0.87890625,0,0
-2.35615443671122E-05,5.54754660697654E-06,0.87890625,0,0
-2.28808839892736E-05,5.43396845387178E-06,0.87890625,0,0
-1.92637908185134E-05,6.41408541923738E-06,0.87890625,0,0
-1.95293559954735E-05,9.82222718448611E-06,0.87890625,0,0
-1.88707817869727E-05,1.33315188577399E-05,0.87890625,0,0
-2.12150225706864E-05,1.62559481395874E-05,0.87890625,0,0
-2.19493995246012E-05,1.54548415594036E-05,0.87890625,0,0
-2.39750115724746E-05,1.34595557028661E-05,0.87890625,0,0
-2.39739456446841E-05,1.23752506624442E-05,0.87890625,0,0
-2.32509737543296E-05,1.20509075713926E-05,0.87890625,0,0
-2.08588680834509E-05,9.91838169284165E-06,0.87890625,0,0
-1.90800128621049E-05,8.97105928743258E-06,0.87890625,0,0
-1.59761748363962E-05,8.99688257050002E-06,0.87890625,0,0
-2.41714933508774E-05,1.39426838359213E-05,0.87890625,0,0
-1.95941283891443E-05,1.07068217403139E-05,0.87890625,0,0
-2.25019957724726E-05,1.14681733975885E-05,0.87890625,0,0
-1.91356375580654E-05,8.92134266905487E-06,0.87890625,0,0
-2.13991388591239E-05,9.70020664681215E-06,0.87890625,0,0
-2.08619258046383E-05,9.72823090705788E-06,0.87890625,0,0
-2.23875485971803E-05,1.14044587462558E-05,0.87890625,0,0
-2.15540567296557E-05,1.3125967598171E-05,0.87890625,0,0
-2.05862106668064E-05,1.41003492899472E-05,0.87890625,0,0
-2.04862208192935E-05,1.25523174574482E-05,0.87890625,0,0
-2.02135088329669E-05,9.14049178390997E-06,0.87890625,0,0
-2.05854539672146E-05,9.22560138860717E-06,0.87890625,0,0
-1.90978589671431E-05,1.08357662611525E-05,0.87890625,0,0
-1.84909931704169E-05,1.13226460598526E-05,0.87890625,0,0
-1.58533239300596E-05,8.90952560439473E-06,0.87890625,0,0
-1.49307934407261E-05,7.78278990765102E-06,0.87890625,0,0
-1.30048983919551E-05,7.29477505956311E-06,0.87890625,0,0
-1.32077193484292E-05,8.21660887595499E-06,0.87890625,0,0
-1.25917031255085E-05,1.00840070444974E-05,0.87890625,0,0
-1.25502638184116E-05,1.26186205307022E-05,0.87890625,0,0
-1.14511185529409E-05,1.18404750537593E-05,0.87890625,0,0
-1.28151468743454E-05,8.51095046527917E-06,0.87890625,0,0
-1.38918630909757E-05,4.93832112624659E-06,0.87890625,0,0
-1.39046369440621E-05,2.81769689536304E-06,0.87890625,0,0
-1.35050458993646E-05,2.49913136940449E-06,0.87890625,0,0
-1.33354778881767E-05,5.48638263353496E-06,0.87890625,0,0
-1.13269716166542E-05,7.23232551536057E-06,0.87890625,0,0
-1.76129669853253E-05,1.20809500003816E-05,0.87890625,0,0
-1.65830442711012E-05,1.20235235954169E-05,0.87890625,0,0
-2.00275062525179E-05,1.35894888444454E-05,0.87890625,0,0
-1.66559166245861E-05,1.09729207906639E-05,0.87890625,0,0
-1.82326512003783E-05,1.1048226042476E-05,0.87890625,0,0
-1.88314952538349E-05,1.07455689430935E-05,0.87890625,0,0
-2.21251175389625E-05,1.26732966236887E-05,0.87890625,0,0
-2.44746570388088E-05,1.36462240334367E-05,0.87890625,0,0
-2.66856368398294E-05,1.51015137817012E-05,0.87890625,0,0
-2.96128073387081E-05,1.74583474290557E-05,0.87890625,0,0
-3.1610055884812E-05,1.89332913578255E-05,0.87890625,0,0
-3.30392322211992E-05,1.86355373443803E-05,0.87890625,0,0
-3.33523348672315E-05,1.55555517267203E-05,0.87890625,0,0
-3.47551685990766E-05,1.42185417644214E-05,0.87890625,0,0
-3.34993928845506E-05,1.53260079969186E-05,0.87890625,0,0
-3.1641851819586E-05,1.71440860867733E-05,0.87890625,0,0
-2.84196921711555E-05,1.57523263624171E-05,0.87890625,0,0
-2.75487509497907E-05,1.43752486110316E-05,0.87890625,0,0
-2.69373358605662E-05,1.38444383992464E-05,0.87890625,0,0
-2.87438906525495E-05,1.59047885972541E-05,0.87890625,0,0
-2.9948472729302E-05,1.72885411302559E-05,0.87890625,0,0
-2.99264102068264E-05,1.68131227837875E-05,0.87890625,0,0
-2.99553030345123E-05,1.42433545988752E-05,0.87890625,0,0
-3.1960826163413E-05,1.2323986084084E-05,0.87890625,0,0
-3.42439270752948E-05,1.49326879181899E-05,0.87890625,0,0
-3.5413457226241E-05,1.89630409295205E-05,0.87890625,0,0
-2.75982729363022E-05,1.6458054233226E-05,0.87890625,0,0
-3.86665924452245E-05,2.25087806029478E-05,0.87890625,0,0
-3.03376127703814E-05,1.57387748913607E-05,0.87890625,0,0
-4.02112782467157E-05,2.06507193070138E-05,0.87890625,0,0
-3.47232416970655E-05,1.68179467436858E-05,0.87890625,0,0
-3.79056655219756E-05,1.73886255652178E-05,0.87890625,0,0
-3.36746088578366E-05,1.42091748784878E-05,0.87890625,0,0
-3.40060068992898E-05,1.27031489682849E-05,0.87890625,0,0
-3.16493824357167E-05,9.85590577329276E-06,0.87890625,0,0
-3.05604953609873E-05,8.7949065346038E-06,0.87890625,0,0
-3.00011688523227E-05,7.5425209615787E-06,0.87890625,0,0
-2.83719436993124E-05,4.39895757153863E-06,0.87890625,0,0
-2.87015354842879E-05,4.09723179473076E-06,0.87890625,0,0
-2.7463447622722E-05,4.72053534394945E-06,0.87890625,0,0
-3.06804140564054E-05,5.97630196352839E-06,0.87890625,0,0
-3.08434791804757E-05,3.53710083800252E-06,0.87890625,0,0
-3.15131001116242E-05,3.29792214870395E-06,0.87890625,0,0
-2.64851623796858E-05,2.79309801953787E-06,0.87890625,0,0
-2.42544865614036E-05,5.05966363562038E-06,0.87890625,0,0
-2.14423180295853E-05,6.8520862441801E-06,0.87890625,0,0
-2.2737389372196E-05,9.12275481823599E-06,0.87890625,0,0
-2.2878339223098E-05,7.39521919967956E-06,0.87890625,0,0
-2.35996958508622E-05,5.09534447701299E-06,0.87890625,0,0
-2.05604537768522E-05,2.56537236964505E-06,0.87890625,0,0
-1.82771909749135E-05,2.07861739909276E-06,0.87890625,0,0
-1.83015617949422E-05,3.02360740533913E-06,0.87890625,0,0
-1.97245481103892E-05,2.54797464549483E-06,0.87890625,0,0
-1.61099578690482E-05,8.59117790241726E-07,0.87890625,0,0
-2.23954975808738E-05,3.2251441552944E-06,0.87890625,0,0
-1.63688855536748E-05,5.7475908761262E-06,0.87890625,0,0
-2.02951960091013E-05,5.98370570514817E-06,0.87890625,0,0
-1.71230203704908E-05,6.15841645412729E-06,0.87890625,0,0
-1.75112854776671E-05,7.92403352534166E-06,0.87890625,0,0
-1.39078583742958E-05,1.04836726677604E-05,0.87890625,0,0
-1.60008203238249E-05,1.21379425763735E-05,0.87890625,0,0
-1.65142337209545E-05,1.09530910776812E-05,0.87890625,0,0
-1.72164654941298E-05,9.06486457097344E-06,0.87890625,0,0
-1.97318331629504E-05,1.006077582133E-05,0.87890625,0,0
-2.18703535210807E-05,1.24254265756463E-05,0.87890625,0,0
-2.45473602262791E-05,1.35013169710874E-05,0.87890625,0,0
-2.41476755036274E-05,1.28877964016283E-05,0.87890625,0,0
-2.54336373473052E-05,1.16100172817823E-05,0.87890625,0,0
-2.49507447733777E-05,1.16248356789583E-05,0.87890625,0,0
-2.51595520239789E-05,1.3424752978608E-05,0.87890625,0,0
-2.41685611399589E-05,1.53879591380246E-05,0.87890625,0,0
-2.71306325885234E-05,1.59779501700541E-05,0.87890625,0,0
-2.95390309474897E-05,1.60003128257813E-05,0.87890625,0,0
-3.1165673135547E-05,1.66983081726357E-05,0.87890625,0,0
-2.96421039820416E-05,1.83769552677404E-05,0.87890625,0,0
-2.78973238891922E-05,1.95382690435508E-05,0.87890625,0,0
-2.56417752098059E-05,1.81286141014425E-05,0.87890625,0,0
-2.56608363997657E-05,1.61827392730629E-05,0.87890625,0,0
-2.83315384876914E-05,1.4584320524591E-05,0.87890625,0,0
-3.04485802189447E-05,1.32713876155321E-05,0.87890625,0,0
-2.27300952246878E-05,1.11395311250817E-05,0.87890625,0,0
-2.95631361950655E-05,1.51021131387097E-05,0.87890625,0,0
-2.08670699066715E-05,9.02978990779957E-06,0.87890625,0,0
-2.8870148526039E-05,1.15876173367724E-05,0.87890625,0,0
-2.34627095778706E-05,1.03748361652833E-05,0.87890625,0,0
-2.68899875663919E-05,1.09284683276201E-05,0.87890625,0,0
-2.58770523942076E-05,7.15988244337495E-06,0.87890625,0,0
-2.90816678898409E-05,6.0437173488026E-06,0.87890625,0,0
-2.90546577161876E-05,6.45546379018924E-06,0.87890625,0,0
-2.93792381853564E-05,8.32914702186827E-06,0.87890625,0,0
-3.02813405141933E-05,9.73640635493211E-06,0.87890625,0,0
-3.07422342302743E-05,1.01851956060273E-05,0.87890625,0,0
-3.35547993017826E-05,1.13988598968717E-05,0.87890625,0,0
-3.32819545292296E-05,1.07756040961249E-05,0.87890625,0,0
-3.42263811035082E-05,1.02859339676797E-05,0.87890625,0,0
-3.30453003698494E-05,8.55836424307199E-06,0.87890625,0,0
-3.58479628630448E-05,8.89490365807433E-06,0.87890625,0,0
-3.66809908882715E-05,9.17589477467118E-06,0.87890625,0,0
-3.98283700633328E-05,1.14500890049385E-05,0.87890625,0,0
-3.93189147871453E-05,1.40913934956188E-05,0.87890625,0,0
-3.89726264984347E-05,1.80039151018718E-05,0.87890625,0,0
-3.68396176781971E-05,2.05525338969892E-05,0.87890625,0,0
-3.65185769624077E-05,2.19763023778796E-05,0.87890625,0,0
-3.49528199876659E-05,2.07700813916745E-05,0.87890625,0,0
-3.43785977747757E-05,1.78908758243779E-05,0.87890625,0,0
-3.30860202666372E-05,1.45175454235869E-05,0.87890625,0,0
-3.07650952890981E-05,1.46336042234907E-05,0.87890625,0,0
-2.46593572228448E-05,1.22474903037073E-05,0.87890625,0,0
-3.72452595911454E-05,1.72922154888511E-05,0.87890625,0,0
-3.04624809359666E-05,1.33276807900984E-05,0.87890625,0,0
-3.63931176252663E-05,1.62732831086032E-05,0.87890625,0,0
-3.03801461996045E-05,1.06219322333345E-05,0.87890625,0,0
-3.11290968966205E-05,6.3501261138299E-06,0.87890625,0,0
-2.73131809080951E-05,1.05281387163814E-07,0.87890625,0,0
-2.72269317065366E-05,7.80419668444665E-07,0.87890625,0,0
-2.49755212280434E-05,4.55171630164841E-06,0.87890625,0,0
-2.34137642109999E-05,1.0309067874914E-05,0.87890625,0,0
-2.15706713788677E-05,1.373948816763E-05,0.87890625,0,0
-1.90784703590907E-05,1.27299754240084E-05,0.87890625,0,0
-1.89864458661759E-05,1.10874470919953E-05,0.87890625,0,0
-1.78575464815367E-05,1.07261475932319E-05,0.87890625,0,0
-1.87171226571081E-05,1.34151969177765E-05,0.87890625,0,0
-1.62161595653743E-05,1.26170825751615E-05,0.87890625,0,0
-1.59020946739474E-05,1.0565450793365E-05,0.87890625,0,0
-1.30417702166596E-05,7.45652505429462E-06,0.87890625,0,0
-1.36671360451146E-05,7.93141043686774E-06,0.87890625,0,0
-1.5199902918539E-05,8.74360284797149E-06,0.87890625,0,0
-2.06065178645076E-05,1.01027862910996E-05,0.87890625,0,0
-2.3472790417145E-05,1.03994616438285E-05,0.87890625,0,0
-2.43302893068176E-05,1.1997100955341E-05,0.87890625,0,0
-2.12474533327622E-05,1.26002869365038E-05,0.87890625,0,0
-1.9341863662703E-05,1.08067779365228E-05,0.87890625,0,0
-1.87301593541633E-05,7.80031405156478E-06,0.87890625,0,0
-1.91026665561367E-05,5.9894396144955E-06,0.87890625,0,0
-1.59496594278608E-05,4.80699509353144E-06,0.87890625,0,0
-2.16997523239115E-05,8.83515713212546E-06,0.87890625,0,0
-1.53084874909837E-05,9.26937809708761E-06,0.87890625,0,0
-2.0438677893253E-05,9.3201606432558E-06,0.87890625,0,0
-1.84462915058248E-05,6.96289225743385E-06,0.87890625,0,0
-2.0253581169527E-05,6.6924926613865E-06,0.87890625,0,0
-1.80539282155223E-05,7.21245442036889E-06,0.87890625,0,0
-1.94145559362369E-05,9.67987944022752E-06,0.87890625,0,0
-1.94913864106638E-05,1.10305063572014E-05,0.87890625,0,0
-1.88405902008526E-05,1.07293135442887E-05,0.87890625,0,0
-1.68007463798858E-05,8.13632414065069E-06,0.87890625,0,0
-1.46225956996204E-05,4.22918583353749E-06,0.87890625,0,0
-1.55969883053331E-05,3.89998240279965E-06,0.87890625,0,0
-1.63667700689984E-05,5.44543627256644E-06,0.87890625,0,0
-1.87795631063636E-05,6.32183446214185E-06,0.87890625,0,0
-1.81499490281567E-05,5.20452977070818E-06,0.87890625,0,0
-1.84325053851353E-05,4.20127253164537E-06,0.87890625,0,0
-1.81816576514393E-05,2.95402401206957E-06,0.87890625,0,0
-2.12631912290817E-05,2.90663138002856E-06,0.87890625,0,0
-2.35124207392801E-05,4.31807620770996E-06,0.87890625,0,0
-2.6243456886732E-05,6.86099519953132E-06,0.87890625,0,0
-2.58304498856887E-05,7.53264885133831E-06,0.87890625,0,0
-2.42238220380386E-05,6.86685052642133E-06,0.87890625,0,0
-2.14750925806584E-05,5.92864125792403E-06,0.87890625,0,0
-2.16063654079335E-05,5.27757310919696E-06,0.87890625,0,0
-2.30309033213416E-05,7.70481074141571E-06,0.87890625,0,0
-2.3978578610695E-05,1.13080559458467E-05,0.87890625,0,0
-2.13733146665618E-05,9.10193557501771E-06,0.87890625,0,0
-3.14341159537435E-05,9.17102261155378E-06,0.87890625,0,0
-2.35450079344446E-05,4.45529440185055E-06,0.87890625,0,0
-2.81998109130654E-05,1.10758364826324E-05,0.87890625,0,0
-2.65090366156073E-05,1.12053967313841E-05,0.87890625,0,0
-3.21347142744344E-05,1.50935156852938E-05,0.87890625,0,0
-3.02837052004179E-05,1.80081115104258E-05,0.87890625,0,0
-2.94338115054416E-05,2.0512547052931E-05,0.87890625,0,0
-2.77909221040318E-05,1.87645327969221E-05,0.87890625,0,0
-2.84793368336977E-05,1.60843155754264E-05,0.87890625,0,0
-2.93586672341917E-05,1.21184393719886E-05,0.87890625,0,0
-2.99103630823083E-05,8.94388995220652E-06,0.87890625,0,0
-3.24541797454003E-05,9.94772744888905E-06,0.87890625,0,0
-3.21563456964213E-05,1.26433178593288E-05,0.87890625,0,0
-3.25632790918462E-05,1.59465726028429E-05,0.87890625,0,0
-3.05443063552957E-05,1.54199624375906E-05,0.87890625,0,0
-3.0603234336013E-05,1.53038217831636E-05,0.87890625,0,0
-2.78349052678095E-05,1.56168807734502E-05,0.87890625,0,0
-2.65374983428046E-05,1.80812112375861E-05,0.87890625,0,0
-2.37210570048774E-05,1.8549028027337E-05,0.87890625,0,0
-2.29676243179711E-05,1.97023109649308E-05,0.87890625,0,0
-2.16292246477678E-05,2.047802809102E-05,0.87890625,0,0
-2.21713235077914E-05,2.1938823920209E-05,0.87890625,0,0
-2.32767852139659E-05,2.2177469872986E-05,0.87890625,0,0
-2.61738496192265E-05,2.17603774217423E-05,0.87890625,0,0
-2.70759064733284E-05,1.99159730982501E-05,0.87890625,0,0
-2.58975378528703E-05,1.80558654392371E-05,0.87890625,0,0
-1.86634788406082E-05,1.5114237612579E-05,0.87890625,0,0
-2.65027174464194E-05,2.14760657399893E-05,0.87890625,0,0
-2.18576533370651E-05,1.56180049089016E-05,0.87890625,0,0
-2.95419631584082E-05,1.863117722678E-05,0.87890625,0,0
-2.716159724514E-05,1.45628537211451E-05,0.87890625,0,0
-2.99963048746577E-05,1.49981797221699E-05,0.87890625,0,0
-2.84299276245292E-05,1.29431136883795E-05,0.87890625,0,0
-3.19865321216639E-05,1.40749334605061E-05,0.87890625,0,0
-3.44328254868742E-05,1.3236167433206E-05,0.87890625,0,0
-3.564828512026E-05,1.28423771457165E-05,0.87890625,0,0
-3.48242901964113E-05,1.31992064780206E-05,0.87890625,0,0
-3.33690259139985E-05,1.3313732779352E-05,0.87890625,0,0
-3.3658532629488E-05,1.50405512613361E-05,0.87890625,0,0
-3.08551534544677E-05,1.59268765855813E-05,0.87890625,0,0
-2.82946602965239E-05,1.74181113834493E-05,0.87890625,0,0
-2.28475291805808E-05,1.52643715409795E-05,0.87890625,0,0
-2.12141239899211E-05,1.31788938233512E-05,0.87890625,0,0
-2.00654321815819E-05,9.6838666650001E-06,0.87890625,0,0
-2.18623299588216E-05,9.85109454632038E-06,0.87890625,0,0
-2.15667387237772E-05,1.00119432318024E-05,0.87890625,0,0
-2.05036994884722E-05,1.00207644209149E-05,0.87890625,0,0
-1.59359497047262E-05,7.13935287421918E-06,0.87890625,0,0
-1.35491382025066E-05,4.98357985634357E-06,0.87890625,0,0
-1.30889711726923E-05,5.41958752364735E-06,0.87890625,0,0
-1.35528625833103E-05,9.74838894762797E-06,0.87890625,0,0
-1.21511193356127E-05,1.23755762615474E-05,0.87890625,0,0
-1.02018775578472E-05,1.22780593301286E-05,0.87890625,0,0
-7.11606799086439E-06,7.49867149352212E-06,0.87890625,0,0
-1.00276211014716E-05,8.00463021732867E-06,0.87890625,0,0
-8.71510383149143E-06,4.0482591430191E-06,0.87890625,0,0
-1.17530698844348E-05,5.86797250434756E-06,0.87890625,0,0
-1.12938905658666E-05,7.8842606399121E-07,0.87890625,0,0
-1.21185776151833E-05,-1.30015223476221E-06,0.87890625,0,0
-9.95332084130496E-06,-2.3057373255142E-06,0.87890625,0,0
-1.02797584986547E-05,1.08915787677688E-06,0.87890625,0,0
-1.05855497167795E-05,2.35970173889655E-06,0.87890625,0,0
-1.19879405247048E-05,1.94362496586109E-06,0.87890625,0,0
-1.38631094159791E-05,1.12372174498887E-06,0.87890625,0,0
-1.51628528328729E-05,8.78760715750104E-07,0.87890625,0,0
-1.74102606251836E-05,6.68357927224861E-07,0.87890625,0,0
-1.85627468454186E-05,-2.6254639351464E-07,0.87890625,0,0
-2.00175545614911E-05,2.26692009164253E-06,0.87890625,0,0
-2.01962848223047E-05,6.36700042377925E-06,0.87890625,0,0
-2.05196356546367E-05,1.11326462501893E-05,0.87890625,0,0
-1.93962296179961E-05,1.24471689559869E-05,0.87890625,0,0
-1.94518524949672E-05,1.29468735394767E-05,0.87890625,0,0
-1.90925293281907E-05,1.2683030035987E-05,0.87890625,0,0
-1.91031613212544E-05,1.48781491589034E-05,0.87890625,0,0
-1.88593912753277E-05,1.60187573783332E-05,0.87890625,0,0
-1.91477374755777E-05,1.50231344377971E-05,0.87890625,0,0
-1.97048793779686E-05,1.17199879241525E-05,0.87890625,0,0
-2.15169075090671E-05,1.11139088403434E-05,0.87890625,0,0
-2.47078551183222E-05,1.39952935569454E-05,0.87890625,0,0
-2.70204927801387E-05,1.64046305144439E-05,0.87890625,0,0
-2.3399448764394E-05,1.25198903333512E-05,1.58203125,0,0
-3.55371812474914E-05,1.58360599016305E-05,1.58203125,0,0
-2.91031592496438E-05,1.00685929282918E-05,1.58203125,0,0
-3.46491615346167E-05,1.39463400046225E-05,1.58203125,0,0
-3.14391509164125E-05,1.04352639027638E-05,1.58203125,0,0
-3.73315779143013E-05,1.12897769213305E-05,1.58203125,0,0
-3.71482237824239E-05,9.80861750576878E-06,1.58203125,0,0
-3.89537162845954E-05,1.11232993731392E-05,1.58203125,0,0
-3.72578942915425E-05,1.06194493127987E-05,1.58203125,0,0
-3.54679104930256E-05,1.03006350400392E-05,1.58203125,0,0
-3.3137923310278E-05,1.10474829853047E-05,1.58203125,0,0
-3.0561179301003E-05,1.10614791992703E-05,1.58203125,0,0
-3.05888861475978E-05,1.12055704448721E-05,1.58203125,0,0
-2.84945090243127E-05,9.10354901861865E-06,1.58203125,0,0
-2.82330911431927E-05,8.19075648905709E-06,1.58203125,0,0
-2.64619484369177E-05,6.65596735416329E-06,1.58203125,0,0
-2.89006256934954E-05,7.87384851719253E-06,1.58203125,0,0
-2.9454124160111E-05,7.8730654422543E-06,1.58203125,0,0
-3.12695228785742E-05,8.62979049998103E-06,1.58203125,0,0
-2.99503262795042E-05,8.38488540466642E-06,1.58203125,0,0
-3.01908985420596E-05,9.37387358135311E-06,1.58203125,0,0
-2.95557274512248E-05,9.29457837628433E-06,1.58203125,0,0
-2.93033426714828E-05,9.53125891101081E-06,1.58203125,0,0
-2.63853507931344E-05,9.98142877506325E-06,1.58203125,0,0
-2.46977833739948E-05,1.2341256478976E-05,1.58203125,0,0
-2.33731225307565E-05,1.36407807076466E-05,1.58203125,0,0
-2.20590281969635E-05,1.41254959089565E-05,1.58203125,0,0
-1.75848053913796E-05,1.13066744233947E-05,1.58203125,0,0
-2.40199933614349E-05,1.47406508403947E-05,1.58203125,0,0
-1.53090604726458E-05,9.32617513171863E-06,1.58203125,0,0
-1.75689892785158E-05,1.1982316209469E-05,1.58203125,0,0
-1.48171784530859E-05,9.21034552447964E-06,1.58203125,0,0
-1.92243132914882E-05,8.28956945042592E-06,1.58203125,0,0
-1.85126573342131E-05,3.82215694116894E-06,1.58203125,0,0
-2.01858365471708E-05,4.29761985287769E-06,1.58203125,0,0
-2.08140518225264E-05,7.11349775883718E-06,1.58203125,0,0
-2.14760930248303E-05,1.26645882119192E-05,1.58203125,0,0
-2.09553363674786E-05,1.57582289830316E-05,1.58203125,0,0
-2.04024054255569E-05,1.51767835632199E-05,1.58203125,0,0
-2.2773863747716E-05,1.60271683853352E-05,1.58203125,0,0
-2.38686243392294E-05,1.6037525710999E-05,1.58203125,0,0
-2.46961335506057E-05,1.63732820510631E-05,1.58203125,0,0
-2.1772839318146E-05,1.52743141370593E-05,1.58203125,0,0
-2.11553506233031E-05,1.6156091078301E-05,1.58203125,0,0
-1.96577057067771E-05,1.56428232003236E-05,1.58203125,0,0
-2.00431150005898E-05,1.55454163177637E-05,1.58203125,0,0
-1.87654404726345E-05,1.50167697938741E-05,1.58203125,0,0
-1.80704992089886E-05,1.6167075955309E-05,1.58203125,0,0
-1.55033922055736E-05,1.44581053973525E-05,1.58203125,0,0
-1.51191734403255E-05,1.33730209199712E-05,1.58203125,0,0
-1.47523742271005E-05,1.33533576445188E-05,1.58203125,0,0
-1.44247569551226E-05,1.22721494335565E-05,1.58203125,0,0
-1.28254696392105E-05,1.00765155366389E-05,1.58203125,0,0
-1.11719882625039E-05,9.58935925154947E-06,1.58203125,0,0
-8.06312255008379E-06,9.4095712483977E-06,1.58203125,0,0
-9.28218378248857E-06,1.49144088936737E-05,1.58203125,0,0
-5.93220829614438E-06,1.40022120831418E-05,1.58203125,0,0
-1.0846273653442E-05,1.73192111105891E-05,1.58203125,0,0
-1.12063889901037E-05,1.42061253427528E-05,1.58203125,0,0
-1.3800688975607E-05,1.27818884720909E-05,1.58203125,0,0
-1.39435742312344E-05,1.17186200441211E-05,1.58203125,0,0
-1.42101634992287E-05,1.39298299473012E-05,1.58203125,0,0
-1.2591482118296E-05,1.43164670589613E-05,1.58203125,0,0
-1.23893851196044E-05,1.48295912367757E-05,1.58203125,0,0
-1.38671066451934E-05,1.58850598381832E-05,1.58203125,0,0
-1.4271372492658E-05,1.52511147462064E-05,1.58203125,0,0
-1.35669524752302E-05,1.47042983371648E-05,1.58203125,0,0
-1.20836157293525E-05,1.35524041979806E-05,1.58203125,0,0
-1.29996014948119E-05,1.33797875605524E-05,1.58203125,0,0
-1.31108936329838E-05,1.17259414764703E-05,1.58203125,0,0
-1.38971699925605E-05,1.06037214209209E-05,1.58203125,0,0
-1.35777791001601E-05,8.06996649771463E-06,1.58203125,0,0
-1.40418596856762E-05,6.98332314641448E-06,1.58203125,0,0
-1.30406933749327E-05,7.19490572009818E-06,1.58203125,0,0
-1.22598139569163E-05,8.28323481982807E-06,1.58203125,0,0
-1.24877478810959E-05,7.70109272707487E-06,1.58203125,0,0
-1.50859577843221E-05,7.28552049622522E-06,1.58203125,0,0
-1.66511417774018E-05,6.94248728905222E-06,1.58203125,0,0
-1.77017645910382E-05,7.88032866694266E-06,1.58203125,0,0
-1.79657963599311E-05,1.03302054412779E-05,1.58203125,0,0
-1.88233134394977E-05,1.19419701150036E-05,1.58203125,0,0
-1.80973092938075E-05,9.53721519181272E-06,1.58203125,0,0
-2.67977575276745E-05,1.40660340548493E-05,1.58203125,0,0
-2.12633312912658E-05,1.0713189112721E-05,1.58203125,0,0
-2.69013344222913E-05,1.03288984973915E-05,1.58203125,0,0
-2.64881273324136E-05,5.07328377352678E-06,1.58203125,0,0
-3.1352956284536E-05,6.80950779496925E-06,1.58203125,0,0
-3.0452552891802E-05,8.41808741824934E-06,1.58203125,0,0
-3.17199519486167E-05,9.61044497671537E-06,1.58203125,0,0
-3.13254495267756E-05,7.08567540641525E-06,1.58203125,0,0
-3.18115926347673E-05,5.1779411478492E-06,1.58203125,0,0
-3.14681092277169E-05,5.82654547542916E-06,1.58203125,0,0
-2.9491717214114E-05,6.90297019900754E-06,1.58203125,0,0
-2.9641672881553E-05,9.21998343983432E-06,1.58203125,0,0
-3.03935848933179E-05,9.59675799094839E-06,1.58203125,0,0
-3.3039556001313E-05,9.70536802924471E-06,1.58203125,0,0
-3.21243387588765E-05,8.85727149579907E-06,1.58203125,0,0
-3.21050538332202E-05,9.25828135223128E-06,1.58203125,0,0
-3.02213120448869E-05,9.03724139789119E-06,1.58203125,0,0
-3.03553333651507E-05,9.14918382477481E-06,1.58203125,0,0
-2.83170120383147E-05,7.38709923098213E-06,1.58203125,0,0
-2.79158030025428E-05,7.15163560016663E-06,1.58203125,0,0
-2.80237891274737E-05,8.54885547596496E-06,1.58203125,0,0
-3.03564575006021E-05,9.55629730015062E-06,1.58203125,0,0
-3.01590607705293E-05,8.64159846969415E-06,1.58203125,0,0
-2.72259985649725E-05,1.00380930234678E-05,1.58203125,0,0
-2.45916726271389E-05,1.12698007797007E-05,1.58203125,0,0
-2.48481446760707E-05,1.00172992461012E-05,1.58203125,0,0
-2.21951977437129E-05,7.35759203962516E-06,1.58203125,0,0
-3.36423217959236E-05,9.78674688667525E-06,1.58203125,0,0
-2.64677855739137E-05,5.74996511204517E-06,1.58203125,0,0
-2.93060384137789E-05,7.75930584495654E-06,1.58203125,0,0
-2.36142404901329E-05,7.68718837207416E-06,1.58203125,0,0
-2.74377471214393E-05,8.45215618028305E-06,1.58203125,0,0
-2.80179883702658E-05,6.60788509776467E-06,1.58203125,0,0
-3.12792326440103E-05,6.17879504716257E-06,1.58203125,0,0
-3.06515030388255E-05,5.32522790308576E-06,1.58203125,0,0
-3.00018218695186E-05,5.72872204429586E-06,1.58203125,0,0
-2.92600434477208E-05,7.0211935963016E-06,1.58203125,0,0
-2.76308164757211E-05,7.02116221873439E-06,1.58203125,0,0
-2.89459585474106E-05,7.32009766579722E-06,1.58203125,0,0
-2.91097840090515E-05,8.89224247657694E-06,1.58203125,0,0
-3.10064751829486E-05,1.23765030366485E-05,1.58203125,0,0
-3.08830749418121E-05,1.46325537571101E-05,1.58203125,0,0
-3.30893490172457E-05,1.62245924002491E-05,1.58203125,0,0
-3.30921975546516E-05,1.57497561303899E-05,1.58203125,0,0
-3.53972754965071E-05,1.50226669575204E-05,1.58203125,0,0
-3.57733224518597E-05,1.39776502692257E-05,1.58203125,0,0
-3.66062376997434E-05,1.49277038872242E-05,1.58203125,0,0
-3.38475547323469E-05,1.54135796037735E-05,1.58203125,0,0
-3.1771956855664E-05,1.41876416819287E-05,1.58203125,0,0
-3.05035700876033E-05,1.32856412164983E-05,1.58203125,0,0
-3.05703470075969E-05,1.5044555766508E-05,1.58203125,0,0
-3.20613980875351E-05,1.55792749865213E-05,1.58203125,0,0
-3.38085446855985E-05,1.47222808664083E-05,1.58203125,0,0
-2.68220992438728E-05,1.11607851067674E-05,1.58203125,0,0
-3.81215977540705E-05,1.62667893164326E-05,1.58203125,0,0
-2.8802964152419E-05,1.35479440359632E-05,1.58203125,0,0
-3.62740283890162E-05,1.70713483385043E-05,1.58203125,0,0
-3.13136406475678E-05,1.36116314024548E-05,1.58203125,0,0
-3.30272378050722E-05,1.31990836962359E-05,1.58203125,0,0
-2.67433060798794E-05,1.22378396554268E-05,1.58203125,0,0
-2.55734339589253E-05,1.46882657645619E-05,1.58203125,0,0
-2.35026000154903E-05,1.47285218190518E-05,1.58203125,0,0
-2.36304331338033E-05,1.45579533636919E-05,1.58203125,0,0
-2.29210309043992E-05,1.46428974403534E-05,1.58203125,0,0
-2.01573639060371E-05,1.50530204336974E-05,1.58203125,0,0
-1.88117355719442E-05,1.67487833095947E-05,1.58203125,0,0
-1.46912061609328E-05,1.66052413987927E-05,1.58203125,0,0
-1.49550687638111E-05,1.66789686772972E-05,1.58203125,0,0
-1.44348432513652E-05,1.5211006939353E-05,1.58203125,0,0
-1.68521200976102E-05,1.47259388540988E-05,1.58203125,0,0
-1.49671377585037E-05,1.29293448480894E-05,1.58203125,0,0
-1.55038487719139E-05,1.21208586278954E-05,1.58203125,0,0
-1.46418433359941E-05,1.04992932392634E-05,1.58203125,0,0
-1.61309817485744E-05,1.16541423267336E-05,1.58203125,0,0
-1.56397272803588E-05,1.40912115966785E-05,1.58203125,0,0
-1.66716290550539E-05,1.68222723004874E-05,1.58203125,0,0
-1.61336447490612E-05,1.59560095198685E-05,1.58203125,0,0
-1.63578315550694E-05,1.29485433717491E-05,1.58203125,0,0
-1.62508822540985E-05,1.21395405585645E-05,1.58203125,0,0
-1.5950201486703E-05,1.42539784064866E-05,1.58203125,0,0
-1.36658118208288E-05,1.1302355233056E-05,1.58203125,0,0
-2.03519321075873E-05,1.36923445097636E-05,1.58203125,0,0
-1.72125819517532E-05,8.80852621776285E-06,1.58203125,0,0
-2.03419294848572E-05,1.67899324878817E-05,1.58203125,0,0
-1.6261905329884E-05,1.87816713150823E-05,1.58203125,0,0
-1.67478647199459E-05,2.0201014194754E-05,1.58203125,0,0
-1.52804932440631E-05,1.81497944140574E-05,1.58203125,0,0
-1.72841992025496E-05,1.84658110811142E-05,1.58203125,0,0
-1.76994526555063E-05,1.60511808644515E-05,1.58203125,0,0
-1.63184577104403E-05,1.44642463055789E-05,1.58203125,0,0
-1.45322155731265E-05,1.33944640765549E-05,1.58203125,0,0
-1.33373205244425E-05,1.10101900645532E-05,1.58203125,0,0
-1.4444032785832E-05,9.67928099271376E-06,1.58203125,0,0
-1.51276253745891E-05,7.66822267905809E-06,1.58203125,0,0
-1.69284776347922E-05,6.32227602181956E-06,1.58203125,0,0
-1.56982478074497E-05,3.39124312631611E-06,1.58203125,0,0
-1.46336533362046E-05,3.43953297488042E-06,1.58203125,0,0
-1.25896285680938E-05,2.59781495515199E-06,1.58203125,0,0
-1.28711435536388E-05,1.62114861268492E-06,1.58203125,0,0
-1.24936659631203E-05,-2.85588072301834E-07,1.58203125,0,0
-1.2154909200035E-05,9.85509700512921E-07,1.58203125,0,0
-9.36634660320124E-06,2.57696456174017E-06,1.58203125,0,0
-7.6624328357866E-06,4.70579698230722E-06,1.58203125,0,0
-7.03474279362126E-06,7.67496476328233E-06,1.58203125,0,0
-8.85876033862587E-06,1.1751486454159E-05,1.58203125,0,0
-1.22176670629415E-05,1.33170915432856E-05,1.58203125,0,0
-1.28587153085391E-05,1.31898332256242E-05,1.58203125,0,0
-9.14530755835585E-06,1.11713288788451E-05,1.58203125,0,0
-1.33373378048418E-05,1.61237276188331E-05,1.58203125,0,0
-1.23740956041729E-05,1.18507041406701E-05,1.58203125,0,0
-1.73807002283866E-05,1.44029636430787E-05,1.58203125,0,0
-1.73767930391477E-05,1.32278892124305E-05,1.58203125,0,0
-2.02917781280121E-05,1.60369818331674E-05,1.58203125,0,0
-2.07909452001331E-05,1.55278521560831E-05,1.58203125,0,0
-2.41461020777933E-05,1.41173832162167E-05,1.58203125,0,0
-2.88228311546845E-05,8.67286144057289E-06,1.58203125,0,0
-3.34279138769489E-05,4.53725169791142E-06,1.58203125,0,0
-3.66049134754576E-05,5.24200186191592E-06,1.58203125,0,0
-3.95739625673741E-05,8.01355145085836E-06,1.58203125,0,0
-4.2717201722553E-05,1.06112220237264E-05,1.58203125,0,0
-4.29756037192419E-05,1.09159109342727E-05,1.58203125,0,0
-4.39328287029639E-05,1.09414522739826E-05,1.58203125,0,0
-4.47271777375136E-05,6.94405298418133E-06,1.58203125,0,0
-4.67181307612918E-05,2.51023493547109E-06,1.58203125,0,0
-4.81759852846153E-05,-1.99466839490015E-07,1.58203125,0,0
-5.14298080815934E-05,3.93462778447429E-06,1.58203125,0,0
-5.31265104655176E-05,1.03632128229947E-05,1.58203125,0,0
-5.39537832082715E-05,1.52583024828346E-05,1.58203125,0,0
-5.30967736267485E-05,1.48045019159326E-05,1.58203125,0,0
-5.15104657097254E-05,1.26655513668084E-05,1.58203125,0,0
-4.95068743475713E-05,1.12587895273464E-05,1.58203125,0,0
-4.91366881760769E-05,1.16563860501628E-05,1.58203125,0,0
-4.86878343508579E-05,1.14704880616046E-05,1.58203125,0,0
-4.74540102004539E-05,1.23844929476036E-05,1.58203125,0,0
-3.76499483536463E-05,1.14317626866978E-05,1.58203125,0,0
-5.37980231456459E-05,1.45490967042861E-05,1.58203125,0,0
-4.11105538660195E-05,7.24815390640288E-06,1.58203125,0,0
-5.16139079991262E-05,8.42049121274613E-06,1.58203125,0,0
-4.39648574683815E-05,4.49126628154772E-06,1.58203125,0,0
-5.0130740419263E-05,4.25861435360275E-06,1.58203125,0,0
-4.67523786937818E-05,4.4396720113582E-06,1.58203125,0,0
-4.77410212624818E-05,8.04760384198744E-06,1.58203125,0,0
-4.50975494459271E-05,8.56344013300259E-06,1.58203125,0,0
-4.42323616880458E-05,7.4006261456816E-06,1.58203125,0,0
-4.2660267354222E-05,3.87953423341969E-06,1.58203125,0,0
-3.81125391868409E-05,-6.71581460665038E-07,1.58203125,0,0
-3.66890126315411E-05,-5.79498532715661E-07,1.58203125,0,0
-3.34364194713999E-05,1.88416970559047E-06,1.58203125,0,0
-3.38051468133926E-05,5.73516308577382E-06,1.58203125,0,0
-2.77901690424187E-05,7.51080506233848E-06,1.58203125,0,0
-2.40066619880963E-05,1.11849003587849E-05,1.58203125,0,0
-1.71670799318235E-05,1.41485306812683E-05,1.58203125,0,0
-1.57078884512885E-05,1.6654126739013E-05,1.58203125,0,0
-1.17452464110102E-05,1.64713201229461E-05,1.58203125,0,0
-1.02981393865775E-05,1.76513676706236E-05,1.58203125,0,0
-6.81924211676233E-06,1.81920004251879E-05,1.58203125,0,0
-6.70870304020355E-06,1.71850788319716E-05,1.58203125,0,0
-5.80500045543886E-06,1.44426312544965E-05,1.58203125,0,0
-7.08040170138702E-06,1.26000977616059E-05,1.58203125,0,0
-6.32691580904066E-06,1.21638695418369E-05,1.58203125,0,0
-4.10233769798651E-06,1.25956094052526E-05,1.58203125,0,0
-2.42286046159279E-06,1.07699570435216E-05,1.58203125,0,0
-4.89247440782492E-06,1.67201269505313E-05,1.58203125,0,0
-6.7367427618592E-06,1.16134397103451E-05,1.58203125,0,0
-8.51632194098784E-06,8.80171137396246E-06,1.58203125,0,0
-1.00358993222471E-05,2.1607638700516E-06,1.58203125,0,0
-1.238476306753E-05,1.75982540895347E-06,3.33984375,0,0
-1.43912284329417E-05,3.56694749825692E-06,3.33984375,0,0
-1.54597455548355E-05,7.22759114069049E-06,3.33984375,0,0
-1.71828760358039E-05,5.78251410843222E-06,3.33984375,0,0
-1.84547679964453E-05,3.09518236463191E-06,3.33984375,0,0
-1.7936199583346E-05,4.5449646677298E-06,3.33984375,0,0
-1.69210597960046E-05,9.71143526840024E-06,3.33984375,0,0
-1.7186694094562E-05,1.47749060488422E-05,3.33984375,0,0
-1.93809319171123E-05,1.56567475642078E-05,3.33984375,0,0
-2.1910223949817E-05,1.52798293129308E-05,3.33984375,0,0
-2.13985167647479E-05,1.35714562929934E-05,3.33984375,0,0
-1.90778318938101E-05,1.34000374600873E-05,3.33984375,0,0
-1.7122394638136E-05,1.25550468510482E-05,3.33984375,0,0
-1.66270347108366E-05,1.31966098706471E-05,3.33984375,0,0
-1.63685454026563E-05,1.4207158528734E-05,3.33984375,0,0
-1.53439596033422E-05,1.47591990753426E-05,3.33984375,0,0
-1.39094172482146E-05,1.26539052871522E-05,3.33984375,0,0
-1.34005586005514E-05,1.15460998131311E-05,3.33984375,0,0
-1.42986637001741E-05,1.13539836092968E-05,3.33984375,0,0
-1.54408935486572E-05,1.28309293359052E-05,3.33984375,0,0
-1.62461565196281E-05,1.3835247955285E-05,3.33984375,0,0
-1.66009685926838E-05,1.42825574585004E-05,3.33984375,0,0
-1.26343011288554E-05,1.07452096926863E-05,3.33984375,0,0
-1.7499623936601E-05,1.39845533340122E-05,3.33984375,0,0
-1.21644970931811E-05,8.33807189337676E-06,3.33984375,0,0
-1.59787923621479E-05,1.1065212675021E-05,3.33984375,0,0
-1.55327325046528E-05,9.13778148969868E-06,3.33984375,0,0
-1.97917033801787E-05,1.14897957246285E-05,3.33984375,0,0
-1.97291028598556E-05,1.17807803690084E-05,3.33984375,0,0
-2.00668964680517E-05,1.12224524855264E-05,3.33984375,0,0
-1.77670044649858E-05,9.25270524021471E-06,3.33984375,0,0
-1.63171935128048E-05,1.03957418104983E-05,3.33984375,0,0
-1.58383681991836E-05,1.23171721497783E-05,3.33984375,0,0
-1.47113087223261E-05,1.26962495414773E-05,3.33984375,0,0
-1.43412889883621E-05,1.24958805827191E-05,3.33984375,0,0
-1.2990034520044E-05,1.19448968689539E-05,3.33984375,0,0
-1.35349591801059E-05,1.29933423522743E-05,3.33984375,0,0
-1.3352463611227E-05,1.31180122480146E-05,3.33984375,0,0
-1.42139815579867E-05,1.46178472277825E-05,3.33984375,0,0
-1.34554566102452E-05,1.43010529427556E-05,3.33984375,0,0
-1.38163595693186E-05,1.44979494507425E-05,3.33984375,0,0
-1.26180129882414E-05,1.29857562569669E-05,3.33984375,0,0
-1.28724523165147E-05,1.126085226133E-05,3.33984375,0,0
-1.35249974846374E-05,9.3386252046912E-06,3.33984375,0,0
-1.47365644806996E-05,9.25274525798159E-06,3.33984375,0,0
-1.36907319756574E-05,9.16975750442361E-06,3.33984375,0,0
-1.1834248653031E-05,1.00478582680807E-05,3.33984375,0,0
-1.12243969851988E-05,1.12333545985166E-05,3.33984375,0,0
-1.12403513412573E-05,1.198209974973E-05,3.33984375,0,0
-9.41852522373665E-06,9.54342522163643E-06,3.33984375,0,0
-1.46424245031085E-05,1.32692539409618E-05,3.33984375,0,0
-1.43885417855927E-05,1.08424364952953E-05,3.33984375,0,0
-1.98435427591903E-05,1.61654825205915E-05,3.33984375,0,0
-1.98173929675249E-05,1.87935766007286E-05,3.33984375,0,0
-2.12295835808618E-05,2.12262348213699E-05,3.33984375,0,0
-2.17799479287351E-05,1.67013531608973E-05,3.33984375,0,0
-2.61984478129307E-05,1.51023459693533E-05,3.33984375,0,0
-3.00949341180967E-05,1.47129339893581E-05,3.33984375,0,0
-3.35838049068116E-05,1.58661314344499E-05,3.33984375,0,0
-3.62971222784836E-05,1.55307570821606E-05,3.33984375,0,0
-3.65935920854099E-05,1.30757834995165E-05,3.33984375,0,0
-3.5948814911535E-05,1.12496945803287E-05,3.33984375,0,0
-3.48897774529178E-05,8.63011155161075E-06,3.33984375,0,0
-3.63138387911022E-05,8.14349732536357E-06,3.33984375,0,0
-3.69349399989005E-05,9.21693936106749E-06,3.33984375,0,0
-3.80179371859413E-05,1.26667246149736E-05,3.33984375,0,0
-3.86092615372036E-05,1.27627745314385E-05,3.33984375,0,0
-4.0150207496481E-05,1.17519975901814E-05,3.33984375,0,0
-3.97227231587749E-05,1.03921847767197E-05,3.33984375,0,0
-3.90388850064483E-05,1.16409992187982E-05,3.33984375,0,0
-3.7606674595736E-05,1.2242922821315E-05,3.33984375,0,0
-3.69646113540512E-05,1.20413988042856E-05,3.33984375,0,0
-3.55622032657266E-05,1.08506419564947E-05,3.33984375,0,0
-3.4472734114388E-05,9.90054468275048E-06,3.33984375,0,0
-3.45594999089371E-05,7.65583536121994E-06,3.33984375,0,0
