biceps_emg, triceps_emg, subject_position, position_estimate, brace_position
5.77707032789476E-06,-1.75746190507198E-05,0,0,0
7.21958804206224E-06,-1.44445648402325E-05,0,0,0
8.56728911458049E-06,-1.2454866009648E-05,0,0,0
9.02535157365492E-06,-1.14042168206652E-05,0,0,0
8.32011392049026E-06,-1.36068201754824E-05,0,0,0
8.32861951494124E-06,-1.37397237267578E-05,0,0,0
9.20804450288415E-06,-1.50625619426137E-05,0,0,0
8.568114026275E-06,-1.31379438244039E-05,0,0,0
5.84705412620679E-06,-1.32078585011186E-05,0,0,0
3.67982875104644E-06,-1.16052124212729E-05,0,0,0
2.4255566586362E-06,-1.16560086098616E-05,0,0,0
1.1204720067326E-06,-8.7485832409584E-06,0,0,0
1.38829602747137E-06,-9.916767339746E-06,0,0,0
2.64994764620496E-06,-1.34427591547137E-05,0,0,0
3.75738613911381E-06,-1.79669150384143E-05,0,0,0
4.4140501813672E-06,-1.88091144082136E-05,0,0,0
4.11582686865586E-06,-1.88447502296185E-05,0,0,0
3.64599304703006E-06,-1.97778572328389E-05,0,0,0
3.73014177057485E-06,-2.26127758651273E-05,0,0,0
2.9906277632108E-06,-1.92067891475745E-05,0,0,0
4.78779429613496E-06,-2.75400216196431E-05,0,0,0
2.73854266197304E-06,-2.23238512262469E-05,0,0,0
1.66271956913988E-06,-2.62969570030691E-05,0,0,0
9.61106820795976E-07,-1.84099098987645E-05,0,0,0
1.99870783035294E-06,-1.80510560312541E-05,0,0,0
3.1196866530081E-06,-1.37455926960683E-05,0,0,0
4.10586653742939E-06,-1.45291933222325E-05,0,0,0
2.91038122668397E-06,-1.53235614561709E-05,0,0,0
1.27643852465553E-06,-1.69927370734513E-05,0,0,0
1.58000216288201E-06,-1.75356199179078E-05,0,0,0
2.48143078351859E-06,-1.55806374095846E-05,0,0,0
2.21441473513551E-06,-1.41068885568529E-05,0,0,0
1.59781137654136E-07,-1.14267386379652E-05,0,0,0
-1.19428682410216E-06,-1.27544044516981E-05,0,0,0
-5.28335249327938E-07,-1.28377596411156E-05,0,0,0
1.06260404209024E-06,-1.5488731150981E-05,0,0,0
1.26926443044795E-06,-1.64821449288866E-05,0,0,0
9.623889809518E-07,-1.89412621693918E-05,0,0,0
9.69084567259415E-07,-1.84742621058831E-05,0,0,0
1.15433613245841E-06,-1.88707235793117E-05,0,0,0
1.01467480817519E-06,-1.66119370987872E-05,0,0,0
1.78827372110391E-06,-1.49645729834447E-05,0,0,0
2.0684635728685E-06,-1.48288509080885E-05,0,0,0
9.66512175182288E-07,-1.6255964510492E-05,0,0,0
7.15202020273864E-07,-1.60204926942242E-05,0,0,0
2.56854787039629E-06,-1.56936730490997E-05,0,0,0
2.03231797968328E-06,-1.15921357064508E-05,0,0,0
6.7746486820397E-07,-1.53789023897843E-05,0,0,0
-7.89679575063929E-07,-1.15317761810729E-05,0,0,0
2.41642464970937E-06,-1.51463946167496E-05,0,0,0
3.62759055860806E-06,-1.24360867630458E-05,0,0,0
3.43202464136994E-06,-1.5534897102043E-05,0,0,0
5.62242973956018E-07,-1.60453691933071E-05,0,0,0
-4.45080956978927E-07,-1.76566845766502E-05,0,0,0
-4.19539645690747E-07,-1.71455976669677E-05,0,0,0
5.05039338349889E-07,-1.63428958330769E-05,0,0,0
8.72606790380814E-07,-1.50289097291534E-05,0,0,0
3.68523103588814E-07,-1.42560156746185E-05,0,0,0
2.30699598091633E-07,-1.63164295372553E-05,0,0,0
1.08827589428984E-06,-1.68010046763811E-05,0,0,0
2.23717620428943E-06,-1.73186326719588E-05,0,0,0
1.40191991704341E-06,-1.72555137396557E-05,0,0,0
1.29517491131992E-06,-1.96390956261894E-05,0,0,0
2.23771871787903E-06,-2.01739494514186E-05,0,0,0
3.86205510949367E-06,-2.06800086743897E-05,0,0,0
3.96239829569822E-06,-1.89584607142024E-05,0,0,0
3.39857888320694E-06,-1.72915533767082E-05,0,0,0
2.60846809396753E-06,-1.39893190862495E-05,0,0,0
3.58012948709074E-06,-1.18812422442716E-05,0,0,0
4.14055693909177E-06,-1.06773686638917E-05,0,0,0
4.40175381299923E-06,-9.87241946859285E-06,0,0,0
7.19525496606366E-06,-8.99612314242404E-06,0,0,0
8.73215958563378E-06,-1.05725557659753E-05,0,0,0
4.21031336372835E-06,-1.11810268208501E-05,0,0,0
4.56490442957147E-06,-1.66388199431822E-05,0,0,0
4.10364373237826E-06,-1.3258646504255E-05,0,0,0
7.1173280957737E-06,-1.70264120242791E-05,0,0,0
2.93777270599094E-06,-1.64036282512825E-05,0,0,0
8.60983391248737E-07,-1.86025336006423E-05,0,0,0
9.56910980676184E-07,-1.88391531992238E-05,0,0,0
2.40436770582164E-06,-2.11021051654825E-05,0,0,0
1.75486366060795E-06,-2.29283759836107E-05,0,0,0
1.59282024014828E-06,-2.44641523750033E-05,0,0,0
2.3505588160333E-06,-2.56709699897328E-05,0,0,0
2.53046800935408E-06,-2.45418814301956E-05,0,0,0
1.62380956680863E-06,-2.35232018894749E-05,0,0,0
-5.64507942613091E-08,-2.43039103224874E-05,0,0,0
5.15387910127174E-08,-2.65351773123257E-05,0,0,0
1.92902319895438E-07,-2.60380002146121E-05,0,0,0
3.63089213806234E-07,-2.56665134656942E-05,0,0,0
3.91072973116025E-07,-2.37165095313685E-05,0,0,0
1.81978259661264E-06,-2.25160547415726E-05,0,0,0
2.49386130235507E-06,-2.09361605811864E-05,0,0,0
3.57841668119363E-06,-1.9908544345526E-05,0,0,0
3.62841637979727E-06,-1.79534072231036E-05,0,0,0
3.52010329152108E-06,-1.68510978255654E-05,0,0,0
3.23715221384191E-06,-1.56566638906952E-05,0,0,0
3.40686165145598E-06,-1.51377162183053E-05,0,0,0
2.86444151242904E-06,-1.43560846481705E-05,0,0,0
7.5186278536421E-07,-1.46193478940404E-05,0,0,0
1.54130589180568E-07,-1.15678558358923E-05,0,0,0
7.00474572568055E-07,-1.6060081179603E-05,0,0,0
2.97780957225768E-07,-1.20838712973637E-05,0,0,0
-5.44108274880273E-07,-1.57153390318854E-05,0,0,0
1.21309824407945E-06,-1.29630279843695E-05,0,0,0
3.79349467038992E-06,-1.47447490235209E-05,0,0,0
5.27189558852115E-06,-1.51715048559709E-05,0,0,0
5.33145976078231E-06,-1.70242965396028E-05,0,0,0
4.99302404932678E-06,-1.68387541634729E-05,0,0,0
4.50168045063037E-06,-1.65654237207491E-05,0,0,0
4.25742427978548E-06,-1.6385645722039E-05,0,0,0
5.44096201338107E-06,-1.57678387040505E-05,0,0,0
6.70606641506311E-06,-1.50167325045913E-05,0,0,0
6.45297586743254E-06,-1.29838845168706E-05,0,0,0
5.62454169994453E-06,-1.30390471895225E-05,0,0,0
4.9069567467086E-06,-1.32006925923633E-05,0,0,0
4.16457669416559E-06,-1.47504852066049E-05,0,0,0
3.910932719009E-06,-1.36288726935163E-05,0,0,0
4.71773728349945E-06,-1.3636506992043E-05,0,0,0
6.09337394053E-06,-1.43406432471238E-05,0,0,0
7.10562835593009E-06,-1.59667888510739E-05,0,0,0
7.72785188019043E-06,-1.62222204380669E-05,0,0,0
8.478493327857E-06,-1.74402939592255E-05,0,0,0
8.91597937879851E-06,-1.77025194716407E-05,0,0,0
9.68200674833497E-06,-1.78701266122516E-05,0,0,0
1.11315912363352E-05,-1.66084046213655E-05,0,0,0
1.0745988220151E-05,-1.55510497279465E-05,0,0,0
6.2362696553464E-06,-1.23887866720906E-05,0,0,0
6.69370820105542E-06,-1.69529721461004E-05,0,0,0
1.86679937996814E-06,-1.13276782940375E-05,0,0,0
3.10910559164768E-06,-1.41386053655879E-05,0,0,0
1.30362423078623E-06,-1.11638973976369E-05,0,0,0
2.27628220272891E-06,-1.23244590213289E-05,0,0,0
1.45713750043797E-06,-1.12611478471081E-05,0,0,0
2.23139295485453E-06,-1.18887219286989E-05,0,0,0
2.43691897594545E-06,-1.111035089707E-05,0,0,0
2.55839813689818E-06,-1.06484640127746E-05,0,0,0
1.50509424656775E-06,-1.13383212010376E-05,0,0,0
-1.33765342980041E-06,-1.16262199298944E-05,0,0,0
-2.5608599116822E-06,-1.32432332975441E-05,0,0,0
-3.50016421180044E-06,-1.64492175827036E-05,0,0,0
-3.35582103616616E-06,-2.15063155337702E-05,0,0,0
-3.32146260006994E-06,-2.26671872951556E-05,0,0,0
-2.85015607914829E-06,-2.26436532102525E-05,0,0,0
-4.10304619435919E-06,-2.078564830299E-05,0,0,0
-4.6291947910504E-06,-2.14397587114945E-05,0,0,0
-4.70449867862044E-06,-2.13403254747391E-05,0,0,0
-2.50932680501137E-06,-2.03076688194415E-05,0,0,0
3.12543988911784E-07,-1.86328252311796E-05,0,0,0
1.9395768049435E-06,-1.95955253730062E-05,0,0,0
2.08909114007838E-06,-2.1124113118276E-05,0,0,0
3.3143380733236E-06,-2.27797863772139E-05,0,0,0
5.62426339456579E-06,-2.29728557314957E-05,0,0,0
6.65765492158243E-06,-2.19463818211807E-05,0,0,0
4.22928769694408E-06,-1.68742644746089E-05,0,0,0
4.41234442405403E-06,-2.42674468609039E-05,0,0,0
1.91039930541592E-06,-2.06863060157048E-05,0,0,0
2.46919444180094E-06,-2.62117209786084E-05,0,0,0
2.08902633858088E-07,-2.09296504181111E-05,0,0,0
1.73083481058711E-06,-2.25428120756987E-05,0,0,0
2.59563694271492E-06,-2.04043044504942E-05,0,0,0
3.72240469914686E-06,-2.09409845410846E-05,0,0,0
3.46942420037522E-06,-1.99585247173673E-05,0,0,0
3.65482287634222E-06,-1.91810559044825E-05,0,0,0
4.94975847686874E-06,-1.77688452822622E-05,0,0,0
4.9120326366392E-06,-1.52977827383438E-05,0,0,0
4.00465842176345E-06,-1.50022769958014E-05,0,0,0
2.70537316282571E-06,-1.49283550854307E-05,0,0,0
2.99998828268144E-06,-1.76315570570296E-05,0,0,0
2.59188141171762E-06,-1.77843940036837E-05,0,0,0
2.54858946391323E-06,-1.86768702405971E-05,0,0,0
1.97061285689415E-06,-1.78708760358859E-05,0,0,0
2.23650181396806E-06,-1.96926321223145E-05,0,0,0
3.24801112583373E-06,-1.91710878425511E-05,0,0,0
5.84676308790222E-06,-1.8060534785036E-05,0,0,0
8.61945591168478E-06,-1.51480262502446E-05,0,0,0
1.0213814675808E-05,-1.40366446430562E-05,0,0,0
8.8286633399548E-06,-1.33952298710938E-05,0,0,0
5.8787877605937E-06,-1.35768923428259E-05,0,0,0
4.1541675273038E-06,-1.20450049507781E-05,0,0,0
3.76676621272054E-06,-1.10292903627851E-05,0,0,0
2.05332526093116E-06,-9.69862776400987E-06,0,0,0
3.5514183309715E-06,-1.34431320475414E-05,0,0,0
4.56529278380913E-06,-8.60522050061263E-06,0,0,0
4.60098817711696E-06,-9.70936889643781E-06,0,0,0
2.0318252609286E-06,-9.21027094591409E-06,0,0,0
2.3044410681905E-06,-1.32999875859241E-05,0,0,0
3.27381121678627E-06,-1.46459578900249E-05,0,0,0
3.36849120685656E-06,-1.64563462021761E-05,0,0,0
6.0901624010512E-07,-1.67757643794175E-05,0,0,0
-1.1297061064397E-06,-1.72680447576568E-05,0,0,0
7.28115253423312E-07,-1.89824677363504E-05,0,0,0
3.55516476702178E-06,-2.22563267016085E-05,0,0,0
4.54967857876909E-06,-2.73942587227793E-05,0,0,0
3.25321752825403E-06,-3.08562230202369E-05,0,0,0
1.71376598245843E-06,-3.37620876962319E-05,0,0,0
-8.08933080520546E-08,-3.28843634633813E-05,0,0,0
-1.13507792320888E-06,-3.06354559143074E-05,0,0,0
-1.98219959202106E-06,-2.83373574347934E-05,0,0,0
-2.55725490205805E-06,-2.85927853838075E-05,0,0,0
-2.90299635707925E-06,-2.66256338363746E-05,0,0,0
-1.91220738088305E-06,-2.36507712543244E-05,0,0,0
-1.20985447438215E-07,-1.98260277102236E-05,0,0,0
9.02601868801867E-07,-1.84659693331923E-05,0,0,0
-5.8368851796331E-07,-1.81024588528089E-05,0,0,0
-1.78564857833408E-06,-1.78204136318527E-05,0,0,0
-7.58433714054263E-07,-1.79571288754232E-05,0,0,0
2.07104153560067E-06,-1.80962233571336E-05,0,0,0
3.12278348246764E-06,-1.53620603668969E-05,0,0,0
4.32864999311278E-06,-2.08364454010734E-05,0,0,0
2.30585487770441E-06,-1.36011985887308E-05,0,0,0
3.12669635604834E-06,-1.60858962772181E-05,0,0,0
3.47891136698308E-06,-1.06242605397711E-05,0,0,0
3.80325536752935E-06,-1.26811564769014E-05,0,0,0
2.95898030344688E-06,-1.41999707921059E-05,0,0,0
2.69024144472496E-06,-1.66960799106164E-05,0,0,0
2.48891956289299E-06,-1.64653883985011E-05,0,0,0
3.42812745657284E-06,-1.65190394909587E-05,0,0,0
4.45424848294351E-06,-1.60595045599621E-05,0,0,0
4.45264549853164E-06,-1.49498710015905E-05,0,0,0
4.15676186094061E-06,-1.50943787957658E-05,0,0,0
2.73741738965327E-06,-1.41093414640636E-05,0,0,0
1.80927838755451E-06,-1.48445087688742E-05,0,0,0
1.43272427521879E-06,-1.49789275383228E-05,0,0,0
2.02598698706424E-06,-1.58302736963378E-05,0,0,0
2.77623553301964E-06,-1.3217195373727E-05,0,0,0
2.84438351627614E-06,-1.33297899083118E-05,0,0,0
1.97000667867542E-06,-1.35783129735501E-05,0,0,0
1.4368514484886E-06,-1.45339945447631E-05,0,0,0
-6.1600695744346E-07,-1.35990758280968E-05,0,0,0
-3.73443549506192E-06,-1.39219810080249E-05,0,0,0
-5.33698084836942E-06,-1.46833608596353E-05,0,0,0
-4.26485712523572E-06,-1.49439265442197E-05,0,0,0
-2.5144106530206E-06,-1.30074795379187E-05,0,0,0
-1.48020740198263E-06,-1.14859985842486E-05,0,0,0
-1.90628406926407E-06,-1.02372205219581E-05,0,0,0
-3.23299673254951E-06,-1.50110827235039E-05,0,0,0
-1.819856606744E-06,-1.05897015600931E-05,0,0,0
1.66883424412845E-07,-1.08721314973081E-05,0,0,0
2.25772782869171E-06,-8.40660050016595E-06,0,0,0
2.49386766881798E-06,-1.05050030470011E-05,0,0,0
2.5240271952498E-06,-1.13138112283195E-05,0,0,0
2.22176481656788E-06,-1.30378066387493E-05,0,0,0
3.29530678300216E-07,-1.29974896481144E-05,0,0,0
-2.1141840989003E-06,-1.30900107251364E-05,0,0,0
-2.61462332673545E-06,-1.3258128092275E-05,0,0,0
-4.30076170232496E-07,-1.40153242682572E-05,0,0,0
3.00637998407183E-06,-1.5765424905112E-05,0,0,0
5.90438867220655E-06,-1.57450485858135E-05,0,0,0
7.20033540346776E-06,-1.57590238814009E-05,0,0,0
7.64745982451132E-06,-1.50578680404578E-05,0,0,0
7.29181192582473E-06,-1.56520545715466E-05,0,0,0
6.13517977399169E-06,-1.49292009155033E-05,0,0,0
5.11805092173745E-06,-1.51841095430427E-05,0,0,0
5.78970821152325E-06,-1.45999729284085E-05,0,0,0
6.09952030572458E-06,-1.49122006405378E-05,0,0,0
5.10552035848377E-06,-1.56099195010029E-05,0,0,0
4.75739125249675E-06,-1.75942477653734E-05,0,0,0
5.69170697417576E-06,-1.87293990165927E-05,0,0,0
7.18330329618766E-06,-1.88372378033819E-05,0,0,0
8.75286514201434E-06,-1.59315241035074E-05,0,0,0
8.42021654534619E-06,-1.44313862620038E-05,0,0,0
5.15359261044068E-06,-1.32079994727974E-05,0,0,0
6.19044521954493E-06,-2.02153260033811E-05,0,0,0
4.11961400459404E-06,-1.62819724209839E-05,0,0,0
6.51054688205477E-06,-1.80493098014267E-05,0,0,0
5.32926651430898E-06,-1.47767386806663E-05,0,0,0
5.3733424465463E-06,-1.70004677784164E-05,0,0,0
2.67009681920172E-06,-1.6315454558935E-05,0,0,0
2.14371493711951E-06,-1.76393150468357E-05,0,0,0
1.53276630499022E-06,-1.76583671418484E-05,0,0,0
5.28037617186783E-07,-1.76389203261351E-05,0,0,0
9.36221340452903E-08,-1.74390643223887E-05,0,0,0
-6.40440092070094E-08,-1.6375877748942E-05,0,0,0
1.03215688795899E-06,-1.64227076311363E-05,0,0,0
1.76239518623333E-06,-1.64719458553009E-05,0,0,0
2.35228708334034E-06,-1.9192899344489E-05,0,0,0
1.5385543292723E-06,-1.93316664081067E-05,0,0,0
2.53736925515113E-06,-1.73741882463219E-05,0,0,0
4.23384835812612E-06,-1.2762553524226E-05,0,0,0
5.76995353185339E-06,-1.23367080959724E-05,0,0,0
4.86073304273305E-06,-1.42920807775226E-05,0,0,0
3.81696236217977E-06,-1.63106396939838E-05,0,0,0
3.08826270156715E-06,-1.57565300469287E-05,0,0,0
3.53431846633612E-06,-1.81186333065853E-05,0,0,0
3.71694568457315E-06,-2.21063437493285E-05,0,0,0
2.85462124338665E-06,-2.47231073444709E-05,0,0,0
2.73455270871636E-06,-2.30355544772465E-05,0,0,0
3.23399808621616E-06,-1.95072461792734E-05,0,0,0
9.60596139520931E-07,-1.53834280354204E-05,0,0,0
8.23374591618631E-07,-2.51575947913807E-05,0,0,0
5.25095629200223E-07,-2.45974952122197E-05,0,0,0
9.00118948266027E-08,-2.94533765554661E-05,0,0,0
-1.1719534995791E-06,-2.4709792342037E-05,0,0,0
7.42610382076236E-08,-2.39682067331159E-05,0,0,0
4.23920710090897E-07,-2.0032153770444E-05,0,0,0
2.09545888196772E-07,-1.99621426872909E-05,0,0,0
-8.87237831648235E-07,-2.04055668291403E-05,0,0,0
-1.76780633864837E-06,-2.2822405298939E-05,0,0,0
-2.47321008828294E-06,-2.47210373345297E-05,0,0,0
-3.44604518431879E-06,-2.50668690569E-05,0,0,0
-1.92609991245263E-06,-2.67825926130172E-05,0,0,0
4.43975061159563E-08,-2.70484342763666E-05,0,0,0
2.98805957754666E-07,-2.72038105322281E-05,0,0,0
-3.26325334754074E-07,-2.48380547418492E-05,0,0,0
-6.74218227914025E-08,-2.51848287007306E-05,0,0,0
7.24544975128083E-07,-2.53914149652701E-05,0,0,0
1.04357309282932E-06,-2.57730607700069E-05,0,0,0
5.52920539576007E-07,-2.25785424845526E-05,0,0,0
1.10874782421888E-06,-2.0406561816344E-05,0,0,0
3.17422177431581E-06,-1.72901982296025E-05,0,0,0
5.69600251765223E-06,-1.42679828059045E-05,0,0,0
6.68466509523569E-06,-1.17825629786239E-05,0,0,0
6.42703071207507E-06,-1.32438790387823E-05,0,0,0
6.41654287392157E-06,-1.70689709193539E-05,0,0,0
5.45447937838617E-06,-1.83367174031446E-05,0,0,0
2.58439604294836E-06,-1.48555654959637E-05,0,0,0
3.4175020573457E-06,-2.31815065490082E-05,0,0,0
2.16266357710992E-06,-2.07907942240126E-05,0,0,0
2.81688653558376E-06,-2.42369842453627E-05,0,0,0
2.64261166194046E-06,-2.00437152670929E-05,0,0,0
3.34286187353428E-06,-2.13669754884904E-05,0,0,0
3.05875187223137E-06,-2.20542897295672E-05,0,0,0
3.06559491036751E-06,-2.74466310656862E-05,0,0,0
2.60372826232924E-06,-3.00033152598189E-05,0,0,0
3.6129747513769E-06,-2.99658604490105E-05,0,0,0
5.14767543791095E-06,-2.65203598246444E-05,0,0,0
4.81512142869178E-06,-2.1580670363619E-05,0,0,0
3.95711685996503E-06,-1.92011993931374E-05,0,0,0
3.38238737640495E-06,-1.83648662641644E-05,0,0,0
3.16960017698875E-06,-2.02493138203863E-05,0,0,0
2.93119751404447E-06,-1.80051756615285E-05,0,0,0
3.49497463503212E-06,-1.53740402311087E-05,0,0,0
2.88180945062777E-06,-1.31854440041934E-05,0,0,0
1.73328123764804E-06,-1.4912724509486E-05,0,0,0
9.31977751861268E-07,-1.49756015161984E-05,0,0,0
1.13112901090062E-06,-1.41600794449914E-05,0,0,0
1.98402767637162E-06,-1.08747208287241E-05,0,0,0
2.80711310551851E-06,-9.50233970797854E-06,0,0,0
2.93267862616631E-06,-9.56681651587132E-06,0,0,0
2.03850959223928E-06,-1.14456424853415E-05,0,0,0
1.08990229819028E-06,-1.41532163979718E-05,0,0,0
1.38012751449423E-06,-1.59692153829383E-05,0,0,0
1.23849031297141E-06,-1.29525133161223E-05,0,0,0
1.72836837464274E-06,-1.67858306667767E-05,0,0,0
1.72008606114105E-06,-1.03500296972925E-05,0,0,0
1.35509071697015E-06,-1.22103192552458E-05,0,0,0
-8.30692840736447E-07,-8.95259290700778E-06,0,0,0
-1.50643688812124E-06,-1.15998736873735E-05,0,0,0
-1.07130040305492E-06,-1.05781446109177E-05,0,0,0
1.20673959713713E-07,-1.13659962153179E-05,0,0,0
-1.46049430327366E-07,-1.05812623587553E-05,0,0,0
-6.72847193072812E-07,-9.97842198557919E-06,0,0,0
7.93411800259491E-07,-8.76005924510537E-06,0,0,0
2.38795564655447E-06,-7.35226467440953E-06,0,0,0
3.29510089613905E-06,-8.20285276859067E-06,0,0,0
3.76335151486273E-06,-8.19656452222262E-06,0,0,0
4.2968308662239E-06,-1.04393511719536E-05,0,0,0
3.78071877094044E-06,-1.16773408080917E-05,0,0,0
2.99826547234261E-06,-1.29622176245903E-05,0,0,0
3.59568775820662E-06,-1.11581775854575E-05,0,0,0
5.59252384846332E-06,-1.24087819131091E-05,0,0,0
6.85266149957897E-06,-1.56165915541351E-05,0,0,0
6.98426401868346E-06,-2.07615230465308E-05,0,0,0
6.41348333374481E-06,-2.31758476729738E-05,0,0,0
5.60448734177044E-06,-2.27770087803947E-05,0,0,0
4.86375120090088E-06,-1.91568724403623E-05,0,0,0
6.45375484964461E-06,-1.76685589394765E-05,0,0,0
9.25006133911666E-06,-1.79677517735399E-05,0,0,0
9.37143522605766E-06,-1.85176504601259E-05,0,0,0
4.88043133373139E-06,-1.60724102897802E-05,0,0,0
5.41182407687302E-06,-2.36163032241166E-05,0,0,0
1.85536043773027E-06,-1.70380972122075E-05,0,0,0
2.16762555282912E-06,-1.74966207850957E-05,0,0,0
4.41586507804459E-07,-1.15447728603613E-05,0,0,0
1.66447262017755E-06,-1.25330334412865E-05,0,0,0
1.60589308961789E-06,-1.15513676064438E-05,0,0,0
2.80912718153559E-06,-1.34196779981721E-05,0,0,0
3.54574217453774E-06,-1.15749789983965E-05,0,0,0
4.26515816798201E-06,-8.94913137017284E-06,0,0,0
2.82490213976416E-06,-8.75387195264921E-06,0,0,0
8.53381365573114E-08,-1.03632373793516E-05,0,0,0
-5.21774779826956E-07,-1.22173469208064E-05,0,0,0
9.15021530545346E-07,-1.10402788777719E-05,0,0,0
2.91495962301269E-06,-1.2785111721314E-05,0,0,0
2.7845746899402E-06,-1.6525265891687E-05,0,0,0
2.4266889795399E-06,-2.39889977819985E-05,0,0,0
1.08675226329069E-06,-2.63111178355757E-05,0,0,0
3.91208601513426E-07,-2.54255155596184E-05,0,0,0
1.34278181462832E-07,-2.29512370424345E-05,0,0,0
8.06009666121099E-07,-2.37835811276454E-05,0,0,0
-2.51120127359172E-07,-2.33303671848262E-05,0,0,0
-1.87893238035031E-06,-2.19331413973123E-05,0,0,0
-2.61217246588785E-06,-1.80682964128209E-05,0,0,0
1.8673134150049E-08,-1.38196719490224E-05,0,0,0
3.50028540196945E-06,-1.22072406156803E-05,0,0,0
5.17767693963833E-06,-1.24089920063852E-05,0,0,0
3.13479245050985E-06,-1.0639743777574E-05,0,0,0
2.34352046390995E-06,-1.55991983774584E-05,0,0,0
3.41500225431446E-07,-1.27949915622594E-05,0,0,0
4.25203961640364E-06,-1.66241297847591E-05,0,0,0
5.4667566473654E-06,-1.50221494550351E-05,0,0,0
5.02577768202173E-06,-1.58551101776538E-05,0,0,0
2.73696059593931E-06,-1.49337301991181E-05,0,0,0
2.5035201360879E-06,-1.67912839970086E-05,0,0,0
2.91225501314329E-06,-1.82764051714912E-05,0,0,0
3.62990635949245E-06,-1.85684493771987E-05,0,0,0
3.76647449229495E-06,-1.85645531018963E-05,0,0,0
2.83423082692025E-06,-1.91197505046148E-05,0,0,0
2.70837495008891E-06,-1.92907718883362E-05,0,0,0
3.62870241588098E-06,-1.61454063345445E-05,0,0,0
6.5422655097791E-06,-1.41179571073735E-05,0,0,0
7.98281325842254E-06,-1.36054577524192E-05,0,0,0
7.22834192856681E-06,-1.5012991752883E-05,0,0,0
5.60276748728938E-06,-1.26042623378453E-05,0,0,0
5.50716595171252E-06,-1.02192179838312E-05,0,0,0
4.61052786704386E-06,-1.00062861747574E-05,0,0,0
2.40519921135274E-06,-1.24453927128343E-05,0,0,0
-5.64094023047801E-07,-1.35366162794526E-05,0,0,0
-2.11436076824612E-06,-1.43310044222744E-05,0,0,0
-1.57535498601646E-06,-1.40665788421757E-05,0,0,0
-5.90340050621307E-07,-1.32129671328585E-05,0,0,0
-1.28217118344764E-06,-1.37847655423684E-05,0,0,0
-6.63140781398397E-07,-1.61096450028708E-05,0,0,0
1.77996253114543E-06,-1.45709200296551E-05,0,0,0
3.5571108583099E-06,-2.01752172870329E-05,0,0,0
3.58170245817746E-06,-1.47710761666531E-05,0,0,0
3.88440366805298E-06,-2.09677218663273E-05,0,0,0
4.06343679060228E-06,-2.17877222894458E-05,0,0,0
3.13181726596667E-06,-2.44877301156521E-05,0,0,0
1.70440284819051E-06,-2.19905778067186E-05,0,0,0
1.36046287479985E-06,-2.32759448408615E-05,0,0,0
9.333822958979E-07,-2.44180155277718E-05,0,0,0
1.2121686268074E-06,-2.56281018664595E-05,0,0,0
2.2308515781333E-06,-2.50555149250431E-05,0,0,0
2.52523886956624E-06,-2.32142319873674E-05,0,0,0
1.73475234532816E-06,-2.25861949729733E-05,0,0,0
1.0133478554053E-06,-2.06439417524962E-05,0,0,0
8.70110682171799E-07,-2.04004736588104E-05,0,0,0
8.04470460025186E-07,-1.77482561412035E-05,0,0,0
1.09850498120068E-06,-1.72289364854805E-05,0,0,0
1.44079854180745E-06,-1.68400038091931E-05,0,0,0
2.11979522646288E-06,-1.7657423086348E-05,0,0,0
3.80631581720081E-06,-1.5989209714462E-05,0,0,0
5.31983005203074E-06,-1.59604769578436E-05,0,0,0
4.45562773165875E-06,-1.66485060617561E-05,0,0,0
3.55039105670585E-06,-1.87654004548676E-05,0,0,0
3.70735665455868E-06,-1.89500497072004E-05,0,0,0
5.17138232680736E-06,-1.72369527717819E-05,0,0,0
7.0515893639822E-06,-1.48322642417043E-05,0,0,0
6.75506316838437E-06,-1.58709208335495E-05,0,0,0
4.0770937630441E-06,-1.48473836816265E-05,0,0,0
6.99794463798753E-06,-1.96377986867446E-05,0,0,0
5.62607874599053E-06,-1.38601844810182E-05,0,0,0
4.654746135202E-06,-2.01069196918979E-05,0,0,0
2.76203695648292E-06,-1.7397343981429E-05,0,0,0
3.27352063322905E-06,-1.78771078935824E-05,0,0,0
4.25554480898427E-06,-1.54113095049979E-05,0,0,0
5.73335273656994E-06,-1.60484196385369E-05,0,0,0
4.94004689244321E-06,-1.63072436407674E-05,0,0,0
3.67460552297416E-06,-1.69824961631093E-05,0,0,0
3.30208717969072E-06,-1.99337082449347E-05,0,0,0
3.71540249943791E-06,-2.37959357036743E-05,0,0,0
5.10644304085872E-06,-2.70795353571884E-05,0,0,0
6.95072412781883E-06,-2.57465198956197E-05,0,0,0
7.73020110500511E-06,-2.42470941884676E-05,0,0,0
5.00694932270562E-06,-2.18792010855395E-05,0,0,0
2.42351461565704E-06,-2.23711740545696E-05,0,0,0
2.77870663012436E-06,-2.17395245272201E-05,0,0,0
4.79357231597533E-06,-2.13075672945706E-05,0,0,0
3.32433523908549E-06,-1.77016918314621E-05,0,0,0
-5.32287458554492E-07,-1.44346004162799E-05,0,0,0
-2.69550082521164E-06,-1.28500978462398E-05,0,0,0
-1.76405808360869E-06,-1.56966034410289E-05,0,0,0
-7.16806539458048E-07,-1.78908321686322E-05,0,0,0
-6.13648410308087E-07,-1.92023981071543E-05,0,0,0
-1.85656585927063E-06,-2.13294460991165E-05,0,0,0
-2.89114495899412E-06,-2.24746836465783E-05,0,0,0
-1.34741264901095E-06,-1.67507023434155E-05,0,0,0
-3.7149024478822E-07,-2.43258200498531E-05,0,0,0
7.05416383084412E-08,-1.96646251424681E-05,0,0,0
-1.79087044216431E-06,-2.33405517064966E-05,0,0,0
-4.81307331767766E-08,-1.66662775882287E-05,0,0,0
2.29737665335961E-07,-1.50190162457875E-05,0,0,0
4.79559822963438E-08,-1.008265735436E-05,0,0,0
-4.12481737654957E-09,-1.05248709587613E-05,0,0,0
-3.81873405785882E-07,-1.21754546853481E-05,0,0,0
-1.15932857625012E-06,-1.5460293070646E-05,0,0,0
-9.20070533538819E-07,-1.82379390025744E-05,0,0,0
-2.90069181119179E-07,-1.85045137186535E-05,0,0,0
-8.34207639854867E-07,-1.85510798473842E-05,0,0,0
-1.23044878819201E-06,-1.67729431268526E-05,0,0,0
2.28560210757678E-07,-1.76059184013866E-05,0,0,0
3.0170874651958E-06,-1.87985569937155E-05,0,0,0
3.72751333088672E-06,-2.27719956455985E-05,0,0,0
2.9014190658927E-06,-2.37585718423361E-05,0,0,0
2.20825950236758E-06,-2.44886650762055E-05,0,0,0
3.07717732539459E-06,-2.24903760681627E-05,0,0,0
5.11842745254398E-06,-2.31639223784441E-05,0,0,0
7.66088396630948E-06,-2.39561741182115E-05,0,0,0
7.71419672673801E-06,-2.37908679991961E-05,0,0,0
5.34819446329493E-06,-2.14249484997708E-05,0,0,0
2.94257120003749E-06,-1.94324838957982E-05,0,0,0
2.5463027668593E-06,-1.78843820322072E-05,0,0,0
3.69174426850805E-06,-1.64961275004316E-05,0,0,0
3.11107669404009E-06,-1.13166697701672E-05,0,0,0
2.62967932940228E-06,-1.47309656313155E-05,0,0,0
1.20728896035871E-06,-9.8415621323511E-06,0,0,0
3.99044165533269E-06,-1.28496085380903E-05,0,0,0
3.66755330105661E-06,-9.19664398679743E-06,0,0,0
3.84144914278295E-06,-9.75786861090455E-06,0,0,0
1.83049917268363E-06,-8.46578859636793E-06,0,0,0
1.27072587474686E-06,-9.43054601520998E-06,0,0,0
1.35716231852712E-06,-1.06120478449157E-05,0,0,0
1.96480368686025E-06,-1.28817182485363E-05,0,0,0
2.41022121372225E-06,-1.26490531329182E-05,0,0,0
3.08426660922123E-06,-1.00315974123077E-05,0,0,0
4.59161037724698E-06,-1.03471866168547E-05,0,0,0
5.20999810760259E-06,-1.03767815744504E-05,0,0,0
4.75512661068933E-06,-1.16423652798403E-05,0,0,0
2.31989474741567E-06,-1.19291889859596E-05,0,0,0
9.49495301938441E-07,-1.31048054754501E-05,0,0,0
1.55247228406097E-08,-1.22364772323635E-05,0,0,0
-5.96896143179038E-07,-1.32267969092936E-05,0,0,0
-2.26735028263647E-06,-1.55007328430656E-05,0,0,0
-3.36290690938768E-06,-1.92005554708885E-05,0,0,0
-3.23146127811924E-06,-1.9618584701675E-05,0,0,0
-1.02997353224055E-06,-1.79199487320147E-05,0,0,0
6.83283985836169E-07,-1.64262419275474E-05,0,0,0
5.14783266680752E-07,-1.70192524819868E-05,0,0,0
-6.96967276780924E-07,-1.78568971023196E-05,0,0,0
-3.68984530041416E-07,-1.80136976268841E-05,0,0,0
1.10133794350986E-06,-1.34792953758733E-05,0,0,0
3.24587813338439E-06,-1.7579943232704E-05,0,0,0
4.93784091304406E-06,-1.18042471513036E-05,0,0,0
5.89930095884483E-06,-1.57450358528877E-05,0,0,0
4.78767742606578E-06,-1.28547517306288E-05,0,0,0
3.21144170811749E-06,-1.55383531819098E-05,0,0,0
4.67518066216144E-06,-1.52851152961375E-05,0,0,0
6.08652089795214E-06,-1.62422675202833E-05,0,0,0
6.81252868162119E-06,-1.45530639201752E-05,0,0,0
8.04486080596689E-06,-1.4762567843718E-05,0,0,0
8.08682489150669E-06,-1.52515485751792E-05,0,0,0
8.23337722977158E-06,-1.35348345793318E-05,0,0,0
8.55681537359487E-06,-1.40664842547267E-05,0,0,0
8.27600069897017E-06,-1.45339226946817E-05,0,0,0
7.37503705749987E-06,-1.56759379024152E-05,0,0,0
5.95783922108239E-06,-1.38530522235669E-05,0,0,0
3.80321102966263E-06,-1.32283093989827E-05,0,0,0
1.0770305607366E-06,-1.10980217868928E-05,0,0,0
2.71847284238902E-07,-1.08089170680614E-05,0,0,0
2.11436963581946E-06,-1.10129449240048E-05,0,0,0
3.64323886969942E-06,-1.31378728838172E-05,0,0,0
3.43128999702458E-06,-1.29332111100666E-05,0,0,0
2.80452013612376E-06,-1.25973410831648E-05,0,0,0
2.06101185540319E-06,-1.30738253574236E-05,0,0,0
9.43027941957553E-07,-1.51992726387107E-05,0,0,0
3.01273900049637E-07,-1.69551422004588E-05,0,0,0
5.0959346253876E-07,-1.76666017068783E-05,0,0,0
1.77765707576327E-06,-1.37623264890863E-05,0,0,0
4.34802586823935E-06,-1.9271275959909E-05,0,0,0
3.71300529877772E-06,-1.52838438225444E-05,0,0,0
1.33199228002923E-06,-2.09441695915302E-05,0,0,0
7.20863511105563E-07,-1.89801303349668E-05,0,0,0
1.59898149831861E-06,-1.93539781321306E-05,0,0,0
1.97128133549995E-06,-1.6457233869005E-05,0,0,0
1.50199036852428E-06,-1.69286322488915E-05,0,0,0
3.6200762565386E-07,-1.77344554685988E-05,0,0,0
-2.04326170205604E-07,-1.98053567146417E-05,0,0,0
-4.99821481980689E-08,-1.98114921658998E-05,0,0,0
4.62773073195422E-07,-1.75118402694352E-05,0,0,0
1.19124740649568E-06,-1.60344407049706E-05,0,0,0
1.10517419216194E-06,-1.54010904225288E-05,0,0,0
1.32520995066443E-06,-1.86846100405091E-05,0,0,0
2.26916631618224E-06,-2.14741176023381E-05,0,0,0
2.75008233074914E-06,-2.40267090703128E-05,0,0,0
2.12466488846985E-06,-2.28148001042428E-05,0,0,0
9.73169107965077E-07,-2.15929812839022E-05,0,0,0
2.67266983655645E-07,-1.85358621820342E-05,0,0,0
4.56900380640946E-07,-1.82761814357946E-05,0,0,0
6.65100515107042E-07,-1.85625885933405E-05,0,0,0
1.11663143798069E-06,-1.838927710196E-05,0,0,0
1.59837850333133E-06,-1.58625971380388E-05,0,0,0
1.76297032794537E-06,-1.47312484841677E-05,0,0,0
1.9526839878381E-06,-1.48853605423938E-05,0,0,0
2.35912580137665E-06,-1.56964251800673E-05,0,0,0
1.48269862165762E-06,-1.48577564687002E-05,0,0,0
2.67188988800626E-06,-2.38355059991591E-05,0,0,0
4.01215356760076E-06,-2.09904446819564E-05,0,0,0
6.42650684312684E-06,-2.36061187024461E-05,0,0,0
7.14606539986562E-06,-1.95576176338363E-05,0,0,0
6.94289383318392E-06,-2.05790547624929E-05,0,0,0
5.41041617907467E-06,-1.89154197869357E-05,0,0,0
5.68176164961187E-06,-1.99627356778365E-05,0,0,0
7.31874570192304E-06,-1.9942075596191E-05,0,0,0
9.13553776626941E-06,-1.96896889974596E-05,0,0,0
8.9468030637363E-06,-1.87972600542707E-05,0,0,0
6.81827577864169E-06,-1.68206734088017E-05,0,0,0
3.92013089367538E-06,-1.78710888576461E-05,0,0,0
1.61325476710772E-06,-1.96123401110526E-05,0,0,0
9.2872829782209E-07,-2.30754176300252E-05,0,0,0
1.40071574605827E-06,-2.32345391850686E-05,0,0,0
2.39540008806216E-06,-2.17451488424558E-05,0,0,0
3.07286359202408E-06,-1.76408684637863E-05,0,0,0
3.31223850480455E-06,-1.6372889149352E-05,0,0,0
2.29259831030504E-06,-1.65763813129161E-05,0,0,0
1.66013114721864E-06,-1.95115153474035E-05,0,0,0
1.62328319674998E-06,-2.21615318878321E-05,0,0,0
1.35969128223223E-06,-2.51189430855447E-05,0,0,0
1.33511639432982E-06,-2.67328014160739E-05,0,0,0
2.4141975245584E-06,-2.64844129560515E-05,0,0,0
1.93533355741238E-06,-2.51378660323098E-05,0,0,0
1.0248884336761E-06,-2.44310031121131E-05,0,0,0
1.23117354178248E-06,-1.85093686013715E-05,0,0,0
2.39273845181742E-06,-2.44839957304066E-05,0,0,0
2.16195121538476E-06,-1.51014337461675E-05,0,0,0
1.71990711805847E-06,-1.77813071786659E-05,0,0,0
9.56112785388541E-07,-1.41555055961362E-05,0,0,0
8.37044808577048E-07,-1.89960956049617E-05,0,0,0
8.47299872930307E-07,-1.66930512932595E-05,0,0,0
5.23082690051524E-07,-1.56479709403357E-05,0,0,0
4.16360876442923E-07,-1.44232226375607E-05,0,0,0
9.73576788965147E-07,-1.61467287398409E-05,0,0,0
1.62690025717893E-06,-1.7457172361901E-05,0,0,0
2.64320124188089E-06,-1.67549096659059E-05,0,0,0
4.77548564958852E-06,-1.72556992765749E-05,0,0,0
6.88870250087348E-06,-1.61783500516322E-05,0,0,0
7.30473493604222E-06,-1.68571150425123E-05,0,0,0
5.43611031389446E-06,-1.48620001709787E-05,0,0,0
3.37814776685264E-06,-1.62342294061091E-05,0,0,0
2.61471996054752E-06,-1.78539030457614E-05,0,0,0
3.06344350065046E-06,-2.19431676669046E-05,0,0,0
3.76698062609648E-06,-2.27551718126051E-05,0,0,0
4.11917471865308E-06,-2.39483524637762E-05,0,0,0
3.47511058862437E-06,-2.32259881158825E-05,0,0,0
1.63780043749284E-06,-2.2770807845518E-05,0,0,0
8.61397552398557E-07,-2.21608279389329E-05,0,0,0
1.84525742952246E-06,-2.26711181312567E-05,0,0,0
2.47328034674865E-06,-2.17208398680668E-05,0,0,0
2.54848350778047E-06,-1.90270111488644E-05,0,0,0
1.22355379517103E-06,-1.28236370073864E-05,0,0,0
9.55303221417125E-07,-1.8166218069382E-05,0,0,0
6.84965186792397E-07,-1.59110149979824E-05,0,0,0
2.96951043310401E-06,-2.08615965675563E-05,0,0,0
2.80720655609912E-06,-1.79362577910069E-05,0,0,0
5.34012315256405E-07,-2.01176462724106E-05,0,0,0
-5.27252097981545E-07,-1.8428447219776E-05,0,0,0
2.55916961577896E-06,-1.85637054528343E-05,0,0,0
5.59483305551112E-06,-1.69643953995546E-05,0,0,0
5.28111968378653E-06,-1.59752999024931E-05,0,0,0
2.74131207333994E-06,-1.58857237693155E-05,0,0,0
1.32381683215499E-06,-1.51648764585843E-05,0,0,0
2.72575925919227E-06,-1.51541589730186E-05,0,0,0
5.19863806403009E-06,-1.36140497488668E-05,0,0,0
5.51860830455553E-06,-1.47762448250432E-05,0,0,0
3.82256257580593E-06,-1.5719984730822E-05,0,0,0
2.91657829620817E-06,-1.76433150045341E-05,0,0,0
2.99365478895197E-06,-1.74203451024368E-05,0,0,0
3.17812987304933E-06,-1.86880988621851E-05,0,0,0
1.49151242112566E-06,-1.91740982700139E-05,0,0,0
-1.07269772797736E-06,-2.07495304493932E-05,0,0,0
-2.09411541618465E-06,-1.99288169824285E-05,0,0,0
-3.37750861945096E-07,-1.77995643753093E-05,0,0,0
2.36281493926072E-06,-1.46350230352255E-05,0,0,0
3.51931635123037E-06,-1.36912904054043E-05,0,0,0
2.49113600148121E-06,-1.47218133861315E-05,0,0,0
8.95253833732568E-07,-1.61217139975633E-05,0,0,0
-1.2196420584587E-06,-1.38940658871434E-05,0,0,0
-1.6635821964428E-07,-1.92047555174213E-05,0,0,0
3.24097823067859E-06,-1.3402853255684E-05,0,0,0
4.75733349958318E-06,-1.57041176862549E-05,0,0,0
5.13285749548231E-06,-1.24651214719051E-05,0,0,0
3.49386527886963E-06,-1.60256349772681E-05,0,0,0
3.17593867293908E-06,-1.56602309289156E-05,0,0,0
4.75886463391362E-06,-1.61279240273871E-05,0,0,0
5.40036353413598E-06,-1.60824602062348E-05,0,0,0
4.24799782194896E-06,-1.63392705871956E-05,0,0,0
3.30986108565412E-06,-1.61476564244367E-05,0,0,0
2.09401650863583E-06,-1.62021551659564E-05,0,0,0
5.3988901527191E-07,-1.70404018717818E-05,0,0,0
6.11947712059191E-07,-1.58780076162657E-05,0,0,0
5.29519468273065E-08,-1.69895047292812E-05,0,0,0
-1.27144096495613E-06,-1.78015925484942E-05,0,0,0
-1.39353971917444E-06,-1.99859387066681E-05,0,0,0
4.9625771225692E-07,-1.97269491764018E-05,0,0,0
1.78250570570526E-06,-1.98865491256583E-05,0,0,0
1.57337399286916E-06,-1.85545595741132E-05,0,0,0
4.74567457331432E-07,-1.79579710675171E-05,0,0,0
1.96810773900324E-07,-1.57680133270333E-05,0,0,0
1.13523356048972E-06,-1.42257822517422E-05,0,0,0
1.72660156749771E-06,-1.28368110381416E-05,0,0,0
1.9271649307484E-06,-1.40022857522126E-05,0,0,0
3.02714238387125E-06,-1.46015036079916E-05,0,0,0
3.47358968610934E-06,-1.35305617732229E-05,0,0,0
2.30618070418132E-06,-9.6806379588088E-06,0,0,0
2.63978108705487E-06,-1.188431178889E-05,0,0,0
6.60471300761856E-07,-6.54807081446052E-06,0,0,0
1.05741685274552E-06,-8.30860881251283E-06,0,0,0
1.37777283271134E-06,-6.0350721469149E-06,0,0,0
2.05634296435164E-06,-8.64151297719218E-06,0,0,0
1.48793878906872E-06,-9.42857059271773E-06,0,0,0
1.57759791363787E-06,-1.19220740089077E-05,0,0,0
1.67492339642195E-06,-1.23905765576637E-05,0,0,0
2.77090862255136E-06,-1.23600921142497E-05,0,0,0
4.80655762657989E-06,-1.33276089400169E-05,0,0,0
6.17353725829162E-06,-1.50783043864067E-05,0,0,0
6.14216060057515E-06,-1.69231807376491E-05,0,0,0
4.76886589240166E-06,-1.6958316336968E-05,0,0,0
4.21047798226937E-06,-1.85677890840452E-05,0,0,0
4.6721856961085E-06,-2.00050617422676E-05,0,0,0
5.10814834342455E-06,-2.2588190404349E-05,0,0,0
4.60583987660357E-06,-2.22862654482014E-05,0,0,0
4.76695231554913E-06,-2.19644407479791E-05,0,0,0
5.10528752784012E-06,-2.13528164749732E-05,0,0,0
5.10891322846874E-06,-2.24119976337533E-05,0,0,0
4.53133634437108E-06,-2.16450680454727E-05,0,0,0
5.29861063114367E-06,-1.91406161320629E-05,0,0,0
6.4679584284022E-06,-1.70416806213325E-05,0,0,0
6.51636446491466E-06,-1.67734397109598E-05,0,0,0
5.54152529730345E-06,-1.89246511581587E-05,0,0,0
4.04294769396074E-06,-2.28527642320842E-05,0,0,0
1.90577839020989E-06,-1.67335201695096E-05,0,0,0
2.97358860734676E-06,-2.09240224648966E-05,0,0,0
3.8363191379176E-06,-1.24072685139254E-05,0,0,0
5.4332858780981E-06,-1.82535495696357E-05,0,0,0
4.96022585139144E-06,-1.70974581124028E-05,0,0,0
4.48817081633024E-06,-2.20973852265161E-05,0,0,0
2.45651790464763E-06,-2.10272846743464E-05,0,0,0
1.93656137525977E-06,-2.11745755223092E-05,0,0,0
2.80461904367257E-06,-2.0518054952845E-05,0,0,0
4.49606159236282E-06,-2.22577345994068E-05,0,0,0
6.36400318398955E-06,-2.44473176280735E-05,0,0,0
8.11003701528534E-06,-2.31509275181452E-05,0,0,0
8.79237541084876E-06,-1.95263000932755E-05,0,0,0
7.08227798895678E-06,-1.4100965927355E-05,0,0,0
3.93136360798962E-06,-1.27560979308328E-05,0,0,0
1.35279094592988E-06,-1.17582967504859E-05,0,0,0
1.45856370181718E-06,-1.46194788612775E-05,0,0,0
2.47291700361529E-06,-1.64959947142052E-05,0,0,0
2.68815324488969E-06,-1.88835238077445E-05,0,0,0
1.3814773183185E-06,-1.77614892891143E-05,0,0,0
-1.39293362622084E-07,-1.58672974066576E-05,0,0,0
-1.59924275067169E-06,-1.10062219391693E-05,0,0,0
-1.88552007784892E-06,-9.03255840967176E-06,0,0,0
-1.49148991113179E-06,-1.02959538708092E-05,0,0,0
-4.10916868531785E-07,-1.37213828566018E-05,0,0,0
1.04012258361763E-06,-1.55071884364588E-05,0,0,0
2.17021101889259E-06,-1.52105294546345E-05,0,0,0
1.5029892210805E-06,-1.33712055685464E-05,0,0,0
1.20256083846471E-06,-2.30126952374121E-05,0,0,0
3.88681549168268E-08,-2.44477269006893E-05,0,0,0
4.66402070742333E-07,-3.14388234983198E-05,0,0,0
-3.81364912982463E-08,-3.09111819660757E-05,0,0,0
9.82461187959416E-07,-3.27143570757471E-05,0,0,0
1.16582589271275E-06,-3.01506370306015E-05,0,0,0
5.54800806185085E-07,-2.83438548649428E-05,0,0,0
-6.34181162695313E-07,-2.47794068855001E-05,0,0,0
-8.71176155214926E-07,-1.98194229596993E-05,0,0,0
7.91749414474907E-07,-1.65243545779958E-05,0,0,0
2.14176839108404E-06,-1.42262115332414E-05,0,0,0
2.03306990442798E-06,-1.38503100970411E-05,0,0,0
1.22158814974682E-06,-1.35980053528328E-05,0,0,0
7.0016994868638E-07,-1.40247675517458E-05,0,0,0
-3.04884110846615E-07,-1.25533342725248E-05,0,0,0
-1.40563301442853E-07,-1.32896666400484E-05,0,0,0
1.08536789866776E-06,-1.41327027449734E-05,0,0,0
2.65963740275765E-06,-1.60488671099301E-05,0,0,0
2.29209967983479E-06,-1.6233900169027E-05,0,0,0
3.74635163780113E-07,-1.61525422299746E-05,0,0,0
-5.6647519386388E-07,-1.61174011736875E-05,0,0,0
-8.94569438969484E-07,-1.90028422366595E-05,0,0,0
-1.73783718082632E-07,-2.23143051698571E-05,0,0,0
2.69669499175507E-06,-2.46034232986858E-05,0,0,0
4.02475370719912E-06,-2.49921486101812E-05,0,0,0
3.27949828715646E-06,-2.39577530010138E-05,0,0,0
2.72778220278269E-06,-1.80916649696883E-05,0,0,0
5.04945137436152E-06,-2.338576814509E-05,0,0,0
5.17763601237675E-06,-1.41412892844528E-05,0,0,0
6.01409055889235E-06,-1.72576474142261E-05,0,0,0
6.67022277411888E-06,-1.1653177352855E-05,0,0,0
7.11015809429227E-06,-1.35894852064666E-05,0,0,0
4.59546345155104E-06,-1.31781553136534E-05,0,0,0
1.58425041263399E-06,-1.56749374582432E-05,0,0,0
-8.43359202917782E-07,-1.50935165947885E-05,0,0,0
-9.82659116743889E-07,-1.71356641658349E-05,0,0,0
-1.71780428104285E-07,-1.82776457222644E-05,0,0,0
-3.07495952256431E-07,-1.63531840371434E-05,0,0,0
3.17882864919738E-07,-1.59826286108E-05,0,0,0
1.81827942924428E-06,-1.52841239469126E-05,0,0,0
2.76894684247964E-06,-1.60919535119319E-05,0,0,0
2.3558197881357E-06,-1.34530300783808E-05,0,0,0
2.56965540756937E-06,-1.46893917190027E-05,0,0,0
3.08905919155222E-06,-1.62239939527353E-05,0,0,0
3.13890836878272E-06,-1.82608418981545E-05,0,0,0
2.69066367764026E-06,-1.54072076838929E-05,0,0,0
2.79726350527199E-06,-1.3206271432864E-05,0,0,0
2.35772199630446E-06,-1.00582883533207E-05,0,0,0
1.75507534549979E-06,-9.07330468180589E-06,0,0,0
2.56375915341778E-06,-9.56253006734187E-06,0,0,0
4.25960388383828E-06,-1.15558277684613E-05,0,0,0
3.13601572088373E-06,-1.09021466414561E-05,0,0,0
1.57860779381735E-06,-9.08303536562016E-06,0,0,0
9.48052502280916E-07,-6.71883071845514E-06,0,0,0
1.09765903744119E-06,-1.06188854260836E-05,0,0,0
5.1728721928157E-07,-1.07616142486222E-05,0,0,0
3.18278324584753E-07,-1.36705157274264E-05,0,0,0
-1.1071300605181E-06,-1.32647728605662E-05,0,0,0
-2.12338818528224E-06,-1.56773476192029E-05,0,0,0
-3.24835286846792E-06,-1.59350402100245E-05,0,0,0
-3.33332786794927E-06,-1.47629507409874E-05,0,0,0
-2.66941424342804E-06,-1.14916319944314E-05,0,0,0
-1.07203516108711E-06,-9.78250864136498E-06,0,0,0
1.72896000094624E-06,-1.01952773547964E-05,0,0,0
3.51251696883992E-06,-1.17467343443423E-05,0,0,0
3.80124129151227E-06,-1.43583538374514E-05,0,0,0
3.60218632522447E-06,-1.55046927829972E-05,0,0,0
3.28478836308932E-06,-1.68605165526969E-05,0,0,0
3.08972767015803E-06,-1.70834318851121E-05,0,0,0
4.06509843742242E-06,-1.6978428902803E-05,0,0,0
5.2327059165691E-06,-1.54774606926367E-05,0,0,0
5.94362654737779E-06,-1.54658755491255E-05,0,0,0
6.95066137268441E-06,-1.56085170601727E-05,0,0,0
7.50890148992767E-06,-1.51921403812594E-05,0,0,0
6.39218342257664E-06,-1.35716300064814E-05,0,0,0
5.354949280445E-06,-1.21764423965942E-05,0,0,0
5.56473014512449E-06,-1.14086933535873E-05,0,0,0
5.64198353458778E-06,-1.31308661366347E-05,0,0,0
5.23498465554439E-06,-1.57159374793991E-05,0,0,0
4.43148519480019E-06,-1.61132629727945E-05,0,0,0
9.50338744587498E-07,-1.19762244139565E-05,0,0,0
-3.50419753658571E-07,-1.82195162778953E-05,0,0,0
-1.32830894017388E-06,-1.63337608682923E-05,0,0,0
9.9100202533009E-07,-1.9964752937085E-05,0,0,0
1.81316204361792E-06,-1.60535309987608E-05,0,0,0
2.20504193748639E-06,-1.70222829183331E-05,0,0,0
1.1646467328319E-06,-1.77663096110336E-05,0,0,0
5.14339831170219E-07,-1.97590852621943E-05,0,0,0
4.34439272112286E-07,-1.78072968992637E-05,0,0,0
4.93003085466626E-07,-1.73598855326418E-05,0,0,0
1.84067545205835E-07,-1.84748314495664E-05,0,0,0
-3.81393533643859E-07,-1.8194205040345E-05,0,0,0
-6.8146766807331E-07,-1.83488828042755E-05,0,0,0
-1.12935140350601E-06,-2.00790655071614E-05,0,0,0
-9.25275458030228E-07,-2.40518966165837E-05,0,0,0
3.60076711558577E-07,-2.49217155214865E-05,0,0,0
2.79444680018059E-06,-2.64248174062232E-05,0,0,0
3.576759581847E-06,-2.66722690867027E-05,0,0,0
3.05500861941255E-06,-2.67033938143868E-05,0,0,0
2.88121213998238E-06,-2.39627097471384E-05,0,0,0
3.02561625176168E-06,-2.22211383515969E-05,0,0,0
2.39329756368534E-06,-2.0780009435839E-05,0,0,0
2.24020527639368E-06,-2.03861309273634E-05,0,0,0
2.92822278424865E-06,-1.77614456333686E-05,0,0,0
3.80470964955748E-06,-1.45036301546497E-05,0,0,0
4.44401621280122E-06,-1.22969868243672E-05,0,0,0
5.34113814865123E-06,-1.29341251522419E-05,0,0,0
6.11823679719237E-06,-1.33479152282234E-05,0,0,0
8.9779423433356E-06,-2.1061539882794E-05,0,0,0
6.38084929960314E-06,-1.75159784703283E-05,0,0,0
7.01410863257479E-06,-2.02577411982929E-05,0,0,0
6.39325071460917E-06,-1.82596486411057E-05,0,0,0
7.5729149102699E-06,-2.08872679650085E-05,0,0,0
6.92907451593783E-06,-2.15864802157739E-05,0,0,0
7.91976253822213E-06,-2.31706944759935E-05,0,0,0
7.31925183572457E-06,-2.09599911613623E-05,0,0,0
5.7389465837332E-06,-1.78995251189917E-05,0,0,0
3.66997869605257E-06,-1.65042783919489E-05,0,0,0
2.81403981716721E-06,-1.58669336087769E-05,0,0,0
4.78513720736373E-06,-1.70241910382174E-05,0,0,0
7.26866119293845E-06,-1.7120208212873E-05,0,0,0
8.59050851431675E-06,-1.84652835741872E-05,0,0,0
6.98038820701186E-06,-1.97767367353663E-05,0,0,0
6.40942062091199E-06,-2.24181585508632E-05,0,0,0
6.73925842420431E-06,-2.18125205719844E-05,0,0,0
7.99592180555919E-06,-2.10241269087419E-05,0,0,0
7.70953920437023E-06,-1.89888742170297E-05,0,0,0
7.1728586590325E-06,-1.8765091226669E-05,0,0,0
5.09715800944832E-06,-1.96256241906667E-05,0,0,0
4.20216792917927E-06,-2.02135652216384E-05,0,0,0
5.73867691855412E-06,-1.8564276615507E-05,0,0,0
7.00134387443541E-06,-1.73461812664755E-05,0,0,0
5.9326007431082E-06,-1.69520772033138E-05,0,0,0
4.6238124014053E-06,-1.69298145920038E-05,0,0,0
3.41390045832668E-06,-1.21093698908226E-05,0,0,0
5.74849445911241E-06,-1.72335348906927E-05,0,0,0
5.91854040976614E-06,-1.39993526317994E-05,0,0,0
7.19267109161592E-06,-1.63373897521524E-05,0,0,0
7.08250036041136E-06,-9.97808456304483E-06,0,0,0
6.91549712428241E-06,-1.06570414573071E-05,0,0,0
4.32752131018788E-06,-1.10934051917866E-05,0,0,0
2.38428560805914E-06,-1.33970888782642E-05,0,0,0
2.49423351306177E-07,-1.35329719341826E-05,0,0,0
-2.81221133491272E-07,-1.29803220261238E-05,0,0,0
6.94865491368546E-07,-1.32374616441666E-05,0,0,0
1.34328593048849E-06,-1.48626777445315E-05,0,0,0
2.45615319727222E-06,-1.6682235582266E-05,0,0,0
2.66379174718168E-06,-1.47278242366156E-05,0,0,0
2.29823444897193E-06,-1.31721117213601E-05,0,0,0
2.37141830439214E-06,-1.06026027424377E-05,0,0,0
3.4330989819864E-06,-1.03283837233903E-05,0,0,0
3.80224514628935E-06,-1.03876163848327E-05,0,0,0
3.41410282089782E-06,-1.15663433462032E-05,0,0,0
1.77707840975927E-06,-1.0545252735028E-05,0,0,0
7.57657744543394E-07,-1.21202547234134E-05,0,0,0
1.01935097518435E-06,-1.58205548359547E-05,0,0,0
2.01093280338682E-06,-1.98289490072057E-05,0,0,0
1.77451568106335E-06,-2.10894268093398E-05,0,0,0
1.17566969493055E-06,-2.19435496546794E-05,0,0,0
2.85726827087274E-07,-2.31792964768829E-05,0,0,0
-1.4215034980225E-06,-2.59528915194096E-05,0,0,0
-3.11449639411876E-06,-2.29888664762257E-05,0,0,0
-3.41307941198465E-06,-3.21969455399085E-05,0,0,0
-9.67880168900592E-07,-2.27527125389315E-05,0,0,0
-1.5911928130663E-06,-2.53303041972686E-05,0,0,0
2.81143030633757E-07,-1.6167603462236E-05,0,0,0
1.35531024625379E-06,-1.69115737662651E-05,0,0,0
1.54062183810311E-06,-1.35395393954241E-05,0,0,0
1.4956830796109E-07,-1.48738163261442E-05,0,0,0
-7.55771566218755E-07,-1.5328669178416E-05,0,0,0
-6.16777015238767E-07,-1.80070073838579E-05,0,0,0
-1.89686971907577E-07,-1.93008927453775E-05,0,0,0
3.01765197718851E-07,-1.64967459568288E-05,0,0,0
1.49867446452845E-06,-1.51645635924069E-05,0,0,0
3.64127686225402E-06,-1.25524038594449E-05,0,0,0
4.03414969696314E-06,-1.36384551296942E-05,0,0,0
3.16439968628401E-06,-1.39527928695315E-05,0,0,0
2.00427484742249E-06,-1.80461029231083E-05,0,0,0
2.53421262641496E-06,-1.91733561223373E-05,0,0,0
4.02743899030611E-06,-2.095411218761E-05,0,0,0
5.10687596033677E-06,-2.02206974790897E-05,0,0,0
4.04006323151407E-06,-2.12338654819177E-05,0,0,0
1.98515522242815E-06,-2.01813945750473E-05,0,0,0
-1.1271848876504E-07,-2.10408488783287E-05,0,0,0
-3.05093294628023E-07,-2.03421968762996E-05,0,0,0
2.15056601859942E-07,-1.83530191861792E-05,0,0,0
-4.10097612757454E-07,-1.58099755935837E-05,0,0,0
-1.46430204495118E-06,-1.53991586557822E-05,0,0,0
-4.12709169950176E-07,-1.40570673465845E-05,0,0,0
-5.17257028320728E-08,-1.92388233699603E-05,0,0,0
-1.86656336609303E-07,-1.31346532725729E-05,0,0,0
-1.31299702843535E-06,-1.59402115968987E-05,0,0,0
-1.63016954957129E-06,-1.34450147015741E-05,0,0,0
-2.82955465991108E-06,-1.73128464666661E-05,0,0,0
-3.02775652016862E-06,-1.85343396879034E-05,0,0,0
-2.17342881114746E-06,-2.04415810003411E-05,0,0,0
-2.80884751191479E-06,-1.9061379134655E-05,0,0,0
-3.78362938135979E-06,-1.77690999407787E-05,0,0,0
-3.73448415302846E-06,-1.78575901372824E-05,0,0,0
-3.7116128623893E-06,-1.68311253219144E-05,0,0,0
-3.15482111545862E-06,-1.65041019499768E-05,0,0,0
-1.66402446666325E-06,-1.50959131133277E-05,0,0,0
-1.1248443065881E-08,-1.60546624101698E-05,0,0,0
9.02549004422326E-07,-1.68495407706359E-05,0,0,0
7.7030858847138E-07,-1.98043471755227E-05,0,0,0
3.3503224017295E-07,-1.9892298951163E-05,0,0,0
8.73956338409698E-08,-1.93306350411149E-05,0,0,0
4.42569429992545E-08,-1.70783096109517E-05,0,0,0
-1.09197742403921E-07,-1.52040456669056E-05,0,0,0
-1.7890461379011E-07,-1.26967988762772E-05,0,0,0
4.12616344647176E-07,-1.26509958136012E-05,0,0,0
2.55692339123925E-06,-1.39928042699466E-05,0,0,0
4.45411387772765E-06,-1.67725665960461E-05,0,0,0
4.84359725305694E-06,-1.729688483465E-05,0,0,0
3.99523923988454E-06,-1.70943312696181E-05,0,0,0
1.89507807135669E-06,-1.42984254125622E-05,0,0,0
1.27387716020166E-06,-1.92642673937371E-05,0,0,0
3.33834634602681E-07,-1.3202748959884E-05,0,0,0
2.83502345155284E-06,-1.68221704370808E-05,0,0,0
4.78089896205347E-06,-1.43104707603925E-05,0,0,0
7.17690681995009E-06,-1.70715156855294E-05,0,0,0
6.82378367855563E-06,-1.59037263074424E-05,0,0,0
7.27161750546657E-06,-1.63635286298813E-05,0,0,0
7.38248127163388E-06,-1.51241893036058E-05,0,0,0
7.53604490455473E-06,-1.57274007506203E-05,0,0,0
7.18882802175358E-06,-1.79462385858642E-05,0,0,0
5.29750104760751E-06,-1.94752374227392E-05,0,0,0
3.98038855564664E-06,-1.98754714801908E-05,0,0,0
3.71274791177711E-06,-1.7689048036118E-05,0,0,0
4.68016969534801E-06,-1.80995448317844E-05,0,0,0
5.09021720063174E-06,-1.83367519639432E-05,0,0,0
5.08599441673141E-06,-1.97386307263514E-05,0,0,0
4.16588636653614E-06,-1.83301726792706E-05,0,0,0
3.32548097503604E-06,-1.89856727956794E-05,0,0,0
2.2955532585911E-06,-1.92494753719075E-05,0,0,0
2.42148598772474E-06,-1.93997384485556E-05,0,0,0
3.49330457538599E-06,-1.664828050707E-05,0,0,0
5.37245796294883E-06,-1.56054247781867E-05,0,0,0
5.43477744940901E-06,-1.62693431775551E-05,0,0,0
3.56295709025289E-06,-1.82047442649491E-05,0,0,0
2.30664068112674E-06,-1.83565589395585E-05,0,0,0
2.82158316622372E-06,-1.76203320734203E-05,0,0,0
3.81191239284817E-06,-1.5396466551465E-05,0,0,0
5.54884036318981E-06,-2.31690701184561E-05,0,0,0
4.19622938352404E-06,-1.89686525118304E-05,0,0,0
5.21987067259033E-06,-2.26728134293808E-05,0,0,0
4.24213430960663E-06,-2.02051996893715E-05,0,0,0
4.8403207983938E-06,-2.17049000639236E-05,0,0,0
6.42312625132035E-06,-1.9147779312334E-05,0,0,0
8.68559345690301E-06,-2.10429061553441E-05,0,0,0
9.42524548008805E-06,-2.24129053094657E-05,0,0,0
9.00248687685234E-06,-2.24174091272289E-05,0,0,0
7.79617766966112E-06,-2.01042075786972E-05,0,0,0
5.91837488173041E-06,-1.71202609635657E-05,0,0,0
5.08370339957764E-06,-1.5702928067185E-05,0,0,0
5.97349890085752E-06,-1.33164130602381E-05,0,0,0
7.01955968906987E-06,-1.34807150971028E-05,0,0,0
5.76173397348612E-06,-1.31883998619742E-05,0,0,0
4.55600684290403E-06,-1.46516076711123E-05,0,0,0
3.83585120289354E-06,-1.37514543894213E-05,0,0,0
3.32377180711774E-06,-1.42646140375291E-05,0,0,0
2.52692461799597E-06,-1.40714309964096E-05,0,0,0
2.4448850126646E-06,-1.52535021697986E-05,0,0,0
2.42462579080893E-06,-1.47388773257262E-05,0,0,0
3.20602589454211E-06,-1.37085398819181E-05,0,0,0
3.3935052670131E-06,-1.21310376925976E-05,0,0,0
2.50570815296669E-06,-1.44778250614763E-05,0,0,0
9.62779495239374E-07,-1.95609263755614E-05,0,0,0
4.33273811495383E-07,-2.45890842052177E-05,0,0,0
-4.0476771800968E-07,-2.20498586713802E-05,0,0,0
-1.24040082027932E-06,-3.2933872716967E-05,0,0,0
-2.53460711974185E-06,-2.66832721536048E-05,0,0,0
-3.11871121994045E-06,-3.12058145937044E-05,0,0,0
-2.11412134376587E-06,-2.41786710830638E-05,0,0,0
-2.57761416833091E-06,-2.57183364738012E-05,0,0,0
-4.54754217571463E-06,-2.39976052398561E-05,0,0,0
-5.85653333473601E-06,-2.60810793406563E-05,0,0,0
-4.79657819596468E-06,-2.5335039026686E-05,0,0,0
-2.54156429946306E-06,-2.28375847655116E-05,0,0,0
-8.602557386439E-07,-2.01291877601761E-05,0,0,0
8.99606789062091E-07,-1.72554409800796E-05,0,0,0
1.54334566104808E-06,-1.67038506333483E-05,0,0,0
1.70673388311116E-06,-1.51800277308212E-05,0,0,0
1.46562604186329E-06,-1.70886705745943E-05,0,0,0
1.79986443527014E-06,-1.88598423846997E-05,0,0,0
3.45180046679161E-06,-2.34268427448114E-05,0,0,0
4.7175581130432E-06,-2.38259017351083E-05,0,0,0
4.23508072344703E-06,-2.37648273468949E-05,0,0,0
3.38995550919208E-06,-2.15513282455504E-05,0,0,0
3.9882165765448E-06,-2.17009637708543E-05,0,0,0
4.64934328192612E-06,-1.97484787349822E-05,0,0,0
3.98205429519294E-06,-1.79659964487655E-05,0,0,0
3.44907539329142E-06,-1.51656968228053E-05,0,0,0
2.64030791186087E-06,-1.19232381621259E-05,0,0,0
1.1987576726824E-06,-8.4740322563448E-06,0,0,0
1.45026342579513E-06,-7.23717812434188E-06,0,0,0
3.54735016117047E-06,-6.44914007352781E-06,0,0,0
5.94111043028533E-06,-9.96515063889092E-06,0,0,0
4.5514775592892E-06,-7.81161634222372E-06,0,0,0
3.5271900742373E-06,-7.78153025748907E-06,0,0,0
2.07045627576008E-06,-6.71689940645592E-06,0,0,0
2.23203460336663E-06,-8.35345508676255E-06,0,0,0
2.11169663089095E-06,-7.8127904998837E-06,0,0,0
2.94254709842789E-06,-8.26785890239989E-06,0,0,0
2.8189713248139E-06,-7.9414967331104E-06,0,0,0
1.89623779078829E-06,-5.8826867643802E-06,0,0,0
1.56021906150272E-06,-3.88199487133534E-06,0,0,0
1.1207743000341E-06,-3.70417774320231E-06,0,0,0
8.31648435450916E-07,-6.99223437550245E-06,0,0,0
1.94100812223041E-06,-1.05053195511573E-05,0,0,0
4.69082715426339E-06,-1.28853844216792E-05,0,0,0
5.71995542486547E-06,-1.3832872355124E-05,0,0,0
5.74442947254283E-06,-1.62374490173534E-05,0,0,0
5.66642347621382E-06,-1.86656561709242E-05,0,0,0
6.09775361226639E-06,-2.11987971852068E-05,0,0,0
4.95347194373608E-06,-2.1600264517474E-05,0,0,0
2.71082330982608E-06,-2.09723293664865E-05,0,0,0
2.15464046959823E-06,-1.97636272787349E-05,0,0,0
2.96582243208832E-06,-1.94157219084445E-05,0,0,0
2.30338901019422E-06,-2.01510720216902E-05,0,0,0
1.52574148160056E-06,-2.19956618821016E-05,0,0,0
9.82144001682173E-07,-2.29494289669674E-05,0,0,0
1.22607616503956E-07,-2.12363956961781E-05,0,0,0
-1.48712365444226E-06,-1.39923158712918E-05,0,0,0
-1.8736084257398E-06,-1.86503184522735E-05,0,0,0
5.36542586360156E-07,-1.4513550013362E-05,0,0,0
2.01063130589318E-06,-1.95746779354522E-05,0,0,0
1.51859512698138E-06,-1.58873299369588E-05,0,0,0
-4.22286916546E-07,-1.8559760064818E-05,0,0,0
-1.0612757250783E-06,-1.7380089047947E-05,0,0,0
-7.75720764067955E-07,-1.87289660971146E-05,0,0,0
-2.77113684887809E-07,-1.82998537638923E-05,0,0,0
-2.56529290254548E-07,-1.92766874533845E-05,0,0,0
-4.42369298525591E-07,-2.09463451028569E-05,0,0,0
3.30272115434127E-07,-2.1558633306995E-05,0,0,0
2.07652965400484E-06,-2.26395695790416E-05,0,0,0
3.20931189889961E-06,-2.3318867533817E-05,0,0,0
2.37462427321589E-06,-2.53837752097752E-05,0,0,0
9.48941192291386E-07,-2.36627529375255E-05,0,0,0
2.39826164261103E-07,-2.37919794017216E-05,0,0,0
4.67729421416152E-07,-2.36197756748879E-05,0,0,0
6.84715701027017E-07,-2.43890335696051E-05,0,0,0
6.74767619557315E-08,-2.17582419281825E-05,0,0,0
-5.50092750017939E-07,-1.89082074939506E-05,0,0,0
1.27380110370723E-06,-1.55908401211491E-05,0,0,0
4.93641164212022E-06,-1.5281673768186E-05,0,0,0
8.25807182991412E-06,-1.55321649799589E-05,0,0,0
7.7747254181304E-06,-1.73253738466883E-05,0,0,0
5.26765325048473E-06,-1.94177337107249E-05,0,0,0
3.95991355617298E-06,-2.12672839552397E-05,0,0,0
1.07419157302502E-06,-1.55244524648879E-05,0,0,0
2.50112265121061E-07,-1.92965617316077E-05,0,0,0
-2.40975737142435E-07,-1.25541000670637E-05,0,0,0
3.0522378438036E-06,-1.74041961145122E-05,0,0,0
4.61260469819536E-06,-1.3448241588776E-05,0,0,0
3.91858748116647E-06,-1.52599659486441E-05,0,0,0
2.21128448174568E-06,-1.198469180963E-05,0,0,0
2.70326859208581E-06,-1.34338788484456E-05,0,0,0
3.61382626579143E-06,-1.47138425745652E-05,0,0,0
4.32194656241336E-06,-1.56558635353576E-05,0,0,0
4.89691183247487E-06,-1.5388177416753E-05,0,0,0
5.51028642803431E-06,-1.3595348718809E-05,0,0,0
5.9894691730733E-06,-1.34492674987996E-05,0,0,0
5.78420940655633E-06,-1.20777949632611E-05,0,0,0
5.46375167687074E-06,-1.2352665180515E-05,0,0,0
5.39709662916721E-06,-1.11412482510787E-05,0,0,0
5.84354620514205E-06,-1.25587575894315E-05,0,0,0
5.53616064280504E-06,-1.14381100502214E-05,0,0,0
4.80012295156484E-06,-1.25870765259606E-05,0,0,0
3.11653252538235E-06,-1.41615619213553E-05,0,0,0
1.69633926816459E-06,-1.74617471202509E-05,0,0,0
2.0208883597661E-06,-1.83715728780953E-05,0,0,0
3.69575832337432E-06,-1.92317620530957E-05,0,0,0
5.14397243023268E-06,-2.02614810405066E-05,0,0,0
5.86452415518579E-06,-2.24864215851994E-05,0,0,0
5.55602855456527E-06,-2.16422104131198E-05,0,0,0
5.22327673024847E-06,-1.77487982000457E-05,0,0,0
3.25962332681229E-06,-1.24158104881644E-05,0,0,0
4.52209360446432E-06,-1.94259882846382E-05,0,0,0
4.09798349210178E-06,-1.71290903381305E-05,0,0,0
5.39846951141953E-06,-2.02913870452903E-05,0,0,0
4.69743963549263E-06,-1.7281694454141E-05,0,0,0
5.97511871092138E-06,-1.84474065463291E-05,0,0,0
5.91988964515622E-06,-1.71864394360455E-05,0,0,0
6.12881649431074E-06,-1.73352655110648E-05,0,0,0
5.89358432989684E-06,-1.62103988259332E-05,0,0,0
6.61814328850596E-06,-1.48477383845602E-05,0,0,0
6.67462654746487E-06,-1.41420860018115E-05,0,0,0
5.46004594070837E-06,-1.41960981636657E-05,0,0,0
4.73856107419124E-06,-1.6218173186644E-05,0,0,0
3.96993937101797E-06,-1.68679125636118E-05,0,0,0
3.29037925439479E-06,-1.75589993887115E-05,0,0,0
2.19908383769507E-06,-1.64862121891929E-05,0,0,0
3.16938735522854E-06,-1.62395845109131E-05,0,0,0
5.04737818118883E-06,-1.42893768497743E-05,0,0,0
5.91131856708671E-06,-1.33810872284812E-05,0,0,0
4.43284216089523E-06,-1.21062694233842E-05,0,0,0
3.61570187124016E-06,-1.26600334624527E-05,0,0,0
3.23806716551189E-06,-1.37897241074825E-05,0,0,0
2.41212410401204E-06,-1.59892260853667E-05,0,0,0
1.75065747498593E-06,-1.67009529832285E-05,0,0,0
3.67333541362314E-06,-1.64134053193266E-05,0,0,0
5.03509318150464E-06,-1.69159920915263E-05,0,0,0
3.98680276703089E-06,-1.84494601853658E-05,0,0,0
1.63397533015086E-06,-1.57857066369616E-05,0,0,0
1.40248585012159E-06,-2.20600777538493E-05,0,0,0
3.05554692658916E-07,-1.61503212439129E-05,0,0,0
1.69697443652694E-06,-2.11362003028626E-05,0,0,0
1.10125199626054E-06,-1.85266308108112E-05,0,0,0
3.46608658219338E-07,-1.94590811588569E-05,0,0,0
-1.03524109817954E-06,-1.76603189174784E-05,0,0,0
-2.79136725112039E-06,-1.9919727492379E-05,0,0,0
-3.77501351067622E-06,-1.94478652701946E-05,0,0,0
-2.7540797873371E-06,-1.92260395124322E-05,0,0,0
-1.93842925000354E-06,-1.97726149053779E-05,0,0,0
-3.72352405975107E-06,-1.97504450625274E-05,0,0,0
-5.31648083779146E-06,-2.06860677280929E-05,0,0,0
-4.51877940577106E-06,-1.98916477529565E-05,0,0,0
-2.54815927291929E-06,-2.12730628845748E-05,0,0,0
-1.82939140813687E-06,-2.11826918530278E-05,0,0,0
-1.75593902440596E-06,-2.09321970032761E-05,0,0,0
-1.52192501445825E-06,-1.68235455930699E-05,0,0,0
1.6540590763725E-07,-1.4778743206989E-05,0,0,0
2.24360974243609E-06,-1.30389971673139E-05,0,0,0
3.97124267692561E-06,-1.27994189824676E-05,0,0,0
4.72930378236924E-06,-1.18203925012494E-05,0,0,0
3.90511877412791E-06,-1.27806424643495E-05,0,0,0
1.73753903709439E-06,-1.35884001792874E-05,0,0,0
2.68933632696644E-07,-1.71509727806551E-05,0,0,0
1.11762915366853E-06,-2.22176931856666E-05,0,0,0
2.71057911049866E-06,-2.65515536739258E-05,0,0,0
1.48718550008198E-06,-2.64070004050154E-05,0,0,0
1.35169386794587E-06,-4.26746155426372E-05,0,0,0
2.10913853493366E-07,-3.78257245756686E-05,0,0,0
-7.00705697909143E-07,-4.19129901274573E-05,0,0,0
-3.32481090481451E-06,-3.34551550622564E-05,0,0,0
-2.74102831099299E-06,-3.32884883391671E-05,0,0,0
-1.01527336937579E-06,-2.69161864707712E-05,0,0,0
6.85041698034183E-07,-2.4765406124061E-05,0,0,0
9.87437715593842E-07,-2.24240593524883E-05,0,0,0
1.54747863234661E-06,-2.25480944209266E-05,0,0,0
1.99186933969031E-06,-2.24063860514434E-05,0,0,0
1.44888315389835E-06,-1.99048990907613E-05,0,0,0
1.84902705768764E-06,-1.81271279870998E-05,0,0,0
3.15785587190476E-06,-1.46330457937438E-05,0,0,0
4.31089711128152E-06,-1.53884175233543E-05,0,0,0
4.61419449493405E-06,-1.49307152241818E-05,0,0,0
5.83609835302923E-06,-1.55932102643419E-05,0,0,0
7.13854660716606E-06,-1.1858249308716E-05,0,0,0
7.54891379983746E-06,-1.19201504276134E-05,0,0,0
6.37034236206091E-06,-1.2056264495186E-05,0,0,0
4.70040640720981E-06,-1.31997412609053E-05,0,0,0
3.92156835005153E-06,-1.16815963338013E-05,0,0,0
4.70527857032721E-06,-1.22383435154916E-05,0,0,0
5.83745713811368E-06,-1.08705025922973E-05,0,0,0
6.6606885411602E-06,-1.03219799711951E-05,0,0,0
6.21740537098958E-06,-1.07124997157371E-05,0,0,0
5.00622581967036E-06,-9.23427796806209E-06,0,0,0
3.13065902446397E-06,-5.36454035682254E-06,0,0,0
3.66263543583045E-06,-7.2301336331293E-06,0,0,0
1.86655142897507E-06,-6.18162539467448E-06,0,0,0
3.85194834962022E-06,-9.40036625252105E-06,0,0,0
3.95673441744293E-06,-9.61788828135468E-06,0,0,0
2.97854239761364E-06,-1.00950719570392E-05,0,0,0
2.15166141970258E-06,-9.95909431367181E-06,0,0,0
4.12227655033348E-06,-1.1193503269169E-05,0,0,0
5.09070287080249E-06,-1.09848588181194E-05,0,0,0
4.70799523100141E-06,-1.02507292467635E-05,0,0,0
3.44880845659645E-06,-1.01106488727964E-05,0,0,0
2.41730276684393E-06,-1.0585261406959E-05,0,0,0
2.54649194175727E-06,-1.02616804724676E-05,0,0,0
1.60734077780944E-06,-8.38717005535727E-06,0,0,0
4.32885059353794E-07,-7.19576837582281E-06,0,0,0
-5.8238765632268E-07,-5.89058072364423E-06,0,0,0
-1.51309819784728E-07,-5.69629582969355E-06,0,0,0
3.28353280565352E-07,-4.97950759381638E-06,0,0,0
6.52367532438802E-07,-5.91353091294877E-06,0,0,0
-6.39739496932634E-08,-8.82801941770595E-06,0,0,0
-1.22856999951182E-06,-1.2490324479586E-05,0,0,0
-1.93508594747982E-06,-1.36240141728194E-05,0,0,0
-7.22619915904943E-07,-1.46931924973615E-05,0,0,0
4.59811957398415E-08,-1.70822913787561E-05,0,0,0
-8.77131896004357E-08,-1.98940961126937E-05,0,0,0
-3.99799233719023E-07,-2.3023296307656E-05,0,0,0
-7.40693508305412E-07,-2.59438947978197E-05,0,0,0
7.34000105140353E-09,-2.09400986932451E-05,0,0,0
1.96630753634963E-06,-3.00918109132908E-05,0,0,0
4.89289323013509E-06,-2.43329068325693E-05,0,0,0
5.2607647376135E-06,-3.03629403788364E-05,0,0,0
3.29110753227724E-06,-2.33808059419971E-05,0,0,0
6.23984362846386E-07,-2.2977657863521E-05,0,0,0
4.83720157262724E-07,-1.78321515704738E-05,0,0,0
2.36272126130643E-06,-1.70669736689888E-05,0,0,0
4.20816422774806E-06,-1.59200135385618E-05,0,0,0
4.8198257900367E-06,-1.70835228345823E-05,0,0,0
5.25789346284E-06,-2.00451449927641E-05,0,0,0
4.96930306326249E-06,-2.27958280447638E-05,0,0,0
3.17623812406964E-06,-2.46133731707232E-05,0,0,0
3.424219585213E-06,-2.19692974496866E-05,0,0,0
5.45362490811385E-06,-2.17481501749717E-05,0,0,0
7.34036620997358E-06,-2.03038434847258E-05,0,0,0
7.81946164352121E-06,-2.05290962185245E-05,0,0,0
7.4815238804149E-06,-1.80109400389483E-05,0,0,0
7.06541550243855E-06,-1.83004012797028E-05,0,0,0
7.42524571251124E-06,-1.73039297806099E-05,0,0,0
7.70402220950928E-06,-1.80195329448907E-05,0,0,0
6.59078614262398E-06,-1.71799747477053E-05,0,0,0
4.90990123580559E-06,-1.6872538253665E-05,0,0,0
3.93175832869019E-06,-1.45227313623764E-05,0,0,0
3.62375112672453E-06,-1.5531502867816E-05,0,0,0
3.47518243870582E-06,-1.79723356268369E-05,0,0,0
4.01043553210911E-06,-1.92525349120842E-05,0,0,0
4.08119331041235E-06,-1.48481167343562E-05,0,0,0
4.88577688884106E-06,-1.96397377294488E-05,0,0,0
2.45713977164996E-06,-1.38559707920649E-05,0,0,0
3.14820817948203E-06,-1.7926251530298E-05,0,0,0
2.56470275417087E-06,-1.47310984175419E-05,0,0,0
4.55416056865943E-06,-1.75678578671068E-05,0,0,0
5.01112481288146E-06,-1.57293434313033E-05,0,0,0
4.85835516883526E-06,-1.51202593769995E-05,0,0,0
3.5047746678174E-06,-1.25223523355089E-05,0,0,0
2.61273703472398E-06,-1.30616981550702E-05,0,0,0
3.00882038573036E-06,-1.57291360665113E-05,0,0,0
4.03103376811487E-06,-1.70043531397823E-05,0,0,0
4.42619602836203E-06,-1.76874400494853E-05,0,0,0
2.88802857539849E-06,-1.60368726938032E-05,0,0,0
1.73759553945274E-06,-1.63043696375098E-05,0,0,0
9.77523654910328E-07,-1.62059859576402E-05,0,0,0
1.03496108749823E-06,-1.84504151548026E-05,0,0,0
2.03452586333697E-07,-1.85227563633816E-05,0,0,0
-3.26165576325366E-07,-2.08991550607607E-05,0,0,0
-1.29426155126566E-07,-2.101958853018E-05,0,0,0
1.89969910024956E-06,-2.05859050765866E-05,0,0,0
2.66563802142628E-06,-1.96642013179371E-05,0,0,0
1.54119152284693E-06,-2.06838976737345E-05,0,0,0
2.72910369858437E-07,-2.08304954867344E-05,0,0,0
1.14785427740571E-06,-2.0790042981389E-05,0,0,0
2.24246582547494E-06,-1.8025637473329E-05,0,0,0
1.68118947385665E-06,-1.47401606227504E-05,0,0,0
1.10646567463846E-06,-1.09079273897805E-05,0,0,0
2.45128012466012E-06,-1.73079461092129E-05,0,0,0
3.41884037879936E-06,-1.58756756718503E-05,0,0,0
2.84933889815875E-06,-1.93341511476319E-05,0,0,0
9.40832308060635E-07,-1.76871217263397E-05,0,0,0
-7.59040062803251E-07,-1.91477283806307E-05,0,0,0
-1.91408321370545E-06,-1.81427767529385E-05,0,0,0
-9.2548441443796E-07,-1.86858032975579E-05,0,0,0
4.70673569452629E-07,-1.86505531019066E-05,0,0,0
1.96041696653992E-06,-1.95403226825874E-05,0,0,0
3.05727598970407E-06,-1.94681251741713E-05,0,0,0
2.94800679512264E-06,-1.81302293640329E-05,0,0,0
9.17406566713908E-07,-1.723738569126E-05,0,0,0
-1.99817941393121E-06,-1.54583958646981E-05,0,0,0
-2.99953512694628E-06,-1.52284974319628E-05,0,0,0
-1.95839584193891E-06,-1.54967165144626E-05,0,0,0
-7.45964257475862E-07,-1.77073070517508E-05,0,0,0
-6.10826134561648E-07,-1.70750045072054E-05,0,0,0
-8.08619006420486E-07,-1.55765828822041E-05,0,0,0
-1.80856929432593E-07,-1.37771849040291E-05,0,0,0
2.29193437917274E-06,-1.4788776752539E-05,0,0,0
4.15119939134456E-06,-1.5798748790985E-05,0,0,0
3.47222498930932E-06,-1.68717033375287E-05,0,0,0
2.38373377214884E-06,-1.63578697538469E-05,0,0,0
3.52639244738384E-06,-1.64043103723088E-05,0,0,0
5.79185189053533E-06,-1.81933573912829E-05,0,0,0
7.42693646316184E-06,-1.83657066372689E-05,0,0,0
5.30723946212674E-06,-1.42952203532332E-05,0,0,0
6.36625009065028E-06,-2.15025665966095E-05,0,0,0
2.63945548795164E-06,-1.83434076461708E-05,0,0,0
3.9826222746342E-06,-2.20783877011854E-05,0,0,0
3.27207339978486E-06,-1.90190876310226E-05,0,0,0
2.96188181891921E-06,-2.14532865356887E-05,0,0,0
2.09225731850893E-06,-1.96410946955439E-05,0,0,0
3.34009450853046E-06,-1.96423916349886E-05,0,0,0
4.14375790569466E-06,-1.86322067747824E-05,0,0,0
5.74907153350068E-06,-1.84962227649521E-05,0,0,0
6.45993350190111E-06,-1.90590744750807E-05,0,0,0
5.27387783222366E-06,-1.88998310477473E-05,0,0,0
4.50570587418042E-06,-1.82132662303047E-05,0,0,0
3.69863573723705E-06,-1.58350740093738E-05,0,0,0
2.7296478037897E-06,-1.65932870004326E-05,0,0,0
1.53373696321069E-06,-1.75397835846525E-05,0,0,0
3.26787335325207E-06,-1.97408153326251E-05,0,0,0
5.77761784370523E-06,-1.81893738044892E-05,0,0,0
7.60979355618474E-06,-1.65175697475206E-05,0,0,0
5.99145232627052E-06,-1.416403301846E-05,0,0,0
3.83928818337154E-06,-1.37195165734738E-05,0,0,0
3.83998531106045E-06,-1.1936531336687E-05,0,0,0
5.2166988098179E-06,-1.11618219307275E-05,0,0,0
5.81500444241101E-06,-1.1238891602261E-05,0,0,0
6.60349451209186E-06,-1.27270441225846E-05,0,0,0
6.9480392994592E-06,-1.33235644170782E-05,0,0,0
6.6698744376481E-06,-1.39244011734263E-05,0,0,0
3.40713108926138E-06,-1.13074465843965E-05,0,0,0
4.57395117337001E-06,-1.5265888578142E-05,0,0,0
4.56965426565148E-06,-1.13558899101918E-05,0,0,0
7.75840544520179E-06,-1.58031089085853E-05,0,0,0
7.36052061256487E-06,-1.42048220368451E-05,0,0,0
7.92626906331861E-06,-1.70772418641718E-05,0,0,0
8.04107367002871E-06,-1.82461826625513E-05,0,0,0
7.05176125848084E-06,-2.00933282030746E-05,0,0,0
5.31483374288655E-06,-1.8999184248969E-05,0,0,0
5.50460072190617E-06,-1.8453378288541E-05,0,0,0
6.46391208647401E-06,-1.90838618436828E-05,0,0,0
5.82989650865784E-06,-1.83249576366507E-05,0,0,0
4.26633687311551E-06,-1.78518694156082E-05,0,0,0
2.68419921667373E-06,-1.72449781530304E-05,0,0,0
1.88481806162599E-06,-1.88222275028238E-05,0,0,0
9.80922095550341E-07,-1.86288161785342E-05,0,0,0
1.4256191889217E-06,-1.89026031875983E-05,0,0,0
2.24521045311121E-06,-1.77160181920044E-05,0,0,0
1.95884854292672E-06,-1.64871180459159E-05,0,0,0
-2.02069188048881E-07,-1.37732931762002E-05,0,0,0
-1.20837319173006E-06,-1.44003815876204E-05,0,0,0
-1.35671405132598E-06,-1.69084742083214E-05,0,0,0
-7.92817445471883E-07,-1.89128859346965E-05,0,0,0
-1.02259332379617E-06,-1.78804566530744E-05,0,0,0
-3.1029721867526E-06,-1.70108778547728E-05,0,0,0
-4.76715877084644E-06,-1.81233299372252E-05,0,0,0
-4.35786523667048E-06,-1.98966863536043E-05,0,0,0
-1.61648290486482E-06,-1.51046888277051E-05,0,0,0
-1.94694280253316E-06,-2.10955349757569E-05,0,0,0
-1.30323587654857E-06,-1.59136743604904E-05,0,0,0
-2.3278341814148E-06,-1.94006715901196E-05,0,0,0
-2.36793039221084E-06,-1.52209131556447E-05,0,0,0
-3.07742448057979E-06,-1.732109922159E-05,0,0,0
-1.76067680968117E-06,-1.47692753671436E-05,0,0,0
-6.89863611569308E-07,-1.44079094752669E-05,0,0,0
-1.69333009125694E-06,-1.26725662994431E-05,0,0,0
-2.48464834839979E-06,-1.37050164994434E-05,0,0,0
-1.10855069124227E-06,-1.74150700331666E-05,0,0,0
4.5008161464466E-07,-1.98004636331461E-05,0,0,0
9.53168239448132E-07,-2.23951974476222E-05,0,0,0
9.33904800604068E-07,-2.28275730478344E-05,0,0,0
7.29506126617707E-08,-2.4916831534938E-05,0,0,0
-1.38340055855224E-07,-2.54163842328126E-05,0,0,0
3.03054434880323E-07,-2.61949007835938E-05,0,0,0
5.73034185435972E-07,-2.3672220777371E-05,0,0,0
4.43120569570965E-07,-2.33667597058229E-05,0,0,0
7.9789072060521E-07,-2.29880060942378E-05,0,0,0
1.16816022455168E-06,-2.37301810557256E-05,0,0,0
6.16893032656662E-07,-2.27762084250571E-05,0,0,0
7.10090404254515E-08,-2.25688272621483E-05,0,0,0
1.14966087494395E-06,-2.28129538299982E-05,0,0,0
1.37325332616456E-06,-2.30280074902112E-05,0,0,0
4.30326849709672E-08,-2.20068723137956E-05,0,0,0
-6.27841359346348E-07,-2.10460621019593E-05,0,0,0
-1.48447284686881E-07,-1.66140562214423E-05,0,0,0
-1.81306759827748E-07,-2.21572499867762E-05,0,0,0
8.53065103001427E-07,-1.56468722707359E-05,0,0,0
2.91567084786948E-06,-2.27952059503878E-05,0,0,0
3.93779282603646E-06,-2.1064492102596E-05,0,0,0
3.670370006148E-06,-2.21538921323372E-05,0,0,0
3.81767677026801E-06,-1.94993062905269E-05,0,0,0
4.5933388719277E-06,-1.9731849533855E-05,0,0,0
6.31618058832828E-06,-1.77202073246008E-05,0,0,0
8.32462319522165E-06,-1.58293969434453E-05,0,0,0
7.8294606282725E-06,-1.37245951918885E-05,0,0,0
5.72108501728508E-06,-1.22280562209198E-05,0,0,0
4.45000432591769E-06,-1.47146047311253E-05,0,0,0
4.93093148179469E-06,-1.54151784954593E-05,0,0,0
6.22122024651617E-06,-1.59278424689546E-05,0,0,0
6.35517062619329E-06,-1.48479575727833E-05,0,0,0
4.74086709800758E-06,-1.5790017641848E-05,0,0,0
3.42524685947865E-06,-1.3162703908165E-05,0,0,0
3.39353937306441E-06,-1.23426316349651E-05,0,0,0
3.9114966057241E-06,-1.28123847389361E-05,0,0,0
4.27336590291816E-06,-1.51768417708809E-05,0,0,0
3.8968023545749E-06,-1.53532673721202E-05,0,0,0
4.05973105443991E-06,-1.78077025339007E-05,0,0,0
5.46933461009758E-06,-2.05763153644511E-05,0,0,0
7.32877288101008E-06,-2.216928442067E-05,0,0,0
6.97249379300047E-06,-2.12277645914583E-05,0,0,0
4.72497640657821E-06,-2.06012318813009E-05,0,0,0
2.44055104303698E-06,-1.78353002411313E-05,0,0,0
1.25669691897201E-06,-2.56128296314273E-05,0,0,0
-1.98971974896267E-06,-1.8185482986155E-05,0,0,0
-1.91792582882044E-06,-2.12337199627655E-05,0,0,0
-2.99949556392676E-06,-1.65253841259982E-05,0,0,0
-2.43976251113054E-06,-1.73117441590875E-05,0,0,0
-3.379452664376E-06,-1.51692483996158E-05,0,0,0
-2.38060397350637E-06,-1.51301992445951E-05,0,0,0
3.70900494317539E-07,-1.28092078739428E-05,0,0,0
2.53211533163267E-06,-1.17260333354352E-05,0,0,0
3.42520547746972E-06,-1.22005003504455E-05,0,0,0
3.04618856716843E-06,-1.29672434923123E-05,0,0,0
2.53508596870233E-06,-1.50640789797762E-05,0,0,0
2.022440185101E-06,-1.53271012095502E-05,0,0,0
2.43927797782817E-06,-1.64601569849765E-05,0,0,0
2.24991708819289E-06,-1.57753984240117E-05,0,0,0
1.56085616254131E-06,-1.72743457369506E-05,0,0,0
1.24952282476443E-06,-1.69012637343258E-05,0,0,0
1.78082382262801E-06,-1.63958538905717E-05,0,0,0
1.39834753554169E-06,-1.3458863577398E-05,0,0,0
2.06218760467891E-06,-1.45439626066945E-05,0,0,0
3.28543956129579E-06,-1.65792353072902E-05,0,0,0
3.01538443636673E-06,-1.8034463209915E-05,0,0,0
8.27582141482708E-07,-1.68363221746404E-05,0,0,0
-3.42945213560597E-07,-1.52833017637022E-05,0,0,0
6.52382880161895E-07,-1.3959229363536E-05,0,0,0
3.50798745785141E-06,-1.46166885315324E-05,0,0,0
3.67225698028051E-06,-1.15879529403173E-05,0,0,0
3.65053324458131E-06,-1.44605874083936E-05,0,0,0
6.75913668146677E-07,-8.55016696732491E-06,0,0,0
2.13935823012434E-06,-1.11588506115368E-05,0,0,0
1.79857556759089E-06,-8.21630965219811E-06,0,0,0
1.73924718183116E-06,-1.04362252386636E-05,0,0,0
2.53863800026011E-06,-1.01073455880396E-05,0,0,0
5.23732205692795E-06,-1.25258675325313E-05,0,0,0
5.61683464184171E-06,-1.45563662954373E-05,0,0,0
5.4572938097408E-06,-1.65071469382383E-05,0,0,0
5.55754968445399E-06,-1.69656541402219E-05,0,0,0
5.35052913619438E-06,-1.48575463754241E-05,0,0,0
4.47572028861032E-06,-1.4233574802347E-05,0,0,0
3.55329325429921E-06,-1.35274613057845E-05,0,0,0
3.67483630725474E-06,-1.41777218232164E-05,0,0,0
3.35239610649296E-06,-1.38848799906555E-05,0,0,0
2.92519871436525E-06,-1.52419352161814E-05,0,0,0
2.20936317418818E-06,-1.53691944433376E-05,0,0,0
1.96337509805744E-06,-1.6721545762266E-05,0,0,0
5.94115874719137E-07,-1.58480797836091E-05,0,0,0
-6.49896662707761E-07,-1.52310221892549E-05,0,0,0
-1.26571524106112E-06,-1.4587394616683E-05,0,0,0
-6.06957371473982E-07,-1.53023793245666E-05,0,0,0
-8.44964176849317E-07,-1.49817333294777E-05,0,0,0
-3.38195974336486E-07,-1.30975740830763E-05,0,0,0
1.17453441816906E-06,-1.14107770059491E-05,0,0,0
8.74612737788993E-07,-1.13882006189669E-05,0,0,0
4.39481624425753E-07,-9.27267137740273E-06,0,0,0
3.04774266624008E-06,-1.43289635161636E-05,0,0,0
7.01043609296903E-06,-1.39107314680587E-05,0,0,0
8.67710787133547E-06,-1.93353243957972E-05,0,0,0
8.92772641236661E-06,-1.83823995030252E-05,0,0,0
7.30918964109151E-06,-1.76952471520053E-05,0,0,0
5.41006647836184E-06,-1.35434747789986E-05,0,0,0
5.36399829798029E-06,-1.19782926049083E-05,0,0,0
5.36345805812743E-06,-1.27564080685261E-05,0,0,0
5.16892896484933E-06,-1.43283195939148E-05,0,0,0
3.94307835449581E-06,-1.45483072628849E-05,0,0,0
5.72384749375487E-07,-1.40574029501295E-05,0,0,0
-2.10207167583576E-06,-1.559297197673E-05,0,0,0
-2.1595230919047E-06,-1.64663542818744E-05,0,0,0
-1.97694788539593E-07,-1.71888004842913E-05,0,0,0
1.23084112146898E-06,-1.5700079529779E-05,0,0,0
1.11053793716565E-06,-1.5076058843988E-05,0,0,0
1.52809502651508E-06,-1.51043104779092E-05,0,0,0
3.33023194798443E-06,-1.7399182979716E-05,0,0,0
3.82728148906608E-06,-1.86390716407914E-05,0,0,0
2.4551043225074E-06,-2.06271779461531E-05,0,0,0
1.94398353414726E-06,-2.36160849453881E-05,0,0,0
3.25186033478531E-06,-2.5560842914274E-05,0,0,0
4.79015261589666E-06,-2.5092525902437E-05,0.3515625,0,0
5.69435678698937E-06,-2.46234067162732E-05,0.3515625,0,0
5.30933766640374E-06,-2.34116978390375E-05,0.3515625,0,0
3.77839182874595E-06,-2.20535803236999E-05,0.3515625,0,0
2.57858823715651E-06,-1.82297408173326E-05,0.3515625,0,0
3.81678137273411E-06,-2.58123327512294E-05,0.3515625,0,0
3.23771791954641E-06,-1.85488243005238E-05,0.3515625,0,0
4.14493979405961E-06,-2.14937281270977E-05,0.3515625,0,0
3.86249121220317E-06,-1.70441453519743E-05,0.3515625,0,0
4.61750460090116E-06,-2.09204335988034E-05,0.3515625,0,0
3.57500107384112E-06,-1.96788678294979E-05,0.3515625,0,0
2.54258202403435E-06,-1.94262811419321E-05,0.3515625,0,0
1.98137195184245E-06,-1.79870094143553E-05,0.3515625,0,0
2.17758224607678E-06,-1.85652697837213E-05,0.3515625,0,0
2.4187345388782E-06,-1.88427911780309E-05,0.3515625,0,0
1.93456639863143E-06,-1.78581649379339E-05,0.3515625,0,0
2.23019674194802E-06,-1.90921018656809E-05,0.3515625,0,0
2.15612362808315E-06,-1.91049366549123E-05,0.3515625,0,0
4.82138489132922E-07,-2.06019340112107E-05,0.3515625,0,0
-2.25755889005086E-06,-1.9924942534999E-05,0.3515625,0,0
-2.31686499319039E-06,-2.10100261028856E-05,0.3515625,0,0
-3.30398506775964E-07,-1.998187690333E-05,0.3515625,0,0
1.48667595567531E-06,-2.09243553399574E-05,0.3515625,0,0
1.33836249460728E-06,-1.91975250345422E-05,0.3515625,0,0
1.98119982997014E-06,-1.72898926393827E-05,0.3515625,0,0
4.52447875431972E-06,-1.57208560267463E-05,0.3515625,0,0
7.21229298505932E-06,-1.68345741258236E-05,0.3515625,0,0
9.09809023141861E-06,-1.67336766025983E-05,0.3515625,0,0
9.30745318328263E-06,-1.75557634065626E-05,0.3515625,0,0
8.92505886440631E-06,-1.72007767105242E-05,0.3515625,0,0
9.76097544480581E-06,-1.62707892741309E-05,0.3515625,0,0
8.42566259962041E-06,-1.32277809825609E-05,0.3515625,0,0
1.10922164822114E-05,-1.76965531863971E-05,0.3515625,0,0
7.41475423637894E-06,-1.17898189273546E-05,0.3515625,0,0
1.03877382571227E-05,-1.53207420225954E-05,0.3515625,0,0
8.40848497318802E-06,-1.28714773381944E-05,0.3515625,0,0
9.09383834368782E-06,-1.46719339682022E-05,0.3515625,0,0
7.73810461396351E-06,-1.53731343743857E-05,0.3515625,0,0
6.6980360315938E-06,-1.8843364159693E-05,0.3515625,0,0
4.99843599754968E-06,-2.01684688363457E-05,0.3515625,0,0
6.10933420830406E-06,-2.1644478692906E-05,0.3515625,0,0
9.34106265049195E-06,-2.23119623115053E-05,0.3515625,0,0
9.09565642359667E-06,-2.16644057218218E-05,0.3515625,0,0
6.39607333141612E-06,-2.15040909097297E-05,0.3515625,0,0
2.85934447674663E-06,-2.00128233700525E-05,0.3515625,0,0
1.88659339528385E-06,-2.06801578315208E-05,0.3515625,0,0
2.14456099456584E-06,-2.02923292818014E-05,0.3515625,0,0
3.53624864146695E-06,-1.99274090846302E-05,0.3515625,0,0
3.13630039272539E-06,-1.70943221746711E-05,0.3515625,0,0
3.35522918248898E-06,-1.68942788150162E-05,0.3515625,0,0
3.00263036479009E-06,-1.62091382662766E-05,0.3515625,0,0
2.59252192336135E-06,-1.66036752489163E-05,0.3515625,0,0
6.49982752065625E-08,-1.77854853973258E-05,0.3515625,0,0
-1.83081624527404E-06,-1.98951001948444E-05,0.3515625,0,0
-1.72011630183988E-06,-1.88277481356636E-05,0.3515625,0,0
-7.11926304575172E-07,-1.72673990164185E-05,0.3515625,0,0
5.38966844487732E-07,-1.6832340406836E-05,0.3515625,0,0
1.80467293375841E-06,-1.6423278793809E-05,0.3515625,0,0
1.65361325343838E-06,-1.14449885586509E-05,0.3515625,0,0
1.64429218330042E-06,-1.63804397743661E-05,0.3515625,0,0
2.03177236812735E-07,-1.28372430481249E-05,0.3515625,0,0
3.69517124454433E-07,-1.44878895298461E-05,0.3515625,0,0
1.55929228640161E-07,-1.08951135189272E-05,0.3515625,0,0
-3.41451567464901E-07,-1.4743266547157E-05,0.3515625,0,0
-1.21669052077777E-06,-1.61397256306373E-05,0.3515625,0,0
1.24533883649747E-07,-1.71766932908213E-05,0.3515625,0,0
1.30375667595217E-06,-1.66499849001411E-05,0.3515625,0,0
1.27876182887121E-06,-1.71612591657322E-05,0.3515625,0,0
8.76074636835256E-07,-1.77398032974452E-05,0.3515625,0,0
9.19947638067242E-07,-1.87529694812838E-05,0.3515625,0,0
2.427390882076E-06,-2.00927534024231E-05,0.3515625,0,0
3.35279810315114E-06,-1.91902327060234E-05,0.3515625,0,0
3.65865844287327E-06,-1.98936722881626E-05,0.3515625,0,0
3.44437785315677E-06,-1.95062857528683E-05,0.3515625,0,0
3.09923689201241E-06,-1.99842143047135E-05,0.3515625,0,0
2.74608146355604E-06,-1.89121092262212E-05,0.3515625,0,0
3.03431693282619E-06,-1.83041593118105E-05,0.3515625,0,0
2.80902077065548E-06,-1.67313482961617E-05,0.3515625,0,0
2.04841626327834E-06,-1.71754745679209E-05,0.3515625,0,0
1.33503351662512E-06,-1.68313181347912E-05,0.3515625,0,0
1.88803835499129E-06,-1.67533289641142E-05,0.3515625,0,0
2.82146561403351E-06,-1.71916744875489E-05,0.3515625,0,0
2.8607937565539E-06,-1.96138935280032E-05,0.3515625,0,0
2.73687419394264E-06,-2.11541082535405E-05,0.3515625,0,0
3.23575432048528E-06,-2.02293886104599E-05,0.3515625,0,0
3.40138217325148E-06,-1.45681915455498E-05,0.3515625,0,0
4.31336820838624E-06,-2.01804577955045E-05,0.3515625,0,0
1.15132831979281E-06,-1.5902687664493E-05,0.3515625,0,0
2.5672028414192E-07,-2.07302291528322E-05,0.3515625,0,0
4.22017592427437E-07,-1.77140500454698E-05,0.3515625,0,0
1.97742724594718E-06,-2.03477957256837E-05,0.3515625,0,0
1.86343697805569E-06,-1.81030736712273E-05,0.3515625,0,0
1.51844949414226E-06,-1.73424450622406E-05,0.3515625,0,0
-9.2473797508319E-08,-1.58105940499809E-05,0.3515625,0,0
4.29709956506485E-07,-1.63826789503219E-05,0.3515625,0,0
2.37746803577465E-06,-1.6827098079375E-05,0.3515625,0,0
3.7138840980333E-06,-1.4250915228331E-05,0.3515625,0,0
3.90074683309649E-06,-1.21157163448515E-05,0.3515625,0,0
2.47911771111831E-06,-1.07466130430112E-05,0.3515625,0,0
1.2438838439266E-06,-1.29748723338707E-05,0.3515625,0,0
4.61642002846929E-07,-1.38797777253785E-05,0.3515625,0,0
1.100987560676E-06,-1.56275691551855E-05,0.3515625,0,0
1.38462451104715E-06,-1.40150377774262E-05,0.3515625,0,0
1.24174175653025E-06,-1.39234680318623E-05,0.3515625,0,0
1.05257720406371E-06,-1.33475132315652E-05,0.3515625,0,0
2.19403818846331E-06,-1.42777344080969E-05,0.3515625,0,0
2.23046481551137E-06,-1.52719530888135E-05,0.3515625,0,0
1.64933021551406E-06,-1.79452654265333E-05,0.3515625,0,0
9.13396092983021E-07,-1.88433987204917E-05,0.3515625,0,0
-4.17975840605322E-08,-1.77442398126004E-05,0.3515625,0,0
-1.64327866514213E-06,-1.59434603119735E-05,0.3515625,0,0
-3.65089022125176E-06,-1.50196801769198E-05,0.3515625,0,0
-2.8339989057713E-06,-1.10430255517713E-05,0.3515625,0,0
-2.37987228501879E-06,-1.57925278472248E-05,0.3515625,0,0
4.21817532014757E-07,-1.37947890834766E-05,0.3515625,0,0
-5.9061225243795E-08,-1.90404498425778E-05,0.3515625,0,0
5.29300280049938E-07,-1.88628509931732E-05,0.3515625,0,0
-9.90655280475039E-07,-2.10015095944982E-05,0.3515625,0,0
8.67135199200675E-08,-1.74380384123651E-05,0.3515625,0,0
1.1486405355754E-06,-1.60963227244793E-05,0.3515625,0,0
1.12501936655462E-06,-1.57395934365923E-05,0.3515625,0,0
6.58061253488995E-07,-1.66669378813822E-05,0.3515625,0,0
2.84722460719422E-07,-1.68189908436034E-05,0.3515625,0,0
-1.47510323955657E-08,-1.58229122462217E-05,0.3515625,0,0
4.15579705759228E-07,-1.5725199773442E-05,0.3515625,0,0
2.31207832257496E-06,-1.59612045536051E-05,0.3515625,0,0
3.20572007694864E-06,-1.89718066394562E-05,0.3515625,0,0
3.74900196220551E-06,-1.95778065972263E-05,0.3515625,0,0
3.97366329707438E-06,-1.88002923096064E-05,0.3515625,0,0
3.94017524740775E-06,-1.65457058756147E-05,0.3515625,0,0
2.01440252567409E-06,-1.77081292349612E-05,0.3515625,0,0
1.13791259082063E-06,-1.81139730557334E-05,0.3515625,0,0
2.41921452470706E-06,-1.73767293745186E-05,0.3515625,0,0
5.31555951965856E-06,-1.44595214806031E-05,0.3515625,0,0
6.69535620545503E-06,-1.24886546473135E-05,0.3515625,0,0
4.91525315737817E-06,-1.2003682059003E-05,0.3515625,0,0
3.07823938783258E-06,-1.41068185257609E-05,0.3515625,0,0
4.62899652120541E-06,-1.59691080625635E-05,0.3515625,0,0
6.55449139230768E-06,-1.60552044690121E-05,0.3515625,0,0
5.15560031999485E-06,-1.32166205730755E-05,0.3515625,0,0
6.05576860834844E-06,-1.82328349183081E-05,0.3515625,0,0
4.05941182179959E-06,-1.21643761303858E-05,0.3515625,0,0
7.03042223904049E-06,-1.39046069307369E-05,0.3515625,0,0
5.46874480278348E-06,-1.19450223792228E-05,0.3515625,0,0
3.8560938264709E-06,-1.55911948240828E-05,0.3515625,0,0
1.23190102385706E-06,-1.53122600750066E-05,0.3515625,0,0
1.36094513436547E-06,-1.68683127412805E-05,0.3515625,0,0
1.28289309486718E-06,-1.63735785463359E-05,0.3515625,0,0
1.07425796613825E-06,-1.54173958435422E-05,0.3515625,0,0
8.68469385295612E-08,-1.26278100651689E-05,0.3515625,0,0
-6.0980562466284E-07,-9.94822676148033E-06,0.3515625,0,0
3.22112811090847E-07,-1.10107557702577E-05,0.3515625,0,0
7.70041594932991E-07,-1.16244009404909E-05,0.3515625,0,0
1.22037408800679E-06,-1.32379882415989E-05,0.3515625,0,0
1.62670119152608E-06,-1.32217337522889E-05,0.3515625,0,0
2.55528198067623E-06,-1.4950092008803E-05,0.3515625,0,0
1.89348281764978E-06,-1.55545640154742E-05,0.3515625,0,0
2.74228659691289E-06,-1.83433785423404E-05,0.3515625,0,0
3.12039651362284E-06,-2.01691636902979E-05,0.3515625,0,0
2.4625699097669E-06,-2.2679390895064E-05,0.3515625,0,0
1.42233238875633E-06,-2.32052370847669E-05,0.3515625,0,0
2.83742497231287E-06,-2.33083464991068E-05,0.3515625,0,0
3.46453975907934E-06,-2.37119165831245E-05,0.3515625,0,0
1.92131392395822E-06,-2.60932320088614E-05,0.3515625,0,0
1.50722587477503E-06,-2.8330829081824E-05,0.3515625,0,0
4.03340754928649E-06,-2.89652398350881E-05,0.3515625,0,0
4.22341872763354E-06,-2.05382475542137E-05,0.3515625,0,0
4.68038524559233E-06,-2.60864289884921E-05,0.3515625,0,0
1.78177583620709E-06,-1.61487823788775E-05,0.3515625,0,0
3.47559466717939E-06,-1.98198977159336E-05,0.3515625,0,0
4.06356639359728E-06,-1.23390054795891E-05,0.3515625,0,0
7.12221890353248E-06,-1.45595522553776E-05,0.3515625,0,0
8.4667981354869E-06,-1.23972831715946E-05,0.3515625,0,0
7.21955893823178E-06,-1.47956443470321E-05,0.3515625,0,0
5.39225356988027E-06,-1.46113397931913E-05,0.3515625,0,0
6.34322759651695E-06,-1.49674378917553E-05,0.3515625,0,0
7.55924929762841E-06,-1.48656336023123E-05,0.3515625,0,0
7.70685164752649E-06,-1.34039737531566E-05,0.3515625,0,0
8.00506222731201E-06,-1.33055800688453E-05,0.3515625,0,0
7.40805353416363E-06,-9.65480376180494E-06,0.3515625,0,0
7.25639074516948E-06,-8.2423666754039E-06,0.3515625,0,0
6.89255057295668E-06,-6.58602994008106E-06,0.3515625,0,0
6.86815110384487E-06,-9.76518731476972E-06,0.3515625,0,0
6.52296512271278E-06,-1.12379366328241E-05,0.3515625,0,0
6.635424142587E-06,-1.47889559229952E-05,0.3515625,0,0
6.51808613838512E-06,-1.52180664372281E-05,0.3515625,0,0
7.3483806772856E-06,-1.73658299900126E-05,0.3515625,0,0
6.87200372340158E-06,-1.83552474481985E-05,0.3515625,0,0
5.15671217726776E-06,-2.06633085326757E-05,0.3515625,0,0
3.65190157936013E-06,-2.46424297074554E-05,0.3515625,0,0
4.05937407776946E-06,-3.01006093650358E-05,0.3515625,0,0
4.2540964386717E-06,-3.28181886288803E-05,0.3515625,0,0
3.24842380905466E-06,-3.29188260366209E-05,0.3515625,0,0
1.22636311061797E-06,-2.42372079810593E-05,0.3515625,0,0
1.21612072234711E-06,-3.20763501804322E-05,0.3515625,0,0
3.09020549593697E-07,-2.14270912692882E-05,0.3515625,0,0
-2.93196194434131E-07,-2.81483044091146E-05,0.3515625,0,0
-2.63405013356532E-06,-2.39234232140007E-05,0.3515625,0,0
-4.25114467361709E-06,-2.71704393526306E-05,0.3515625,0,0
-4.58568365502288E-06,-2.27497912419494E-05,0.3515625,0,0
-3.84598706659744E-06,-2.29788729484426E-05,0.3515625,0,0
-3.55350516656472E-06,-2.11714905162808E-05,0.3515625,0,0
-2.93228822556557E-06,-2.07792072615121E-05,0.3515625,0,0
-2.70615828412701E-06,-2.10527869057842E-05,0.3515625,0,0
-3.48350613421644E-06,-2.0799612684641E-05,0.3515625,0,0
-5.14691373609821E-06,-2.29138895520009E-05,0.3515625,0,0
-5.39679695066297E-06,-2.13376915780827E-05,0.3515625,0,0
-3.49445144820493E-06,-2.07601478905417E-05,0.3515625,0,0
-1.0591373893476E-06,-1.77635538420873E-05,0.3515625,0,0
4.24022204015273E-07,-1.98093694052659E-05,0.3515625,0,0
3.02820211572907E-07,-1.98455418285448E-05,0.3515625,0,0
1.28542922084307E-07,-2.15378204302397E-05,0.3515625,0,0
4.01968719643264E-07,-2.0211318769725E-05,0.3515625,0,0
1.68704002589948E-06,-2.04238986043492E-05,0.3515625,0,0
2.71549174613028E-06,-1.98784946405794E-05,0.3515625,0,0
4.00094995711697E-06,-2.05854194064159E-05,0.3515625,0,0
4.46970534540014E-06,-1.88356589205796E-05,0.3515625,0,0
3.77218179892225E-06,-1.82311250682687E-05,0.3515625,0,0
2.19362755160546E-06,-1.6766891349107E-05,0.3515625,0,0
1.42320936902252E-06,-1.52479342432343E-05,0.3515625,0,0
2.58714089795831E-06,-1.28433721329202E-05,0.3515625,0,0
3.41059717356984E-06,-1.76179928530473E-05,0.3515625,0,0
1.0341641427658E-06,-1.22608371384558E-05,0.3515625,0,0
1.34923175210133E-06,-1.45635467561078E-05,0.3515625,0,0
1.66552786140528E-06,-1.2275633707759E-05,0.3515625,0,0
1.12209431790689E-06,-1.53372711793054E-05,0.3515625,0,0
2.23672898869154E-07,-1.4390718206414E-05,0.3515625,0,0
5.1710611614908E-07,-1.42745484481566E-05,0.3515625,0,0
1.16721457743552E-06,-1.51180811371887E-05,0.3515625,0,0
2.43220029005897E-06,-1.71879128174623E-05,0.3515625,0,0
3.52069287146151E-06,-1.73742282640887E-05,0.3515625,0,0
2.90194248009357E-06,-1.64130688062869E-05,0.3515625,0,0
1.6198691810132E-06,-1.64076045621186E-05,0.3515625,0,0
1.1427285926402E-06,-1.57612157636322E-05,0.3515625,0,0
2.31175704357156E-06,-1.63658532983391E-05,0.3515625,0,0
2.62505568571214E-06,-1.5149729733821E-05,0.3515625,0,0
1.24309531202016E-06,-1.60105646500597E-05,0.3515625,0,0
-3.81910012947628E-07,-1.73288608493749E-05,0.3515625,0,0
-3.8978384964139E-08,-2.1689238565159E-05,0.3515625,0,0
1.04148136870208E-06,-2.35336246987572E-05,0.3515625,0,0
1.03550610219827E-06,-2.27583004743792E-05,0.3515625,0,0
-1.2120851522468E-07,-2.00690483325161E-05,0.3515625,0,0
-6.47772878892283E-07,-2.08366218430456E-05,0.3515625,0,0
-2.33040296393483E-07,-2.18555778701557E-05,0.3515625,0,0
-5.54451730749861E-07,-1.96778219105909E-05,0.3515625,0,0
-1.59650403475098E-06,-1.50242831296055E-05,0.3515625,0,0
-4.14959544059457E-07,-1.09651673483313E-05,0.3515625,0,0
9.60821807893808E-07,-7.92586524767103E-06,0.3515625,0,0
1.6100091215776E-06,-1.27724542835495E-05,0.3515625,0,0
7.88671343343594E-07,-1.25187980302144E-05,0.3515625,0,0
2.70541164582028E-07,-1.55985217134003E-05,0.3515625,0,0
1.43814631314854E-07,-1.52821939991554E-05,0.3515625,0,0
1.8359402531587E-07,-1.63780350703746E-05,1.40625,0,0
1.43450995437888E-06,-1.4339276276587E-05,1.40625,0,0
3.54958933712624E-06,-1.4222461686586E-05,1.40625,0,0
4.20674314227654E-06,-1.36715743792593E-05,1.40625,0,0
3.63525100510742E-06,-1.35540885821683E-05,1.40625,0,0
2.99664657177345E-06,-1.37049009936163E-05,1.40625,0,0
2.69264251073764E-06,-1.34374795379699E-05,1.40625,0,0
2.82258088191156E-06,-1.40911315611447E-05,1.40625,0,0
3.11087342197425E-06,-1.49061870615697E-05,1.40625,0,0
2.90473394670698E-06,-1.72663876583101E-05,1.40625,0,0
2.7359189971321E-06,-1.86560610018205E-05,1.40625,0,0
3.19516334457148E-06,-1.91980689123739E-05,1.40625,0,0
4.15403110309853E-06,-1.57845370267751E-05,1.40625,0,0
4.97097471452435E-06,-1.23748704936588E-05,1.40625,0,0
4.64961749457871E-06,-1.03317643151968E-05,1.40625,0,0
3.75315516976116E-06,-1.1194954822713E-05,1.40625,0,0
2.83298800241027E-06,-1.21499251690693E-05,1.40625,0,0
1.90835771718412E-06,-1.2480522855185E-05,1.40625,0,0
1.66299082593468E-06,-1.22340125017217E-05,1.40625,0,0
3.18215347760997E-06,-1.24024290926172E-05,1.40625,0,0
5.16876752953976E-06,-1.24164162116358E-05,1.40625,0,0
6.86991688780836E-06,-1.38933273774455E-05,1.40625,0,0
5.83726659897366E-06,-1.59275787154911E-05,1.40625,0,0
7.28594113752479E-06,-2.73750592896249E-05,1.40625,0,0
4.79890877613798E-06,-2.88117516902275E-05,1.40625,0,0
6.95369999448303E-06,-3.60339035978541E-05,1.40625,0,0
5.15380997967441E-06,-3.22634186886717E-05,1.40625,0,0
5.6711301112955E-06,-3.10838950099424E-05,1.40625,0,0
5.26691701452364E-06,-2.66139832092449E-05,1.40625,0,0
5.27878455613973E-06,-2.26982010644861E-05,1.40625,0,0
4.84797647004598E-06,-1.80667702807114E-05,1.40625,0,0
6.82150812281179E-06,-1.63550139404833E-05,1.40625,0,0
8.77749516803306E-06,-1.56516834977083E-05,1.40625,0,0
8.21453704702435E-06,-1.49306697494467E-05,1.40625,0,0
7.29349312678096E-06,-1.56738060468342E-05,1.40625,0,0
6.57632381262374E-06,-1.54333265527384E-05,1.40625,0,0
6.20329410594422E-06,-1.71794308698736E-05,1.40625,0,0
5.29035924046184E-06,-1.75203986145789E-05,1.40625,0,0
6.67652511765482E-06,-1.89343736565206E-05,1.40625,0,0
7.40211135052959E-06,-1.82931889867177E-05,1.40625,0,0
6.62855427435716E-06,-1.83281445060857E-05,1.40625,0,0
4.33062632509973E-06,-1.70234925462864E-05,1.40625,0,0
4.06373055739095E-06,-1.82631210918771E-05,1.40625,0,0
4.20235528508783E-06,-1.95035445358371E-05,1.40625,0,0
4.21862250732374E-06,-1.92725037777564E-05,1.40625,0,0
3.4530792163423E-06,-1.66699010151206E-05,1.40625,0,0
3.19586274599715E-06,-1.54256467794767E-05,1.40625,0,0
3.96800896851346E-06,-1.40876136356383E-05,1.40625,0,0
4.21616596213426E-06,-1.37739216370392E-05,1.40625,0,0
3.15171746478882E-06,-1.21292014227947E-05,1.40625,0,0
4.69266706204508E-06,-1.72101226780796E-05,1.40625,0,0
4.93436800752534E-06,-1.21271532407263E-05,1.40625,0,0
6.80561242916156E-06,-1.4209741493687E-05,1.40625,0,0
5.69022313356982E-06,-1.24587568279821E-05,1.40625,0,0
4.9216555453313E-06,-1.4678525076306E-05,1.40625,0,0
4.08855885325465E-06,-1.42618555400986E-05,1.40625,0,0
5.70129668631125E-06,-1.66854206327116E-05,1.40625,0,0
7.61872297516675E-06,-1.71496358234435E-05,1.40625,0,0
8.00604630057933E-06,-1.75243876583409E-05,1.40625,0,0
7.33383421902545E-06,-1.75949062395375E-05,1.40625,0,0
5.24150891578756E-06,-1.69735012605088E-05,1.40625,0,0
3.09097663375724E-06,-1.6496733223903E-05,1.40625,0,0
2.07813127417467E-06,-1.44306104630232E-05,1.40625,0,0
3.15127203975862E-06,-1.52702232298907E-05,1.40625,0,0
4.19394882555935E-06,-1.58043512783479E-05,1.40625,0,0
3.79831840291445E-06,-1.6900250557228E-05,1.40625,0,0
1.43964814469655E-06,-1.62955529958708E-05,1.40625,0,0
3.30992321551093E-07,-1.72422387549886E-05,1.40625,0,0
1.2558150501718E-06,-1.7055786884157E-05,1.40625,0,0
2.96668576993397E-06,-1.82438343472313E-05,1.40625,0,0
2.40853796640295E-06,-1.92892130144173E-05,1.40625,0,0
1.08801941678394E-06,-2.05686483241152E-05,1.40625,0,0
1.66530455203429E-07,-1.98242069018306E-05,1.40625,0,0
-1.48173319303169E-06,-1.94559906958602E-05,1.40625,0,0
-1.92747756955214E-06,-2.08459405257599E-05,1.40625,0,0
-8.94631625669717E-07,-2.04746083909413E-05,1.40625,0,0
-1.21629977911653E-06,-1.36129747261293E-05,1.40625,0,0
-1.74926117324503E-06,-1.76449739228701E-05,1.40625,0,0
1.97396843759634E-07,-1.1124702723464E-05,1.40625,0,0
-1.43919931527847E-09,-1.42321059684036E-05,1.40625,0,0
-1.56099360992812E-06,-1.27641651488375E-05,1.40625,0,0
-2.52352310781134E-06,-1.71441679412965E-05,1.40625,0,0
-2.72027546088793E-06,-1.55685283971252E-05,1.40625,0,0
-2.73579803433677E-06,-1.59462142619304E-05,1.40625,0,0
-3.78941854251025E-06,-1.5219143278955E-05,1.40625,0,0
-3.82083771910402E-06,-1.51286876644008E-05,1.40625,0,0
-2.38429879573232E-06,-1.52003995026462E-05,1.40625,0,0
-1.87793500572297E-06,-1.38456462082104E-05,1.40625,0,0
-3.15708393827663E-06,-1.28307237901026E-05,1.40625,0,0
-3.13620716951846E-06,-1.07074747575098E-05,1.40625,0,0
-1.48373783304123E-06,-1.07561008917401E-05,1.40625,0,0
-3.66543787322371E-07,-1.06757570392801E-05,1.40625,0,0
-2.48267539859626E-08,-1.3960016076453E-05,1.40625,0,0
5.30319709923788E-07,-1.56706282723462E-05,1.40625,0,0
7.93639230778354E-07,-1.72466716321651E-05,1.40625,0,0
2.84887136103862E-07,-1.61343268700875E-05,1.40625,0,0
7.22113782103406E-08,-1.52589182107477E-05,1.40625,0,0
1.19383901164838E-06,-1.30944226839347E-05,1.40625,0,0
2.65066978499817E-06,-1.25734695757274E-05,1.40625,0,0
3.06274432659848E-06,-1.28834717543214E-05,1.40625,0,0
3.08050061903486E-06,-1.45763124237419E-05,1.40625,0,0
2.53393500315724E-06,-1.49348670674954E-05,1.40625,0,0
2.7958105874859E-06,-1.44615323733888E-05,1.40625,0,0
3.81727932108333E-06,-1.15896109491587E-05,1.40625,0,0
5.80582263864926E-06,-1.5905176041997E-05,1.40625,0,0
4.58440308648278E-06,-1.07783835119335E-05,1.40625,0,0
4.7839644139458E-06,-1.38436598717817E-05,1.40625,0,0
3.60918443220726E-06,-1.28370847960468E-05,1.40625,0,0
4.9706195568433E-06,-1.49346524267457E-05,1.40625,0,0
6.3480465541943E-06,-1.43373408718617E-05,1.40625,0,0
7.57748557589366E-06,-1.49208708535298E-05,1.40625,0,0
8.08596632850822E-06,-1.29204199765809E-05,1.40625,0,0
7.5854832175537E-06,-1.21899911391665E-05,1.40625,0,0
6.16305942457984E-06,-1.28447618408245E-05,1.40625,0,0
5.41201188752893E-06,-1.19884598461795E-05,1.40625,0,0
5.36317656951724E-06,-1.14908298201044E-05,1.40625,0,0
4.40976373283775E-06,-1.08176345747779E-05,1.40625,0,0
3.50916866409534E-06,-1.09604479803238E-05,1.40625,0,0
3.56479017682432E-06,-1.00569932328654E-05,1.40625,0,0
4.81414190289797E-06,-1.11953277155408E-05,1.40625,0,0
5.05615344081889E-06,-1.14092954390799E-05,1.40625,0,0
4.90856473334134E-06,-1.26215190903167E-05,1.40625,0,0
3.84426175514818E-06,-1.29456839204067E-05,1.40625,0,0
3.03320348393754E-06,-1.39309286169009E-05,1.40625,0,0
2.85473265648761E-06,-1.3568252143159E-05,1.40625,0,0
2.98129953080206E-06,-1.44587484101066E-05,1.40625,0,0
2.75453635367739E-06,-1.48459075717255E-05,1.40625,0,0
2.86508566205157E-06,-1.32233444674057E-05,1.40625,0,0
2.27381678996608E-06,-1.17286472232081E-05,1.40625,0,0
2.69279689746327E-06,-1.53061282617273E-05,1.40625,0,0
2.59065905083844E-06,-1.83885022124741E-05,1.40625,0,0
2.22567314267508E-06,-2.86104295810219E-05,1.40625,0,0
5.81337076255295E-07,-2.40596364164958E-05,1.40625,0,0
3.58971465175273E-06,-2.67868981609354E-05,1.40625,0,0
3.34169203597412E-06,-2.02820756385336E-05,1.40625,0,0
1.02520391465077E-06,-2.01663769985316E-05,1.40625,0,0
-1.17148113076837E-06,-1.71029969351366E-05,1.40625,0,0
-1.47958871821174E-06,-1.79719045263482E-05,1.40625,0,0
-1.31563876948348E-06,-1.90983591892291E-05,1.40625,0,0
-7.31694228761626E-07,-2.01064140128437E-05,1.40625,0,0
-7.85035695116676E-07,-1.99184050870826E-05,1.40625,0,0
-1.92987545233336E-06,-1.903111115098E-05,1.40625,0,0
-2.11105611924722E-06,-2.066393608402E-05,1.40625,0,0
-1.95913548850513E-06,-2.10233265534043E-05,1.40625,0,0
-1.53284747739235E-06,-2.24124887608923E-05,1.40625,0,0
-1.16482249268302E-06,-1.99393743969267E-05,1.40625,0,0
3.05337550798868E-07,-1.76767898665275E-05,1.40625,0,0
1.6951382804109E-06,-1.48077342601027E-05,1.40625,0,0
2.05451988222194E-06,-1.6218569726334E-05,1.40625,0,0
5.75043088701932E-07,-1.79096132342238E-05,1.40625,0,0
-1.11469375951856E-07,-2.08218862098875E-05,1.40625,0,0
2.38429436194565E-07,-2.13830553548178E-05,1.40625,0,0
7.05972752257367E-07,-2.40017270698445E-05,1.40625,0,0
1.18911816571199E-06,-2.63977017311845E-05,1.40625,0,0
1.54386930262262E-06,-2.6430874640937E-05,1.40625,0,0
2.07777566174627E-06,-2.4730139557505E-05,1.40625,0,0
1.81482937477995E-06,-2.19170469790697E-05,1.40625,0,0
1.91651952263783E-06,-1.5384877769975E-05,1.40625,0,0
3.22342134495557E-06,-2.0289488020353E-05,1.40625,0,0
1.5755407503093E-06,-1.2983090527996E-05,1.40625,0,0
5.54827650489642E-08,-1.60231611516792E-05,1.40625,0,0
-2.24629189915504E-07,-1.26026625366649E-05,1.40625,0,0
1.12273960439779E-06,-1.68157748703379E-05,1.40625,0,0
1.98255975192296E-06,-1.6356378182536E-05,1.40625,0,0
1.17191086701496E-06,-1.70027124113403E-05,1.40625,0,0
-4.56931388725934E-07,-1.69329014170216E-05,1.40625,0,0
-4.72768988402095E-07,-1.67689504451118E-05,1.40625,0,0
-2.75869584953625E-08,-1.58425536938012E-05,1.40625,0,0
9.67384963246332E-08,-1.44645209729788E-05,1.40625,0,0
2.08441042559571E-06,-1.64181510626804E-05,1.40625,0,0
4.86935914523201E-06,-1.80878523678984E-05,1.40625,0,0
6.26610926701687E-06,-2.00819795281859E-05,1.40625,0,0
5.36481684321188E-06,-2.00292815861758E-05,1.40625,0,0
3.66123481398972E-06,-2.19064004340908E-05,1.40625,0,0
1.71892793332518E-06,-2.19099656533217E-05,1.40625,0,0
9.80618821699863E-08,-2.30981004278874E-05,1.40625,0,0
-1.79915602416258E-08,-2.17950346268481E-05,1.40625,0,0
2.1578009636869E-06,-2.07799766940298E-05,1.40625,0,0
4.86560975332395E-06,-1.82889052666724E-05,1.40625,0,0
6.52497055853019E-06,-1.70158091350459E-05,1.40625,0,0
6.69939663566765E-06,-1.67995094670914E-05,1.40625,0,0
5.35206299900892E-06,-1.71864558069501E-05,1.40625,0,0
4.4667576730717E-06,-1.68451879289933E-05,1.40625,0,0
4.57806982012698E-06,-1.75987461261684E-05,1.40625,0,0
3.6756791814696E-06,-1.75782497535693E-05,1.40625,0,0
5.22518166690134E-06,-2.86283629975514E-05,1.40625,0,0
3.47575905834674E-06,-2.48950309469365E-05,1.40625,0,0
3.71667078979954E-06,-2.66686074610334E-05,1.40625,0,0
1.4647074522145E-06,-2.14666961255716E-05,1.40625,0,0
6.53458016586228E-07,-2.47391126322327E-05,1.40625,0,0
2.8125325570727E-06,-2.61373716057278E-05,1.40625,0,0
6.61737021800946E-06,-2.67588857241208E-05,1.40625,0,0
6.56223028272507E-06,-2.37074928008951E-05,1.40625,0,0
4.23201072408119E-06,-2.09130703296978E-05,1.40625,0,0
1.64369578214973E-06,-1.90652062883601E-05,1.40625,0,0
-5.71998725718004E-07,-1.90035643754527E-05,1.40625,0,0
-1.18357684186776E-06,-2.05199467018247E-05,1.40625,0,0
-1.12503289528831E-06,-1.82985513674794E-05,1.40625,0,0
-7.4773424785235E-07,-1.66164500114974E-05,1.40625,0,0
-1.05236631497974E-06,-1.42979088195716E-05,1.40625,0,0
-1.07401774585014E-06,-1.52339243868482E-05,1.40625,0,0
-1.06545076050679E-06,-1.57851754920557E-05,1.40625,0,0
3.9208128299606E-08,-1.69375234690961E-05,1.40625,0,0
1.69351176282362E-06,-1.5325162166846E-05,1.40625,0,0
3.58680358658603E-06,-1.59022292791633E-05,1.40625,0,0
3.86344208891387E-06,-1.68648275575833E-05,1.40625,0,0
3.24086818181968E-06,-1.699524182186E-05,1.40625,0,0
2.81581219496729E-06,-1.51163376358454E-05,1.40625,0,0
2.86296472040704E-06,-1.54293120431248E-05,1.40625,0,0
2.7279534151603E-06,-1.72989257407608E-05,1.40625,0,0
3.09056667902041E-06,-1.90375249076169E-05,1.40625,0,0
3.27089628626709E-06,-1.4572652617062E-05,1.40625,0,0
5.16680938744685E-06,-1.9650728063425E-05,1.40625,0,0
3.29448607772065E-06,-1.40032752824482E-05,1.40625,0,0
2.88545334115042E-06,-1.91602557606529E-05,1.40625,0,0
2.32997285820602E-06,-1.76743360498222E-05,1.40625,0,0
2.64973550656578E-06,-1.96006276382832E-05,1.40625,0,0
2.43266595134628E-06,-1.67192210938083E-05,1.40625,0,0
3.7788024656038E-06,-1.76918638317147E-05,1.40625,0,0
5.79572179049137E-06,-1.77405927388463E-05,1.40625,0,0
5.62901004741434E-06,-1.78895843419014E-05,1.40625,0,0
4.05509445045027E-06,-1.79867383849341E-05,1.40625,0,0
3.32888839693624E-06,-1.66745121532585E-05,1.40625,0,0
3.62522860086756E-06,-1.5641995560145E-05,1.40625,0,0
3.38655513587582E-06,-1.40637075674022E-05,1.40625,0,0
2.45971136791923E-06,-1.66508762049489E-05,1.40625,0,0
1.39650819619419E-06,-1.8423552319291E-05,1.40625,0,0
9.62777676249971E-07,-2.03639156097779E-05,1.40625,0,0
6.24654148850823E-07,-1.91049530258169E-05,1.40625,0,0
7.61475462240924E-07,-1.79980634129606E-05,1.40625,0,0
1.35285563374055E-06,-1.56821843120269E-05,1.40625,0,0
3.5629727790365E-06,-1.75969289557543E-05,1.40625,0,0
5.37082178198034E-06,-2.0775501980097E-05,1.40625,0,0
4.51161167802638E-06,-2.26512947847368E-05,1.40625,0,0
3.01610930364404E-06,-2.20070469367784E-05,1.40625,0,0
4.01439501729328E-06,-2.19120356632629E-05,1.40625,0,0
5.79039851800189E-06,-2.1643374566338E-05,1.40625,0,0
6.53554207019624E-06,-2.19220073631732E-05,1.40625,0,0
4.61949230157188E-06,-1.72908967215335E-05,1.40625,0,0
4.61596982859191E-06,-2.47092357312795E-05,1.40625,0,0
2.52295239988598E-06,-1.86663019121625E-05,1.40625,0,0
5.17519220011309E-06,-2.10260222957004E-05,1.40625,0,0
3.26736085298762E-06,-1.47828459375887E-05,1.40625,0,0
2.71359886028222E-06,-1.713662459224E-05,1.40625,0,0
1.72756608662894E-06,-1.44920240927604E-05,1.40625,0,0
3.32033278027666E-06,-1.39198255055817E-05,1.40625,0,0
4.82493214803981E-06,-1.35826185214682E-05,1.40625,0,0
5.48616162632243E-06,-1.36681301228236E-05,1.40625,0,0
4.00389444621396E-06,-1.28605324789532E-05,2.4609375,0,0
2.07882430913742E-06,-1.09800412246841E-05,2.4609375,0,0
1.72822228705627E-06,-1.16296741907718E-05,2.4609375,0,0
1.44083719533228E-06,-1.21199336717837E-05,2.4609375,0,0
1.43066574764816E-06,-1.50952464537113E-05,2.4609375,0,0
6.07149729603407E-07,-1.58403636305593E-05,2.4609375,0,0
1.01558293863491E-06,-1.79704402398784E-05,2.4609375,0,0
9.80741219791526E-07,-1.76586090674391E-05,2.4609375,0,0
1.26073325645848E-06,-1.79348808160285E-05,2.4609375,0,0
7.07777246589103E-07,-1.59854607773013E-05,2.4609375,0,0
8.82039614680252E-07,-1.62477535923244E-05,2.4609375,0,0
6.85580516801565E-07,-1.7976604794967E-05,2.4609375,0,0
1.84504551725695E-06,-2.08137735171476E-05,2.4609375,0,0
2.36032610700931E-06,-2.10005437111249E-05,2.4609375,0,0
1.24178541227593E-06,-1.96865294128656E-05,2.4609375,0,0
7.42600576586483E-08,-1.70720522874035E-05,2.4609375,0,0
3.75130838392579E-07,-1.56239548232406E-05,2.4609375,0,0
1.65084827585815E-06,-1.15898510557599E-05,2.4609375,0,0
1.3820620097249E-06,-1.73548542079516E-05,2.4609375,0,0
4.55187262105028E-07,-1.67948492162395E-05,2.4609375,0,0
2.10365010389069E-06,-2.20754191104788E-05,2.4609375,0,0
2.35044763030601E-06,-1.76195771928178E-05,2.4609375,0,0
2.13652037928114E-06,-1.63818895089207E-05,2.4609375,0,0
9.08191054804774E-07,-1.44084087878582E-05,2.4609375,0,0
4.50753390168757E-07,-1.78808822965948E-05,2.4609375,0,0
8.55008636335697E-07,-2.05960295716068E-05,2.4609375,0,0
1.96504106497741E-06,-1.99210371647496E-05,2.4609375,0,0
4.17963883592165E-06,-1.74463257280877E-05,2.4609375,0,0
5.39472102900618E-06,-1.53437686094549E-05,2.4609375,0,0
5.31222895006067E-06,-1.56680816871813E-05,2.4609375,0,0
4.21538834416424E-06,-1.49544102896471E-05,2.4609375,0,0
3.75946751773881E-06,-1.62552496476565E-05,2.4609375,0,0
4.17970477428753E-06,-1.75688965100562E-05,2.4609375,0,0
5.42155930816079E-06,-2.01478542294353E-05,2.4609375,0,0
5.84474810239044E-06,-1.98651723621879E-05,2.4609375,0,0
6.21770368525176E-06,-1.95139400602784E-05,2.4609375,0,0
7.14670841261977E-06,-1.84518885362195E-05,2.4609375,0,0
7.96994299889775E-06,-1.76231806108262E-05,2.4609375,0,0
8.21786488813814E-06,-1.51097383422893E-05,2.4609375,0,0
8.47456340125063E-06,-1.29187774291495E-05,2.4609375,0,0
8.99658425623784E-06,-1.09365882963175E-05,2.4609375,0,0
1.00987963378429E-05,-1.08349977381295E-05,2.4609375,0,0
1.02977219285094E-05,-1.06556890386855E-05,2.4609375,0,0
9.29249836190138E-06,-1.00356910479604E-05,2.4609375,0,0
8.43406724015949E-06,-8.45514750835719E-06,2.4609375,0,0
1.22662677313201E-05,-1.26420591186616E-05,2.4609375,0,0
8.38345204101643E-06,-9.60501074587228E-06,2.4609375,0,0
8.65026049723383E-06,-1.00290262707858E-05,2.4609375,0,0
5.80903952140943E-06,-9.45193914958509E-06,2.4609375,0,0
5.41510189577821E-06,-1.30299476950313E-05,2.4609375,0,0
3.39943426297395E-06,-1.36147782541229E-05,2.4609375,0,0
3.8311386560963E-06,-1.58519924298162E-05,2.4609375,0,0
3.62026094080647E-06,-1.61237403517589E-05,2.4609375,0,0
3.39636221724504E-06,-1.55400739458855E-05,2.4609375,0,0
2.06263621294056E-06,-1.46417523865239E-05,2.4609375,0,0
7.67492380759904E-08,-1.46135434988537E-05,2.4609375,0,0
5.55099006760429E-07,-1.65396468219114E-05,2.4609375,0,0
2.01180841941095E-06,-1.79594226210611E-05,2.4609375,0,0
4.42311693404918E-06,-1.95293978322297E-05,2.4609375,0,0
4.49240496891434E-06,-1.94838830793742E-05,2.4609375,0,0
3.45354396813491E-06,-1.9565959519241E-05,2.4609375,0,0
5.81466167659528E-07,-1.85867156687891E-05,2.4609375,0,0
-8.39486702375325E-08,-1.97430563275702E-05,2.4609375,0,0
3.89210327966794E-07,-2.03049676201772E-05,2.4609375,0,0
1.95496136257134E-06,-1.99415717361262E-05,2.4609375,0,0
2.9507561976061E-06,-1.90378923434764E-05,2.4609375,0,0
3.17377680403297E-06,-2.04455209313892E-05,2.4609375,0,0
1.75161471815954E-06,-2.1053723685327E-05,2.4609375,0,0
9.08791719211877E-07,-2.01944494619966E-05,2.4609375,0,0
5.0090420700144E-07,-1.95045722648501E-05,2.4609375,0,0
6.34121022358158E-07,-1.97224781004479E-05,2.4609375,0,0
9.78619368652289E-07,-1.51056110553327E-05,2.4609375,0,0
1.32873492475483E-06,-2.06979821086861E-05,2.4609375,0,0
2.98661973374692E-07,-1.50928171933629E-05,2.4609375,0,0
-6.00012981522013E-07,-1.9418126612436E-05,2.4609375,0,0
-2.14914933849286E-07,-1.68500828294782E-05,2.4609375,0,0
9.86529244073608E-07,-1.96200671780389E-05,2.4609375,0,0
1.57852662141522E-06,-1.77391830220586E-05,2.4609375,0,0
1.29498039314058E-06,-1.86607539944816E-05,2.4609375,0,0
-2.17232539512224E-07,-1.85460030479589E-05,2.4609375,0,0
-8.61022613207751E-07,-1.92235384020023E-05,2.4609375,0,0
5.05683104279342E-08,-1.77631718543125E-05,2.4609375,0,0
1.49427819451375E-06,-1.46646616485668E-05,2.4609375,0,0
2.35721790886601E-06,-1.53662094817264E-05,2.4609375,0,0
1.07220535028318E-06,-1.58263446792262E-05,2.4609375,0,0
-1.68711187598092E-06,-1.72664003912359E-05,2.4609375,0,0
-2.47289631261083E-06,-1.60027757374337E-05,2.4609375,0,0
-1.12132943286269E-06,-1.67129619512707E-05,2.4609375,0,0
-1.0664122100934E-06,-1.61423595272936E-05,2.4609375,0,0
-1.59760577389534E-06,-1.65642231877428E-05,2.4609375,0,0
-1.15087846097595E-06,-1.49391044033109E-05,2.4609375,0,0
9.70574518532885E-08,-1.51302374433726E-05,2.4609375,0,0
-1.73621927501699E-07,-1.60970193974208E-05,2.4609375,0,0
-2.98059171655041E-06,-1.80343122337945E-05,2.4609375,0,0
-5.41726831215783E-06,-1.89659131137887E-05,2.4609375,0,0
-4.23244409830659E-06,-2.01563107111724E-05,2.4609375,0,0
-1.46885224694415E-06,-1.81986779352883E-05,2.4609375,0,0
-3.45812793511868E-07,-1.62373416969785E-05,2.4609375,0,0
-4.06580198841766E-07,-1.18552734420518E-05,2.4609375,0,0
-8.45550346184609E-07,-1.63019303727197E-05,2.4609375,0,0
-1.32830905386072E-06,-1.25797187138232E-05,2.4609375,0,0
-8.77958598266559E-07,-1.73384432855528E-05,2.4609375,0,0
3.81362838197674E-07,-1.45139483720413E-05,2.4609375,0,0
-4.30112123694926E-07,-1.52128613990499E-05,2.4609375,0,0
-1.88472097306658E-06,-1.43570878208266E-05,2.4609375,0,0
-2.69047859546845E-06,-1.49814522956149E-05,2.4609375,0,0
-2.66872416432307E-06,-1.392150807078E-05,2.4609375,0,0
-1.12306850041932E-06,-1.33347830342245E-05,2.4609375,0,0
6.68868835873582E-07,-1.3761705304205E-05,2.4609375,0,0
1.15917077891936E-06,-1.35595091705909E-05,2.4609375,0,0
1.48426011037373E-06,-1.44604873639764E-05,2.4609375,0,0
1.70691930634348E-06,-1.52150969370268E-05,2.4609375,0,0
5.86228054544335E-07,-1.60465460794512E-05,2.4609375,0,0
-1.32034199396003E-06,-1.47972023114562E-05,2.4609375,0,0
-1.96359201254381E-06,-1.59676492330618E-05,2.4609375,0,0
-5.68482278140436E-07,-1.63634085765807E-05,2.4609375,0,0
1.04753610230546E-06,-1.69120721693616E-05,2.4609375,0,0
1.06892377971235E-06,-1.59662049554754E-05,2.4609375,0,0
-8.62586773564544E-07,-1.61283187480876E-05,2.4609375,0,0
-2.73030718744849E-06,-1.65472702065017E-05,2.4609375,0,0
-2.72711690740834E-06,-1.83242591447197E-05,2.4609375,0,0
-1.32658101392735E-06,-1.86206416401546E-05,2.4609375,0,0
-2.35118903901821E-07,-1.86537108675111E-05,2.4609375,0,0
1.22530900625861E-06,-1.8983426343766E-05,2.4609375,0,0
2.77846129392856E-06,-1.95277170860209E-05,2.4609375,0,0
3.67367942999408E-06,-1.70122457348043E-05,2.4609375,0,0
6.27822782917065E-06,-2.64312657236587E-05,2.4609375,0,0
5.63528965358273E-06,-2.30665973504074E-05,2.4609375,0,0
6.10054848948494E-06,-2.58746549661737E-05,2.4609375,0,0
5.56355462322244E-06,-1.90910668607103E-05,2.4609375,0,0
6.74386046739528E-06,-1.93714549823198E-05,2.4609375,0,0
7.68573227105662E-06,-1.65370947797783E-05,2.4609375,0,0
9.34669787966413E-06,-1.61730822583195E-05,2.4609375,0,0
9.94882248050999E-06,-1.51004587678472E-05,2.4609375,0,0
8.655377314426E-06,-1.5070541849127E-05,2.4609375,0,0
6.76912259223172E-06,-1.54437093442539E-05,2.4609375,0,0
5.4019410526962E-06,-1.52681641338859E-05,2.4609375,0,0
6.54398627375485E-06,-1.57117174239829E-05,2.4609375,0,0
9.28456938709132E-06,-1.54385998030193E-05,2.4609375,0,0
1.0827344340214E-05,-1.79549751919694E-05,2.4609375,0,0
1.00414754342637E-05,-1.88458798220381E-05,2.4609375,0,0
9.11027018446475E-06,-2.01833208848257E-05,2.4609375,0,0
8.55035887070699E-06,-1.88261074072216E-05,2.4609375,0,0
8.27403800940374E-06,-1.86968845810043E-05,2.4609375,0,0
6.04384149482939E-06,-1.59386563609587E-05,2.4609375,0,0
2.96518828690751E-06,-1.46210704770056E-05,2.4609375,0,0
1.56613361923519E-06,-1.389339013258E-05,2.4609375,0,0
2.31111471293843E-06,-1.58170842041727E-05,2.4609375,0,0
3.10600444208831E-06,-1.7009508155752E-05,2.4609375,0,0
3.29191880155122E-06,-1.62839405675186E-05,2.4609375,0,0
2.10363714359119E-06,-1.38836885525961E-05,2.4609375,0,0
8.92614764325117E-07,-1.42267290357267E-05,2.4609375,0,0
4.15294749700479E-07,-1.30769085444626E-05,2.4609375,0,0
2.81114148492634E-06,-1.97545105038444E-05,2.4609375,0,0
4.44965417045751E-06,-1.60094023158308E-05,2.4609375,0,0
3.74181854567723E-06,-1.72114941960899E-05,2.4609375,0,0
3.36965649694321E-06,-1.22798946904368E-05,2.4609375,0,0
3.23803897117614E-06,-1.33226367324824E-05,2.4609375,0,0
3.73049601876119E-06,-1.17991794468253E-05,2.4609375,0,0
4.67505924461875E-06,-1.46558768392424E-05,2.4609375,0,0
5.27217343915254E-06,-1.74388533196179E-05,2.4609375,0,0
4.43220415036194E-06,-1.79250655492069E-05,2.4609375,0,0
3.31491401084349E-06,-1.7258846128243E-05,2.4609375,0,0
3.34888181896531E-06,-1.74952783709159E-05,2.4609375,0,0
4.46103331341874E-06,-1.88440244528465E-05,2.4609375,0,0
5.36295056008385E-06,-1.69715531228576E-05,2.4609375,0,0
5.2477612371149E-06,-1.62272226589266E-05,2.4609375,0,0
4.61205218016403E-06,-1.48013878060738E-05,2.4609375,0,0
3.73406260223419E-06,-1.63376371347113E-05,2.4609375,0,0
3.04715695165214E-06,-1.83030297193909E-05,3.33984375,0,0
2.50497168963193E-06,-2.19832018046873E-05,3.33984375,0,0
2.89605236503121E-06,-2.14460469578626E-05,3.33984375,0,0
4.23784740632982E-06,-1.91751096281223E-05,3.33984375,0,0
5.56816667085513E-06,-1.82637995749246E-05,3.33984375,0,0
5.14668408868602E-06,-1.96050277736504E-05,3.33984375,0,0
4.04127331421478E-06,-2.09535919566406E-05,3.33984375,0,0
2.55633267443045E-06,-2.26853007916361E-05,3.33984375,0,0
9.04638454812812E-07,-2.35563875321532E-05,3.33984375,0,0
3.38814743372495E-07,-2.31308476941194E-05,3.33984375,0,0
1.33324661533152E-07,-1.68733404279919E-05,3.33984375,0,0
9.86463760455081E-07,-2.34809140238212E-05,3.33984375,0,0
3.43918100043084E-06,-1.70063358382322E-05,3.33984375,0,0
5.38744416189729E-06,-2.03310009965207E-05,3.33984375,0,0
5.14828343511908E-06,-1.65646979439771E-05,3.33984375,0,0
4.68180724055856E-06,-2.04990010388428E-05,3.33984375,0,0
4.40002713730792E-06,-1.90261380339507E-05,3.33984375,0,0
3.86276178687694E-06,-1.92897987290053E-05,3.33984375,0,0
3.08753237732162E-06,-1.83696811291156E-05,3.33984375,0,0
2.49297227128409E-06,-1.86193283298053E-05,3.33984375,0,0
6.09283574704023E-07,-1.83783613465494E-05,3.33984375,0,0
-2.27678174269386E-06,-1.7146307072835E-05,3.33984375,0,0
-4.36238042311743E-06,-1.81990544660948E-05,3.33984375,0,0
-5.64308220418752E-06,-1.81824034370948E-05,3.33984375,0,0
-5.79031984671019E-06,-1.87145997188054E-05,3.33984375,0,0
-4.76479226563242E-06,-1.64356824825518E-05,3.33984375,0,0
-3.8697435229551E-06,-1.55235538841225E-05,3.33984375,0,0
-4.15719887314481E-06,-1.33655748868478E-05,3.33984375,0,0
-4.71940347779309E-06,-1.43589995786897E-05,3.33984375,0,0
-4.23935807702946E-06,-1.44554942380637E-05,3.33984375,0,0
-2.38570828514639E-06,-1.6280444469885E-05,3.33984375,0,0
2.4548924670853E-07,-1.74655724549666E-05,3.33984375,0,0
1.1458831750133E-06,-1.8957251086249E-05,3.33984375,0,0
-6.25161419520737E-07,-1.74767155840527E-05,3.33984375,0,0
-1.6359341543648E-06,-1.52328229887644E-05,3.33984375,0,0
-1.17330239390867E-06,-1.44193963933503E-05,3.33984375,0,0
-1.36878568923748E-07,-1.66427253134316E-05,3.33984375,0,0
6.82564461840229E-07,-1.45822641570703E-05,3.33984375,0,0
8.33971796510014E-07,-2.04285097424872E-05,3.33984375,0,0
1.69224307455806E-07,-1.46546954056248E-05,3.33984375,0,0
1.99920506815943E-07,-1.75908589881146E-05,3.33984375,0,0
-6.68728887376346E-07,-1.40454285428859E-05,3.33984375,0,0
-9.98969198917621E-07,-1.58264811034314E-05,3.33984375,0,0
5.34956313913426E-07,-1.41762520797784E-05,3.33984375,0,0
2.15706700146256E-06,-1.38665100166691E-05,3.33984375,0,0
2.72454485639173E-06,-1.15874154289486E-05,3.33984375,0,0
2.38099960370164E-06,-1.03578049674979E-05,3.33984375,0,0
2.35990091823624E-06,-1.1027585969714E-05,3.33984375,0,0
2.35959896599525E-06,-1.29640702652978E-05,3.33984375,0,0
2.17513070310815E-06,-1.61258194566472E-05,3.33984375,0,0
2.75367278845806E-06,-1.6541172954021E-05,3.33984375,0,0
4.82120867673075E-06,-1.77809506567428E-05,3.33984375,0,0
7.42258816899266E-06,-1.87765399459749E-05,3.33984375,0,0
8.66611753735924E-06,-2.25715812121052E-05,3.33984375,0,0
8.52898119774181E-06,-2.30168716370827E-05,3.33984375,0,0
7.39492725188029E-06,-2.26706888497574E-05,3.33984375,0,0
6.2539638747694E-06,-2.12944050872466E-05,3.33984375,0,0
6.31638067716267E-06,-2.25927306019003E-05,3.33984375,0,0
6.87457895764965E-06,-2.34225517488085E-05,3.33984375,0,0
6.98568555890233E-06,-2.35520637943409E-05,3.33984375,0,0
6.4776018007251E-06,-2.14622341445647E-05,3.33984375,0,0
5.60295165996649E-06,-1.92729767150013E-05,3.33984375,0,0
5.1368288040976E-06,-1.82600924745202E-05,3.33984375,0,0
4.65976199848228E-06,-2.00757622224046E-05,3.33984375,0,0
4.49292974735727E-06,-1.8512359019951E-05,3.33984375,0,0
5.98880706093041E-06,-2.57940737355966E-05,3.33984375,0,0
4.67910149382078E-06,-1.89149050129345E-05,3.33984375,0,0
6.89669741404941E-06,-2.40442950598663E-05,3.33984375,0,0
6.07318042966654E-06,-2.12400518648792E-05,3.33984375,0,0
6.71769794280408E-06,-2.47164352913387E-05,3.33984375,0,0
7.16676959200413E-06,-2.24802297452698E-05,3.33984375,0,0
7.75945954956114E-06,-2.19546109292423E-05,3.33984375,0,0
5.17209082318004E-06,-1.9712386347237E-05,3.33984375,0,0
1.42127839808381E-06,-1.91569451999385E-05,3.33984375,0,0
-1.10228270955304E-07,-1.85613571375143E-05,3.33984375,0,0
-1.92275876997883E-07,-1.67025027622003E-05,3.33984375,0,0
5.95011783843802E-07,-1.60271174536319E-05,3.33984375,0,0
8.49536831992737E-07,-1.37859724418377E-05,3.33984375,0,0
1.56816270191484E-06,-1.48510334838647E-05,3.33984375,0,0
2.795217142193E-06,-1.54088047565892E-05,3.33984375,0,0
5.61445813218597E-06,-1.70072671608068E-05,3.33984375,0,0
6.75971659802599E-06,-1.52567236000323E-05,3.33984375,0,0
6.15210456089699E-06,-1.6414782294305E-05,3.33984375,0,0
4.228706984577E-06,-1.63440399774117E-05,3.33984375,0,0
3.36059156325064E-06,-1.68307306012139E-05,3.33984375,0,0
3.59332307198201E-06,-1.55702164192917E-05,3.33984375,0,0
4.60870114693535E-06,-1.5193892068055E-05,3.33984375,0,0
5.34917171535199E-06,-1.40451365950867E-05,3.33984375,0,0
6.69072551318095E-06,-1.52990560309263E-05,3.33984375,0,0
6.92327193974052E-06,-1.72742384165758E-05,3.33984375,0,0
5.05354864799301E-06,-1.7119396943599E-05,3.33984375,0,0
3.27168459079985E-06,-1.13175847218372E-05,3.33984375,0,0
4.50858124168008E-06,-1.63105360115878E-05,3.33984375,0,0
4.36556047134218E-06,-1.51654639921617E-05,3.33984375,0,0
5.51768243894912E-06,-2.07583998417249E-05,3.33984375,0,0
2.43092290475033E-06,-1.97631870832993E-05,3.33984375,0,0
1.06141487776767E-06,-2.12162776733749E-05,3.33984375,0,0
6.85379518472473E-07,-1.77919191628462E-05,3.33984375,0,0
1.62369678946561E-06,-1.77015081135323E-05,3.33984375,0,0
2.42537521444319E-06,-1.63800305017503E-05,3.33984375,0,0
3.59369960278855E-06,-1.48795188579243E-05,3.33984375,0,0
3.92970196116949E-06,-1.34993433675845E-05,3.33984375,0,0
2.44159423345991E-06,-1.37627657750272E-05,3.33984375,0,0
1.22368953725527E-06,-1.59484879986849E-05,3.33984375,0,0
-3.51816225929724E-07,-1.53679266077233E-05,3.33984375,0,0
-2.0368381683511E-06,-1.54517329065129E-05,3.33984375,0,0
-3.57900353264995E-06,-1.5248599993356E-05,3.33984375,0,0
-3.85655221180059E-06,-1.63967215485172E-05,3.33984375,0,0
-3.51973881151935E-06,-1.56784553837497E-05,3.33984375,0,0
-1.97743247554172E-06,-1.6976278857328E-05,3.33984375,0,0
-1.19903211270866E-06,-1.58798338816268E-05,3.33984375,0,0
-1.50449875491176E-06,-1.38615150717669E-05,3.33984375,0,0
-2.65061885329487E-06,-1.23050631373189E-05,3.33984375,0,0
-2.53984990195022E-06,-1.36944854602916E-05,3.33984375,0,0
-1.50533924170304E-06,-1.41594673550571E-05,3.33984375,0,0
-5.0674179874477E-07,-1.39524490805343E-05,3.33984375,0,0
6.27417975351818E-08,-1.33168441607268E-05,3.33984375,0,0
1.28267561194662E-06,-1.31880979097332E-05,3.33984375,0,0
1.90894797924557E-06,-1.24043499454274E-05,3.33984375,0,0
3.3645251278358E-06,-1.99609912669985E-05,3.33984375,0,0
4.03312287744484E-06,-1.90248865692411E-05,3.33984375,0,0
5.4344654927263E-06,-2.29567995120306E-05,3.33984375,0,0
6.05516015639296E-06,-2.06293279916281E-05,3.33984375,0,0
7.19879653843236E-06,-2.30451223615091E-05,3.33984375,0,0
6.17144451098284E-06,-2.24869854719145E-05,3.33984375,0,0
4.22979474024032E-06,-2.07863067771541E-05,3.33984375,0,0
2.02593105314008E-06,-1.59639293997316E-05,3.33984375,0,0
1.11180486328522E-06,-1.37961660584551E-05,3.33984375,0,0
2.1018352072133E-06,-1.49730994962738E-05,3.33984375,0,0
3.63754088539281E-06,-1.7379259588779E-05,3.33984375,0,0
4.89196190756047E-06,-2.0049625163665E-05,3.33984375,0,0
4.72212150270934E-06,-2.02739520318573E-05,3.33984375,0,0
3.2766497497505E-06,-2.06464555958519E-05,3.33984375,0,0
1.0093039009007E-06,-1.82325802597916E-05,3.33984375,0,0
-3.16698816504868E-07,-1.74757333297748E-05,3.33984375,0,0
-7.18741887340002E-07,-1.68965943885269E-05,3.33984375,0,0
-2.93492320224686E-07,-1.76794401340885E-05,3.33984375,0,0
-5.71478722122265E-08,-1.74731067090761E-05,3.33984375,0,0
3.01045901096586E-07,-1.92889747268055E-05,3.33984375,0,0
1.82012342975213E-07,-2.00261874852004E-05,3.33984375,0,0
-5.57525822841853E-07,-1.96594373846892E-05,3.33984375,0,0
-2.30199532325059E-07,-1.84022137545981E-05,3.33984375,0,0
2.29812326324463E-06,-1.7827018382377E-05,3.33984375,0,0
3.95888991988613E-06,-1.60963882080978E-05,3.33984375,0,0
4.07997004003846E-06,-1.38632658490678E-05,3.33984375,0,0
3.66555309483374E-06,-1.17189320008038E-05,3.33984375,0,0
4.97212022310123E-06,-1.64986322488403E-05,3.33984375,0,0
2.5783031105675E-06,-1.20005788630806E-05,3.33984375,0,0
2.91455535261775E-06,-1.45049652928719E-05,3.33984375,0,0
2.7223359211348E-06,-1.19762435133453E-05,3.33984375,0,0
2.99428734251705E-06,-1.22768915389315E-05,3.33984375,0,0
1.11968313376565E-06,-9.01580460777041E-06,3.33984375,0,0
1.08810297660966E-06,-9.73062560660765E-06,3.33984375,0,0
