biceps_emg, triceps_emg, subject_position, position_estimate, brace_position
-2.81087486655451E-05,3.0499461445288E-06,0.17578125,0,0
-2.87684288196033E-05,6.75676483297138E-06,0.17578125,0,0
-2.96743528451771E-05,1.0221588127024E-05,0.17578125,0,0
-3.4215296182083E-05,1.07950381789124E-05,0.17578125,0,0
-3.46860979334451E-05,9.01915063877823E-06,0.17578125,0,0
-3.49515175912529E-05,7.23135099178762E-06,0.17578125,0,0
-3.19487990054768E-05,4.86615954287117E-06,0.17578125,0,0
-3.12771408061963E-05,5.09622850586311E-06,0.17578125,0,0
-2.88529445242602E-05,7.30801957615768E-06,0.17578125,0,0
-2.83702102024108E-05,1.16988121590111E-05,0.17578125,0,0
-2.77270137303276E-05,1.50667765410617E-05,0.17578125,0,0
-2.96206853818148E-05,1.58852999447845E-05,0.17578125,0,0
-2.97719416266773E-05,1.39195426527294E-05,0.17578125,0,0
-2.93753018922871E-05,1.109981440095E-05,0.17578125,0,0
-2.85890619124984E-05,8.62777960719541E-06,0.17578125,0,0
-2.78464685834479E-05,8.9354662122787E-06,0.17578125,0,0
-2.07091161428252E-05,9.94859692582395E-06,0.17578125,0,0
-2.80857348116115E-05,1.79292874236126E-05,0.17578125,0,0
-2.0142231733189E-05,1.60603103722679E-05,0.17578125,0,0
-2.55868508247659E-05,1.60210092872148E-05,0.17578125,0,0
-2.01633829419734E-05,1.43176002893597E-05,0.17578125,0,0
-2.19781231862726E-05,1.42668677654001E-05,0.17578125,0,0
-2.02628707484109E-05,1.23990184874856E-05,0.17578125,0,0
-2.39830733335111E-05,1.32208951981738E-05,0.17578125,0,0
-2.54698079515947E-05,1.27131506815203E-05,0.17578125,0,0
-2.63070778601104E-05,1.17211111501092E-05,0.17578125,0,0
-2.59934422501829E-05,1.02886942840996E-05,0.17578125,0,0
-2.50007960858056E-05,8.5687815953861E-06,0.17578125,0,0
-2.71123590209754E-05,8.86778070707805E-06,0.17578125,0,0
-2.74029225693084E-05,9.02814826986287E-06,0.17578125,0,0
-2.86316535493825E-05,8.98184589459561E-06,0.17578125,0,0
-2.61027980741346E-05,8.48424770083511E-06,0.17578125,0,0
-2.5375687982887E-05,1.04606970126042E-05,0.17578125,0,0
-2.33580867643468E-05,1.21868451969931E-05,0.17578125,0,0
-2.41959860431962E-05,1.48300987348193E-05,0.17578125,0,0
-2.23771294258768E-05,1.66759455169085E-05,0.17578125,0,0
-2.23141214519273E-05,1.87145960808266E-05,0.17578125,0,0
-2.2142505258671E-05,1.9404275008128E-05,0.17578125,0,0
-2.34991857723799E-05,2.01919829123653E-05,0.17578125,0,0
-2.31802696362138E-05,2.20497113332385E-05,0.17578125,0,0
-2.31110643653665E-05,2.48703163379105E-05,0.17578125,0,0
-2.31389331020182E-05,2.53863927355269E-05,0.17578125,0,0
-2.37316271523014E-05,2.23264069063589E-05,0.17578125,0,0
-1.98945435840869E-05,1.54918852786068E-05,0.17578125,0,0
-2.75775382760912E-05,2.28805529332021E-05,0.17578125,0,0
-2.07243792829104E-05,1.86864926945418E-05,0.17578125,0,0
-2.75600432360079E-05,2.43270860664779E-05,0.17578125,0,0
-2.49216882366454E-05,2.23992119572358E-05,0.17578125,0,0
-2.78488842013758E-05,2.07402918022126E-05,0.17578125,0,0
-2.62324247159995E-05,1.30517664729268E-05,0.17578125,0,0
-2.80834701698041E-05,1.03848988146638E-05,0.17578125,0,0
-2.67327213805402E-05,7.35591174816363E-06,0.17578125,0,0
-2.45066912611946E-05,7.79398487793515E-06,0.17578125,0,0
-2.22977341763908E-05,9.63574257184519E-06,0.17578125,0,0
-2.05347932933364E-05,9.80313143372769E-06,0.17578125,0,0
-2.08033106900984E-05,9.79736705630785E-06,0.17578125,0,0
-1.95921784325037E-05,8.06813113740645E-06,0.17578125,0,0
-2.03982926905155E-05,8.06767275207676E-06,0.17578125,0,0
-1.75781096913852E-05,7.03000068824622E-06,0.17578125,0,0
-1.62308824656066E-05,7.50570598029299E-06,0.17578125,0,0
-1.40502243084484E-05,3.5568830298871E-06,0.17578125,0,0
-1.58478014782304E-05,7.39294279128444E-08,0.17578125,0,0
-1.62160831678193E-05,-9.6073688382603E-07,0.17578125,0,0
-1.76900466613006E-05,3.19769696943695E-06,0.17578125,0,0
-1.73509160958929E-05,5.41362305739312E-06,0.17578125,0,0
-1.70658677234314E-05,5.88459261052776E-06,0.17578125,0,0
-1.54839308379451E-05,4.31372882303549E-06,0.17578125,0,0
-1.53314649651293E-05,4.20193737227237E-06,0.17578125,0,0
-1.65023211593507E-05,6.79602635500487E-06,0.17578125,0,0
-1.87495243153535E-05,8.71569409355288E-06,0.17578125,0,0
-1.5404499208671E-05,5.88881175644929E-06,0.17578125,0,0
-2.00060258066515E-05,9.20872935239458E-06,0.17578125,0,0
-1.42672006404609E-05,9.35406296775909E-06,0.17578125,0,0
-2.00985086848959E-05,1.37959386847797E-05,0.17578125,0,0
-1.72161635418888E-05,1.35954733195831E-05,0.17578125,0,0
-1.91588005691301E-05,1.15420480142348E-05,0.17578125,0,0
-1.70628136402229E-05,8.82088806974934E-06,0.17578125,0,0
-1.87931018444942E-05,9.0725898189703E-06,0.17578125,0,0
-2.0276542272768E-05,1.02006515589892E-05,0.17578125,0,0
-2.12991926673567E-05,1.20312661238131E-05,0.17578125,0,0
-2.09756653930526E-05,1.38874602271244E-05,0.17578125,0,0
-1.99925816559698E-05,1.41133305078256E-05,0.17578125,0,0
-2.13096409424907E-05,1.33320354507305E-05,0.17578125,0,0
-2.16391908907099E-05,1.17607078209403E-05,0.17578125,0,0
-2.33061109611299E-05,1.02042185972095E-05,0.17578125,0,0
-2.16053140320582E-05,8.32866680866573E-06,0.17578125,0,0
-2.00903632503469E-05,8.24165636004182E-06,0.17578125,0,0
-1.82290750672109E-05,8.8092692749342E-06,0.17578125,0,0
-1.98236230062321E-05,9.68574931903277E-06,0.17578125,0,0
-1.91905128303915E-05,8.8371762103634E-06,0.17578125,0,0
-1.95873672055313E-05,8.82342283148319E-06,0.17578125,0,0
-2.05087362701306E-05,9.54405641095946E-06,0.17578125,0,0
-2.29745255637681E-05,9.13665371626848E-06,0.17578125,0,0
-2.33794999076054E-05,6.85555596646736E-06,0.17578125,0,0
-2.35284023801796E-05,5.93248250879697E-06,0.17578125,0,0
-2.44963594013825E-05,5.96149266129942E-06,0.17578125,0,0
-2.55236718658125E-05,5.50155891687609E-06,0.17578125,0,0
-1.93316554941703E-05,6.2673293541593E-06,0.17578125,0,0
-2.47187945205951E-05,1.19208152682404E-05,0.17578125,0,0
-1.68076021509478E-05,1.21929333545268E-05,0.17578125,0,0
-2.48001069849124E-05,1.44862733577611E-05,0.17578125,0,0
-2.25381518248469E-05,1.42559429150424E-05,0.17578125,0,0
-2.46365216298727E-05,1.4882380128256E-05,0.17578125,0,0
-2.01467228180263E-05,1.82186686288333E-05,0.17578125,0,0
-2.03427716769511E-05,2.27355649258243E-05,0.17578125,0,0
-1.88801823242102E-05,2.29463166760979E-05,0.17578125,0,0
-1.81514678843087E-05,2.24114592128899E-05,0.17578125,0,0
-1.77127330971416E-05,2.36421201407211E-05,0.17578125,0,0
-1.66837398865027E-05,2.31181893468602E-05,0.17578125,0,0
-1.89500497072004E-05,2.17538236029213E-05,0.17578125,0,0
-1.96580676856684E-05,2.05938467843225E-05,0.17578125,0,0
-2.08059645956382E-05,1.84053787961602E-05,0.17578125,0,0
-1.81486047949875E-05,1.54413428390399E-05,0.17578125,0,0
-1.79944399860688E-05,1.40146639751038E-05,0.17578125,0,0
-1.67911039170576E-05,1.18003426905489E-05,0.17578125,0,0
-1.88401718332898E-05,1.00158258646843E-05,0.17578125,0,0
-1.91097169590648E-05,1.0056552127935E-05,0.17578125,0,0
-2.07667781069176E-05,1.1880640158779E-05,0.17578125,0,0
-2.10224097827449E-05,1.28639667309471E-05,0.17578125,0,0
-2.2229793103179E-05,1.1662728866213E-05,0.17578125,0,0
-2.17249071283732E-05,9.70092423813185E-06,0.17578125,0,0
-2.13817002077121E-05,1.10450964712072E-05,0.17578125,0,0
-2.13732419069856E-05,1.25233455037232E-05,0.17578125,0,0
-2.22713824769016E-05,1.07012119769934E-05,0.17578125,0,0
-1.81160248757806E-05,5.97744974584202E-06,0.17578125,0,0
-2.54670903814258E-05,9.84604048426263E-06,0.17578125,0,0
-2.06327385967597E-05,8.50585729494924E-06,0.17578125,0,0
-2.83727349597029E-05,9.05620072444435E-06,0.17578125,0,0
-2.81084703601664E-05,7.22960658094962E-06,0.17578125,0,0
-3.38753197866026E-05,6.7607238634082E-06,0.17578125,0,0
-3.30237744492479E-05,5.93929053138709E-06,0.17578125,0,0
-3.37116434820928E-05,8.25238839752274E-06,0.17578125,0,0
-3.21153856930323E-05,8.48009858600562E-06,0.17578125,0,0
-3.08161106659099E-05,7.4353042691655E-06,0.17578125,0,0
-3.03879314742517E-05,6.49941512165242E-06,0.17578125,0,0
-3.08882772515062E-05,5.53008885617601E-06,0.17578125,0,0
-3.29390932165552E-05,6.76549962008721E-06,0.17578125,0,0
-3.24411630572286E-05,9.38934044825146E-06,0.17578125,0,0
-3.29863178194501E-05,1.12611778604332E-05,0.17578125,0,0
-3.11863077513408E-05,1.16014925879426E-05,0.17578125,0,0
-3.10296381940134E-05,1.30604821606539E-05,0.17578125,0,0
-2.85012829408515E-05,1.31629158204305E-05,0.17578125,0,0
-2.83420904452214E-05,1.20256299851462E-05,0.17578125,0,0
-2.71186145255342E-05,1.04209111668752E-05,0.17578125,0,0
-2.63909732893808E-05,1.02270250863512E-05,0.17578125,0,0
-2.32611873798305E-05,8.97662812349154E-06,0.17578125,0,0
-2.24233936023666E-05,5.85084762860788E-06,0.17578125,0,0
-2.32953134400304E-05,3.55899987880548E-06,0.17578125,0,0
-2.69947759079514E-05,4.78242282042629E-06,0.17578125,0,0
-2.97521874017548E-05,6.27198460279033E-06,0.17578125,0,0
-3.03854212688748E-05,5.56058057554765E-06,0.17578125,0,0
-2.53235320997192E-05,4.78918218504987E-06,0.17578125,0,0
-3.71763453586027E-05,8.58838575368281E-06,0.17578125,0,0
-2.88994306174573E-05,8.36697472550441E-06,0.17578125,0,0
-3.39003672706895E-05,7.54984330342268E-06,0.17578125,0,0
-2.73409059445839E-05,3.58242755282845E-06,0.17578125,0,0
-3.00016399705783E-05,1.71434260209935E-06,0.17578125,0,0
-2.80370240943739E-05,2.54506653618591E-06,0.17578125,0,0
-3.18097700073849E-05,4.48912805950386E-06,0.17578125,0,0
-3.29109134327155E-05,2.66658616965287E-06,0.17578125,0,0
-3.16238365485333E-05,1.78646530457627E-06,0.17578125,0,0
-2.92315817205235E-05,3.6950141293346E-06,0.17578125,0,0
-2.73069344984833E-05,5.27530073668459E-06,0.17578125,0,0
-2.83641311398242E-05,8.11157951829955E-06,0.17578125,0,0
-2.68420608335873E-05,1.22263363664388E-05,0.17578125,0,0
-2.7800366297015E-05,1.45845469887718E-05,0.17578125,0,0
-2.63553301920183E-05,1.36670259962557E-05,0.17578125,0,0
-2.79452942777425E-05,1.23670652101282E-05,0.17578125,0,0
-2.75765105470782E-05,1.03424918052042E-05,0.17578125,0,0
-2.97224851237843E-05,9.82491474132985E-06,0.17578125,0,0
-2.91373689833563E-05,9.96905509964563E-06,0.17578125,0,0
-2.96387570415391E-05,1.09439570223913E-05,0.17578125,0,0
-2.79271662293468E-05,1.28201745610568E-05,0.17578125,0,0
-2.70473610726185E-05,1.36232556542382E-05,0.17578125,0,0
-2.59909247688483E-05,1.22074698083452E-05,0.17578125,0,0
-2.56285784416832E-05,1.21460270747775E-05,0.17578125,0,0
-2.36840132856742E-05,1.39419462357182E-05,0.17578125,0,0
-2.24022132897517E-05,1.67459202202735E-05,0.17578125,0,0
-1.88262984011089E-05,1.69975828612223E-05,0.17578125,0,0
-2.82448727375595E-05,2.36800678976579E-05,0.17578125,0,0
-2.35673542192671E-05,1.43697743624216E-05,0.17578125,0,0
-2.84162360912887E-05,1.7453994587413E-05,0.17578125,0,0
-2.48183241637889E-05,1.41389846248785E-05,0.17578125,0,0
-2.74341527983779E-05,1.30450562210171E-05,0.17578125,0,0
-2.49072945734952E-05,1.08718413684983E-05,0.17578125,0,0
-2.48679825745057E-05,1.35371210490121E-05,0.17578125,0,0
-2.41430479945848E-05,1.32423729155562E-05,0.17578125,0,0
-2.52708869084017E-05,1.31072865769966E-05,0.17578125,0,0
-2.7683508960763E-05,1.13220121420454E-05,0.17578125,0,0
-2.91720334644197E-05,5.33214233655599E-06,0.17578125,0,0
-3.11391886498313E-05,1.63399192842917E-06,0.17578125,0,0
-2.95547743007774E-05,8.95788502930372E-07,0.17578125,0,0
-2.88636019831756E-05,4.36158597949543E-06,0.17578125,0,0
-2.73517543973867E-05,5.48774642084027E-06,0.17578125,0,0
-2.9351956982282E-05,7.12583232598263E-06,0.17578125,0,0
-2.98138438665774E-05,8.11637073638849E-06,0.17578125,0,0
-3.06710244331043E-05,1.2348874406598E-05,0.17578125,0,0
-2.78871975751827E-05,1.44515433930792E-05,0.17578125,0,0
-2.61807308561401E-05,1.55183279275661E-05,0.17578125,0,0
-2.46848758251872E-05,1.54962399392389E-05,0.17578125,0,0
-2.43866197706666E-05,1.6884636352188E-05,0.17578125,0,0
-2.31691938097356E-05,1.76283738255734E-05,0.17578125,0,0
-2.3183376470115E-05,1.94505755644059E-05,0.17578125,0,0
-2.23477672989247E-05,2.19504090637201E-05,0.17578125,0,0
-2.12205304706004E-05,2.57081792369718E-05,0.17578125,0,0
-1.6611431419733E-05,2.21773570956429E-05,0.17578125,0,0
-2.18980767385801E-05,3.07690788758919E-05,0.17578125,0,0
-1.39948733703932E-05,2.18679670069832E-05,0.17578125,0,0
-1.83069059858099E-05,2.7288195269648E-05,0.17578125,0,0
-1.49357483678614E-05,2.41531452047639E-05,0.17578125,0,0
-1.65808833116898E-05,2.86938720819307E-05,0.17578125,0,0
-1.3713233784074E-05,2.72223969659535E-05,0.17578125,0,0
-1.32249633679749E-05,2.87652201222954E-05,0.17578125,0,0
-1.19737032946432E-05,2.46335584961344E-05,0.17578125,0,0
-1.2694194992946E-05,2.24603154492797E-05,0.17578125,0,0
-1.36605131046963E-05,2.20524307223968E-05,0.17578125,0,0
-1.30275939227431E-05,2.00006379600381E-05,0.17578125,0,0
-1.34094216264202E-05,2.06056356546469E-05,0.17578125,0,0
-1.20590657388675E-05,1.79817070602439E-05,0.17578125,0,0
-1.23259651445551E-05,1.46136526382179E-05,0.17578125,0,0
-1.1947437087656E-05,8.66335903992876E-06,0.17578125,0,0
-1.44261357490905E-05,8.36020717542851E-06,0.17578125,0,0
-1.47585305967368E-05,8.40533994050929E-06,0.17578125,0,0
-1.67551061167615E-05,1.15634720714297E-05,0.17578125,0,0
-1.79359685716918E-05,1.25333317555487E-05,0.17578125,0,0
-1.94212225324009E-05,1.53079708979931E-05,0.17578125,0,0
-1.79133767232997E-05,1.60095605679089E-05,0.17578125,0,0
-1.6436413716292E-05,1.55458237713901E-05,0.17578125,0,0
-1.4856436791888E-05,1.19349178930861E-05,0.17578125,0,0
-1.51826243381947E-05,9.07727644516854E-06,0.17578125,0,0
-1.56158257595962E-05,7.03813702784828E-06,0.17578125,0,0
-1.66095378517639E-05,6.2606600295112E-06,0.17578125,0,0
-1.51317472045776E-05,6.32773344477755E-06,0.17578125,0,0
-2.2117159460322E-05,8.70281655807048E-06,0.17578125,0,0
-1.70936073118355E-05,4.51028108727769E-06,0.17578125,0,0
-2.12144896067912E-05,2.95676795758482E-06,0.17578125,0,0
-2.14935753319878E-05,3.823734573416E-07,0.17578125,0,0
-2.6897821953753E-05,4.09136163170842E-07,0.17578125,0,0
-2.57111278187949E-05,1.09663210423605E-06,0.17578125,0,0
-2.42393289227039E-05,4.17123374063522E-06,0.17578125,0,0
-2.15347736229887E-05,6.71967245580163E-06,0.17578125,0,0
-2.1677406039089E-05,1.01893438113621E-05,0.17578125,0,0
-2.31275662372354E-05,1.34185393108055E-05,0.17578125,0,0
-2.41398538491922E-05,1.23851859825663E-05,0.17578125,0,0
-2.54516962741036E-05,1.04461269074818E-05,0.17578125,0,0
-2.43337726715254E-05,1.03329421108356E-05,0.17578125,0,0
-2.41001325775869E-05,1.27353087009396E-05,0.17578125,0,0
-2.19169633055571E-05,1.42349581437884E-05,0.17578125,0,0
-2.17250835703453E-05,1.53914552356582E-05,0.17578125,0,0
-2.02661449293373E-05,1.50153355207294E-05,0.17578125,0,0
-2.12898848985787E-05,1.46681786645786E-05,0.17578125,0,0
-2.26819956878899E-05,1.35250802486553E-05,0.17578125,0,0
-2.58989748544991E-05,1.26197201097966E-05,0.17578125,0,0
-2.65174385276623E-05,1.23837216960965E-05,0.17578125,0,0
-2.52572863246314E-05,1.14616077553364E-05,0.17578125,0,0
-2.25860167120118E-05,5.97861890128115E-06,0.17578125,0,0
-2.25579733523773E-05,3.49697899082457E-07,0.17578125,0,0
-2.41419566009426E-05,8.26623590910458E-07,0.17578125,0,0
-2.40189638134325E-05,5.60262969884207E-06,0.17578125,0,0
-1.93368723557796E-05,7.48612046663766E-06,0.17578125,0,0
-2.86582035187166E-05,1.10398086690111E-05,0.17578125,0,0
-2.24129871639889E-05,6.9109278229007E-06,0.17578125,0,0
-2.65489925368456E-05,8.51547429192578E-06,0.17578125,0,0
-2.40381341427565E-05,9.10164544620784E-06,0.17578125,0,0
-2.88237006316194E-05,1.15928542072652E-05,0.17578125,0,0
-2.80311578535475E-05,1.38781697387458E-05,0.17578125,0,0
-2.92779386654729E-05,1.48350300150923E-05,0.17578125,0,0
-2.88013579847757E-05,1.27362463899772E-05,0.17578125,0,0
-2.99255170830293E-05,1.26193963296828E-05,0.17578125,0,0
-3.15611869154964E-05,1.51060321513796E-05,0.17578125,0,0
-3.10887153318617E-05,1.59847895702114E-05,0.17578125,0,0
-3.02054231724469E-05,1.41627951961709E-05,0.17578125,0,0
-2.78116986009991E-05,1.10992586996872E-05,0.17578125,0,0
-2.8007914806949E-05,9.33974752115319E-06,0.17578125,0,0
-2.68086605501594E-05,9.62937338044867E-06,0.17578125,0,0
-2.85644327959744E-05,1.32750328702969E-05,0.17578125,0,0
-2.9123277272447E-05,1.4999685845396E-05,0.17578125,0,0
-3.13355267280713E-05,1.25859023683006E-05,0.17578125,0,0
-3.14287171931937E-05,7.62022500566673E-06,0.17578125,0,0
-3.3225369406864E-05,4.0011959754338E-06,0.17578125,0,0
-3.3252959838137E-05,1.84460213858983E-06,0.17578125,0,0
-3.18809616146609E-05,4.73704722026014E-06,0.17578125,0,0
-2.76921018667053E-05,8.51621825859183E-06,0.17578125,0,0
-2.51369838224491E-05,8.33227659313707E-06,0.17578125,0,0
-2.39396795223001E-05,5.93381219005096E-06,0.17578125,0,0
-2.29692941502435E-05,5.06963078805711E-06,0.17578125,0,0
-1.77125202753814E-05,5.72020508116111E-06,0.17578125,0,0
-2.58018189924769E-05,8.51800268719671E-06,0.17578125,0,0
-2.16582684515743E-05,3.35628010361688E-06,0.17578125,0,0
-2.73531732091215E-05,2.69615065917606E-06,0.17578125,0,0
-2.40117333305534E-05,4.31615535489982E-06,0.17578125,0,0
-2.80497552012093E-05,5.49586275155889E-06,0.17578125,0,0
-2.78917887044372E-05,5.0008829930448E-06,0.17578125,0,0
-2.82376604445744E-05,3.10299219563603E-06,0.17578125,0,0
-2.36676860367879E-05,-2.05185369850369E-06,0.17578125,0,0
-1.94244439626345E-05,-4.01613215217367E-06,0.17578125,0,0
-1.85985754797002E-05,-3.13290502162999E-06,0.17578125,0,0
-2.01926195586566E-05,-3.29237309415475E-06,0.17578125,0,0
-2.35981333389645E-05,-1.43730358104222E-06,0.17578125,0,0
-2.33352729992475E-05,2.77605658993707E-06,0.17578125,0,0
-2.33807240874739E-05,5.57327302885824E-06,0.17578125,0,0
-2.13746134249959E-05,3.26295048580505E-06,0.17578125,0,0
-2.15309810300823E-05,-3.57661576799728E-07,0.17578125,0,0
-2.0416906409082E-05,-7.1153220915221E-07,0.17578125,0,0
-2.25484254769981E-05,3.57129283656832E-06,0.17578125,0,0
-2.36445830523735E-05,7.24622077541426E-06,0.17578125,0,0
-2.50107914325781E-05,7.91905404184945E-06,0.17578125,0,0
-2.38021548284451E-05,7.29747125660651E-06,0.17578125,0,0
-2.22703147301218E-05,8.09301582194166E-06,0.17578125,0,0
-1.96679429791402E-05,8.45513113745255E-06,0.17578125,0,0
-1.92773204616969E-05,7.8562879934907E-06,0.17578125,0,0
-1.94811855180888E-05,6.47689239485771E-06,0.17578125,0,0
-1.89785860129632E-05,5.54429061594419E-06,0.17578125,0,0
-1.55354209709913E-05,6.27021836407948E-06,0.17578125,0,0
-2.32300317293266E-05,1.19180403999053E-05,0.17578125,0,0
-1.86716624739347E-05,1.0423851563246E-05,0.17578125,0,0
-2.13593848457094E-05,9.17095439945115E-06,0.17578125,0,0
-1.73333355633076E-05,5.58545571038849E-06,0.17578125,0,0
-1.9148459614371E-05,7.70753786127898E-07,0.17578125,0,0
-1.82512922037859E-05,-2.87811917587533E-06,0.17578125,0,0
-2.03483705263352E-05,-1.71753481481574E-06,0.17578125,0,0
-2.03659546968993E-05,2.77159628581103E-09,0.17578125,0,0
-2.0802443032153E-05,2.59527155321848E-06,0.17578125,0,0
-2.11604583455483E-05,6.50453148409724E-06,0.17578125,0,0
-2.08615674637258E-05,8.74859688337892E-06,0.17578125,0,0
-2.22809485421749E-05,8.4758303273702E-06,0.17578125,0,0
-2.21184509427985E-05,5.24117558597936E-06,0.17578125,0,0
-2.22231665247818E-05,2.14318902180821E-06,0.17578125,0,0
-2.05259548238246E-05,2.21741402128828E-06,0.17578125,0,0
-2.1372310584411E-05,4.79733716929331E-06,0.17578125,0,0
-2.10239068110241E-05,5.13406303070951E-06,0.17578125,0,0
-2.15332856896566E-05,3.78527784050675E-06,0.17578125,0,0
-1.96404835151043E-05,3.4601309835125E-06,0.17578125,0,0
-1.96178425539983E-05,6.93164065523888E-06,0.17578125,0,0
-1.99189125851262E-05,9.04133230505977E-06,0.17578125,0,0
-2.19227295019664E-05,4.94788855576189E-06,0.17578125,0,0
-2.37825915974099E-05,-1.49961454098957E-06,0.17578125,0,0
-2.64991958829341E-05,-1.46895217767451E-06,0.17578125,0,0
-3.01947366097011E-05,6.60846944811055E-06,0.17578125,0,0
-3.36311895807739E-05,1.52997727127513E-05,0.17578125,0,0
-2.84274101431947E-05,1.54907229443779E-05,0.17578125,0,0
-4.02080077037681E-05,2.16948646993842E-05,0.17578125,0,0
-3.07983282255009E-05,1.41896671266295E-05,0.17578125,0,0
-3.78073709725868E-05,1.63925342349103E-05,0.17578125,0,0
-2.941435923276E-05,1.28911897263606E-05,0.17578125,0,0
-3.12933043460362E-05,1.31070110001019E-05,0.17578125,0,0
-2.72990509984083E-05,9.98438554233871E-06,0.17578125,0,0
-2.86458143818891E-05,1.14505955934874E-05,0.17578125,0,0
-2.64331920334371E-05,1.10650325950701E-05,0.17578125,0,0
-2.49732966040028E-05,1.25115693663247E-05,0.17578125,0,0
-2.39712917391444E-05,1.42717135531711E-05,0.17578125,0,0
-2.26018619287061E-05,1.33914909383748E-05,0.17578125,0,0
-2.50092289206805E-05,1.43493398354622E-05,0.17578125,0,0
-2.48131018452113E-05,1.59291448653676E-05,0.17578125,0,0
-2.60947890637908E-05,1.8918684872915E-05,0.17578125,0,0
-2.40081426454708E-05,1.8938166249427E-05,0.17578125,0,0
-2.59843254752923E-05,1.84320269909222E-05,0.17578125,0,0
-2.43325666815508E-05,1.55589677888202E-05,0.17578125,0,0
-2.37803724303376E-05,1.58562233991688E-05,0.17578125,0,0
-2.06033691938501E-05,1.46237325679976E-05,0.17578125,0,0
-2.16741627809824E-05,1.31612696350203E-05,0.17578125,0,0
-2.21335358219221E-05,1.14145423140144E-05,0.17578125,0,0
-2.5117731638602E-05,1.28285428218078E-05,0.17578125,0,0
-2.67933974100742E-05,1.46989841596223E-05,0.17578125,0,0
-2.79579271591501E-05,1.57870636030566E-05,0.17578125,0,0
-2.76046885119285E-05,1.58060447574826E-05,0.17578125,0,0
-2.65143880824326E-05,1.60240233526565E-05,0.17578125,0,0
-2.03212475753389E-05,1.17232057164074E-05,0.17578125,0,0
-2.97202186629875E-05,1.72871477843728E-05,0.17578125,0,0
-2.41034431383014E-05,1.54208191815997E-05,0.17578125,0,0
-2.84108937194105E-05,2.01405637199059E-05,0.17578125,0,0
-2.26263055083109E-05,1.749111834215E-05,0.17578125,0,0
-2.51851670327596E-05,1.70501607499318E-05,0.17578125,0,0
-2.19641260628123E-05,1.45696294566733E-05,0.17578125,0,0
-2.12411941902246E-05,1.67056969075929E-05,0.17578125,0,0
-2.17281376535539E-05,1.71573701663874E-05,0.17578125,0,0
-2.38491847994737E-05,1.78618101926986E-05,0.17578125,0,0
-2.49002896453021E-05,1.85884327947861E-05,0.17578125,0,0
-2.46533563768025E-05,1.68819915415952E-05,0.17578125,0,0
-2.54011883953353E-05,1.69967843248742E-05,0.17578125,0,0
-2.31705507758306E-05,1.87179211934563E-05,0.17578125,0,0
-2.3090291506378E-05,1.97656390810153E-05,0.17578125,0,0
-2.32172478717985E-05,1.52741067722673E-05,0.17578125,0,0
-2.63631172856549E-05,1.25804190247436E-05,0.17578125,0,0
-2.62918529188028E-05,1.18830321298447E-05,0.17578125,0,0
-2.77282179013127E-05,1.49479392348439E-05,0.17578125,0,0
-2.74134799838066E-05,1.7100113836932E-05,0.17578125,0,0
-2.75892871286487E-05,1.79103408299852E-05,0.17578125,0,0
-2.58508898696164E-05,1.65015408128966E-05,0.17578125,0,0
-2.51016845140839E-05,1.68098285939777E-05,0.17578125,0,0
-2.32036145462189E-05,1.9085782696493E-05,0.17578125,0,0
-2.29820871027187E-05,2.10862326639472E-05,0.17578125,0,0
-2.49494532909011E-05,2.10890320886392E-05,0.17578125,0,0
-2.79951473203255E-05,2.131537621608E-05,0.17578125,0,0
-2.34242343140068E-05,1.82460807991447E-05,0.17578125,0,0
-3.28830501530319E-05,2.69798820227152E-05,0.17578125,0,0
-2.37901713262545E-05,2.29394190682797E-05,0.17578125,0,0
-2.87607726932038E-05,2.95824011118384E-05,0.17578125,0,0
-2.29788984142942E-05,2.44211059907684E-05,0.17578125,0,0
-2.43465638050111E-05,2.21924037759891E-05,0.17578125,0,0
-2.01150560315E-05,1.89420643437188E-05,0.17578125,0,0
-2.13753100979375E-05,2.1363362975535E-05,0.17578125,0,0
-2.11017486435594E-05,2.07328012038488E-05,0.17578125,0,0
-2.06836848519742E-05,2.05917131097522E-05,0.17578125,0,0
-1.94278291019145E-05,2.00016256712843E-05,0.17578125,0,0
-1.7444717741455E-05,1.72114523593336E-05,0.17578125,0,0
-1.86812085303245E-05,1.75926797965076E-05,0.17578125,0,0
-1.83568481588736E-05,1.74967863131315E-05,0.17578125,0,0
-1.88885405805195E-05,1.54350200318731E-05,0.17578125,0,0
-1.60907420649892E-05,1.02681660791859E-05,0.17578125,0,0
-1.66928275575629E-05,1.12328270915896E-05,0.17578125,0,0
-1.56690093717771E-05,1.3466582458932E-05,0.17578125,0,0
-1.69271461345488E-05,1.59524879563833E-05,0.17578125,0,0
-1.62672968144761E-05,1.36432354338467E-05,0.17578125,0,0
-1.76275152625749E-05,1.16918099593022E-05,0.17578125,0,0
-1.71977681020508E-05,9.56812073127367E-06,0.17578125,0,0
-1.94074145838385E-05,9.31811609916622E-06,0.17578125,0,0
-2.0761735868291E-05,7.93279650679324E-06,0.17578125,0,0
-2.10247362701921E-05,6.49712774247746E-06,0.17578125,0,0
-2.13861567317508E-05,6.0434331317083E-06,0.17578125,0,0
-2.27067394007463E-05,6.7503369791666E-06,0.17578125,0,0
-1.86741417564917E-05,5.62837385587045E-06,0.17578125,0,0
-2.70160981017398E-05,4.59699413113412E-06,0.17578125,0,0
-2.0736984879477E-05,-9.51208562582906E-07,0.17578125,0,0
-2.48676224146038E-05,2.40034910348186E-06,0.17578125,0,0
-2.15476684388705E-05,3.74936053049169E-06,0.17578125,0,0
-2.64080663328059E-05,3.1383335681312E-06,0.17578125,0,0
-2.62882349488791E-05,1.31654849155893E-06,0.17578125,0,0
-2.6205259928247E-05,2.31522471949575E-06,0.17578125,0,0
-2.45950504904613E-05,3.45424609804468E-06,0.17578125,0,0
-2.54759852396091E-05,5.59811451239511E-06,0.17578125,0,0
-2.67723407887388E-05,7.10530639480567E-06,0.17578125,0,0
-2.62732901319396E-05,4.79571735922946E-06,0.17578125,0,0
-2.70706859737402E-05,2.03088757189107E-06,0.17578125,0,0
-2.63446363533149E-05,1.66010806879058E-06,0.17578125,0,0
-2.62948215095093E-05,2.90256775770104E-06,0.17578125,0,0
-2.40974786720471E-05,2.93229368253378E-06,0.17578125,0,0
-2.51300189120229E-05,3.55229940396384E-06,0.17578125,0,0
-2.50669199886033E-05,2.86729846266098E-06,0.17578125,0,0
-2.64994923782069E-05,3.03770798382175E-06,0.17578125,0,0
-2.59826647379668E-05,4.02783643949078E-06,0.17578125,0,0
-2.66648366959998E-05,5.73373245060793E-06,0.17578125,0,0
-2.6099311071448E-05,6.4049381762743E-06,0.17578125,0,0
-2.67734485532856E-05,7.7859613156761E-06,0.17578125,0,0
-2.75810871244175E-05,7.77708737587091E-06,0.17578125,0,0
-2.81707852991531E-05,6.23612004346796E-06,0.17578125,0,0
-2.60570832324447E-05,4.99914858664852E-06,0.17578125,0,0
-2.51913279498694E-05,5.34485707248678E-06,0.17578125,0,0
-2.1788548110635E-05,4.76741115562618E-06,0.17578125,0,0
-3.10875657305587E-05,6.50797755952226E-06,0.17578125,0,0
-2.22779981413623E-05,4.52912900072988E-06,0.17578125,0,0
-2.6765783331939E-05,6.96179404258146E-06,0.17578125,0,0
-2.41149682551622E-05,5.96542940911604E-06,0.17578125,0,0
-2.82948512904113E-05,3.68892960977973E-06,0.17578125,0,0
-2.50438824878074E-05,3.71554483535874E-06,0.17578125,0,0
-2.52412028203253E-05,7.66291304898914E-06,0.17578125,0,0
-2.48231772275176E-05,1.03442152976641E-05,0.17578125,0,0
-2.54903388849925E-05,1.31293854792602E-05,0.17578125,0,0
-2.60994402196957E-05,1.4189507055562E-05,0.17578125,0,0
-2.4825252694427E-05,1.27369221445406E-05,0.17578125,0,0
-2.37380372709595E-05,1.23423324112082E-05,0.17578125,0,0
-2.18091390706832E-05,1.24576326925308E-05,0.17578125,0,0
-2.42395599343581E-05,1.29215231936541E-05,0.17578125,0,0
-2.56062376138289E-05,1.29454201669432E-05,0.17578125,0,0
-2.88365863525542E-05,1.21737130029942E-05,0.17578125,0,0
-2.70044220087584E-05,8.51542154123308E-06,0.17578125,0,0
-2.54938404395944E-05,4.93337711304775E-06,0.17578125,0,0
-2.30242876568809E-05,3.83473616238916E-06,0.17578125,0,0
-2.30864843615564E-05,7.22322420187993E-06,0.17578125,0,0
-2.24954928853549E-05,1.22359488159418E-05,0.17578125,0,0
-2.40743429458234E-05,1.51439899127581E-05,0.17578125,0,0
-2.50779539783252E-05,1.14291533463984E-05,0.17578125,0,0
-2.56670209637377E-05,6.40240841676132E-06,0.17578125,0,0
-2.37221538554877E-05,7.66088214732008E-06,0.17578125,0,0
-2.13386811083183E-05,1.10477967609768E-05,0.17578125,0,0
-1.8413757061353E-05,9.3788976300857E-06,0.17578125,0,0
-2.75347920251079E-05,1.11307699626195E-05,0.17578125,0,0
-2.1415402443381E-05,4.26238193540485E-06,0.17578125,0,0
-2.49649820034392E-05,7.99248209659709E-06,0.17578125,0,0
-2.1837468011654E-05,1.18287780423998E-05,0.17578125,0,0
-2.4673592633917E-05,1.75319055415457E-05,0.17578125,0,0
-2.30141322390409E-05,1.86141714948462E-05,0.17578125,0,0
-2.32896654779324E-05,1.9758543203352E-05,0.17578125,0,0
-2.24409814109094E-05,1.58522580022691E-05,0.17578125,0,0
-2.25063267862424E-05,1.19002806968638E-05,0.17578125,0,0
-2.2973123122938E-05,1.06576680991566E-05,0.17578125,0,0
-2.2742793589714E-05,1.00671086329385E-05,0.17578125,0,0
-2.45720984821673E-05,1.2675180187216E-05,0.17578125,0,0
-2.55098802881548E-05,1.55193047248758E-05,0.17578125,0,0
-2.74672802333953E-05,1.60680720000528E-05,0.17578125,0,0
-2.63971232925542E-05,1.15318316602497E-05,0.17578125,0,0
-2.69117008429021E-05,9.54490496951621E-06,0.17578125,0,0
-2.61988207057584E-05,1.07344567368273E-05,0.17578125,0,0
-2.78246425295947E-05,1.50885352923069E-05,0.17578125,0,0
-2.80431104329182E-05,1.80655169970123E-05,0.17578125,0,0
-2.89304971374804E-05,1.79391881829361E-05,0.17578125,0,0
-2.89686031464953E-05,1.38771220008493E-05,0.17578125,0,0
-3.02460794046056E-05,1.11577255665907E-05,0.17578125,0,0
-2.98731283692177E-05,1.22641231428133E-05,0.17578125,0,0
-2.97462174785323E-05,1.48539875226561E-05,0.17578125,0,0
-2.88072278635809E-05,1.39424937515287E-05,0.17578125,0,0
-2.67958293989068E-05,1.15096281660954E-05,0.17578125,0,0
-2.12351696973201E-05,6.68236634737696E-06,0.17578125,0,0
-3.08499620587099E-05,1.0000913789554E-05,0.17578125,0,0
-2.497080458852E-05,1.1031394933525E-05,0.17578125,0,0
-3.07794762193225E-05,1.65501351148123E-05,0.17578125,0,0
-2.54696551564848E-05,1.4115552403382E-05,0.17578125,0,0
-2.73798978014383E-05,1.05089911812684E-05,0.17578125,0,0
-2.50757966568926E-05,8.25139795779251E-06,0.17578125,0,0
-2.77670569630573E-05,1.23059298857697E-05,0.17578125,0,0
-2.82058645098004E-05,1.55584730237024E-05,0.17578125,0,0
-2.82783676084364E-05,1.62474516400835E-05,0.17578125,0,0
-2.82591572613455E-05,1.47885348269483E-05,0.17578125,0,0
-2.66806291620014E-05,1.27859902931959E-05,0.17578125,0,0
-2.4729197320994E-05,1.39417597893043E-05,0.17578125,0,0
-2.05598043976352E-05,1.55620273289969E-05,0.17578125,0,0
-1.99744863493834E-05,1.39734092954313E-05,0.17578125,0,0
-1.84406435437268E-05,9.1868814706686E-06,0.17578125,0,0
-1.96442688320531E-05,7.97505799710052E-06,0.17578125,0,0
-1.8088558135787E-05,9.3325206762529E-06,0.17578125,0,0
-1.83437532541575E-05,1.10676146505284E-05,0.17578125,0,0
-1.79570997715928E-05,9.90093212749343E-06,0.17578125,0,0
-2.10784819500986E-05,9.38491484703263E-06,0.17578125,0,0
-2.21786576730665E-05,1.04782129710657E-05,0.17578125,0,0
-2.27822201850358E-05,1.15153743536212E-05,0.17578125,0,0
-2.17654887819663E-05,1.06526913441485E-05,0.17578125,0,0
-2.22069975279737E-05,1.1770467608585E-05,0.17578125,0,0
-2.40422796196071E-05,1.31967826746404E-05,0.17578125,0,0
-2.48299984377809E-05,1.19603337225271E-05,0.17578125,0,0
-1.85323369805701E-05,1.21278644655831E-05,0.17578125,0,0
-2.5513338187011E-05,1.9837843865389E-05,0.17578125,0,0
-1.80423212441383E-05,1.59499777510064E-05,0.17578125,0,0
-2.24914529098896E-05,1.70766052178806E-05,0.17578125,0,0
-1.87194309546612E-05,1.52146767504746E-05,0.17578125,0,0
-2.05432752409251E-05,1.64531611517305E-05,0.17578125,0,0
-1.65247674885904E-05,1.73267799254972E-05,0.17578125,0,0
-1.59478022396797E-05,1.83872816705843E-05,0.17578125,0,0
-1.48642784552067E-05,1.52545799210202E-05,0.17578125,0,0
-1.55920770339435E-05,1.49425632116618E-05,0.17578125,0,0
-1.78594909812091E-05,1.75574205059092E-05,0.17578125,0,0
-1.87908626685385E-05,1.77770598384086E-05,0.17578125,0,0
-1.93676805793075E-05,1.81251125468407E-05,0.17578125,0,0
-1.68226324603893E-05,1.9082095604972E-05,0.17578125,0,0
-1.58205912157428E-05,1.96409528143704E-05,0.17578125,0,0
-1.41428363349405E-05,1.62428641488077E-05,0.17578125,0,0
-1.64903322001919E-05,1.26175409604912E-05,0.17578125,0,0
-1.79550625034608E-05,8.32226305647055E-06,0.17578125,0,0
-2.08650271815714E-05,6.26833389105741E-06,0.17578125,0,0
-1.99148526007775E-05,4.24545896748896E-06,0.17578125,0,0
-1.83374431799166E-05,4.58482190879295E-06,0.17578125,0,0
-1.62239175551804E-05,7.29340035832138E-06,0.17578125,0,0
-1.74404431163566E-05,1.03026277429308E-05,0.17578125,0,0
-1.95892789633945E-05,1.05710323623498E-05,0.17578125,0,0
-2.14709089050302E-05,1.19761298265075E-05,0.17578125,0,0
-2.34161998378113E-05,1.32682007460971E-05,0.17578125,0,0
-2.62079320236808E-05,1.30854205053765E-05,0.17578125,0,0
-2.27475138672162E-05,9.93779030977748E-06,0.17578125,0,0
-3.29625509039033E-05,1.2812494787795E-05,0.17578125,0,0
-2.53445887210546E-05,5.31385512658744E-06,0.17578125,0,0
-2.94379588012816E-05,4.43674935013405E-06,0.17578125,0,0
-2.2516971512232E-05,1.27576595332357E-06,0.17578125,0,0
-2.47426232817816E-05,1.48515948694694E-06,0.17578125,0,0
-2.30259283853229E-05,4.71671881996372E-07,0.17578125,0,0
-2.53958569373935E-05,4.83957410324365E-06,0.17578125,0,0
-2.57068477367284E-05,8.04793307906948E-06,0.17578125,0,0
-2.71054359473055E-05,9.78233038040344E-06,0.17578125,0,0
-2.95805730274878E-05,1.11783365355222E-05,0.17578125,0,0
-3.09385759464931E-05,8.84148448676569E-06,0.17578125,0,0
-3.35413315042388E-05,7.46556906960905E-06,0.17578125,0,0
-3.33579191647004E-05,7.52515506974305E-06,0.17578125,0,0
-3.4258820960531E-05,8.93464221007889E-06,0.17578125,0,0
-3.15533470711671E-05,8.10561414255062E-06,0.17578125,0,0
-3.16659861709923E-05,6.9458346843021E-06,0.17578125,0,0
-3.0383380362764E-05,5.05772959513706E-06,0.17578125,0,0
-3.15195684379432E-05,5.74498653804767E-06,0.17578125,0,0
-3.09464739984833E-05,6.85199893268873E-06,0.17578125,0,0
-3.06106921925675E-05,8.3496852312237E-06,0.17578125,0,0
-2.71434782916913E-05,8.48765466798795E-06,0.17578125,0,0
-2.55128488788614E-05,8.63600598677294E-06,0.17578125,0,0
-2.41073521465296E-05,8.69888935994823E-06,0.17578125,0,0
-2.45038827415556E-05,8.77665024745511E-06,0.17578125,0,0
-2.44425300479634E-05,7.76842080085771E-06,0.17578125,0,0
-2.28680291911587E-05,7.36204356144299E-06,0.17578125,0,0
-1.69064514921047E-05,6.40139342067414E-06,0.17578125,0,0
-2.34467988775577E-05,9.61997830017935E-06,0.17578125,0,0
-1.81794912350597E-05,7.18941646482563E-06,0.17578125,0,0
-2.43030226556584E-05,7.98816836322658E-06,0.17578125,0,0
-2.05748619919177E-05,8.10595247457968E-06,0.17578125,0,0
-2.09657009691E-05,1.14641288746498E-05,0.17578125,0,0
-1.87660971278092E-05,1.25300266518025E-05,0.17578125,0,0
-1.98940961126937E-05,1.26465411085519E-05,0.17578125,0,0
-1.75487803062424E-05,9.91073648037855E-06,0.17578125,0,0
-1.52991451614071E-05,8.55865437188186E-06,0.17578125,0,0
-1.35911741381278E-05,7.64187097956892E-06,0.17578125,0,0
-1.20639415399637E-05,5.2984946705692E-06,0.17578125,0,0
-1.36060962176998E-05,5.82920029046363E-06,0.17578125,0,0
-1.41999325933284E-05,8.02699287305586E-06,0.17578125,0,0
-1.57125305122463E-05,9.7254223874188E-06,0.17578125,0,0
-1.4605979231419E-05,1.00775951068499E-05,0.17578125,0,0
-1.60336949193152E-05,1.15527518573799E-05,0.17578125,0,0
-1.56817750394112E-05,1.09320626506815E-05,0.17578125,0,0
-1.64377888722811E-05,9.80075765255606E-06,0.17578125,0,0
-1.69102877407568E-05,8.93455762707163E-06,0.17578125,0,0
-2.03759591386188E-05,8.73123644851148E-06,0.17578125,0,0
-2.24655977945076E-05,8.63579043652862E-06,0.17578125,0,0
-2.36434698308585E-05,9.81061293714447E-06,0.17578125,0,0
-2.23686947720125E-05,1.03331876744051E-05,0.17578125,0,0
-2.22428698180011E-05,9.88390274869744E-06,0.17578125,0,0
-2.23281585931545E-05,5.95406618231209E-06,0.17578125,0,0
-2.28758999583079E-05,-3.1391240895573E-07,0.17578125,0,0
-2.09687168535311E-05,-2.97356064038468E-06,0.17578125,0,0
-2.99285220535239E-05,-2.96198459182051E-06,0.17578125,0,0
-2.1518408175325E-05,8.32694922792143E-07,0.17578125,0,0
-2.48814158112509E-05,4.53788015875034E-06,0.17578125,0,0
-2.06739423447289E-05,7.98945438873488E-06,0.17578125,0,0
-2.40114150074078E-05,4.75861816084944E-06,0.17578125,0,0
-2.26166484935675E-05,2.42458418142633E-06,0.17578125,0,0
-2.57272986345924E-05,3.31786532115075E-06,0.17578125,0,0
-2.64559530478437E-05,7.13783219907782E-06,0.17578125,0,0
-2.71778772003017E-05,1.10980508907232E-05,0.17578125,0,0
-2.68058574874885E-05,1.32253690026118E-05,0.17578125,0,0
-2.48904034378938E-05,1.26399008877343E-05,0.17578125,0,0
-2.42244805122027E-05,1.23534937301883E-05,0.17578125,0,0
-2.17154574784217E-05,1.42802982736612E-05,0.17578125,0,0
-2.22101152758114E-05,1.5108589650481E-05,0.17578125,0,0
-2.12755749089411E-05,1.29021664179163E-05,0.17578125,0,0
-2.27346426981967E-05,6.8044528234168E-06,0.17578125,0,0
-2.25818766921293E-05,3.48403773386963E-06,0.17578125,0,0
-2.57356532529229E-05,6.06430921834544E-06,0.17578125,0,0
-2.66641691268887E-05,1.10340042738244E-05,0.17578125,0,0
-2.74241447186796E-05,1.45850117405644E-05,0.17578125,0,0
-2.59227217611624E-05,1.65048459166428E-05,0.17578125,0,0
-2.66362549155019E-05,1.56876085384283E-05,0.17578125,0,0
-2.77413128060289E-05,1.4864658623992E-05,0.17578125,0,0
-2.9868626370444E-05,1.51163394548348E-05,0.17578125,0,0
-3.13912278215867E-05,1.74187189259101E-05,0.17578125,0,0
-3.25333967339247E-05,1.79575745278271E-05,0.17578125,0,0
-2.64155532931909E-05,1.46565389513853E-05,0.17578125,0,0
-3.6354256735649E-05,2.39718228840502E-05,0.17578125,0,0
-2.66471088252729E-05,2.09047466341872E-05,0.17578125,0,0
-3.31546871166211E-05,2.18310069612926E-05,0.17578125,0,0
-2.7235890229349E-05,1.39469320856733E-05,0.17578125,0,0
-3.24711945722811E-05,1.02870826594881E-05,0.17578125,0,0
-3.00875326502137E-05,8.18171702121617E-06,0.17578125,0,0
-3.0379278541659E-05,1.36261032821494E-05,0.17578125,0,0
-2.97141868941253E-05,1.56538080773316E-05,0.17578125,0,0
-3.25755463563837E-05,1.8041770090349E-05,0.17578125,0,0
-3.45240077876952E-05,2.28151675401023E-05,0.17578125,0,0
-3.28126625390723E-05,2.43330996454461E-05,0.17578125,0,0
-3.24253123835661E-05,2.38915727095446E-05,0.17578125,0,0
-3.06865476886742E-05,2.22423641389469E-05,0.17578125,0,0
-3.28361456922721E-05,2.22608341573505E-05,0.17578125,0,0
-3.12664305965882E-05,2.04775715246797E-05,0.17578125,0,0
-3.17178783006966E-05,2.0530369511107E-05,0.17578125,0,0
-2.90363532258198E-05,1.84091913979501E-05,0.17578125,0,0
-2.94017227133736E-05,1.64823941304348E-05,0.17578125,0,0
-2.77396247838624E-05,1.48341950989561E-05,0.17578125,0,0
-2.86983722617151E-05,1.53497658175183E-05,0.17578125,0,0
-2.85727801383473E-05,1.29951786220772E-05,0.17578125,0,0
-3.00330448226305E-05,1.0125758308277E-05,0.17578125,0,0
-2.911518640758E-05,9.40467998589156E-06,0.17578125,0,0
-2.93854336632648E-05,1.31656097437372E-05,0.17578125,0,0
-3.0615134164691E-05,1.71336378116393E-05,0.17578125,0,0
-3.02956304949475E-05,1.81357499968726E-05,0.17578125,0,0
-2.22181624849327E-05,1.29265399664291E-05,0.17578125,0,0
-3.03344786516391E-05,1.73413136508316E-05,0.17578125,0,0
-2.22197522816714E-05,1.24736643556389E-05,0.17578125,0,0
-2.81225584330969E-05,1.89263573702192E-05,0.17578125,0,0
-2.19099929381628E-05,1.95648881344823E-05,0.17578125,0,0
-2.35754050663672E-05,2.05094020202523E-05,0.17578125,0,0
-2.12168288271641E-05,1.51354197441833E-05,0.17578125,0,0
-2.2270158297033E-05,1.26135673781391E-05,0.17578125,0,0
-2.01751718122978E-05,1.18214411486406E-05,0.17578125,0,0
-1.95399188669398E-05,1.53205219248775E-05,0.17578125,0,0
-1.95741686184192E-05,1.71802130353171E-05,0.17578125,0,0
-1.8454189557815E-05,1.35234540721285E-05,0.17578125,0,0
-1.91668204934103E-05,1.1308494322293E-05,0.17578125,0,0
-1.78882819454884E-05,1.04215569081134E-05,0.17578125,0,0
-1.84055843419628E-05,9.62954709393671E-06,0.17578125,0,0
-1.64694993145531E-05,6.44123838355881E-06,0.17578125,0,0
-1.81421710294671E-05,7.21846299711615E-06,0.17578125,0,0
-1.80002189154038E-05,8.82880794961238E-06,0.17578125,0,0
-2.0527322703856E-05,9.16089084057603E-06,0.17578125,0,0
-2.09286026802147E-05,3.79425637220265E-06,0.17578125,0,0
-2.21708087337902E-05,-5.51705596762986E-08,0.17578125,0,0
-2.1600273612421E-05,-2.35248307944858E-07,0.17578125,0,0
-2.32721758948173E-05,2.33373452829255E-06,0.17578125,0,0
-2.40770841628546E-05,2.95797076432791E-06,0.17578125,0,0
-2.39846031035995E-05,2.38829852605704E-06,0.17578125,0,0
-2.32613347179722E-05,2.14193573810917E-06,0.17578125,0,0
-2.28898024943192E-05,3.67366465070518E-06,0.17578125,0,0
-1.48529343277914E-05,4.25283360527828E-06,0.17578125,0,0
-1.7401229342795E-05,5.30784200236667E-06,0.17578125,0,0
-1.08655822259607E-05,1.12090458515013E-06,0.17578125,0,0
-1.87938840099378E-05,1.25799533634563E-06,0.17578125,0,0
-1.89381025847979E-05,2.86238719127141E-06,0.17578125,0,0
-2.34378403547453E-05,2.29172110266518E-06,0.17578125,0,0
-2.18430232052924E-05,-7.58267901801446E-08,0.17578125,0,0
-2.27781965804752E-05,5.17198031957378E-07,0.17578125,0,0
-2.17914675886277E-05,9.11913332402037E-07,0.17578125,0,0
-2.18389395740815E-05,3.38269069288799E-06,0.17578125,0,0
-2.29256438615266E-05,6.49608728053863E-06,0.17578125,0,0
-2.25882831728086E-05,5.48598745808704E-06,0.17578125,0,0
-2.29860579565866E-05,3.62083710570005E-06,0.17578125,0,0
-2.17573960981099E-05,3.75582590095291E-06,0.17578125,0,0
-2.23022689169738E-05,3.17624380841153E-06,0.17578125,0,0
-2.16418848140165E-05,2.26991076601735E-07,0.17578125,0,0
-2.38730190176284E-05,1.32261760654728E-07,0.17578125,0,0
-2.44847215071786E-05,2.64711297859321E-06,0.17578125,0,0
-2.474805660313E-05,6.54435370961437E-06,0.17578125,0,0
-2.14308474824065E-05,1.06092575151706E-05,0.17578125,0,0
-1.93629548448371E-05,1.34689835249446E-05,0.17578125,0,0
-1.63733857334591E-05,1.43274000947713E-05,0.17578125,0,0
-1.43265742735821E-05,1.60228755703429E-05,0.17578125,0,0
-1.22294304674142E-05,1.72710351762362E-05,0.17578125,0,0
-1.24706211863668E-05,1.74658962350804E-05,0.17578125,0,0
-1.47219325299375E-05,1.61181924340781E-05,0.17578125,0,0
-1.89426464203279E-05,1.44574305522838E-05,0.17578125,0,0
-1.8389249817119E-05,1.1691191502905E-05,0.17578125,0,0
-2.47975658567157E-05,1.41588270707871E-05,0.17578125,0,0
-1.63712138601113E-05,5.24854795003193E-06,0.17578125,0,0
-2.20331767195603E-05,7.17240209269221E-06,0.17578125,0,0
-1.98673260456417E-05,8.14068062027218E-06,0.17578125,0,0
-2.19314479181776E-05,1.12153202280751E-05,0.17578125,0,0
-1.9825349227176E-05,9.56682742980774E-06,0.17578125,0,0
-2.11660353670595E-05,1.1364031706762E-05,0.17578125,0,0
-2.11711885640398E-05,1.15688872028841E-05,0.17578125,0,0
-2.11392671189969E-05,1.27425219034194E-05,0.17578125,0,0
-2.03298677661223E-05,1.41199916470214E-05,0.17578125,0,0
-1.86088709597243E-05,1.37991710289498E-05,0.17578125,0,0
-2.00512677110964E-05,1.43336028486374E-05,0.17578125,0,0
-2.1327974536689E-05,1.3427741578198E-05,0.17578125,0,0
-2.36989399127197E-05,1.14491131171235E-05,0.17578125,0,0
-2.26117717829766E-05,8.08110416983254E-06,0.17578125,0,0
-2.30889072554419E-05,8.99242513696663E-06,0.17578125,0,0
-2.23029601329472E-05,1.00715806183871E-05,0.17578125,0,0
-2.39508481172379E-05,1.01374698715517E-05,0.17578125,0,0
-2.42818732658634E-05,7.71654595155269E-06,0.17578125,0,0
-2.58837189903716E-05,8.39453423395753E-06,0.17578125,0,0
-2.52449572144542E-05,9.12326959223719E-06,0.17578125,0,0
-2.42818878177786E-05,9.10436028789263E-06,0.17578125,0,0
-2.29479719564551E-05,8.93452761374647E-06,0.17578125,0,0
-2.33029732044088E-05,1.031542342389E-05,0.17578125,0,0
-2.45210685534403E-05,9.23701736610383E-06,0.17578125,0,0
-2.53544094448444E-05,8.44693931867369E-06,0.17578125,0,0
-1.98801026272122E-05,8.46535203891108E-06,0.17578125,0,0
-2.86463982774876E-05,1.31559845613083E-05,0.17578125,0,0
-2.51433502853615E-05,9.62265858106548E-06,0.17578125,0,0
-3.42092462233268E-05,1.27625271488796E-05,0.17578125,0,0
-3.01253730867757E-05,1.49004881677683E-05,0.17578125,0,0
-3.2326606742572E-05,1.47349637700245E-05,0.17578125,0,0
-3.07308328046929E-05,1.16797018563375E-05,0.17578125,0,0
-3.23793065035716E-05,9.9335939012235E-06,0.17578125,0,0
-3.21093975799158E-05,5.93963841311052E-06,0.17578125,0,0
-3.30561160808429E-05,3.21826610161224E-06,0.17578125,0,0
-3.44636428053491E-05,4.89616741106147E-06,0.17578125,0,0
-3.41017657774501E-05,7.92347327660536E-06,0.17578125,0,0
-3.47352761309594E-05,9.87339353741845E-06,0.17578125,0,0
-3.32596609950997E-05,9.5952746050898E-06,0.17578125,0,0
-3.30419388774317E-05,8.55729740578681E-06,0.17578125,0,0
-2.97013557428727E-05,5.5998257266765E-06,0.17578125,0,0
-2.92209988401737E-05,4.49313938588602E-06,0.17578125,0,0
-2.71519929810893E-05,5.35994786332594E-06,0.17578125,0,0
-2.52783429459669E-05,8.84395922184922E-06,0.17578125,0,0
-2.10701600735774E-05,1.17048666652408E-05,0.17578125,0,0
-2.04883472179063E-05,1.34429246827494E-05,0.17578125,0,0
-2.13032362808008E-05,1.4584320524591E-05,0.17578125,0,0
-2.4861781639629E-05,1.64718076121062E-05,0.17578125,0,0
-2.6697769499151E-05,1.78529298864305E-05,0.17578125,0,0
-2.64345853793202E-05,1.83876400114968E-05,0.17578125,0,0
-2.31175472436007E-05,1.86475062946556E-05,0.17578125,0,0
-2.10567759495461E-05,2.00912545551546E-05,0.17578125,0,0
-1.8672930309549E-05,1.6995165424305E-05,0.17578125,0,0
-2.75415768555831E-05,2.31601643463364E-05,0.17578125,0,0
-2.1502492018044E-05,1.66342433658428E-05,0.17578125,0,0
-2.48561827902449E-05,2.38223383348668E-05,0.17578125,0,0
-2.05305987037718E-05,2.26339616347104E-05,0.17578125,0,0
-2.4419774490525E-05,2.23203060158994E-05,0.17578125,0,0
-2.45272567553911E-05,1.69641480169958E-05,0.17578125,0,0
-2.61667246377328E-05,1.58807597472332E-05,0.17578125,0,0
-2.52469635597663E-05,9.96034214040264E-06,0.17578125,0,0
-2.48902451858157E-05,5.49546439287951E-06,0.17578125,0,0
-2.56157800322399E-05,5.14996281708591E-06,0.17578125,0,0
-2.50079392571934E-05,5.65594018553384E-06,0.17578125,0,0
-2.48168362304568E-05,9.60890793066937E-06,0.17578125,0,0
-2.2780332074035E-05,1.17155159387039E-05,0.17578125,0,0
-2.32179700105917E-05,1.22296887639095E-05,0.17578125,0,0
-2.1908979761065E-05,9.72250018094201E-06,0.17578125,0,0
-2.0720906832139E-05,1.0469526387169E-05,0.17578125,0,0
-1.63726781465812E-05,9.85273436526768E-06,0.17578125,0,0
-1.55327143147588E-05,9.6624771686038E-06,0.17578125,0,0
-1.54147637658753E-05,8.14853137853788E-06,0.17578125,0,0
-1.79358466994017E-05,1.11523959276383E-05,0.17578125,0,0
-1.96767487068428E-05,1.2738814803015E-05,0.17578125,0,0
-2.1242904040264E-05,1.13446058094269E-05,0.17578125,0,0
-2.18909099203302E-05,9.6003559519886E-06,0.17578125,0,0
-2.41061352426186E-05,1.0315594408894E-05,0.17578125,0,0
-2.66739552898798E-05,1.04878326965263E-05,0.17578125,0,0
-2.62259563896805E-05,1.20902877824847E-05,0.17578125,0,0
-1.77022084244527E-05,1.18687503345427E-05,0.17578125,0,0
-2.2525098756887E-05,1.65473556990037E-05,0.17578125,0,0
-1.47242026287131E-05,1.07043770185555E-05,0.17578125,0,0
-2.05340620595962E-05,1.39773546834476E-05,0.17578125,0,0
-1.76516186911613E-05,1.37765455292538E-05,0.17578125,0,0
-2.17951783270109E-05,1.29770751300384E-05,0.17578125,0,0
-2.04724437935511E-05,9.08478523342637E-06,0.17578125,0,0
-2.13278854062082E-05,9.47848093346693E-06,0.17578125,0,0
-1.97892186406534E-05,8.91275794856483E-06,0.17578125,0,0
-1.90941500477493E-05,9.23164589039516E-06,0.17578125,0,0
-1.95580960280495E-05,9.55271207203623E-06,0.17578125,0,0
-1.97702138393652E-05,8.99549831956392E-06,0.17578125,0,0
-2.09495356102707E-05,1.10321179818129E-05,0.17578125,0,0
-1.9660847101477E-05,1.19255237223115E-05,0.17578125,0,0
-2.13634139072383E-05,9.51801121118478E-06,0.17578125,0,0
-2.22980270336848E-05,3.51260496245231E-06,0.17578125,0,0
-2.49324657488614E-05,1.96013115782989E-06,0.17578125,0,0
-2.42102632910246E-05,3.76292086912144E-06,0.17578125,0,0
-2.4511276933481E-05,8.12523376225727E-06,0.17578125,0,0
-2.36834803217789E-05,1.06563056760933E-05,0.17578125,0,0
-2.47246316575911E-05,1.3188430784794E-05,0.17578125,0,0
-2.37310414377134E-05,1.25330207083607E-05,0.17578125,0,0
-2.42653168243123E-05,1.088069529942E-05,0.17578125,0,0
-2.62918529188028E-05,1.12233237814507E-05,0.17578125,0,0
-2.96853395411745E-05,1.39948706419091E-05,0.17578125,0,0
-3.06510191876441E-05,1.41997306855046E-05,0.17578125,0,0
-2.99792445730418E-05,1.17650042739115E-05,0.17578125,0,0
-2.35560401051771E-05,9.54147799347993E-06,0.17578125,0,0
-3.29496106132865E-05,1.22169149108231E-05,0.17578125,0,0
-2.4374910935876E-05,5.26827989233425E-06,0.17578125,0,0
-3.20503131661098E-05,5.40486917088856E-06,0.17578125,0,0
-2.86485701508354E-05,2.30876275963965E-06,0.17578125,0,0
-3.09530478261877E-05,2.29982470045798E-06,0.17578125,0,0
-2.69556276180083E-05,2.79504001809983E-06,0.17578125,0,0
-2.81297961919336E-05,5.97378630118328E-06,0.17578125,0,0
-2.78450916084694E-05,7.40546147426357E-06,0.17578125,0,0
-2.73585901595652E-05,8.92075149749871E-06,0.17578125,0,0
-2.69596184807597E-05,1.13313908514101E-05,0.17578125,0,0
-2.59870266745565E-05,1.1477494808787E-05,0.17578125,0,0
-2.72951092483709E-05,1.07041860246682E-05,0.17578125,0,0
-2.6701154638431E-05,8.05875242804177E-06,0.17578125,0,0
-2.83191711787367E-05,5.30521811015205E-06,0.17578125,0,0
-2.6646550395526E-05,3.18741467708605E-06,0.17578125,0,0
-2.688572385523E-05,6.07399897489813E-06,0.17578125,0,0
-2.56837302003987E-05,9.08941092347959E-06,0.17578125,0,0
-2.87333459709771E-05,1.00113829830661E-05,0.17578125,0,0
-3.01821473840391E-05,7.25861536921002E-06,0.17578125,0,0
-3.14722710754722E-05,5.87470412938274E-06,0.17578125,0,0
-2.97329443128547E-05,8.59847750689369E-06,0.17578125,0,0
-3.04045843222411E-05,1.36963981276494E-05,0.17578125,0,0
-3.1698560633231E-05,1.56113092089072E-05,0.17578125,0,0
-3.3765951229725E-05,1.38452223836794E-05,0.17578125,0,0
-3.49483852915E-05,1.10491100713261E-05,0.17578125,0,0
-3.43949177477043E-05,1.0328332791687E-05,0.17578125,0,0
-2.73687655862886E-05,1.02221856650431E-05,0.17578125,0,0
-3.73134353139903E-05,1.60794024850475E-05,0.17578125,0,0
-2.66022943833377E-05,1.47570854096557E-05,0.17578125,0,0
-3.35983168042731E-05,2.05434662348125E-05,0.17578125,0,0
-2.69241663772846E-05,2.15591480809962E-05,0.17578125,0,0
-3.04522400256246E-05,2.32640031754272E-05,0.17578125,0,0
-2.76179325737758E-05,2.49710010393756E-05,0.17578125,0,0
-2.85886017081793E-05,2.76383179880213E-05,0.17578125,0,0
-2.52384306804743E-05,2.58748495980399E-05,0.17578125,0,0
-2.30349469347857E-05,2.60515662375838E-05,0.17578125,0,0
-2.27206546696834E-05,2.73999939963687E-05,0.17578125,0,0
-2.04264852072811E-05,2.59102434938541E-05,0.17578125,0,0
-1.99649111891631E-05,2.52980626100907E-05,0.17578125,0,0
-1.80018669198034E-05,2.53072630584938E-05,0.17578125,0,0
-1.94389085663715E-05,2.60368215094786E-05,0.17578125,0,0
-1.58316634042421E-05,2.48248124989914E-05,0.17578125,0,0
-1.48917142723803E-05,2.39145956584252E-05,0.17578125,0,0
-1.38728100864682E-05,2.31169651669916E-05,0.17578125,0,0
-1.71373758348636E-05,2.43245158344507E-05,0.17578125,0,0
-1.70201128639746E-05,2.26775009650737E-05,0.17578125,0,0
-1.86305005627219E-05,1.98108336917358E-05,0.17578125,0,0
-1.89241654879879E-05,1.6805750419735E-05,0.17578125,0,0
-2.07996927201748E-05,1.52097791215056E-05,0.17578125,0,0
-2.12127906706883E-05,1.44884861583705E-05,0.17578125,0,0
-2.25035946641583E-05,1.43743473017821E-05,0.17578125,0,0
-2.41377219936112E-05,1.43224524435936E-05,0.17578125,0,0
-2.50324828812154E-05,1.40586744237226E-05,0.17578125,0,0
-1.93678042705869E-05,1.00753713923041E-05,0.17578125,0,0
-2.50770772254327E-05,1.32680461319978E-05,0.17578125,0,0
-1.6023637726903E-05,7.48872980693704E-06,0.17578125,0,0
-2.02254432224436E-05,1.04086948340409E-05,0.17578125,0,0
-1.58049224410206E-05,9.71082135947654E-06,0.17578125,0,0
-1.935788350238E-05,9.73479473032057E-06,0.17578125,0,0
-1.90012742677936E-05,8.49497246235842E-06,0.17578125,0,0
-2.1952260794933E-05,1.05953458842123E-05,0.17578125,0,0
-2.0568566469592E-05,9.29077941691503E-06,0.17578125,0,0
-1.78235550265526E-05,7.42411975807045E-06,0.17578125,0,0
-1.65470719366567E-05,7.30841793483705E-06,0.17578125,0,0
-1.8788457964547E-05,6.03035596213886E-06,0.17578125,0,0
-2.48565011133906E-05,4.96938264404889E-06,0.17578125,0,0
-2.69094252871582E-05,3.24129291584541E-06,0.17578125,0,0
-2.83827521343483E-05,2.00493946067581E-06,0.17578125,0,0
-2.7658190447255E-05,-2.3725007736175E-08,0.17578125,0,0
-2.9936780265416E-05,8.13899632134962E-08,0.17578125,0,0
-2.97168244287604E-05,6.19120953615493E-07,0.17578125,0,0
-3.14924873237032E-05,3.51316293745185E-06,0.17578125,0,0
-2.99649454973405E-05,5.78743765800027E-06,0.17578125,0,0
-2.74851972790202E-05,7.35242156224558E-06,0.17578125,0,0
-2.38993688981282E-05,8.15395651443396E-06,0.17578125,0,0
-2.34909275604878E-05,9.26207940210588E-06,0.17578125,0,0
-2.42845180764562E-05,7.77424884290667E-06,0.17578125,0,0
-2.68500625679735E-05,6.02846557740122E-06,0.17578125,0,0
-2.62611265497981E-05,5.79998368266388E-06,0.17578125,0,0
-2.35426068684319E-05,6.3592065089324E-06,0.17578125,0,0
-1.85388034878997E-05,6.42098621028708E-06,0.17578125,0,0
-2.65577400568873E-05,9.99251278699376E-06,0.17578125,0,0
-2.05900996661512E-05,7.40591622161446E-06,0.17578125,0,0
-2.48253109020879E-05,9.06237255549058E-06,0.17578125,0,0
-1.88561425602529E-05,8.22217316454044E-06,0.17578125,0,0
-1.91956842172658E-05,3.83186670660507E-06,0.17578125,0,0
-1.64729681273457E-05,-1.63192157742742E-06,0.17578125,0,0
-1.71048886841163E-05,-2.19526577893703E-06,0.17578125,0,0
-1.62999294843758E-05,-1.24334871998144E-06,0.17578125,0,0
-1.66418340086238E-05,4.57802457276557E-07,0.17578125,0,0
-1.76571702468209E-05,1.24932228118269E-06,0.17578125,0,0
-1.71737829077756E-05,9.06278557977203E-07,0.17578125,0,0
-1.78199297806714E-05,1.72292368461058E-06,0.17578125,0,0
-1.64519460668089E-05,2.80410176856094E-06,0.17578125,0,0
-1.67612779478077E-05,3.66004883289861E-06,0.17578125,0,0
-1.5636271200492E-05,3.7511631489906E-06,0.17578125,0,0
-1.77366964635439E-05,3.79441598852281E-06,0.17578125,0,0
-1.90281716641039E-05,1.28344083805132E-06,0.17578125,0,0
-2.17032302316511E-05,-1.31391857394192E-07,0.17578125,0,0
-2.20739875658182E-05,6.73000101869548E-07,0.17578125,0,0
-2.3173401132226E-05,3.19547757499095E-06,0.17578125,0,0
-2.21639820665587E-05,6.05246123086545E-06,0.17578125,0,0
-2.17217402678216E-05,8.60912859934615E-06,0.17578125,0,0
-2.04936750378693E-05,9.07649609871442E-06,0.17578125,0,0
-1.96171222341945E-05,8.47180035634665E-06,0.17578125,0,0
-1.80795905180275E-05,9.15935288503533E-06,0.17578125,0,0
-1.69293198268861E-05,1.21058692457154E-05,0.17578125,0,0
-1.34965066536097E-05,1.15641723823501E-05,0.17578125,0,0
-1.84827240445884E-05,1.76408339029877E-05,0.17578125,0,0
-1.45501544466242E-05,1.53848304762505E-05,0.17578125,0,0
-2.07945940928767E-05,1.86584984476212E-05,0.17578125,0,0
-2.00763315660879E-05,1.34670817715232E-05,0.17578125,0,0
-2.34241178986849E-05,1.00320721685421E-05,0.17578125,0,0
-2.38098091358552E-05,6.39659037915408E-06,0.17578125,0,0
-2.61029927060008E-05,8.87836722540669E-06,0.17578125,0,0
-2.6570332920528E-05,1.06471634353511E-05,0.17578125,0,0
-2.73677651421167E-05,1.02478315966437E-05,0.17578125,0,0
-2.79570140264696E-05,8.4030880316277E-06,0.17578125,0,0
-2.7600426619756E-05,6.28781299383263E-06,0.17578125,0,0
-2.87206166831311E-05,8.39889526105253E-06,0.17578125,0,0
-2.89560957753565E-05,1.26513023133157E-05,0.17578125,0,0
-2.96254747809144E-05,1.70179318956798E-05,0.17578125,0,0
-2.7455131203169E-05,1.65394740179181E-05,0.17578125,0,0
-2.72721827059286E-05,1.69163540704176E-05,0.17578125,0,0
-2.7597428925219E-05,1.78876780410064E-05,0.17578125,0,0
-2.96258440357633E-05,1.8638966139406E-05,0.17578125,0,0
-2.95031586574623E-05,1.68433616636321E-05,0.17578125,0,0
-3.02578064292902E-05,1.73692933458369E-05,0.17578125,0,0
-2.99342682410497E-05,1.70994899235666E-05,0.17578125,0,0
-3.04221648548264E-05,1.46552265505306E-05,0.17578125,0,0
-2.97652186418418E-05,1.08554386315518E-05,0.17578125,0,0
-2.80458898487268E-05,8.53295387059916E-06,0.17578125,0,0
-2.66459337581182E-05,8.4720322774956E-06,0.17578125,0,0
-2.65404487436172E-05,8.90815499587916E-06,0.17578125,0,0
-2.21874815906631E-05,7.50250183045864E-06,0.17578125,0,0
-3.33883945131674E-05,1.31289725686656E-05,0.17578125,0,0
-2.72148936346639E-05,1.26355134852929E-05,0.17578125,0,0
-3.20508152071852E-05,1.47401306094253E-05,0.17578125,0,0
-2.70066320808837E-05,1.30366615849198E-05,0.17578125,0,0
-2.88772225758294E-05,1.12604302557884E-05,0.17578125,0,0
-2.51861765718786E-05,1.04611908682273E-05,0.17578125,0,0
-2.48480628215475E-05,1.11570197987021E-05,0.17578125,0,0
-2.17468768823892E-05,8.80167317518499E-06,0.17578125,0,0
-2.02507580979727E-05,8.79048275237437E-06,0.17578125,0,0
-2.00426638912177E-05,1.21060429592035E-05,0.17578125,0,0
-1.98256875592051E-05,1.50363448483404E-05,0.17578125,0,0
-2.23604001803324E-05,1.55998350237496E-05,0.17578125,0,0
-2.34770086535718E-05,1.48013023135718E-05,0.17578125,0,0
-2.50588855124079E-05,1.5486035408685E-05,0.17578125,0,0
-2.17194192373427E-05,1.57006597873988E-05,0.17578125,0,0
-2.00447811948834E-05,1.61867537826765E-05,0.17578125,0,0
-1.81012765096966E-05,1.68986571225105E-05,0.17578125,0,0
-1.99695296032587E-05,1.7863529137685E-05,0.17578125,0,0
-2.02453829842852E-05,1.44040277518798E-05,0.17578125,0,0
-2.23758925130824E-05,9.23950028663967E-06,0.17578125,0,0
-2.34697672567563E-05,4.45811656391015E-06,0.17578125,0,0
-2.64227037405362E-05,9.32050909341342E-07,0.17578125,0,0
-2.85927399090724E-05,-4.17404237396113E-07,0.17578125,0,0
-2.90589523501694E-05,2.31986837206932E-06,0.17578125,0,0
-2.57716965279542E-05,8.45107661007205E-06,0.17578125,0,0
-2.27248274313752E-05,1.38621317091747E-05,0.17578125,0,0
-1.78645150299417E-05,1.21067059808411E-05,0.17578125,0,0
-2.57152096310165E-05,1.61802254297072E-05,0.17578125,0,0
-2.004982343351E-05,1.05789204098983E-05,0.17578125,0,0
-2.52660665864823E-05,1.36386715894332E-05,0.17578125,0,0
-2.23399274545955E-05,1.00576735349023E-05,0.17578125,0,0
-2.46193230850622E-05,8.46403872856172E-06,0.17578125,0,0
-2.42030346271349E-05,6.81030041960184E-06,0.17578125,0,0
-2.77350281976396E-05,1.11327153717866E-05,0.17578125,0,0
-2.84880534309195E-05,1.16299515866558E-05,0.17578125,0,0
-2.83508143184008E-05,1.12901198008331E-05,0.17578125,0,0
-2.70138825726463E-05,1.19086344056996E-05,0.17578125,0,0
-2.30454497796018E-05,1.15324373837211E-05,0.17578125,0,0
-2.06016102310969E-05,1.42313956530415E-05,0.17578125,0,0
-1.95721768250223E-05,1.6487803804921E-05,0.17578125,0,0
-2.27443615585798E-05,1.51488984556636E-05,0.17578125,0,0
-2.51967539952602E-05,8.47323008201784E-06,0.17578125,0,0
-2.90713032882195E-05,7.79691617935896E-06,0.17578125,0,0
-2.92756958515383E-05,1.26531331261504E-05,0.17578125,0,0
-3.00127667287597E-05,1.79829621629324E-05,0.17578125,0,0
-2.86867398244794E-05,1.67742073244881E-05,0.17578125,0,0
-2.78789357253117E-05,1.48888220792287E-05,0.17578125,0,0
-2.57790725299856E-05,1.49122342918417E-05,0.17578125,0,0
-2.60310571320588E-05,1.67875095939962E-05,0.17578125,0,0
-2.77424696832895E-05,1.71879692061339E-05,0.17578125,0,0
-3.01450309052598E-05,1.73711905517848E-05,0.17578125,0,0
-2.97273072646931E-05,1.59434275701642E-05,0.17578125,0,0
-2.80165932053933E-05,1.27896937556216E-05,0.17578125,0,0
-2.02806659217458E-05,7.77650257077767E-06,0.17578125,0,0
-2.81838601949858E-05,1.02266485555447E-05,0.17578125,0,0
-2.22775506699691E-05,6.64206436340464E-06,0.17578125,0,0
-2.97163460345473E-05,8.73236604093108E-06,0.17578125,0,0
-2.49088952841703E-05,8.29454620543402E-06,0.17578125,0,0
-2.53983507718658E-05,8.55224061524495E-06,0.17578125,0,0
-2.19300582102733E-05,6.94196933181956E-06,0.17578125,0,0
-2.40217505051987E-05,9.86825489235343E-06,0.17578125,0,0
-2.29665984079475E-05,1.02151579994825E-05,0.17578125,0,0
-2.2455340513261E-05,9.92111017694697E-06,0.17578125,0,0
-2.35527913901024E-05,9.6861749625532E-06,0.17578125,0,0
-2.45917781285243E-05,7.08811057847925E-06,0.17578125,0,0
-2.75881466222927E-05,4.17260753238224E-06,0.17578125,0,0
-2.81568536593113E-05,2.51098913395253E-06,0.17578125,0,0
-2.95898717013188E-05,3.31631190420012E-06,0.17578125,0,0
-2.77056151389843E-05,3.19389937430969E-06,0.17578125,0,0
-2.69558513537049E-05,4.73635327580268E-06,0.17578125,0,0
-2.23052975343307E-05,5.67738970858045E-06,0.17578125,0,0
-2.01758539333241E-05,5.99941540713189E-06,0.17578125,0,0
-1.96344863070408E-05,4.07983952754876E-06,0.17578125,0,0
-2.36302203120431E-05,3.90289005736122E-06,0.17578125,0,0
-2.56267721852055E-05,6.39286281511886E-06,0.17578125,0,0
-2.63420442934148E-05,1.02574549600831E-05,0.17578125,0,0
-2.49957574851578E-05,1.22450701383059E-05,0.17578125,0,0
-2.47505049628671E-05,1.33056273625698E-05,0.17578125,0,0
-2.55173690675292E-05,1.28725760077941E-05,0.17578125,0,0
-2.69560659944545E-05,1.39777966978727E-05,0.17578125,0,0
-2.19317298615351E-05,1.10204755401355E-05,0.17578125,0,0
-3.06177062157076E-05,1.46321835927665E-05,0.17578125,0,0
-2.36271589528769E-05,8.63698187458795E-06,0.17578125,0,0
-2.90382795355981E-05,1.20153608804685E-05,0.17578125,0,0
-2.16603075386956E-05,1.2177757525933E-05,0.17578125,0,0
-2.23724982788553E-05,1.29732352434075E-05,0.17578125,0,0
-1.92175757547375E-05,1.00775441751466E-05,0.17578125,0,0
-2.18092081922805E-05,1.05575936686364E-05,0.17578125,0,0
-2.2561938749277E-05,9.89939690043684E-06,0.17578125,0,0
-2.26205866056262E-05,1.09888196675456E-05,0.17578125,0,0
-2.25809144467348E-05,1.18453026516363E-05,0.17578125,0,0
-2.19110006582923E-05,9.53636299527716E-06,0.17578125,0,0
-2.25418662012089E-05,9.2957916422165E-06,0.17578125,0,0
-2.0141929780948E-05,1.17255813165684E-05,0.17578125,0,0
-2.01850161829498E-05,1.5279212675523E-05,0.17578125,0,0
-1.92881925613619E-05,1.6071962818387E-05,0.17578125,0,0
-2.07987050089287E-05,1.6922314898693E-05,0.17578125,0,0
-1.84082364285132E-05,1.51515123434365E-05,0.17578125,0,0
-1.74565575434826E-05,1.3888226931158E-05,0.17578125,0,0
-1.53953187691513E-05,1.06887955553248E-05,0.17578125,0,0
-1.71915562532377E-05,6.5692502175807E-06,0.17578125,0,0
-1.83076172106666E-05,3.06338210975809E-06,0.17578125,0,0
-1.93472424143692E-05,6.01439069214393E-06,0.17578125,0,0
-1.76641151483636E-05,1.25845881484565E-05,0.17578125,0,0
-1.70277307915967E-05,1.52836764755193E-05,0.17578125,0,0
-1.81598661583848E-05,1.05135977719328E-05,0.17578125,0,0
-2.02915962290717E-05,3.88837224818417E-06,0.17578125,0,0
-1.80012957571307E-05,1.66545714819222E-06,0.17578125,0,0
-2.59074240602786E-05,5.18419665240799E-06,0.17578125,0,0
-1.89337042684201E-05,6.75799856253434E-06,0.17578125,0,0
-2.25895146286348E-05,7.69605412642704E-06,0.17578125,0,0
-2.07699104066705E-05,9.99551957647782E-06,0.17578125,0,0
-2.49084896495333E-05,1.1090332918684E-05,0.17578125,0,0
-2.33877235586988E-05,1.4354335689859E-05,0.17578125,0,0
-2.43615722865798E-05,1.87626046681544E-05,0.17578125,0,0
-2.38883785641519E-05,1.84438758878969E-05,0.17578125,0,0
-2.44687744270777E-05,1.55805519170826E-05,0.17578125,0,0
-2.5620594897191E-05,1.44671712405398E-05,0.17578125,0,0
-2.468270213285E-05,1.29407862914377E-05,0.17578125,0,0
-2.40597892116057E-05,1.07300802483223E-05,0.17578125,0,0
-2.2021018594387E-05,9.25607855606359E-06,0.17578125,0,0
-2.22069284063764E-05,6.9760508267791E-06,0.17578125,0,0
-2.07326993404422E-05,3.18228171636292E-06,0.17578125,0,0
-2.11052192753414E-05,3.90997058730136E-07,0.17578125,0,0
-1.96491437236546E-05,9.45311001032678E-07,0.17578125,0,0
-2.12478298635688E-05,3.7301699649106E-06,0.17578125,0,0
-2.28962853725534E-05,5.66960852665943E-06,0.17578125,0,0
-2.52305217145476E-05,4.90552201881655E-06,0.17578125,0,0
-2.57874016824644E-05,3.43674810210359E-06,0.17578125,0,0
-2.67812883976148E-05,3.3952487683564E-06,0.17578125,0,0
-2.58456675510388E-05,5.16911177328439E-06,0.17578125,0,0
-2.50638968282146E-05,7.51449715608032E-06,0.17578125,0,0
-2.40617573581403E-05,9.52431128098397E-06,0.17578125,0,0
-2.37641525018262E-05,1.27269031509059E-05,0.17578125,0,0
-1.98849556909408E-05,1.12574998638593E-05,0.17578125,0,0
-2.9034934414085E-05,1.45273697853554E-05,0.17578125,0,0
-2.2305961465463E-05,6.74405873724027E-06,0.17578125,0,0
-2.70081836788449E-05,9.00991926755523E-06,0.17578125,0,0
-2.28967855946394E-05,9.76321916823508E-06,0.17578125,0,0
-2.47478437813697E-05,1.35597128974041E-05,0.17578125,0,0
-2.24431096285116E-05,1.39762187245651E-05,0.17578125,0,0
-2.30884215852711E-05,1.58096227096394E-05,0.17578125,0,0
-2.29792203754187E-05,1.22556875794544E-05,0.17578125,0,0
-2.50742377829738E-05,9.10389189812122E-06,0.17578125,0,0
-2.58084910456091E-05,1.0427825145598E-05,0.17578125,0,0
-2.31055219046539E-05,1.16151641122997E-05,0.17578125,0,0
-2.06973272725008E-05,1.27252033053082E-05,0.17578125,0,0
-1.78714471985586E-05,1.15757211460732E-05,0.17578125,0,0
-1.90012851817301E-05,1.00118086265866E-05,0.17578125,0,0
-1.97817553271307E-05,8.76646663527936E-06,0.17578125,0,0
-2.34188046306372E-05,1.08499270936591E-05,0.17578125,0,0
-2.39362452703062E-05,1.19633750728099E-05,0.17578125,0,0
-2.38882894336712E-05,1.41442824315163E-05,0.17578125,0,0
-2.06431450351374E-05,1.77982765308116E-05,0.17578125,0,0
-1.89221664186334E-05,2.27462533075595E-05,0.17578125,0,0
-1.71326828422025E-05,2.25209314521635E-05,0.17578125,0,0
-1.67138405231526E-05,1.83768133865669E-05,0.17578125,0,0
-1.48471326610888E-05,1.17860654427204E-05,0.17578125,0,0
-1.47323989949655E-05,8.11442350823199E-06,0.17578125,0,0
-1.54042354552075E-05,9.04408807400614E-06,0.17578125,0,0
-1.67693960975157E-05,1.05552944660303E-05,0.17578125,0,0
-1.48652061398025E-05,8.17610634840094E-06,0.17578125,0,0
-1.97509998542955E-05,1.22622786875581E-05,0.17578125,0,0
-1.30569678731263E-05,9.04941680346383E-06,0.17578125,0,0
-1.88516296475427E-05,1.20864360724227E-05,0.17578125,0,0
-1.95955944946036E-05,1.26529193948954E-05,0.17578125,0,0
-2.39781893469626E-05,1.2998945749132E-05,0.17578125,0,0
-2.38236989389407E-05,1.25644746731268E-05,0.17578125,0,0
-2.54971946560545E-05,1.46472739288583E-05,0.17578125,0,0
-2.55538961937418E-05,1.59343362611253E-05,0.17578125,0,0
-2.55900649790419E-05,1.8843882571673E-05,0.17578125,0,0
-2.57193387369625E-05,2.00532722374192E-05,0.17578125,0,0
-2.47966181632364E-05,1.55764755618293E-05,0.17578125,0,0
-2.55769027717179E-05,1.02787871583132E-05,0.17578125,0,0
-2.53620692092227E-05,5.25594577993616E-06,0.17578125,0,0
-2.65800699708052E-05,9.12238363071083E-07,0.17578125,0,0
-2.67534542217618E-05,-1.74613796843914E-06,0.17578125,0,0
-2.8994001695537E-05,1.2228554169269E-06,0.17578125,0,0
-2.98113518510945E-05,5.99779923504684E-06,0.17578125,0,0
-3.11242438328918E-05,1.02240428532241E-05,0.17578125,0,0
-2.9203907615738E-05,1.12050556708709E-05,0.17578125,0,0
-2.66069491772214E-05,1.00650022432092E-05,0.17578125,0,0
-2.35223888012115E-05,7.35970752430148E-06,0.17578125,0,0
-2.42699170485139E-05,7.20211164662032E-06,0.17578125,0,0
-2.66376409854274E-05,9.05751676327782E-06,0.17578125,0,0
-2.80521526292432E-05,1.12458119474468E-05,0.17578125,0,0
-2.86185331788147E-05,1.35911141114775E-05,0.17578125,0,0
-3.02234439004678E-05,1.4043763258087E-05,0.17578125,0,0
-2.6266616259818E-05,1.12920579340425E-05,0.17578125,0,0
-3.7092984712217E-05,1.5937264834065E-05,0.17578125,0,0
-2.68127714662114E-05,8.62810975377215E-06,0.17578125,0,0
-3.22774212691002E-05,8.42091412778245E-06,0.17578125,0,0
-2.69885240413714E-05,7.76423530624015E-06,0.17578125,0,0
-2.99135299428599E-05,7.33911156203249E-06,0.17578125,0,0
-2.46557428909E-05,2.08925371225632E-06,0.17578125,0,0
-2.51556284638355E-05,2.21536333810946E-06,0.17578125,0,0
-2.50066932494519E-05,1.97513168131991E-06,0.17578125,0,0
-2.60727956629125E-05,3.73565444533597E-06,0.17578125,0,0
-2.64250957116019E-05,6.10723463978502E-06,0.17578125,0,0
-2.53164471359923E-05,5.43478745385073E-06,0.17578125,0,0
-2.73424357146723E-05,5.84215285925893E-06,0.17578125,0,0
-2.6960809918819E-05,7.87210683483863E-06,0.17578125,0,0
-2.85969836113509E-05,9.91120850812877E-06,0.17578125,0,0
-2.74343456112547E-05,7.99387726146961E-06,0.17578125,0,0
-2.89858307951363E-05,5.68809355172561E-06,0.17578125,0,0
-2.66008391918149E-05,2.49370486926637E-06,0.17578125,0,0
-2.71309618256055E-05,3.29171916746418E-06,0.17578125,0,0
-2.67758950940333E-05,6.40284679320757E-06,0.17578125,0,0
-2.85537971649319E-05,1.14099248094135E-05,0.17578125,0,0
-2.74990106845507E-05,1.31660399347311E-05,0.17578125,0,0
-2.90569278149633E-05,1.16840728878742E-05,0.17578125,0,0
-3.13427190121729E-05,9.39638084673788E-06,0.17578125,0,0
-3.20177314279135E-05,9.07943467609584E-06,0.17578125,0,0
-3.04629720631056E-05,1.07261175799067E-05,0.17578125,0,0
-3.05550893244799E-05,1.46065640365123E-05,0.17578125,0,0
-2.52005775109865E-05,1.36196895255125E-05,0.17578125,0,0
-3.60502854164224E-05,1.89508209587075E-05,0.17578125,0,0
-2.74266112683108E-05,1.13993837658199E-05,0.17578125,0,0
-3.3387572329957E-05,1.13222858999507E-05,0.17578125,0,0
-2.86710037471494E-05,7.07495973983896E-06,0.17578125,0,0
-3.26615481753834E-05,8.63302739162464E-06,0.17578125,0,0
-2.95660920528462E-05,8.89762850420084E-06,0.17578125,0,0
-3.05303583445493E-05,1.29001828099717E-05,0.17578125,0,0
-2.94745932478691E-05,1.5579111277475E-05,0.17578125,0,0
-2.91911255771993E-05,1.58792227011872E-05,0.17578125,0,0
-2.87015591311501E-05,1.30140160763403E-05,0.17578125,0,0
-2.76508289971389E-05,8.53180699778022E-06,0.17578125,0,0
-2.9085193091305E-05,6.8175600063114E-06,0.17578125,0,0
-2.85675359918969E-05,7.64346532378113E-06,0.17578125,0,0
-3.01292166113853E-05,1.12610532596591E-05,0.17578125,0,0
-2.7637144739856E-05,1.14753056550398E-05,0.17578125,0,0
-2.68057156063151E-05,1.0298202141712E-05,0.17578125,0,0
-2.36859086726327E-05,8.54437075759051E-06,0.17578125,0,0
-2.56413040915504E-05,1.08185786302784E-05,0.17578125,0,0
-2.69471438514302E-05,1.2944377886015E-05,0.17578125,0,0
-2.8723879950121E-05,1.56635487655876E-05,0.17578125,0,0
-2.73854711849708E-05,1.53210330608999E-05,0.17578125,0,0
-2.71369808615418E-05,1.45264630191377E-05,0.17578125,0,0
-2.51504261541413E-05,1.4792515685258E-05,0.17578125,0,0
-2.33451610256452E-05,1.66022982739378E-05,0.17578125,0,0
-2.29248125833692E-05,1.77029505721293E-05,0.17578125,0,0
-2.53764410445001E-05,1.93246596609242E-05,0.17578125,0,0
-2.09879108297173E-05,1.7829497664934E-05,0.17578125,0,0
-2.71494136541151E-05,2.61437016888522E-05,0.17578125,0,0
-1.56276873894967E-05,1.76795419974951E-05,0.17578125,0,0
-1.81636314664502E-05,1.78848622454097E-05,0.17578125,0,0
-1.24303087432054E-05,1.03491938716616E-05,0.17578125,0,0
-1.4627265954914E-05,9.14256725081941E-06,0.17578125,0,0
-1.16556157081504E-05,9.80973072728375E-06,0.17578125,0,0
-1.32328377731028E-05,1.51926715261652E-05,0.17578125,0,0
-1.31535753098433E-05,1.59835999511415E-05,0.17578125,0,0
-1.28977371787187E-05,1.76986995938933E-05,0.17578125,0,0
-1.246509145858E-05,2.13373441511067E-05,0.17578125,0,0
-1.21067560030497E-05,2.30175864999183E-05,0.17578125,0,0
-1.38071955007035E-05,2.47481348196743E-05,0.17578125,0,0
-1.32653867694899E-05,2.48691612796392E-05,0.17578125,0,0
-1.42687531479169E-05,2.48005653702421E-05,0.17578125,0,0
-1.28533210954629E-05,1.9601546227932E-05,0.17578125,0,0
-1.45410531331436E-05,1.42010758281685E-05,0.17578125,0,0
-1.39792600748478E-05,8.71523570822319E-06,0.17578125,0,0
-1.53010169015033E-05,9.22304298001109E-06,0.17578125,0,0
-1.449888713978E-05,1.04683304016362E-05,0.17578125,0,0
-1.5347028238466E-05,1.1174436622241E-05,0.17578125,0,0
-1.49994821185828E-05,1.01569212347385E-05,0.17578125,0,0
-1.65223755175248E-05,1.05720155261224E-05,0.17578125,0,0
-1.68070146173704E-05,1.01660934888059E-05,0.17578125,0,0
-1.59986193466466E-05,1.06233546830481E-05,0.17578125,0,0
-1.380328740197E-05,1.1019443263649E-05,0.17578125,0,0
-1.38271434479975E-05,1.28720566863194E-05,0.17578125,0,0
-1.43348306664848E-05,1.22685059977812E-05,0.17578125,0,0
-2.15920754271792E-05,1.71375504578464E-05,0.17578125,0,0
-1.66791942319833E-05,1.11365698103327E-05,0.17578125,0,0
-1.91132185136667E-05,1.41742275445722E-05,0.17578125,0,0
-1.72922282217769E-05,1.40240126711433E-05,0.17578125,0,0
-2.05624837690266E-05,1.67272664839402E-05,0.17578125,0,0
-1.9815968698822E-05,1.67232210515067E-05,0.17578125,0,0
-1.90988648682833E-05,1.91580620594323E-05,0.17578125,0,0
-1.77039164555026E-05,2.00049234990729E-05,0.17578125,0,0
-1.8126087525161E-05,2.13422081287717E-05,0.17578125,0,0
-1.92575716937426E-05,2.27243945118971E-05,0.17578125,0,0
-1.84917844308075E-05,2.02848550543422E-05,0.17578125,0,0
-1.77907622855855E-05,1.67969592439476E-05,0.17578125,0,0
-1.69107679539593E-05,1.35164391394937E-05,0.17578125,0,0
-1.78273276105756E-05,1.31031320051989E-05,0.17578125,0,0
-1.72028630913701E-05,1.14399826998124E-05,0.17578125,0,0
-1.88661288120784E-05,1.05005337900366E-05,0.17578125,0,0
-1.99936966964742E-05,9.98721316136653E-06,0.17578125,0,0
-2.24588311539264E-05,1.12640591396485E-05,0.17578125,0,0
-2.36441810557153E-05,9.55810719460715E-06,0.17578125,0,0
-2.5024286514963E-05,6.10415600021952E-06,0.17578125,0,0
-2.58320069406182E-05,7.89302191606112E-07,0.17578125,0,0
-2.76133596344152E-05,-2.04775483325648E-06,0.17578125,0,0
-2.7583690098254E-05,-2.12744612326787E-06,0.17578125,0,0
-2.72013548965333E-05,1.38584778142103E-06,0.17578125,0,0
-2.6344718207838E-05,5.33341972186463E-06,0.17578125,0,0
-2.49867898673983E-05,5.38944277650444E-06,0.17578125,0,0
-1.94632157217711E-05,6.91737909619405E-07,0.17578125,0,0
-2.72839679382741E-05,6.98525639108993E-07,0.17578125,0,0
-1.96268683794187E-05,2.63514584730729E-06,0.17578125,0,0
-2.44880793616176E-05,5.59459203941515E-06,0.17578125,0,0
-2.10616690310417E-05,5.45130023965612E-06,0.17578125,0,0
-2.43508166022366E-05,4.50845573141123E-06,0.17578125,0,0
-2.24885061470559E-05,1.85478938874439E-06,0.17578125,0,0
-2.31515004998073E-05,-1.76877108515328E-07,0.17578125,0,0
-2.24197156057926E-05,7.838154658657E-08,0.17578125,0,0
-2.45280807575909E-05,4.76825243822532E-06,0.17578125,0,0
-2.92007407551864E-05,1.04105738500948E-05,0.17578125,0,0
-3.12334814225324E-05,1.18816842586966E-05,0.17578125,0,0
-3.1684925488662E-05,1.14547492557904E-05,0.17578125,0,0
-3.03807682939805E-05,1.17244308057707E-05,0.17578125,0,0
-3.18839302053675E-05,1.14313152153045E-05,0.17578125,0,0
-3.1179664802039E-05,8.99827136890963E-06,0.17578125,0,0
-3.18632992275525E-05,6.42418353891117E-06,0.17578125,0,0
-3.13401760649867E-05,5.49906553715118E-06,0.17578125,0,0
-3.42342536896467E-05,7.83201903686859E-06,0.17578125,0,0
-3.54406074620783E-05,1.12123243525275E-05,0.17578125,0,0
-3.66225649486296E-05,1.35736881929915E-05,0.17578125,0,0
-3.52375463990029E-05,1.62732067110483E-05,0.17578125,0,0
-3.41670129273552E-05,1.85879234777531E-05,0.17578125,0,0
-3.24651591654401E-05,1.87119439942762E-05,0.17578125,0,0
-3.34579417540226E-05,1.88687336049043E-05,0.17578125,0,0
-3.52336355717853E-05,1.88852245628368E-05,0.17578125,0,0
-3.5226436011726E-05,1.85775479621952E-05,0.17578125,0,0
-2.50304146902636E-05,1.42576373036718E-05,0.17578125,0,0
-3.36579905706458E-05,1.95688753592549E-05,0.17578125,0,0
-2.47553325607441E-05,1.37962069857167E-05,0.17578125,0,0
-3.29207505274098E-05,1.86325851245783E-05,0.17578125,0,0
-2.78630195680307E-05,1.55695797730004E-05,0.17578125,0,0
-3.28934474964626E-05,1.32715140352957E-05,0.17578125,0,0
-3.10414070554543E-05,6.84582573740045E-06,0.17578125,0,0
-3.22280975524336E-05,4.79672326036962E-06,0.17578125,0,0
-2.99502989946632E-05,2.40303188547841E-06,0.17578125,0,0
-2.83658264379483E-05,3.47710670212109E-06,0.17578125,0,0
-2.60360247921199E-05,5.60663920623483E-06,0.17578125,0,0
-2.33486334764166E-05,5.1386991799518E-06,0.17578125,0,0
-2.5086255845963E-05,4.69331553176744E-06,0.17578125,0,0
-2.63550555246184E-05,4.53891334473155E-06,0.17578125,0,0
-2.91464402835118E-05,7.43295777283493E-06,0.17578125,0,0
-2.69024858425837E-05,9.04363514564466E-06,0.17578125,0,0
-2.74217691185186E-05,1.06213556136936E-05,0.17578125,0,0
-2.56889143201988E-05,8.90004685061285E-06,0.17578125,0,0
-2.70496748271398E-05,8.98684174899245E-06,0.17578125,0,0
-2.59648350038333E-05,9.24894357012818E-06,0.17578125,0,0
-2.65174694504822E-05,1.1307216482237E-05,0.17578125,0,0
-2.582248635008E-05,1.17246863737819E-05,0.17578125,0,0
-2.85693477053428E-05,1.22387482406339E-05,0.17578125,0,0
-3.05584107991308E-05,1.08418889794848E-05,0.17578125,0,0
-3.03557026199996E-05,8.80287825566484E-06,0.17578125,0,0
-2.60821907431819E-05,5.29542330696131E-06,0.17578125,0,0
-2.2919073671801E-05,2.86109047920036E-06,0.17578125,0,0
-1.97829540411476E-05,2.75670549854112E-06,0.17578125,0,0
-2.9857348636142E-05,3.9668243516644E-06,0.17578125,0,0
-2.49878794420511E-05,3.91871338933925E-07,0.17578125,0,0
-3.02366170217283E-05,-2.1845560240763E-06,0.17578125,0,0
-2.65387898252811E-05,-1.51801657466422E-06,0.17578125,0,0
-2.7760677767219E-05,-1.24914254229225E-06,0.17578125,0,0
-2.52664794970769E-05,-1.48169533531473E-06,0.17578125,0,0
-2.73031382675981E-05,9.46320312777971E-07,0.17578125,0,0
-2.64607679127948E-05,1.65192614076659E-06,0.17578125,0,0
-2.45180981437443E-05,2.49096001425642E-06,0.17578125,0,0
-2.22968665184453E-05,4.91383616463281E-06,0.17578125,0,0
-1.93148043763358E-05,7.33367824068409E-06,0.17578125,0,0
-1.78068312379764E-05,9.44345629250165E-06,0.17578125,0,0
-1.55842535605188E-05,9.51024958339985E-06,0.17578125,0,0
-1.5507986972807E-05,7.14869975126931E-06,0.17578125,0,0
-1.29256513901055E-05,6.08081109021441E-06,0.17578125,0,0
-1.28132314785034E-05,8.78215996635845E-06,0.17578125,0,0
-1.06556653918233E-05,1.11975341496873E-05,0.17578125,0,0
-1.06835059341392E-05,1.22572946565924E-05,0.17578125,0,0
-1.0335292245145E-05,1.29913687487715E-05,0.17578125,0,0
-1.31158767544548E-05,1.39819103424088E-05,0.17578125,0,0
-1.55169946083333E-05,1.48499066199292E-05,0.17578125,0,0
-1.77586425706977E-05,1.69418872246752E-05,0.17578125,0,0
-1.73359567270381E-05,1.94739950529765E-05,0.17578125,0,0
-1.61067709996132E-05,2.01940711122006E-05,0.17578125,0,0
-1.48381977851386E-05,1.65924066095613E-05,0.17578125,0,0
-1.57149970618775E-05,1.24485432024812E-05,0.17578125,0,0
-1.43215038406197E-05,9.37972436076961E-06,0.17578125,0,0
-2.16080261452589E-05,1.28399451568839E-05,0.17578125,0,0
-1.74205833900487E-05,9.40109293878777E-06,0.17578125,0,0
-2.02639621420531E-05,1.56018413690617E-05,0.17578125,0,0
-1.77170750248479E-05,1.74243850779021E-05,0.17578125,0,0
-2.01448801817605E-05,1.83358697540825E-05,0.17578125,0,0
-1.91738199646352E-05,1.68295882758684E-05,0.17578125,0,0
-2.08172659768024E-05,1.78504269570112E-05,0.17578125,0,0
-2.1618736354867E-05,1.74374526977772E-05,0.17578125,0,0
-2.29323923122138E-05,1.73930911842035E-05,0.17578125,0,0
-2.57778410741594E-05,1.87438508874038E-05,0.17578125,0,0
-2.86170215986203E-05,1.91257895494346E-05,0.17578125,0,0
-3.06149740936235E-05,1.92083552974509E-05,0.17578125,0,0
-2.91588767140638E-05,1.77653964783531E-05,0.17578125,0,0
-2.85212590824813E-05,1.70446419360815E-05,0.17578125,0,0
-2.67479226749856E-05,1.58719049068168E-05,0.17578125,0,0
-2.65155831584707E-05,1.57916347234277E-05,0.17578125,0,0
-2.55100312642753E-05,1.55800789798377E-05,0.17578125,0,0
-2.70370401267428E-05,1.81859631993575E-05,0.17578125,0,0
-2.84204143099487E-05,2.05687429115642E-05,0.17578125,0,0
-3.02720291074365E-05,2.22265080083162E-05,0.17578125,0,0
-2.91417927655857E-05,2.25765725190286E-05,0.17578125,0,0
-2.71010339929489E-05,2.32964994211216E-05,0.17578125,0,0
-2.5195946363965E-05,2.43911090365145E-05,0.17578125,0,0
-2.56070507020922E-05,2.55979975918308E-05,0.17578125,0,0
-2.55926825047936E-05,2.59591106441803E-05,0.17578125,0,0
-2.51218025368871E-05,2.64888130914187E-05,0.17578125,0,0
-2.06835775315994E-05,2.16229364013998E-05,0.17578125,0,0
-2.92931144940667E-05,2.96086836897302E-05,0.17578125,0,0
-2.14585652429378E-05,1.88006433745613E-05,0.17578125,0,0
-2.55386148637626E-05,2.352349110879E-05,0.17578125,0,0
-2.14164501812775E-05,2.03789568331558E-05,0.17578125,0,0
-2.59065272985026E-05,2.25709682126762E-05,0.17578125,0,0
-2.4204333385569E-05,1.89093370863702E-05,0.17578125,0,0
-2.50481516559375E-05,1.7926129658008E-05,0.17578125,0,0
-2.37631938944105E-05,1.26726145026623E-05,0.17578125,0,0
-2.4126213247655E-05,9.35173102334375E-06,0.17578125,0,0
-2.51515666604973E-05,9.03028922039084E-06,0.17578125,0,0
-2.37781914620427E-05,9.11202369024977E-06,0.17578125,0,0
-2.38180127780652E-05,1.25315336845233E-05,0.17578125,0,0
-2.44868533627596E-05,1.42086819323595E-05,0.17578125,0,0
-2.90656407742063E-05,1.6250194676104E-05,0.17578125,0,0
-2.91100004687905E-05,1.46651718750945E-05,0.17578125,0,0
-2.85112946585286E-05,1.52512566273799E-05,0.17578125,0,0
-2.65852286247537E-05,1.18722555271233E-05,0.17578125,0,0
-2.94266610580962E-05,8.38342839415418E-06,0.17578125,0,0
-3.00285664707189E-05,5.11132566316519E-06,0.17578125,0,0
-2.86617741949158E-05,6.23624737272621E-06,0.17578125,0,0
-2.47201987804146E-05,3.99940654460806E-06,0.17578125,0,0
-2.44381099037128E-05,1.08016547528678E-06,0.17578125,0,0
-2.55127233685926E-05,-8.03467159471438E-08,0.17578125,0,0
-2.69815373030724E-05,2.87345301330788E-06,0.17578125,0,0
-2.6068835722981E-05,3.91007642974728E-06,0.17578125,0,0
-2.44376569753513E-05,9.52520110786281E-07,0.17578125,0,0
-1.97592216863995E-05,1.01544867447956E-06,0.17578125,0,0
-2.8304315492278E-05,4.05345417675562E-06,0.17578125,0,0
-2.24188370339107E-05,6.24110089120222E-06,0.17578125,0,0
-2.84514571831096E-05,6.3125507949735E-06,0.17578125,0,0
-2.49409022217151E-05,6.69937162456336E-06,0.17578125,0,0
-2.7768137442763E-05,5.53299923922168E-06,0.17578125,0,0
-2.5731173082022E-05,5.18177466801717E-06,0.17578125,0,0
-2.72634297289187E-05,5.62774039281067E-06,0.17578125,0,0
-2.74771373369731E-05,5.80208370593027E-06,0.17578125,0,0
-2.83493463939521E-05,7.68822337704478E-06,0.17578125,0,0
-2.92975983029464E-05,1.04961663964787E-05,0.17578125,0,0
-2.96594080282375E-05,9.88841748039704E-06,0.17578125,0,0
-3.16426594508812E-05,7.95742926129606E-06,0.17578125,0,0
-3.09177485178225E-05,7.08056722942274E-06,0.17578125,0,0
-3.11463336402085E-05,5.68729956285097E-06,0.17578125,0,0
-2.82590754068224E-05,4.19644356952631E-06,0.17578125,0,0
-2.6864263418247E-05,4.75322303827852E-06,0.17578125,0,0
-2.47846346610459E-05,5.2880031944369E-06,0.17578125,0,0
-2.60018623521319E-05,4.63418427898432E-06,0.17578125,0,0
-2.40467797993915E-05,4.92162052978529E-06,0.17578125,0,0
-2.19658395508304E-05,5.33125648871646E-06,0.17578125,0,0
-1.84969012479996E-05,6.12933581578545E-06,0.17578125,0,0
-1.71773572219536E-05,8.03282000561012E-06,0.17578125,0,0
-1.73620956047671E-05,1.17430745376623E-05,0.17578125,0,0
-1.90985192602966E-05,1.47543187267729E-05,0.17578125,0,0
-1.88461563084275E-05,1.43523548103985E-05,0.17578125,0,0
-1.60414547281107E-05,1.24063381008455E-05,0.17578125,0,0
-8.87762507773004E-06,8.1445368778077E-06,0.17578125,0,0
-1.15017019197694E-05,1.0716659744503E-05,0.17578125,0,0
-9.59975204750663E-06,5.208005404711E-06,0.17578125,0,0
-1.56522582983598E-05,6.59935221847263E-06,0.17578125,0,0
-1.55649468069896E-05,6.26863356956164E-06,0.17578125,0,0
-1.72974196175346E-05,6.39163135929266E-06,0.17578125,0,0
-1.85574426723178E-05,4.89600188302575E-06,0.17578125,0,0
-2.1897003534832E-05,5.9062112995889E-06,0.17578125,0,0
-2.24982577492483E-05,4.36360187450191E-06,0.17578125,0,0
-2.28437183977803E-05,4.32129263572278E-06,0.17578125,0,0
-2.29987344937399E-05,5.4084030125523E-06,0.17578125,0,0
-2.25950534513686E-05,3.96266750612995E-06,0.17578125,0,0
-2.20149631786626E-05,6.41454789729323E-07,0.17578125,0,0
-2.059492180706E-05,-1.47229945923755E-06,0.17578125,0,0
-2.13738348975312E-05,3.99383992544244E-08,0.17578125,0,0
-2.15182881220244E-05,2.01028046831198E-06,0.17578125,0,0
-2.16111038753297E-05,4.44725810666569E-06,0.17578125,0,0
-2.03648032766068E-05,3.91445337299956E-06,0.17578125,0,0
-2.1875335733057E-05,2.7706073524314E-06,0.17578125,0,0
-2.32860184041783E-05,8.87553710526845E-07,0.17578125,0,0
-2.44942966673989E-05,7.36817810320645E-07,0.17578125,0,0
-2.44529255724046E-05,2.17502974919626E-06,0.17578125,0,0
-2.60352971963584E-05,6.71614861857961E-06,0.17578125,0,0
-2.82055880234111E-05,9.91000797512243E-06,0.17578125,0,0
-2.94813253276516E-05,1.01572368294001E-05,0.17578125,0,0
-2.96365851681912E-05,1.11096123873722E-05,0.17578125,0,0
-3.00430929200957E-05,1.37262341013411E-05,0.17578125,0,0
-2.40703739109449E-05,1.29291884150007E-05,0.17578125,0,0
-3.32269628415816E-05,1.90443442988908E-05,0.17578125,0,0
-2.37939621001715E-05,1.23071649795747E-05,0.17578125,0,0
-2.94586425297894E-05,1.20418562801206E-05,0.17578125,0,0
-2.24988671106985E-05,7.5665780059353E-06,0.17578125,0,0
-2.37966196436901E-05,6.61889816910843E-06,0.17578125,0,0
-2.0582927390933E-05,6.67859512759605E-06,0.17578125,0,0
-2.24744890147122E-05,1.29039008243126E-05,0.17578125,0,0
-2.11809838219779E-05,1.33778539748164E-05,0.17578125,0,0
-2.08716537599685E-05,8.40345092001371E-06,0.17578125,0,0
-2.19918510993011E-05,4.95896983920829E-06,0.17578125,0,0
-2.22019134525908E-05,3.29321414938022E-06,0.17578125,0,0
-2.31108315347228E-05,3.61641491508635E-06,0.17578125,0,0
-2.12051909329602E-05,2.79894106824941E-06,0.17578125,0,0
-2.19353769352892E-05,2.31483545576339E-06,0.17578125,0,0
-2.02951196115464E-05,2.04274033421825E-06,0.17578125,0,0
-2.23106108023785E-05,6.13685324424296E-06,0.17578125,0,0
-2.16044172702823E-05,9.84266080195084E-06,0.17578125,0,0
-2.32700622291304E-05,1.36432709041401E-05,0.17578125,0,0
-2.38581087614875E-05,1.62137312145205E-05,0.17578125,0,0
-2.69084157480393E-05,1.88901976798661E-05,0.17578125,0,0
-2.74631311185658E-05,1.92932493519038E-05,0.17578125,0,0
-2.85129353869706E-05,1.93309078895254E-05,0.17578125,0,0
-2.78388670267304E-05,1.8583059500088E-05,0.17578125,0,0
-2.71602875727694E-05,1.81774339580443E-05,0.17578125,0,0
-2.53084253927227E-05,1.66074132721405E-05,0.17578125,0,0
-2.36809646594338E-05,1.28778629004955E-05,0.17578125,0,0
-1.92192892427556E-05,8.31884426588658E-06,0.17578125,0,0
-2.79205669357907E-05,1.25804881463409E-05,0.17578125,0,0
-1.98742291104281E-05,1.05335402622586E-05,0.17578125,0,0
-2.23263032239629E-05,1.3988978935231E-05,0.17578125,0,0
-2.01717866730178E-05,1.47582331919693E-05,0.17578125,0,0
-2.50626017077593E-05,1.64948451129021E-05,0.17578125,0,0
-2.42269888985902E-05,1.70631446962943E-05,0.17578125,0,0
-2.5738980184542E-05,1.82865223905537E-05,0.17578125,0,0
-2.3418488126481E-05,1.42716789923725E-05,0.17578125,0,0
-2.14374340430368E-05,1.12090683614952E-05,0.17578125,0,0
-2.12139693758218E-05,9.40465361054521E-06,0.17578125,0,0
-2.18593231693376E-05,6.60919204165111E-06,0.17578125,0,0
-2.4698099878151E-05,6.59280931358808E-06,0.17578125,0,0
-2.44901020778343E-05,7.2215948421217E-06,0.17578125,0,0
-2.48410906351637E-05,6.54302448310773E-06,0.17578125,0,0
-2.4335240595974E-05,3.78028221348359E-06,0.17578125,0,0
-2.73758178082062E-05,3.44868726642744E-06,0.17578125,0,0
-2.73607602139236E-05,3.20849221679964E-06,0.17578125,0,0
-2.68032872554613E-05,3.28405167238088E-06,0.17578125,0,0
-2.33693772315746E-05,1.57325666805264E-06,0.17578125,0,0
-2.17491688090377E-05,1.04682180790405E-06,0.17578125,0,0
-2.11214974115137E-05,3.0044830054976E-06,0.17578125,0,0
-2.33464234042913E-05,5.75097828914295E-06,0.17578125,0,0
-2.47202824539272E-05,5.07404547533952E-06,0.17578125,0,0
-2.59309217653936E-05,3.35781805915758E-06,0.17578125,0,0
-2.48261203523725E-05,3.05868434224976E-06,0.17578125,0,0
-2.16836160689127E-05,3.12570637106546E-06,0.17578125,0,0
-1.43099541674019E-05,8.34893228329747E-07,0.17578125,0,0
-2.03076724574203E-05,7.50741207866668E-07,0.17578125,0,0
-1.66337595146615E-05,2.73032264885842E-06,0.17578125,0,0
-2.13322637137026E-05,8.84045130078448E-06,0.17578125,0,0
-1.80873576027807E-05,1.20015638458426E-05,0.17578125,0,0
-2.0430370568647E-05,1.16264809548738E-05,0.17578125,0,0
-1.9500897906255E-05,1.30771913973149E-05,0.17578125,0,0
-2.15796717384364E-05,1.75840414158301E-05,0.17578125,0,0
-2.13881467061583E-05,1.96958426386118E-05,0.17578125,0,0
-2.00091999431606E-05,2.02840637939516E-05,0.17578125,0,0
-1.92214611161035E-05,2.11724927794421E-05,0.17578125,0,0
-1.84346172318328E-05,2.10814505408052E-05,0.17578125,0,0
-1.91260842257179E-05,2.14950796362245E-05,0.17578125,0,0
-1.87281784747029E-05,2.2222333427635E-05,0.17578125,0,0
-2.00908034457825E-05,2.33514801948331E-05,0.17578125,0,0
-2.04383195523405E-05,2.42082114709774E-05,0.17578125,0,0
-2.25537914957386E-05,2.32869406318059E-05,0.17578125,0,0
-2.23093993554357E-05,1.96359724213835E-05,0.17578125,0,0
-2.19381399801932E-05,1.47728560477844E-05,0.17578125,0,0
-2.01258317247266E-05,1.23519539556582E-05,0.17578125,0,0
-2.09009267564397E-05,1.38463683470036E-05,0.17578125,0,0
-2.17295182665112E-05,1.52524926306796E-05,0.17578125,0,0
-2.39723121921998E-05,1.39567528094631E-05,0.17578125,0,0
-2.65792987192981E-05,1.26564191305079E-05,0.17578125,0,0
-2.88500559690874E-05,1.32940840558149E-05,0.17578125,0,0
-2.88554801954888E-05,1.43587558341096E-05,0.17578125,0,0
-2.79554260487203E-05,1.30057314891019E-05,0.17578125,0,0
-2.23194001591764E-05,5.42409770787344E-06,0.17578125,0,0
-3.09552597173024E-05,5.26817348145414E-06,0.17578125,0,0
-2.25300718739163E-05,1.48447509218386E-06,0.17578125,0,0
-2.88243954855716E-05,5.82632628720603E-06,0.17578125,0,0
-2.63240890490124E-05,9.65735489444342E-06,0.17578125,0,0
-3.21983352478128E-05,1.57524536916753E-05,0.17578125,0,0
-3.11557378154248E-05,1.98802881641313E-05,0.17578125,0,0
-3.29449721903075E-05,2.33503596973605E-05,0.17578125,0,0
-3.15101497108117E-05,2.07051816687454E-05,0.17578125,0,0
-3.1285406294046E-05,1.71891406353097E-05,0.17578125,0,0
-3.23964341077954E-05,1.55762991198571E-05,0.17578125,0,0
-3.17989724862855E-05,1.48118715515011E-05,0.17578125,0,0
-3.24249522236642E-05,1.5613453797414E-05,0.17578125,0,0
-3.18596539727878E-05,1.61012285389006E-05,0.17578125,0,0
-3.37809797201771E-05,1.5158140740823E-05,0.17578125,0,0
-3.23934655170888E-05,1.23863010230707E-05,0.17578125,0,0
-3.37761848641094E-05,1.35848249556147E-05,0.17578125,0,0
-3.32364688802045E-05,1.6730466086301E-05,0.17578125,0,0
-3.44585278071463E-05,1.75113837030949E-05,0.17578125,0,0
-3.33125935867429E-05,1.5031982002256E-05,0.17578125,0,0
-3.45027219736949E-05,1.43678598760744E-05,0.17578125,0,0
-3.33638563461136E-05,1.36494509206386E-05,0.17578125,0,0
-3.15513352688868E-05,1.41501332109328E-05,0.17578125,0,0
-2.90682291961275E-05,1.5677987903473E-05,0.17578125,0,0
-2.78331772278761E-05,1.75743571162457E-05,0.17578125,0,0
-2.61415279965149E-05,1.85855515155708E-05,0.17578125,0,0
-2.48259239015169E-05,1.83592383109499E-05,0.17578125,0,0
-1.71704032254638E-05,1.34569190777256E-05,0.17578125,0,0
-2.26601841859519E-05,1.89179572771536E-05,0.17578125,0,0
-1.56067417265149E-05,1.54616081999848E-05,0.17578125,0,0
-2.07857647183118E-05,2.02704177354462E-05,0.17578125,0,0
-1.69192262546858E-05,1.38399082061369E-05,0.17578125,0,0
-1.88828616956016E-05,1.00175766419852E-05,0.17578125,0,0
-1.73251009982778E-05,8.71382235345664E-06,0.17578125,0,0
-1.88536487257807E-05,1.52164120663656E-05,0.17578125,0,0
-1.76138710230589E-05,1.71164501807652E-05,0.17578125,0,0
-1.76489029399818E-05,1.70777002495015E-05,0.17578125,0,0
-1.99541082110954E-05,1.78775680979015E-05,0.17578125,0,0
-2.27058371820021E-05,1.62001670105383E-05,0.17578125,0,0
-2.62868816207629E-05,1.4724553693668E-05,0.17578125,0,0
-2.63022284343606E-05,1.43959050546982E-05,0.17578125,0,0
-2.74543654086301E-05,1.71215797308832E-05,0.17578125,0,0
-2.75718321063323E-05,1.81852192326915E-05,0.17578125,0,0
-2.9903334507253E-05,2.04963980650064E-05,0.17578125,0,0
-2.88932551484322E-05,1.95152169908397E-05,0.17578125,0,0
-2.81393913610373E-05,1.80087499757065E-05,0.17578125,0,0
-2.49932345468551E-05,1.59247501869686E-05,0.17578125,0,0
-2.36099695030134E-05,1.558934309287E-05,0.17578125,0,0
-2.3437694835593E-05,1.41814580274513E-05,0.17578125,0,0
-2.58371019299375E-05,1.35184600367211E-05,0.17578125,0,0
-2.59214793913998E-05,1.3205545656092E-05,0.17578125,0,0
-2.61305431195069E-05,1.56682708620792E-05,0.17578125,0,0
-2.67552113655256E-05,1.83248012035619E-05,0.17578125,0,0
-2.70469263341511E-05,1.79524558916455E-05,0.17578125,0,0
-2.16364678635728E-05,1.007979062706E-05,0.17578125,0,0
-3.02545940940036E-05,1.18202951853164E-05,0.17578125,0,0
-2.24221566895721E-05,7.15924943506252E-06,0.17578125,0,0
-2.83467161352746E-05,1.06760608105105E-05,0.17578125,0,0
-2.58299023698783E-05,6.50098218102357E-06,0.17578125,0,0
-3.22508421959355E-05,4.31860416938434E-06,0.17578125,0,0
-3.08138369291555E-05,1.00807005765091E-06,0.17578125,0,0
-3.01516993204132E-05,3.76377147404128E-06,0.17578125,0,0
-2.63062811427517E-05,4.11324299420812E-06,0.17578125,0,0
-2.46697254624451E-05,3.64421134690929E-06,0.17578125,0,0
-2.56653238466242E-05,3.64146512765728E-06,0.17578125,0,0
-2.58701511484105E-05,2.09578138310462E-06,0.17578125,0,0
-2.6323776182835E-05,1.20457946195529E-06,0.17578125,0,0
-2.44672864937456E-05,-8.93056935069581E-08,0.17578125,0,0
-2.48524229391478E-05,8.67015501171409E-07,0.17578125,0,0
-2.19734065467492E-05,-2.30845870419216E-07,0.17578125,0,0
-2.08930996450363E-05,-2.0015609152324E-06,0.17578125,0,0
-1.76535049831728E-05,-5.24651113664731E-06,0.17578125,0,0
-1.76909034053097E-05,-4.87620309286285E-06,0.17578125,0,0
-1.62198921316303E-05,-4.16770944866585E-06,0.17578125,0,0
-1.58615912368987E-05,-3.53468021785375E-06,0.17578125,0,0
-1.45688218253781E-05,-3.30597731590387E-06,0.17578125,0,0
-1.62595861183945E-05,-1.41100633754832E-06,0.17578125,0,0
-1.74926171894185E-05,-3.28139367411495E-06,0.17578125,0,0
-1.84892105608014E-05,-7.77499917603564E-06,0.17578125,0,0
-1.82268959179055E-05,-9.24975756788626E-06,0.17578125,0,0
-1.68155293067684E-05,-7.75301032263087E-06,0.17578125,0,0
-1.29694490169641E-05,-5.8096111388295E-06,0.17578125,0,0
-1.97956560441526E-05,-5.86418400416733E-06,0.17578125,0,0
-1.66506579262204E-05,-2.73272178219486E-07,0.17578125,0,0
-1.93253126781201E-05,6.8880365233781E-07,0.17578125,0,0
-1.62519536388572E-05,5.1016590987274E-06,0.17578125,0,0
-1.73696098499931E-05,4.45397381554358E-06,0.17578125,0,0
-1.54145018314011E-05,5.08192169945687E-06,0.17578125,0,0
-1.52239945236943E-05,5.82242546443013E-06,0.17578125,0,0
-1.4291460502136E-05,5.04891067976132E-06,0.17578125,0,0
-1.45895492096315E-05,4.89176954943105E-06,0.17578125,0,0
-1.61458920047153E-05,7.53287440602435E-06,0.17578125,0,0
-1.84553991857683E-05,1.05976714621647E-05,0.17578125,0,0
-2.12372106034309E-05,1.28828760352917E-05,0.17578125,0,0
-2.0729845346068E-05,1.5429488485097E-05,0.17578125,0,0
-2.05010819627205E-05,1.52351040014764E-05,0.17578125,0,0
-1.97977387870196E-05,1.47578948599403E-05,0.17578125,0,0
-2.13555431400891E-05,1.41825175887789E-05,0.17578125,0,0
-2.04946936719352E-05,1.36971739266301E-05,0.17578125,0,0
-1.93241776287323E-05,1.15091288535041E-05,0.17578125,0,0
-1.75796485564206E-05,1.17607232823502E-05,0.17578125,0,0
-1.86841443792218E-05,1.42121762110037E-05,0.17578125,0,0
-2.02613009605557E-05,1.62263240781613E-05,0.17578125,0,0
-2.17042343138019E-05,1.5433919543284E-05,0.17578125,0,0
-2.14798856177367E-05,1.43433990160702E-05,0.17578125,0,0
-2.15684358408907E-05,1.3838270206179E-05,0.17578125,0,0
-2.10426114790607E-05,1.48267745316844E-05,0.17578125,0,0
-1.97145218407968E-05,1.57876893354114E-05,0.17578125,0,0
-1.64742268680129E-05,1.42531553137815E-05,0.17578125,0,0
-2.31500962399878E-05,2.10164034797344E-05,0.17578125,0,0
-1.70886050909758E-05,1.42526814670418E-05,0.17578125,0,0
-2.17074539250461E-05,1.70953608176205E-05,0.17578125,0,0
-1.9102735677734E-05,1.59951796376845E-05,0.17578125,0,0
-2.24313953367528E-05,1.62537580763455E-05,0.17578125,0,0
-2.20091678784229E-05,1.39852245411021E-05,0.17578125,0,0
-2.37755048146937E-05,1.67598518601153E-05,0.17578125,0,0
-2.45316496148007E-05,1.69076447491534E-05,0.17578125,0,0
-2.58925574598834E-05,1.58881321112858E-05,0.17578125,0,0
-2.62022640526993E-05,1.50565092553734E-05,0.17578125,0,0
-2.48757733061211E-05,1.45303165481891E-05,0.17578125,0,0
-2.45199389610207E-05,1.59969677042682E-05,0.17578125,0,0
-2.25077110371785E-05,1.59267419803655E-05,0.17578125,0,0
-2.18937821045984E-05,1.32493287310353E-05,0.17578125,0,0
-1.91054768947652E-05,6.3839829635981E-06,0.17578125,0,0
-1.81676459760638E-05,4.80523067381E-06,0.17578125,0,0
-1.61507068696665E-05,7.03785599398543E-06,0.17578125,0,0
-1.63442600751296E-05,1.01977711892687E-05,0.17578125,0,0
-1.60440831677988E-05,1.00792467492283E-05,0.17578125,0,0
-1.85259905265411E-05,1.1474981874926E-05,0.17578125,0,0
-2.0439281797735E-05,1.24064499686938E-05,0.17578125,0,0
-2.18697168747894E-05,1.36434118758189E-05,0.17578125,0,0
-2.18066761590308E-05,1.34073006847757E-05,0.17578125,0,0
-2.31759004236665E-05,1.22282453958178E-05,0.17578125,0,0
-2.54259830398951E-05,1.00004253908992E-05,0.17578125,0,0
-2.67427712969948E-05,8.01236819825135E-06,0.17578125,0,0
-2.08299679798074E-05,6.6943675847142E-06,0.17578125,0,0
-2.93461689579999E-05,1.02470730780624E-05,0.17578125,0,0
-2.19289941014722E-05,9.28256122278981E-06,0.17578125,0,0
-2.78998086287174E-05,1.20407048598281E-05,0.17578125,0,0
-2.54753795161378E-05,1.12465277197771E-05,0.17578125,0,0
-3.05175744870212E-05,1.08499780253624E-05,0.17578125,0,0
-2.88077553705079E-05,9.00955910765333E-06,0.17578125,0,0
-3.06736073980574E-05,9.42820952332113E-06,0.17578125,0,0
-3.2578747777734E-05,9.64602349995403E-06,0.17578125,0,0
-3.51805683749262E-05,1.1080445801781E-05,0.17578125,0,0
-3.55761803803034E-05,1.1633366739261E-05,0.17578125,0,0
-3.21998486469965E-05,8.92272055352805E-06,0.17578125,0,0
-3.00269275612663E-05,8.90373303263914E-06,0.17578125,0,0
-2.78375027846778E-05,1.32267705339473E-05,0.17578125,0,0
-2.87268740066793E-05,1.88447756954702E-05,0.17578125,0,0
-2.71325443463866E-05,2.05293181352317E-05,0.17578125,0,0
-2.75760885415366E-05,2.0865571059403E-05,0.17578125,0,0
-2.60901942965575E-05,2.07622833841015E-05,0.17578125,0,0
-2.77259077847702E-05,1.9497088942444E-05,0.17578125,0,0
-2.74863759841537E-05,1.59402788995067E-05,0.17578125,0,0
-2.67800514848204E-05,1.46622796819429E-05,0.17578125,0,0
-2.31972462643171E-05,1.4285068573372E-05,0.17578125,0,0
-2.1652587747667E-05,1.41820464705233E-05,0.17578125,0,0
-2.13615803659195E-05,1.50055584526854E-05,0.17578125,0,0
-2.14420324482489E-05,1.6969688658719E-05,0.17578125,0,0
-2.03051222342765E-05,1.71255287568783E-05,0.17578125,0,0
-1.99688674911158E-05,1.51659432958695E-05,0.17578125,0,0
-1.54051303979941E-05,1.15672819447354E-05,0.17578125,0,0
-2.07951852644328E-05,1.82960084202932E-05,0.17578125,0,0
-1.57912199938437E-05,1.58345756062772E-05,0.17578125,0,0
-2.22935468627838E-05,1.86523302545538E-05,0.17578125,0,0
-2.05763517442392E-05,1.50487858263659E-05,0.17578125,0,0
-2.3677386707277E-05,1.2576248991536E-05,0.17578125,0,0
-2.41425914282445E-05,1.02362373581855E-05,0.17578125,0,0
-2.79915857390733E-05,1.16416058517643E-05,0.17578125,0,0
-2.91415271931328E-05,9.45619285630528E-06,0.17578125,0,0
-2.85481837636326E-05,7.78831417846959E-06,0.17578125,0,0
-2.71579938271316E-05,7.99555618868908E-06,0.17578125,0,0
-2.58728323387913E-05,8.50096057547489E-06,0.17578125,0,0
-2.6717449145508E-05,9.62305421126075E-06,0.17578125,0,0
-2.6380710551166E-05,1.08309486677172E-05,0.17578125,0,0
-2.8085574740544E-05,1.17922709250706E-05,0.17578125,0,0
-2.83291974483291E-05,9.68780113907997E-06,0.17578125,0,0
-2.97728911391459E-05,9.74539398157503E-06,0.17578125,0,0
-2.88920291495742E-05,1.04567297967151E-05,0.17578125,0,0
-3.0395563953789E-05,1.27806388263707E-05,0.17578125,0,0
-3.10641662508715E-05,1.33709027068107E-05,0.17578125,0,0
-3.23935601045378E-05,1.24686403069063E-05,0.17578125,0,0
-3.24508255289402E-05,8.27008170745103E-06,0.17578125,0,0
-3.34134201693814E-05,4.76634886581451E-06,0.17578125,0,0
-3.35499717039056E-05,4.65722268927493E-06,0.17578125,0,0
-3.31522205669899E-05,6.90884280629689E-06,0.17578125,0,0
-3.08624621538911E-05,6.28975158178946E-06,0.17578125,0,0
-2.84785528492648E-05,4.48301534561324E-06,0.17578125,0,0
-2.30024688789854E-05,2.07647326533333E-06,0.17578125,0,0
-3.32358431478497E-05,3.6587887279893E-06,0.17578125,0,0
-2.46716899710009E-05,3.51512744600768E-06,0.17578125,0,0
-2.8541018764372E-05,6.48532886771136E-06,0.17578125,0,0
-2.24193317990284E-05,8.99249062058516E-06,0.17578125,0,0
-2.47566222242313E-05,7.59109616410569E-06,0.17578125,0,0
-2.21345617319457E-05,6.63972150505288E-06,0.17578125,0,0
-2.31007361435331E-05,5.8927948884957E-06,0.17578125,0,0
-2.15185682463925E-05,3.50666823578649E-06,0.17578125,0,0
-2.09544705285225E-05,4.23112987846253E-06,0.17578125,0,0
-2.09933696169173E-05,7.13740791979944E-06,0.17578125,0,0
-2.04691386898048E-05,7.36444872018183E-06,0.17578125,0,0
-2.17526994674699E-05,6.87193050907808E-06,0.17578125,0,0
-2.0869776562904E-05,8.40045231598197E-06,0.17578125,0,0
-2.17390188481659E-05,1.02543053799309E-05,0.17578125,0,0
-1.93039941223105E-05,1.05740664366749E-05,0.17578125,0,0
-1.96870150830364E-05,1.07415198726812E-05,0.17578125,0,0
-1.80043734872015E-05,1.0497022230993E-05,0.17578125,0,0
-1.78471455001272E-05,9.22837898542639E-06,0.17578125,0,0
-1.60339823196409E-05,9.5897339633666E-06,0.17578125,0,0
-1.76656158146216E-05,1.25554761325475E-05,0.17578125,0,0
-1.86568904609885E-05,1.366580818285E-05,0.17578125,0,0
-1.98984234884847E-05,1.27531266116421E-05,0.17578125,0,0
-1.96781911654398E-05,1.34344882098958E-05,0.17578125,0,0
-2.16016578633571E-05,1.45666444950621E-05,0.17578125,0,0
-2.41528596234275E-05,1.49204443005146E-05,0.17578125,0,0
-2.5630741220084E-05,1.65858509717509E-05,0.17578125,0,0
-2.08471719815861E-05,1.41168011396076E-05,0.17578125,0,0
-3.03809792967513E-05,1.92481384146959E-05,0.17578125,0,0
-2.39789496845333E-05,1.44664199979161E-05,0.17578125,0,0
-2.76498922175961E-05,2.10260786843719E-05,0.17578125,0,0
-2.20968740904937E-05,1.84246200660709E-05,0.17578125,0,0
-2.65172348008491E-05,1.76565572473919E-05,0.17578125,0,0
-2.54550759564154E-05,1.47204546010471E-05,0.17578125,0,0
-2.61523618974024E-05,1.56915430125082E-05,0.17578125,0,0
-2.49696622631745E-05,1.33512758111465E-05,0.52734375,0,0
-2.51166784437373E-05,1.31164779304527E-05,0.52734375,0,0
-2.60458054981427E-05,1.55310317495605E-05,0.52734375,0,0
-2.67750274360878E-05,1.45054282256751E-05,0.52734375,0,0
-2.97635142487707E-05,1.2680136023846E-05,0.52734375,0,0
-3.02080861729337E-05,1.16542187242885E-05,0.52734375,0,0
-3.2018571801018E-05,1.24695188787882E-05,0.52734375,0,0
-3.12196352751926E-05,8.93511878530262E-06,0.52734375,0,0
-3.13167911372148E-05,7.65344066167017E-06,0.52734375,0,0
-2.87692346319091E-05,9.26134998735506E-06,0.52734375,0,0
-2.91787146124989E-05,1.50468767969869E-05,0.52734375,0,0
-2.79318282991881E-05,1.79090002347948E-05,0.52734375,0,0
-2.85731384792598E-05,1.87117075256538E-05,0.52734375,0,0
-2.87014263449237E-05,1.51434760482516E-05,0.52734375,0,0
-2.94457258860348E-05,8.78593891684432E-06,0.52734375,0,0
-2.89905674435431E-05,1.60664399118104E-06,0.52734375,0,0
-3.00097926810849E-05,-2.69428232968494E-06,0.52734375,0,0
-3.00739084195811E-05,-3.53512348283402E-07,0.52734375,0,0
-2.9381215426838E-05,8.29137570690364E-06,0.52734375,0,0
-2.24628165597096E-05,1.18610669233021E-05,0.52734375,0,0
-3.12755037157331E-05,1.77388974407222E-05,0.52734375,0,0
-2.27443633775692E-05,1.08954673123662E-05,0.52734375,0,0
-2.69035135715967E-05,9.79060496320017E-06,0.52734375,0,0
-2.04273019335233E-05,7.96372478362173E-06,0.52734375,0,0
-2.33551527344389E-05,9.40997779252939E-06,0.52734375,0,0
-2.05418891709996E-05,8.27513213152997E-06,0.52734375,0,0
-2.08117544389097E-05,9.6253870651708E-06,0.52734375,0,0
-1.93578343896661E-05,8.29873351904098E-06,0.52734375,0,0
-2.12714494409738E-05,6.71369207339012E-06,0.52734375,0,0
-2.4207069145632E-05,6.00075873080641E-06,0.52734375,0,0
-2.40182798734168E-05,4.91831815452315E-06,0.52734375,0,0
-2.30638579523657E-05,5.93205186305568E-06,0.52734375,0,0
-1.9679206161527E-05,7.03520117895096E-06,0.52734375,0,0
-2.02133633138146E-05,7.24171331967227E-06,0.52734375,0,0
-1.9975710529252E-05,4.95623226015596E-06,0.52734375,0,0
-2.22271573875332E-05,5.12247925144038E-06,0.52734375,0,0
-2.04447533178609E-05,5.09560959471855E-06,0.52734375,0,0
-2.05539872695226E-05,4.78126048619743E-06,0.52734375,0,0
-1.91940016520675E-05,3.64736297342461E-06,0.52734375,0,0
-1.98038960661506E-05,6.72062196827028E-06,0.52734375,0,0
-1.81802097358741E-05,9.62804733717348E-06,0.52734375,0,0
-1.75942550413311E-05,9.08120455278549E-06,0.52734375,0,0
-1.71259089256637E-05,6.98860003467416E-06,0.52734375,0,0
-1.78535738086794E-05,6.70543067826657E-06,0.52734375,0,0
-1.75902150658658E-05,7.57308407628443E-06,0.52734375,0,0
-1.700643406366E-05,8.5627298176405E-06,0.52734375,0,0
-1.43344132084167E-05,5.86580472372589E-06,0.52734375,0,0
-2.06733220693422E-05,8.31156194180949E-06,0.52734375,0,0
-1.62260512297507E-05,6.34975549473893E-06,0.52734375,0,0
-2.06033091671998E-05,8.49557272886159E-06,0.52734375,0,0
-1.84784803423099E-05,8.34817456052406E-06,0.52734375,0,0
-1.99589649128029E-05,9.33481442189077E-06,0.52734375,0,0
-1.92728275578702E-05,1.04331911643385E-05,0.52734375,0,0
-2.27341552090365E-05,1.42477410918218E-05,0.52734375,0,0
-2.48502219619695E-05,1.55464258568827E-05,0.52734375,0,0
-2.59866992564639E-05,1.58475959324278E-05,0.52734375,0,0
-2.612568459881E-05,1.59408245963277E-05,0.52734375,0,0
-2.46401614276692E-05,1.52495013026055E-05,0.52734375,0,0
-2.54380320257042E-05,1.49247198351077E-05,0.52734375,0,0
-2.64237951341784E-05,1.38089471874991E-05,0.52734375,0,0
-2.81609591183951E-05,1.32099512484274E-05,0.52734375,0,0
-2.71536628133617E-05,1.31101678562118E-05,0.52734375,0,0
-2.705510269152E-05,1.39550274980138E-05,0.52734375,0,0
-2.49628847086569E-05,1.29762784126797E-05,0.52734375,0,0
-2.51426918111974E-05,1.13538753794273E-05,0.52734375,0,0
-2.67448285740102E-05,9.37769527808996E-06,0.52734375,0,0
-2.93314187729266E-05,1.04712889879011E-05,0.52734375,0,0
-2.83007648249622E-05,1.15433667815523E-05,0.52734375,0,0
-2.74448739219224E-05,1.01548403108609E-05,0.52734375,0,0
-2.69727079285076E-05,7.99009831098374E-06,0.52734375,0,0
-2.70723667199491E-05,7.06563378116698E-06,0.52734375,0,0
-2.73419027507771E-05,7.80428763391683E-06,0.52734375,0,0
-2.7641557608149E-05,9.88226838671835E-06,0.52734375,0,0
-2.21764839807292E-05,8.98132111615269E-06,0.52734375,0,0
-3.09010756609496E-05,1.33022122099646E-05,0.52734375,0,0
-2.24383202294121E-05,1.06203779068892E-05,0.52734375,0,0
-2.72747329290723E-05,1.37583183459355E-05,0.52734375,0,0
-2.04113312065601E-05,1.07374098661239E-05,0.52734375,0,0
-2.11905917240074E-05,7.18490173312603E-06,0.52734375,0,0
-1.81475024874089E-05,5.83397422815324E-06,0.52734375,0,0
-1.94050335267093E-05,1.01707255453221E-05,0.52734375,0,0
-1.80761780939065E-05,1.16693026939174E-05,0.52734375,0,0
-1.83645515789976E-05,1.1885260391864E-05,0.52734375,0,0
-1.88971407624194E-05,1.20241056720261E-05,0.52734375,0,0
-1.77270430867793E-05,1.10262772068381E-05,0.52734375,0,0
-1.82880885404302E-05,1.12719035314512E-05,0.52734375,0,0
-1.73774824361317E-05,1.27683333630557E-05,0.52734375,0,0
-1.84466989594512E-05,1.4370925782714E-05,0.52734375,0,0
-1.67642683663871E-05,1.36326489155181E-05,0.52734375,0,0
-1.70220664585941E-05,1.46757301990874E-05,0.52734375,0,0
-1.47706596180797E-05,1.54455938172759E-05,0.52734375,0,0
-1.63771419465775E-05,1.61640327860368E-05,0.52734375,0,0
-1.74396500369767E-05,1.59556875587441E-05,0.52734375,0,0
-1.95132724911673E-05,1.69117374753114E-05,0.52734375,0,0
-1.86530705832411E-05,1.64350640261546E-05,0.52734375,0,0
-2.04475909413304E-05,1.45825260915444E-05,0.52734375,0,0
-2.2850937966723E-05,1.2079960470146E-05,0.52734375,0,0
-2.49622189585352E-05,1.05224289654871E-05,0.52734375,0,0
-2.59213411482051E-05,8.17132695374312E-06,0.52734375,0,0
-2.67922478087712E-05,7.93999060988426E-06,0.52734375,0,0
-2.20684887608513E-05,9.94971105683362E-06,0.52734375,0,0
-3.19940845656674E-05,1.84543605428189E-05,0.52734375,0,0
-2.37214771914296E-05,1.82165840669768E-05,0.52734375,0,0
-2.69573793048039E-05,1.95445718418341E-05,0.52734375,0,0
-2.06495351449121E-05,1.61561893037288E-05,0.52734375,0,0
-2.24046161747538E-05,1.36637372634141E-05,0.52734375,0,0
-1.94130861927988E-05,1.24942089314573E-05,0.52734375,0,0
-2.06044987862697E-05,1.38887535285903E-05,0.52734375,0,0
-2.02931823878316E-05,1.06262841654825E-05,0.52734375,0,0
-2.00964568648487E-05,6.89645275997464E-06,0.52734375,0,0
-1.95521733985515E-05,5.65821119380416E-06,0.52734375,0,0
-1.81161449290812E-05,5.18573096996988E-06,0.52734375,0,0
-1.95862721739104E-05,7.03159321346902E-06,0.52734375,0,0
-1.97375393327093E-05,8.96327674126951E-06,0.52734375,0,0
-2.25398143811617E-05,1.06903480627807E-05,0.52734375,0,0
-2.34743401961168E-05,1.22268347695353E-05,0.52734375,0,0
-2.5826475393842E-05,1.62538981385296E-05,0.52734375,0,0
-2.52481640927726E-05,1.81012037501205E-05,0.52734375,0,0
-2.68578096438432E-05,1.79478611244122E-05,0.52734375,0,0
-2.61775585386204E-05,1.67168418556685E-05,0.52734375,0,0
-2.66267088591121E-05,1.60759245773079E-05,0.52734375,0,0
-2.64310474449303E-05,1.53314467752352E-05,0.52734375,0,0
-2.8144082534709E-05,1.5034781426948E-05,0.52734375,0,0
-2.88747251033783E-05,1.51529757204116E-05,0.52734375,0,0
-2.94887522613863E-05,1.60919662448578E-05,0.52734375,0,0
-2.97337519441498E-05,1.67282942129532E-05,0.52734375,0,0
-3.11326002702117E-05,1.63658878591377E-05,0.52734375,0,0
-2.73668556474149E-05,1.04787377495086E-05,0.52734375,0,0
-3.88932239729911E-05,1.41191658258322E-05,0.52734375,0,0
-2.86380145553267E-05,9.69534994510468E-06,0.52734375,0,0
-3.53848736267537E-05,1.29803265735973E-05,0.52734375,0,0
-3.04053028230555E-05,1.12902107503032E-05,0.52734375,0,0
-3.47762870660517E-05,1.11126200863509E-05,0.52734375,0,0
-3.30575931002386E-05,9.55135055846768E-06,0.52734375,0,0
-3.57228200300597E-05,1.3395555470197E-05,0.52734375,0,0
-3.60133017238695E-05,1.48740673466818E-05,0.52734375,0,0
-3.65903033525683E-05,1.52405564222136E-05,0.52734375,0,0
-3.70051166100893E-05,1.3600401871372E-05,0.52734375,0,0
-3.56786404154263E-05,9.18800287763588E-06,0.52734375,0,0
-3.61381717084441E-05,7.31333602743689E-06,0.52734375,0,0
-3.47724489984103E-05,7.03830482962076E-06,0.52734375,0,0
-3.69289664376993E-05,7.89058958616806E-06,0.52734375,0,0
-3.63612998626195E-05,7.03018531567068E-06,0.52734375,0,0
-3.78521581296809E-05,6.73035265208455E-06,0.52734375,0,0
-3.53715040546376E-05,4.65964785689721E-06,0.52734375,0,0
-3.46670240105595E-05,5.54654525330989E-06,0.52734375,0,0
-3.16408113576472E-05,7.48765842217836E-06,0.52734375,0,0
-3.15696161123924E-05,9.69400207395665E-06,0.52734375,0,0
-3.08742601191625E-05,8.98485450306907E-06,0.52734375,0,0
-3.17537051159889E-05,8.34154980111634E-06,0.52734375,0,0
-3.10057985188905E-05,9.90614262263989E-06,0.52734375,0,0
-3.14641220029444E-05,1.26377499327646E-05,0.52734375,0,0
-2.93321336357621E-05,1.14626445792965E-05,0.52734375,0,0
-2.42829828493996E-05,8.66782374941977E-06,0.52734375,0,0
-1.7323362044408E-05,6.6832103584602E-06,0.52734375,0,0
-2.44126731558936E-05,1.02593194242218E-05,0.52734375,0,0
-1.95838165382156E-05,9.39619076234521E-06,0.52734375,0,0
-2.57377378147794E-05,1.30929010992986E-05,0.52734375,0,0
-2.26812153414357E-05,1.0711514732975E-05,0.52734375,0,0
-2.2856396753923E-05,6.19684806224541E-06,0.52734375,0,0
-1.77677811734611E-05,2.46898412115115E-06,0.52734375,0,0
-1.77897982212016E-05,2.0330696770543E-06,0.52734375,0,0
-1.81157301994972E-05,9.07820492557221E-07,0.52734375,0,0
-1.92510378838051E-05,2.46949321081047E-06,0.52734375,0,0
-1.9485405573505E-05,6.82793461237452E-06,0.52734375,0,0
-1.87290170288179E-05,8.4658231571666E-06,0.52734375,0,0
-2.00617305381456E-05,6.98104713592329E-06,0.52734375,0,0
-2.0505731299636E-05,5.34601122126332E-06,0.52734375,0,0
-2.24652649194468E-05,6.60385830997257E-06,0.52734375,0,0
-2.19189169001766E-05,7.15122678229818E-06,0.52734375,0,0
-2.20476049435092E-05,7.77530021878192E-06,0.52734375,0,0
-1.93660926015582E-05,9.29586985876085E-06,0.52734375,0,0
-1.97013941942714E-05,1.16275004984345E-05,0.52734375,0,0
-1.98601464944659E-05,9.30411351873772E-06,0.52734375,0,0
-2.22504222620046E-05,4.87976103613619E-06,0.52734375,0,0
-2.36894866247894E-05,3.99010423279833E-06,0.52734375,0,0
-2.57245865213918E-05,6.50014908387675E-06,0.52734375,0,0
-2.55021295743063E-05,7.262837698363E-06,0.52734375,0,0
-2.44491802732227E-05,7.2170550993178E-06,0.52734375,0,0
-2.37396816373803E-05,7.7338891060208E-06,0.52734375,0,0
-2.47633433900774E-05,8.29586497275159E-06,0.52734375,0,0
-2.0691148165497E-05,9.12668383534765E-06,0.52734375,0,0
-2.92860240733717E-05,1.50628466144553E-05,0.52734375,0,0
-2.15916388697224E-05,1.24376720123109E-05,0.52734375,0,0
-2.66931965597905E-05,1.39334933919599E-05,0.52734375,0,0
-2.37640724662924E-05,1.27673602037248E-05,0.52734375,0,0
-2.79701453109737E-05,9.36744709179038E-06,0.52734375,0,0
-2.55723116424633E-05,2.82477708424267E-06,0.52734375,0,0
-2.5507735699648E-05,1.72103523254918E-06,0.52734375,0,0
-2.3117674572859E-05,1.26978159187274E-06,0.52734375,0,0
-2.13006733247312E-05,1.66742654528207E-06,0.52734375,0,0
-1.94557123904815E-05,4.22886569140246E-06,0.52734375,0,0
-1.76681369339349E-05,9.17771103559062E-06,0.52734375,0,0
-1.78124992089579E-05,1.66491936397506E-05,0.52734375,0,0
-1.48996314237593E-05,2.06930671993177E-05,0.52734375,0,0
-1.32828599817003E-05,1.93792166101048E-05,0.52734375,0,0
-1.07567029772326E-05,1.4529889995174E-05,0.52734375,0,0
-1.21673383546295E-05,1.25889464470674E-05,0.52734375,0,0
-1.17022736958461E-05,1.1744914445444E-05,0.52734375,0,0
-1.33164667204255E-05,1.2074242476956E-05,0.52734375,0,0
-1.31595379571081E-05,1.16172632260714E-05,0.52734375,0,0
-1.42233120641322E-05,1.11375666165259E-05,0.52734375,0,0
-1.37195174829685E-05,9.9250237326487E-06,0.52734375,0,0
-1.42965327540878E-05,1.00286260931171E-05,0.52734375,0,0
-1.4264593119151E-05,9.80371078185271E-06,0.52734375,0,0
-1.53141063492512E-05,8.66211757966084E-06,0.52734375,0,0
-1.49952293213573E-05,6.82010613672901E-06,0.52734375,0,0
-1.5142889424169E-05,4.97618839290226E-06,0.52734375,0,0
-1.40594465847244E-05,3.14067392537254E-06,0.52734375,0,0
-2.18676759686787E-05,5.75824151383131E-06,0.52734375,0,0
-1.85972367034992E-05,8.09099492471432E-06,0.52734375,0,0
-2.11462211154867E-05,1.18089310490177E-05,0.52734375,0,0
-1.98379348148592E-05,1.19643473226461E-05,0.52734375,0,0
-2.42385103774723E-05,9.73806436377345E-06,0.52734375,0,0
-2.35097995755496E-05,6.71416046316153E-06,0.52734375,0,0
-2.37588628806407E-05,7.75351600168506E-06,0.52734375,0,0
-2.28431563300546E-05,9.17420493351528E-06,0.52734375,0,0
-2.29608158406336E-05,1.26910808830871E-05,0.52734375,0,0
-2.34302206081338E-05,1.71864357980667E-05,0.52734375,0,0
-2.3636201149202E-05,1.73521184478886E-05,0.52734375,0,0
-2.50688644882757E-05,1.59833507495932E-05,0.52734375,0,0
-2.49273016379448E-05,1.71702904481208E-05,0.52734375,0,0
-2.55240029218839E-05,1.82665226020617E-05,0.52734375,0,0
-2.40051558648702E-05,1.65253331942949E-05,0.52734375,0,0
-2.52168028964661E-05,1.58410275616916E-05,0.52734375,0,0
-2.58355594269233E-05,1.73459593497682E-05,0.52734375,0,0
-2.68489093286917E-05,2.03416548174573E-05,0.52734375,0,0
-2.61674977082293E-05,2.15697364183143E-05,0.52734375,0,0
-2.72756678896258E-05,1.92025618162006E-05,0.52734375,0,0
-2.71783228527056E-05,1.46576694532996E-05,0.52734375,0,0
-2.54616934398655E-05,1.39690055220854E-05,0.52734375,0,0
-2.20285728573799E-05,1.63921067724004E-05,0.52734375,0,0
-2.06260137929348E-05,1.73187818290899E-05,0.52734375,0,0
-2.05716860364191E-05,1.60010240506381E-05,0.52734375,0,0
-2.09701938729268E-05,1.54435892909532E-05,0.52734375,0,0
-1.79653743543895E-05,1.29184600154986E-05,0.52734375,0,0
-2.67340074060485E-05,1.91880371858133E-05,0.52734375,0,0
-2.16858752537519E-05,1.48892349898233E-05,0.52734375,0,0
-2.53704856731929E-05,1.73680327861803E-05,0.52734375,0,0
-2.04177013074514E-05,1.26925406220835E-05,0.52734375,0,0
-2.32555557886371E-05,1.14274926090729E-05,0.52734375,0,0
-2.41157704294892E-05,1.12514026113786E-05,0.52734375,0,0
-2.68016538029769E-05,1.39921021400369E-05,0.52734375,0,0
-2.49300755967852E-05,1.20499216791359E-05,0.52734375,0,0
-2.33635855693137E-05,1.08456561065395E-05,0.52734375,0,0
-2.29049946938176E-05,9.75360580923734E-06,0.52734375,0,0
-2.27827458729735E-05,6.76468607707648E-06,0.52734375,0,0
-2.39481669268571E-05,6.23458072368521E-06,0.52734375,0,0
-2.38103475567186E-05,6.98896928952308E-06,1.40625,0,0
-2.59034441114636E-05,7.49852370063309E-06,1.40625,0,0
-2.54100887104869E-05,4.71119756184635E-06,1.40625,0,0
-2.48322285187896E-05,2.59519856626866E-06,1.40625,0,0
-2.15601157833589E-05,-2.65976211721863E-07,1.40625,0,0
-2.11557344300672E-05,1.25603961009801E-07,1.40625,0,0
-2.07160646823468E-05,1.34965989673219E-06,1.40625,0,0
-2.26810734602623E-05,4.8099259402079E-06,1.40625,0,0
-2.34101589740021E-05,6.03260878051515E-06,1.40625,0,0
-2.51042147283442E-05,4.66729261461296E-06,1.40625,0,0
-2.57945630437462E-05,1.23157008147246E-06,1.40625,0,0
-2.69351930910489E-05,1.60840343710333E-07,1.40625,0,0
-2.64766404143302E-05,3.96751005382612E-07,1.40625,0,0
-2.57697738561546E-05,1.01110106243141E-06,1.40625,0,0
-2.09631070902105E-05,1.25046233279136E-06,1.40625,0,0
-3.01994477922563E-05,-1.26206160189213E-07,1.40625,0,0
-2.30293098866241E-05,-3.46835622622166E-06,1.40625,0,0
-2.82258715742501E-05,-3.557700665624E-06,1.40625,0,0
-2.30451496463502E-05,-2.57078954746248E-06,1.40625,0,0
-2.43195918301353E-05,-2.0814318304474E-06,1.40625,0,0
-2.17109700315632E-05,1.47451453358372E-06,1.40625,0,0
-2.36677260545548E-05,6.59144234305131E-06,1.40625,0,0
-2.48156939051114E-05,6.66407004246139E-06,1.40625,0,0
-2.69342908723047E-05,4.09411222790368E-06,1.40625,0,0
-2.83957579085836E-05,1.66607753726566E-06,1.40625,0,0
-2.71693734248402E-05,2.37837002714514E-06,1.40625,0,0
-2.68397343461402E-05,5.82503344048746E-06,1.40625,0,0
-2.56420698860893E-05,8.40804386825766E-06,1.40625,0,0
-2.64988830167567E-05,8.14763097878313E-06,1.40625,0,0
-2.43994672928238E-05,4.95291942570475E-06,1.40625,0,0
-2.4443443180644E-05,1.75689388015599E-06,1.40625,0,0
-2.33641912927851E-05,5.7995762858809E-08,1.40625,0,0
-2.62481462414144E-05,-1.78021011265628E-07,1.40625,0,0
-2.82259406958474E-05,8.55722646520007E-07,1.40625,0,0
-3.02869302686304E-05,5.35119124833727E-06,1.40625,0,0
-2.9306733267731E-05,1.0109954928339E-05,1.40625,0,0
-2.86014765151776E-05,1.2416327081155E-05,1.40625,0,0
-2.60500382864848E-05,1.20186696221936E-05,1.40625,0,0
-2.43115900957491E-05,1.16636601887876E-05,1.40625,0,0
-2.39161890931427E-05,1.3127955753589E-05,1.40625,0,0
-2.37326203205157E-05,1.42589469760424E-05,1.40625,0,0
-1.81178329512477E-05,9.09080790734151E-06,1.40625,0,0
-2.4675526219653E-05,1.24740190585726E-05,1.40625,0,0
-1.75924469658639E-05,1.060014074028E-05,1.40625,0,0
-2.39124565268867E-05,1.61884072440444E-05,1.40625,0,0
-2.24636678467505E-05,1.53393830260029E-05,1.40625,0,0
-2.61238474195125E-05,1.7868875147542E-05,1.40625,0,0
-2.41435191128403E-05,2.04059761017561E-05,1.40625,0,0
-2.4830034817569E-05,2.389387373114E-05,1.40625,0,0
-2.4594679416623E-05,2.18995646719122E-05,1.40625,0,0
-2.55134091275977E-05,1.95946504391031E-05,1.40625,0,0
-2.59175740211504E-05,1.90366408787668E-05,1.40625,0,0
-2.41606758208945E-05,1.78415048139868E-05,1.40625,0,0
-2.37896347243804E-05,1.76187677425332E-05,1.40625,0,0
-2.25196454266552E-05,1.58956499944907E-05,1.40625,0,0
-2.40188601310365E-05,1.29288837342756E-05,1.40625,0,0
-2.39297860389343E-05,8.66946629685117E-06,1.40625,0,0
-2.46666004386498E-05,7.74552972870879E-06,1.40625,0,0
-2.25768344535027E-05,7.11202756065177E-06,1.40625,0,0
-2.30218920478364E-05,7.24773099136655E-06,1.40625,0,0
-2.2855982024339E-05,6.65304924041266E-06,1.40625,0,0
-2.409503031231E-05,8.22039328340907E-06,1.40625,0,0
-2.314816811122E-05,1.08881131382077E-05,1.40625,0,0
-2.29686702368781E-05,1.43442821354256E-05,1.40625,0,0
-2.19296525756363E-05,1.66262616403401E-05,1.40625,0,0
-2.11730548471678E-05,1.82412495632889E-05,1.40625,0,0
-2.079867044813E-05,1.85236985998927E-05,1.40625,0,0
-2.00460508494871E-05,1.66154986800393E-05,1.40625,0,0
-1.66241479746532E-05,1.11597155409981E-05,1.40625,0,0
-2.49091299338033E-05,1.75848108483478E-05,1.40625,0,0
-2.10562011488946E-05,1.60847375809681E-05,1.40625,0,0
-2.60638244071743E-05,2.02473729586927E-05,1.40625,0,0
-2.22886192204896E-05,1.82292678800877E-05,1.40625,0,0
-2.35161733144196E-05,1.66333720699186E-05,1.40625,0,0
-2.23343959078193E-05,1.32255872813403E-05,1.40625,0,0
-2.47665302595124E-05,1.54260578710819E-05,1.40625,0,0
-2.56077692029066E-05,1.6158457583515E-05,1.40625,0,0
-2.58729069173569E-05,1.83415013452759E-05,1.40625,0,0
