biceps_emg, triceps_emg, subject_position, position_estimate, brace_position
3.3181083836098E-06,-1.89877537195571E-05,-0.52734375,0,0
4.42297277913895E-06,-1.98614707187517E-05,-0.52734375,0,0
4.00095586883253E-06,-1.72782092704438E-05,-0.52734375,0,0
3.77930564354756E-06,-1.73057323991088E-05,-0.52734375,0,0
4.23092933488078E-06,-1.83753418241395E-05,-0.52734375,0,0
5.2393493206182E-06,-1.94226122403052E-05,-0.52734375,0,0
5.47902527614497E-06,-1.5852298020036E-05,-0.52734375,0,0
5.49787637282861E-06,-1.21863386084442E-05,-0.52734375,0,0
6.55711482977495E-06,-9.19191916182172E-06,-0.52734375,0,0
7.27705764802522E-06,-8.94478034751955E-06,-0.52734375,0,0
6.47728484182153E-06,-1.12346515379613E-05,-0.52734375,0,0
5.38311405762215E-06,-1.49545148815378E-05,-0.52734375,0,0
5.87826434639283E-06,-1.82670301001053E-05,-0.52734375,0,0
6.76506260788301E-06,-2.15696036320878E-05,-0.52734375,0,0
4.21235472458648E-06,-1.67352864082204E-05,-0.52734375,0,0
6.53575216347235E-06,-2.23689621634549E-05,-0.52734375,0,0
6.84142196405446E-06,-1.81781069841236E-05,-0.52734375,0,0
8.93216474651126E-06,-2.80422027572058E-05,-0.52734375,0,0
6.65017751089181E-06,-2.81812863249797E-05,-0.52734375,0,0
5.8082518989977E-06,-3.30140937876422E-05,-0.52734375,0,0
4.89365947942133E-06,-3.11933981720358E-05,-0.52734375,0,0
4.53853317594621E-06,-3.07435911963694E-05,-0.52734375,0,0
4.20754668084555E-06,-2.87593011307763E-05,-0.52734375,0,0
5.05626121594105E-06,-2.75394304480869E-05,-0.52734375,0,0
4.96144548378652E-06,-2.61024088104023E-05,-0.52734375,0,0
3.80507435693289E-06,-2.26063566515222E-05,-0.52734375,0,0
3.57735893885547E-06,-1.90987539099297E-05,-0.52734375,0,0
4.2523315642029E-06,-1.49272818816826E-05,-0.52734375,0,0
5.79610014028731E-06,-1.45659987538238E-05,-0.52734375,0,0
6.74436887493357E-06,-1.30483622342581E-05,-0.52734375,0,0
7.1236131589103E-06,-1.52381589941797E-05,-0.52734375,0,0
5.84837289352436E-06,-1.63954773597652E-05,-0.52734375,0,0
4.37999324276461E-06,-1.7663976905169E-05,-0.52734375,0,0
3.30796160596947E-06,-1.58675029524602E-05,-0.52734375,0,0
4.3836016629939E-06,-1.53508390212664E-05,-0.52734375,0,0
5.59777254238725E-06,-1.26061167975422E-05,-0.52734375,0,0
5.88969487580471E-06,-1.02939138741931E-05,-0.52734375,0,0
4.53512620879337E-06,-8.64366575115127E-06,-0.52734375,0,0
4.80126345792087E-06,-8.54473000799771E-06,-0.52734375,0,0
7.24010214980808E-06,-1.0806884347403E-05,-0.52734375,0,0
7.50150320527609E-06,-1.37919460030389E-05,-0.52734375,0,0
3.675922698676E-06,-1.29632671814761E-05,-0.52734375,0,0
4.70035774924327E-06,-2.05898795684334E-05,-0.52734375,0,0
3.72227373190981E-06,-1.63995864568278E-05,-0.52734375,0,0
5.11544430992217E-06,-1.64522571139969E-05,-0.52734375,0,0
3.62574587597919E-06,-1.235989293491E-05,-0.52734375,0,0
3.22110372508178E-06,-1.50897567436914E-05,-0.52734375,0,0
3.5146874779457E-06,-1.78564041561913E-05,-0.52734375,0,0
6.68173333906452E-06,-2.12216345971683E-05,-0.52734375,0,0
6.85659506416414E-06,-2.1303034372977E-05,-0.52734375,0,0
4.92371782456758E-06,-2.08847122848965E-05,-0.52734375,0,0
3.19367609336041E-06,-2.03649851755472E-05,-0.52734375,0,0
1.93576101992221E-06,-1.74477318068966E-05,-0.52734375,0,0
2.67859354607936E-06,-1.43239831231767E-05,-0.52734375,0,0
4.58853082818678E-06,-1.24111675177119E-05,-0.52734375,0,0
5.32688818566385E-06,-1.45143840200035E-05,-0.52734375,0,0
3.45188982464606E-06,-1.57507274707314E-05,-0.52734375,0,0
2.66965594164503E-06,-1.67865782714216E-05,-0.52734375,0,0
2.83681538348901E-06,-1.56330806930782E-05,-0.52734375,0,0
3.20396793540567E-06,-1.54235876834719E-05,-0.52734375,0,0
2.11501969715755E-06,-1.55033594637644E-05,-0.52734375,0,0
2.1112998638273E-06,-1.63833938131575E-05,-0.52734375,0,0
3.90467675970285E-06,-1.47613463923335E-05,-0.52734375,0,0
5.75590001972159E-06,-1.27732437249506E-05,-0.52734375,0,0
4.93188417749479E-06,-1.1961468771915E-05,-0.52734375,0,0
4.36347818322247E-06,-1.45115045597777E-05,-0.52734375,0,0
3.28301734953129E-06,-1.69336071849102E-05,-0.52734375,0,0
8.71012559855444E-07,-1.78383925231174E-05,-0.52734375,0,0
1.10712596779194E-06,-1.53814689838327E-05,-0.52734375,0,0
3.50185314346163E-06,-2.08168239623774E-05,-0.52734375,0,0
4.31514808951761E-06,-1.38736259032157E-05,-0.52734375,0,0
4.56015186500736E-06,-1.8145285139326E-05,-0.52734375,0,0
5.62204331799876E-06,-1.77476977114566E-05,-0.52734375,0,0
4.87627630718634E-06,-2.24801824515453E-05,-0.52734375,0,0
5.2109535317868E-06,-2.07328321266687E-05,-0.52734375,0,0
6.0506904446811E-06,-2.03368927031988E-05,-0.52734375,0,0
5.08614039063104E-06,-1.88372887350852E-05,-0.52734375,0,0
4.89168405692908E-06,-1.80093320523156E-05,-0.52734375,0,0
5.23284188602702E-06,-1.77964247995988E-05,-0.52734375,0,0
4.6133477553667E-06,-1.84777745744213E-05,-0.52734375,0,0
4.10729489885853E-06,-2.1801182811032E-05,-0.52734375,0,0
4.26414544563158E-06,-2.30949899560073E-05,-0.52734375,0,0
4.62825300928671E-06,-2.31186459132005E-05,-0.52734375,0,0
4.71395469503477E-06,-1.87159257620806E-05,-0.52734375,0,0
3.68610653822543E-06,-1.63464537763502E-05,-0.52734375,0,0
2.10630128094635E-06,-1.49428760778392E-05,-0.52734375,0,0
7.00191776559222E-07,-1.69240793184144E-05,-0.52734375,0,0
-4.45111709268531E-07,-1.75192508322652E-05,-0.52734375,0,0
-6.01962199198169E-07,-1.89077745744726E-05,-0.52734375,0,0
7.04241244875448E-07,-1.87675195775228E-05,-0.52734375,0,0
1.27003556826821E-06,-1.90429982467322E-05,-0.52734375,0,0
9.53819153437507E-07,-1.82382282218896E-05,-0.52734375,0,0
1.16139995043341E-06,-1.70782877830788E-05,-0.52734375,0,0
7.96574624928326E-07,-1.60310064529767E-05,-0.52734375,0,0
1.60817853611661E-06,-1.70340863405727E-05,-0.52734375,0,0
2.31011085816135E-06,-1.53946657519555E-05,-0.52734375,0,0
3.03115075439564E-06,-2.35670031543123E-05,-0.52734375,0,0
7.29247858544113E-07,-1.90302835108014E-05,-0.52734375,0,0
-9.95155673422232E-08,-2.103742917825E-05,-0.52734375,0,0
-6.87755914441368E-07,-1.57560607476626E-05,-0.52734375,0,0
8.54612608236494E-07,-1.67582602443872E-05,-0.52734375,0,0
2.15660293179099E-06,-1.59060455189319E-05,-0.52734375,0,0
2.43422095991264E-06,-1.65022665896686E-05,-0.52734375,0,0
1.28214696815121E-06,-1.44610812640167E-05,-0.52734375,0,0
8.61106627780828E-07,-1.29989084598492E-05,-0.52734375,0,0
2.92543609248241E-06,-1.33956309582572E-05,-0.52734375,0,0
4.08315690947347E-06,-1.30058333525085E-05,-0.52734375,0,0
2.69456086243736E-06,-1.26322875075857E-05,-0.52734375,0,0
1.18547222882626E-06,-1.13709957076935E-05,-0.52734375,0,0
2.98170107271289E-06,-1.33333496705745E-05,-0.52734375,0,0
5.45678403796046E-06,-1.49025972859818E-05,-0.52734375,0,0
5.87638533033896E-06,-1.6669082469889E-05,-0.52734375,0,0
4.3902468860324E-06,-1.51553986142972E-05,-0.52734375,0,0
2.56673729381873E-06,-1.54234876390547E-05,-0.52734375,0,0
1.39687222144858E-06,-1.66819463629508E-05,-0.52734375,0,0
1.4108851473793E-06,-2.03448980755638E-05,-0.52734375,0,0
1.23503150462057E-06,-2.43725589825772E-05,-0.52734375,0,0
1.123172410189E-06,-2.75673428404843E-05,-0.52734375,0,0
1.30031958178733E-06,-2.48418327828404E-05,-0.52734375,0,0
1.8385294424661E-06,-1.91098333743867E-05,-0.52734375,0,0
3.05437902170524E-06,-1.37947481562151E-05,-0.52734375,0,0
2.70142322733591E-06,-1.16114633783582E-05,-0.52734375,0,0
8.15580392554693E-07,-1.14659833343467E-05,-0.52734375,0,0
2.61128116108011E-06,-1.79329999809852E-05,-0.52734375,0,0
4.24429617851274E-06,-1.51564554471406E-05,-0.52734375,0,0
4.3997606553603E-06,-1.74695796886226E-05,-0.52734375,0,0
3.37089568347437E-06,-1.54366716742516E-05,-0.52734375,0,0
3.41198256137432E-06,-1.72065156220924E-05,-0.52734375,0,0
4.51150708613568E-06,-1.64506764122052E-05,-0.52734375,0,0
5.42694442628999E-06,-1.54340923472773E-05,-0.52734375,0,0
5.118488388689E-06,-1.37900715344585E-05,-0.52734375,0,0
4.31301168646314E-06,-1.5151525985857E-05,-0.52734375,0,0
4.17639512306778E-06,-1.74918914126465E-05,-0.52734375,0,0
5.5386508392985E-06,-1.78681457327912E-05,-0.52734375,0,0
6.77658954373328E-06,-1.75648510776227E-05,-0.52734375,0,0
5.9816211432917E-06,-1.64524426509161E-05,-0.52734375,0,0
4.04452021030011E-06,-1.67645976034692E-05,-0.52734375,0,0
3.0628978038294E-06,-1.60086747200694E-05,-0.52734375,0,0
2.76269338428392E-06,-1.63793210958829E-05,-0.52734375,0,0
2.26039651352039E-06,-1.57060894707683E-05,-0.52734375,0,0
1.69185932463733E-06,-1.59084993356373E-05,-0.52734375,0,0
1.39101632612437E-06,-1.381579113513E-05,-0.52734375,0,0
1.09590610009036E-06,-1.26284458019654E-05,-0.52734375,0,0
5.17908290476043E-07,-1.2521638382168E-05,-0.52734375,0,0
6.69639803163591E-07,-1.31849119497929E-05,-0.52734375,0,0
1.90585546988586E-06,-1.33568801174988E-05,-0.52734375,0,0
4.45929526904365E-06,-1.4610166545026E-05,-0.52734375,0,0
5.34249784323038E-06,-1.62160522449994E-05,-0.52734375,0,0
2.86471004073974E-06,-1.70604762388393E-05,-0.52734375,0,0
1.22587084661063E-06,-1.49736597450101E-05,-0.52734375,0,0
2.52979361903272E-06,-2.23400438699173E-05,-0.52734375,0,0
2.85336182059837E-06,-1.81301165866898E-05,-0.52734375,0,0
2.62969729192264E-06,-2.14718020288274E-05,-0.52734375,0,0
9.24201117413759E-07,-1.7171219951706E-05,-0.52734375,0,0
6.51534776352491E-07,-1.84986402018694E-05,-0.52734375,0,0
3.05953290080652E-06,-1.79637354449369E-05,-0.52734375,0,0
5.07489085066481E-06,-2.07564989977982E-05,-0.52734375,0,0
3.87462841899833E-06,-2.01521852432052E-05,-0.52734375,0,0
1.48748415540467E-06,-1.76168614416383E-05,-0.52734375,0,0
-1.09012482596427E-07,-1.58802613441367E-05,-0.52734375,0,0
-1.10444386791642E-06,-1.38688574224943E-05,-0.52734375,0,0
-5.82349514388625E-07,-1.42608796522836E-05,-0.52734375,0,0
1.75955142367457E-06,-1.38808627525577E-05,-0.52734375,0,0
3.90564173358143E-06,-1.42004982990329E-05,-0.52734375,0,0
3.96849964090507E-06,-1.31604128910112E-05,-0.52734375,0,0
2.14845886148396E-06,-1.5010185961728E-05,-0.52734375,0,0
-7.81572939700936E-09,-1.49096867971821E-05,-0.52734375,0,0
-3.61911560275985E-07,-1.41778373290435E-05,-0.52734375,0,0
7.860224968681E-07,-1.14495396701386E-05,-0.52734375,0,0
2.12875170291227E-06,-9.9814551504096E-06,-0.52734375,0,0
2.6379614155303E-06,-8.38084088172764E-06,-0.52734375,0,0
1.6574842902628E-06,-1.00105899036862E-05,-0.52734375,0,0
-1.78435243469721E-07,-1.42405633596354E-05,-0.52734375,0,0
-2.51206472512422E-07,-1.92985535250045E-05,-0.52734375,0,0
1.82826784111967E-06,-2.28081207751529E-05,-0.52734375,0,0
3.05835487779405E-06,-2.40113640757045E-05,-0.52734375,0,0
1.62847436513402E-06,-1.91905255633174E-05,-0.52734375,0,0
1.01249941053538E-06,-2.59761764027644E-05,-0.52734375,0,0
-2.7060943352808E-07,-1.533911745355E-05,-0.52734375,0,0
1.37163817726105E-06,-1.65592591656605E-05,-0.52734375,0,0
1.32348282022576E-06,-1.26098766486393E-05,-0.52734375,0,0
1.6176817325686E-06,-1.83762713277247E-05,-0.52734375,0,0
1.01998625723354E-06,-1.9642411643872E-05,-0.52734375,0,0
5.16951615736616E-07,-2.20176789298421E-05,-0.52734375,0,0
6.2789916910333E-07,-2.02125629584771E-05,-0.52734375,0,0
1.38794393933495E-06,-1.98735451704124E-05,-0.52734375,0,0
1.55772318066738E-06,-2.24424165935488E-05,-0.52734375,0,0
5.30055388026085E-07,-2.46128875005525E-05,-0.52734375,0,0
4.4144323396722E-07,-2.77314502454828E-05,-0.52734375,0,0
1.41392865771195E-06,-2.78567931673024E-05,-0.52734375,0,0
2.32848742598435E-06,-2.78419611277059E-05,-0.52734375,0,0
1.89925412996672E-06,-2.46157233050326E-05,-0.52734375,0,0
1.79670632860507E-06,-2.46221643465105E-05,-0.52734375,0,0
2.80108110928268E-06,-2.38505399465794E-05,-0.52734375,0,0
4.87229090140318E-06,-2.43194408540148E-05,-0.52734375,0,0
5.7837069107336E-06,-2.12308368645608E-05,-0.52734375,0,0
4.89730518893339E-06,-1.68716469488572E-05,-0.52734375,0,0
2.86806448457355E-06,-1.00160596048227E-05,-0.52734375,0,0
8.8787379581845E-07,-7.61291857998003E-06,-0.52734375,0,0
6.64854908904999E-08,-9.53225662669865E-06,-0.52734375,0,0
7.47760907415795E-07,-1.29751106214826E-05,-0.52734375,0,0
9.89363229564333E-07,-1.47929495142307E-05,-0.52734375,0,0
1.75667503299337E-06,-1.51640888361726E-05,-0.52734375,0,0
2.58306386058393E-06,-1.15990414997214E-05,-0.52734375,0,0
3.54883263753436E-06,-1.53703131218208E-05,-0.52734375,0,0
1.72229692907422E-06,-1.17947292892495E-05,-0.52734375,0,0
1.77812739821093E-06,-1.76996018126374E-05,-0.52734375,0,0
2.51101027970435E-06,-1.5758758308948E-05,-0.52734375,0,0
5.02867214891012E-06,-1.58636903506704E-05,-0.52734375,0,0
6.28489124210319E-06,-1.3990808838571E-05,-0.52734375,0,0
6.17139266978484E-06,-1.52934189827647E-05,-0.52734375,0,0
4.75006254418986E-06,-1.65020810527494E-05,-0.52734375,0,0
4.16948705606046E-06,-1.67885664268397E-05,-0.52734375,0,0
4.58420390714309E-06,-1.64105458679842E-05,-0.52734375,0,0
3.85639532396453E-06,-1.587756742083E-05,-0.52734375,0,0
1.58974398800638E-06,-1.76262437889818E-05,-0.52734375,0,0
-8.22628578589502E-07,-1.9031138435821E-05,-0.52734375,0,0
-1.90488947282574E-06,-2.04797834157944E-05,-0.52734375,0,0
-2.00534032046562E-06,-1.90721621038392E-05,-0.52734375,0,0
-1.1353666877767E-06,-1.84206292033196E-05,-0.52734375,0,0
-3.93979121326993E-07,-1.79461021616589E-05,-0.52734375,0,0
3.91861021853401E-07,-2.0134442820563E-05,-0.52734375,0,0
1.19563003408985E-06,-2.0193261661916E-05,-0.52734375,0,0
2.84906923297967E-06,-1.84543168870732E-05,-0.52734375,0,0
3.56820851266093E-06,-1.56240457727108E-05,-0.52734375,0,0
2.40472331825003E-06,-1.47083374031354E-05,-0.52734375,0,0
3.97632646809143E-07,-1.48940371218487E-05,-0.52734375,0,0
-1.02759895526106E-06,-1.62131764227524E-05,-0.52734375,0,0
-1.14812314677692E-06,-1.60117888299283E-05,-0.52734375,0,0
8.82686606473726E-07,-1.52689081005519E-05,-0.52734375,0,0
1.77010952029377E-06,-1.1438495675975E-05,-0.52734375,0,0
1.98932661987783E-06,-1.50704790939926E-05,-0.52734375,0,0
1.40749239108118E-06,-1.04186901808134E-05,-0.52734375,0,0
2.28532121582248E-06,-1.5639308912796E-05,-0.52734375,0,0
1.91046069630829E-06,-1.54403041960904E-05,-0.52734375,0,0
2.35553716265713E-06,-1.73900534718996E-05,-0.52734375,0,0
3.34136871060764E-06,-1.50696687342133E-05,-0.52734375,0,0
5.2238578973629E-06,-1.50903333633323E-05,-0.52734375,0,0
5.6703124755586E-06,-1.62745691341115E-05,-0.52734375,0,0
5.91061643717694E-06,-1.78507743839873E-05,-0.52734375,0,0
5.53175232198555E-06,-1.86011766345473E-05,-0.52734375,0,0
4.42778446085867E-06,-1.94841923075728E-05,-0.52734375,0,0
3.35821118824242E-06,-2.14735700865276E-05,-0.52734375,0,0
3.07427512780123E-06,-1.97880053747213E-05,-0.52734375,0,0
4.18161062043509E-06,-1.62162286869716E-05,-0.52734375,0,0
5.23085100212484E-06,-1.15165412353235E-05,-0.52734375,0,0
5.61440583624062E-06,-1.06615534605226E-05,-0.52734375,0,0
4.38917231804226E-06,-1.16358287414187E-05,-0.52734375,0,0
3.25104497278517E-06,-1.6738858903409E-05,-0.52734375,0,0
2.63537526734581E-06,-2.14608135138405E-05,-0.52734375,0,0
3.59663818016998E-06,-2.4087354177027E-05,-0.52734375,0,0
5.47098125025514E-06,-2.22574399231235E-05,-0.52734375,0,0
7.82093047746457E-06,-1.97184381249826E-05,-0.52734375,0,0
8.90681167220464E-06,-1.68058759300038E-05,-0.52734375,0,0
7.23710900274455E-06,-1.52157372212969E-05,-0.52734375,0,0
3.90857576348935E-06,-1.59921182785183E-05,-0.52734375,0,0
2.91457490675384E-06,-1.8570668544271E-05,-0.52734375,0,0
3.95313736589742E-06,-1.83710617420729E-05,-0.52734375,0,0
5.60478565603262E-06,-2.49454078584677E-05,-0.52734375,0,0
3.40035626322788E-06,-1.50291707541328E-05,-0.52734375,0,0
3.87184718420031E-06,-1.65305336849997E-05,-0.52734375,0,0
3.87214595320984E-06,-1.27626517496537E-05,-0.52734375,0,0
4.71742396257469E-06,-1.83926676982082E-05,-0.52734375,0,0
3.5362213566259E-06,-1.95773391169496E-05,-0.52734375,0,0
2.96744133265747E-06,-2.05696833290858E-05,-0.52734375,0,0
3.26653207594063E-06,-1.76853882294381E-05,-0.52734375,0,0
4.23143956140848E-06,-1.68280912475893E-05,-0.52734375,0,0
4.79509253636934E-06,-1.98441266547889E-05,-0.52734375,0,0
4.2547408156679E-06,-2.16710304812295E-05,-0.52734375,0,0
3.92795027437387E-06,-2.14377232623519E-05,-0.52734375,0,0
2.96432199320407E-06,-1.83733991434565E-05,-0.52734375,0,0
3.05984917758906E-06,-1.88560206879629E-05,-0.52734375,0,0
3.36017592417193E-06,-1.84410946530988E-05,-0.52734375,0,0
3.7292709293979E-06,-1.86354627658147E-05,-0.52734375,0,0
3.85812927561346E-06,-1.54990721057402E-05,-0.52734375,0,0
4.93573907078826E-06,-1.49240613609436E-05,-0.52734375,0,0
4.79276877740631E-06,-1.43253173519042E-05,-0.52734375,0,0
3.17722674481047E-06,-1.57172780745896E-05,-0.52734375,0,0
1.13898613562924E-06,-1.65355995704886E-05,-0.52734375,0,0
6.08498453402717E-07,-1.84076216100948E-05,-0.52734375,0,0
2.14517763197364E-06,-1.81064951902954E-05,-0.52734375,0,0
3.65697087545414E-06,-1.72986274264986E-05,-0.52734375,0,0
3.71046667169139E-06,-1.56228179548634E-05,-0.52734375,0,0
3.37128540195408E-06,-1.34736383188283E-05,-0.52734375,0,0
3.00093643090804E-06,-1.05170083770645E-05,-0.52734375,0,0
4.64617369289044E-06,-1.49977322507766E-05,-0.52734375,0,0
2.93703192255634E-06,-1.22146038847859E-05,-0.52734375,0,0
2.19103253584763E-06,-1.64100529218558E-05,-0.52734375,0,0
2.01180273506907E-06,-1.53236724145245E-05,-0.52734375,0,0
3.56005011781235E-06,-1.55280249600764E-05,-0.52734375,0,0
3.07716663883184E-06,-1.32970244521857E-05,-0.52734375,0,0
2.02362730306049E-06,-1.4078236745263E-05,-0.52734375,0,0
1.27467069432896E-06,-1.26831655506976E-05,-0.52734375,0,0
1.25938800010772E-06,-1.09652301034657E-05,-0.52734375,0,0
1.80839640506747E-06,-1.06425732155913E-05,-0.52734375,0,0
1.82834889983496E-06,-1.00392426247708E-05,-0.52734375,0,0
1.39613746341638E-06,-1.1214582627872E-05,-0.52734375,0,0
1.26579368497914E-06,-1.31791884996346E-05,-0.52734375,0,0
2.0262234556867E-06,-1.49059287650743E-05,-0.52734375,0,0
2.90045090878266E-06,-1.31478755065473E-05,-0.52734375,0,0
3.74655064661056E-06,-1.22116853162879E-05,-0.52734375,0,0
4.04994079872267E-06,-1.05109729702235E-05,-0.52734375,0,0
4.27951681558625E-06,-1.06916641016142E-05,-0.52734375,0,0
3.85010071113356E-06,-1.14249523903709E-05,-0.52734375,0,0
3.65990717909881E-06,-1.38792556754197E-05,-0.52734375,0,0
2.88072737930634E-06,-1.47150121847517E-05,-0.52734375,0,0
2.66220308731135E-06,-1.41880082082935E-05,-0.52734375,0,0
3.67375400855963E-06,-1.18644165922888E-05,-0.52734375,0,0
4.54483324574539E-06,-1.1077975614171E-05,-0.52734375,0,0
4.81359802506631E-06,-1.3495401617547E-05,-0.52734375,0,0
4.61044282928924E-06,-1.69356135302223E-05,-0.52734375,0,0
3.53887367054995E-06,-1.56483656610362E-05,-0.52734375,0,0
5.6898288676166E-06,-2.17351825995138E-05,-0.52734375,0,0
4.28199427915388E-06,-1.69517279573483E-05,-0.52734375,0,0
3.31085902871564E-06,-2.48066880885744E-05,-0.52734375,0,0
2.47008392761927E-06,-2.61277800746029E-05,-0.52734375,0,0
4.14295573136769E-06,-3.13465898216236E-05,-0.52734375,0,0
4.90643014927628E-06,-3.1564079108648E-05,-0.52734375,0,0
5.91979687669664E-06,-3.354913496878E-05,-0.52734375,0,0
5.40568044016254E-06,-3.31751434714533E-05,-0.52734375,0,0
4.47053434982081E-06,-3.17151789204217E-05,-0.52734375,0,0
3.33421235154674E-06,-2.72081215371145E-05,-0.52734375,0,0
3.85214889320196E-06,-1.99568494281266E-05,-0.52734375,0,0
7.03743626218056E-06,-1.5908222849248E-05,-0.52734375,0,0
9.26273696677526E-06,-1.48523413372459E-05,-0.52734375,0,0
8.89225975697627E-06,-1.76769553945633E-05,-0.52734375,0,0
6.27116514806403E-06,-1.71774008776993E-05,-0.52734375,0,0
3.94864537156536E-06,-1.65063011081656E-05,-0.52734375,0,0
2.99499970424222E-06,-1.50653204400442E-05,-0.52734375,0,0
3.97081657865783E-06,-1.71592691913247E-05,-0.52734375,0,0
4.38019560533576E-06,-1.80054121301509E-05,-0.52734375,0,0
4.50956349595799E-06,-1.78810314537259E-05,-0.52734375,0,0
4.36345635534963E-06,-1.44917321449611E-05,-0.52734375,0,0
4.26898623118177E-06,-1.4044903764443E-05,-0.52734375,0,0
3.88767739423201E-06,-1.65766250574961E-05,-0.52734375,0,0
4.41616384705412E-06,-2.15776472032303E-05,-0.52734375,0,0
3.97256644646404E-06,-2.60176366282394E-05,-0.52734375,0,0
3.16634691444051E-06,-2.95633981295396E-05,-0.52734375,0,0
2.31659078053781E-06,-2.78926472674357E-05,-0.52734375,0,0
1.57717624915676E-06,-3.8894319004612E-05,-0.52734375,0,0
-1.10905284600449E-06,-2.32606835197657E-05,-0.52734375,0,0
-4.26124024954788E-08,-2.24759387492668E-05,-0.52734375,0,0
3.77755753788733E-07,-1.25599735838478E-05,-0.52734375,0,0
1.48325182180997E-06,-1.47365935845301E-05,-0.52734375,0,0
1.43746046887827E-06,-1.27459461509716E-05,-0.52734375,0,0
2.14851888813428E-06,-1.54412100528134E-05,-0.52734375,0,0
3.06458969134837E-06,-1.5562081898679E-05,-0.52734375,0,0
2.68262624558702E-06,-1.78905538632534E-05,-0.52734375,0,0
2.10645907827711E-06,-2.0728723029606E-05,-0.52734375,0,0
2.54359088103229E-06,-2.04900643439032E-05,-0.52734375,0,0
3.56027226189326E-06,-1.9894278011634E-05,-0.52734375,0,0
3.64592779078521E-06,-1.5939744116622E-05,-0.52734375,0,0
2.9465627449099E-06,-1.49097677422105E-05,-0.52734375,0,0
8.37389904972952E-07,-1.12540874397382E-05,-0.52734375,0,0
-7.55263954488328E-07,-1.19576270662947E-05,-0.52734375,0,0
-4.12947258610075E-07,-1.11455019577988E-05,-0.52734375,0,0
1.56928467731632E-06,-1.28984411276178E-05,-0.52734375,0,0
2.47267098529846E-06,-1.14893209683942E-05,-0.52734375,0,0
2.96101279673167E-06,-1.20273280117544E-05,-0.52734375,0,0
2.8294471121626E-06,-1.12514435386402E-05,-0.52734375,0,0
2.37287645177275E-06,-1.20309696285403E-05,-0.52734375,0,0
1.38810401040246E-06,-1.17604995466536E-05,-0.52734375,0,0
-3.28028278318016E-07,-1.23701966003864E-05,-0.52734375,0,0
-5.82220650358067E-07,-1.28266174215241E-05,-0.52734375,0,0
4.48595471880253E-07,-1.48773815453751E-05,-0.52734375,0,0
2.32757065532496E-06,-1.70721796166617E-05,-0.52734375,0,0
3.79997709387681E-06,-3.04468758258736E-05,-0.52734375,0,0
1.89657555438316E-06,-3.17014673782978E-05,-0.52734375,0,0
-1.95777147382614E-07,-3.69721310562454E-05,-0.52734375,0,0
-1.99823125512921E-06,-2.94328328891424E-05,-0.52734375,0,0
-1.70377404629107E-06,-2.06591466849204E-05,-0.52734375,0,0
8.75757336871175E-07,-1.2239010175108E-05,-0.52734375,0,0
4.12420422435389E-06,-1.18978296086425E-05,-0.52734375,0,0
4.86387625642237E-06,-1.22792898764601E-05,-0.52734375,0,0
3.64667357644066E-06,-1.21455732369213E-05,-0.52734375,0,0
2.49738013735623E-06,-1.20807490020525E-05,-0.52734375,0,0
2.88628370981314E-06,-1.15060065581929E-05,-0.52734375,0,0
4.50565494247712E-06,-1.17337522169692E-05,-0.52734375,0,0
5.38747644895921E-06,-1.11175977508537E-05,-0.52734375,0,0
4.86885483041988E-06,-1.19689166240278E-05,-0.52734375,0,0
3.19986179420084E-06,-1.06452735053608E-05,-0.52734375,0,0
2.24383666136418E-06,-1.05029475889751E-05,-0.52734375,0,0
2.0190902887407E-06,-9.67495179793332E-06,-0.52734375,0,0
2.45773208007449E-06,-1.0468117579876E-05,-0.52734375,0,0
2.0891372969345E-06,-9.60070883593289E-06,-0.52734375,0,0
1.50728067183081E-06,-9.34211948333541E-06,-0.52734375,0,0
2.19540152102127E-06,-9.56974326982163E-06,-0.52734375,0,0
2.46935451286845E-06,-1.36981507239398E-05,-0.52734375,0,0
1.14631529868348E-06,-1.87657442438649E-05,-0.52734375,0,0
-5.47336924228148E-07,-2.12917602766538E-05,-0.52734375,0,0
-1.78914115167572E-06,-2.04682910407428E-05,-0.52734375,0,0
-1.00862826002412E-06,-1.86663201020565E-05,-0.52734375,0,0
2.82524865724554E-07,-1.53977489389945E-05,-0.52734375,0,0
3.76478197949837E-07,-2.30366040341323E-05,-0.52734375,0,0
6.85208874529053E-07,-1.72598502103938E-05,-0.52734375,0,0
4.36628823763385E-07,-1.77083693415625E-05,-0.52734375,0,0
-7.8366429079324E-07,-1.17246918307501E-05,-0.52734375,0,0
-1.46714160109696E-06,-1.38911627800553E-05,-0.52734375,0,0
-6.5538796434339E-07,-1.63251152116572E-05,-0.52734375,0,0
1.16101932690071E-06,-2.04929838218959E-05,-0.52734375,0,0
1.38650693770614E-06,-2.01988877961412E-05,-0.52734375,0,0
1.50739367654751E-06,-1.97857625607867E-05,-0.52734375,0,0
1.73308171724784E-06,-1.95146294572623E-05,-0.52734375,0,0
1.28726333059603E-06,-1.76426819962217E-05,-0.52734375,0,0
1.67954635799106E-06,-1.78073587449035E-05,-0.52734375,0,0
2.42298710873001E-06,-1.70885487023043E-05,-0.52734375,0,0
3.21158267979627E-06,-1.67078142112587E-05,-0.52734375,0,0
3.70786642633902E-06,-1.43740708153928E-05,-0.52734375,0,0
3.72528415937268E-06,-1.55461730173556E-05,-0.52734375,0,0
3.55876795765653E-06,-1.62522937898757E-05,-0.52734375,0,0
4.48724040325033E-06,-1.64744542416884E-05,-0.52734375,0,0
5.89487535762601E-06,-1.29428381114849E-05,-0.52734375,0,0
6.23822552370257E-06,-1.12226052806363E-05,-0.52734375,0,0
5.2305226745375E-06,-1.09581496872124E-05,-0.52734375,0,0
3.54907683686179E-06,-1.08677886601072E-05,-0.52734375,0,0
2.54417159339937E-06,-9.30772603169316E-06,-0.52734375,0,0
2.87445527646923E-06,-9.5204304670915E-06,-0.52734375,0,0
3.44213549396954E-06,-1.15003249447909E-05,-0.52734375,0,0
3.28829241880158E-06,-1.19209362310357E-05,-0.52734375,0,0
1.49624952427985E-06,-8.87207443156512E-06,-0.52734375,0,0
9.47210594404169E-07,-1.36091866806964E-05,-0.52734375,0,0
-4.77706464607763E-07,-1.51830608956516E-05,-0.52734375,0,0
-1.34653362238168E-07,-2.26714637392433E-05,-0.52734375,0,0
-9.81114794740279E-07,-2.26951815420762E-05,-0.52734375,0,0
6.41372707832488E-07,-2.49770018854178E-05,-0.52734375,0,0
3.2740590540925E-06,-2.4603523343103E-05,-0.52734375,0,0
5.02577267980087E-06,-2.28190056077437E-05,-0.52734375,0,0
4.38417282566661E-06,-1.89883248822298E-05,-0.52734375,0,0
3.62934929398762E-06,-1.6607726138318E-05,-0.52734375,0,0
4.43154567619786E-06,-1.60522231453797E-05,-0.52734375,0,0
4.70341274194652E-06,-1.56170244736131E-05,-0.52734375,0,0
3.15169745590538E-06,-1.65733308676863E-05,-0.52734375,0,0
1.67027326369862E-06,-1.74116357811727E-05,-0.52734375,0,0
2.01750208361773E-06,-1.8693061065278E-05,-0.52734375,0,0
2.18090985981689E-06,-1.90090631804196E-05,-0.52734375,0,0
1.07404525806487E-06,-1.97495974134654E-05,-0.52734375,0,0
-1.41836423495079E-07,-1.91014896699926E-05,-0.52734375,0,0
7.90511649029213E-07,-2.07542889256729E-05,-0.52734375,0,0
3.10927543978323E-06,-2.21709560719319E-05,-0.52734375,0,0
4.91843957206584E-06,-2.22555918298895E-05,-0.52734375,0,0
4.91548735226388E-06,-2.05467149498872E-05,-0.52734375,0,0
4.50876541435719E-06,-1.95542252185987E-05,-0.52734375,0,0
3.94424023397733E-06,-1.76567900780356E-05,-0.52734375,0,0
4.28783641837072E-06,-1.47301752804196E-05,-0.52734375,0,0
4.64570757685578E-06,-1.06759252958E-05,-0.52734375,0,0
5.33051934326068E-06,-8.52973425935488E-06,-0.52734375,0,0
5.71035752727767E-06,-8.04472256277222E-06,-0.52734375,0,0
8.26594259706326E-06,-1.12717843876453E-05,-0.52734375,0,0
4.35490346717415E-06,-7.64077412895858E-06,-0.52734375,0,0
3.63264439329214E-06,-9.95226037048269E-06,-0.52734375,0,0
2.20887523028068E-06,-1.10122264231904E-05,-0.52734375,0,0
3.00052761303959E-06,-1.4159791135171E-05,-0.52734375,0,0
2.92760205411469E-06,-1.36047547130147E-05,-0.52734375,0,0
3.18099455398624E-06,-1.33819157781545E-05,-0.52734375,0,0
3.84601207770174E-06,-1.41003229146008E-05,-0.52734375,0,0
5.87068825552706E-06,-1.52870907186298E-05,-0.52734375,0,0
6.44778856440098E-06,-1.58049224410206E-05,-0.52734375,0,0
3.9622855183552E-06,-1.70278144651093E-05,-0.52734375,0,0
1.74452350165666E-06,-1.8712655219133E-05,-0.52734375,0,0
1.88761782737856E-06,-1.94041094800923E-05,-0.52734375,0,0
4.17140881836531E-06,-2.09615791391116E-05,-0.52734375,0,0
4.81899587612133E-06,-2.24568066187203E-05,-0.52734375,0,0
4.35747824667487E-06,-2.40709505305858E-05,-0.52734375,0,0
3.53069162883912E-06,-2.31499561778037E-05,-0.52734375,0,0
4.42880718765082E-06,-2.29041452257661E-05,-0.52734375,0,0
5.54874213776202E-06,-2.27053278649691E-05,-0.52734375,0,0
5.706117462978E-06,-2.2402489776141E-05,-0.52734375,0,0
3.96763334720163E-06,-2.10253001569072E-05,-0.52734375,0,0
1.86932163614983E-06,-2.08072997338604E-05,-0.52734375,0,0
-5.37185428584053E-07,-2.13208531931741E-05,-0.52734375,0,0
-1.70025646184513E-06,-2.36389259953285E-05,-0.52734375,0,0
-1.05750689272099E-06,-2.58977506746305E-05,-0.52734375,0,0
8.0945756053552E-07,-2.65427079284564E-05,-0.52734375,0,0
2.77969633089015E-07,-1.97210756596178E-05,-0.52734375,0,0
2.52105422759996E-07,-2.5712399292388E-05,-0.52734375,0,0
4.85123564430978E-07,-1.59067221829901E-05,-0.52734375,0,0
1.39100552587479E-06,-2.01938910322497E-05,-0.52734375,0,0
1.86570207461045E-06,-1.48743147292407E-05,-0.52734375,0,0
2.39194946516363E-06,-1.69965624081669E-05,-0.52734375,0,0
3.27299494529143E-06,-1.50174519149004E-05,-0.52734375,0,0
3.5665013911057E-06,-1.70267048815731E-05,-0.52734375,0,0
2.99100656775408E-06,-1.75110744748963E-05,-0.52734375,0,0
2.88449678009783E-06,-1.92631978279678E-05,-0.52734375,0,0
3.43692317983368E-06,-2.14844312722562E-05,-0.52734375,0,0
4.30914997195941E-06,-2.12748782359995E-05,-0.52734375,0,0
3.9088290577638E-06,-2.07243556360481E-05,-0.52734375,0,0
2.27282407649909E-06,-1.73766056832392E-05,-0.52734375,0,0
3.12103651367579E-07,-1.64392786246026E-05,-0.52734375,0,0
-1.61447178470553E-06,-1.39721632876899E-05,-0.52734375,0,0
-2.66803453996545E-06,-1.46092825161759E-05,-0.52734375,0,0
-1.63309573508741E-06,-1.46425154525787E-05,-0.52734375,0,0
2.32175992209704E-07,-1.76378634932917E-05,-0.52734375,0,0
1.00303736871865E-06,-1.8979599190061E-05,-0.52734375,0,0
1.41224836625042E-06,-2.16024109249702E-05,-0.52734375,0,0
2.18155287257105E-06,-2.16503140109126E-05,-0.52734375,0,0
2.7770868200605E-06,-2.12604099942837E-05,-0.52734375,0,0
2.18498576032289E-06,-2.02570045075845E-05,-0.52734375,0,0
1.77068670836888E-06,-2.04293664864963E-05,-0.52734375,0,0
2.36034770750848E-06,-1.98238212760771E-05,-0.52734375,0,0
2.34475555771496E-06,-1.82593539648224E-05,-0.52734375,0,0
6.81459027873643E-07,-1.26930417536641E-05,-0.52734375,0,0
-7.43205362141453E-07,-1.70459970831871E-05,-0.52734375,0,0
-3.13417490360735E-06,-1.21561879495857E-05,-0.52734375,0,0
-1.64846449024481E-06,-1.69567429111339E-05,-0.52734375,0,0
-7.67481154184679E-08,-1.73488642758457E-05,-0.52734375,0,0
-1.71541358895411E-07,-2.16090775211342E-05,-0.52734375,0,0
-6.88601403453504E-07,-2.01988495973637E-05,-0.52734375,0,0
-1.05802621419571E-06,-1.91756771528162E-05,-0.52734375,0,0
-5.0414956831446E-07,-1.69172508321935E-05,-0.52734375,0,0
1.05675110262382E-06,-1.54534045577748E-05,-0.52734375,0,0
2.8252036372578E-06,-1.46602160384646E-05,-0.52734375,0,0
4.43677026851219E-06,-1.38403784148977E-05,-0.52734375,0,0
5.36849847776466E-06,-1.60827476065606E-05,-0.52734375,0,0
5.80760251978063E-06,-1.79426879185485E-05,-0.52734375,0,0
6.61288322589826E-06,-1.81979048647918E-05,-0.52734375,0,0
6.81937035551528E-06,-1.55279085447546E-05,-0.52734375,0,0
5.61012166144792E-06,-1.55874222400598E-05,-0.52734375,0,0
4.0357203943131E-06,-1.47756827573176E-05,-0.52734375,0,0
3.98854444938479E-06,-1.47328137245495E-05,-0.52734375,0,0
5.71882583244587E-06,-1.35063010020531E-05,-0.52734375,0,0
7.76389242673758E-06,-1.32126824610168E-05,-0.52734375,0,0
7.50524350223714E-06,-1.2244743629708E-05,-0.52734375,0,0
5.21793390362291E-06,-1.2634229278774E-05,-0.52734375,0,0
3.83089218303212E-06,-1.37362512759864E-05,-0.52734375,0,0
3.73628972738516E-06,-1.48438120959327E-05,-0.52734375,0,0
3.88594435207779E-06,-1.4358818589244E-05,-0.52734375,0,0
4.87990564579377E-06,-1.34216807055054E-05,-0.52734375,0,0
4.6196837502066E-06,-9.95730260910932E-06,-0.52734375,0,0
6.8520344029821E-06,-1.59511419042246E-05,-0.52734375,0,0
5.13380564370891E-06,-1.43389979712083E-05,-0.52734375,0,0
6.53793267701985E-06,-1.5227804397E-05,-0.52734375,0,0
6.84963060848531E-06,-1.09551674540853E-05,-0.52734375,0,0
8.4462271843222E-06,-1.01876403277856E-05,-0.52734375,0,0
7.70200313127134E-06,-8.90630963112926E-06,-0.52734375,0,0
7.17381908543757E-06,-1.18420175567735E-05,-0.52734375,0,0
7.05087632013601E-06,-1.40951160574332E-05,-0.52734375,0,0
7.21373635315103E-06,-1.71593183040386E-05,-0.52734375,0,0
6.91467357682996E-06,-2.05236792680807E-05,-0.52734375,0,0
6.70309555061976E-06,-2.24947743845405E-05,-0.52734375,0,0
6.92929643264506E-06,-2.41533252847148E-05,-0.52734375,0,0
5.58172905584797E-06,-2.32925758609781E-05,-0.52734375,0,0
4.07959532822133E-06,-2.07089869945776E-05,-0.52734375,0,0
2.62071625911631E-06,-1.775723285391E-05,-0.52734375,0,0
2.08420237868268E-06,-1.98393554455834E-05,-0.52734375,0,0
1.32929471874377E-06,-2.264122122142E-05,-0.52734375,0,0
1.31420881643862E-06,-2.2342765078065E-05,-0.52734375,0,0
1.24939060697216E-06,-1.7535237930133E-05,-0.52734375,0,0
1.59752050876705E-06,-1.56224850798026E-05,-0.52734375,0,0
2.15854265661619E-06,-1.70567054738058E-05,-0.52734375,0,0
2.91742298941244E-06,-1.98926263692556E-05,-0.52734375,0,0
3.05685216517304E-06,-2.01302100322209E-05,-0.52734375,0,0
3.70551879314007E-06,-1.93185660464223E-05,-0.52734375,0,0
4.48762557425653E-06,-1.77182464540238E-05,-0.52734375,0,0
4.85585815113154E-06,-1.69289178302279E-05,-0.52734375,0,0
3.40473570759059E-06,-1.40208640004857E-05,-0.52734375,0,0
2.86383806269441E-06,-2.08549863600638E-05,-0.52734375,0,0
-3.12843184246958E-07,-1.79170456249267E-05,-0.52734375,0,0
1.73613841525366E-06,-2.27635828196071E-05,-0.52734375,0,0
2.54287260759156E-06,-2.01363436644897E-05,-0.52734375,0,0
3.34293736159452E-06,-2.11501464946195E-05,-0.52734375,0,0
1.98095244741126E-06,-1.73240132426145E-05,-0.52734375,0,0
2.73613835588549E-07,-1.60311064973939E-05,-0.52734375,0,0
-4.03364111889459E-07,-1.30510379676707E-05,-0.52734375,0,0
1.99772466658033E-06,-1.20075746963266E-05,-0.52734375,0,0
4.83588473798591E-06,-1.42805929499445E-05,-0.52734375,0,0
5.4068650570116E-06,-1.52975189848803E-05,-0.52734375,0,0
4.73209820484044E-06,-1.69097274920205E-05,-0.52734375,0,0
3.53407472175604E-06,-1.73335283761844E-05,-0.52734375,0,0
2.44935154114501E-06,-1.84734035428846E-05,-0.52734375,0,0
1.41879684179003E-06,-1.7617829144001E-05,-0.52734375,0,0
2.16209514292132E-06,-1.87280311365612E-05,-0.52734375,0,0
3.41776694767759E-06,-1.86201596079627E-05,-0.52734375,0,0
4.51387586508645E-06,-1.95840748347109E-05,-0.52734375,0,0
3.70838779417682E-06,-1.7784850570024E-05,-0.52734375,0,0
2.15956515603466E-06,-1.56894220708637E-05,-0.52734375,0,0
5.23020958098641E-07,-1.44425157486694E-05,-0.52734375,0,0
7.1372073762177E-07,-1.59487826749682E-05,-0.52734375,0,0
1.74327465174429E-06,-1.56193855218589E-05,-0.52734375,0,0
1.17805063837295E-06,-1.43627848956385E-05,-0.52734375,0,0
-1.33103037569526E-06,-1.35227064674837E-05,-0.52734375,0,0
-2.1138785086805E-06,-1.24346352095017E-05,-0.52734375,0,0
-5.26666269706766E-07,-1.02207741292659E-05,-0.52734375,0,0
-3.70436015195708E-09,-1.4108513823885E-05,-0.52734375,0,0
9.53772655520879E-07,-8.98168036655989E-06,-0.52734375,0,0
4.68762095806596E-07,-1.04372911664541E-05,-0.52734375,0,0
3.32121743440439E-07,-8.88751128513832E-06,-0.52734375,0,0
7.58019268687349E-07,-1.24325915749068E-05,-0.52734375,0,0
2.38128859564313E-06,-1.52415232150815E-05,-0.52734375,0,0
3.88528860639781E-06,-1.90331029443769E-05,-0.52734375,0,0
4.80440803585225E-06,-2.10440193768591E-05,-0.52734375,0,0
4.83127178085851E-06,-2.3196380425361E-05,-0.52734375,0,0
4.02474734073621E-06,-2.47567149926908E-05,-0.52734375,0,0
2.33549849326664E-06,-2.35238258028403E-05,-0.52734375,0,0
1.05488629742467E-06,-2.03206636797404E-05,-0.52734375,0,0
1.61406433107913E-07,-1.50962314364733E-05,-0.52734375,0,0
-8.08525214779365E-07,-1.2269927538E-05,-0.52734375,0,0
-1.33927142087487E-06,-1.24882999443798E-05,-0.52734375,0,0
-2.36720268276258E-07,-1.76124867721228E-05,-0.52734375,0,0
2.06182244255615E-06,-2.17316483031027E-05,-0.52734375,0,0
2.4916721486079E-06,-2.34169619943714E-05,-0.52734375,0,0
1.25098631542642E-06,-2.24778414121829E-05,-0.52734375,0,0
1.10579442491598E-07,-2.23168080992764E-05,-0.52734375,0,0
4.87299132601038E-07,-1.97513199964305E-05,-0.52734375,0,0
1.57652982579748E-06,-1.66049740073504E-05,-0.52734375,0,0
2.48657352130977E-06,-1.45398516906425E-05,-0.52734375,0,0
2.7623639198282E-06,-1.48434855873347E-05,-0.52734375,0,0
3.3176759188791E-06,-1.38786344905384E-05,-0.52734375,0,0
4.42886994278524E-06,-1.24576417874778E-05,-0.52734375,0,0
3.11844110001402E-06,-1.18443931569345E-05,-0.52734375,0,0
3.28140868077753E-06,-1.92026236618403E-05,-0.52734375,0,0
1.40658175951103E-06,-1.62680007633753E-05,-0.52734375,0,0
2.02590535991476E-06,-1.72093095898163E-05,-0.52734375,0,0
1.93746828358599E-07,-1.43803317769198E-05,-0.52734375,0,0
6.76701858992601E-07,-1.62911783263553E-05,-0.52734375,0,0
1.64468553975894E-06,-1.50498490256723E-05,-0.52734375,0,0
4.25624875788344E-06,-1.50592741192668E-05,-0.52734375,0,0
5.73062061448582E-06,-1.4895850654284E-05,-0.52734375,0,0
6.39437121208175E-06,-1.54609660967253E-05,-0.52734375,0,0
6.68241455059615E-06,-1.53749515447998E-05,-0.52734375,0,0
6.80318726153928E-06,-1.36061498778872E-05,-0.52734375,0,0
7.82955976319499E-06,-1.26533332149847E-05,-0.52734375,0,0
8.38160940475063E-06,-1.31320148284431E-05,-0.52734375,0,0
8.37833522382425E-06,-1.59045703185257E-05,-0.52734375,0,0
7.88498346082633E-06,-1.61228472279618E-05,-0.52734375,0,0
7.83778705226723E-06,-1.67166945175268E-05,-0.52734375,0,0
7.45244688005187E-06,-1.85966455319431E-05,-0.52734375,0,0
7.84686199040152E-06,-2.26331976591609E-05,-0.52734375,0,0
7.44941053199E-06,-2.28360604523914E-05,-0.52734375,0,0
7.05778165865922E-06,-2.10887683351757E-05,-0.52734375,0,0
6.08222808295977E-06,-1.98168108909158E-05,-0.52734375,0,0
5.42462612429517E-06,-2.16224652831443E-05,-0.52734375,0,0
6.07047013545525E-06,-2.16593307413859E-05,-0.52734375,0,0
6.46052512820461E-06,-1.91534636542201E-05,-0.52734375,0,0
4.63856349597336E-06,-1.6932763173827E-05,-0.52734375,0,0
2.65076232608408E-06,-1.63487511599669E-05,-0.52734375,0,0
3.14439535031852E-06,-1.27991588669829E-05,-0.52734375,0,0
5.48763046026579E-06,-1.91104136320064E-05,-0.52734375,0,0
6.20152059127577E-06,-1.5832618373679E-05,-0.52734375,0,0
7.28901113689062E-06,-1.77914243977284E-05,-0.52734375,0,0
5.88011789659504E-06,-1.33004141389392E-05,-0.52734375,0,0
4.54175096820109E-06,-1.54383797053015E-05,-0.52734375,0,0
2.69760448645684E-06,-1.60952149599325E-05,-0.52734375,0,0
3.70942848348932E-06,-1.77701858774526E-05,-0.52734375,0,0
4.4510338739201E-06,-1.65952769748401E-05,-0.52734375,0,0
3.53454561263788E-06,-1.60813924594549E-05,-0.52734375,0,0
2.6500056264922E-06,-1.64856137416791E-05,-0.52734375,0,0
2.24865061682067E-06,-1.68558744917391E-05,-0.52734375,0,0
2.92510685540037E-06,-1.73811113199918E-05,-0.52734375,0,0
2.37809558711888E-06,-1.67355938174296E-05,-0.52734375,0,0
1.10409530407196E-06,-1.74977649294306E-05,-0.52734375,0,0
2.86018497774876E-08,-1.77521105797496E-05,-0.52734375,0,0
4.69324533014515E-07,-1.95453758351505E-05,-0.52734375,0,0
1.55143197844154E-06,-1.89521069842158E-05,-0.52734375,0,0
2.95034578812192E-06,-1.99914829863701E-05,-0.52734375,0,0
3.1991241939977E-06,-1.9729717678274E-05,-0.52734375,0,0
3.0830308332952E-06,-1.86987836059416E-05,-0.52734375,0,0
1.99005307877087E-06,-1.70753119164146E-05,-0.52734375,0,0
1.3392136679613E-06,-1.90414266398875E-05,-0.52734375,0,0
2.39979999605566E-06,-2.13872535823612E-05,-0.52734375,0,0
3.65109031008615E-06,-2.22273774852511E-05,-0.52734375,0,0
2.85788451037661E-06,-2.10171328944853E-05,-0.52734375,0,0
1.20206584597327E-06,-2.06248132599285E-05,-0.52734375,0,0
6.82955487718573E-07,-1.70187086041551E-05,-0.52734375,0,0
8.33988337944902E-07,-2.55041868513217E-05,-0.52734375,0,0
1.1812505817943E-06,-2.05980959435692E-05,-0.52734375,0,0
2.43819727074879E-06,-2.38512002397329E-05,-0.52734375,0,0
3.52620850208041E-06,-1.9209635865991E-05,-0.52734375,0,0
4.31284342994331E-06,-2.0700406821561E-05,-0.52734375,0,0
3.02127227769233E-06,-1.82536223292118E-05,-0.52734375,0,0
1.55789507516602E-06,-1.82514650077792E-05,-0.52734375,0,0
2.11817359740962E-06,-1.59345745487371E-05,-0.52734375,0,0
3.77950095753476E-06,-1.42401531775249E-05,-0.52734375,0,0
4.16108241552138E-06,-1.4922611626389E-05,-0.52734375,0,0
3.15491820401803E-06,-1.61505431606201E-05,-0.52734375,0,0
1.91865387932921E-06,-1.76609992195154E-05,-0.52734375,0,0
2.19697653847106E-06,-1.71533738466678E-05,-0.52734375,0,0
2.8280906008149E-06,-1.8523542166804E-05,-0.52734375,0,0
2.38071379499161E-06,-1.71845076692989E-05,-0.52734375,0,0
1.11302517780132E-06,-1.59992032422451E-05,-0.52734375,0,0
-2.70212694886141E-07,-1.28248157125199E-05,-0.52734375,0,0
-1.34514766614302E-06,-1.26991590150283E-05,-0.52734375,0,0
-1.33064554574958E-06,-1.24434409372043E-05,-0.52734375,0,0
-2.32234526720276E-07,-1.29533200379228E-05,-0.52734375,0,0
-4.48545108611143E-07,-1.21123102871934E-05,-0.52734375,0,0
-4.98575616347807E-07,-1.16158789751353E-05,-0.52734375,0,0
-1.08380709207268E-06,-9.6671465144027E-06,-0.52734375,0,0
-1.47834941799374E-06,-1.05214630821138E-05,-0.52734375,0,0
-5.37312757842301E-07,-1.31673705254798E-05,-0.52734375,0,0
5.68159919112077E-07,-1.59796418301994E-05,-0.52734375,0,0
4.05143765647153E-07,-1.38993273139931E-05,-0.52734375,0,0
-6.00346027113119E-07,-1.98585294128861E-05,-0.52734375,0,0
-1.15075158646505E-06,-1.36002117869793E-05,-0.52734375,0,0
3.6413425164028E-07,-1.39843350552837E-05,-0.52734375,0,0
1.29261627535016E-06,-9.94486890704138E-06,-0.52734375,0,0
2.58519889939635E-06,-1.24207772387308E-05,-0.52734375,0,0
3.92920446756762E-06,-1.22758237921516E-05,-0.52734375,0,0
6.3555112319591E-06,-1.3951483197161E-05,-0.52734375,0,0
7.97530356067E-06,-1.37918796099257E-05,-0.52734375,0,0
7.44020644560806E-06,-1.43117213156074E-05,-0.52734375,0,0
6.19739103058237E-06,-1.28201745610568E-05,-0.52734375,0,0
5.08735502080526E-06,-9.50087178352987E-06,-0.52734375,0,0
5.41757117389352E-06,-7.92671835370129E-06,-0.52734375,0,0
6.03346506977687E-06,-6.38291021459736E-06,-0.52734375,0,0
5.25777113580261E-06,-7.85206339060096E-06,-0.52734375,0,0
3.83269434678368E-06,-9.96680410025874E-06,-0.52734375,0,0
3.17464377985743E-06,-1.42555718412041E-05,-0.52734375,0,0
2.99166981676535E-06,-1.56292153405957E-05,-0.52734375,0,0
3.18518164021953E-06,-1.66544978128513E-05,-0.52734375,0,0
3.13917394123564E-06,-1.50853338709567E-05,-0.52734375,0,0
1.49939114635345E-06,-1.48420722325682E-05,-0.52734375,0,0
-1.76478852154105E-06,-1.62401502166176E-05,-0.52734375,0,0
-2.5766596536414E-06,-2.15086856769631E-05,-0.52734375,0,0
-5.45067678103806E-07,-2.56589482887648E-05,-0.52734375,0,0
-1.87161461440155E-07,-2.79001214948948E-05,-0.52734375,0,0
-1.97066901819198E-06,-2.90874922939111E-05,-0.52734375,0,0
-1.76027413090196E-06,-2.91257401840994E-05,-0.52734375,0,0
8.22446963866241E-07,-2.340269384149E-05,-0.52734375,0,0
8.90132525910303E-07,-3.5535565984901E-05,-0.52734375,0,0
-2.46209054921565E-07,-2.93564280582359E-05,-0.52734375,0,0
1.44908895549634E-07,-3.35695731337182E-05,-0.52734375,0,0
1.3529745501728E-06,-2.5660368919489E-05,-0.52734375,0,0
2.405810619166E-06,-2.57583596976474E-05,-0.52734375,0,0
2.94480787488283E-06,-2.12996528716758E-05,-0.52734375,0,0
2.39642395172268E-06,-2.03024683287367E-05,-0.52734375,0,0
2.45168689616548E-06,-1.66511435963912E-05,-0.52734375,0,0
3.83418591809459E-06,-1.54152203322155E-05,-0.52734375,0,0
4.46084322902607E-06,-1.56272089952836E-05,-0.52734375,0,0
3.69413828593679E-06,-1.52727589011192E-05,-0.52734375,0,0
2.420016016913E-06,-1.66211757459678E-05,-0.52734375,0,0
1.31291335492278E-06,-1.51272734001395E-05,-0.52734375,0,0
1.05996616639459E-06,-1.55732359417016E-05,-0.52734375,0,0
1.79313144599291E-06,-1.47885257320013E-05,-0.52734375,0,0
3.16944579026313E-06,-1.70128896570532E-05,-0.52734375,0,0
4.48776063421974E-06,-1.66822210303508E-05,-0.52734375,0,0
5.44280919712037E-06,-1.98944235307863E-05,-0.52734375,0,0
5.3324311011238E-06,-2.25306466745678E-05,-0.52734375,0,0
4.19435764342779E-06,-2.51052679232089E-05,-0.52734375,0,0
3.47811078427185E-06,-2.25814856094075E-05,-0.52734375,0,0
3.51008998222824E-06,-1.88140620593913E-05,-0.52734375,0,0
3.16402770295099E-06,-1.49970619531814E-05,-0.52734375,0,0
2.792358827719E-06,-1.38944496939075E-05,-0.52734375,0,0
1.91450112652092E-06,-1.10543451228295E-05,-0.52734375,0,0
8.94337517820532E-07,-8.3573286246974E-06,-0.52734375,0,0
-4.09819762126062E-07,-7.00088730809512E-06,-0.52734375,0,0
4.75415362188869E-07,-1.08635458673234E-05,-0.52734375,0,0
2.09074914891971E-06,-9.99147869151784E-06,-0.52734375,0,0
2.40739291257341E-06,-1.19483383969055E-05,-0.52734375,0,0
2.56170164902869E-06,-1.00156166809029E-05,-0.52734375,0,0
2.82516316474357E-06,-1.27339435493923E-05,-0.52734375,0,0
2.7582852908381E-06,-1.62843007274205E-05,-0.52734375,0,0
2.44605757870886E-06,-1.80617971636821E-05,-0.52734375,0,0
3.62100081474637E-06,-1.72455274878303E-05,-0.52734375,0,0
4.88714886159869E-06,-1.54050667333649E-05,-0.52734375,0,0
5.1714532673941E-06,-1.45884887388092E-05,-0.52734375,0,0
5.5617597354285E-06,-1.50524901982863E-05,-0.52734375,0,0
5.84747385801165E-06,-1.70094881468685E-05,-0.52734375,0,0
5.97527787249419E-06,-1.87925033969805E-05,-0.52734375,0,0
6.73376189297414E-06,-2.07054781640181E-05,-0.52734375,0,0
8.11798872746294E-06,-2.10766484087799E-05,-0.52734375,0,0
8.2100505096605E-06,-2.17656579479808E-05,-0.52734375,0,0
7.01142562320456E-06,-2.18520872294903E-05,-0.52734375,0,0
5.15287547386833E-06,-2.28715580306016E-05,-0.52734375,0,0
3.7672989492421E-06,-2.34565595746972E-05,-0.52734375,0,0
3.01379259326495E-06,-2.45140981860459E-05,-0.52734375,0,0
2.40066151491192E-06,-2.62106095760828E-05,-0.52734375,0,0
2.38941879615595E-06,-2.87562779703876E-05,-0.52734375,0,0
3.60599574378284E-06,-3.02610587823438E-05,-0.52734375,0,0
3.30175271301414E-06,-2.96719354082597E-05,-0.52734375,0,0
1.97862118511694E-06,-2.79959185718326E-05,-0.52734375,0,0
3.52558708982542E-06,-2.50676057476085E-05,-0.52734375,0,0
4.20617789131938E-06,-1.71239717019489E-05,-0.52734375,0,0
5.75027979721199E-06,-2.33631690207403E-05,-0.52734375,0,0
3.92341189581202E-06,-1.61378320626682E-05,-0.52734375,0,0
5.99937766310177E-06,-1.83373722393299E-05,-0.52734375,0,0
5.88555440117489E-06,-1.04365144579788E-05,-0.52734375,0,0
5.05640582559863E-06,-1.11428771560895E-05,-0.52734375,0,0
2.42003852690686E-06,-1.08438971437863E-05,-0.52734375,0,0
1.86373677024676E-06,-1.46856036735699E-05,-0.52734375,0,0
1.86898182619188E-06,-1.46145257531316E-05,-0.52734375,0,0
9.7275380994688E-07,-1.3929946362623E-05,-0.52734375,0,0
-1.60066377929979E-07,-1.47225127875572E-05,-0.52734375,0,0
-2.6069116643157E-07,-1.49143806993379E-05,-0.52734375,0,0
5.9002758234783E-07,-1.55071920744376E-05,-0.52734375,0,0
6.81772149846438E-08,-1.34700294438517E-05,-0.52734375,0,0
-5.7841231182465E-07,-1.40212523547234E-05,-0.52734375,0,0
-6.87605336224806E-07,-1.43953657243401E-05,-0.52734375,0,0
1.17083277473284E-06,-1.76124285644619E-05,-0.52734375,0,0
3.5831956211041E-06,-1.71489646163536E-05,-0.52734375,0,0
5.64292395210941E-06,-1.50086716530495E-05,-0.52734375,0,0
5.51185212316341E-06,-1.08307513073669E-05,-0.52734375,0,0
4.82345103591797E-06,-1.02608146335115E-05,-0.52734375,0,0
4.95516724186018E-06,-8.8398983280058E-06,-0.52734375,0,0
4.67310019303113E-06,-7.69902635511244E-06,-0.52734375,0,0
2.23641086449788E-06,-6.76409308653092E-06,-0.52734375,0,0
6.69760922278329E-08,-6.8039148573007E-06,-0.52734375,0,0
-1.08988990632497E-06,-6.90985780238407E-06,-0.52734375,0,0
-6.59247291423526E-07,-8.01439819042571E-06,-0.52734375,0,0
4.20730998484942E-07,-8.61183252709452E-06,-0.52734375,0,0
3.04807059592349E-07,-1.24180151033215E-05,-0.52734375,0,0
2.00112353354598E-07,-1.07232208392816E-05,-0.52734375,0,0
6.2617218077321E-08,-1.68600090546533E-05,-0.52734375,0,0
-1.45465355672059E-06,-1.79050366568845E-05,-0.52734375,0,0
-2.25733379011217E-06,-1.67001580848591E-05,-0.52734375,0,0
-2.21937125388649E-06,-1.24782500279252E-05,-0.52734375,0,0
-1.38503878588381E-06,-1.07840205600951E-05,-0.52734375,0,0
8.94568415787944E-07,-1.0702161489462E-05,-0.52734375,0,0
3.80506889996468E-06,-1.16963319669594E-05,-0.52734375,0,0
5.79596007810324E-06,-1.33317871586769E-05,-0.52734375,0,0
5.6068552112265E-06,-1.46205120472587E-05,-0.52734375,0,0
4.51962841907516E-06,-1.63067361427238E-05,-0.52734375,0,0
3.49200672644656E-06,-1.80285442183958E-05,-0.52734375,0,0
2.18706759369525E-06,-2.12643954000669E-05,-0.52734375,0,0
5.11999928676232E-07,-2.34321269090287E-05,-0.52734375,0,0
2.81926958223266E-07,-2.62114153883886E-05,-0.52734375,0,0
1.41034843181842E-06,-2.79465275525581E-05,-0.52734375,0,0
2.08255528377777E-06,-2.82900218735449E-05,-0.52734375,0,0
1.71878446053597E-06,-2.48180367634632E-05,-0.52734375,0,0
1.27351404444198E-06,-2.17033084481955E-05,-0.52734375,0,0
1.51799190462043E-06,-2.05930446099956E-05,-0.52734375,0,0
2.0011757442262E-06,-2.07757329917513E-05,-0.52734375,0,0
2.8510689844552E-06,-1.93204650713596E-05,-0.52734375,0,0
3.88019634556258E-06,-1.79246671905275E-05,-0.52734375,0,0
4.42951250079204E-06,-1.75118584593292E-05,-0.52734375,0,0
4.01398483518278E-06,-1.90313294297084E-05,-0.52734375,0,0
1.63034792421968E-06,-1.97236113308463E-05,-0.52734375,0,0
2.98573490908893E-06,-3.09680835925974E-05,-0.52734375,0,0
4.48766013505519E-06,-2.55721624853322E-05,-0.52734375,0,0
5.60232319912757E-06,-2.8468100936152E-05,-0.52734375,0,0
3.26422309626651E-06,-2.20557012653444E-05,-0.52734375,0,0
1.62767241818074E-06,-2.2269328837865E-05,-0.52734375,0,0
5.43251985618554E-07,-2.03506206162274E-05,-0.52734375,0,0
9.68945187196368E-07,-2.16504795389483E-05,-0.52734375,0,0
1.95609140973829E-06,-2.06003333005356E-05,-0.52734375,0,0
2.19274079427123E-06,-1.94732056115754E-05,-0.52734375,0,0
2.60316994626919E-07,-1.89933525689412E-05,-0.52734375,0,0
-2.21185018745018E-06,-1.83904012374114E-05,-0.52734375,0,0
-2.38810775954335E-06,-1.91249673662242E-05,-0.52734375,0,0
-1.06408845113037E-06,-1.71900665009161E-05,-0.52734375,0,0
-7.5456625836523E-07,-1.58603688760195E-05,-0.52734375,0,0
-1.64952643899596E-06,-1.37343668029644E-05,-0.52734375,0,0
-1.14186548216821E-06,-1.53417277033441E-05,-0.52734375,0,0
6.87942531385488E-07,-1.47706832649419E-05,-0.52734375,0,0
2.56221937888768E-06,-1.45619051181711E-05,-0.52734375,0,0
3.25640189657861E-06,-1.2908178177895E-05,-0.52734375,0,0
3.69647864317812E-06,-1.26762852232787E-05,-0.52734375,0,0
3.59657678927761E-06,-1.20929244076251E-05,-0.52734375,0,0
3.25030373460322E-06,-1.34119190988713E-05,-0.52734375,0,0
3.18030652124435E-06,-1.29981572172255E-05,-0.52734375,0,0
3.5172790830984E-06,-1.21207976917503E-05,-0.52734375,0,0
3.48299613506242E-06,-1.15195307444083E-05,-0.52734375,0,0
2.81052803074999E-06,-1.21851489893743E-05,-0.52734375,0,0
2.04559432859242E-06,-9.96855578705436E-06,-0.52734375,0,0
4.21472122980049E-06,-1.37025717776851E-05,-0.52734375,0,0
3.99710961573874E-06,-1.04758137240424E-05,-0.52734375,0,0
3.21072229780839E-06,-1.34235851874109E-05,-0.52734375,0,0
4.33154264101177E-06,-1.02026178865344E-05,-0.52734375,0,0
6.43937710265163E-06,-9.47353419178398E-06,-0.52734375,0,0
5.87136264584842E-06,-8.17165710031986E-06,-0.52734375,0,0
6.44968758933828E-06,-1.22642240967252E-05,-0.52734375,0,0
7.81054313847562E-06,-1.68728129210649E-05,-0.52734375,0,0
8.3101840573363E-06,-2.06441127375001E-05,-0.52734375,0,0
7.79778747528326E-06,-2.31353424169356E-05,-0.52734375,0,0
6.45470163362916E-06,-2.31289050134365E-05,-0.52734375,0,0
4.8028714445536E-06,-2.33914142881986E-05,-0.52734375,0,0
3.25978226101142E-06,-2.37709009525133E-05,-0.52734375,0,0
2.70473128693993E-06,-2.55310133070452E-05,-0.52734375,0,0
3.27471843775129E-06,-2.54059996223077E-05,-0.52734375,0,0
4.65393986814888E-06,-2.52196914516389E-05,-0.52734375,0,0
5.86060741625261E-06,-2.25039129873039E-05,-0.52734375,0,0
6.8724543780263E-06,-1.97662266145926E-05,-0.52734375,0,0
6.88566615281161E-06,-1.58595648827031E-05,-0.52734375,0,0
7.09423011358012E-06,-1.4358248336066E-05,-0.52734375,0,0
8.03009606897831E-06,-1.40136316986172E-05,-0.52734375,0,0
9.26656957744854E-06,-1.39099511216045E-05,-0.52734375,0,0
9.93478715827223E-06,-1.27292078104801E-05,-0.52734375,0,0
1.02545991467196E-05,-1.38348214022699E-05,-0.52734375,0,0
9.40396876103478E-06,-1.93451032828307E-05,-0.52734375,0,0
8.49677144287853E-06,-2.49251024797559E-05,-0.52734375,0,0
6.78859123581788E-06,-2.13437651837012E-05,-0.52734375,0,0
8.51022105052834E-06,-3.01506388495909E-05,-0.52734375,0,0
3.23537506119465E-06,-2.21099489863263E-05,-0.52734375,0,0
3.04811715068354E-06,-2.76101545750862E-05,-0.52734375,0,0
1.52617121784715E-06,-2.35922507272335E-05,-0.52734375,0,0
4.4130993046565E-06,-2.49451313720783E-05,-0.52734375,0,0
6.28791258350248E-06,-1.89884030987741E-05,-0.52734375,0,0
6.57821010463522E-06,-1.6995345504256E-05,-0.52734375,0,0
4.17901264881948E-06,-1.38114410219714E-05,-0.52734375,0,0
2.3874970338511E-06,-1.33749326778343E-05,-0.52734375,0,0
2.17276328839944E-06,-1.39544044941431E-05,-0.52734375,0,0
2.73530281447165E-06,-1.41652608363074E-05,-0.52734375,0,0
4.18803210777696E-06,-1.61965635925299E-05,-0.52734375,0,0
4.84275233247899E-06,-1.44442801683908E-05,-0.52734375,0,0
5.04823174196645E-06,-1.32759023472317E-05,-0.52734375,0,0
3.66100107385137E-06,-9.86882878351025E-06,-0.52734375,0,0
3.06553533846454E-06,-1.02134763437789E-05,-0.52734375,0,0
3.16339537675958E-06,-9.68355379882269E-06,-0.52734375,0,0
4.2401447899465E-06,-1.24961989058647E-05,-0.52734375,0,0
2.49021059062216E-06,-1.39561307150871E-05,-0.52734375,0,0
4.1236069137085E-07,-1.69226314028492E-05,-0.52734375,0,0
3.3055189874176E-07,-1.80147671926534E-05,-0.52734375,0,0
2.14385408980888E-06,-2.00228714675177E-05,-0.52734375,0,0
2.16392345464556E-06,-2.10879006772302E-05,-0.52734375,0,0
6.26816301974031E-07,-2.19977937376825E-05,-0.52734375,0,0
-5.06665401189821E-07,-2.21242826228263E-05,-0.52734375,0,0
-3.65611583674763E-07,-2.15423078770982E-05,-0.52734375,0,0
8.39625954540679E-07,-1.60929594130721E-05,-0.52734375,0,0
1.66287691172329E-06,-2.24130872084061E-05,-0.52734375,0,0
5.34445916855475E-07,-1.73635417013429E-05,-0.52734375,0,0
-9.93475396171561E-07,-2.20643487409689E-05,-0.52734375,0,0
-2.21820459955779E-06,-1.72960480995243E-05,-0.52734375,0,0
-2.73003320216958E-06,-1.81738505489193E-05,-0.52734375,0,0
-1.1044079428757E-06,-1.59127048391383E-05,-0.52734375,0,0
3.49852371073212E-07,-1.59581450134283E-05,-0.52734375,0,0
5.00656028634694E-07,-1.57217946252786E-05,-0.52734375,0,0
1.02285731884422E-07,-1.70037346833851E-05,-0.52734375,0,0
7.29940325072675E-07,-1.7835533071775E-05,-0.52734375,0,0
6.84843371345778E-07,-1.76335834112251E-05,-0.52734375,0,0
-9.8652867563942E-07,-1.83851243491517E-05,-0.52734375,0,0
-2.54506176133873E-06,-1.69788108905777E-05,-0.52734375,0,0
-2.47463049163343E-06,-1.75090426637325E-05,-0.52734375,0,0
-1.18326840947702E-06,-1.66287172760349E-05,-0.52734375,0,0
3.19742042620419E-07,-1.88714420801261E-05,-0.52734375,0,0
7.24435324173101E-07,-2.12158156500664E-05,-0.52734375,0,0
-5.69620510759705E-07,-2.43852682615398E-05,-0.52734375,0,0
-1.65044286859484E-06,-2.30454133998137E-05,-0.52734375,0,0
-2.00454223886481E-06,-1.97836434381315E-05,-0.52734375,0,0
-1.54152246523154E-06,-1.53357668750687E-05,-0.52734375,0,0
-1.16772196179227E-06,-1.43241204568767E-05,-0.52734375,0,0
-1.34348977098853E-06,-1.32706218209933E-05,-0.52734375,0,0
-1.37731876748148E-06,-1.13937594505842E-05,-0.52734375,0,0
-1.63107722528366E-06,-1.08654276118614E-05,-0.52734375,0,0
-1.86923841738462E-06,-1.32875366034568E-05,-0.52734375,0,0
6.93811500696029E-07,-1.17301533464342E-05,-0.52734375,0,0
2.00408885575598E-06,-1.59639075718587E-05,-0.52734375,0,0
2.28165527005331E-06,-1.26354443636956E-05,-0.52734375,0,0
1.85512146799738E-06,-1.84058571903734E-05,-0.52734375,0,0
3.04303216580593E-06,-1.7466412828071E-05,-0.52734375,0,0
4.33080049333512E-06,-1.90969149116427E-05,-0.52734375,0,0
4.93984998684027E-06,-1.73996759258443E-05,-0.52734375,0,0
7.28640452507534E-06,-1.76317134901183E-05,-0.52734375,0,0
9.8817799880635E-06,-1.71216543094488E-05,-0.52734375,0,0
1.03578913694946E-05,-1.67784128279891E-05,-0.52734375,0,0
8.3620479927049E-06,-1.64216144185048E-05,-0.52734375,0,0
5.38814674655441E-06,-1.54610243043862E-05,-0.52734375,0,0
4.41524161942652E-06,-1.64088633027859E-05,-0.52734375,0,0
4.53997836302733E-06,-1.75604836840648E-05,-0.52734375,0,0
5.6093931561918E-06,-1.97651606868021E-05,-0.52734375,0,0
6.84242604620522E-06,-1.94671156350523E-05,-0.52734375,0,0
6.01248575549107E-06,-1.90775754163042E-05,-0.52734375,0,0
2.78677953247097E-06,-1.64833727467339E-05,-0.52734375,0,0
4.51286666702799E-07,-1.48556819112855E-05,-0.52734375,0,0
2.06460086360494E-07,-1.2155668628111E-05,-0.52734375,0,0
3.88578911270088E-07,-1.15193060992169E-05,-0.52734375,0,0
8.69968289407552E-07,-1.21012835734291E-05,-0.52734375,0,0
1.95020334103901E-06,-1.29619993458618E-05,-0.52734375,0,0
3.41535292136541E-06,-1.21576549645397E-05,-0.52734375,0,0
4.40625672126771E-06,-1.16042947411188E-05,-0.52734375,0,0
4.24454265157692E-06,-1.09253360278672E-05,-0.52734375,0,0
2.96475081995595E-06,-1.02760086519993E-05,-0.52734375,0,0
1.35528955524933E-06,-9.41482721827924E-06,-0.52734375,0,0
1.94263111552573E-06,-1.5172199709923E-05,-0.52734375,0,0
1.59298804192076E-06,-1.28704132293933E-05,-0.52734375,0,0
2.64095979218837E-06,-1.35287127704942E-05,-0.52734375,0,0
3.56735540663067E-06,-1.17013860290172E-05,-0.52734375,0,0
4.86177441416658E-06,-1.38502227855497E-05,-0.52734375,0,0
5.10793643115903E-06,-1.26486356748501E-05,-0.52734375,0,0
4.72564670417341E-06,-1.22743094834732E-05,-0.52734375,0,0
3.82016787625616E-06,-1.26544446175103E-05,-0.52734375,0,0
3.79371272174467E-06,-1.47289283631835E-05,-0.52734375,0,0
4.32090382673778E-06,-1.67190319189103E-05,-0.52734375,0,0
3.93932032238808E-06,-1.73465996340383E-05,-0.52734375,0,0
3.14578369398077E-06,-1.81035484274616E-05,-0.52734375,0,0
3.39574785357399E-06,-1.66378013091162E-05,-0.52734375,0,0
4.07718925998779E-06,-1.47538712553796E-05,-0.52734375,0,0
3.54849930772616E-06,-1.23915178846801E-05,-0.52734375,0,0
3.06452011500369E-06,-1.24491152746486E-05,-0.52734375,0,0
3.13300893139967E-06,-1.23248264571885E-05,-0.52734375,0,0
3.71216697203636E-06,-1.34755318867974E-05,-0.52734375,0,0
4.54467408417258E-06,-1.40486808959395E-05,-0.52734375,0,0
5.88298644288443E-06,-1.44889500006684E-05,-0.52734375,0,0
6.28556244919309E-06,-1.3497051440936E-05,-0.52734375,0,0
5.63322373636765E-06,-1.33283319883049E-05,-0.52734375,0,0
4.86718408865272E-06,-1.5074064322107E-05,-0.52734375,0,0
4.39944642494083E-06,-1.62990363605786E-05,-0.52734375,0,0
4.51061396233854E-06,-1.52339598571416E-05,-0.52734375,0,0
4.84666225020192E-06,-1.34976444314816E-05,-0.52734375,0,0
5.03350520375534E-06,-1.10376950033242E-05,-0.52734375,0,0
7.68835525377654E-06,-1.73740882019047E-05,-0.52734375,0,0
5.96670088270912E-06,-1.57036574819358E-05,-0.52734375,0,0
8.35043920233147E-06,-1.76002922671614E-05,-0.52734375,0,0
9.1836527644773E-06,-1.34565925691277E-05,-0.52734375,0,0
9.39305027713999E-06,-1.48529197758762E-05,-0.52734375,0,0
7.9427272794419E-06,-1.38923023769166E-05,-0.52734375,0,0
7.05334787198808E-06,-1.23141344374744E-05,-0.52734375,0,0
5.90221679885872E-06,-1.0319558896299E-05,-0.52734375,0,0
5.50267850485398E-06,-1.13571986730676E-05,-0.52734375,0,0
5.69140593142947E-06,-1.37878114401246E-05,-0.52734375,0,0
5.38020640306058E-06,-1.54315494000912E-05,-0.52734375,0,0
5.06833293911768E-06,-1.62855321832467E-05,-0.52734375,0,0
4.24187419412192E-06,-1.54406152432784E-05,-0.52734375,0,0
3.25498331221752E-06,-1.56980822794139E-05,-0.52734375,0,0
1.57872477757337E-06,-1.52554921442061E-05,-0.52734375,0,0
9.50141782141145E-07,-1.7398371710442E-05,-0.52734375,0,0
3.76133471036155E-07,-1.89192742254818E-05,-0.52734375,0,0
6.90247873080807E-07,-2.03146919375286E-05,-0.52734375,0,0
1.48002663991065E-06,-1.97828539967304E-05,-0.52734375,0,0
2.67861878455733E-06,-1.90518112503923E-05,-0.52734375,0,0
2.9865000215068E-06,-1.722372326185E-05,-0.52734375,0,0
2.55413942795713E-06,-1.76614830706967E-05,-0.52734375,0,0
1.72260058661777E-06,-1.91978779184865E-05,-0.52734375,0,0
1.11630561150378E-06,-1.96517321455758E-05,-0.52734375,0,0
7.83870575560286E-07,-1.76484918483766E-05,-0.52734375,0,0
1.02071226137923E-06,-1.54911595018348E-05,-0.52734375,0,0
4.20547763724244E-07,-1.32213790493552E-05,-0.52734375,0,0
3.0610485168836E-07,-2.11220249184407E-05,-0.52734375,0,0
-4.34880035982133E-07,-1.78850059455726E-05,-0.52734375,0,0
-7.5581021974358E-07,-1.98261459445348E-05,-0.52734375,0,0
-1.33194919271773E-06,-1.65742203535046E-05,-0.52734375,0,0
-1.22475910302455E-06,-1.76921203092206E-05,-0.52734375,0,0
3.52482430798773E-07,-1.67379239428556E-05,-0.52734375,0,0
1.69689860740618E-06,-1.78492518898565E-05,-0.52734375,0,0
2.10958387469873E-06,-1.93655505427159E-05,-0.52734375,0,0
1.91584831554792E-06,-2.30931036639959E-05,-0.52734375,0,0
9.67657001638145E-07,-2.74583617283497E-05,-0.52734375,0,0
-2.49155590381633E-07,-3.14796780003235E-05,-0.52734375,0,0
-6.11027246577578E-07,-3.57255194103345E-05,-0.52734375,0,0
1.61728639369585E-08,-3.53670329786837E-05,-0.52734375,0,0
6.29263070095476E-07,-3.04183740809094E-05,-0.52734375,0,0
8.34445927466732E-07,-2.14164101635106E-05,-0.52734375,0,0
7.33243268769002E-07,-1.60484978550812E-05,-0.52734375,0,0
4.13426846535003E-07,-1.34550500661135E-05,-0.52734375,0,0
2.71519752459426E-07,-1.42240605782717E-05,-0.52734375,0,0
3.05577600556717E-07,-1.40623333209078E-05,-0.52734375,0,0
-1.50762488715372E-07,-1.42996959766606E-05,-0.52734375,0,0
-6.02072020683408E-07,-1.36423259391449E-05,-0.52734375,0,0
-6.46033811335656E-07,-1.42466988108936E-05,-0.52734375,0,0
2.64485624512645E-08,-1.42542048706673E-05,-0.52734375,0,0
1.36636617753538E-06,-1.43053212013911E-05,-0.52734375,0,0
8.79354615790362E-07,-1.76438552443869E-05,-0.52734375,0,0
-1.13271755708411E-06,-2.22145044972422E-05,-0.52734375,0,0
-6.6792836150853E-07,-2.01406746782595E-05,-0.52734375,0,0
7.06333693756278E-08,-3.03581891785143E-05,-0.52734375,0,0
8.03855471076531E-07,-2.58206528087612E-05,-0.52734375,0,0
1.11656845547259E-06,-3.18736456392799E-05,-0.52734375,0,0
1.87519231076294E-06,-2.75602506007999E-05,-0.52734375,0,0
5.8958994486602E-07,-2.7492678782437E-05,-0.52734375,0,0
1.55626855757873E-06,-2.0636769477278E-05,-0.52734375,0,0
2.9806251404807E-06,-1.84680357051548E-05,-0.52734375,0,0
2.88302658191242E-06,-1.70182502188254E-05,-0.52734375,0,0
1.55736438500753E-06,-1.80803726834711E-05,-0.52734375,0,0
4.70289251097711E-07,-1.93256219063187E-05,-0.52734375,0,0
1.72778698015463E-07,-1.85183962457813E-05,-0.52734375,0,0
9.94738684312324E-07,-1.83886986633297E-05,-0.52734375,0,0
2.30990895033756E-06,-1.55700581672136E-05,-0.52734375,0,0
2.59751914200024E-06,-1.36939825097215E-05,-0.52734375,0,0
1.20931224500964E-06,-1.05881863419199E-05,-0.52734375,0,0
-1.45605281431926E-06,-1.22824785648845E-05,-0.52734375,0,0
-1.41446071211249E-06,-1.27984376376844E-05,-0.52734375,0,0
1.70462601545296E-06,-1.36241660584346E-05,-0.52734375,0,0
4.81106235383777E-06,-1.17816998681519E-05,-0.52734375,0,0
5.65045274925069E-06,-1.28916763060261E-05,-0.52734375,0,0
5.33846105099656E-06,-1.30337675727787E-05,-0.52734375,0,0
5.29697672391194E-06,-1.45301082739024E-05,-0.52734375,0,0
6.54559062240878E-06,-1.72474119608523E-05,-0.52734375,0,0
7.09008645571885E-06,-1.9603488908615E-05,-0.52734375,0,0
6.17913565292838E-06,-1.86819670489058E-05,-0.52734375,0,0
5.19378590979613E-06,-1.72080526681384E-05,-0.52734375,0,0
3.10752739096642E-06,-1.37762926897267E-05,-0.52734375,0,0
4.21339882450411E-06,-1.89925031008897E-05,-0.52734375,0,0
3.74335195374442E-06,-1.44129262480419E-05,-0.52734375,0,0
5.56686154595809E-06,-2.02368973987177E-05,-0.52734375,0,0
4.50861398348934E-06,-1.94025542441523E-05,-0.52734375,0,0
3.78741378881386E-06,-2.14996089198394E-05,-0.52734375,0,0
2.63766446551017E-06,-1.99053447431652E-05,-0.52734375,0,0
2.8249971819605E-06,-2.00670619960874E-05,-0.52734375,0,0
1.81903078555479E-06,-2.00171525648329E-05,-0.52734375,0,0
2.2466633708973E-06,-2.10329326364445E-05,-0.52734375,0,0
3.62463129022217E-06,-2.07690936804283E-05,-0.52734375,0,0
3.64247034667642E-06,-1.88113681360846E-05,-0.52734375,0,0
2.50587390837609E-06,-1.7601430954528E-05,-0.52734375,0,0
1.27548912587372E-06,-1.5220610293909E-05,-0.52734375,0,0
1.93885807675542E-06,-1.44685491250129E-05,-0.52734375,0,0
3.3104918202298E-06,-1.31444940052461E-05,-0.52734375,0,0
4.61208719571005E-06,-1.48681256177952E-05,-0.52734375,0,0
4.14820624428103E-06,-1.54294411913725E-05,-0.52734375,0,0
3.66386802852503E-06,-1.58363418449881E-05,-0.52734375,0,0
3.72724889530218E-06,-1.41316986628226E-05,-0.52734375,0,0
4.92548724650987E-06,-1.50321902765427E-05,-0.52734375,0,0
5.17883290740428E-06,-1.69584527611732E-05,-0.52734375,0,0
5.42579664397636E-06,-2.08629608096089E-05,-0.52734375,0,0
6.14250666330918E-06,-2.48318265221315E-05,-0.52734375,0,0
4.88085970573593E-06,-2.70020682364702E-05,-0.52734375,0,0
2.35995435104996E-06,-2.48227988777217E-05,-0.52734375,0,0
1.88170008641464E-06,-2.12464547075797E-05,-0.52734375,0,0
1.92038510249404E-06,-1.44280011227238E-05,-0.52734375,0,0
2.82554765362875E-06,-1.90711980394553E-05,-0.52734375,0,0
1.76507683136151E-06,-1.37810984597309E-05,-0.52734375,0,0
6.13743623034679E-07,-1.9532428268576E-05,-0.52734375,0,0
6.55038149943721E-07,-1.78298141690902E-05,-0.52734375,0,0
4.23972051066812E-06,-2.19154699152568E-05,-0.52734375,0,0
7.10108815837884E-06,-2.30947352974908E-05,-0.52734375,0,0
8.47926094138529E-06,-2.53335892921314E-05,-0.52734375,0,0
7.17447301212815E-06,-2.40478602790972E-05,-0.52734375,0,0
5.09948813487426E-06,-2.39656437770464E-05,-0.52734375,0,0
4.83172243548324E-06,-2.47339412453584E-05,-0.52734375,0,0
5.49853257325594E-06,-2.39615474129096E-05,-0.52734375,0,0
6.07697757004644E-06,-2.40441986534279E-05,-0.52734375,0,0
6.15384033153532E-06,-2.35207753576105E-05,-0.52734375,0,0
5.87545264352229E-06,-2.51128876698203E-05,-0.52734375,0,0
4.9859581849887E-06,-2.42827136389678E-05,-0.52734375,0,0
4.64394906884991E-06,-2.35507886827691E-05,-0.52734375,0,0
4.58200929642771E-06,-1.95192023966229E-05,-0.52734375,0,0
5.45765578863211E-06,-1.67075122590177E-05,-0.52734375,0,0
6.31036209597369E-06,-1.38085379148833E-05,-0.52734375,0,0
6.66298092255602E-06,-1.35314840008505E-05,-0.52734375,0,0
5.9492726904864E-06,-1.32837394630769E-05,-0.52734375,0,0
5.81730000703828E-06,-1.46459042298375E-05,-0.52734375,0,0
7.07376148056937E-06,-1.45304193210904E-05,-0.52734375,0,0
9.09111804503482E-06,-1.32741442939732E-05,-0.52734375,0,0
1.0361183740315E-05,-1.38875002448913E-05,-0.52734375,0,0
9.4014139904175E-06,-1.61720454343595E-05,-0.52734375,0,0
6.11079076406895E-06,-1.34934434754541E-05,-0.52734375,0,0
7.93534854892641E-06,-1.88800568139413E-05,-0.52734375,0,0
4.84296833747067E-06,-1.33485218611895E-05,-0.52734375,0,0
5.34159653398092E-06,-1.60548643179936E-05,-0.52734375,0,0
4.18222089137998E-06,-1.25986098282738E-05,-0.52734375,0,0
6.48874220132711E-06,-1.4244334124669E-05,-0.52734375,0,0
6.50611173114157E-06,-1.44393216032768E-05,-0.52734375,0,0
8.30591125122737E-06,-1.63858039741172E-05,-0.52734375,0,0
7.72622024669545E-06,-1.61569496412994E-05,-0.52734375,0,0
6.30915019428357E-06,-1.55222951434553E-05,-0.52734375,0,0
5.10219297211734E-06,-1.44363457366126E-05,-0.52734375,0,0
3.06301467389858E-06,-1.41002774398657E-05,-0.52734375,0,0
2.25486814997566E-06,-1.56273254106054E-05,-0.52734375,0,0
2.55980012298096E-06,-1.50785554069444E-05,-0.52734375,0,0
3.71037435797916E-06,-1.45219310070388E-05,-0.52734375,0,0
2.84850170828577E-06,-1.1750934390875E-05,-0.52734375,0,0
2.3079919628799E-06,-1.04223727248609E-05,-0.52734375,0,0
1.84604016340018E-06,-8.85958161234157E-06,-0.52734375,0,0
2.84212524093164E-06,-1.00852685136488E-05,-0.52734375,0,0
3.13296868625912E-06,-9.68507265497465E-06,-0.52734375,0,0
3.83534188586054E-06,-8.74808483786182E-06,-0.52734375,0,0
3.81648123948253E-06,-6.46358193989727E-06,-0.52734375,0,0
4.16452166973613E-06,-5.79397692490602E-06,-0.52734375,0,0
3.66558560926933E-06,-6.42148961560451E-06,-0.52734375,0,0
3.28173382513341E-06,-9.51995934883598E-06,-0.52734375,0,0
3.76671346202784E-06,-1.24928455988993E-05,-0.52734375,0,0
4.22013545176014E-06,-1.36845610541059E-05,-0.52734375,0,0
2.59732246377098E-06,-1.13082087409566E-05,-0.52734375,0,0
3.27254542753508E-06,-1.68433489307063E-05,-0.52734375,0,0
2.74471358352457E-06,-1.60510935529601E-05,-0.52734375,0,0
3.66363929060753E-06,-2.44641232711729E-05,-0.52734375,0,0
3.43089527632401E-06,-2.68635849351995E-05,-0.52734375,0,0
4.46774629381252E-06,-2.96988891932415E-05,-0.52734375,0,0
3.34437072524452E-06,-2.70597502094461E-05,-0.52734375,0,0
2.23600818571867E-06,-2.41656798607437E-05,-0.52734375,0,0
8.19573301669152E-07,-1.91876224562293E-05,-0.52734375,0,0
5.04928095779178E-07,-1.55786619870923E-05,-0.52734375,0,0
7.98607345586788E-07,-1.42154503919301E-05,-0.52734375,0,0
9.53856670093955E-07,-1.34672245621914E-05,-0.52734375,0,0
1.00815123005304E-06,-1.31729193526553E-05,-0.52734375,0,0
7.4631913093981E-07,-1.21502453112043E-05,-0.52734375,0,0
6.1217781421874E-07,-1.34768333737156E-05,-0.52734375,0,0
-5.70459519622091E-07,-1.29876370920101E-05,-0.52734375,0,0
-1.70746920957754E-06,-1.29108966575586E-05,-0.52734375,0,0
-2.9044597340544E-06,-1.254086055269E-05,-0.52734375,0,0
-2.84734596789349E-06,-1.48176841321401E-05,-0.52734375,0,0
-3.34150468006555E-06,-1.62066826305818E-05,-0.52734375,0,0
-4.02447676606243E-06,-1.75617788045201E-05,-0.52734375,0,0
-4.03600324716535E-06,-1.84479486051714E-05,-0.52734375,0,0
-2.99984071716608E-06,-1.95781485672342E-05,-0.52734375,0,0
-1.38262964810565E-06,-1.79608650796581E-05,-0.52734375,0,0
-5.21072195169836E-07,-1.62213837029412E-05,-0.52734375,0,0
-2.08992469197256E-06,-1.53336259245407E-05,-0.52734375,0,0
-3.16324781124422E-06,-1.59454066306353E-05,-0.52734375,0,0
-2.4284695427923E-06,-1.45584335768945E-05,-0.52734375,0,0
-2.32119987231272E-06,-2.11096412385814E-05,-0.52734375,0,0
-3.08544088056806E-08,-1.62188844115008E-05,-0.52734375,0,0
-1.01924092632544E-06,-2.0398010747158E-05,-0.52734375,0,0
-5.40032203844021E-07,-1.74867036548676E-05,-0.52734375,0,0
-1.76928649509023E-09,-1.75397490238538E-05,-0.52734375,0,0
6.71341638280865E-07,-1.39763060360565E-05,-0.52734375,0,0
-2.12309700486912E-07,-1.35945356305456E-05,-0.52734375,0,0
-1.27604198496556E-06,-1.20130380310002E-05,-0.52734375,0,0
-1.88392573363672E-06,-1.24024036267656E-05,-0.52734375,0,0
-1.9303074623167E-06,-1.50742480400368E-05,-0.52734375,0,0
-2.88351316157787E-06,-1.60240106197307E-05,-0.52734375,0,0
-3.54710277861159E-06,-1.56900805450277E-05,-0.52734375,0,0
-1.8840314623958E-06,-1.38382538352744E-05,-0.52734375,0,0
-8.56066506571551E-08,-1.46718884934671E-05,-0.52734375,0,0
1.39721555569849E-06,-1.43381921589025E-05,-0.52734375,0,0
2.39485029851494E-06,-1.46275287988828E-05,-0.52734375,0,0
3.1475528885494E-06,-1.23882373372908E-05,-0.52734375,0,0
2.72727925221261E-06,-1.24707494251197E-05,-0.52734375,0,0
2.69768770522205E-06,-1.28461397252977E-05,-0.52734375,0,0
3.0332732876559E-06,-1.39716639750986E-05,-0.52734375,0,0
3.61316642738529E-06,-1.30285707200528E-05,-0.52734375,0,0
3.5994073641632E-06,-1.26715422084089E-05,-0.52734375,0,0
2.62761545855028E-06,-1.31053720906493E-05,-0.52734375,0,0
1.70336988958297E-06,-1.49776633406873E-05,-0.52734375,0,0
2.46663762482058E-06,-1.79349826794351E-05,-0.52734375,0,0
3.16348814521916E-06,-2.12331233342411E-05,-0.52734375,0,0
2.84333805211645E-06,-1.79664748429786E-05,-0.52734375,0,0
4.34234880231088E-06,-2.46281033469131E-05,-0.52734375,0,0
3.33749130732031E-06,-1.68628193932818E-05,-0.52734375,0,0
3.98041993321385E-06,-2.00871018023463E-05,-0.52734375,0,0
4.05877381126629E-06,-1.49026063809288E-05,-0.52734375,0,0
4.65801758764428E-06,-1.66017634910531E-05,-0.52734375,0,0
3.43894976140291E-06,-1.60162653628504E-05,-0.52734375,0,0
3.82740063287201E-06,-2.02445244212868E-05,-0.52734375,0,0
4.83696112496546E-06,-2.17638189496938E-05,-0.52734375,0,0
4.81410097563639E-06,-2.24518898903625E-05,-0.52734375,0,0
4.55060671811225E-06,-2.1410065528471E-05,-0.52734375,0,0
3.84553777621477E-06,-1.94963613466825E-05,-0.52734375,0,0
2.46622198574187E-06,-2.1486377590918E-05,-0.52734375,0,0
1.60109800617647E-06,-2.25519706873456E-05,-0.52734375,0,0
2.55896839007619E-06,-2.42124788201181E-05,-0.52734375,0,0
3.48507342096127E-06,-2.23916631512111E-05,-0.52734375,0,0
4.22734183302964E-06,-2.19191388168838E-05,-0.52734375,0,0
5.3917810873827E-06,-1.99923943000613E-05,-0.52734375,0,0
6.55810345051577E-06,-1.99850492208498E-05,-0.52734375,0,0
5.41830058864434E-06,-1.73488951986656E-05,-0.52734375,0,0
3.32597051055927E-06,-1.76191570062656E-05,-0.52734375,0,0
2.18158993448014E-06,-1.8274164176546E-05,-0.52734375,0,0
2.78122956842708E-06,-1.84626151167322E-05,-0.52734375,0,0
4.10468510381179E-06,-1.74490778590553E-05,-0.52734375,0,0
5.20251023772289E-06,-1.71928841155022E-05,-0.52734375,0,0
4.84102520204033E-06,-1.64355733431876E-05,-0.52734375,0,0
3.9864203245088E-06,-1.5825018635951E-05,-0.52734375,0,0
2.04488310373563E-06,-1.26857130453573E-05,-0.52734375,0,0
2.24323230213486E-06,-1.81042560143396E-05,-0.52734375,0,0
1.25932729133638E-06,-1.39310959639261E-05,-0.52734375,0,0
2.48985475082009E-06,-1.72001746250317E-05,-0.52734375,0,0
3.11161329591414E-06,-1.4139455743134E-05,-0.52734375,0,0
4.27651957579656E-06,-1.47086448123446E-05,-0.52734375,0,0
4.1705070543685E-06,-1.24251946544973E-05,-0.52734375,0,0
4.86102635477437E-06,-1.31222050185897E-05,-0.52734375,0,0
5.12706310473732E-06,-1.33511448439094E-05,-0.52734375,0,0
5.09776509716176E-06,-1.29772543004947E-05,-0.52734375,0,0
4.80829430671292E-06,-1.2466966836655E-05,-0.52734375,0,0
4.47035563411191E-06,-1.19337728392566E-05,-0.52734375,0,0
4.29904548582272E-06,-1.26939085021149E-05,-0.52734375,0,0
2.93442303700431E-06,-1.2834058907174E-05,-0.52734375,0,0
1.61857030889223E-06,-1.47775726873078E-05,-0.52734375,0,0
1.23493055070867E-06,-1.56490004883381E-05,-0.52734375,0,0
2.11002566175011E-06,-1.75515706359874E-05,-0.52734375,0,0
2.5450333396293E-06,-1.65319124789676E-05,-0.52734375,0,0
2.89831496047555E-06,-1.60346389748156E-05,-0.52734375,0,0
2.61133277490444E-06,-1.61191874212818E-05,-0.52734375,0,0
1.90789205589681E-06,-1.86118541023461E-05,-0.52734375,0,0
8.08653283002059E-07,-2.04952411877457E-05,-0.52734375,0,0
-2.54924472642415E-08,-2.16226762859151E-05,-0.52734375,0,0
-5.09246547153452E-08,-2.05215856112773E-05,-0.52734375,0,0
4.88610680804413E-07,-2.06020540645113E-05,-0.52734375,0,0
1.72657649954999E-07,-2.22028738789959E-05,-0.52734375,0,0
-4.40204189544602E-07,-2.18030672840541E-05,-0.52734375,0,0
-3.95714238266009E-07,-1.64782813953934E-05,-0.52734375,0,0
-6.70377033884506E-08,-2.43318900174927E-05,-0.52734375,0,0
7.12657254098303E-07,-1.98184206965379E-05,-0.52734375,0,0
1.33193475448934E-06,-2.26230276894057E-05,-0.52734375,0,0
2.65748781203001E-06,-1.64011435117573E-05,-0.52734375,0,0
2.62212506640935E-06,-1.71149167726981E-05,-0.52734375,0,0
2.06447089112771E-06,-1.63751501531806E-05,-0.52734375,0,0
2.63410197476333E-06,-1.89329857676057E-05,-0.52734375,0,0
3.57203975909215E-06,-1.86985325854039E-05,-0.52734375,0,0
3.37810070050182E-06,-1.95120501302881E-05,-0.52734375,0,0
2.76368086815637E-06,-2.08642122743186E-05,-0.52734375,0,0
2.41530347011576E-06,-2.07115499506472E-05,-0.52734375,0,0
2.82575751953118E-06,-2.10058788070455E-05,-0.52734375,0,0
2.91244805339375E-06,-2.07221200980712E-05,-0.52734375,0,0
2.11705787478422E-06,-2.25860767386621E-05,-0.52734375,0,0
1.24391749523056E-06,-2.25560816033976E-05,-0.52734375,0,0
4.98049644193088E-07,-2.35849020100432E-05,-0.52734375,0,0
3.04960053654213E-07,-2.17301458178554E-05,-0.52734375,0,0
2.20505512515956E-07,-2.19199991988717E-05,-0.52734375,0,0
-1.83612456794435E-07,-2.07484572456451E-05,-0.52734375,0,0
2.90987287598909E-07,-2.14698720810702E-05,-0.52734375,0,0
2.6438112854521E-06,-2.22010821744334E-05,-0.52734375,0,0
4.15285285271239E-06,-2.37649201153545E-05,-0.52734375,0,0
4.17161527366261E-06,-2.48832093348028E-05,-0.52734375,0,0
3.62576452062058E-06,-2.43634076468879E-05,-0.52734375,0,0
2.70062992058229E-06,-2.04846437554806E-05,-0.52734375,0,0
2.96746861749853E-06,-1.80449533218052E-05,-0.52734375,0,0
2.29638635573792E-06,-1.29449681480764E-05,-0.52734375,0,0
3.04658965433191E-06,-1.67955367942341E-05,-0.52734375,0,0
3.49672450283833E-06,-1.22368837764952E-05,-0.52734375,0,0
5.03855471833958E-06,-1.63880667969352E-05,-0.52734375,0,0
2.7282228529657E-06,-1.25685310194967E-05,-0.52734375,0,0
1.5055211406434E-06,-1.31113174575148E-05,-0.52734375,0,0
-1.05803238170665E-07,-1.00073320936644E-05,-0.52734375,0,0
9.22479273413046E-07,-1.09776619865443E-05,-0.52734375,0,0
2.56738735515682E-06,-1.09292222987278E-05,-0.52734375,0,0
2.69363476945728E-06,-1.10929468064569E-05,-0.52734375,0,0
2.56744897342287E-06,-1.07657397165895E-05,-0.52734375,0,0
2.77811318483145E-06,-9.49023433349794E-06,-0.52734375,0,0
3.49772562913131E-06,-1.08007689050282E-05,-0.52734375,0,0
3.39717348651902E-06,-1.07633641164284E-05,-0.52734375,0,0
2.94908318210219E-06,-1.20956101454794E-05,-0.52734375,0,0
2.04226876121538E-06,-1.31641545522143E-05,-0.52734375,0,0
1.26451857340726E-06,-1.69371887750458E-05,-0.52734375,0,0
2.14889226413106E-07,-1.89393977052532E-05,-0.52734375,0,0
7.42650286156277E-07,-2.04444932023762E-05,-0.52734375,0,0
1.89538570793957E-06,-1.84211385203525E-05,-0.52734375,0,0
2.80105336969427E-06,-1.70526454894571E-05,-0.52734375,0,0
3.73034504264069E-06,-1.51592994370731E-05,-0.52734375,0,0
4.92997514811577E-06,-1.32555196614703E-05,-0.52734375,0,0
6.02586533204885E-06,-1.04825157904997E-05,-0.52734375,0,0
6.14072769167251E-06,-9.59170029091183E-06,-0.52734375,0,0
4.02265186494333E-06,-8.97951213119086E-06,-0.52734375,0,0
2.5283993636549E-06,-9.09130358195398E-06,-0.52734375,0,0
3.14006433654868E-06,-8.46801594889257E-06,-0.52734375,0,0
5.09834899276029E-06,-1.2365281691018E-05,-0.52734375,0,0
4.35753645433579E-06,-1.01233699751901E-05,-0.52734375,0,0
5.08148968947353E-06,-1.31004262584611E-05,-0.52734375,0,0
4.23083793066326E-06,-1.31030255943188E-05,-0.52734375,0,0
3.57716112375783E-06,-1.70896983036073E-05,-0.52734375,0,0
3.72219301425503E-06,-2.13429102586815E-05,-0.52734375,0,0
4.43179305875674E-06,-2.85792957583908E-05,-0.52734375,0,0
2.85145824818756E-06,-3.40195292665157E-05,-0.52734375,0,0
6.57041425711213E-07,-3.53035939042456E-05,-0.52734375,0,0
2.0080680940282E-07,-3.2440173526993E-05,-0.52734375,0,0
1.04406558421033E-06,-2.80646490864456E-05,-0.52734375,0,0
1.96457790480054E-06,-2.52244699368021E-05,-0.52734375,0,0
2.68342319031945E-06,-2.19011853914708E-05,-0.52734375,0,0
3.90668492400437E-06,-1.95794655155623E-05,-0.52734375,0,0
4.22754465034814E-06,-1.85631288331933E-05,-0.52734375,0,0
4.38592178397812E-06,-1.97454610315617E-05,-0.52734375,0,0
4.94981395604555E-06,-1.8763517800835E-05,-0.52734375,0,0
6.27478721071384E-06,-1.76975790964207E-05,-0.52734375,0,0
6.37824041405111E-06,-1.72680429386674E-05,-0.52734375,0,0
6.04577235208126E-06,-1.96094606508268E-05,-0.52734375,0,0
6.42738541500876E-06,-2.23204879148398E-05,-0.52734375,0,0
7.20540947440895E-06,-2.47765237872954E-05,-0.52734375,0,0
7.25108384358464E-06,-2.56865932897199E-05,-0.52734375,0,0
7.42353358873515E-06,-2.63702768279472E-05,-0.52734375,0,0
8.21581124910153E-06,-2.69732790911803E-05,-0.52734375,0,0
9.41843518376118E-06,-2.7047899493482E-05,-0.52734375,0,0
8.42809458845295E-06,-2.18918958125869E-05,-0.52734375,0,0
1.29317904793425E-05,-3.06566835206468E-05,-0.52734375,0,0
1.05936596810352E-05,-2.11854130611755E-05,-0.52734375,0,0
1.3361322999117E-05,-2.3910763047752E-05,-0.52734375,0,0
1.16261735456646E-05,-1.64368248078972E-05,-0.52734375,0,0
1.02126741694519E-05,-1.81752729986329E-05,-0.52734375,0,0
8.24274684418924E-06,-1.57470676640514E-05,-0.52734375,0,0
8.0073141361936E-06,-1.65989513334353E-05,-0.52734375,0,0
5.27233669345151E-06,-1.56459991558222E-05,-0.52734375,0,0
2.86419026451767E-06,-1.67410526046297E-05,-0.52734375,0,0
1.87687521702173E-06,-1.67090311151696E-05,-0.52734375,0,0
2.07334710466967E-06,-1.37535007525003E-05,-0.52734375,0,0
2.3679751848249E-06,-1.29177615235676E-05,-0.52734375,0,0
8.82359756815276E-07,-1.12386187538505E-05,-0.52734375,0,0
6.19152501712961E-07,-1.25204051073524E-05,-0.52734375,0,0
1.78603488620865E-06,-1.14379317892599E-05,-0.52734375,0,0
4.50088464276632E-06,-1.32634504552698E-05,-0.52734375,0,0
5.50837467017118E-06,-1.32044151541777E-05,-0.52734375,0,0
6.85520490151248E-06,-1.51214908328257E-05,-0.52734375,0,0
6.88671980242361E-06,-1.52445873027318E-05,-0.52734375,0,0
6.60980776956421E-06,-1.62387641466921E-05,-0.52734375,0,0
5.80094820179511E-06,-1.37954457386513E-05,-0.52734375,0,0
6.13194742982159E-06,-1.25740170915378E-05,-0.52734375,0,0
5.92085825701361E-06,-1.24293364933692E-05,-0.52734375,0,0
4.52368931291858E-06,-1.43902352647274E-05,-0.52734375,0,0
2.97406722893356E-06,-1.52692500705598E-05,-0.52734375,0,0
4.52577251053299E-06,-1.49346342368517E-05,-0.52734375,0,0
5.86505893807043E-06,-1.02371723187389E-05,-0.52734375,0,0
6.72948499413906E-06,-1.2648373740376E-05,-0.52734375,0,0
1.03037280041463E-06,-7.52573805584689E-06,-0.52734375,0,0
-3.91301171021041E-07,-9.72400175669463E-06,-0.52734375,0,0
-2.65513381236815E-06,-7.30567626305856E-06,-0.52734375,0,0
-3.25829341818462E-06,-7.80937716626795E-06,-0.52734375,0,0
-4.97899100082577E-06,-3.68696169061877E-06,-0.52734375,0,0
-4.4918165258423E-06,-2.35952279581397E-06,-0.52734375,0,0
-4.39290579379303E-06,-2.72408351520426E-06,-0.52734375,0,0
-3.92757192457793E-06,-7.06229729985353E-06,-0.52734375,0,0
-3.34967762682936E-06,-1.2052662896167E-05,-0.52734375,0,0
-3.14080784846738E-06,-1.42222570502781E-05,-0.52734375,0,0
-1.41330690439645E-06,-1.58165803441079E-05,-0.52734375,0,0
1.860981626578E-07,-1.68953938555205E-05,-0.52734375,0,0
3.52134691183892E-07,-1.86977031262359E-05,-0.52734375,0,0
-2.06671825253579E-06,-1.77501369762467E-05,-0.52734375,0,0
-3.83301585316076E-06,-1.88367575901793E-05,-0.52734375,0,0
-4.57516716778628E-06,-2.06849872483872E-05,-0.52734375,0,0
-3.74694491256378E-06,-2.32574693654897E-05,-0.52734375,0,0
-3.36702100867115E-06,-2.28767712542322E-05,-0.52734375,0,0
-1.73266141700879E-06,-2.28898388741072E-05,-0.52734375,0,0
-2.05797462626833E-07,-2.24519717448857E-05,-0.52734375,0,0
9.02315377970808E-07,-2.51801720878575E-05,-0.52734375,0,0
7.14936163603852E-07,-3.0693718144903E-05,-0.52734375,0,0
2.22984397169057E-07,-3.36931625497527E-05,-0.52734375,0,0
-5.24360643794353E-07,-3.15073775709607E-05,-0.52734375,0,0
-1.09853658614156E-06,-2.94734109047567E-05,-0.52734375,0,0
-9.27155269891955E-07,-2.4082846721285E-05,-0.52734375,0,0
-1.64414427672455E-06,-3.38711142831016E-05,-0.52734375,0,0
-2.14694205169508E-06,-2.19780704355799E-05,-0.52734375,0,0
-1.64875757491245E-06,-2.16713488043752E-05,-0.52734375,0,0
8.50531705509638E-07,-1.23196359709254E-05,-0.52734375,0,0
9.03669672425167E-07,-1.54371518874541E-05,-0.52734375,0,0
6.2582739701611E-07,-1.35270011014654E-05,-0.52734375,0,0
5.91037576214148E-07,-1.39880166898365E-05,-0.52734375,0,0
2.12429290513683E-06,-1.32680024762521E-05,-0.52734375,0,0
4.41000702267047E-06,-1.50288242366514E-05,-0.52734375,0,0
5.16976797371171E-06,-1.54703429871006E-05,-0.52734375,0,0
5.39994653081521E-06,-1.27312441691174E-05,-0.52734375,0,0
5.96404561292729E-06,-1.24704647532781E-05,-0.52734375,0,0
6.01010196987772E-06,-1.1510568583617E-05,-0.52734375,0,0
4.79643949802266E-06,-1.37888282552012E-05,-0.52734375,0,0
4.35373385698767E-06,-1.34532165247947E-05,-0.52734375,0,0
4.65551102024619E-06,-1.39401709020603E-05,-0.52734375,0,0
5.0468997869757E-06,-1.15407774501364E-05,-0.52734375,0,0
5.07179993292084E-06,-1.29193203974864E-05,-0.52734375,0,0
5.27884503753739E-06,-1.23351619549794E-05,-0.52734375,0,0
5.69236635783454E-06,-1.36276303237537E-05,-0.52734375,0,0
6.52590870231506E-06,-1.31073948068661E-05,-0.52734375,0,0
7.45075703889597E-06,-1.27638468256919E-05,-0.52734375,0,0
7.44713452149881E-06,-1.20659515232546E-05,-0.52734375,0,0
7.2524740062363E-06,-1.18806983664399E-05,-0.52734375,0,0
8.05274703452596E-06,-1.16216297101346E-05,-0.52734375,0,0
9.4042370619718E-06,-1.29904119603452E-05,-0.52734375,0,0
6.64006347506074E-06,-1.16211431304691E-05,-0.52734375,0,0
7.41030680728727E-06,-1.88995927601354E-05,-0.52734375,0,0
3.88780881621642E-06,-1.73478638316737E-05,-0.52734375,0,0
6.98162375556421E-06,-1.86474553629523E-05,-0.52734375,0,0
5.41395320396987E-06,-1.30919806906604E-05,-0.52734375,0,0
5.95342453379999E-06,-1.10635000964976E-05,-0.52734375,0,0
4.39978975919075E-06,-9.60737725108629E-06,-0.52734375,0,0
4.91158425575122E-06,-1.2683149179793E-05,-0.52734375,0,0
5.30509259988321E-06,-1.48684866871918E-05,-0.52734375,0,0
6.16181569057517E-06,-1.64037246577209E-05,-0.52734375,0,0
6.30944214208284E-06,-1.76229077624157E-05,-0.52734375,0,0
5.37749383511255E-06,-1.77687525138026E-05,-0.52734375,0,0
5.39768052476575E-06,-1.78955542651238E-05,-0.52734375,0,0
4.84774818687583E-06,-1.70904440892627E-05,-0.52734375,0,0
4.69920496470877E-06,-1.76041976374108E-05,-0.52734375,0,0
2.81006487057311E-06,-1.66673344210722E-05,-0.52734375,0,0
1.90448179182567E-06,-1.70646108017536E-05,-0.52734375,0,0
2.13008024729788E-06,-1.71902593137929E-05,-0.52734375,0,0
3.68227142644173E-06,-1.91595736396266E-05,-0.52734375,0,0
2.42482315115922E-06,-2.09931840799982E-05,-0.52734375,0,0
4.02252652520474E-07,-2.30214536713902E-05,-0.52734375,0,0
-1.03901777492865E-06,-2.24356626858935E-05,-0.52734375,0,0
-1.23357142456371E-06,-2.19670328078792E-05,-0.52734375,0,0
-2.45697219725116E-06,-2.26450283662416E-05,-0.52734375,0,0
-2.3530856196885E-06,-2.31666163017508E-05,-0.52734375,0,0
-2.47431700017842E-07,-2.04927164304536E-05,-0.52734375,0,0
1.07560674678098E-06,-1.71573337865993E-05,-0.52734375,0,0
-6.6015820721077E-07,-1.18418620331795E-05,-0.52734375,0,0
-1.6437562635474E-06,-1.65777146321489E-05,-0.52734375,0,0
-1.04247976651095E-06,-1.30760663523688E-05,-0.52734375,0,0
-1.2243493756614E-06,-1.62582728080451E-05,-0.52734375,0,0
-2.94424580715713E-06,-1.38749874167843E-05,-0.52734375,0,0
-3.08856260744506E-06,-1.65315195772564E-05,-0.52734375,0,0
-1.90421951629105E-06,-1.31785736812162E-05,-0.52734375,0,0
-1.08546305455093E-06,-1.08689182525268E-05,-0.52734375,0,0
-1.38944267291663E-06,-1.10558967207908E-05,-0.52734375,0,0
-1.37098368213628E-06,-1.50135110743577E-05,-0.52734375,0,0
2.85047462966759E-07,-1.61097323143622E-05,-0.52734375,0,0
1.31903198052896E-06,-1.30026683109463E-05,-0.52734375,0,0
1.37355880269752E-06,-1.18950365504134E-05,-0.52734375,0,0
1.73468549746758E-06,-1.23690861073555E-05,-0.52734375,0,0
3.29097520079813E-06,-1.4857482710795E-05,-0.52734375,0,0
4.07713423555833E-06,-1.49576608237112E-05,-0.52734375,0,0
3.08606217913621E-06,-1.6741252693464E-05,-0.52734375,0,0
2.80810513686447E-06,-1.74580400198465E-05,-0.52734375,0,0
4.12407280236948E-06,-1.8872915461543E-05,-0.52734375,0,0
5.43349733561627E-06,-1.86615234269993E-05,-0.52734375,0,0
6.23618552708649E-06,-1.98725610971451E-05,-0.52734375,0,0
6.97552832207293E-06,-2.02905521291541E-05,-0.52734375,0,0
7.83928589953575E-06,-2.08611709240358E-05,-0.52734375,0,0
7.71624854678521E-06,-1.97823046619305E-05,-0.52734375,0,0
6.36582581137191E-06,-1.76468984136591E-05,-0.52734375,0,0
7.03295745552168E-06,-1.68569986271905E-05,-0.52734375,0,0
7.66599168855464E-06,-1.70047260326101E-05,-0.52734375,0,0
6.11541418038541E-06,-1.26624627228011E-05,-0.52734375,0,0
1.05612725747051E-05,-1.76026624103542E-05,-0.52734375,0,0
1.0435553122079E-05,-1.33958428705228E-05,-0.52734375,0,0
1.06108855106868E-05,-1.66383179021068E-05,-0.52734375,0,0
7.51738889448461E-06,-1.4646771887783E-05,-0.52734375,0,0
8.53009805723559E-06,-1.75109089468606E-05,-0.52734375,0,0
8.74153465701966E-06,-1.52203892866964E-05,-0.52734375,0,0
9.48818524193484E-06,-1.52362654262106E-05,-0.52734375,0,0
9.43783561524469E-06,-1.46405154737295E-05,-0.52734375,0,0
9.83947666099994E-06,-1.61249608936487E-05,-0.52734375,0,0
1.00592860690085E-05,-1.84538730536588E-05,-0.52734375,0,0
8.73549470270518E-06,-1.88983503903728E-05,-0.52734375,0,0
7.14962880010717E-06,-1.87430996447802E-05,-0.52734375,0,0
5.79181596549461E-06,-1.73681564774597E-05,-0.52734375,0,0
5.03600676893257E-06,-1.85276130650891E-05,-0.52734375,0,0
3.13664668283309E-06,-1.92815587070072E-05,-0.52734375,0,0
1.5845545249249E-06,-2.1193456632318E-05,-0.52734375,0,0
-5.23988376244233E-07,-1.9492166757118E-05,-0.52734375,0,0
-8.27819519599871E-07,-1.75118002516683E-05,-0.52734375,0,0
-5.05800869632367E-07,-1.49186944327084E-05,-0.52734375,0,0
-4.03911087687447E-07,-1.57297654368449E-05,-0.52734375,0,0
-1.30082298710477E-06,-1.70297553268028E-05,-0.52734375,0,0
-9.80973140940478E-07,-1.80628285306739E-05,-0.52734375,0,0
-7.09016205746593E-07,-1.79444577952381E-05,-0.52734375,0,0
-8.99548467714339E-07,-1.84287910087733E-05,-0.52734375,0,0
-1.84514919965295E-06,-1.84639211511239E-05,-0.52734375,0,0
-3.79298921870941E-06,-1.97697663679719E-05,-0.52734375,0,0
-4.46875719717355E-06,-1.67478610819671E-05,-0.52734375,0,0
-6.01470173933194E-06,-2.27478431042982E-05,-0.17578125,0,0
-4.01954503104207E-06,-1.64907978614792E-05,-0.17578125,0,0
-5.25182895216858E-06,-2.13113817153499E-05,-0.17578125,0,0
-3.93602522308356E-06,-1.79047419806011E-05,-0.17578125,0,0
-2.88387377622712E-06,-2.20070869545452E-05,-0.17578125,0,0
-2.1229830053926E-06,-2.22983835556079E-05,-0.17578125,0,0
-4.18136642110767E-06,-2.39903965848498E-05,-0.17578125,0,0
-5.01466820423957E-06,-2.34405197261367E-05,-0.17578125,0,0
-5.70142947253771E-06,-2.2604088371736E-05,-0.17578125,0,0
-4.76483728562016E-06,-2.19845333049307E-05,-0.17578125,0,0
-3.27180487147416E-06,-2.15138134080917E-05,-0.17578125,0,0
-3.350583710926E-06,-2.19227204070194E-05,-0.17578125,0,0
-4.33315108239185E-06,-2.05387623282149E-05,-0.17578125,0,0
-5.40542941962485E-06,-2.19086541619617E-05,-0.17578125,0,0
-3.8359848986147E-06,-2.14750270970399E-05,-0.17578125,0,0
-1.89945978945616E-06,-2.19281810132088E-05,-0.17578125,0,0
1.69138488104181E-07,-2.07546563615324E-05,-0.17578125,0,0
7.81305516284192E-07,-2.09975496545667E-05,-0.17578125,0,0
9.28851420667343E-07,-1.68744445545599E-05,-0.17578125,0,0
1.75080018038898E-07,-1.41547243401874E-05,-0.17578125,0,0
-6.49824940524013E-08,-1.43149281939259E-05,-0.17578125,0,0
8.37227673855523E-07,-1.65717920026509E-05,-0.17578125,0,0
2.88402998194215E-06,-1.50384512380697E-05,-0.17578125,0,0
3.14836165671295E-06,-1.32218783619464E-05,-0.17578125,0,0
3.0936760140321E-06,-1.46346792462282E-05,-0.17578125,0,0
3.5742068575928E-06,-1.60429535753792E-05,-0.17578125,0,0
4.7411845116585E-06,-1.07712758108391E-05,-0.17578125,0,0
9.68980748439208E-06,-1.38273662741994E-05,-0.17578125,0,0
1.03506181403645E-05,-1.04498330983915E-05,-0.17578125,0,0
1.08875292426092E-05,-1.61089355970034E-05,-0.17578125,0,0
9.742707334226E-06,-1.55546931637218E-05,-0.17578125,0,0
1.08634549178532E-05,-1.72869567904854E-05,-0.17578125,0,0
1.24411781143863E-05,-1.45388021337567E-05,-0.17578125,0,0
1.30081980387331E-05,-1.37271117637283E-05,-0.17578125,0,0
1.03373495221604E-05,-1.16332666948438E-05,-0.17578125,0,0
6.78624928696081E-06,-9.79774813458789E-06,-0.17578125,0,0
4.83144003737834E-06,-8.1638791016303E-06,-0.17578125,0,0
5.48020489077317E-06,-7.02824399922974E-06,-0.17578125,0,0
7.3760052146099E-06,-9.23411516851047E-06,-0.17578125,0,0
7.50827393858344E-06,-1.17968793347245E-05,-0.17578125,0,0
6.02801537752384E-06,-1.46341708386899E-05,-0.17578125,0,0
4.15958629673696E-06,-1.38257355501992E-05,-0.17578125,0,0
3.52159599970037E-06,-1.33639568957733E-05,-0.17578125,0,0
3.1109238989302E-06,-1.12967700260924E-05,-0.17578125,0,0
2.0421880435606E-06,-1.06281140688225E-05,-0.17578125,0,0
-3.2296338758897E-07,-9.19045396585716E-06,-0.17578125,0,0
-2.06258710022666E-06,-8.29435884952545E-06,-0.17578125,0,0
-2.93548646368436E-06,-7.27349197404692E-06,-0.17578125,0,0
-2.26991915042163E-06,-8.45707108965144E-06,-0.17578125,0,0
-1.4940833352739E-06,-9.76796491158893E-06,-0.17578125,0,0
-8.35897992601531E-07,-1.0178572665609E-05,-0.17578125,0,0
-3.42094864436149E-07,-8.92565367394127E-06,-0.17578125,0,0
1.11835234406499E-07,-8.69145424076123E-06,-0.17578125,0,0
1.41418183829956E-07,-7.90914964454714E-06,-0.17578125,0,0
-4.69670084157769E-07,-1.35803647935973E-05,-0.17578125,0,0
-2.44606690102955E-06,-1.46560150824371E-05,-0.17578125,0,0
-3.99507825932233E-06,-2.02141181944171E-05,-0.17578125,0,0
-5.02535976920626E-06,-2.33661121455953E-05,-0.17578125,0,0
-5.47634772374295E-06,-2.95403715426801E-05,-0.17578125,0,0
-4.75808656119625E-06,-3.34737596858758E-05,-0.17578125,0,0
-3.82217103833682E-06,-3.56528980773874E-05,-0.17578125,0,0
-2.03848026103515E-06,-3.59489531547297E-05,-0.17578125,0,0
-6.60289515508339E-07,-3.69448607671075E-05,-0.17578125,0,0
-9.56619487624266E-07,-3.55883494194131E-05,-0.17578125,0,0
-2.33162677432119E-06,-3.21011139021721E-05,-0.17578125,0,0
-1.9147475995851E-06,-2.98739305435447E-05,-0.17578125,0,0
1.59221917783725E-06,-2.78122424788307E-05,-0.17578125,0,0
4.78907804790651E-06,-2.67070918198442E-05,-0.17578125,0,0
5.88834427617257E-06,-2.52640784310643E-05,-0.17578125,0,0
6.30946806268184E-06,-2.44245784415398E-05,-0.17578125,0,0
7.66508583183168E-06,-2.25959101953777E-05,-0.17578125,0,0
9.11443657969357E-06,-2.26349220611155E-05,-0.17578125,0,0
1.00343004305614E-05,-2.17989563680021E-05,-0.17578125,0,0
1.0825935532921E-05,-2.03449108084897E-05,-0.17578125,0,0
1.19002424980863E-05,-1.92885727301473E-05,-0.17578125,0,0
1.26304184959736E-05,-1.894154229376E-05,-0.17578125,0,0
1.33836783788865E-05,-1.80502029252239E-05,-0.17578125,0,0
1.32609620777657E-05,-1.84670243470464E-05,-0.17578125,0,0
1.11886593003874E-05,-1.95779866771773E-05,-0.17578125,0,0
8.15883686300367E-06,-1.99728765437612E-05,-0.17578125,0,0
3.94162498196238E-06,-1.53612072608666E-05,-0.17578125,0,0
5.48852813153644E-06,-2.1628495233017E-05,-0.17578125,0,0
6.22844345343765E-06,-1.77786478161579E-05,-0.17578125,0,0
9.72642101260135E-06,-2.34612434724113E-05,-0.17578125,0,0
8.85012741491664E-06,-1.83317752089351E-05,-0.17578125,0,0
7.96426684246399E-06,-1.92961560969707E-05,-0.17578125,0,0
5.00053511132137E-06,-1.91380768228555E-05,-0.17578125,0,0
4.51863252237672E-06,-2.22391063289251E-05,-0.17578125,0,0
4.81548704556189E-06,-2.33635601034621E-05,-0.17578125,0,0
4.94394544148236E-06,-2.41511843341868E-05,-0.17578125,0,0
3.51629910255724E-06,-2.22031630983111E-05,-0.17578125,0,0
1.65837911936251E-06,-1.66497120517306E-05,-0.17578125,0,0
1.45447484101169E-06,-1.37138094942202E-05,-0.17578125,0,0
1.36876667511387E-06,-1.25723690871382E-05,-0.17578125,0,0
1.79109156306367E-06,-1.40470638143597E-05,-0.17578125,0,0
7.16852468940488E-07,-1.27789126054267E-05,-0.17578125,0,0
-1.4786127167099E-06,-1.26721342894598E-05,-0.17578125,0,0
-3.31231103700702E-06,-1.09345792225213E-05,-0.17578125,0,0
-1.67367227277282E-06,-1.14404956548242E-05,-0.17578125,0,0
7.37087418656301E-07,-1.02775338746142E-05,-0.17578125,0,0
2.62385810856358E-06,-9.64257742452901E-06,-0.17578125,0,0
2.79162054539484E-06,-9.53218841459602E-06,-0.17578125,0,0
2.92605159302184E-06,-1.13258502096869E-05,-0.17578125,0,0
3.12964266413474E-06,-1.20694812721922E-05,-0.17578125,0,0
4.2925994421239E-06,-1.2436766155588E-05,-0.17578125,0,0
5.22665641256026E-06,-1.27464982142556E-05,-0.17578125,0,0
5.47381296200911E-06,-1.28824203784461E-05,-0.17578125,0,0
3.67313350579934E-06,-1.0102407031809E-05,-0.17578125,0,0
3.91329058402334E-06,-1.33712028400623E-05,-0.17578125,0,0
1.56353587499325E-06,-8.46772672957741E-06,-0.17578125,0,0
2.22225094148598E-06,-1.00821398518747E-05,-0.17578125,0,0
1.04249147625524E-06,-8.40582561068004E-06,-0.17578125,0,0
2.9621467092511E-06,-1.20702952699503E-05,-0.17578125,0,0
3.74459068552824E-06,-1.43457709782524E-05,-0.17578125,0,0
3.88919261240517E-06,-1.7632068193052E-05,-0.17578125,0,0
2.00714271159086E-06,-1.74015203810995E-05,-0.17578125,0,0
-1.41988776292123E-08,-1.65589244716102E-05,-0.17578125,0,0
-3.47392273170044E-07,-1.79160324478289E-05,-0.17578125,0,0
1.57537101586058E-07,-1.98489724425599E-05,-0.17578125,0,0
7.06254468241241E-07,-2.14765041164355E-05,-0.17578125,0,0
-4.67206831444855E-07,-2.08980964089278E-05,-0.17578125,0,0
-1.42765850341675E-06,-2.0483297703322E-05,-0.17578125,0,0
-1.75850561845436E-06,-1.83632018888602E-05,-0.17578125,0,0
-1.8845800013878E-06,-1.79530798050109E-05,-0.17578125,0,0
-3.41835880135477E-06,-1.6910744307097E-05,-0.17578125,0,0
-4.07922379963566E-06,-1.77675137820188E-05,-0.17578125,0,0
-4.01455918108695E-06,-1.89113488886505E-05,-0.17578125,0,0
-2.71862882073037E-06,-2.06098666239996E-05,-0.17578125,0,0
-1.40431961881404E-06,-2.04926618607715E-05,-0.17578125,0,0
-2.08972636528415E-07,-2.02614392037503E-05,-0.17578125,0,0
-1.09673806036881E-07,-1.90330338227795E-05,-0.17578125,0,0
-2.85890511264597E-08,-1.67702182807261E-05,-0.17578125,0,0
3.29206756077838E-07,-1.50031519297045E-05,-0.17578125,0,0
1.85584099199332E-07,-1.54570498125395E-05,-0.17578125,0,0
1.37683673528954E-06,-1.41626896947855E-05,-0.17578125,0,0
3.89147271562251E-06,-2.10417274502106E-05,-0.17578125,0,0
5.61997603654163E-06,-1.64269895321922E-05,-0.17578125,0,0
5.95252595303464E-06,-1.70857692864956E-05,-0.17578125,0,0
5.1191818783991E-06,-1.10101891550585E-05,-0.17578125,0,0
5.36427614861168E-06,-1.19209862532443E-05,-0.17578125,0,0
6.15066846876289E-06,-1.04567343441886E-05,-0.17578125,0,0
5.74193609281792E-06,-1.0491200555407E-05,-0.17578125,0,0
5.3560279411613E-06,-8.97022709978046E-06,-0.17578125,0,0
6.09015160080162E-06,-9.98324594547739E-06,-0.17578125,0,0
7.73699775891146E-06,-1.09559478005394E-05,-0.17578125,0,0
8.774695743341E-06,-9.13070653041359E-06,-0.17578125,0,0
9.7884176284424E-06,-8.55977941682795E-06,-0.17578125,0,0
1.03205520645133E-05,-7.84905023465399E-06,-0.17578125,0,0
1.03152760857483E-05,-7.82955794420559E-06,-0.17578125,0,0
1.04582850326551E-05,-5.98623228142969E-06,-0.17578125,0,0
1.07947589640389E-05,-7.98689416114939E-06,-0.17578125,0,0
1.12689367597341E-05,-1.09439206426032E-05,-0.17578125,0,0
1.09213824543986E-05,-1.64155608217698E-05,-0.17578125,0,0
8.64822777657537E-06,-2.06244767468888E-05,-0.17578125,0,0
5.00944906889345E-06,-2.47755579039222E-05,-0.17578125,0,0
3.38815038958273E-06,-2.49800777964992E-05,-0.17578125,0,0
5.15851888849284E-06,-2.42594906012528E-05,-0.17578125,0,0
7.42650081519969E-06,-2.25881667574868E-05,-0.17578125,0,0
8.49504249345046E-06,-1.91156486835098E-05,-0.17578125,0,0
8.79026538314065E-06,-1.56017667904962E-05,-0.17578125,0,0
8.97537211130839E-06,-1.51348631334258E-05,-0.17578125,0,0
6.10124288868974E-06,-1.26681225083303E-05,-0.17578125,0,0
6.89387752572657E-06,-1.87800960702589E-05,-0.17578125,0,0
2.16590342461132E-06,-1.46137863339391E-05,-0.17578125,0,0
2.21423465518455E-06,-1.5403660654556E-05,-0.17578125,0,0
-1.11592794382886E-06,-1.07866508187726E-05,-0.17578125,0,0
-1.45692888509075E-06,-1.22513747555786E-05,-0.17578125,0,0
-2.70340228780697E-06,-1.16316623461898E-05,-0.17578125,0,0
-1.64990262874198E-06,-1.46956163007417E-05,-0.17578125,0,0
-4.67114148250403E-07,-1.63038239406887E-05,-0.17578125,0,0
1.81200732640718E-06,-1.65427463798551E-05,-0.17578125,0,0
4.22080074713449E-06,-1.55533434735844E-05,-0.17578125,0,0
4.0702707337914E-06,-1.34494121084572E-05,-0.17578125,0,0
2.69205156655516E-06,-1.27437951960019E-05,-0.17578125,0,0
8.1749766422945E-07,-1.29615364130586E-05,-0.17578125,0,0
1.14997419586871E-06,-1.7156755347969E-05,-0.17578125,0,0
1.70991268078069E-06,-2.08894161914941E-05,-0.17578125,0,0
2.69009160547284E-06,-2.54802707786439E-05,-0.17578125,0,0
2.97217980005371E-06,-2.86849390249699E-05,-0.17578125,0,0
4.59991497336887E-06,-3.24807515426073E-05,-0.17578125,0,0
6.35019205219578E-06,-3.14177596010268E-05,-0.17578125,0,0
7.78492267272668E-06,-2.8322287107585E-05,-0.17578125,0,0
6.49859885015758E-06,-2.44121092691785E-05,-0.17578125,0,0
4.08877394875162E-06,-2.1458372430061E-05,-0.17578125,0,0
3.23696576742805E-06,-1.89450693142135E-05,-0.17578125,0,0
4.8352385420003E-06,-1.86025990842609E-05,-0.17578125,0,0
4.28579778599669E-06,-1.96148739632918E-05,-0.17578125,0,0
1.87416219432635E-06,-1.99340502149425E-05,-0.17578125,0,0
1.51929623370961E-06,-1.37458064273233E-05,-0.17578125,0,0
3.02697253573569E-06,-1.70526236615842E-05,-0.17578125,0,0
2.85407122646575E-06,-1.11364552140003E-05,-0.17578125,0,0
2.12904933505342E-06,-1.7700816897559E-05,-0.17578125,0,0
1.15568411729328E-06,-1.74952001543716E-05,-0.17578125,0,0
-2.23550117084415E-07,-2.2187661670614E-05,-0.17578125,0,0
-1.09206678189366E-06,-2.2887683371664E-05,-0.17578125,0,0
-1.01617843029089E-06,-2.47776060859906E-05,-0.17578125,0,0
-1.05277251805092E-06,-2.41608013311634E-05,-0.17578125,0,0
-3.25997490335794E-07,-2.29416455113096E-05,-0.17578125,0,0
1.11963584004116E-06,-2.06248205358861E-05,-0.17578125,0,0
3.03039996651933E-06,-1.74671349668643E-05,-0.17578125,0,0
3.48824482898635E-06,-1.5998008166207E-05,-0.17578125,0,0
1.93824826055788E-06,-1.51280810314347E-05,-0.17578125,0,0
3.64642964711948E-08,-1.68006554304156E-05,-0.17578125,0,0
-1.23194433854223E-06,-1.70630610227818E-05,-0.17578125,0,0
-2.10994744520576E-06,-1.92745446838671E-05,-0.17578125,0,0
-2.76866853710089E-06,-1.80089682544349E-05,-0.17578125,0,0
-2.42746591538889E-06,-1.72466097865254E-05,-0.17578125,0,0
-2.29251577366085E-06,-1.68603819474811E-05,-0.17578125,0,0
-2.60225715464912E-06,-1.83786523848539E-05,-0.17578125,0,0
-3.11095732286049E-06,-1.78299324034015E-05,-0.17578125,0,0
-2.67584528046427E-06,-1.66707777680131E-05,-0.17578125,0,0
-1.24730388506578E-06,-1.39447638503043E-05,-0.17578125,0,0
5.76753905079386E-07,-1.32270661197254E-05,-0.17578125,0,0
1.27851774323062E-06,-1.45077347042388E-05,-0.17578125,0,0
5.34721387168702E-08,-1.61384377861395E-05,-0.17578125,0,0
-9.460114824833E-07,-1.32148734337534E-05,-0.17578125,0,0
-7.03765181242488E-07,-1.77100355358562E-05,-0.17578125,0,0
-1.2108051805626E-06,-1.27885277834139E-05,-0.17578125,0,0
-3.57530416295049E-06,-1.8543794794823E-05,-0.17578125,0,0
-2.54950759881467E-06,-1.67999460245483E-05,-0.17578125,0,0
-7.58552971547033E-07,-1.71192259585951E-05,-0.17578125,0,0
1.37868283900389E-07,-1.57216891238932E-05,-0.17578125,0,0
-9.80766571956337E-07,-1.73243479366647E-05,-0.17578125,0,0
-2.26009933612659E-06,-1.66754398378544E-05,-0.17578125,0,0
-4.63432741071301E-07,-1.7311687770416E-05,-0.17578125,0,0
3.67082498087257E-06,-1.88553876796504E-05,-0.17578125,0,0
7.23324910723022E-06,-1.92118604900315E-05,-0.17578125,0,0
8.45903286972316E-06,-2.04125681193545E-05,-0.17578125,0,0
8.14032136986498E-06,-1.95814009202877E-05,-0.17578125,0,0
8.02331487648189E-06,-1.85719582077581E-05,-0.17578125,0,0
9.236849109584E-06,-1.64872144523542E-05,-0.17578125,0,0
9.82451638265047E-06,-1.6855319699971E-05,-0.17578125,0,0
8.53650544740958E-06,-1.54628796735778E-05,-0.17578125,0,0
7.51662628317717E-06,-1.48107164932298E-05,-0.17578125,0,0
8.52523498906521E-06,-1.36839571496239E-05,-0.17578125,0,0
9.03761883819243E-06,-1.45050880746567E-05,-0.17578125,0,0
8.09530592960073E-06,-1.45793019328266E-05,-0.17578125,0,0
6.07128322371864E-06,-1.46233915074845E-05,-0.17578125,0,0
4.08889764003106E-06,-1.40203110277071E-05,-0.17578125,0,0
2.40251824834559E-06,-1.56249734573066E-05,-0.17578125,0,0
1.21003563435806E-06,-1.59632400027476E-05,-0.17578125,0,0
9.97990696305351E-07,-1.41147593240021E-05,-0.17578125,0,0
1.29021827888209E-07,-1.03615520856692E-05,-0.17578125,0,0
-1.92784028740789E-07,-1.58777256729081E-05,-0.17578125,0,0
7.04845604104776E-07,-1.58490074682049E-05,-0.17578125,0,0
2.4127605229296E-06,-2.02358751266729E-05,-0.17578125,0,0
1.99393252842128E-06,-1.71142564795446E-05,-0.17578125,0,0
2.1549315079028E-06,-1.78609407157637E-05,-0.17578125,0,0
2.84368343272945E-06,-1.69034901773557E-05,-0.17578125,0,0
2.30458431360603E-06,-1.76425728568574E-05,-0.17578125,0,0
1.01417640507862E-06,-1.60785311891232E-05,-0.17578125,0,0
1.39293842948973E-06,-1.49249826790765E-05,-0.17578125,0,0
3.55592442247143E-06,-1.53121254697908E-05,0.703125,0,0
4.85740611111396E-06,-1.72542331711156E-05,0.703125,0,0
4.8942856665235E-06,-1.96784258150728E-05,0.703125,0,0
4.33470677307923E-06,-1.92583775060484E-05,0.703125,0,0
3.15716124532628E-06,-1.90912996913539E-05,0.703125,0,0
1.37330505367572E-06,-1.90625833056401E-05,0.703125,0,0
1.16071453248878E-06,-2.19712310354225E-05,0.703125,0,0
3.09382653540524E-06,-2.23475653911009E-05,0.703125,0,0
3.50151708516933E-06,-2.06213735509664E-05,0.703125,0,0
2.10780672205146E-06,-1.68707065313356E-05,0.703125,0,0
1.75253774159501E-06,-1.49817369674565E-05,0.703125,0,0
2.13193766285258E-06,-1.37062606881955E-05,0.703125,0,0
2.68426333605021E-06,-1.51163794726017E-05,0.703125,0,0
2.30193904826592E-06,-1.65379151439993E-05,0.703125,0,0
1.9686624455062E-06,-1.82117164513329E-05,0.703125,0,0
2.47492425842211E-06,-1.9148779756506E-05,0.703125,0,0
1.95806887859362E-06,-1.89537240657955E-05,0.703125,0,0
5.39954214673344E-07,-1.37378683575662E-05,0.703125,0,0
5.16448608323117E-07,-1.87708901648875E-05,0.703125,0,0
1.84741554676293E-06,-1.32288560052984E-05,0.703125,0,0
3.6215431009623E-06,-1.66624504345236E-05,0.703125,0,0
2.64811910710705E-06,-1.344827524008E-05,0.703125,0,0
1.65728067713644E-06,-1.41308037200361E-05,0.703125,0,0
7.27993892724044E-07,-1.14219265014981E-05,0.703125,0,0
8.21896207980899E-07,-1.41445752888103E-05,0.703125,0,0
9.22555273064063E-07,-1.62911874213023E-05,0.703125,0,0
1.82970154583018E-06,-1.85374465218047E-05,0.703125,0,0
2.75952288575354E-06,-2.00550457520876E-05,0.703125,0,0
2.14583087654319E-06,-1.91761737369234E-05,0.703125,0,0
1.24925293221168E-06,-1.93942942132708E-05,0.703125,0,0
1.644281269364E-06,-1.92462302948115E-05,0.703125,0,0
3.59738669430953E-06,-2.1219717382337E-05,0.703125,0,0
4.99768748341012E-06,-2.123739614035E-05,0.703125,0,0
5.8398550208949E-06,-2.18805762415286E-05,0.703125,0,0
5.44894146514707E-06,-2.03535673790611E-05,0.703125,0,0
3.88678699891898E-06,-1.97197441593744E-05,0.703125,0,0
2.72545480584085E-06,-1.79232392838458E-05,0.703125,0,0
3.31378828377638E-06,-1.74995802808553E-05,0.703125,0,0
3.30046827912156E-06,-1.65495912369806E-05,0.703125,0,0
2.09095742320642E-06,-1.653696745052E-05,0.703125,0,0
1.76073569946311E-06,-1.48637154779863E-05,0.703125,0,0
2.70728105533635E-06,-1.37600482048583E-05,0.703125,0,0
2.50303287430143E-06,-1.43372244565398E-05,0.703125,0,0
1.4350121091411E-07,-1.55249708768679E-05,0.703125,0,0
-2.30962950809044E-06,-1.2672121556534E-05,0.703125,0,0
-3.95060487790033E-06,-1.74606138898525E-05,0.703125,0,0
-3.20665049002855E-06,-1.39753401526832E-05,0.703125,0,0
-2.40006806961901E-06,-1.91880826605484E-05,0.703125,0,0
-8.8151529098468E-07,-1.66472855198663E-05,0.703125,0,0
-3.79039505560286E-07,-1.85714197868947E-05,0.703125,0,0
5.57079658847215E-07,-1.90161827049451E-05,0.703125,0,0
3.32965782945394E-07,-2.19190478674136E-05,0.703125,0,0
-5.29522992565035E-07,-2.26502161240205E-05,0.703125,0,0
-9.35165189730469E-07,-2.27639848162653E-05,0.703125,0,0
-3.2210866152127E-07,-2.11768983717775E-05,0.703125,0,0
4.55303791113693E-07,-1.78557202161755E-05,0.703125,0,0
9.282557584811E-07,-1.67310245160479E-05,0.703125,0,0
1.042321400746E-06,-1.6014510038076E-05,0.703125,0,0
-6.89559556121822E-08,-1.77021138370037E-05,0.703125,0,0
-1.5131449515593E-07,-1.80088809429435E-05,0.703125,0,0
1.64870425578556E-06,-1.96706496353727E-05,0.703125,0,0
3.5692939945875E-06,-1.93291089090053E-05,0.703125,0,0
3.07325421999849E-06,-1.95333377632778E-05,0.703125,0,0
2.56758903560694E-06,-1.84722848644014E-05,0.703125,0,0
3.67508891940815E-06,-1.80084407475078E-05,0.703125,0,0
5.05297066411003E-06,-1.68472397490405E-05,0.703125,0,0
5.34917626282549E-06,-1.7764445146895E-05,0.703125,0,0
6.31032435194356E-06,-1.77712663571583E-05,0.703125,0,0
8.13518636277877E-06,-1.74253091245191E-05,0.703125,0,0
1.03884731288417E-05,-1.84329746844014E-05,0.703125,0,0
1.17709878395544E-05,-1.86146207852289E-05,0.703125,0,0
8.68464121595025E-06,-1.40278934850357E-05,0.703125,0,0
1.05724602690316E-05,-1.97965000552358E-05,0.703125,0,0
4.84129759570351E-06,-1.41180635182536E-05,0.703125,0,0
6.60617797620944E-06,-1.62214782903902E-05,0.703125,0,0
3.96121595258592E-06,-1.30892967717955E-05,0.703125,0,0
3.23052699968684E-06,-1.72702420968562E-05,0.703125,0,0
3.76835060933445E-07,-1.8184284272138E-05,0.703125,0,0
5.22268123859249E-07,-1.80053721123841E-05,0.703125,0,0
5.84653093937959E-07,-1.54641711560544E-05,0.703125,0,0
9.72072484728415E-07,-1.55753987201024E-05,0.703125,0,0
2.10206280826242E-06,-1.63610093295574E-05,0.703125,0,0
2.67036011791788E-06,-1.54784520418616E-05,0.703125,0,0
3.86017381970305E-06,-1.47776490848628E-05,0.703125,0,0
4.59966759080999E-06,-1.37269580591237E-05,0.703125,0,0
6.25993516223389E-06,-1.43731986099738E-05,0.703125,0,0
6.60485466141836E-06,-1.38421892188489E-05,0.703125,0,0
7.86631244409364E-06,-1.63476106536109E-05,0.703125,0,0
8.0937552411342E-06,-1.72712698258692E-05,0.703125,0,0
8.56470069265924E-06,-1.78276332007954E-05,0.703125,0,0
7.8974298958201E-06,-1.63116164912935E-05,0.703125,0,0
8.51623917696998E-06,-1.63631320901914E-05,0.703125,0,0
8.92539810593007E-06,-1.53711371240206E-05,0.703125,0,0
1.03556467365706E-05,-1.50521264004055E-05,0.703125,0,0
1.16187384264776E-05,-1.45041876749019E-05,0.703125,0,0
1.13865344246733E-05,-1.44262239700765E-05,0.703125,0,0
9.98113500827458E-06,-1.37005254146061E-05,0.703125,0,0
8.78263745107688E-06,-1.36330127133988E-05,0.703125,0,0
6.12836674918071E-06,-1.26750210256432E-05,0.703125,0,0
9.49717104958836E-06,-1.85075805347878E-05,0.703125,0,0
8.79313211044064E-06,-1.52560314745642E-05,0.703125,0,0
9.6997182481573E-06,-1.92722873180173E-05,0.703125,0,0
4.68892267235788E-06,-1.6453537682537E-05,0.703125,0,0
2.107656428052E-06,-1.75072436832124E-05,0.703125,0,0
7.27437793557328E-07,-1.55030775204068E-05,0.703125,0,0
1.27625446566526E-06,-1.59973424160853E-05,0.703125,0,0
5.32038939127233E-07,-1.72869586094748E-05,0.703125,0,0
-2.51657070293732E-07,-1.93899850273738E-05,0.703125,0,0
-1.2905284165754E-06,-1.98134257516358E-05,0.703125,0,0
-2.65811240751646E-06,-1.78620975930244E-05,0.703125,0,0
-2.08781580113282E-06,-1.77520105353324E-05,0.703125,0,0
-1.1817436416095E-06,-1.74287397385342E-05,0.703125,0,0
2.8088439307794E-07,-1.76438315975247E-05,0.703125,0,0
7.77366324200557E-07,-1.54999015649082E-05,0.703125,0,0
1.11173847017199E-06,-1.52742122736527E-05,0.703125,0,0
2.38461751678187E-07,-1.46306083479431E-05,0.703125,0,0
1.80088875367801E-07,-1.51216099766316E-05,0.703125,0,0
2.0109749243602E-07,-1.4391694094229E-05,0.703125,0,0
9.588811735739E-07,-1.52036473082262E-05,0.703125,0,0
1.13389216949145E-06,-1.64610391948372E-05,0.703125,0,0
1.50417019995075E-06,-1.78250629687682E-05,0.703125,0,0
2.07715083888615E-06,-1.77956644620281E-05,0.703125,0,0
2.41854422711185E-06,-1.77091023942921E-05,0.703125,0,0
2.3980117020983E-06,-1.57902941282373E-05,0.703125,0,0
3.63762501365272E-06,-1.42415055961465E-05,0.703125,0,0
5.18512570124585E-06,-1.04884902611957E-05,0.703125,0,0
8.26112318463856E-06,-1.35818108901731E-05,0.703125,0,0
7.46078922020388E-06,-1.05895178421633E-05,0.703125,0,0
9.3722283054376E-06,-1.68847091117641E-05,0.703125,0,0
9.45572719501797E-06,-1.87480691238306E-05,0.703125,0,0
1.04899527286761E-05,-2.51094297709642E-05,0.703125,0,0
9.20024467632174E-06,-2.60277247434715E-05,0.703125,0,0
8.79951130627887E-06,-2.45558130700374E-05,0.703125,0,0
8.18124499346595E-06,-2.08150668186136E-05,0.703125,0,0
5.32659214513842E-06,-2.10367288673297E-05,0.703125,0,0
4.89241188006417E-07,-2.31671037909109E-05,0.703125,0,0
-3.24663960782345E-06,-2.21164209506242E-05,0.703125,0,0
-2.42465739574982E-06,-2.05639498744858E-05,0.703125,0,0
-3.70930166582184E-07,-1.91681629075902E-05,0.703125,0,0
1.0233522971248E-06,-1.92623338080011E-05,0.703125,0,0
5.2457784249782E-07,-1.76593821379356E-05,0.703125,0,0
3.14213423280307E-07,-1.81459872692358E-05,0.703125,0,0
1.96717948597325E-07,-1.75263303390238E-05,0.703125,0,0
-6.43209574491266E-08,-1.63403401529649E-05,0.703125,0,0
-3.44888661629739E-07,-1.27757102745818E-05,0.703125,0,0
2.10796588362427E-06,-1.00157221822883E-05,0.703125,0,0
4.96084885526216E-06,-8.08120421424974E-06,0.703125,0,0
5.65596064916463E-06,-9.7642559921951E-06,0.703125,0,0
3.80700998903194E-06,-1.13520418381086E-05,0.703125,0,0
1.83672932507761E-06,-1.10431446955772E-05,0.703125,0,0
7.03126431744749E-07,-1.0347158422519E-05,0.703125,0,0
1.52421978327766E-06,-1.2209797205287E-05,0.703125,0,0
2.72562283498701E-06,-1.17138024506858E-05,0.703125,0,0
1.76184266820201E-06,-1.78212430910207E-05,0.703125,0,0
-2.24954374061781E-06,-1.61775496962946E-05,0.703125,0,0
-1.93855794350384E-06,-2.14741703530308E-05,0.703125,0,0
-2.12123200071801E-06,-2.06129243451869E-05,0.703125,0,0
-1.59003661792667E-06,-2.28609151236014E-05,0.703125,0,0
-6.88326906583825E-07,-2.36044033954386E-05,0.703125,0,0
2.5440701278967E-07,-2.85755049844738E-05,0.703125,0,0
-1.25738620226912E-06,-3.28091300616506E-05,0.703125,0,0
-2.45122919295682E-06,-3.63398939953186E-05,0.703125,0,0
-1.82947951543611E-06,-3.76240968762431E-05,0.703125,0,0
-1.00409886272246E-06,-3.34164433297701E-05,0.703125,0,0
4.08816802632828E-08,-2.64718146354426E-05,0.703125,0,0
1.27526618598495E-07,-1.91175695363199E-05,0.703125,0,0
-3.94672866832479E-07,-1.62341239047237E-05,0.703125,0,0
-1.44989110140159E-06,-1.56254791363608E-05,0.703125,0,0
-1.84538725989114E-06,-1.80243823706405E-05,0.703125,0,0
-2.00696331376093E-06,-1.87583573278971E-05,0.703125,0,0
-1.95344659914554E-06,-1.85846274689538E-05,0.703125,0,0
-2.21882760342851E-06,-1.57689391926397E-05,0.703125,0,0
-2.00093018065672E-06,-1.41445216286229E-05,0.703125,0,0
-2.08161100090365E-06,-1.35811933432706E-05,0.703125,0,0
-1.39483233851934E-06,-1.47179216583027E-05,0.703125,0,0
-2.24644722379708E-07,-1.49655106724822E-05,0.703125,0,0
1.182633013741E-06,-1.46727861647378E-05,0.703125,0,0
1.34646234073443E-06,-1.40423289849423E-05,0.703125,0,0
-6.01446629389102E-07,-1.32259956444614E-05,0.703125,0,0
-1.75805644175853E-06,-9.94925085251452E-06,0.703125,0,0
-1.07934852167091E-06,-1.47745067806682E-05,0.703125,0,0
1.83577503776178E-06,-1.26154945974122E-05,0.703125,0,0
2.19232219933474E-06,-1.69210743479198E-05,0.703125,0,0
2.6912605335383E-06,-1.56107198563404E-05,0.703125,0,0
2.17304841498844E-06,-1.65218971233116E-05,0.703125,0,0
1.80625022494496E-06,-1.552112189529E-05,0.703125,0,0
1.13732426143542E-06,-1.62371052283561E-05,0.703125,0,0
1.10649432372156E-06,-1.59873598022386E-05,0.703125,0,0
1.38343671096663E-06,-1.56719015649287E-05,0.703125,0,0
2.25713415602513E-06,-1.60290364874527E-05,0.703125,0,0
4.15238446294097E-06,-1.55003253894392E-05,0.703125,0,0
5.76045340494602E-06,-1.49060961120995E-05,0.703125,0,0
5.8225405155099E-06,-1.26035902212607E-05,0.703125,0,0
4.20566493630758E-06,-1.15202883534948E-05,0.703125,0,0
3.52724396179838E-06,-1.0869512152567E-05,0.703125,0,0
2.91582227873732E-06,-1.27708490254008E-05,0.703125,0,0
2.1851458313904E-06,-1.41208247441682E-05,0.703125,0,0
1.87038926924288E-06,-1.47700084198732E-05,0.703125,0,0
2.13125190384744E-06,-1.39638777909568E-05,0.703125,0,0
1.49763684476056E-06,-1.47214068419999E-05,0.703125,0,0
1.75740041186145E-07,-1.46887396113016E-05,0.703125,0,0
-5.01410852393747E-07,-1.38373106892686E-05,0.703125,0,0
6.27099836947309E-07,-1.25470569400932E-05,0.703125,0,0
1.48896833707113E-06,-1.40233532874845E-05,0.703125,0,0
1.18296611617552E-06,-1.81322975549847E-05,0.703125,0,0
7.2640983717065E-07,-1.97575191123178E-05,0.703125,0,0
1.49537675042666E-06,-1.34606480060029E-05,0.703125,0,0
2.91832134280412E-06,-1.68106162163895E-05,0.703125,0,0
1.75597915585968E-06,-9.12032555788755E-06,0.703125,0,0
1.0431589316795E-06,-1.39394223879208E-05,0.703125,0,0
1.61816853960772E-06,-1.29081799968844E-05,0.703125,0,0
2.79475034403731E-06,-1.47220325743547E-05,0.703125,0,0
4.53877919426304E-06,-1.28870933622238E-05,0.703125,0,0
5.49440255781519E-06,-1.27322055050172E-05,0.703125,0,0
5.20526737091132E-06,-1.27003586385399E-05,0.703125,0,0
5.31476371179451E-06,-1.46917809615843E-05,0.703125,0,0
6.59035958960885E-06,-1.56539972522296E-05,0.703125,0,0
8.0699992395239E-06,-1.51466147144674E-05,0.703125,0,0
8.32714704301907E-06,-1.56956175487721E-05,0.703125,0,0
7.77224340708926E-06,-1.57982176460791E-05,0.703125,0,0
7.33322349333321E-06,-1.67050384334289E-05,0.703125,0,0
6.96270444677793E-06,-1.5661815268686E-05,0.703125,0,0
6.75198452881887E-06,-1.62265096150804E-05,0.703125,0,0
7.54578877604217E-06,-1.56599817273673E-05,0.703125,0,0
9.47209809964988E-06,-1.81525501830038E-05,0.703125,0,0
1.07548667074298E-05,-2.0317813323345E-05,0.703125,0,0
9.43985560297733E-06,-2.20385009015445E-05,0.703125,0,0
7.00231294104015E-06,-2.12840241147205E-05,0.703125,0,0
5.77528908252134E-06,-2.17887572944164E-05,0.703125,0,0
5.33932052348973E-06,-2.23028928303393E-05,0.703125,0,0
5.59968430025037E-06,-2.29412871703971E-05,0.703125,0,0
5.99072745899321E-06,-2.25454059545882E-05,0.703125,0,0
6.52583821647568E-06,-1.97502795344917E-05,0.703125,0,0
4.20892547481344E-06,-1.18410880531883E-05,0.703125,0,0
4.30187401434523E-06,-1.50002433656482E-05,0.703125,0,0
1.44529587942088E-06,-1.06587749542086E-05,0.703125,0,0
2.93482412416779E-06,-1.50008445416461E-05,0.703125,0,0
2.4767539343884E-06,-1.14997155833407E-05,0.703125,0,0
3.15125612360134E-06,-1.39779722303501E-05,0.703125,0,0
1.54356052917137E-06,-1.46834190672962E-05,0.703125,0,0
1.75208697328344E-06,-1.67199486895697E-05,0.703125,0,0
2.1129017113708E-06,-1.63032273121644E-05,0.703125,0,0
3.72575004803366E-06,-1.58660604938632E-05,0.703125,0,0
5.0749872571032E-06,-1.64410394063452E-05,0.703125,0,0
4.10158054364729E-06,-1.7641714293859E-05,0.703125,0,0
2.55407121585449E-06,-1.94011772691738E-05,0.703125,0,0
1.15541274681163E-06,-2.06902623176575E-05,0.703125,0,0
1.42652663726039E-06,-2.51887759077363E-05,0.703125,0,0
1.44482271480229E-06,-2.72780798695749E-05,2.109375,0,0
1.84891405297094E-06,-2.77535473287571E-05,2.109375,0,0
2.33730793297582E-06,-2.52479949267581E-05,2.109375,0,0
3.79663106286898E-06,-2.41396992350928E-05,2.109375,0,0
3.46866454492556E-06,-2.20892889046809E-05,2.109375,0,0
2.41040152104688E-06,-2.21516602323391E-05,2.109375,0,0
7.08803554516635E-07,-2.14897736441344E-05,2.109375,0,0
-1.28435226542933E-06,-1.99469304789091E-05,2.109375,0,0
-2.81037387139804E-06,-1.73805547092343E-05,2.109375,0,0
-2.04116599888948E-06,-1.54509107233025E-05,2.109375,0,0
-9.10317012881023E-08,-1.434708974557E-05,2.109375,0,0
6.60242733374616E-07,-1.59603005158715E-05,2.109375,0,0
2.96553338330341E-07,-1.42981498356676E-05,2.109375,0,0
4.93843231197388E-07,-1.93948926607845E-05,2.109375,0,0
4.14456913233607E-09,-1.33954927150626E-05,2.109375,0,0
-7.47057924854744E-07,-1.78196787601337E-05,2.109375,0,0
4.43931497784433E-07,-1.5801002518856E-05,2.109375,0,0
2.63256401922263E-06,-1.76309713424416E-05,2.109375,0,0
3.66799099538184E-06,-1.69833765539806E-05,2.109375,0,0
3.45827311321045E-06,-1.92817769857356E-05,2.109375,0,0
2.18830496123701E-06,-1.84921955224127E-05,2.109375,0,0
1.54452095557644E-06,-1.74878405232448E-05,2.109375,0,0
2.76541641142103E-06,-1.65215824381448E-05,2.109375,0,0
3.6170958992443E-06,-1.43290480991709E-05,2.109375,0,0
3.066143108299E-06,-1.42404887810699E-05,2.109375,0,0
1.95020948012825E-06,-1.50899340951582E-05,2.109375,0,0
1.32513343942264E-06,-1.75529112311779E-05,2.109375,0,0
2.45639239437878E-06,-1.65485489560524E-05,2.109375,0,0
4.84362317365594E-06,-1.63495551532833E-05,2.109375,0,0
6.99050860930583E-06,-1.50520363604301E-05,2.109375,0,0
8.96472829481354E-06,-1.58388684212696E-05,2.109375,0,0
1.02263693406712E-05,-1.51708554767538E-05,2.109375,0,0
9.57027623371687E-06,-1.58047441800591E-05,2.109375,0,0
8.10495293990243E-06,-1.67367143149022E-05,2.109375,0,0
8.31029774417402E-06,-1.83281481440645E-05,2.109375,0,0
8.83910797710996E-06,-1.78703103301814E-05,2.109375,0,0
7.91568982094759E-06,-1.72582767845597E-05,2.109375,0,0
7.34551258574356E-06,-1.61621028382797E-05,2.109375,0,0
8.60579166328534E-06,-1.47040582305635E-05,2.109375,0,0
7.0510236582777E-06,-1.09033753687982E-05,2.109375,0,0
9.17186480364762E-06,-1.57336744450731E-05,2.109375,0,0
5.41778854312724E-06,-1.21902612590929E-05,2.109375,0,0
6.11318864685018E-06,-1.54640165419551E-05,2.109375,0,0
3.84551458409987E-06,-1.46529509947868E-05,2.109375,0,0
4.5160586523707E-06,-1.73451935552293E-05,2.109375,0,0
2.72305487669655E-06,-1.62319938681321E-05,2.109375,0,0
2.76226342066366E-06,-1.5922989405226E-05,2.109375,0,0
9.76715682554641E-07,-1.46780175782624E-05,2.109375,0,0
-3.76941187596458E-07,-1.46549964483711E-05,2.109375,0,0
