biceps_emg, triceps_emg, subject_position, position_estimate, brace_position
-2.35045517911203E-05,1.33223147713579E-05,2.98828125,0,0.00862881311360449
-2.33197624766035E-05,1.26513050417998E-05,2.98828125,0,0.00862881311360449
-2.55557042692089E-05,1.22927103802795E-05,2.98828125,0,0.00862881311360449
-2.58916461461922E-05,1.13599126052577E-05,2.98828125,0,0.00862881311360449
-2.8012431357638E-05,1.10134878923418E-05,2.98828125,0,0.00862881311360449
-2.67097584583098E-05,8.12153211882105E-06,2.98828125,0,0.00862881311360449
-2.6443283786648E-05,6.98605981597211E-06,2.98828125,0,0.00862881311360449
-2.4025461243582E-05,6.33376021141885E-06,2.98828125,0,0.00862881311360449
-2.28649332711939E-05,7.74977070250316E-06,2.98828125,0,0.00862881311360449
-2.05706855922472E-05,8.20368040876929E-06,2.98828125,0,0.00862881311360449
-2.06051208806457E-05,8.88475642568665E-06,2.98828125,0,0.00862881311360449
-2.00960221263813E-05,9.52993013925152E-06,2.98828125,0,0.00862881311360449
-2.05076776182977E-05,1.00769229902653E-05,2.98828125,0,0.00862881311360449
-2.08852434298024E-05,8.81593132362468E-06,2.98828125,0,0.00862881311360449
-2.20509682549164E-05,8.03702369012171E-06,2.98828125,0,0.00862881311360449
-1.84030614036601E-05,7.49615082895616E-06,2.98828125,0,0.00862881311360449
-2.61011100519681E-05,1.20821669042925E-05,2.98828125,0,0.00862881311360449
-1.93014311662409E-05,1.13576088551781E-05,2.98828125,0,0.00862881311360449
-2.34539020311786E-05,1.30712633108487E-05,2.98828125,0,0.00862881311360449
-1.90796217793832E-05,9.8818291007774E-06,2.98828125,0,0.00862881311360449
-2.11853785003768E-05,8.73458793648751E-06,2.98828125,0,0.00862881311360449
-1.94989515875932E-05,6.62522552374867E-06,2.98828125,0,0.00862881311360449
-2.14972296816995E-05,7.88728630141122E-06,2.98828125,0,0.00862881311360449
-2.32672864513006E-05,9.80594086286146E-06,2.98828125,0,0.00862881311360449
-2.42897076532245E-05,1.07199757621856E-05,2.98828125,0,0.00862881311360449
-2.25641451834235E-05,1.16171322588343E-05,2.98828125,0,0.00862881311360449
-1.89277288882295E-05,1.24581429190584E-05,2.98828125,0,0.00862881311360449
-1.92522911675042E-05,1.30223497762927E-05,2.98828125,0,0.00862881311360449
-2.02939572773175E-05,1.17057670649956E-05,2.98828125,0,0.00862881311360449
-2.35074858210282E-05,1.01903342510923E-05,2.98828125,0,0.00862881311360449
-2.34850940614706E-05,8.60296950122574E-06,2.98828125,0,0.00862881311360449
-2.37171643675538E-05,9.90743956208462E-06,2.98828125,0,0.00862881311360449
-2.25434778258204E-05,1.09201746454346E-05,2.98828125,0,0.00862881311360449
-2.47907246375689E-05,1.05357830761932E-05,2.98828125,0,0.00862881311360449
-2.47909956669901E-05,8.50283231557114E-06,2.98828125,0,0.00862881311360449
-2.50120465352666E-05,8.1597254393273E-06,2.98828125,0,0.00862881311360449
-2.4761849999777E-05,8.78268110682257E-06,2.98828125,0,0.00862881311360449
-2.52228801400634E-05,9.89501131698489E-06,2.98828125,0,0.00862881311360449
-2.50057801167713E-05,9.71590725384885E-06,2.98828125,0,0.00862881311360449
-2.50649482040899E-05,8.33936337585328E-06,2.98828125,0,0.00862881311360449
-2.44603543251287E-05,7.20400885256822E-06,2.98828125,0,0.00862881311360449
-2.53921243711375E-05,7.06318314769305E-06,2.98828125,0,0.00862881311360449
-2.1643167201546E-05,6.68277880322421E-06,2.98828125,0,0.00862881311360449
-3.05101802950958E-05,1.02586054708809E-05,2.98828125,0,0.00862881311360449
-2.35710485867457E-05,1.01571613413398E-05,2.98828125,0,0.00862881311360449
-3.01342915918212E-05,1.43434608617099E-05,2.98828125,0,0.00862881311360449
-2.63903330051107E-05,1.40236061270116E-05,2.98828125,0,0.00862881311360449
-2.96198195428588E-05,1.47169894262333E-05,2.98828125,0,0.00862881311360449
-2.68383446382359E-05,1.39215972012607E-05,2.98828125,0,0.00862881311360449
-2.85416681435891E-05,1.33039411593927E-05,2.98828125,0,0.00862881311360449
-2.85955338767963E-05,1.07358700915938E-05,2.98828125,0,0.00862881311360449
-2.89048093691235E-05,8.53787514643045E-06,2.98828125,0,0.00862881311360449
-2.84919096884551E-05,7.98061955720186E-06,2.98828125,0,0.00862881311360449
-2.72982615570072E-05,8.00123962108046E-06,2.98828125,0,0.00862881311360449
-2.84144080069382E-05,7.72026851336705E-06,2.98828125,0,0.00862881311360449
-2.76472692348761E-05,5.66152129977127E-06,2.98828125,0,0.00862881311360449
-2.79911146208178E-05,5.39498796570115E-06,2.98828125,0,0.00862881311360449
-2.49790991802001E-05,6.28433144811424E-06,2.98828125,0,0.00862881311360449
-2.4880009732442E-05,8.89527564140735E-06,2.98828125,0,0.00862881311360449
-2.42259939113865E-05,1.06350516944076E-05,2.98828125,0,0.00862881311360449
-2.65172366198385E-05,1.15467028081184E-05,2.98828125,0,0.00862881311360449
-2.54830156336538E-05,1.09159900603117E-05,2.98828125,0,0.00862881311360449
-2.52568133873865E-05,1.14909826152143E-05,2.98828125,0,0.00862881311360449
-2.35444113059202E-05,1.23120516946074E-05,2.98828125,0,0.00862881311360449
-2.3192513253889E-05,1.31907527247677E-05,2.98828125,0,0.00862881311360449
-2.20020756387385E-05,1.29499057948124E-05,2.98828125,0,0.00862881311360449
-2.21603913814761E-05,1.25098122225609E-05,2.98828125,0,0.00862881311360449
-2.27789132623002E-05,1.20430613606004E-05,2.98828125,0,0.00862881311360449
-2.44564052991336E-05,1.18042225949466E-05,2.98828125,0,0.00862881311360449
-2.05735777853988E-05,8.15203202364501E-06,2.98828125,0,0.00862881311360449
-2.89421095658327E-05,1.14993781608064E-05,2.98828125,0,0.00862881311360449
-2.21578557102475E-05,1.11671643026057E-05,2.98828125,0,0.00862881311360449
-2.87551465589786E-05,1.66044937941479E-05,2.98828125,0,0.00862881311360449
-2.50201865128474E-05,1.51797603393788E-05,2.98828125,0,0.00862881311360449
-2.76362334261648E-05,1.58215225383174E-05,2.98828125,0,0.00862881311360449
-2.51455730904127E-05,1.36445714815636E-05,2.98828125,0,0.00862881311360449
-2.45407463808078E-05,1.35614800456096E-05,2.98828125,0,0.00862881311360449
-2.22323178604711E-05,1.41546242957702E-05,2.98828125,0,0.00862881311360449
-2.24793730012607E-05,1.52604970935499E-05,2.98828125,0,0.00862881311360449
-2.34450326388469E-05,1.50804435179452E-05,2.98828125,0,0.00862881311360449
-2.28533572226297E-05,1.3795144695905E-05,2.98828125,0,0.00862881311360449
-2.38746797549538E-05,1.2993047675991E-05,2.98828125,0,0.00862881311360449
-2.31285011977889E-05,1.16050223368802E-05,2.98828125,0,0.00862881311360449
-2.4361812393181E-05,1.16966402856633E-05,2.98828125,0,0.00862881311360449
-2.33090868277941E-05,1.20255444926443E-05,2.98828125,0,0.00862881311360449
-2.4340852178284E-05,1.3801308341499E-05,2.98828125,0,0.00862881311360449
-2.36652449530084E-05,1.39144694912829E-05,2.98828125,0,0.00862881311360449
-2.4935096007539E-05,1.39088533614995E-05,2.98828125,0,0.00862881311360449
-2.35827592405258E-05,1.20494587463327E-05,2.98828125,0,0.00862881311360449
-2.39834116655402E-05,1.00805718830088E-05,2.98828125,0,0.00862881311360449
-2.34108320000814E-05,8.98062262422172E-06,2.98828125,0,0.00862881311360449
-2.38356933550676E-05,1.06096622403129E-05,2.98828125,0,0.00862881311360449
-2.33049195230706E-05,1.09326238089125E-05,2.98828125,0,0.00862881311360449
-2.29328688874375E-05,1.12464467747486E-05,2.98828125,0,0.00862881311360449
-2.23462084250059E-05,1.16563278425019E-05,2.98828125,0,0.00862881311360449
-2.27084601647221E-05,1.07635669337469E-05,2.98828125,0,0.00862881311360449
-2.0031842723256E-05,8.58905696077272E-06,2.98828125,0,0.00862881311360449
-2.88211449515074E-05,1.2967841939826E-05,2.98828125,0,0.00862881311360449
-2.18951772694709E-05,9.69081884250045E-06,2.98828125,0,0.00862881311360449
-2.58765485341428E-05,1.01050463854335E-05,2.98828125,0,0.00862881311360449
-2.0985718947486E-05,8.97673362487694E-06,2.98828125,0,0.00862881311360449
-2.43281865550671E-05,1.19360793178203E-05,2.98828125,0,0.00862881311360449
-2.31499798246659E-05,1.01524628917105E-05,2.98828125,0,0.00862881311360449
-2.46883391810115E-05,8.72602868184913E-06,2.98828125,0,0.00862881311360449
-2.46176332439063E-05,9.01085968507687E-06,2.98828125,0,0.00862881311360449
-2.42764799622819E-05,9.91079105006065E-06,2.98828125,0,0.00862881311360449
-2.44150560320122E-05,1.05254612208228E-05,2.98828125,0,0.00862881311360449
-2.39798955590231E-05,1.04238033600268E-05,2.98828125,0,0.00862881311360449
-2.41779198404402E-05,1.01496652860078E-05,2.98828125,0,0.00862881311360449
-2.19975172512932E-05,8.46351304062409E-06,2.98828125,0,0.00862881311360449
-2.22946582653094E-05,8.11273002909729E-06,2.98828125,0,0.00862881311360449
-2.13002513191896E-05,7.66940229368629E-06,2.98828125,0,0.00862881311360449
-2.30415935220663E-05,8.48690433485899E-06,2.98828125,0,0.00862881311360449
-2.31128287850879E-05,8.76338708621915E-06,2.98828125,0,0.00862881311360449
-2.41966426983709E-05,9.0341136456118E-06,2.98828125,0,0.00862881311360449
-2.16326625377405E-05,8.26908126327908E-06,2.98828125,0,0.00862881311360449
-2.08750971069094E-05,8.27558233140735E-06,2.98828125,0,0.00862881311360449
-2.10528596653603E-05,8.36662002257071E-06,2.98828125,0,0.00862881311360449
-2.20607798837591E-05,1.00910892797401E-05,2.98828125,0,0.00862881311360449
-2.07461816899013E-05,1.14794138426078E-05,2.98828125,0,0.00862881311360449
-1.94798376469407E-05,1.1728989193216E-05,2.98828125,0,0.00862881311360449
-1.88441681530094E-05,9.57456450123573E-06,2.98828125,0,0.00862881311360449
-2.03567033167928E-05,8.49033040140057E-06,2.98828125,0,0.00862881311360449
-1.83967604243662E-05,8.032247023948E-06,2.98828125,0,0.00862881311360449
-2.5843230105238E-05,1.1286033441138E-05,2.98828125,0,0.00862881311360449
-1.84095333679579E-05,9.14387328521116E-06,2.98828125,0,0.00862881311360449
-2.26457304961514E-05,1.24745129141957E-05,2.98828125,0,0.00862881311360449
-2.02271567104617E-05,1.14433250928414E-05,2.98828125,0,0.00862881311360449
-2.44489947363036E-05,1.298466395383E-05,2.98828125,0,0.00862881311360449
-2.30951827688841E-05,1.14348531496944E-05,2.98828125,0,0.00862881311360449
-2.39869605138665E-05,1.06011439129361E-05,2.98828125,0,0.00862881311360449
-2.45491955865873E-05,1.03138936538016E-05,2.98828125,0,0.00862881311360449
-2.47702919295989E-05,1.02840040199226E-05,2.98828125,0,0.00862881311360449
-2.31178255489795E-05,9.28217014006805E-06,2.98828125,0,0.00862881311360449
-2.073057112284E-05,7.89642308518523E-06,2.98828125,0,0.00862881311360449
-2.1501473383978E-05,7.61171168051078E-06,2.98828125,0,0.00862881311360449
-2.19206613110146E-05,7.18963201506995E-06,2.98828125,0,0.00862881311360449
-2.31778303714236E-05,9.15311102289706E-06,2.98828125,0,0.00862881311360449
-2.14167066587834E-05,1.01759078461328E-05,2.98828125,0,0.00862881311360449
-2.23832994379336E-05,9.61913792707492E-06,2.98828125,0,0.00862881311360449
-2.23288607230643E-05,7.13715598976705E-06,2.98828125,0,0.00862881311360449
-2.35381412494462E-05,7.21678679838078E-06,2.98828125,0,0.00862881311360449
-2.160909025406E-05,9.07896628632443E-06,2.98828125,0,0.00862881311360449
-2.06822478503454E-05,1.27324110508198E-05,2.98828125,0,0.00862881311360449
-2.01590428332565E-05,1.41472910399898E-05,2.98828125,0,0.00862881311360449
-2.14662668440724E-05,1.31909991978318E-05,2.98828125,0,0.00862881311360449
-2.24101058847737E-05,1.06793995655607E-05,2.98828125,0,0.00862881311360449
-2.50193697866052E-05,9.56471376412082E-06,2.98828125,0,0.00862881311360449
-2.72083834715886E-05,8.69741325004725E-06,2.98828125,0,0.00862881311360449
-2.74438516498776E-05,6.9482744038396E-06,2.98828125,0,0.00862881311360449
-2.15114469028777E-05,5.04123454447836E-06,2.98828125,0,0.00862881311360449
-2.99175262625795E-05,7.15653459337773E-06,2.98828125,0,0.00862881311360449
-2.18432796827983E-05,8.75058867677581E-06,2.98828125,0,0.00862881311360449
-2.72589404630708E-05,1.48516210174421E-05,2.98828125,0,0.00862881311360449
-2.26625652430812E-05,1.41076789077488E-05,2.98828125,0,0.00862881311360449
-2.57220053754281E-05,1.2885525393358E-05,2.98828125,0,0.00862881311360449
-2.36700489040231E-05,1.01348896350828E-05,2.98828125,0,0.00862881311360449
-2.52940753853181E-05,8.15352905192412E-06,2.98828125,0,0.00862881311360449
-2.4461856810376E-05,6.73975273457472E-06,2.98828125,0,0.00862881311360449
-2.37852618738543E-05,7.07639310348895E-06,2.98828125,0,0.00862881311360449
-2.4079055947368E-05,8.605255970906E-06,2.98828125,0,0.00862881311360449
-2.43023514485685E-05,1.02015310403658E-05,2.98828125,0,0.00862881311360449
-2.57952233368997E-05,1.21476068670745E-05,2.98828125,0,0.00862881311360449
-2.51281344390009E-05,1.26984286907827E-05,2.98828125,0,0.00862881311360449
-2.56133698712802E-05,1.30524485939532E-05,2.98828125,0,0.00862881311360449
-2.31411413551541E-05,1.36487415147712E-05,2.98828125,0,0.00862881311360449
-2.40218341787113E-05,1.56976111611584E-05,2.98828125,0,0.00862881311360449
-2.38186912611127E-05,1.66537574841641E-05,2.98828125,0,0.00862881311360449
-2.56134499068139E-05,1.69397990248399E-05,2.98828125,0,0.00862881311360449
-2.40391218540026E-05,1.51536978592048E-05,2.98828125,0,0.00862881311360449
-2.36917676375015E-05,1.38923478516517E-05,2.98828125,0,0.00862881311360449
-2.24414561671438E-05,1.41343434734154E-05,2.98828125,0,0.00862881311360449
-2.37419517361559E-05,1.47191531141289E-05,2.98828125,0,0.00862881311360449
-2.45562823693035E-05,1.46377515193308E-05,2.98828125,0,0.00862881311360449
-2.51782803388778E-05,1.55016950884601E-05,2.98828125,0,0.00862881311360449
-2.47276948357467E-05,1.53286819113418E-05,2.98828125,0,0.00862881311360449
-2.42907663050573E-05,1.4175207070366E-05,2.98828125,0,0.00862881311360449
-1.93423456948949E-05,1.10175487861852E-05,2.98828125,0,0.00862881311360449
-2.83911758742761E-05,1.59483752213418E-05,2.98828125,0,0.00862881311360449
-2.27932323468849E-05,1.1305343832646E-05,2.98828125,0,0.00862881311360449
-2.883723936975E-05,1.19706683108234E-05,2.98828125,0,0.00862881311360449
-2.53105645242613E-05,8.12544021755457E-06,2.98828125,0,0.00862881311360449
-2.70264190476155E-05,7.90016383689363E-06,2.98828125,0,0.00862881311360449
-2.50570901698666E-05,4.36078016718966E-06,2.98828125,0,0.00862881311360449
-2.70802884188015E-05,4.20881588070188E-06,2.98828125,0,0.00862881311360449
-2.79830674116965E-05,3.70080465472711E-06,2.98828125,0,0.00862881311360449
-2.86594913632143E-05,2.78943866760528E-06,2.98828125,0,0.00862881311360449
-2.87370548903709E-05,2.48344076680951E-06,2.98828125,0,0.00862881311360449
-2.78675452136667E-05,2.87727061731857E-06,2.98828125,0,0.00862881311360449
-2.87498532998143E-05,5.19041577717871E-06,2.98828125,0,0.00862881311360449
-2.82346591120586E-05,5.99168197368272E-06,2.98828125,0,0.00862881311360449
-2.84719826595392E-05,6.34838579571806E-06,2.98828125,0,0.00862881311360449
-2.59191074292175E-05,5.99066379436408E-06,2.98828125,0,0.00862881311360449
-2.5893799829646E-05,9.3618655228056E-06,2.98828125,0,0.00862881311360449
-2.43801587203052E-05,1.29512736748438E-05,2.98828125,0,0.00862881311360449
-2.42043752223253E-05,1.58797538460931E-05,2.98828125,0,0.00862881311360449
-2.24949890252901E-05,1.55995858222013E-05,2.98828125,0,0.00862881311360449
-2.25981602852698E-05,1.53468445205363E-05,2.98828125,0,0.00862881311360449
-2.16813641600311E-05,1.4496185031021E-05,2.98828125,0,0.00862881311360449
-2.19533976633102E-05,1.4580969036615E-05,2.98828125,0,0.00862881311360449
-2.18927780224476E-05,1.37398201331962E-05,2.98828125,0,0.00862881311360449
-2.20008787437109E-05,1.20377471830579E-05,2.98828125,0,0.00862881311360449
-2.1567459043581E-05,9.45432839216664E-06,2.98828125,0,0.00862881311360449
-2.182637945225E-05,8.28552128950832E-06,2.98828125,0,0.00862881311360449
-1.89452239283128E-05,8.45555041451007E-06,2.98828125,0,0.00862881311360449
-2.66123479377711E-05,1.11913768705563E-05,2.98828125,0,0.00862881311360449
-1.82459534698864E-05,8.65177753439639E-06,2.98828125,0,0.00862881311360449
-2.12703089346178E-05,1.21335197036387E-05,2.98828125,0,0.00862881311360449
-1.8804987121257E-05,9.67505184235051E-06,2.98828125,0,0.00862881311360449
-2.42844162130496E-05,8.81088999449275E-06,2.98828125,0,0.00862881311360449
-2.39286055148114E-05,6.45394720777404E-06,2.98828125,0,0.00862881311360449
-2.50062985287514E-05,6.64513027004432E-06,2.98828125,0,0.00862881311360449
-2.44718848989578E-05,5.24539473190089E-06,2.98828125,0,0.00862881311360449
-2.44211823883234E-05,3.58561510438449E-06,2.98828125,0,0.00862881311360449
-2.45588635152671E-05,3.92889296563226E-06,2.98828125,0,0.00862881311360449
-2.41564630414359E-05,5.83618975724676E-06,2.98828125,0,0.00862881311360449
-2.4802877305774E-05,8.85583358467557E-06,2.98828125,0,0.00862881311360449
-2.34480539802462E-05,9.64424907579087E-06,2.98828125,0,0.00862881311360449
-2.42766582232434E-05,9.64515129453503E-06,2.98828125,0,0.00862881311360449
-2.30421956075588E-05,8.26639279694064E-06,2.98828125,0,0.00862881311360449
-2.39395176322432E-05,8.95965058589354E-06,2.98828125,0,0.00862881311360449
-2.34917861234862E-05,9.28341523831477E-06,2.98828125,0,0.00862881311360449
-2.51323472184595E-05,1.02923568192637E-05,2.98828125,0,0.00862881311360449
-2.46616818913026E-05,1.06686038634507E-05,2.98828125,0,0.00862881311360449
-2.5231618565158E-05,1.20626409625402E-05,2.98828125,0,0.00862881311360449
-2.41983016167069E-05,1.19491623991053E-05,2.98828125,0,0.00862881311360449
-2.33558694162639E-05,1.11997860585689E-05,2.98828125,0,0.00862881311360449
-2.23139140871353E-05,1.04892551462399E-05,2.98828125,0,0.00862881311360449
-2.33290465985192E-05,1.06868465081789E-05,2.98828125,0,0.00862881311360449
-2.39500386669533E-05,1.11959907371784E-05,2.98828125,0,0.00862881311360449
-2.34082071983721E-05,1.23053650895599E-05,2.98828125,0,0.00862881311360449
-1.9210474420106E-05,1.13085816337843E-05,2.98828125,0,0.00862881311360449
-2.75340371445054E-05,1.57887607201701E-05,2.98828125,0,0.00862881311360449
-2.04334828595165E-05,1.00993920568726E-05,2.98828125,0,0.00862881311360449
-2.43092054006411E-05,1.13135574792977E-05,2.98828125,0,0.00862881311360449
-2.10588950722013E-05,8.52456832944881E-06,2.98828125,0,0.00862881311360449
-2.48048472712981E-05,1.01438599813264E-05,2.98828125,0,0.00862881311360449
-2.37152798945317E-05,9.94343827187549E-06,2.98828125,0,0.00862881311360449
-2.6248964786646E-05,1.16051260192762E-05,2.98828125,0,0.00862881311360449
-2.67211580649018E-05,1.28887350001605E-05,2.98828125,0,0.00862881311360449
-2.6678855647333E-05,1.40269339681254E-05,2.98828125,0,0.00862881311360449
-2.60338074440369E-05,1.43256156661664E-05,2.98828125,0,0.00862881311360449
-2.49068125413032E-05,1.35471909743501E-05,2.98828125,0,0.00862881311360449
-2.55446939263493E-05,1.30165171867702E-05,2.98828125,0,0.00862881311360449
-2.42280311795184E-05,1.09752918433514E-05,2.98828125,0,0.00862881311360449
-2.4870372726582E-05,1.15305520012043E-05,2.98828125,0,0.00862881311360449
-2.44121802097652E-05,1.24063408293296E-05,2.98828125,0,0.00862881311360449
-2.65804628725164E-05,1.36333655973431E-05,2.98828125,0,0.00862881311360449
-2.56534294749144E-05,1.24139733088668E-05,2.98828125,0,0.00862881311360449
-2.5926330636139E-05,1.23489435281954E-05,2.98828125,0,0.00862881311360449
-2.4794569981168E-05,1.22844312500092E-05,2.98828125,0,0.00862881311360449
-2.46354484261246E-05,1.24755051729153E-05,2.98828125,0,0.00862881311360449
-2.20300044020405E-05,1.12991419882746E-05,2.98828125,0,0.00862881311360449
-2.01530910999281E-05,1.03014126580092E-05,2.98828125,0,0.00862881311360449
-1.9536615582183E-05,7.67446636018576E-06,2.98828125,0,0.00862881311360449
-2.23453789658379E-05,6.7716764533543E-06,2.98828125,0,0.00862881311360449
-2.60224587691482E-05,9.66849529504543E-06,2.98828125,0,0.00862881311360449
-2.8064538128092E-05,1.27514849737054E-05,2.98828125,0,0.00862881311360449
-2.1241772628855E-05,9.6657613539719E-06,2.98828125,0,0.00862881311360449
-3.00563006021548E-05,1.19004662337829E-05,2.98828125,0,0.00862881311360449
-2.35753159358865E-05,6.78425021760631E-06,2.98828125,0,0.00862881311360449
-2.99881758110132E-05,9.18893238122109E-06,2.98828125,0,0.00862881311360449
-2.57540086749941E-05,7.53325775804115E-06,2.98828125,0,0.00862881311360449
-2.92770164378453E-05,1.14827962534036E-05,2.98828125,0,0.00862881311360449
-2.67411214736057E-05,1.26771419672878E-05,2.98828125,0,0.00862881311360449
-2.71860735665541E-05,1.31189408421051E-05,2.98828125,0,0.00862881311360449
-2.54818460234674E-05,1.19771420941106E-05,2.98828125,0,0.00862881311360449
-2.49734948738478E-05,1.15472739707911E-05,2.98828125,0,0.00862881311360449
-2.54692240559962E-05,1.1240965250181E-05,2.98828125,0,0.00862881311360449
-2.46077852352755E-05,1.15593738883035E-05,2.98828125,0,0.00862881311360449
-2.47174903051928E-05,1.34202709887177E-05,2.98828125,0,0.00862881311360449
-2.23992010432994E-05,1.37564147735247E-05,2.98828125,0,0.00862881311360449
-2.18048880924471E-05,1.39606736411224E-05,2.98828125,0,0.00862881311360449
-1.94193980860291E-05,1.29803202071344E-05,2.98828125,0,0.00862881311360449
-2.15154832403641E-05,1.38689765663003E-05,2.98828125,0,0.00862881311360449
-2.27440614253283E-05,1.36530079544173E-05,2.98828125,0,0.00862881311360449
-2.47471489274176E-05,1.3329225112102E-05,2.98828125,0,0.00862881311360449
-2.34698600252159E-05,1.1910191460629E-05,2.98828125,0,0.00862881311360449
-2.37828735407675E-05,1.16621349661727E-05,2.98828125,0,0.00862881311360449
-2.2487740352517E-05,1.01395908131963E-05,2.98828125,0,0.00862881311360449
-2.1900266801822E-05,1.00666420621565E-05,2.98828125,0,0.00862881311360449
-2.08490873774281E-05,1.05732005977188E-05,2.98828125,0,0.00862881311360449
-2.14343854167964E-05,1.14371559902793E-05,2.98828125,0,0.00862881311360449
-2.19170742639108E-05,1.07861815195065E-05,2.98828125,0,0.00862881311360449
-2.24431096285116E-05,1.03841794043547E-05,2.98828125,0,0.00862881311360449
-1.86750712600769E-05,9.67092273640446E-06,2.98828125,0,0.00862881311360449
-2.58301934081828E-05,1.39971052703913E-05,2.98828125,0,0.00862881311360449
-1.77572892425815E-05,1.12393709059688E-05,2.98828125,0,0.00862881311360449
-2.12643044505967E-05,1.30425514726085E-05,2.98828125,0,0.00862881311360449
-1.70271814567968E-05,9.43967552302638E-06,2.98828125,0,0.00862881311360449
-1.9537530533853E-05,1.0772307177831E-05,2.98828125,0,0.00862881311360449
-1.72398613358382E-05,1.07494224721449E-05,2.98828125,0,0.00862881311360449
-1.73299322341336E-05,1.18331690828199E-05,2.98828125,0,0.00862881311360449
-1.70618368429132E-05,1.0635925718816E-05,2.98828125,0,0.00862881311360449
-1.89664242498111E-05,9.48720480664633E-06,2.98828125,0,0.00862881311360449
-2.09466106753098E-05,9.75556849880377E-06,2.98828125,0,0.00862881311360449
-2.07819193747127E-05,9.10890412342269E-06,2.98828125,0,0.00862881311360449
-2.13636867556488E-05,8.91035142558394E-06,2.98828125,0,0.00862881311360449
-2.03003764909226E-05,8.83946904650657E-06,2.98828125,0,0.00862881311360449
-2.15469954127911E-05,1.09095744846854E-05,2.98828125,0,0.00862881311360449
-2.05878332053544E-05,1.06933512142859E-05,2.98828125,0,0.00862881311360449
-2.19114772335161E-05,8.83730353962164E-06,2.98828125,0,0.00862881311360449
-2.26187403313816E-05,5.47083163837669E-06,2.98828125,0,0.00862881311360449
-2.5709843612276E-05,6.32097544439603E-06,2.98828125,0,0.00862881311360449
-2.59887128777336E-05,9.69203301792732E-06,2.98828125,0,0.00862881311360449
-2.58968029811513E-05,1.39003668664373E-05,2.98828125,0,0.00862881311360449
-2.38906759477686E-05,1.43695042424952E-05,2.98828125,0,0.00862881311360449
-2.30493515118724E-05,1.18609987111995E-05,2.98828125,0,0.00862881311360449
-2.32409165619174E-05,9.03045656741597E-06,2.98828125,0,0.00862881311360449
-2.50143693847349E-05,7.29535895516165E-06,2.98828125,0,0.00862881311360449
-2.53357866313308E-05,7.12742485120543E-06,2.98828125,0,0.00862881311360449
-2.50115681410534E-05,8.75548266776605E-06,2.98828125,0,0.00862881311360449
-2.07043358386727E-05,8.59300234878901E-06,2.98828125,0,0.00862881311360449
-2.90088919427944E-05,1.20427957881475E-05,2.98828125,0,0.00862881311360449
-2.13510520552518E-05,8.23312984721269E-06,2.98828125,0,0.00862881311360449
-2.70534401352052E-05,9.2269983724691E-06,2.98828125,0,0.00862881311360449
-2.30324367294088E-05,7.42044176149648E-06,2.98828125,0,0.00862881311360449
-2.51803794526495E-05,9.88792089628987E-06,2.98828125,0,0.00862881311360449
-2.28237058763625E-05,9.68749736784957E-06,2.98828125,0,0.00862881311360449
-2.45476403506473E-05,9.89366162684746E-06,2.98828125,0,0.00862881311360449
-2.45878727582749E-05,9.4438937594532E-06,2.98828125,0,0.00862881311360449
-2.45842566073406E-05,8.40093525766861E-06,2.98828125,0,0.00862881311360449
-2.36115702136885E-05,8.25332244858146E-06,2.98828125,0,0.00862881311360449
-2.20029851334402E-05,9.70632572716568E-06,2.98828125,0,0.00862881311360449
-2.31964768317994E-05,1.1556130630197E-05,2.98828125,0,0.00862881311360449
-2.25466028496157E-05,1.02376261565951E-05,2.98828125,0,0.00862881311360449
-2.33699374803109E-05,9.32247075979831E-06,2.98828125,0,0.00862881311360449
-2.21764075831743E-05,8.3392678789096E-06,2.98828125,0,0.00862881311360449
-2.46234267251566E-05,8.87926489667734E-06,2.98828125,0,0.00862881311360449
-2.60511005762964E-05,9.29780435399152E-06,2.98828125,0,0.00862881311360449
-2.83895496977493E-05,1.14211898107897E-05,2.98828125,0,0.00862881311360449
-2.65277139988029E-05,1.22508226922946E-05,2.98828125,0,0.00862881311360449
-2.55203740380239E-05,1.19427140816697E-05,2.98828125,0,0.00862881311360449
-2.43911053985357E-05,1.05759190773824E-05,2.98828125,0,0.00862881311360449
-2.50616412813542E-05,8.81540927366586E-06,2.98828125,0,0.00862881311360449
-2.48111409746343E-05,7.16381191523396E-06,2.98828125,0,0.00862881311360449
-2.59059506788617E-05,7.34802824808867E-06,2.98828125,0,0.00862881311360449
-2.70005839411169E-05,8.33114700071746E-06,2.98828125,0,0.00862881311360449
-2.80400618066778E-05,1.0056777682621E-05,2.98828125,0,0.00862881311360449
-2.36946798395365E-05,9.53928247326985E-06,2.98828125,0,0.00862881311360449
-3.20865547109861E-05,1.30100679598399E-05,2.98828125,0,0.00862881311360449
-2.1989344531903E-05,8.17937689134851E-06,2.98828125,0,0.00862881311360449
-2.7575166313909E-05,9.80159074970288E-06,2.98828125,0,0.00862881311360449
-2.17658180190483E-05,9.26471238926752E-06,2.98828125,0,0.00862881311360449
-2.47521402343409E-05,1.10561468318338E-05,2.98828125,0,0.00862881311360449
-2.329253948119E-05,7.28884970158106E-06,2.98828125,0,0.00862881311360449
-2.52526351687266E-05,6.29873511570622E-06,2.98828125,0,0.00862881311360449
-2.48358937824378E-05,7.71689792600228E-06,2.98828125,0,0.00862881311360449
-2.54990591201931E-05,9.1684651124524E-06,2.98828125,0,0.00862881311360449
-2.59496937360382E-05,9.69915981841041E-06,2.98828125,0,0.00862881311360449
-2.54073565884028E-05,9.86602299235528E-06,2.98828125,0,0.00862881311360449
-2.62690336967353E-05,1.12671596070868E-05,2.98828125,0,0.00862881311360449
-2.42216028709663E-05,1.13975565909641E-05,2.98828125,0,0.00862881311360449
-2.49120676016901E-05,1.15483926492743E-05,2.98828125,0,0.00862881311360449
-2.42634141613962E-05,1.02871172202867E-05,2.98828125,0,0.00862881311360449
-2.70581986114848E-05,1.07986088551115E-05,2.98828125,0,0.00862881311360449
-2.65268099610694E-05,1.04738701338647E-05,2.98828125,0,0.00862881311360449
-2.7208263418288E-05,1.00330480563571E-05,2.98828125,0,0.00862881311360449
-2.59658099821536E-05,8.22885249363026E-06,2.98828125,0,0.00862881311360449
-2.72763754765037E-05,8.06960179033922E-06,2.98828125,0,0.00862881311360449
-2.65742819465231E-05,9.30079750105506E-06,2.98828125,0,0.00862881311360449
-2.67277991952142E-05,1.11506633402314E-05,2.98828125,0,0.00862881311360449
-2.62908979493659E-05,1.0727931112342E-05,2.98828125,0,0.00862881311360449
-2.60611705016345E-05,1.1024322702724E-05,2.98828125,0,0.00862881311360449
-2.60860397247598E-05,1.2305505151744E-05,2.98828125,0,0.00862881311360449
-2.71024782705354E-05,1.33850762722432E-05,2.98828125,0,0.00862881311360449
-2.07209614018211E-05,1.12928910311894E-05,2.98828125,0,0.00862881311360449
-2.95211320917588E-05,1.55433644977165E-05,2.98828125,0,0.00862881311360449
-2.19989124161657E-05,1.09642642200924E-05,2.98828125,0,0.00862881311360449
-2.59981043200241E-05,1.42556955324835E-05,2.98828125,0,0.00862881311360449
-2.12578743230551E-05,1.171090752905E-05,2.98828125,0,0.00862881311360449
-2.39378732658224E-05,1.32225522975205E-05,2.98828125,0,0.00862881311360449
-2.20371766772587E-05,1.27383218568866E-05,2.98828125,0,0.00862881311360449
-2.48305659624748E-05,1.37687366077444E-05,2.98828125,0,0.00862881311360449
-2.51767378358636E-05,1.28700039567775E-05,2.98828125,0,0.00862881311360449
-2.48845990427071E-05,9.91150227491744E-06,2.98828125,0,0.00862881311360449
-2.3698801669525E-05,7.26205553291948E-06,2.98828125,0,0.00862881311360449
-2.11833266803296E-05,6.81898609400378E-06,2.98828125,0,0.00862881311360449
-2.07467328436906E-05,8.45961494633229E-06,2.98828125,0,0.00862881311360449
-1.98338584596058E-05,7.42257907404564E-06,2.98828125,0,0.00862881311360449
-2.24214982154081E-05,6.60274736219435E-06,2.98828125,0,0.00862881311360449
-2.24594732571859E-05,5.69964186070138E-06,2.98828125,0,0.00862881311360449
-2.3449716536561E-05,6.25809752818896E-06,2.98828125,0,0.00862881311360449
-2.17396154766902E-05,5.62484137844876E-06,2.98828125,0,0.00862881311360449
-2.2629717932432E-05,7.36580113880336E-06,2.98828125,0,0.00862881311360449
-2.21271384361899E-05,9.03608997759875E-06,2.98828125,0,0.00862881311360449
-2.30154964810936E-05,1.0679389561119E-05,2.98828125,0,0.00862881311360449
-2.34178623941261E-05,1.13836022137548E-05,2.98828125,0,0.00862881311360449
-2.49414988502394E-05,1.2207689906063E-05,2.98828125,0,0.00862881311360449
-2.36685900745215E-05,1.2555160537886E-05,2.98828125,0,0.00862881311360449
-2.18851910176454E-05,1.29386562548461E-05,2.98828125,0,0.00862881311360449
-2.0649169528042E-05,1.1676977010211E-05,2.98828125,0,0.00862881311360449
-2.1633530195686E-05,1.1178596651007E-05,2.98828125,0,0.00862881311360449
-1.7034741176758E-05,1.0225534424535E-05,2.98828125,0,0.00862881311360449
-2.29911820497364E-05,1.59455521497875E-05,2.98828125,0,0.00862881311360449
-1.7364001905662E-05,1.31756060000043E-05,2.98828125,0,0.00862881311360449
-2.45965657086344E-05,1.49169673022698E-05,2.98828125,0,0.00862881311360449
-2.32160291488981E-05,1.2623116163013E-05,2.98828125,0,0.00862881311360449
-2.54222450166708E-05,1.48842227645218E-05,2.98828125,0,0.00862881311360449
-2.15884938370436E-05,1.53944529301953E-05,2.98828125,0,0.00862881311360449
-2.10949820029782E-05,1.43624592965352E-05,2.98828125,0,0.00862881311360449
-2.04246734938351E-05,1.01973137134337E-05,2.98828125,0,0.00862881311360449
-2.19126395677449E-05,6.50170386506943E-06,2.98828125,0,0.00862881311360449
-2.30537370953243E-05,4.43094177171588E-06,2.98828125,0,0.00862881311360449
-2.15279633266618E-05,2.12027293855499E-06,2.98828125,0,0.00862881311360449
-2.03519557544496E-05,3.61618788247142E-07,2.98828125,0,0.00862881311360449
-1.86825600394513E-05,-3.47438742664963E-07,2.98828125,0,0.00862881311360449
-2.00789181690197E-05,3.02029025078809E-06,2.98828125,0,0.00862881311360449
-2.01540951820789E-05,7.90923513704911E-06,2.98828125,0,0.00862881311360449
-2.18944260268472E-05,1.34332876768894E-05,2.98828125,0,0.00862881311360449
-2.10430844163056E-05,1.44483665280859E-05,2.98828125,0,0.00862881311360449
-2.16429798456375E-05,1.28525389300194E-05,2.98828125,0,0.00862881311360449
-2.13561179407407E-05,1.00558827398345E-05,2.98828125,0,0.00862881311360449
-2.35951865761308E-05,8.77419915923383E-06,2.98828125,0,0.00862881311360449
-2.39193213928957E-05,8.0659474406275E-06,2.98828125,0,0.00862881311360449
-2.35719689953839E-05,9.68140921031591E-06,2.98828125,0,0.00862881311360449
-2.20323672692757E-05,1.17761792353122E-05,2.98828125,0,0.00862881311360449
-2.27218843065202E-05,1.26631848615943E-05,2.98828125,0,0.00862881311360449
-2.41936195379822E-05,1.24655525723938E-05,2.98828125,0,0.00862881311360449
-2.441802098474E-05,1.14754966489272E-05,2.98828125,0,0.00862881311360449
-1.94764888874488E-05,8.45187605591491E-06,2.98828125,0,0.00862881311360449
-2.81911343336105E-05,1.2118682207074E-05,2.98828125,0,0.00862881311360449
-2.18619024963118E-05,1.06111956483801E-05,2.98828125,0,0.00862881311360449
-2.5872443075059E-05,1.51085969264386E-05,2.98828125,0,0.00862881311360449
-2.13323146454059E-05,1.49299512486323E-05,2.98828125,0,0.00862881311360449
-2.47781026700977E-05,1.64939683600096E-05,2.98828125,0,0.00862881311360449
-2.36333635257324E-05,1.49478873936459E-05,2.98828125,0,0.00862881311360449
-2.5439194359933E-05,1.4358782209456E-05,2.98828125,0,0.00862881311360449
-2.51286819548113E-05,1.37688075483311E-05,2.98828125,0,0.00862881311360449
-2.45488809014205E-05,1.33801868287264E-05,2.98828125,0,0.00862881311360449
-2.33317514357623E-05,1.27161847558455E-05,2.98828125,0,0.00862881311360449
-2.2601108867093E-05,1.23684203572338E-05,2.98828125,0,0.00862881311360449
-2.4824414140312E-05,1.22406381706242E-05,2.98828125,0,0.00862881311360449
-2.42300120589789E-05,1.07037240013597E-05,2.98828125,0,0.00862881311360449
-2.47930220211856E-05,9.75839611783158E-06,2.98828125,0,0.00862881311360449
-2.42047954088775E-05,8.31429133540951E-06,2.98828125,0,0.00862881311360449
-2.59497464867309E-05,9.75005332293222E-06,2.98828125,0,0.00862881311360449
-2.48407886829227E-05,1.13455580503796E-05,2.98828125,0,0.00862881311360449
-2.55552695307415E-05,1.25023452710593E-05,2.98828125,0,0.00862881311360449
-2.46501440415159E-05,1.16535229608417E-05,2.98828125,0,0.00862881311360449
-2.53495818469673E-05,1.23449690363486E-05,2.98828125,0,0.00862881311360449
-2.49141012318432E-05,1.24763073472423E-05,2.98828125,0,0.00862881311360449
-2.52520549111068E-05,1.22788887892966E-05,2.98828125,0,0.00862881311360449
-2.40990084421355E-05,1.18835014291108E-05,2.98828125,0,0.00862881311360449
-2.28879707719898E-05,1.1848896065203E-05,2.98828125,0,0.00862881311360449
-2.26840038521914E-05,1.25186488730833E-05,2.98828125,0,0.00862881311360449
-2.51293404289754E-05,1.35232221509796E-05,2.98828125,0,0.00862881311360449
-2.20582478505094E-05,1.29369436763227E-05,2.98828125,0,0.00862881311360449
-3.06886395264883E-05,1.81143423105823E-05,2.98828125,0,0.00862881311360449
-2.14243791560875E-05,1.31331962620607E-05,2.98828125,0,0.00862881311360449
-2.51442343142116E-05,1.68601654877421E-05,2.98828125,0,0.00862881311360449
-1.95600114238914E-05,1.36893804665306E-05,2.98828125,0,0.00862881311360449
-2.28918852371862E-05,1.3041390957369E-05,2.98828125,0,0.00862881311360449
-2.07994307857007E-05,8.89004513737746E-06,2.98828125,0,0.00862881311360449
-2.14129777305061E-05,6.48295826977119E-06,2.98828125,0,0.00862881311360449
-2.03449926630128E-05,4.68714370072121E-06,2.98828125,0,0.00862881311360449
-2.16189382626908E-05,4.48146056442056E-06,2.98828125,0,0.00862881311360449
-2.33994960581185E-05,5.29216094946605E-06,2.98828125,0,0.00862881311360449
-2.29283705266425E-05,6.63280025037238E-06,2.98828125,0,0.00862881311360449
-2.28961071115918E-05,9.19076137506636E-06,2.98828125,0,0.00862881311360449
-2.11496826523216E-05,9.85778297035722E-06,2.98828125,0,0.00862881311360449
-2.29484539886471E-05,1.09098855318734E-05,2.98828125,0,0.00862881311360449
-2.34367817029124E-05,9.93498269963311E-06,2.98828125,0,0.00862881311360449
-2.66452261712402E-05,9.92331752058817E-06,2.98828125,0,0.00862881311360449
-2.64647987933131E-05,9.38414814299904E-06,2.98828125,0,0.00862881311360449
-2.74839549092576E-05,1.14235626824666E-05,2.98828125,0,0.00862881311360449
-2.66276420006761E-05,1.26125269162003E-05,2.98828125,0,0.00862881311360449
-2.79159303318011E-05,1.39249159474275E-05,2.98828125,0,0.00862881311360449
-2.68528310698457E-05,1.31573051476153E-05,2.98828125,0,0.00862881311360449
-2.57918545685243E-05,1.29378886413178E-05,2.98828125,0,0.00862881311360449
-2.3945452994667E-05,1.28337642308907E-05,2.98828125,0,0.00862881311360449
-2.30423611355945E-05,1.44922796607716E-05,2.98828125,0,0.00862881311360449
-2.28911521844566E-05,1.64913417393109E-05,2.98828125,0,0.00862881311360449
-2.36266168940347E-05,1.55079560499871E-05,2.98828125,0,0.00862881311360449
-1.94901094801025E-05,1.11677045424585E-05,2.98828125,0,0.00862881311360449
-2.72562701866264E-05,1.48119806908653E-05,2.98828125,0,0.00862881311360449
-2.01608454517554E-05,9.17985107662389E-06,2.98828125,0,0.00862881311360449
-2.54581882472849E-05,1.05608114608913E-05,2.98828125,0,0.00862881311360449
-2.1834912331542E-05,7.1213539740711E-06,2.98828125,0,0.00862881311360449
-2.54294100159314E-05,8.55769212648738E-06,2.98828125,0,0.00862881311360449
-2.48813194048125E-05,7.35144703867263E-06,2.98828125,0,0.00862881311360449
-2.66475981334224E-05,8.24642211227911E-06,2.98828125,0,0.00862881311360449
-2.67027407971909E-05,7.90298872743733E-06,2.98828125,0,0.00862881311360449
-2.73300138360355E-05,6.70069221087033E-06,2.98828125,0,0.00862881311360449
-2.66405786533142E-05,5.05441403220175E-06,2.98828125,0,0.00862881311360449
-2.42845162574667E-05,3.27720636050799E-06,2.98828125,0,0.00862881311360449
-2.44718430622015E-05,4.08507366955746E-06,2.98828125,0,0.00862881311360449
-2.33443806791911E-05,5.07113145431504E-06,2.98828125,0,0.00862881311360449
-2.42065289057791E-05,7.63104708312312E-06,2.98828125,0,0.00862881311360449
-2.33739774557762E-05,7.79144284024369E-06,2.98828125,0,0.00862881311360449
-2.48262222157791E-05,7.47482454244164E-06,2.98828125,0,0.00862881311360449
-2.3629967472516E-05,6.71001134833205E-06,2.98828125,0,0.00862881311360449
-2.37794702115934E-05,7.90396279626293E-06,2.98828125,0,0.00862881311360449
-2.22740545723354E-05,6.33561012364225E-06,2.98828125,0,0.00862881311360449
-2.23910483327927E-05,5.09656683789217E-06,2.98828125,0,0.00862881311360449
-2.21487025555689E-05,4.98648159918957E-06,2.98828125,0,0.00862881311360449
-2.39090804825537E-05,6.88031877871254E-06,2.98828125,0,0.00862881311360449
-2.38456104852958E-05,8.98419057193678E-06,2.98828125,0,0.00862881311360449
-2.30385303439107E-05,1.0562834177108E-05,2.98828125,0,0.00862881311360449
-2.21477857849095E-05,1.06265970316599E-05,2.98828125,0,0.00862881311360449
-2.30096684390446E-05,1.08061140053906E-05,2.98828125,0,0.00862881311360449
-2.0564662918332E-05,9.5409986897721E-06,2.98828125,0,0.00862881311360449
-2.88184273813386E-05,1.36663729790598E-05,2.98828125,0,0.00862881311360449
-2.15806649066508E-05,1.0906135685218E-05,2.98828125,0,0.00862881311360449
-2.70731907221489E-05,1.37980550789507E-05,2.98828125,0,0.00862881311360449
-2.28869230340933E-05,1.21815155580407E-05,2.98828125,0,0.00862881311360449
-2.60488686762983E-05,1.51424637806485E-05,2.98828125,0,0.00862881311360449
-2.37149724853225E-05,1.46437187140691E-05,2.98828125,0,0.00862881311360449
-2.33280679822201E-05,1.32111044877092E-05,2.98828125,0,0.00862881311360449
-2.07614211831242E-05,1.26556678878842E-05,2.98828125,0,0.00862881311360449
-2.01388756977394E-05,1.30159305626876E-05,2.98828125,0,0.00862881311360449
-2.04856914933771E-05,1.23058543977095E-05,2.98828125,0,0.00862881311360449
-1.99187834368786E-05,1.11658318928676E-05,2.98828125,0,0.00862881311360449
-2.10245289054001E-05,1.13613823486958E-05,2.98828125,0,0.00862881311360449
-2.0125342416577E-05,1.17911195047782E-05,2.98828125,0,0.00862881311360449
-2.11883088923059E-05,1.39089270305703E-05,2.98828125,0,0.00862881311360449
-2.0406052499311E-05,1.43373335959041E-05,2.98828125,0,0.00862881311360449
-2.22010403376771E-05,1.51910817294265E-05,2.98828125,0,0.00862881311360449
-2.20112615352264E-05,1.49699926623725E-05,2.98828125,0,0.00862881311360449
-2.35751012951368E-05,1.43053966894513E-05,2.98828125,0,0.00862881311360449
-2.2200467356015E-05,1.23206700664014E-05,2.98828125,0,0.00862881311360449
-2.17580491153058E-05,1.1811061995104E-05,2.98828125,0,0.00862881311360449
-2.10527814488159E-05,1.14283548100502E-05,2.98828125,0,0.00862881311360449
-2.31301564781461E-05,1.16426826934912E-05,2.98828125,0,0.00862881311360449
-2.47719162871363E-05,1.03423999462393E-05,2.98828125,0,0.00862881311360449
-2.60887682088651E-05,1.01678942883154E-05,2.98828125,0,0.00862881311360449
-2.5415867639822E-05,1.0746186489996E-05,2.98828125,0,0.00862881311360449
-2.37539334193571E-05,1.22049468700425E-05,2.98828125,0,0.00862881311360449
-1.86792967724614E-05,1.15663633550867E-05,2.98828125,0,0.00862881311360449
-2.75364309345605E-05,1.56650821736548E-05,2.98828125,0,0.00862881311360449
-2.25188214244554E-05,1.18931457109284E-05,2.98828125,0,0.00862881311360449
-2.89133295154898E-05,1.60709041665541E-05,2.98828125,0,0.00862881311360449
-2.72929428319912E-05,1.25530295917997E-05,2.98828125,0,0.00862881311360449
-3.0213992431527E-05,1.32256509459694E-05,2.98828125,0,0.00862881311360449
-2.70140080829151E-05,1.10501405288232E-05,2.98828125,0,0.00862881311360449
-2.5679160899017E-05,1.07114074126002E-05,2.98828125,0,0.00862881311360449
-2.42229434661567E-05,1.17512345241266E-05,2.98828125,0,0.00862881311360449
-2.55080976785393E-05,1.32183104142314E-05,2.98828125,0,0.00862881311360449
-2.72820452664746E-05,1.27003104353207E-05,2.98828125,0,0.00862881311360449
-2.71319040621165E-05,1.00226952781668E-05,2.98828125,0,0.00862881311360449
-2.7591055186349E-05,8.93766991794109E-06,2.98828125,0,0.00862881311360449
-2.65240887529217E-05,9.15389227884589E-06,2.98828125,0,0.00862881311360449
-2.64531590801198E-05,1.21157399917138E-05,2.98828125,0,0.00862881311360449
-2.4090757506201E-05,1.26109289340093E-05,2.98828125,0,0.00862881311360449
-2.44729708356317E-05,1.14439217213658E-05,2.98828125,0,0.00862881311360449
-2.33075334108435E-05,7.50457002141047E-06,2.98828125,0,0.00862881311360449
-2.35713905567536E-05,6.79638878864353E-06,2.98828125,0,0.00862881311360449
-2.29359156946884E-05,8.69411178427981E-06,2.98828125,0,0.00862881311360449
-2.45098563027568E-05,1.18748148452141E-05,2.98828125,0,0.00862881311360449
-2.39888686337508E-05,1.09569473352167E-05,2.98828125,0,0.00862881311360449
-2.42093155975454E-05,8.10256005934207E-06,2.98828125,0,0.00862881311360449
-2.45788996835472E-05,5.89547516938183E-06,2.98828125,0,0.00862881311360449
-2.6165449526161E-05,6.16067154624034E-06,2.98828125,0,0.00862881311360449
-2.61936365859583E-05,6.29352371106506E-06,2.98828125,0,0.00862881311360449
-2.5394452677574E-05,6.41717861071811E-06,2.98828125,0,0.00862881311360449
-1.97306035261136E-05,6.28226734988857E-06,2.98828125,0,0.00862881311360449
-2.7677351681632E-05,9.01288058230421E-06,2.98828125,0,0.00862881311360449
-2.15595318877604E-05,6.61631565890275E-06,2.98828125,0,0.00862881311360449
-2.69506490440108E-05,7.52254300095956E-06,2.98828125,0,0.00862881311360449
-2.1031988580944E-05,6.99613610777305E-06,2.98828125,0,0.00862881311360449
-2.4381275579799E-05,9.04889293451561E-06,2.98828125,0,0.00862881311360449
-2.43066824623384E-05,7.58688065616298E-06,2.98828125,0,0.00862881311360449
-2.62495177594246E-05,6.82181598676834E-06,2.98828125,0,0.00862881311360449
-2.44332495640265E-05,6.55803023619228E-06,2.98828125,0,0.00862881311360449
-2.20361562242033E-05,7.20577418178436E-06,2.98828125,0,0.00862881311360449
-2.15506915992592E-05,8.99713904800592E-06,2.98828125,0,0.00862881311360449
-2.24432023969712E-05,1.0249593287881E-05,2.98828125,0,0.00862881311360449
-2.47004008997465E-05,1.16282835733728E-05,2.98828125,0,0.00862881311360449
-2.43375197896967E-05,1.18829739221837E-05,2.98828125,0,0.00862881311360449
-2.62767371168593E-05,1.1963688848482E-05,2.98828125,0,0.00862881311360449
-2.56681523751467E-05,1.08815165731357E-05,2.98828125,0,0.00862881311360449
-2.59012103924761E-05,1.15465400085668E-05,2.98828125,0,0.00862881311360449
-2.36401083384408E-05,1.2678098755714E-05,2.98828125,0,0.00862881311360449
-2.47217722062487E-05,1.41447517307824E-05,2.98828125,0,0.00862881311360449
-2.42612095462391E-05,1.38462046379573E-05,2.98828125,0,0.00862881311360449
-2.41476973315002E-05,1.19699689093977E-05,2.98828125,0,0.00862881311360449
-2.25948169827461E-05,8.67591916176025E-06,2.98828125,0,0.00862881311360449
-2.27791024371982E-05,6.26408018433722E-06,2.98828125,0,0.00862881311360449
-2.22297130676452E-05,5.11137841385789E-06,2.98828125,0,0.00862881311360449
-2.22544640564593E-05,4.82538916912745E-06,2.98828125,0,0.00862881311360449
-2.25780040636892E-05,5.09981146024074E-06,2.98828125,0,0.00862881311360449
-2.26845932047581E-05,5.56674831386772E-06,2.98828125,0,0.00862881311360449
-1.88041176443221E-05,4.77898174722213E-06,2.98828125,0,0.00862881311360449
-2.86622162093408E-05,6.4958126131387E-06,2.98828125,0,0.00862881311360449
-2.39905348280445E-05,3.90876402889262E-06,2.98828125,0,0.00862881311360449
-2.84565048787044E-05,5.3991707318346E-06,2.98828125,0,0.00862881311360449
-2.4700371795916E-05,6.84730002831202E-06,2.98828125,0,0.00862881311360449
-2.61430468526669E-05,9.18697060114937E-06,2.98828125,0,0.00862881311360449
-2.27051496040076E-05,9.06464174477151E-06,2.98828125,0,0.00862881311360449
-2.25745261559496E-05,9.7262927738484E-06,2.98828125,0,0.00862881311360449
-2.10512498597382E-05,9.82155142992269E-06,2.98828125,0,0.00862881311360449
-2.13063776755007E-05,9.03464115253882E-06,2.98828125,0,0.00862881311360449
-2.22261805902235E-05,8.86541693034815E-06,2.98828125,0,0.00862881311360449
-2.23184961214429E-05,1.00523438959499E-05,2.98828125,0,0.00862881311360449
-2.3569544282509E-05,1.21203584058094E-05,2.98828125,0,0.00862881311360449
-2.22209528146777E-05,1.29440768432687E-05,2.98828125,0,0.00862881311360449
-2.17430260818219E-05,1.32499362734961E-05,2.98828125,0,0.00862881311360449
-1.99542992049828E-05,1.21443708849256E-05,2.98828125,0,0.00862881311360449
-2.20990186790004E-05,1.07533614936983E-05,2.98828125,0,0.00862881311360449
-2.39013006648747E-05,9.38379980652826E-06,2.98828125,0,0.00862881311360449
-2.65147082245676E-05,9.6922813099809E-06,2.98828125,0,0.00862881311360449
-2.47772713919403E-05,1.10394403236569E-05,2.98828125,0,0.00862881311360449
-2.30939895118354E-05,1.33898392959964E-05,2.98828125,0,0.00862881311360449
-2.11762453545816E-05,1.44187952173525E-05,2.98828125,0,0.00862881311360449
-2.18169043364469E-05,1.51331078086514E-05,2.98828125,0,0.00862881311360449
-2.17537944990909E-05,1.49363331729546E-05,2.98828125,0,0.00862881311360449
-2.11819442483829E-05,1.39984640554758E-05,2.98828125,0,0.00862881311360449
-2.09345380426385E-05,1.42732696986059E-05,2.98828125,0,0.00862881311360449
-2.21698828681838E-05,1.54479675984476E-05,2.98828125,0,0.00862881311360449
-1.78415048139868E-05,1.1816538972198E-05,2.98828125,0,0.00862881311360449
-2.38977791013895E-05,1.34443525894312E-05,2.98828125,0,0.00862881311360449
-1.68479218700668E-05,4.29931287726504E-06,2.98828125,0,0.00862881311360449
-2.34090548474342E-05,6.57741384202382E-06,2.98828125,0,0.00862881311360449
-2.17094438994536E-05,6.54607038086397E-06,2.98828125,0,0.00862881311360449
-2.43737995333504E-05,1.15898046715301E-05,2.98828125,0,0.00862881311360449
-2.17554170376388E-05,1.12459147203481E-05,2.98828125,0,0.00862881311360449
-2.29490069614258E-05,1.17913550639059E-05,2.98828125,0,0.00862881311360449
-2.27187028940534E-05,1.15146394819021E-05,2.98828125,0,0.00862881311360449
-2.36650339502376E-05,1.1076868759119E-05,2.98828125,0,0.00862881311360449
-2.51283672696445E-05,1.01637824627687E-05,2.98828125,0,0.00862881311360449
-2.49866734520765E-05,9.50312642089557E-06,2.98828125,0,0.00862881311360449
-2.51767924055457E-05,1.00433699117275E-05,2.98828125,0,0.00862881311360449
-2.30898513109423E-05,9.37940239964519E-06,2.98828125,0,0.00862881311360449
-2.37780641327845E-05,1.07730920717586E-05,2.98828125,0,0.00862881311360449
-2.3862974558142E-05,1.05627204902703E-05,2.98828125,0,0.00862881311360449
-2.60033812082838E-05,1.04122818811447E-05,2.98828125,0,0.00862881311360449
-2.4295091861859E-05,8.62135220813798E-06,2.98828125,0,0.00862881311360449
-2.33836017287103E-05,8.93123069545254E-06,2.98828125,0,0.00862881311360449
-2.20070360228419E-05,9.6556041171425E-06,2.98828125,0,0.00862881311360449
-2.33951250265818E-05,1.19160758913495E-05,2.98828125,0,0.00862881311360449
-2.36339255934581E-05,1.22111832752125E-05,2.98828125,0,0.00862881311360449
-2.44078655669E-05,1.25062488223193E-05,2.98828125,0,0.00862881311360449
-2.45837709371699E-05,1.1864751286339E-05,2.98828125,0,0.00862881311360449
-2.5362120140926E-05,1.20601080197957E-05,2.98828125,0,0.00862881311360449
-2.53068883466767E-05,1.32201103042462E-05,2.98828125,0,0.00862881311360449
-2.44424463744508E-05,1.5498273569392E-05,2.98828125,0,0.00862881311360449
-2.02983701456105E-05,1.36178014145116E-05,2.98828125,0,0.00862881311360449
-2.93459452223033E-05,1.73743937921245E-05,2.98828125,0,0.00862881311360449
-2.35133811656851E-05,9.36076867219526E-06,2.98828125,0,0.00862881311360449
-2.97983551718062E-05,1.23323252410046E-05,2.98828125,0,0.00862881311360449
-2.56825296673924E-05,1.18401358122355E-05,2.98828125,0,0.00862881311360449
-2.6864659957937E-05,1.56681053340435E-05,2.98828125,0,0.00862881311360449
-2.33598730119411E-05,1.37958832056029E-05,2.98828125,0,0.00862881311360449
-2.47815532929963E-05,1.33511666717823E-05,2.98828125,0,0.00862881311360449
-2.51508645305876E-05,1.30368434838601E-05,2.98828125,0,0.00862881311360449
-2.56130515481345E-05,1.30633143271552E-05,2.98828125,0,0.00862881311360449
-2.59274183918023E-05,1.0783352990984E-05,2.98828125,0,0.00862881311360449
-2.53835751209408E-05,7.30740930521279E-06,2.98828125,0,0.00862881311360449
-2.62442645180272E-05,6.52774133413914E-06,2.98828125,0,0.00862881311360449
-2.48710093728732E-05,5.99002441958874E-06,2.98828125,0,0.00862881311360449
-2.54377882811241E-05,6.66366804580321E-06,2.98828125,0,0.00862881311360449
-2.40013068832923E-05,5.1414203880995E-06,2.98828125,0,0.00862881311360449
-2.46595827775309E-05,5.60027865503798E-06,2.98828125,0,0.00862881311360449
-2.32946040341631E-05,6.3635666265327E-06,2.98828125,0,0.00862881311360449
-2.46849504037527E-05,9.77045692707179E-06,2.98828125,0,0.00862881311360449
-2.47360003413633E-05,1.13333462650189E-05,2.98828125,0,0.00862881311360449
-2.59892112808302E-05,1.28646915982245E-05,2.98828125,0,0.00862881311360449
-2.55841805483215E-05,1.27239163703052E-05,2.98828125,0,0.00862881311360449
-2.68171534116846E-05,1.32309587570489E-05,2.98828125,0,0.00862881311360449
-2.77849194390001E-05,1.36158832901856E-05,2.98828125,0,0.00862881311360449
-2.90851021418348E-05,1.34277188408305E-05,2.98828125,0,0.00862881311360449
-2.97293863695813E-05,1.22537348943297E-05,2.98828125,0,0.00862881311360449
-3.06936308334116E-05,1.26643299154239E-05,2.98828125,0,0.00862881311360449
-2.58636191574624E-05,1.17321033030748E-05,2.98828125,0,0.00862881311360449
-3.63766703230795E-05,1.70117473317077E-05,2.98828125,0,0.00862881311360449
-2.79542673524702E-05,1.30294956761645E-05,2.98828125,0,0.00862881311360449
-3.61587663064711E-05,1.44979703691206E-05,2.98828125,0,0.00862881311360449
-3.07498739857692E-05,9.66160223470069E-06,2.98828125,0,0.00862881311360449
-3.33161260641646E-05,9.41486450756202E-06,2.98828125,0,0.00862881311360449
-3.01103973470163E-05,8.27290659799473E-06,2.98828125,0,0.00862881311360449
-3.08179805870168E-05,1.0184903658228E-05,2.98828125,0,0.00862881311360449
-2.87505699816393E-05,1.17263271022239E-05,2.98828125,0,0.00862881311360449
-2.8080756237614E-05,1.2578883797687E-05,2.98828125,0,0.00862881311360449
-2.72988436336163E-05,1.25344249681802E-05,2.98828125,0,0.00862881311360449
-2.47780935751507E-05,1.26944069052115E-05,2.98828125,0,0.00862881311360449
-2.47918032982852E-05,1.31134102048236E-05,2.98828125,0,0.00862881311360449
-2.27545533562079E-05,1.06206562122679E-05,2.98828125,0,0.00862881311360449
-2.3195672838483E-05,1.01732466646354E-05,2.98828125,0,0.00862881311360449
-2.16158096009167E-05,1.03722377389204E-05,2.98828125,0,0.00862881311360449
-2.2839047232992E-05,1.16415003503789E-05,2.98828125,0,0.00862881311360449
-1.96230357687455E-05,1.02754074760014E-05,2.98828125,0,0.00862881311360449
-1.76751327671809E-05,1.02247549875756E-05,2.98828125,0,0.00862881311360449
-1.33921339511289E-05,1.10442961158697E-05,2.98828125,0,0.00862881311360449
-1.24694333862863E-05,1.30399084810051E-05,2.98828125,0,0.00862881311360449
-1.12928364615072E-05,1.27136099763447E-05,2.98828125,0,0.00862881311360449
-1.19961323434836E-05,1.2238070667081E-05,2.98828125,0,0.00862881311360449
-1.07148125607637E-05,1.11337321868632E-05,2.98828125,0,0.00862881311360449
-9.5564437287976E-06,1.00201586974435E-05,2.98828125,0,0.00862881311360449
-7.70033057051478E-06,8.40805932966759E-06,2.98828125,0,0.00862881311360449
-6.48798140900908E-06,7.75349508330692E-06,2.98828125,0,0.00862881311360449
-5.3678518270317E-06,6.82176323607564E-06,2.98828125,0,0.00862881311360449
-7.88386114436435E-06,1.01879650173942E-05,2.98828125,0,0.00862881311360449
-7.01354247212294E-06,8.91019044502173E-06,2.98828125,0,0.00862881311360449
-9.22762410482392E-06,1.02905733001535E-05,2.98828125,0,0.00862881311360449
-1.053987944033E-05,7.70551469031489E-06,2.98828125,0,0.00862881311360449
-1.45927160701831E-05,8.7862381406012E-06,2.98828125,0,0.00862881311360449
-1.65073670359561E-05,9.52046411839547E-06,2.98828125,0,0.00862881311360449
-1.86333109013503E-05,1.13530677481322E-05,2.98828125,0,0.00862881311360449
-2.11104124900885E-05,1.13430314740981E-05,2.98828125,0,0.00862881311360449
-2.36363466683542E-05,1.06500237961882E-05,2.98828125,0,0.00862881311360449
-2.58172076428309E-05,1.01351806733874E-05,2.98828125,0,0.00862881311360449
-2.78987972706091E-05,8.80409515957581E-06,2.98828125,0,0.00862881311360449
-3.07341579173226E-05,7.18939190846868E-06,2.98828125,0,0.00862881311360449
-3.32533090841025E-05,6.51592290523695E-06,2.98828125,0,0.00862881311360449
-3.63514627679251E-05,8.63409240992041E-06,2.98828125,0,0.00862881311360449
-3.70402667613234E-05,1.02863159554545E-05,2.98828125,0,0.00862881311360449
-3.55860865965951E-05,1.22898627523682E-05,2.98828125,0,0.00862881311360449
-3.30018992826808E-05,1.35367572511313E-05,2.98828125,0,0.00862881311360449
-3.19165628752671E-05,1.53120945469709E-05,2.98828125,0,0.00862881311360449
-3.16134828608483E-05,1.53739565575961E-05,2.98828125,0,0.00862881311360449
-3.25516812154092E-05,1.39159801619826E-05,2.98828125,0,0.00862881311360449
-3.19470746035222E-05,1.13131582111237E-05,2.98828125,0,0.00862881311360449
-3.08528942696285E-05,1.13630776468199E-05,2.98828125,0,0.00862881311360449
-3.04942059301538E-05,1.23917179735145E-05,2.98828125,0,0.00862881311360449
-3.08808666886762E-05,1.29798345369636E-05,2.98828125,0,0.00862881311360449
-3.06824840663467E-05,1.3532473531086E-05,2.98828125,0,0.00862881311360449
-2.96884754789062E-05,1.39308840516605E-05,2.98828125,0,0.00862881311360449
-2.3640452127438E-05,1.0746988664323E-05,2.98828125,0,0.00862881311360449
-3.35895201715175E-05,1.42441658681491E-05,2.98828125,0,0.00862881311360449
-2.33990504057147E-05,9.10417838895228E-06,2.98828125,0,0.00862881311360449
-2.74861995421816E-05,1.22893070511054E-05,2.98828125,0,0.00862881311360449
-2.32740458159242E-05,1.08714521047659E-05,2.98828125,0,0.00862881311360449
-2.90421266981866E-05,1.20154236356029E-05,2.98828125,0,0.00862881311360449
-2.77520157396793E-05,1.00458992164931E-05,2.98828125,0,0.00862881311360449
-2.77555445791222E-05,1.08770400402136E-05,2.98828125,0,0.00862881311360449
-2.50912489718758E-05,1.14492286229506E-05,2.98828125,0,0.00862881311360449
-2.46041799982777E-05,1.15279062811169E-05,2.98828125,0,0.00862881311360449
-2.44309358095052E-05,1.05695944512263E-05,2.98828125,0,0.00862881311360449
-2.32173006224912E-05,8.62989054439822E-06,2.98828125,0,0.00862881311360449
-2.46702093136264E-05,8.12676080386154E-06,2.98828125,0,0.00862881311360449
-2.39243436226388E-05,7.68664722272661E-06,2.98828125,0,0.00862881311360449
-2.3794000298949E-05,7.7540007623611E-06,2.98828125,0,0.00862881311360449
-1.98403449758189E-05,5.0748844842019E-06,2.98828125,0,0.00862881311360449
-1.91684284800431E-05,3.45767671205977E-06,2.98828125,0,0.00862881311360449
-1.73998469108483E-05,3.12981296701764E-06,2.98828125,0,0.00862881311360449
-1.85139397217426E-05,5.49475953448564E-06,2.98828125,0,0.00862881311360449
-1.79515245690709E-05,6.38659821561305E-06,2.98828125,0,0.00862881311360449
-1.97320732695516E-05,6.99516567692626E-06,2.98828125,0,0.00862881311360449
-1.93999931070721E-05,5.56020722797257E-06,2.98828125,0,0.00862881311360449
-1.86609850061359E-05,4.63611422674148E-06,2.98828125,0,0.00862881311360449
-1.69270660990151E-05,4.9814416342997E-06,2.98828125,0,0.00862881311360449
-1.68334154295735E-05,7.44632188798278E-06,2.98828125,0,0.00862881311360449
-1.73120970430318E-05,8.6955942606437E-06,2.98828125,0,0.00862881311360449
-1.8267253835802E-05,7.98851124272915E-06,2.98828125,0,0.00862881311360449
-1.54194131027907E-05,5.87027352594305E-06,2.98828125,0,0.00862881311360449
-2.35423922276823E-05,8.30533099360764E-06,2.98828125,0,0.00862881311360449
-2.12055201700423E-05,5.97775306232506E-06,2.98828125,0,0.00862881311360449
-2.56785497185774E-05,5.49136984773213E-06,2.98828125,0,0.00862881311360449
-2.24577725020936E-05,4.05569653594284E-06,2.98828125,0,0.00862881311360449
-2.55917821050389E-05,7.98307337390725E-06,2.98828125,0,0.00862881311360449
-2.60647175309714E-05,9.71730696619488E-06,2.98828125,0,0.00862881311360449
-2.86040140053956E-05,9.74381146079395E-06,2.98828125,0,0.00862881311360449
-2.80899530480383E-05,7.55964629206574E-06,2.98828125,0,0.00862881311360449
-2.70636155619286E-05,6.58437102174503E-06,2.98828125,0,0.00862881311360449
-2.61409622908104E-05,5.84250437896117E-06,2.98828125,0,0.00862881311360449
-2.52515528700314E-05,5.30097668161034E-06,2.98828125,0,0.00862881311360449
-2.56878684012918E-05,6.26517794444226E-06,2.98828125,0,0.00862881311360449
-2.45964256464504E-05,5.78682875129743E-06,2.98828125,0,0.00862881311360449
-2.39508972299518E-05,5.61541946808575E-06,2.98828125,0,0.00862881311360449
-2.13706462091068E-05,6.03025591772166E-06,2.98828125,0,0.00862881311360449
-2.22707385546528E-05,7.31658928998513E-06,2.98828125,0,0.00862881311360449
-2.32447164307814E-05,6.96162578606163E-06,2.98828125,0,0.00862881311360449
-2.58855416177539E-05,7.60825105317053E-06,2.98828125,0,0.00862881311360449
-2.5874376660795E-05,8.40922712086467E-06,2.98828125,0,0.00862881311360449
-2.59375119640026E-05,1.00382749224082E-05,2.98828125,0,0.00862881311360449
-2.5354718673043E-05,1.11117096821545E-05,2.98828125,0,0.00862881311360449
-2.6768726456794E-05,1.2367672752589E-05,2.98828125,0,0.00862881311360449
-2.69143529294524E-05,1.38286013680045E-05,2.98828125,0,0.00862881311360449
-2.65141934505664E-05,1.49868574226275E-05,2.98828125,0,0.00862881311360449
-2.56320818152744E-05,1.50595533341402E-05,2.98828125,0,0.00862881311360449
-2.55345858022338E-05,1.49784191307845E-05,2.98828125,0,0.00862881311360449
-2.0819810742978E-05,1.1838344107673E-05,2.98828125,0,0.00862881311360449
-2.81711090792669E-05,1.65791952895233E-05,2.98828125,0,0.00862881311360449
-1.93186042451998E-05,1.19374717542087E-05,2.98828125,0,0.00862881311360449
-2.43859303736826E-05,1.46805268741446E-05,2.98828125,0,0.00862881311360449
-2.01896382350242E-05,1.15348520921543E-05,2.98828125,0,0.00862881311360449
-2.47364459937671E-05,1.24371817946667E-05,2.98828125,0,0.00862881311360449
-2.43343329202617E-05,1.06973966467194E-05,2.98828125,0,0.00862881311360449
-2.57813626376446E-05,9.90189619187731E-06,2.98828125,0,0.00862881311360449
-2.36216274061007E-05,8.43043380882591E-06,2.98828125,0,0.00862881311360449
-2.22323196794605E-05,9.03135332919192E-06,2.98828125,0,0.00862881311360449
-2.16496373468544E-05,1.04106284197769E-05,2.98828125,0,0.00862881311360449
-2.01551611098694E-05,1.15250095404917E-05,2.98828125,0,0.00862881311360449
-2.04167899937602E-05,1.26358554553008E-05,2.98828125,0,0.00862881311360449
-1.8935204934678E-05,1.12831394289969E-05,2.98828125,0,0.00862881311360449
-1.99605419766158E-05,1.11125127659761E-05,2.98828125,0,0.00862881311360449
-1.89350594155258E-05,1.06760589915211E-05,2.98828125,0,0.00862881311360449
-2.02063383767381E-05,1.29637937789084E-05,2.98828125,0,0.00862881311360449
-1.93611413124017E-05,1.47640903378488E-05,2.98828125,0,0.00862881311360449
-2.07232333195861E-05,1.64559478434967E-05,2.98828125,0,0.00862881311360449
-1.93971773114754E-05,1.52231696119998E-05,2.98828125,0,0.00862881311360449
-2.01347138499841E-05,1.48849867400713E-05,2.98828125,0,0.00862881311360449
-2.05787564482307E-05,1.45518615681794E-05,2.98828125,0,0.00862881311360449
-2.06792610697448E-05,1.39235417009331E-05,2.98828125,0,0.00862881311360449
-1.98430607269984E-05,1.22514202303137E-05,2.98828125,0,0.00862881311360449
-2.12481190828839E-05,1.31205861180206E-05,2.98828125,0,0.00862881311360449
-2.19910471059848E-05,1.39544890771504E-05,2.98828125,0,0.00862881311360449
-2.34257367992541E-05,1.29969703266397E-05,2.98828125,0,0.00862881311360449
-2.13964631257113E-05,1.09017464637873E-05,2.98828125,0,0.00862881311360449
-3.088445373578E-05,1.58646507770754E-05,2.98828125,0,0.00862881311360449
-2.34378239838406E-05,1.14976946861134E-05,2.98828125,0,0.00862881311360449
-2.81561224255711E-05,1.1131076462334E-05,2.98828125,0,0.00862881311360449
-2.43738631979795E-05,6.3668999246147E-06,2.98828125,0,0.00862881311360449
-2.78926490864251E-05,7.85763950261753E-06,2.98828125,0,0.00862881311360449
-2.45784594881115E-05,7.12113296685857E-06,2.98828125,0,0.00862881311360449
-2.40762801695382E-05,7.55481642045197E-06,2.98828125,0,0.00862881311360449
-2.34088674915256E-05,8.19859724288108E-06,2.98828125,0,0.00862881311360449
-2.42296991928015E-05,9.0186749730492E-06,2.98828125,0,0.00862881311360449
-2.52963145612739E-05,9.8204254754819E-06,2.98828125,0,0.00862881311360449
-2.48722935793921E-05,1.13531223178143E-05,2.98828125,0,0.00862881311360449
-2.50531666097231E-05,1.17967256301199E-05,2.98828125,0,0.00862881311360449
-2.2726999304723E-05,9.04277749214089E-06,2.98828125,0,0.00862881311360449
-2.29422348638764E-05,7.87080443842569E-06,2.98828125,0,0.00862881311360449
-2.17667693505064E-05,8.80960124050034E-06,2.98828125,0,0.00862881311360449
-2.37477634073002E-05,1.2738531040668E-05,2.98828125,0,0.00862881311360449
-2.39606069953879E-05,1.32635805130121E-05,2.98828125,0,0.00862881311360449
-2.54858969128691E-05,1.23697864182759E-05,2.98828125,0,0.00862881311360449
-2.47567895712564E-05,1.04367018138873E-05,2.98828125,0,0.00862881311360449
-2.6183344743913E-05,1.08394497146946E-05,2.98828125,0,0.00862881311360449
-2.64472419075901E-05,1.13181113192695E-05,2.98828125,0,0.00862881311360449
-2.73637288046302E-05,1.26761760839145E-05,2.98828125,0,0.00862881311360449
-2.66479037236422E-05,1.31960987346247E-05,2.98828125,0,0.00862881311360449
-2.51040128205204E-05,1.34212859848049E-05,2.98828125,0,0.00862881311360449
-2.38331085711252E-05,1.43872521221056E-05,2.98828125,0,0.00862881311360449
-2.5125822503469E-05,1.4756471500732E-05,2.98828125,0,0.00862881311360449
-2.13887633435661E-05,1.0076811122417E-05,2.98828125,0,0.00862881311360449
-2.93152934318641E-05,1.31353499455145E-05,2.98828125,0,0.00862881311360449
-1.94925978576066E-05,9.70323981164256E-06,2.98828125,0,0.00862881311360449
-2.30663627007743E-05,1.29909367387882E-05,2.98828125,0,0.00862881311360449
-1.83246793312719E-05,1.09908714875928E-05,2.98828125,0,0.00862881311360449
-2.22300077439286E-05,1.39645771923824E-05,2.98828125,0,0.00862881311360449
-2.13087914744392E-05,1.31615943246288E-05,2.98828125,0,0.00862881311360449
-2.21665541175753E-05,1.25147707876749E-05,2.98828125,0,0.00862881311360449
-2.040861727437E-05,1.05328235804336E-05,2.98828125,0,0.00862881311360449
-2.06274125957862E-05,1.01368977993843E-05,2.98828125,0,0.00862881311360449
-2.21094815060496E-05,1.01017758424859E-05,2.98828125,0,0.00862881311360449
-2.31037138291867E-05,1.03445536296931E-05,4.21875,0,0.00862881311360449
-2.52114987233654E-05,1.24391563076642E-05,4.21875,0,0.00862881311360449
-2.40553272305988E-05,1.28747669805307E-05,4.21875,0,0.00862881311360449
-2.48318265221315E-05,1.32291152112884E-05,4.21875,0,0.00862881311360449
-2.48196465690853E-05,1.20216800496564E-05,4.21875,0,0.00862881311360449
-2.68962685368024E-05,1.18125344670261E-05,4.21875,0,0.00862881311360449
-2.55796294368338E-05,1.03231059256359E-05,4.21875,0,0.00862881311360449
-2.69404736172874E-05,1.12634124889155E-05,4.21875,0,0.00862881311360449
-2.68433286692016E-05,1.20003251140588E-05,4.21875,0,0.00862881311360449
-2.75734946626471E-05,1.25925880638533E-05,4.21875,0,0.00862881311360449
-2.67314298980637E-05,1.09305237856461E-05,4.21875,0,0.00862881311360449
-2.73705190920737E-05,9.74206886894535E-06,4.21875,0,0.00862881311360449
-2.6473258913029E-05,1.06383449747227E-05,4.21875,0,0.00862881311360449
-2.485140976205E-05,1.42268327181228E-05,4.21875,0,0.00862881311360449
-2.27213404286886E-05,1.46541178764892E-05,4.21875,0,0.00862881311360449
-2.27088039537193E-05,1.25977385323495E-05,4.21875,0,0.00862881311360449
-1.89441907423316E-05,7.76847628003452E-06,4.21875,0,0.00862881311360449
-2.74050962616457E-05,9.18268960958812E-06,4.21875,0,0.00862881311360449
-2.10302750929259E-05,5.48687785340007E-06,4.21875,0,0.00862881311360449
-2.57221454376122E-05,8.10710571386153E-06,4.21875,0,0.00862881311360449
-2.22555299842497E-05,6.47542356091435E-06,4.21875,0,0.00862881311360449
-2.52624340646435E-05,7.7693357525277E-06,4.21875,0,0.00862881311360449
-2.34586259466596E-05,6.7249134190206E-06,4.21875,0,0.00862881311360449
-2.33239443332423E-05,8.29387590783881E-06,4.21875,0,0.00862881311360449
-2.23234801524086E-05,9.10170456336346E-06,4.21875,0,0.00862881311360449
-2.38355132751167E-05,9.00698250916321E-06,4.21875,0,0.00862881311360449
-2.57064730249112E-05,9.14082011149731E-06,4.21875,0,0.00862881311360449
-2.58362506428966E-05,1.02631393019692E-05,4.21875,0,0.00862881311360449
-2.6476436687517E-05,1.20486392916064E-05,4.21875,0,0.00862881311360449
-2.46379859163426E-05,1.25713768284186E-05,4.21875,0,0.00862881311360449
-2.46541458182037E-05,1.32711993501289E-05,4.21875,0,0.00862881311360449
-2.37008825934026E-05,1.23110630738665E-05,4.21875,0,0.00862881311360449
-2.56733837886713E-05,1.14220256364206E-05,4.21875,0,0.00862881311360449
-2.57454285019776E-05,8.40475786390016E-06,4.21875,0,0.00862881311360449
-2.70262662525056E-05,6.65709103486734E-06,4.21875,0,0.00862881311360449
-2.63584006461315E-05,6.82111203786917E-06,4.21875,0,0.00862881311360449
-2.72650704573607E-05,9.30150144995423E-06,4.21875,0,0.00862881311360449
-2.61401874013245E-05,9.37517324928194E-06,4.21875,0,0.00862881311360449
-2.52281261055032E-05,7.94137031334685E-06,4.21875,0,0.00862881311360449
-2.49477197939996E-05,6.83736379869515E-06,4.21875,0,0.00862881311360449
-2.69016200036276E-05,8.05029685579939E-06,4.21875,0,0.00862881311360449
-2.78092047665268E-05,9.74346312432317E-06,4.21875,0,0.00862881311360449
-2.60842261923244E-05,1.14966396722593E-05,4.21875,0,0.00862881311360449
-2.00166305148741E-05,9.67648611549521E-06,4.21875,0,0.00862881311360449
-2.85751411865931E-05,1.38611567308544E-05,4.21875,0,0.00862881311360449
-2.20014499063836E-05,9.53326070884941E-06,4.21875,0,0.00862881311360449
-2.70789787464309E-05,1.00199513326515E-05,4.21875,0,0.00862881311360449
-2.29119195864769E-05,7.43733517083456E-06,4.21875,0,0.00862881311360449
-2.58136096817907E-05,1.00542929430958E-05,4.21875,0,0.00862881311360449
-2.40967619902221E-05,1.07883624878014E-05,4.21875,0,0.00862881311360449
-2.55984432442347E-05,1.22031087812502E-05,4.21875,0,0.00862881311360449
-2.38221437030006E-05,1.20196682473761E-05,4.21875,0,0.00862881311360449
-2.30435289267916E-05,1.22090277727693E-05,4.21875,0,0.00862881311360449
-2.37773128901608E-05,1.20679751489661E-05,4.21875,0,0.00862881311360449
-2.33077680604765E-05,1.10009823401924E-05,4.21875,0,0.00862881311360449
-2.31820649787551E-05,1.12059778984985E-05,4.21875,0,0.00862881311360449
-2.14673727896297E-05,1.04461460068705E-05,4.21875,0,0.00862881311360449
-2.30648875003681E-05,1.1565898603294E-05,4.21875,0,0.00862881311360449
-2.31081758101936E-05,1.18263960757758E-05,4.21875,0,0.00862881311360449
-2.51442597800633E-05,1.27080920719891E-05,4.21875,0,0.00862881311360449
-2.44880939135328E-05,1.23222062029527E-05,4.21875,0,0.00862881311360449
-2.50536468229257E-05,1.27550429169787E-05,4.21875,0,0.00862881311360449
-2.35146344493842E-05,1.26408367577824E-05,4.21875,0,0.00862881311360449
-2.3776565285516E-05,1.26742015709169E-05,4.21875,0,0.00862881311360449
-2.35966817854205E-05,1.21391794891679E-05,4.21875,0,0.00862881311360449
-2.41862926486647E-05,1.29223644762533E-05,4.21875,0,0.00862881311360449
-2.19719095184701E-05,1.28061265058932E-05,4.21875,0,0.00862881311360449
-2.06096920010168E-05,1.06422958197072E-05,4.21875,0,0.00862881311360449
-1.99477781279711E-05,7.97758093540324E-06,4.21875,0,0.00862881311360449
-1.99470687221037E-05,6.60107480143779E-06,4.21875,0,0.00862881311360449
-1.56791593326489E-05,6.14751343164244E-06,4.21875,0,0.00862881311360449
-2.1969948647893E-05,1.03970169220702E-05,4.21875,0,0.00862881311360449
-1.78649916051654E-05,9.26487609831383E-06,4.21875,0,0.00862881311360449
-2.42591868300224E-05,9.16365388548002E-06,4.21875,0,0.00862881311360449
-2.23635543079581E-05,6.05936793363071E-06,4.21875,0,0.00862881311360449
-2.50134544330649E-05,7.36456149752485E-06,4.21875,0,0.00862881311360449
-2.31281537708128E-05,9.04646458366187E-06,4.21875,0,0.00862881311360449
-2.36083997151582E-05,8.56479528010823E-06,4.21875,0,0.00862881311360449
-2.34151939366711E-05,6.85546865497599E-06,4.21875,0,0.00862881311360449
-2.46539784711786E-05,5.96103427596972E-06,4.21875,0,0.00862881311360449
-2.52825866482453E-05,5.69496842217632E-06,4.21875,0,0.00862881311360449
-2.51088840741431E-05,5.82854727326776E-06,4.21875,0,0.00862881311360449
-2.69992560788523E-05,7.36143556423485E-06,4.21875,0,0.00862881311360449
-2.70221189566655E-05,8.21061803435441E-06,4.21875,0,0.00862881311360449
-2.76856753771426E-05,9.24011146707926E-06,4.21875,0,0.00862881311360449
-2.65734906861326E-05,9.78223579295445E-06,4.21875,0,0.00862881311360449
-2.73478126473492E-05,9.95222035271581E-06,4.21875,0,0.00862881311360449
-2.61961158685153E-05,8.47398951009382E-06,4.21875,0,0.00862881311360449
-2.64552381850081E-05,7.59014164941618E-06,4.21875,0,0.00862881311360449
-2.476653753547E-05,8.03714647190645E-06,4.21875,0,0.00862881311360449
-2.42304340645205E-05,8.60261934576556E-06,4.21875,0,0.00862881311360449
-2.34598919632845E-05,7.66496214055223E-06,4.21875,0,0.00862881311360449
-2.4562288672314E-05,7.23754965292756E-06,4.21875,0,0.00862881311360449
-2.43373615376186E-05,7.25043264537817E-06,4.21875,0,0.00862881311360449
-2.35189290833659E-05,7.68609697843203E-06,4.21875,0,0.00862881311360449
-2.36206178669818E-05,9.52057143877028E-06,4.21875,0,0.00862881311360449
-2.51584224315593E-05,1.25732312881155E-05,4.21875,0,0.00862881311360449
-2.10990474442951E-05,1.1692271073116E-05,4.21875,0,0.00862881311360449
-2.89455492747948E-05,1.50796167872613E-05,4.21875,0,0.00862881311360449
-2.03197905648267E-05,8.98756570677506E-06,4.21875,0,0.00862881311360449
-2.57487645285437E-05,1.24143025459489E-05,4.21875,0,0.00862881311360449
-2.17642591451295E-05,1.03131278592627E-05,4.21875,0,0.00862881311360449
-2.58624240814243E-05,1.14539807327674E-05,4.21875,0,0.00862881311360449
-2.44863040279597E-05,9.14141037355876E-06,4.21875,0,0.00862881311360449
-2.53511880146107E-05,8.30890894576442E-06,4.21875,0,0.00862881311360449
-2.50883149419678E-05,8.40966094983742E-06,4.21875,0,0.00862881311360449
-2.63825186266331E-05,9.9224116638652E-06,4.21875,0,0.00862881311360449
-2.76417722488986E-05,9.9196404335089E-06,4.21875,0,0.00862881311360449
-2.73036621365463E-05,9.00347276910907E-06,4.21875,0,0.00862881311360449
-2.82591081486316E-05,9.28351255424786E-06,4.21875,0,0.00862881311360449
-2.75987367786001E-05,8.0631270975573E-06,4.21875,0,0.00862881311360449
-2.92995446216082E-05,8.42080225993413E-06,4.21875,0,0.00862881311360449
-2.85154801531462E-05,8.71531574375695E-06,4.21875,0,0.00862881311360449
-2.96509897452779E-05,1.08900940176682E-05,4.21875,0,0.00862881311360449
-2.8062491765013E-05,1.08531503428821E-05,4.21875,0,0.00862881311360449
-2.79733940260485E-05,1.04479331639595E-05,4.21875,0,0.00862881311360449
-2.56061448453693E-05,8.81760115589714E-06,4.21875,0,0.00862881311360449
-2.50393823080231E-05,9.97685765469214E-06,4.21875,0,0.00862881311360449
-2.38963675656123E-05,1.22309247672092E-05,4.21875,0,0.00862881311360449
-2.39362962020095E-05,1.41966183946352E-05,4.21875,0,0.00862881311360449
-2.29775105253793E-05,1.30912249005632E-05,4.21875,0,0.00862881311360449
-2.20773617911618E-05,1.13656069515855E-05,4.21875,0,0.00862881311360449
-1.97482950170524E-05,1.03856500572874E-05,4.21875,0,0.00862881311360449
-1.89029342436697E-05,1.02481053545489E-05,4.21875,0,0.00862881311360449
-1.58212915266631E-05,7.77428977016825E-06,4.21875,0,0.00862881311360449
-2.09715253731702E-05,9.70125529420329E-06,4.21875,0,0.00862881311360449
-1.33944322442403E-05,4.3608270061668E-06,4.21875,0,0.00862881311360449
-1.64367120305542E-05,4.16713419326697E-06,4.21875,0,0.00862881311360449
-1.21185221360065E-05,2.55729696618801E-06,4.21875,0,0.00862881311360449
-1.33789608298684E-05,6.14016789768357E-06,4.21875,0,0.00862881311360449
-1.18638672574889E-05,7.1392842073692E-06,4.21875,0,0.00862881311360449
-1.31415736177587E-05,8.5616538854083E-06,4.21875,0,0.00862881311360449
-1.32095856315573E-05,9.90285025181947E-06,4.21875,0,0.00862881311360449
-1.36415883389418E-05,1.1275972610747E-05,4.21875,0,0.00862881311360449
-1.45619960676413E-05,1.16320516099222E-05,4.21875,0,0.00862881311360449
-1.59621977218194E-05,1.05510771390982E-05,4.21875,0,0.00862881311360449
-1.90725768334232E-05,1.05433064163662E-05,4.21875,0,0.00862881311360449
-1.88399117178051E-05,1.00166535048629E-05,4.21875,0,0.00862881311360449
-1.8433265722706E-05,1.02632830021321E-05,4.21875,0,0.00862881311360449
-1.78017089638161E-05,9.83762583928183E-06,4.21875,0,0.00862881311360449
-2.03762247110717E-05,1.11220188045991E-05,4.21875,0,0.00862881311360449
-2.02694045583485E-05,1.16971150418976E-05,4.21875,0,0.00862881311360449
-2.08791607292369E-05,1.20352460726281E-05,4.21875,0,0.00862881311360449
-2.12005634239176E-05,1.08044969238108E-05,4.21875,0,0.00862881311360449
-2.3853959646658E-05,1.10135852082749E-05,4.21875,0,0.00862881311360449
-2.44717284658691E-05,1.22618812383735E-05,4.21875,0,0.00862881311360449
-2.49546301347436E-05,1.2636604878935E-05,4.21875,0,0.00862881311360449
-2.53628004429629E-05,1.10488463178626E-05,4.21875,0,0.00862881311360449
-2.60934157267911E-05,9.89664658845868E-06,4.21875,0,0.00862881311360449
-2.60975848505041E-05,9.36423384700902E-06,4.21875,0,0.00862881311360449
-2.75544061878463E-05,1.0001612281485E-05,4.21875,0,0.00862881311360449
-2.32681341003627E-05,1.07592577478499E-05,4.21875,0,0.00862881311360449
-3.13935161102563E-05,1.5807705494808E-05,4.21875,0,0.00862881311360449
-2.22224771277979E-05,1.19168780656764E-05,4.21875,0,0.00862881311360449
-2.95503050438128E-05,1.30021153381676E-05,4.21875,0,0.00862881311360449
-2.45603932853555E-05,9.71255394688342E-06,4.21875,0,0.00862881311360449
-2.68039784714347E-05,1.10239834612003E-05,4.21875,0,0.00862881311360449
-2.38197080761893E-05,9.90213811746798E-06,4.21875,0,0.00862881311360449
-2.49979857471772E-05,1.06452707768767E-05,4.21875,0,0.00862881311360449
-2.36517498706235E-05,1.0920987733698E-05,4.21875,0,0.00862881311360449
-2.3294756829273E-05,1.12071602416108E-05,4.21875,0,0.00862881311360449
-2.39863129536388E-05,1.17208346637199E-05,4.21875,0,0.00862881311360449
-2.40422014030628E-05,1.14923004730372E-05,4.21875,0,0.00862881311360449
-2.52729423664277E-05,1.05019207694568E-05,4.21875,0,0.00862881311360449
-2.32123165915255E-05,8.06791831564624E-06,7.20703125,0,0.00862881311360449
-2.33739574468927E-05,8.50326523504918E-06,7.20703125,0,0.00862881311360449
-2.12276027014013E-05,9.01964176591719E-06,7.20703125,0,0.00862881311360449
-2.24492214329075E-05,9.70457494986476E-06,7.20703125,0,0.00862881311360449
-2.18986551772105E-05,8.95899211172946E-06,7.20703125,0,0.00862881311360449
-2.40820736507885E-05,9.95113259705249E-06,7.20703125,0,0.00862881311360449
-2.39641685766401E-05,1.04151831692434E-05,7.20703125,0,0.00862881311360449
-2.50377506745281E-05,1.26729901239742E-05,7.20703125,0,0.00862881311360449
-2.39064193010563E-05,1.51768508658279E-05,7.20703125,0,0.00862881311360449
-2.47594434767962E-05,1.68345868587494E-05,7.20703125,0,0.00862881311360449
-2.45903720497154E-05,1.62965716299368E-05,7.20703125,0,0.00862881311360449
-2.44449784077005E-05,1.65734290931141E-05,7.20703125,0,0.00862881311360449
-2.49439344770508E-05,1.6582200260018E-05,7.20703125,0,0.00862881311360449
-2.54624628723832E-05,1.52817992784549E-05,7.20703125,0,0.00862881311360449
-2.05734304472571E-05,1.17137351480778E-05,7.20703125,0,0.00862881311360449
-2.92056938633323E-05,1.62421183631523E-05,7.20703125,0,0.00862881311360449
-2.30448458751198E-05,1.30033895402448E-05,7.20703125,0,0.00862881311360449
-2.96888993034372E-05,1.85962398973061E-05,7.20703125,0,0.00862881311360449
-2.5802251911955E-05,1.82145377038978E-05,7.20703125,0,0.00862881311360449
-2.88541050394997E-05,2.06357981369365E-05,7.20703125,0,0.00862881311360449
-2.76676473731641E-05,1.85361750482116E-05,7.20703125,0,0.00862881311360449
-2.91733122139703E-05,1.6999465515255E-05,7.20703125,0,0.00862881311360449
-2.7930462238146E-05,1.48348135553533E-05,7.20703125,0,0.00862881311360449
-2.76166683761403E-05,1.40227593874442E-05,7.20703125,0,0.00862881311360449
-2.78510633506812E-05,1.44942678161897E-05,7.20703125,0,0.00862881311360449
-2.74827561952407E-05,1.54033223225269E-05,7.20703125,0,0.00862881311360449
-2.78249572147615E-05,1.56364712893264E-05,7.20703125,0,0.00862881311360449
-2.55572358582867E-05,1.35379432322225E-05,7.20703125,0,0.00862881311360449
-2.5958541300497E-05,1.37246015583514E-05,7.20703125,0,0.00862881311360449
-2.50338653131621E-05,1.35579575726297E-05,7.20703125,0,0.00862881311360449
-2.69689589913469E-05,1.52333323057974E-05,7.20703125,0,0.00862881311360449
-2.59419321082532E-05,1.54896388266934E-05,7.20703125,0,0.00862881311360449
-2.65308681264287E-05,1.54916469909949E-05,7.20703125,0,0.00862881311360449
-2.6398907721159E-05,1.36034086608561E-05,7.20703125,0,0.00862881311360449
-2.83070730802137E-05,1.34598922159057E-05,7.20703125,0,0.00862881311360449
-2.75051879725652E-05,1.30686330521712E-05,7.20703125,0,0.00862881311360449
-2.65788512479048E-05,1.30559810713748E-05,7.20703125,0,0.00862881311360449
-2.52144582191249E-05,1.19837341117091E-05,7.20703125,0,0.00862881311360449
-2.44533803197555E-05,1.21727198347799E-05,7.20703125,0,0.00862881311360449
-2.288153518748E-05,1.38034638439422E-05,7.20703125,0,0.00862881311360449
-2.25858348130714E-05,1.49042371049291E-05,7.20703125,0,0.00862881311360449
-1.92179504665546E-05,1.03459260571981E-05,7.20703125,0,0.00862881311360449
-2.93691391561879E-05,1.23426525533432E-05,7.20703125,0,0.00862881311360449
-2.38693464780226E-05,6.37794664726243E-06,7.20703125,0,0.00862881311360449
-2.70493055722909E-05,9.79281230684137E-06,7.20703125,0,0.00862881311360449
-2.29515571845695E-05,8.6703021224821E-06,7.20703125,0,0.00862881311360449
-2.66353017650545E-05,1.01853547676001E-05,7.20703125,0,0.00862881311360449
-2.6044499463751E-05,8.69216364662861E-06,7.20703125,0,0.00862881311360449
-2.64044447249034E-05,1.00591814771178E-05,7.20703125,0,0.00862881311360449
-2.43328049691627E-05,9.69199027167633E-06,7.20703125,0,0.00862881311360449
-2.42262449319242E-05,9.59266708377982E-06,7.20703125,0,0.00862881311360449
-2.47347470576642E-05,9.90275475487579E-06,7.20703125,0,0.00862881311360449
-2.36771302297711E-05,9.25657695916016E-06,7.20703125,0,0.00862881311360449
-2.33763512369478E-05,8.59615647641476E-06,7.20703125,0,0.00862881311360449
-2.16508597077336E-05,6.77142998029012E-06,7.20703125,0,0.00862881311360449
-2.2902440832695E-05,7.26557891539414E-06,7.20703125,0,0.00862881311360449
-2.36535470321542E-05,6.06332469033077E-06,7.20703125,0,0.00862881311360449
-2.59870012087049E-05,4.9070586101152E-06,7.20703125,0,0.00862881311360449
-2.42576988966903E-05,3.05317416859907E-06,7.20703125,0,0.00862881311360449
-2.35804036492482E-05,4.6305799514812E-06,7.20703125,0,0.00862881311360449
-2.32024758588523E-05,7.02735815139022E-06,7.20703125,0,0.00862881311360449
-2.53255984716816E-05,9.51723814068828E-06,7.20703125,0,0.00862881311360449
-2.61876721197041E-05,9.60255147219868E-06,7.20703125,0,0.00862881311360449
-2.69464617304038E-05,9.31459362618625E-06,7.20703125,0,0.00862881311360449
-2.55532195296837E-05,8.44506939756684E-06,7.20703125,0,0.00862881311360449
-2.50457924266811E-05,9.31675185711356E-06,7.20703125,0,0.00862881311360449
-2.4296015908476E-05,1.108002197725E-05,7.20703125,0,0.00862881311360449
-2.28404824156314E-05,1.17995623440947E-05,7.20703125,0,0.00862881311360449
-1.7576981917955E-05,1.07760652099387E-05,7.20703125,0,0.00862881311360449
-2.46865947701735E-05,1.67126854648814E-05,7.20703125,0,0.00862881311360449
-1.84047021321021E-05,1.23811623780057E-05,7.20703125,0,0.00862881311360449
-2.27496111619985E-05,1.13819860416697E-05,7.20703125,0,0.00862881311360449
-1.94601398106897E-05,6.71592488288297E-06,7.20703125,0,0.00862881311360449
-2.35108600463718E-05,7.55190103518544E-06,7.20703125,0,0.00862881311360449
-2.32572383538354E-05,7.82303413870977E-06,7.20703125,0,0.00862881311360449
-2.43343947659014E-05,9.57843803917058E-06,7.20703125,0,0.00862881311360449
-2.25177554966649E-05,1.07757596197189E-05,7.20703125,0,0.00862881311360449
-2.15150193980662E-05,1.157772840088E-05,7.20703125,0,0.00862881311360449
-2.08576711884234E-05,1.12600619104342E-05,7.20703125,0,0.00862881311360449
-1.91947437997442E-05,1.05368098957115E-05,7.20703125,0,0.00862881311360449
-1.99462429009145E-05,1.16011506179348E-05,7.20703125,0,0.00862881311360449
-2.0066965589649E-05,1.20912609418156E-05,7.20703125,0,0.00862881311360449
-2.25162384595023E-05,1.25102951642475E-05,7.20703125,0,0.00862881311360449
-2.2946844183025E-05,1.0804578778334E-05,7.20703125,0,0.00862881311360449
-2.44659986492479E-05,1.12374445961905E-05,7.20703125,0,0.00862881311360449
-2.34704875765601E-05,1.18525149446214E-05,7.20703125,0,0.00862881311360449
-2.39842611335916E-05,1.29175168694928E-05,7.20703125,0,0.00862881311360449
-2.30821515287971E-05,1.30523230836843E-05,7.20703125,0,0.00862881311360449
-2.41271118284203E-05,1.37292126964894E-05,7.20703125,0,0.00862881311360449
-2.43757967837155E-05,1.26207105495268E-05,7.20703125,0,0.00862881311360449
-2.46490508288844E-05,1.0454326911713E-05,7.20703125,0,0.00862881311360449
-2.30819423450157E-05,8.0044910646393E-06,7.20703125,0,0.00862881311360449
-2.33701193792513E-05,8.02088379714405E-06,7.20703125,0,0.00862881311360449
-2.48639389610616E-05,1.04246746559511E-05,7.20703125,0,0.00862881311360449
-2.47926236625062E-05,1.27608691400383E-05,7.20703125,0,0.00862881311360449
-1.93377254618099E-05,9.66179322858807E-06,7.20703125,0,0.00862881311360449
-2.77378658211092E-05,1.24308180602384E-05,7.20703125,0,0.00862881311360449
-2.12023896892788E-05,8.17588716017781E-06,7.20703125,0,0.00862881311360449
-2.55691720667528E-05,1.00069264590275E-05,7.20703125,0,0.00862881311360449
-2.07509237952763E-05,5.68232462683227E-06,7.20703125,0,0.00862881311360449
-2.29421038966393E-05,6.92355888531893E-06,7.20703125,0,0.00862881311360449
-2.09899772016797E-05,6.03264288656646E-06,7.20703125,0,0.00862881311360449
-2.32765123655554E-05,6.02519094172749E-06,7.20703125,0,0.00862881311360449
-2.41102443396812E-05,6.54431323710014E-06,7.20703125,0,0.00862881311360449
-2.41407324210741E-05,9.22240178624634E-06,7.20703125,0,0.00862881311360449
-2.39595228777034E-05,1.16585761134047E-05,7.20703125,0,0.00862881311360449
-2.3808614059817E-05,1.08629164969898E-05,7.20703125,0,0.00862881311360449
-2.51190122071421E-05,9.80725599220023E-06,7.20703125,0,0.00862881311360449
-2.41067609749734E-05,8.52728862810181E-06,7.20703125,0,0.00862881311360449
-2.50933044299018E-05,9.56479925662279E-06,7.20703125,0,0.00862881311360449
-2.45127630478237E-05,9.4886745500844E-06,7.20703125,0,0.00862881311360449
-2.68731691903668E-05,8.74103716341779E-06,7.20703125,0,0.00862881311360449
-2.74662706942763E-05,5.40766086487565E-06,7.20703125,0,0.00862881311360449
-2.86424165096832E-05,4.46368903794792E-06,7.20703125,0,0.00862881311360449
-2.714427500905E-05,5.46563160241931E-06,7.20703125,0,0.00862881311360449
-2.69390293397009E-05,7.84786061558407E-06,7.20703125,0,0.00862881311360449
-2.55634877248667E-05,8.48697163746692E-06,7.20703125,0,0.00862881311360449
-2.67254326900002E-05,8.08979075372918E-06,7.20703125,0,0.00862881311360449
-2.68523672275478E-05,6.60061550661339E-06,7.20703125,0,0.00862881311360449
-2.58899181062588E-05,8.44574060465675E-06,7.20703125,0,0.00862881311360449
-2.59903772530379E-05,1.3307368135429E-05,7.20703125,0,0.00862881311360449
-2.60037359112175E-05,1.57483464136021E-05,7.20703125,0,0.00862881311360449
-2.0294117348385E-05,1.14273880171822E-05,7.20703125,0,0.00862881311360449
-2.80358635791345E-05,1.45559224620229E-05,7.20703125,0,0.00862881311360449
-1.99541573238093E-05,9.39063465921208E-06,7.20703125,0,0.00862881311360449
-2.43963422690285E-05,1.26088261822588E-05,7.20703125,0,0.00862881311360449
-1.98833640752127E-05,1.04141881820397E-05,7.20703125,0,0.00862881311360449
-2.29283559747273E-05,1.30670168800862E-05,7.20703125,0,0.00862881311360449
-1.96495384443551E-05,1.07261821540305E-05,7.20703125,0,0.00862881311360449
-1.96295659407042E-05,1.06342104118085E-05,7.20703125,0,0.00862881311360449
-1.98152665689122E-05,1.15437142085284E-05,7.20703125,0,0.00862881311360449
-2.14383526326856E-05,1.28693700389704E-05,7.20703125,0,0.00862881311360449
-2.25164931180188E-05,1.28995816339739E-05,7.20703125,0,0.00862881311360449
-2.20063811866567E-05,1.17492700155708E-05,7.20703125,0,0.00862881311360449
-2.31330195674673E-05,1.2128431990277E-05,7.20703125,0,0.00862881311360449
-2.20726797124371E-05,1.10171731648734E-05,7.20703125,0,0.00862881311360449
-2.23695842578309E-05,1.08056274257251E-05,7.20703125,0,0.00862881311360449
-1.98976704268716E-05,9.70555720414268E-06,7.20703125,0,0.00862881311360449
-2.03248328034533E-05,1.00352663139347E-05,7.20703125,0,0.00862881311360449
-2.04437437787419E-05,9.34799027163535E-06,7.20703125,0,0.00862881311360449
-2.32091406360269E-05,1.01709210866829E-05,7.20703125,0,0.00862881311360449
-2.27127529797144E-05,9.34436229726998E-06,7.20703125,0,0.00862881311360449
-2.26574065891327E-05,8.55624239193276E-06,7.20703125,0,0.00862881311360449
-2.15739419218153E-05,6.85399982103263E-06,7.20703125,0,0.00862881311360449
-2.17659253394231E-05,6.65238803776447E-06,7.20703125,0,0.00862881311360449
-2.20859201363055E-05,6.32794535704306E-06,7.20703125,0,0.00862881311360449
-2.32106594921788E-05,6.65111656417139E-06,7.20703125,0,0.00862881311360449
-2.23739716602722E-05,7.50750132283429E-06,7.20703125,0,0.00862881311360449
-2.19357225432759E-05,8.90349838300608E-06,7.20703125,0,0.00862881311360449
-1.88122121471679E-05,6.13693828199757E-06,7.20703125,0,0.00862881311360449
-2.76011851383373E-05,7.12177143213921E-06,7.20703125,0,0.00862881311360449
-2.14608135138405E-05,5.11240386913414E-06,7.20703125,0,0.00862881311360449
-2.48889100475935E-05,8.56204678711947E-06,7.20703125,0,0.00862881311360449
-1.98070465557976E-05,8.18364333099453E-06,7.20703125,0,0.00862881311360449
-2.15497657336527E-05,1.10385335574392E-05,7.20703125,0,0.00862881311360449
-1.96035271073924E-05,1.13754113044706E-05,7.20703125,0,0.00862881311360449
-2.09022291528527E-05,1.20930262710317E-05,7.20703125,0,0.00862881311360449
-2.00527574634179E-05,1.18533625936834E-05,7.20703125,0,0.00862881311360449
-1.8856895621866E-05,1.26211361930473E-05,7.20703125,0,0.00862881311360449
-1.79098024091218E-05,1.38337381940801E-05,7.20703125,0,0.00862881311360449
-1.69193808687851E-05,1.37765046019922E-05,7.20703125,0,0.00862881311360449
-1.84283944690833E-05,1.30391335915192E-05,7.20703125,0,0.00862881311360449
-1.8857621398638E-05,1.17571453301935E-05,7.20703125,0,0.00862881311360449
-2.14471219806001E-05,1.29824356918107E-05,7.20703125,0,0.00862881311360449
-2.19547800952569E-05,1.34843285195529E-05,7.20703125,0,0.00862881311360449
-2.36639480135636E-05,1.38584264277597E-05,7.20703125,0,0.00862881311360449
-2.25975381908938E-05,1.26932454804773E-05,7.20703125,0,0.00862881311360449
-2.37202402786352E-05,1.24369325931184E-05,7.20703125,0,0.00862881311360449
-2.43279155256459E-05,1.16504224934033E-05,7.20703125,0,0.00862881311360449
-2.63589117821539E-05,1.06961733763455E-05,7.20703125,0,0.00862881311360449
-2.6340927433921E-05,1.01756786534679E-05,7.20703125,0,0.00862881311360449
-2.60078395513119E-05,1.05075341707561E-05,7.20703125,0,0.00862881311360449
-2.42292735492811E-05,9.83804329734994E-06,7.20703125,0,0.00862881311360449
-2.33884384215344E-05,9.98173982225126E-06,7.20703125,0,0.00862881311360449
-2.43887152464595E-05,1.02966014310368E-05,7.20703125,0,0.00862881311360449
-2.64970694843214E-05,1.00245924841147E-05,7.20703125,0,0.00862881311360449
-2.26017291424796E-05,7.22659206076059E-06,7.20703125,0,0.00862881311360449
-3.26480658259243E-05,9.45712326938519E-06,7.20703125,0,0.00862881311360449
-2.56279017776251E-05,5.41561348654795E-06,7.20703125,0,0.00862881311360449
-3.26099943777081E-05,5.96470408709138E-06,7.20703125,0,0.00862881311360449
-2.90556799882324E-05,4.76480090583209E-06,7.20703125,0,0.00862881311360449
-3.23784697684459E-05,7.3926253207901E-06,7.20703125,0,0.00862881311360449
-3.103834023932E-05,7.78028061176883E-06,7.20703125,0,0.00862881311360449
-3.23671811202075E-05,9.50048433878692E-06,7.20703125,0,0.00862881311360449
-3.03125980281038E-05,1.06837369457935E-05,7.20703125,0,0.00862881311360449
-3.01830641546985E-05,1.08666690721293E-05,7.20703125,0,0.00862881311360449
-3.07290429191198E-05,9.25595304579474E-06,7.20703125,0,0.00862881311360449
-3.02215667034034E-05,6.57372129353462E-06,7.20703125,0,0.00862881311360449
-3.15354445774574E-05,5.86593068874208E-06,7.20703125,0,0.00862881311360449
-3.06657093460672E-05,6.8835311139992E-06,7.20703125,0,0.00862881311360449
-3.14058452204335E-05,9.88560532277916E-06,7.20703125,0,0.00862881311360449
-2.89263243757887E-05,1.10699074866716E-05,7.20703125,0,0.00862881311360449
-2.78145598713309E-05,1.13527457870077E-05,7.20703125,0,0.00862881311360449
-2.43984377448214E-05,1.02641888588551E-05,7.20703125,0,0.00862881311360449
-2.44260536419461E-05,1.02012481875136E-05,7.20703125,0,0.00862881311360449
-2.34306844504317E-05,9.68183758232044E-06,7.20703125,0,0.00862881311360449
-2.37565527640982E-05,9.64353785093408E-06,7.20703125,0,0.00862881311360449
-2.12475879379781E-05,9.14693009690382E-06,7.20703125,0,0.00862881311360449
-1.91687777260086E-05,9.3451908469433E-06,7.20703125,0,0.00862881311360449
-1.68853694049176E-05,9.42364476941293E-06,7.20703125,0,0.00862881311360449
-1.64057382789906E-05,9.18693876883481E-06,7.20703125,0,0.00862881311360449
-1.55653706315206E-05,9.03099680726882E-06,7.20703125,0,0.00862881311360449
-1.49981142385514E-05,9.81638640951132E-06,7.20703125,0,0.00862881311360449
-1.21594939628267E-05,8.30885801406112E-06,7.20703125,0,0.00862881311360449
-1.88909889402566E-05,1.15374405140756E-05,7.20703125,0,0.00862881311360449
-1.62801243277499E-05,8.49253774504177E-06,7.20703125,0,0.00862881311360449
-1.99213518499164E-05,8.8841188699007E-06,7.20703125,0,0.00862881311360449
-1.94465319509618E-05,5.86483020015294E-06,7.20703125,0,0.00862881311360449
-2.33316441153875E-05,9.06351942830952E-06,7.20703125,0,0.00862881311360449
-2.66445367742563E-05,1.04801993074943E-05,7.20703125,0,0.00862881311360449
-3.19015380227938E-05,1.19612504931865E-05,7.20703125,0,0.00862881311360449
-3.38090321747586E-05,1.16306582640391E-05,7.20703125,0,0.00862881311360449
-3.31127994286362E-05,1.14773229142884E-05,7.20703125,0,0.00862881311360449
-3.08904418488964E-05,1.09735592559446E-05,7.20703125,0,0.00862881311360449
-2.95178342639701E-05,1.09795646494604E-05,7.20703125,0,0.00862881311360449
-2.99562943837373E-05,1.19738142529968E-05,7.20703125,0,0.00862881311360449
-2.90729858534178E-05,1.04362288766424E-05,7.20703125,0,0.00862881311360449
-2.93117900582729E-05,9.59108729148284E-06,7.20703125,0,0.00862881311360449
-2.91280593955889E-05,1.00153893072275E-05,7.20703125,0,0.00862881311360449
-2.97164970106678E-05,1.19948063002084E-05,7.20703125,0,0.00862881311360449
-2.7674192097038E-05,1.10594546640641E-05,7.20703125,0,0.00862881311360449
-2.64503905782476E-05,1.05930957943201E-05,7.20703125,0,0.00862881311360449
-2.53334310400533E-05,9.56124767981237E-06,7.20703125,0,0.00862881311360449
-2.59239350270946E-05,7.85410611570114E-06,7.20703125,0,0.00862881311360449
-2.5995561372838E-05,4.59148395748343E-06,7.20703125,0,0.00862881311360449
-2.69208085228456E-05,3.07275217892311E-06,7.20703125,0,0.00862881311360449
-2.68215590040199E-05,2.29914030569489E-06,7.20703125,0,0.00862881311360449
-2.56974180956604E-05,2.30633804676472E-06,7.20703125,0,0.00862881311360449
-2.37154945352813E-05,3.21219886245672E-06,7.20703125,0,0.00862881311360449
-2.19641260628123E-05,5.83175824431237E-06,7.20703125,0,0.00862881311360449
-1.75574714376125E-05,5.31532577952021E-06,7.20703125,0,0.00862881311360449
-2.44415314227808E-05,6.75356022838969E-06,7.20703125,0,0.00862881311360449
-1.78802692971658E-05,5.24310962646268E-06,7.20703125,0,0.00862881311360449
-2.14251667784993E-05,9.87389648798853E-06,7.20703125,0,0.00862881311360449
-1.54155186464777E-05,1.23077461466892E-05,7.20703125,0,0.00862881311360449
-1.67768030223669E-05,1.68536862474866E-05,7.20703125,0,0.00862881311360449
-1.53840010170825E-05,1.93160885828547E-05,7.20703125,0,0.00862881311360449
-1.6377603969886E-05,1.91263879969483E-05,7.20703125,0,0.00862881311360449
-1.56993173732189E-05,1.6999483705149E-05,7.20703125,0,0.00862881311360449
-1.63726581376977E-05,1.55126999743516E-05,7.20703125,0,0.00862881311360449
-1.69245049619349E-05,1.49701818372705E-05,7.20703125,0,0.00862881311360449
-1.57046088133939E-05,1.56743590196129E-05,7.20703125,0,0.00862881311360449
-1.48648741742363E-05,1.64386892720358E-05,7.20703125,0,0.00862881311360449
-1.23727295431308E-05,1.53818546095863E-05,7.20703125,0,0.00862881311360449
-1.30132011690876E-05,1.4436451237998E-05,7.20703125,0,0.00862881311360449
-1.28365136333741E-05,1.22980318337795E-05,7.20703125,0,0.00862881311360449
-1.52716638694983E-05,1.09967404569034E-05,7.20703125,0,0.00862881311360449
-1.63592812896241E-05,1.07679425127571E-05,7.20703125,0,0.00862881311360449
-1.87336481758393E-05,1.18638145067962E-05,7.20703125,0,0.00862881311360449
-1.81378181878245E-05,1.19646083476255E-05,7.20703125,0,0.00862881311360449
-1.85111803148175E-05,1.29357986224932E-05,7.20703125,0,0.00862881311360449
-1.9079314370174E-05,1.45839530887315E-05,7.20703125,0,0.00862881311360449
-2.19973371713422E-05,1.4784674931434E-05,12.83203125,0,0.00862881311360449
-2.40247336478205E-05,1.18481157187489E-05,12.83203125,0,0.00862881311360449
-2.63358288066229E-05,9.14433803700376E-06,12.83203125,0,0.00862881311360449
-2.7662057618727E-05,8.31394299893873E-06,12.83203125,0,0.00862881311360449
-2.79821142612491E-05,9.33228602661984E-06,12.83203125,0,0.00862881311360449
-2.35527950280812E-05,9.11665210878709E-06,12.83203125,0,0.00862881311360449
-3.45301450579427E-05,1.32329078041948E-05,12.83203125,0,0.00862881311360449
-2.75493566732621E-05,9.50066623772727E-06,12.83203125,0,0.00862881311360449
-3.4197550121462E-05,1.12279003587901E-05,12.83203125,0,0.00862881311360449
-2.95816353172995E-05,1.00029465102125E-05,12.83203125,0,0.00862881311360449
-3.15891556965653E-05,1.21398006740492E-05,12.83203125,0,0.00862881311360449
-2.78642819466768E-05,1.21635885079741E-05,12.83203125,0,0.00862881311360449
-2.88422397716204E-05,1.30674943648046E-05,12.83203125,0,0.00862881311360449
-2.80184976872988E-05,1.18893940452836E-05,12.83203125,0,0.00862881311360449
-2.77332983387169E-05,1.00445749922073E-05,12.83203125,0,0.00862881311360449
-2.79898104054155E-05,9.32117654883768E-06,12.83203125,0,0.00862881311360449
-2.72566849162104E-05,1.02991343737813E-05,12.83203125,0,0.00862881311360449
-2.83080989902373E-05,1.17404706543311E-05,12.83203125,0,0.00862881311360449
-2.72662164206849E-05,1.00199513326515E-05,12.83203125,0,0.00862881311360449
-2.79602154478198E-05,8.70183339429786E-06,12.83203125,0,0.00862881311360449
-2.53838697972242E-05,8.03868351795245E-06,12.83203125,0,0.00862881311360449
-2.56373114098096E-05,1.02286203400581E-05,12.83203125,0,0.00862881311360449
-2.44273778662318E-05,1.15209368232172E-05,12.83203125,0,0.00862881311360449
-2.56244602496736E-05,1.16497703857021E-05,12.83203125,0,0.00862881311360449
-2.48636624746723E-05,9.72587076830678E-06,12.83203125,0,0.00862881311360449
-2.55368668149458E-05,9.51092079048976E-06,12.83203125,0,0.00862881311360449
-2.39914643316297E-05,1.11336912596016E-05,12.83203125,0,0.00862881311360449
-2.37051608564798E-05,1.32580435092677E-05,12.83203125,0,0.00862881311360449
-2.22619837586535E-05,1.31487377075246E-05,12.83203125,0,0.00862881311360449
-2.18538552871905E-05,1.34287556647905E-05,12.83203125,0,0.00862881311360449
-2.18050154217053E-05,1.41398695632233E-05,12.83203125,0,0.00862881311360449
-2.13390158023685E-05,1.31590322780539E-05,12.83203125,0,0.00862881311360449
-1.79982198460493E-05,9.94491347228177E-06,12.83203125,0,0.00862881311360449
-2.6700117814471E-05,1.46465199577506E-05,12.83203125,0,0.00862881311360449
-2.19730063690804E-05,1.05236831586808E-05,12.83203125,0,0.00862881311360449
-2.59572661889251E-05,1.10286973722395E-05,12.83203125,0,0.00862881311360449
-2.1359062884585E-05,7.97693883214379E-06,12.83203125,0,0.00862881311360449
-2.31474077736493E-05,8.87778151081875E-06,12.83203125,0,0.00862881311360449
-2.08606688829605E-05,8.48396393848816E-06,12.83203125,0,0.00862881311360449
-2.22884973481996E-05,1.09372094811988E-05,12.83203125,0,0.00862881311360449
-2.2249198082136E-05,1.21673474495765E-05,12.83203125,0,0.00862881311360449
-2.26853826461593E-05,1.28151477838401E-05,12.83203125,0,0.00862881311360449
-2.37638760154368E-05,1.31497772599687E-05,12.83203125,0,0.00862881311360449
-2.41527523030527E-05,1.3129163562553E-05,12.83203125,0,0.00862881311360449
-2.55892937275348E-05,1.45393405546201E-05,12.83203125,0,0.00862881311360449
-2.5297897082055E-05,1.45371141115902E-05,12.83203125,0,0.00862881311360449
-2.69632218987681E-05,1.44772020576056E-05,12.83203125,0,0.00862881311360449
-2.64444843196543E-05,1.27496896311641E-05,12.83203125,0,0.00862881311360449
-2.75227594102034E-05,1.22085166367469E-05,12.83203125,0,0.00862881311360449
-2.52887257374823E-05,1.17544768727385E-05,12.83203125,0,0.00862881311360449
-2.33622595260385E-05,1.20095764941652E-05,12.83203125,0,0.00862881311360449
-2.03469517146004E-05,9.94997481029714E-06,12.83203125,0,0.00862881311360449
-2.08071469387505E-05,7.9468345575151E-06,12.83203125,0,0.00862881311360449
-2.1591344193439E-05,5.63129106012639E-06,12.83203125,0,0.00862881311360449
-2.3383117877529E-05,5.11602593178395E-06,12.83203125,0,0.00862881311360449
-2.49163040280109E-05,5.61959768674569E-06,12.83203125,0,0.00862881311360449
-2.65474463958526E-05,7.78947378421435E-06,12.83203125,0,0.00862881311360449
-2.54850874625845E-05,1.0156035386899E-05,12.83203125,0,0.00862881311360449
-2.35553980019176E-05,1.02913963928586E-05,12.83203125,0,0.00862881311360449
-1.94773110706592E-05,8.1728585428209E-06,12.83203125,0,0.00862881311360449
-2.92424520011991E-05,1.05537183117121E-05,12.83203125,0,0.00862881311360449
-2.31363210332347E-05,5.93645972912782E-06,12.83203125,0,0.00862881311360449
-2.66933948296355E-05,7.85662268754095E-06,12.83203125,0,0.00862881311360449
-2.24814684770536E-05,7.02115949025028E-06,12.83203125,0,0.00862881311360449
-2.52356803684961E-05,8.95262473932235E-06,12.83203125,0,0.00862881311360449
-2.29197248700075E-05,8.788339982857E-06,12.83203125,0,0.00862881311360449
-2.27574146265397E-05,1.02083349702298E-05,12.83203125,0,0.00862881311360449
-2.08661440410651E-05,1.10847831820138E-05,12.83203125,0,0.00862881311360449
-2.04705847863806E-05,1.07176365418127E-05,12.83203125,0,0.00862881311360449
-2.12459981412394E-05,9.79961168923182E-06,12.83203125,0,0.00862881311360449
-2.08864330488723E-05,9.31681370275328E-06,12.83203125,0,0.00862881311360449
-2.15751661016839E-05,1.00077249953756E-05,12.83203125,0,0.00862881311360449
-2.05327432922786E-05,1.02564108601655E-05,12.83203125,0,0.00862881311360449
-2.17087217606604E-05,1.1580689715629E-05,12.83203125,0,0.00862881311360449
-2.22064427362056E-05,1.03995416793623E-05,12.83203125,0,0.00862881311360449
-2.53597463597544E-05,8.63954937813105E-06,12.83203125,0,0.00862881311360449
-2.55015202128561E-05,7.43768214306328E-06,12.83203125,0,0.00862881311360449
-2.55310696957167E-05,9.18867499422049E-06,12.83203125,0,0.00862881311360449
-2.36705836869078E-05,1.07552787085297E-05,12.83203125,0,0.00862881311360449
-2.49975892074872E-05,1.22925112009398E-05,12.83203125,0,0.00862881311360449
-2.64167465502396E-05,1.20110171337728E-05,12.83203125,0,0.00862881311360449
-2.82322216662578E-05,1.10495639091823E-05,12.83203125,0,0.00862881311360449
-2.85539845208405E-05,9.79634478426306E-06,12.83203125,0,0.00862881311360449
-2.98564009426627E-05,8.755818271311E-06,12.83203125,0,0.00862881311360449
-3.06430192722473E-05,7.87114367994946E-06,12.83203125,0,0.00862881311360449
-2.98446739179781E-05,8.77451748237945E-06,12.83203125,0,0.00862881311360449
-2.32765523833223E-05,8.98748112376779E-06,12.83203125,0,0.00862881311360449
-3.28327223542146E-05,1.38219475047663E-05,12.83203125,0,0.00862881311360449
-2.43281974690035E-05,1.18962716442184E-05,12.83203125,0,0.00862881311360449
-2.96140078717144E-05,1.40125457619433E-05,12.83203125,0,0.00862881311360449
-2.41365396504989E-05,1.09797692857683E-05,12.83203125,0,0.00862881311360449
-2.71008248091675E-05,1.09680713649141E-05,12.83203125,0,0.00862881311360449
-2.48629676207202E-05,8.42500958242454E-06,12.83203125,0,0.00862881311360449
-2.70084019575734E-05,9.00900613487465E-06,12.83203125,0,0.00862881311360449
-2.66862898570253E-05,1.25172964544618E-05,12.83203125,0,0.00862881311360449
-2.69633164862171E-05,1.55488924065139E-05,12.83203125,0,0.00862881311360449
-2.7813925044029E-05,1.64273842528928E-05,12.83203125,0,0.00862881311360449
-2.7785279598902E-05,1.50125324580586E-05,12.83203125,0,0.00862881311360449
-2.81359061773401E-05,1.39530347951222E-05,12.83203125,0,0.00862881311360449
-2.55905597441597E-05,1.23574454846676E-05,12.83203125,0,0.00862881311360449
-2.62292069237446E-05,1.20444856293034E-05,12.83203125,0,0.00862881311360449
-2.56305193033768E-05,1.15204338726471E-05,12.83203125,0,0.00862881311360449
-2.80445874523139E-05,1.223947674589E-05,12.83203125,0,0.00862881311360449
-2.66286424448481E-05,1.16831561172148E-05,12.83203125,0,0.00862881311360449
-2.62678040598985E-05,1.24683383546653E-05,12.83203125,0,0.00862881311360449
-2.42371061176527E-05,1.33067351271166E-05,12.83203125,0,0.00862881311360449
-2.51161309279269E-05,1.31757033159374E-05,12.83203125,0,0.00862881311360449
-2.47046973527176E-05,1.16506325866794E-05,12.83203125,0,0.00862881311360449
-2.53406633419218E-05,1.04811051642173E-05,12.83203125,0,0.00862881311360449
-2.45080445893109E-05,8.78470382303931E-06,12.83203125,0,0.00862881311360449
-2.4303002646775E-05,7.29656267139944E-06,12.83203125,0,0.00862881311360449
-2.42619880737038E-05,6.65106335873134E-06,12.83203125,0,0.00862881311360449
-2.43493814195972E-05,7.93222716310993E-06,12.83203125,0,0.00862881311360449
-1.97641584236408E-05,9.12944324227283E-06,12.83203125,0,0.00862881311360449
-2.77731960522942E-05,1.44033538163058E-05,12.83203125,0,0.00862881311360449
-2.01419425138738E-05,1.05987464849022E-05,12.83203125,0,0.00862881311360449
-2.3761704142089E-05,8.34057027532253E-06,12.83203125,0,0.00862881311360449
-1.97175031644292E-05,3.87504860555055E-06,12.83203125,0,0.00862881311360449
-2.38586180785205E-05,6.04138995186077E-06,12.83203125,0,0.00862881311360449
-2.26677348109661E-05,7.11541088094236E-06,12.83203125,0,0.00862881311360449
-2.30108744290192E-05,7.86186683399137E-06,12.83203125,0,0.00862881311360449
-1.99056485143956E-05,6.89406579112983E-06,12.83203125,0,0.00862881311360449
-1.78442933247425E-05,6.57402551951236E-06,12.83203125,0,0.00862881311360449
-1.70830116985599E-05,6.41516817267984E-06,12.83203125,0,0.00862881311360449
-1.65679830388399E-05,5.35552135261241E-06,12.83203125,0,0.00862881311360449
-1.82197800313588E-05,6.17223986409954E-06,12.83203125,0,0.00862881311360449
-1.74096549017122E-05,7.083622222126E-06,12.83203125,0,0.00862881311360449
-1.83545926120132E-05,8.36868366604904E-06,12.83203125,0,0.00862881311360449
-1.84334785444662E-05,9.24052801565267E-06,12.83203125,0,0.00862881311360449
-2.10811867873417E-05,1.10359751488431E-05,12.83203125,0,0.00862881311360449
-2.05901742447168E-05,1.00715524240513E-05,12.83203125,0,0.00862881311360449
-2.16346852539573E-05,9.91088745649904E-06,12.83203125,0,0.00862881311360449
-2.13514849747298E-05,1.10289702206501E-05,12.83203125,0,0.00862881311360449
-2.26555948756868E-05,1.20262302516494E-05,12.83203125,0,0.00862881311360449
-2.21166628762148E-05,1.11168783405446E-05,12.83203125,0,0.00862881311360449
-2.32056572713191E-05,1.11588769868831E-05,12.83203125,0,0.00862881311360449
-2.49773165705847E-05,9.91974957287312E-06,12.83203125,0,0.00862881311360449
-2.70042783085955E-05,8.35645096231019E-06,12.83203125,0,0.00862881311360449
-2.62963403656613E-05,9.19188096304424E-06,12.83203125,0,0.00862881311360449
-2.58984055108158E-05,1.11866529550753E-05,12.83203125,0,0.00862881311360449
-2.09735244425246E-05,1.07532814581646E-05,12.83203125,0,0.00862881311360449
-3.04532786685741E-05,1.63414570124587E-05,12.83203125,0,0.00862881311360449
-2.29127126658568E-05,1.31774304463761E-05,12.83203125,0,0.00862881311360449
-2.53349189733854E-05,1.49732895806665E-05,12.83203125,0,0.00862881311360449
-1.79119215317769E-05,1.15018356154906E-05,12.83203125,0,0.00862881311360449
-1.81088762474246E-05,1.19699834613129E-05,12.83203125,0,0.00862881311360449
-1.46307174873073E-05,1.06641700767796E-05,12.83203125,0,0.00862881311360449
-1.56962778419256E-05,1.1592806004046E-05,12.83203125,0,0.00862881311360449
-1.34196816361509E-05,1.21404036690365E-05,12.83203125,0,0.00862881311360449
-1.13779251478263E-05,1.22652581922011E-05,12.83203125,0,0.00862881311360449
-1.01723644547747E-05,1.22159099191776E-05,12.83203125,0,0.00862881311360449
-1.00875877251383E-05,1.13117566797882E-05,12.83203125,0,0.00862881311360449
-1.31254164443817E-05,1.13048727143905E-05,12.83203125,0,0.00862881311360449
-1.41821374199935E-05,1.04016326076817E-05,12.83203125,0,0.00862881311360449
-1.63085351232439E-05,9.95059417618904E-06,12.83203125,0,0.00862881311360449
-1.53648616105784E-05,8.87703390617389E-06,12.83203125,0,0.00862881311360449
-1.68429214681964E-05,9.91099477687385E-06,12.83203125,0,0.00862881311360449
-1.67289308592444E-05,1.07942423710483E-05,12.83203125,0,0.00862881311360449
-1.92593342944747E-05,1.2266887097212E-05,12.83203125,0,0.00862881311360449
-2.09528898267308E-05,1.12874204205582E-05,12.83203125,0,0.00862881311360449
-2.47905463766074E-05,1.00300330814207E-05,12.83203125,0,0.00862881311360449
-2.55327468039468E-05,8.30912995297695E-06,12.83203125,0,0.00862881311360449
-2.66361566900741E-05,8.59954434417887E-06,12.83203125,0,0.00862881311360449
-2.71297976723872E-05,9.24729556572856E-06,12.83203125,0,0.00862881311360449
-2.73527366516646E-05,9.74382874119328E-06,12.83203125,0,0.00862881311360449
-2.71816261374624E-05,1.1691276995407E-05,12.83203125,0,0.00862881311360449
-2.83458939520642E-05,1.32749219119432E-05,12.83203125,0,0.00862881311360449
-2.54697752097854E-05,9.5272007456515E-06,12.83203125,0,0.00862881311360449
-3.7094850995345E-05,1.22348628792679E-05,12.83203125,0,0.00862881311360449
-2.85520509351045E-05,7.52537653170293E-06,12.83203125,0,0.00862881311360449
-3.43102947226726E-05,9.79415563051589E-06,12.83203125,0,0.00862881311360449
-2.84653615381103E-05,6.97389577908325E-06,12.83203125,0,0.00862881311360449
-3.1252176995622E-05,8.30758926895214E-06,12.83203125,0,0.00862881311360449
-2.89998151856707E-05,7.58050691729295E-06,12.83203125,0,0.00862881311360449
-3.03695615002653E-05,7.73946976551088E-06,12.83203125,0,0.00862881311360449
-2.9701415769523E-05,7.42095016903477E-06,12.83203125,0,0.00862881311360449
-3.0709521524841E-05,6.87857391312718E-06,12.83203125,0,0.00862881311360449
-3.22392406815197E-05,6.19676120550139E-06,12.83203125,0,0.00862881311360449
-3.20953513437416E-05,6.36125378150609E-06,12.83203125,0,0.00862881311360449
-3.36855810019188E-05,8.50656579132192E-06,12.83203125,0,0.00862881311360449
-3.28578280459624E-05,9.74101112660719E-06,12.83203125,0,0.00862881311360449
-3.36814882757608E-05,1.02361891549663E-05,12.83203125,0,0.00862881311360449
-3.08338458125945E-05,8.17581167211756E-06,12.83203125,0,0.00862881311360449
-3.02665557683213E-05,7.22668119124137E-06,12.83203125,0,0.00862881311360449
-2.84041070699459E-05,6.20414448349038E-06,12.83203125,0,0.00862881311360449
-3.0310115107568E-05,6.9234943111951E-06,12.83203125,0,0.00862881311360449
-3.04313616652507E-05,7.27776068742969E-06,12.83203125,0,0.00862881311360449
-3.18258353217971E-05,8.79808158060769E-06,12.83203125,0,0.00862881311360449
-3.06707806885242E-05,9.62173180596437E-06,12.83203125,0,0.00862881311360449
-2.94103283522418E-05,9.70261862676125E-06,12.83203125,0,0.00862881311360449
-2.61577806668356E-05,9.04780517885229E-06,12.83203125,0,0.00862881311360449
-2.4883007426979E-05,9.69032225839328E-06,12.83203125,0,0.00862881311360449
-2.48861106229015E-05,9.59570206759963E-06,12.83203125,0,0.00862881311360449
-2.53491252806271E-05,8.92744901648257E-06,12.83203125,0,0.00862881311360449
-2.05868145712884E-05,7.09125242792652E-06,12.83203125,0,0.00862881311360449
-2.94554829451954E-05,1.01827617982053E-05,12.83203125,0,0.00862881311360449
-2.19207431655377E-05,9.01045041246107E-06,12.83203125,0,0.00862881311360449
-2.63771016761893E-05,1.15042357720085E-05,12.83203125,0,0.00862881311360449
-2.1838175598532E-05,9.8615664683166E-06,12.83203125,0,0.00862881311360449
-2.42415990214795E-05,1.1527857168403E-05,12.83203125,0,0.00862881311360449
-2.18132736335974E-05,1.17133067760733E-05,12.83203125,0,0.00862881311360449
-2.21823847823543E-05,1.37674333018367E-05,12.83203125,0,0.00862881311360449
-2.10468242585193E-05,1.48515428008977E-05,12.83203125,0,0.00862881311360449
-2.05177693715086E-05,1.55155030370224E-05,12.83203125,0,0.00862881311360449
-2.07219327421626E-05,1.58965667651501E-05,12.83203125,0,0.00862881311360449
-2.06099157367134E-05,1.60187755682273E-05,12.83203125,0,0.00862881311360449
-2.14710416912567E-05,1.6669695469318E-05,12.83203125,0,0.00862881311360449
-1.94970671145711E-05,1.54253666551085E-05,12.83203125,0,0.00862881311360449
-1.96213186427485E-05,1.48133485708968E-05,12.83203125,0,0.00862881311360449
-1.86643683264265E-05,1.39252460940043E-05,12.83203125,0,0.00862881311360449
-2.02489645744208E-05,1.45422745845281E-05,12.83203125,0,0.00862881311360449
-1.95917527889833E-05,1.50995338117355E-05,12.83203125,0,0.00862881311360449
-2.01330294657964E-05,1.5983552657417E-05,12.83203125,0,0.00862881311360449
-1.74805718415882E-05,1.51276344695361E-05,12.83203125,0,0.00862881311360449
-1.66168447321979E-05,1.45558069561957E-05,12.83203125,0,0.00862881311360449
-1.62828127940884E-05,1.34126748889685E-05,12.83203125,0,0.00862881311360449
-1.80088190973038E-05,1.27411421999568E-05,12.83203125,0,0.00862881311360449
-1.89121965377126E-05,1.19019505291362E-05,12.83203125,0,0.00862881311360449
-1.97892495634733E-05,1.15017837742926E-05,12.83203125,0,0.00862881311360449
-1.98042107513174E-05,1.06498346212902E-05,12.83203125,0,0.00862881311360449
-1.90242772077909E-05,9.30542228161357E-06,12.83203125,0,0.00862881311360449
-1.49942416101112E-05,8.04064529802417E-06,12.83203125,0,0.00862881311360449
-2.27163873205427E-05,1.19344522317988E-05,12.83203125,0,0.00862881311360449
-2.06165677809622E-05,7.9563751569367E-06,12.83203125,0,0.00862881311360449
-2.5951942006941E-05,7.57826865083189E-06,12.83203125,0,0.00862881311360449
-2.25661024160217E-05,5.70135989619303E-06,12.83203125,0,0.00862881311360449
-2.40811277762987E-05,8.97823520062957E-06,12.83203125,0,0.00862881311360449
-2.31272588280262E-05,1.10102155304048E-05,12.83203125,0,0.00862881311360449
-2.63238380284747E-05,1.24691450764658E-05,12.83203125,0,0.00862881311360449
-2.85439473373117E-05,1.23876006909995E-05,12.83203125,0,0.00862881311360449
-3.04401219182182E-05,1.11758827188169E-05,12.83203125,0,0.00862881311360449
-3.13309974444564E-05,1.00296056189109E-05,12.83203125,0,0.00862881311360449
-3.08542112179566E-05,9.60544366535032E-06,12.83203125,0,0.00862881311360449
-3.14777935273014E-05,9.45364990911912E-06,12.83203125,0,0.00862881311360449
-3.11120347760152E-05,7.88962461228948E-06,12.83203125,0,0.00862881311360449
-3.20306862704456E-05,7.77717650635168E-06,12.83203125,0,0.00862881311360449
-3.03465658362256E-05,7.80716345616383E-06,12.83203125,0,0.00862881311360449
-2.92455988528673E-05,8.51509139465634E-06,12.83203125,0,0.00862881311360449
-2.62491630564909E-05,8.68232018547133E-06,12.83203125,0,0.00862881311360449
-2.67383074969985E-05,1.02583317129756E-05,12.83203125,0,0.00862881311360449
-2.77781473414507E-05,1.1742557035177E-05,12.83203125,0,0.00862881311360449
-2.94379970000591E-05,1.21307548397454E-05,12.83203125,0,0.00862881311360449
-2.79105242952937E-05,8.45553586259484E-06,12.83203125,0,0.00862881311360449
-2.58185045822756E-05,3.79599123334629E-06,12.83203125,0,0.00862881311360449
-2.36746382142883E-05,3.03673891721701E-06,12.83203125,0,0.00862881311360449
-2.22383696382167E-05,8.30234966997523E-06,12.83203125,0,0.00862881311360449
-2.11740261875093E-05,1.28503334053676E-05,12.83203125,0,0.00862881311360449
-2.09498957701726E-05,1.14894055514014E-05,12.83203125,0,0.00862881311360449
-1.68818714882946E-05,5.30489023731207E-06,20.56640625,0,0.00862881311360449
-2.36014384427108E-05,7.02951410858077E-06,20.56640625,0,0.00862881311360449
-1.67039070220198E-05,6.87544934407924E-06,20.56640625,0,0.00862881311360449
-2.03195922949817E-05,1.04963601188501E-05,20.56640625,0,0.00862881311360449
-1.56899677676847E-05,9.30157875700388E-06,20.56640625,0,0.00862881311360449
-1.61365023814142E-05,1.01123605418252E-05,20.56640625,0,0.00862881311360449
-1.32517752717831E-05,9.24992036743788E-06,20.56640625,0,0.00862881311360449
-1.47427172123571E-05,1.07709111034637E-05,20.56640625,0,0.00862881311360449
-1.61641200975282E-05,1.19354499474866E-05,20.56640625,0,0.00862881311360449
-1.77281981450506E-05,1.24945590869174E-05,20.56640625,0,0.00862881311360449
-1.82604617293691E-05,1.23263798741391E-05,20.56640625,0,0.00862881311360449
-1.76995163201354E-05,1.12912293843692E-05,20.56640625,0,0.00862881311360449
-1.87777786777588E-05,1.09104121293058E-05,20.56640625,0,0.00862881311360449
-1.76672383531695E-05,1.03336215033778E-05,20.56640625,0,0.00862881311360449
-1.82872299774317E-05,1.05209010143881E-05,20.56640625,0,0.00862881311360449
-1.87491696124198E-05,1.07919186120853E-05,20.56640625,0,0.00862881311360449
-2.22646685870131E-05,1.29046820802614E-05,20.56640625,0,0.00862881311360449
-2.34164435823914E-05,1.31442648125812E-05,20.56640625,0,0.00862881311360449
-2.52638019446749E-05,1.1474695384095E-05,20.56640625,0,0.00862881311360449
-2.57336560025578E-05,9.35090065468103E-06,20.56640625,0,0.00862881311360449
-2.77205926977331E-05,1.0485189704923E-05,20.56640625,0,0.00862881311360449
-2.81490283668973E-05,1.28241663333029E-05,20.56640625,0,0.00862881311360449
-2.87591774394969E-05,1.44070254464168E-05,20.56640625,0,0.00862881311360449
-2.96166163025191E-05,1.31860824694741E-05,20.56640625,0,0.00862881311360449
-3.02313401334686E-05,1.12836460175458E-05,20.56640625,0,0.00862881311360449
-2.85899204754969E-05,1.03551183201489E-05,20.56640625,0,0.00862881311360449
-2.71101780526806E-05,1.10268738353625E-05,20.56640625,0,0.00862881311360449
-2.19194334931672E-05,8.01607529865578E-06,20.56640625,0,0.00862881311360449
-3.26033296005335E-05,8.8048618636094E-06,20.56640625,0,0.00862881311360449
-2.69828706223052E-05,4.48698710897588E-06,20.56640625,0,0.00862881311360449
-3.2417978218291E-05,7.89434943726519E-06,20.56640625,0,0.00862881311360449
-2.65844391833525E-05,6.73856175126275E-06,20.56640625,0,0.00862881311360449
-2.88183819066035E-05,9.36574178922456E-06,20.56640625,0,0.00862881311360449
-2.57614447036758E-05,8.90946193976561E-06,20.56640625,0,0.00862881311360449
-2.56641633313848E-05,9.92730474536074E-06,20.56640625,0,0.00862881311360449
-2.38992670347216E-05,1.11991303128889E-05,20.56640625,0,0.00862881311360449
-2.39300989051117E-05,1.25863352877786E-05,20.56640625,0,0.00862881311360449
-2.41284178628121E-05,1.20505073937238E-05,20.56640625,0,0.00862881311360449
-2.21444206545129E-05,1.04130640465883E-05,20.56640625,0,0.00862881311360449
-2.23381248360965E-05,9.81491757556796E-06,20.56640625,0,0.00862881311360449
-2.14647752727615E-05,9.19389094633516E-06,20.56640625,0,0.00862881311360449
-2.34986418945482E-05,1.02605717984261E-05,20.56640625,0,0.00862881311360449
-2.34613344218815E-05,9.94028778222855E-06,20.56640625,0,0.00862881311360449
-2.49563890974969E-05,9.75263174041174E-06,20.56640625,0,0.00862881311360449
-2.35645256907446E-05,8.80707375472412E-06,20.56640625,0,0.00862881311360449
-2.46294348471565E-05,1.07189734990243E-05,20.56640625,0,0.00862881311360449
-2.46699582930887E-05,1.20386675916961E-05,20.56640625,0,0.00862881311360449
-2.61119257629616E-05,1.32766654132865E-05,20.56640625,0,0.00862881311360449
-2.55436116276542E-05,1.35333557409467E-05,20.56640625,0,0.00862881311360449
-2.53875896305544E-05,1.30561984406086E-05,20.56640625,0,0.00862881311360449
-2.43197227973724E-05,1.16610526674776E-05,20.56640625,0,0.00862881311360449
-2.52979025390232E-05,1.0817006113939E-05,20.56640625,0,0.00862881311360449
-2.55930335697485E-05,1.04508553704363E-05,20.56640625,0,0.00862881311360449
-2.55501436186023E-05,1.13923470053123E-05,20.56640625,0,0.00862881311360449
-2.11125043279026E-05,9.5438226708211E-06,20.56640625,0,0.00862881311360449
-2.94590499834158E-05,1.23476629596553E-05,20.56640625,0,0.00862881311360449
-2.10946454899386E-05,7.60978127800627E-06,20.56640625,0,0.00862881311360449
-2.68238654825836E-05,1.02205158327706E-05,20.56640625,0,0.00862881311360449
-2.35945371969137E-05,8.93494234333048E-06,20.56640625,0,0.00862881311360449
-2.70965847448679E-05,1.17251356641646E-05,20.56640625,0,0.00862881311360449
-2.58840809692629E-05,1.3328914064914E-05,20.56640625,0,0.00862881311360449
-2.73144905804656E-05,1.57143167598406E-05,20.56640625,0,0.00862881311360449
-2.5708090106491E-05,1.54051995195914E-05,20.56640625,0,0.00862881311360449
-2.48780870606424E-05,1.39230041895644E-05,20.56640625,0,0.00862881311360449
-2.51852816290921E-05,1.33528674268746E-05,20.56640625,0,0.00862881311360449
-2.52065583481453E-05,1.35197033159784E-05,20.56640625,0,0.00862881311360449
-2.60436081589432E-05,1.35337977553718E-05,20.56640625,0,0.00862881311360449
-2.4045479221968E-05,1.12133748189081E-05,20.56640625,0,0.00862881311360449
-2.45782830461394E-05,9.40300378715619E-06,20.56640625,0,0.00862881311360449
-2.36105406656861E-05,8.01459464128129E-06,20.56640625,0,0.00862881311360449
-2.53176822297974E-05,9.31653266889043E-06,20.56640625,0,0.00862881311360449
-2.46027611865429E-05,9.29144334804732E-06,20.56640625,0,0.00862881311360449
-2.48818414547713E-05,9.47964053921169E-06,20.56640625,0,0.00862881311360449
-2.30892674153438E-05,8.98541384231066E-06,20.56640625,0,0.00862881311360449
-2.3798638721928E-05,1.00184888651711E-05,20.56640625,0,0.00862881311360449
-2.37345684581669E-05,1.00469014796545E-05,20.56640625,0,0.00862881311360449
-2.46027993853204E-05,9.61972546065226E-06,20.56640625,0,0.00862881311360449
-2.4444385417155E-05,9.05116849025944E-06,20.56640625,0,0.00862881311360449
-2.44562270381721E-05,9.29856923903571E-06,20.56640625,0,0.00862881311360449
-2.37489621213172E-05,9.90847365756053E-06,20.56640625,0,0.00862881311360449
-2.28125391004141E-05,9.28967801883118E-06,20.56640625,0,0.00862881311360449
-1.89517959370278E-05,5.86622672926751E-06,20.56640625,0,0.00862881311360449
-2.68693711404921E-05,1.01528385130223E-05,20.56640625,0,0.00862881311360449
-1.97719509742456E-05,1.05396511571598E-05,20.56640625,0,0.00862881311360449
