biceps_emg, triceps_emg, subject_position, position_estimate, brace_position
-1.95388020074461E-05,1.46763804877992E-05,1.58203125,0,0
-2.20675447053509E-05,1.89527672773693E-05,1.58203125,0,0
-2.34052331506973E-05,1.64550147019327E-05,1.58203125,0,0
-2.49970962613588E-05,1.35377749757026E-05,1.58203125,0,0
-2.40294339164393E-05,1.00467386801029E-05,1.58203125,0,0
-2.30407094932161E-05,7.36532410883228E-06,1.58203125,0,0
-2.30397108680336E-05,6.14862074144185E-06,1.58203125,0,0
-2.46735125983832E-05,6.59097077004844E-06,1.58203125,0,0
-2.59198150160955E-05,6.70518011247623E-06,1.58203125,0,0
-2.57701594819082E-05,4.90876527692308E-06,1.58203125,0,0
-2.13674757105764E-05,2.90039520223218E-06,1.58203125,0,0
-3.06509682559408E-05,6.39088693787926E-06,1.58203125,0,0
-2.37860604102025E-05,7.583150818391E-06,1.58203125,0,0
-2.97454025712796E-05,7.53966151023633E-06,1.58203125,0,0
-2.61296754615614E-05,7.51158268030849E-06,1.58203125,0,0
-2.96750549750868E-05,8.85648205439793E-06,1.58203125,0,0
-2.66314218606567E-05,9.24683536140947E-06,1.58203125,0,0
-2.66146562353242E-05,8.41748897073558E-06,1.58203125,0,0
-2.54880760621745E-05,6.74615330353845E-06,1.58203125,0,0
-2.57148312812205E-05,6.01945930611691E-06,1.58203125,0,0
-2.69662905338919E-05,6.92087178322254E-06,1.58203125,0,0
-2.75745514954906E-05,9.20526235859143E-06,1.58203125,0,0
-2.94516976282466E-05,1.10669534478802E-05,1.58203125,0,0
-2.93060893454822E-05,1.16789669846185E-05,1.58203125,0,0
-3.02271037071478E-05,1.17655526992166E-05,1.58203125,0,0
-2.78701882052701E-05,1.18638827188988E-05,1.58203125,0,0
-2.74145877483534E-05,1.41919035741012E-05,1.58203125,0,0
-2.47873012995115E-05,1.76676021510502E-05,1.58203125,0,0
-2.52361423918046E-05,1.98891684703995E-05,1.58203125,0,0
-2.55982758972095E-05,2.0353918444016E-05,1.58203125,0,0
-2.80703570751939E-05,2.02861774596386E-05,1.58203125,0,0
-2.75979346042732E-05,1.97601530089742E-05,1.58203125,0,0
-2.75768779829377E-05,1.95400280063041E-05,1.58203125,0,0
-2.74465364782372E-05,1.88642497960245E-05,1.58203125,0,0
-2.80930380540667E-05,1.83982338057831E-05,1.58203125,0,0
-2.70122309302678E-05,1.67186535691144E-05,1.58203125,0,0
-2.5791916414164E-05,1.29572363221087E-05,1.58203125,0,0
-2.00300382857677E-05,8.42428289615782E-06,1.58203125,0,0
-2.86939830402844E-05,1.26734912555548E-05,1.58203125,0,0
-2.30898658628576E-05,1.15985712909605E-05,1.58203125,0,0
-2.85383321170229E-05,1.50205414684024E-05,1.58203125,0,0
-2.34664639719995E-05,1.18081934488146E-05,1.58203125,0,0
-2.70072978310054E-05,1.02536123449681E-05,1.58203125,0,0
-2.58150139416102E-05,8.43228190205991E-06,1.58203125,0,0
-2.62715911958367E-05,1.06035049611819E-05,1.58203125,0,0
-2.42812857322861E-05,1.14364465844119E-05,1.58203125,0,0
-2.30807345360518E-05,1.0971566553053E-05,1.58203125,0,0
-2.24696905206656E-05,1.00641373137478E-05,1.58203125,0,0
-2.07781467906898E-05,1.04362370620947E-05,1.58203125,0,0
-2.05624746740796E-05,1.26140257634688E-05,1.58203125,0,0
-1.99667865672382E-05,1.15411421575118E-05,1.58203125,0,0
-2.32940037676599E-05,9.40297650231514E-06,1.58203125,0,0
-2.45771971094655E-05,5.78772278458928E-06,1.58203125,0,0
-2.68530402536271E-05,2.85942383015936E-06,1.58203125,0,0
-2.55283157457598E-05,8.6047128888822E-07,1.58203125,0,0
-2.57675874308916E-05,3.67213237950637E-06,1.58203125,0,0
-2.50952980422881E-05,8.09075299912365E-06,1.58203125,0,0
-2.55538816418266E-05,1.16597866508528E-05,1.58203125,0,0
-2.29641882469878E-05,1.17604140541516E-05,1.58203125,0,0
-2.22050493903225E-05,1.14183112600585E-05,1.58203125,0,0
-2.38523552980041E-05,1.15789962364943E-05,1.58203125,0,0
-2.75942529697204E-05,1.16109604277881E-05,1.58203125,0,0
-3.02332700812258E-05,1.20046324809664E-05,1.58203125,0,0
-3.16464647767134E-05,1.37670749609242E-05,1.58203125,0,0
-2.51833480433561E-05,1.23896115837852E-05,1.58203125,0,0
-3.44893742294516E-05,1.70824278029613E-05,1.58203125,0,0
-2.43602808041032E-05,1.08888580143685E-05,1.58203125,0,0
-3.0109535146039E-05,1.22482579172356E-05,1.58203125,0,0
-2.47749321715673E-05,9.49465902522206E-06,1.58203125,0,0
-2.87603616015986E-05,1.10082373794285E-05,1.58203125,0,0
-2.5899862521328E-05,1.02671765489504E-05,1.58203125,0,0
-2.80740332527785E-05,1.286658061872E-05,1.58203125,0,0
-2.69054144155234E-05,1.41480431921082E-05,1.58203125,0,0
-2.57281226367923E-05,1.55037923832424E-05,1.58203125,0,0
-2.53971957135946E-05,1.65208330145106E-05,1.58203125,0,0
-2.54947262874339E-05,1.66560257639503E-05,1.58203125,0,0
-2.82642376987496E-05,1.49522193169105E-05,1.58203125,0,0
-2.74535977951018E-05,9.11903771338984E-06,1.58203125,0,0
-2.83375229628291E-05,5.92130072618602E-06,1.58203125,0,0
-2.65327271335991E-05,4.94263031214359E-06,1.58203125,0,0
-2.82703585980926E-05,7.501120762754E-06,1.58203125,0,0
-2.76072350970935E-05,9.10461767489323E-06,1.58203125,0,0
-2.94736582873156E-05,1.16862638606108E-05,1.58203125,0,0
-2.84135257970775E-05,1.32589093482238E-05,1.58203125,0,0
-2.91804972221144E-05,1.61095049406867E-05,1.58203125,0,0
-2.88505252683535E-05,1.67064627021318E-05,1.58203125,0,0
-2.92042495857459E-05,1.53756755025825E-05,1.58203125,0,0
-2.73070581897628E-05,1.08654121504514E-05,1.58203125,0,0
-2.66923780145589E-05,5.40721885045059E-06,1.58203125,0,0
-2.64242808043491E-05,1.81259770215547E-06,1.58203125,0,0
-2.63879173871828E-05,1.69067493516195E-06,1.58203125,0,0
-2.11331971513573E-05,4.80650896861334E-06,1.58203125,0,0
-2.90434418275254E-05,1.04118016679422E-05,1.58203125,0,0
-2.13023013202474E-05,1.15628008643398E-05,1.58203125,0,0
-2.62707126239548E-05,1.1113641448901E-05,1.58203125,0,0
-2.00189351744484E-05,8.68117149366299E-06,1.58203125,0,0
-2.16059252124978E-05,6.6180587054987E-06,1.58203125,0,0
-1.84729833563324E-05,5.30717443325557E-06,1.58203125,0,0
-1.93711512110895E-05,5.13937402502052E-06,1.58203125,0,0
-1.88585781870643E-05,5.98321867073537E-06,1.58203125,0,0
-1.84769396582851E-05,6.32671981293242E-06,1.58203125,0,0
-1.85751778190024E-05,3.40752421834623E-06,1.58203125,0,0
-1.82843177753966E-05,-5.73258098768292E-08,1.58203125,0,0
-2.01861366804224E-05,-4.26057944480362E-08,1.58203125,0,0
-1.98788511625025E-05,1.87850548627466E-06,1.58203125,0,0
-2.14348365261685E-05,3.80384631171182E-06,1.58203125,0,0
-2.10326579690445E-05,5.7313040997542E-06,1.58203125,0,0
-2.31302274187328E-05,8.16724968899507E-06,1.58203125,0,0
-2.17601973417914E-05,9.04527678358136E-06,1.58203125,0,0
-2.09189765882911E-05,7.88190573075553E-06,1.58203125,0,0
-1.81075010914356E-05,4.99628231409588E-06,1.58203125,0,0
-1.83842748811003E-05,2.2936180812394E-06,1.58203125,0,0
-1.87263703992357E-05,-6.86868702359789E-07,1.58203125,0,0
-1.98622219613753E-05,-2.28581598094024E-06,1.58203125,0,0
-1.85005774255842E-05,-6.48087620902515E-07,1.58203125,0,0
-1.66690715559525E-05,1.28901172047335E-06,1.58203125,0,0
-1.55801408254774E-05,3.37821734319732E-06,1.58203125,0,0
-1.61789994308492E-05,7.5052530519315E-06,1.58203125,0,0
-1.37858569360105E-05,9.66697552939877E-06,1.58203125,0,0
-1.91150993487099E-05,1.3604028026748E-05,1.58203125,0,0
-1.42322660394711E-05,7.37730078981258E-06,1.58203125,0,0
-1.81129180418793E-05,7.56557028580573E-06,1.58203125,0,0
-1.6640369722154E-05,8.49313437356614E-06,1.58203125,0,0
-1.92608895304147E-05,1.38132345455233E-05,1.58203125,0,0
-1.73361495399149E-05,1.39298399517429E-05,1.58203125,0,0
-1.8023694792646E-05,1.19360947792302E-05,1.58203125,0,0
-1.73007283592597E-05,9.84783764579333E-06,1.58203125,0,0
-1.70495095517254E-05,1.10095907075447E-05,1.58203125,0,0
-1.70392504514894E-05,1.3909608242102E-05,1.58203125,0,0
-1.66728223121027E-05,1.51925078171189E-05,1.58203125,0,0
-1.81483792403014E-05,1.6798687283881E-05,1.58203125,0,0
-1.90979881153908E-05,1.90566315723117E-05,1.58203125,0,0
-2.12869326787768E-05,2.22987437155098E-05,1.58203125,0,0
-2.0614808818209E-05,2.27187701966614E-05,1.58203125,0,0
-2.06146996788448E-05,2.23758124775486E-05,1.58203125,0,0
-1.9498012989061E-05,2.17384949792176E-05,1.58203125,0,0
-2.1125762941665E-05,2.28387907554861E-05,1.58203125,0,0
-2.22594935621601E-05,2.22495982598048E-05,1.58203125,0,0
-2.37682597798994E-05,2.10418074857444E-05,1.58203125,0,0
-2.28341868933057E-05,1.97007884708E-05,1.58203125,0,0
-2.21524660446448E-05,1.89403090189444E-05,1.58203125,0,0
-2.17607248487184E-05,1.63454533321783E-05,1.58203125,0,0
-2.35582847381011E-05,1.28469264382147E-05,1.58203125,0,0
-2.61338900600094E-05,8.38657433632761E-06,1.58203125,0,0
-2.87271304841852E-05,4.05153286919813E-06,1.58203125,0,0
-2.51710462180199E-05,2.06670347324689E-06,1.58203125,0,0
-3.60783415089827E-05,5.64157880944549E-06,1.58203125,0,0
-2.74004887614865E-05,9.65794606599957E-06,1.58203125,0,0
-3.35328913934063E-05,1.18240905067069E-05,1.58203125,0,0
-2.82541241176659E-05,1.07574151115841E-05,1.58203125,0,0
-3.24680913763586E-05,1.12541456473991E-05,1.58203125,0,0
-3.02909793390427E-05,1.33734356495552E-05,1.58203125,0,0
-3.11181756842416E-05,1.5091792192834E-05,1.58203125,0,0
-3.00859646813478E-05,1.59172977873823E-05,1.58203125,0,0
-3.15990255330689E-05,1.64966459124116E-05,1.58203125,0,0
-3.32723502651788E-05,1.69612885656534E-05,1.58203125,0,0
-3.19924984069075E-05,1.7777900211513E-05,1.58203125,0,0
-3.16488149110228E-05,1.80147617356852E-05,1.58203125,0,0
-2.83258214039961E-05,1.66739173437236E-05,1.58203125,0,0
-2.75162674370222E-05,1.46455786307342E-05,1.58203125,0,0
-2.52636073128087E-05,1.22851306514349E-05,1.58203125,0,0
-2.7298152417643E-05,8.90070987225045E-06,1.58203125,0,0
-2.6381841962575E-05,3.5534581002139E-06,1.58203125,0,0
-2.61805525951786E-05,-1.55982093019702E-06,1.58203125,0,0
-2.33393529924797E-05,-4.94583491672529E-06,1.58203125,0,0
-2.40460813074606E-05,-6.97621044309926E-06,1.58203125,0,0
-2.46133822656702E-05,-6.85941722622374E-06,1.58203125,0,0
-2.53067300945986E-05,-2.51252026828297E-06,1.58203125,0,0
-2.26568317884812E-05,3.93517348129535E-06,1.58203125,0,0
-2.0092689737794E-05,7.81260405346984E-06,1.58203125,0,0
-2.04328425752465E-05,8.05852960183984E-06,1.58203125,0,0
-2.34402705245884E-05,9.23603965929942E-06,1.58203125,0,0
-1.97694389498793E-05,1.01969581010053E-05,1.58203125,0,0
-2.73741170531139E-05,1.58413895405829E-05,1.58203125,0,0
-2.02059145522071E-05,1.19467304102727E-05,1.58203125,0,0
-2.43735921685584E-05,1.24315311040846E-05,1.58203125,0,0
-1.86069246410625E-05,1.01338055173983E-05,1.58203125,0,0
-1.95887641893933E-05,1.30459548017825E-05,1.58203125,0,0
-1.62418673426146E-05,1.62703527166741E-05,1.58203125,0,0
-1.88831054401817E-05,2.09587542485679E-05,1.58203125,0,0
-2.06886888918234E-05,2.15746640606085E-05,1.58203125,0,0
-2.20603524212493E-05,2.00353242689744E-05,1.58203125,0,0
-2.21386635530507E-05,1.69766626640921E-05,1.58203125,0,0
-2.01894545170944E-05,1.36282114908681E-05,1.58203125,0,0
-2.10216912819305E-05,1.37016741064144E-05,1.58203125,0,0
-2.23934930545511E-05,1.34864712890703E-05,1.58203125,0,0
-2.57965239143232E-05,1.35324589791708E-05,1.58203125,0,0
-2.54246751865139E-05,1.39059184220969E-05,1.58203125,0,0
-2.60920915025054E-05,1.68811802723212E-05,1.58203125,0,0
-2.48651140282163E-05,1.80846818693681E-05,1.58203125,0,0
-2.65029430011055E-05,1.66892004926922E-05,1.58203125,0,0
-2.63287984125782E-05,1.16607479867525E-05,1.58203125,0,0
-2.74382673524087E-05,7.86681357567431E-06,1.58203125,0,0
-2.66825718426844E-05,4.36492518929299E-06,1.58203125,0,0
-2.53547568718204E-05,4.11359707186421E-07,1.58203125,0,0
-2.21849950321484E-05,-1.20795732527768E-06,1.58203125,0,0
-2.11101032618899E-05,2.76674086308049E-06,1.58203125,0,0
-2.09082772926195E-05,9.48743036133237E-06,1.58203125,0,0
-2.08436777029419E-05,1.49840916492394E-05,1.58203125,0,0
-1.56772093760083E-05,1.26565901155118E-05,1.58203125,0,0
-2.14461688301526E-05,1.48448716572602E-05,1.58203125,0,0
-1.65929086506367E-05,7.23448374628788E-06,1.58203125,0,0
-2.27865712076891E-05,1.10150258478825E-05,1.58203125,0,0
-1.99099831661442E-05,1.04231721707038E-05,1.58203125,0,0
-2.10335019801278E-05,1.42705939651933E-05,1.58203125,0,0
-1.94743988686241E-05,1.29733562062029E-05,1.58203125,0,0
-2.21538230107399E-05,1.45595331559889E-05,1.58203125,0,0
-2.26996962737758E-05,1.42377430165652E-05,1.58203125,0,0
-2.29246106755454E-05,1.28075253087445E-05,1.58203125,0,0
-2.25184758164687E-05,1.06830602817354E-05,1.58203125,0,0
-2.12235499930102E-05,8.91857598617207E-06,1.58203125,0,0
-2.20442252611974E-05,1.08152089524083E-05,1.58203125,0,0
-2.15187628782587E-05,1.23670515677077E-05,1.58203125,0,0
-2.2542957594851E-05,1.35328682517866E-05,1.58203125,0,0
-2.16663029277697E-05,1.06652505564853E-05,1.58203125,0,0
-2.29579163715243E-05,1.0551141713222E-05,1.58203125,0,0
-2.22765829676064E-05,1.18394191304105E-05,1.58203125,0,0
-2.22389735426987E-05,1.45655612868723E-05,1.58203125,0,0
-2.09956015169155E-05,1.48772151078447E-05,1.58203125,0,0
-2.1831829144503E-05,1.66947320394684E-05,1.58203125,0,0
-2.23763527174015E-05,1.71244264492998E-05,1.58203125,0,0
-2.41408470174065E-05,1.80269489646889E-05,1.58203125,0,0
-2.59966782323318E-05,1.78519658220466E-05,1.58203125,0,0
-2.88048868242186E-05,1.50114901771303E-05,1.58203125,0,0
-2.9570896003861E-05,1.08527901829802E-05,1.58203125,0,0
-2.93293542199535E-05,1.00192764875828E-05,1.58203125,0,0
-2.46381896431558E-05,8.0460431490792E-06,1.58203125,0,0
-3.56876553269103E-05,1.02213225545711E-05,1.58203125,0,0
-2.81527500192169E-05,7.62837453294196E-06,1.58203125,0,0
-3.49776273651514E-05,1.17517911348841E-05,1.58203125,0,0
-2.97927435894962E-05,1.08621607068926E-05,1.58203125,0,0
-3.28167152474634E-05,1.27350022012251E-05,1.58203125,0,0
-3.02509070024826E-05,1.21284074339201E-05,1.58203125,0,0
-3.14587232423946E-05,1.08481817733264E-05,1.58203125,0,0
-2.95290938083781E-05,8.39773747429717E-06,1.58203125,0,0
-2.87138482235605E-05,8.33605463412823E-06,1.58203125,0,0
-2.88598166662268E-05,9.45572628552327E-06,1.58203125,0,0
-2.73122077487642E-05,9.34579747990938E-06,1.58203125,0,0
-2.69289557763841E-05,7.80935624788981E-06,1.58203125,0,0
-2.40712724917103E-05,5.37070491191116E-06,1.58203125,0,0
-2.40547487919685E-05,6.10342885920545E-06,1.58203125,0,0
-2.17089200305054E-05,7.56875169827254E-06,1.58203125,0,0
-2.25308194785612E-05,1.09630709630437E-05,1.58203125,0,0
-2.13219827855937E-05,1.34671045088908E-05,1.58203125,0,0
-2.24751547648339E-05,1.4979304978624E-05,1.58203125,0,0
-2.18435507122194E-05,1.27171151689254E-05,1.58203125,0,0
-2.34601629927056E-05,9.21393348107813E-06,1.58203125,0,0
-2.30707664741203E-05,6.72786472932785E-06,1.58203125,0,0
-2.3357348254649E-05,6.89555099597783E-06,1.58203125,0,0
-2.32097445405088E-05,5.97240705246804E-06,1.58203125,0,0
-2.459273673594E-05,4.41784322902095E-06,1.58203125,0,0
-2.5322422516183E-05,3.89103524867096E-06,1.58203125,0,0
-2.62022949755192E-05,6.1929954426887E-06,1.58203125,0,0
-2.1666335669579E-05,8.59909505379619E-06,1.58203125,0,0
-3.048723374377E-05,1.42720182338962E-05,1.58203125,0,0
-2.18215991480974E-05,1.36355620270479E-05,1.58203125,0,0
-2.61366058111889E-05,1.54597018990899E-05,1.58203125,0,0
-2.29324359679595E-05,1.17426161523326E-05,1.58203125,0,0
-2.81727316178149E-05,1.11372446554014E-05,1.58203125,0,0
-2.6431609512656E-05,1.10124437924242E-05,1.58203125,0,0
-2.64126156253042E-05,1.23536256069201E-05,1.58203125,0,0
-2.40523913817015E-05,1.23032577903359E-05,1.58203125,0,0
-2.37658114201622E-05,9.80131790129235E-06,1.58203125,0,0
-2.4116396161844E-05,5.89939190831501E-06,1.58203125,0,0
-2.31542162509868E-05,3.69418785339803E-06,1.58203125,0,0
-2.41718425968429E-05,4.58132717540138E-06,1.58203125,0,0
-2.37542044487782E-05,6.10994175076485E-06,1.58203125,0,0
-2.58588770520873E-05,1.00008583103772E-05,1.58203125,0,0
-2.47750685957726E-05,1.3038402357779E-05,1.58203125,0,0
-2.51166165980976E-05,1.46717629831983E-05,1.58203125,0,0
-2.34736071433872E-05,1.38148470796295E-05,1.58203125,0,0
-2.49528347922023E-05,1.336442437605E-05,1.58203125,0,0
-2.46606632572366E-05,1.28243227663916E-05,1.58203125,0,0
-2.61027289525373E-05,1.34052506837179E-05,1.58203125,0,0
-2.69838492386043E-05,1.44686628118507E-05,1.58203125,0,0
-2.80423628282733E-05,1.75518962350907E-05,1.58203125,0,0
-2.66257284238236E-05,2.12141476367833E-05,1.58203125,0,0
-2.49719796556747E-05,2.31860849453369E-05,1.58203125,0,0
-2.37753101828275E-05,2.19883968384238E-05,1.58203125,0,0
-2.48699270741781E-05,2.0475481505855E-05,1.58203125,0,0
-2.08513683901401E-05,1.53609307744773E-05,1.58203125,0,0
-2.87974617094733E-05,2.16298976738472E-05,1.58203125,0,0
-2.11888400372118E-05,1.71435422089417E-05,1.58203125,0,0
-2.78846364381025E-05,2.36148243857315E-05,1.58203125,0,0
-2.50060020334786E-05,2.11107035283931E-05,1.58203125,0,0
-2.76314131042454E-05,2.25093699555146E-05,1.58203125,0,0
-2.4142242182279E-05,2.04667630896438E-05,1.58203125,0,0
-2.48209598794347E-05,2.05122942134039E-05,1.58203125,0,0
-2.47810057771858E-05,1.84690852620406E-05,1.58203125,0,0
-2.5203811674146E-05,1.69811864907388E-05,1.58203125,0,0
-2.42086316575296E-05,1.59869450726546E-05,1.58203125,0,0
-2.14990632230183E-05,1.4930867109797E-05,1.58203125,0,0
-2.14802857954055E-05,1.45153398989351E-05,1.58203125,0,0
-2.0283745470806E-05,1.24501821119338E-05,1.58203125,0,0
-2.13623679883312E-05,1.31995820993325E-05,1.58203125,0,0
-2.06920285563683E-05,1.36861699502333E-05,1.58203125,0,0
-2.23032038775273E-05,1.48205081131891E-05,1.58203125,0,0
-2.04480438696919E-05,1.207101286127E-05,1.58203125,0,0
-1.92606876225909E-05,1.11622557597002E-05,1.58203125,0,0
-1.60467916430207E-05,1.04360860859742E-05,1.58203125,0,0
-1.50938121805666E-05,9.34574563871138E-06,1.58203125,0,0
-1.45108824654017E-05,5.44936847290955E-06,1.58203125,0,0
-1.67267880897271E-05,2.23829169954115E-06,1.58203125,0,0
-1.81880732270656E-05,-1.75877835317806E-06,1.58203125,0,0
-1.91476774489274E-05,-3.99815280616167E-06,1.58203125,0,0
-1.90430491784355E-05,-2.02369756152621E-06,1.58203125,0,0
-1.94539188669296E-05,4.51372034149244E-06,1.58203125,0,0
-1.70541861734819E-05,8.06963635113789E-06,1.58203125,0,0
-2.53362759394804E-05,1.29574727907311E-05,1.58203125,0,0
-2.10763428185601E-05,1.17895187941031E-05,1.58203125,0,0
-2.54592541750753E-05,1.33592393467552E-05,1.58203125,0,0
-2.19412031583488E-05,1.08440999611048E-05,1.58203125,0,0
-2.46662639256101E-05,1.12881079985527E-05,1.58203125,0,0
-2.33364116866142E-05,1.21932725960505E-05,1.58203125,0,0
-2.39315613725921E-05,1.37313054437982E-05,1.58203125,0,0
-2.31879530474544E-05,1.11686304080649E-05,1.58203125,0,0
-2.35535590036307E-05,5.56152417630074E-06,1.58203125,0,0
-2.45699011429679E-05,5.72359397210676E-07,1.58203125,0,0
-2.47038096858887E-05,3.23297086879393E-07,1.58203125,0,0
-2.51806068263249E-05,6.63453784000012E-06,1.58203125,0,0
-2.43329996010289E-05,1.40625788844773E-05,1.58203125,0,0
-2.66395309154177E-05,1.79757225851063E-05,1.58203125,0,0
-2.68504245468648E-05,1.55911020556232E-05,1.58203125,0,0
-2.68457260972355E-05,1.17657482405775E-05,1.58203125,0,0
-2.42532769334503E-05,1.02006670203991E-05,1.58203125,0,0
-2.4116810891428E-05,1.29037816805067E-05,1.58203125,0,0
-2.40785047935788E-05,1.32129425765015E-05,1.58203125,0,0
-2.66150891548023E-05,1.12957486635423E-05,1.58203125,0,0
-2.69504271273036E-05,1.02167150544119E-05,1.58203125,0,0
-2.67285540758166E-05,1.15124657895649E-05,1.58203125,0,0
-2.57754254562315E-05,1.16046676339465E-05,1.58203125,0,0
-2.53685102507006E-05,1.1231145435886E-05,1.58203125,0,0
-2.50459506787593E-05,1.12886373244692E-05,1.58203125,0,0
-2.49465829256224E-05,1.14973363452009E-05,1.58203125,0,0
-2.11023943847977E-05,1.07544810816762E-05,1.58203125,0,0
-2.99937873933231E-05,1.66025547514437E-05,1.58203125,0,0
-2.26100910367677E-05,1.33085586639936E-05,1.58203125,0,0
-2.66168153757462E-05,1.51357799040852E-05,1.58203125,0,0
-2.03796116693411E-05,1.26362901937682E-05,1.58203125,0,0
-2.32945567404386E-05,1.18880461741355E-05,1.58203125,0,0
-2.23331862798659E-05,7.80835398472846E-06,1.58203125,0,0
-2.39949422393693E-05,6.43551720713731E-06,1.58203125,0,0
-2.30028927035164E-05,6.66377763991477E-06,1.58203125,0,0
-2.48579090111889E-05,8.44808982947143E-06,1.58203125,0,0
-2.79115265584551E-05,8.55567759572295E-06,1.58203125,0,0
-2.77195431408472E-05,7.20719071978237E-06,1.58203125,0,0
-2.69601750915172E-05,7.41255871616886E-06,1.58203125,0,0
-2.39817418332677E-05,7.43722466722829E-06,1.58203125,0,0
-2.38749453274067E-05,8.48785657581175E-06,1.58203125,0,0
-2.23261104110861E-05,8.73732278705575E-06,1.58203125,0,0
-2.43088725255802E-05,1.01548121165251E-05,1.58203125,0,0
-2.46130130108213E-05,1.05372328107478E-05,1.58203125,0,0
-2.70768923655851E-05,1.14867634692928E-05,1.58203125,0,0
-2.720209704421E-05,1.05990275187651E-05,1.58203125,0,0
-2.82928012893535E-05,1.01432706287596E-05,1.58203125,0,0
-2.72166689683218E-05,8.66219124873169E-06,1.58203125,0,0
-2.65778344328282E-05,7.58681244406034E-06,1.58203125,0,0
-2.55651302722981E-05,5.91440675634658E-06,1.58203125,0,0
-2.61077511822805E-05,5.42788438906427E-06,1.58203125,0,0
-2.63392430497333E-05,7.66031098464737E-06,1.58203125,0,0
-2.4979932277347E-05,1.01408959380933E-05,1.58203125,0,0
-1.86740089702653E-05,7.08128618498449E-06,1.58203125,0,0
-2.70165710389847E-05,6.1153041315265E-06,1.58203125,0,0
-2.25078802031931E-05,1.06064942428929E-06,1.58203125,0,0
-2.87238035525661E-05,5.18572460350697E-06,1.58203125,0,0
-2.36730920732953E-05,3.85168596039875E-06,1.58203125,0,0
-2.40592999034561E-05,3.44175327882112E-06,1.58203125,0,0
-2.05742853722768E-05,1.89996876542864E-06,1.58203125,0,0
-2.08512847166276E-05,3.95796905650059E-06,1.58203125,0,0
-1.95149095816305E-05,4.79671462016995E-06,1.58203125,0,0
-1.83546690095682E-05,6.82730023982003E-06,1.58203125,0,0
-1.87192235898692E-05,1.09389366116375E-05,1.58203125,0,0
-1.96866203623358E-05,1.52214779518545E-05,1.58203125,0,0
-2.21256159420591E-05,1.85755416168831E-05,1.58203125,0,0
-2.18350360228214E-05,1.86971192306373E-05,1.58203125,0,0
-2.29638426390011E-05,2.02962801267859E-05,1.58203125,0,0
-2.23886490857694E-05,2.15566669794498E-05,1.58203125,0,0
-2.37982440012274E-05,2.15010968531715E-05,1.58203125,0,0
-2.25409748964012E-05,1.84628406714182E-05,1.58203125,0,0
-2.23490715143271E-05,1.78976788447471E-05,1.58203125,0,0
-2.07804660021793E-05,1.68429123732494E-05,1.58203125,0,0
-2.14129795494955E-05,1.33147041196935E-05,1.58203125,0,0
-2.15360032598255E-05,6.80188077240018E-06,1.58203125,0,0
-2.29270954150707E-05,-8.19560966647259E-07,1.58203125,0,0
-2.34315903071547E-05,-1.04732143881847E-05,1.58203125,0,0
-2.33663704420906E-05,-1.75822096935008E-05,1.58203125,0,0
-2.19544144783868E-05,-1.87313635251485E-05,1.58203125,0,0
-2.18186723941471E-05,-1.26274917420233E-05,1.58203125,0,0
-1.8389249817119E-05,-1.30908767914661E-06,1.58203125,0,0
-2.71681219601305E-05,3.66416816177662E-06,1.58203125,0,0
-2.24578088818816E-05,8.43409361550584E-06,1.58203125,0,0
-2.74845442618243E-05,6.75887213219539E-06,1.58203125,0,0
-2.31647554755909E-05,6.85170516590006E-06,1.58203125,0,0
-2.44452894548886E-05,4.67963855044218E-06,1.58203125,0,0
-2.21074224100448E-05,4.51927053291001E-06,1.58203125,0,0
-2.43024605879327E-05,3.60406806976243E-06,1.58203125,0,0
-2.42064543272136E-05,5.16451245857752E-06,1.58203125,0,0
-2.42628975684056E-05,7.00523423802224E-06,1.58203125,0,0
-2.49169934249949E-05,8.99860515346518E-06,1.58203125,0,0
-2.46740019065328E-05,1.05917224573204E-05,1.58203125,0,0
-2.53543967119185E-05,1.06277157101431E-05,1.58203125,0,0
-2.36593223235104E-05,1.09368711491697E-05,1.58203125,0,0
-2.29592442337889E-05,1.12400693978998E-05,1.58203125,0,0
-2.03563922696048E-05,1.24308089652914E-05,1.58203125,0,0
-2.03201743715908E-05,1.30721036839532E-05,1.58203125,0,0
-1.94730309885927E-05,1.405610510119E-05,1.58203125,0,0
-2.12989798455965E-05,1.37676970553002E-05,1.58203125,0,0
-2.0452804164961E-05,1.43299012052012E-05,1.58203125,0,0
-2.03071049327264E-05,1.56981404870749E-05,1.58203125,0,0
-2.00058020709548E-05,1.76449684659019E-05,1.58203125,0,0
-2.19543653656729E-05,1.84604159585433E-05,1.58203125,0,0
-2.31485173571855E-05,1.69412996910978E-05,1.58203125,0,0
-2.26362935791258E-05,1.24006564874435E-05,1.58203125,0,0
-2.0908446458634E-05,1.01729801826878E-05,1.58203125,0,0
-2.14409756154055E-05,1.1044606253563E-05,1.58203125,0,0
-1.87985078810016E-05,1.07156402009423E-05,1.58203125,0,0
-2.70884502242552E-05,1.62471096700756E-05,1.58203125,0,0
-2.06847671506694E-05,1.30772232296295E-05,1.58203125,0,0
-2.60020842688391E-05,1.60179024533136E-05,1.58203125,0,0
-2.26129104703432E-05,1.43297647809959E-05,1.58203125,0,0
-2.32140191656072E-05,1.6351776139345E-05,1.58203125,0,0
-1.82180192496162E-05,1.50530850078212E-05,1.58203125,0,0
-1.79457110789372E-05,1.5139702554734E-05,1.58203125,0,0
-1.93169071280863E-05,1.58752282004571E-05,1.58203125,0,0
-2.15634408959886E-05,1.77214824361727E-05,1.58203125,0,0
-2.22082326217787E-05,1.93911801034119E-05,1.58203125,0,0
-2.09694699151441E-05,1.93823798326775E-05,1.58203125,0,0
-2.17854685615748E-05,1.93681407836266E-05,1.58203125,0,0
-2.11366150324466E-05,1.87212190212449E-05,1.58203125,0,0
-2.17502529267222E-05,1.88974081538618E-05,1.58203125,0,0
-2.05939504667185E-05,1.73405169334728E-05,1.58203125,0,0
-2.18535678868648E-05,1.60183262778446E-05,1.58203125,0,0
-2.20531273953384E-05,1.29847612697631E-05,1.58203125,0,0
-2.40062800003216E-05,1.1363598787284E-05,1.58203125,0,0
-2.38011070905486E-05,1.04863020169432E-05,1.58203125,0,0
-2.52759855356999E-05,1.16727278509643E-05,1.58203125,0,0
-2.60166198131628E-05,1.3723959455092E-05,1.58203125,0,0
-2.6583364160615E-05,1.75477525772294E-05,1.58203125,0,0
-2.50504817813635E-05,1.85196277016075E-05,1.58203125,0,0
-2.45184455707204E-05,1.73949229065329E-05,1.58203125,0,0
-2.51157562161097E-05,1.85523913387442E-05,1.58203125,0,0
-2.68244093604153E-05,2.22517264774069E-05,1.58203125,0,0
-2.24636532948352E-05,1.99907244677888E-05,1.58203125,0,0
-3.08778799080756E-05,2.63629790424602E-05,1.58203125,0,0
-2.20502515730914E-05,1.43069028126774E-05,1.58203125,0,0
-2.82026376225986E-05,1.40614893098245E-05,1.58203125,0,0
-2.47021725954255E-05,6.20317996435915E-06,1.58203125,0,0
-2.80596741504269E-05,9.24872256291565E-06,1.58203125,0,0
-2.40407771343598E-05,8.05091076472308E-06,1.58203125,0,0
-2.37800923059694E-05,8.43655834614765E-06,1.58203125,0,0
-2.26134689000901E-05,8.27195617603138E-06,1.58203125,0,0
-2.32459005928831E-05,9.49769764702069E-06,1.58203125,0,0
-2.31576123042032E-05,8.9541390480008E-06,1.58203125,0,0
-2.13887233257992E-05,5.72114095120924E-06,1.58203125,0,0
-2.27682121476391E-05,5.73210536458646E-06,1.58203125,0,0
-2.37864569498925E-05,6.38066467217868E-06,1.58203125,0,0
-2.72497691184981E-05,9.6016365205287E-06,1.58203125,0,0
-2.70720593107399E-05,9.05170054465998E-06,1.58203125,0,0
-2.76286573352991E-05,9.78558909991989E-06,1.58203125,0,0
-2.53691305260872E-05,9.43652321439004E-06,1.58203125,0,0
-2.67205123236636E-05,1.06665102066472E-05,1.58203125,0,0
-2.6573208742775E-05,7.90458852861775E-06,1.58203125,0,0
-2.79634332400747E-05,6.97506220603827E-06,1.58203125,0,0
-2.70856762654148E-05,7.13391909812344E-06,1.58203125,0,0
-2.73954174190294E-05,9.30308397073532E-06,1.58203125,0,0
-2.69084302999545E-05,9.65824619925115E-06,1.58203125,0,0
-2.61666136793792E-05,9.31009344640188E-06,1.58203125,0,0
-2.51078345172573E-05,8.08853656053543E-06,1.58203125,0,0
-2.6370960767963E-05,7.39338156563463E-06,1.58203125,0,0
-2.28829740080982E-05,5.88410102864145E-06,1.58203125,0,0
-3.22362357110251E-05,8.81907544680871E-06,1.58203125,0,0
-2.39022738242056E-05,8.14388295111712E-06,1.58203125,0,0
-3.05043904518243E-05,9.85699080047198E-06,1.58203125,0,0
-2.75527672783937E-05,6.9738675847475E-06,1.58203125,0,0
-3.2092742912937E-05,4.8498604883207E-06,1.58203125,0,0
-3.02098887914326E-05,2.91752758130315E-06,1.58203125,0,0
-3.06982874462847E-05,4.63366586700431E-06,1.58203125,0,0
-2.85226888081525E-05,6.55453186482191E-06,1.58203125,0,0
-2.77217786788242E-05,8.42489225760801E-06,1.58203125,0,0
-2.79117411992047E-05,9.22689105209429E-06,1.58203125,0,0
-2.68368094111793E-05,8.06439948064508E-06,1.58203125,0,0
-2.69525007752236E-05,6.18011290498544E-06,1.58203125,0,0
-2.45193550654221E-05,4.79377149531501E-06,1.58203125,0,0
-2.5302337235189E-05,5.91493972024182E-06,1.58203125,0,0
-2.50724933721358E-05,5.70380689168815E-06,1.58203125,0,0
-2.69756128545851E-05,2.26599377128878E-06,1.58203125,0,0
-2.51586589001818E-05,-3.76654338651861E-06,1.58203125,0,0
-2.5663894120953E-05,-6.01445344727836E-06,1.58203125,0,0
-2.45897699642228E-05,-3.04230115943938E-06,1.58203125,0,0
-2.42497299041133E-05,4.88283149024937E-06,1.58203125,0,0
-2.10541456908686E-05,1.29210429804516E-05,1.58203125,0,0
-2.04790158022661E-05,1.63419481395977E-05,1.58203125,0,0
-2.20966903725639E-05,1.3806041351927E-05,1.58203125,0,0
-2.37645253946539E-05,1.11458721221425E-05,1.58203125,0,0
-2.36413197853835E-05,1.11454701254843E-05,1.58203125,0,0
-2.37871790886857E-05,1.27985094877658E-05,1.58203125,0,0
-2.03086256078677E-05,1.21184302770416E-05,1.58203125,0,0
-2.90726784442086E-05,1.80090373760322E-05,1.58203125,0,0
-2.16231055674143E-05,1.37696242745733E-05,1.58203125,0,0
-2.52822301263222E-05,1.75717304955469E-05,1.58203125,0,0
-2.0989076801925E-05,1.59443661686964E-05,1.58203125,0,0
-2.48922005994245E-05,1.5759889720357E-05,1.58203125,0,0
-2.46419967879774E-05,1.41372083817259E-05,1.58203125,0,0
-2.67448904196499E-05,1.56841524585616E-05,1.58203125,0,0
-2.48828564508585E-05,1.62046890181955E-05,1.58203125,0,0
-2.33258379012113E-05,1.5849345800234E-05,1.58203125,0,0
-2.27880100283073E-05,1.54598765220726E-05,1.58203125,0,0
-2.26959364226786E-05,1.50925998241291E-05,1.58203125,0,0
-2.36883315665182E-05,1.45955536936526E-05,1.58203125,0,0
-2.19829071284039E-05,1.1507787348819E-05,1.58203125,0,0
-2.32178063015454E-05,1.06486049844534E-05,1.58203125,0,0
-2.26382362598088E-05,1.27128496387741E-05,1.58203125,0,0
-2.31629874178907E-05,1.7599177226657E-05,1.58203125,0,0
-2.02845130843343E-05,1.98324960365426E-05,1.58203125,0,0
-2.00640279217623E-05,2.12009363167454E-05,1.58203125,0,0
-1.90710543392925E-05,2.06247950700345E-05,1.58203125,0,0
-1.97013996512396E-05,2.07462035177741E-05,1.58203125,0,0
-1.86840497917729E-05,2.11565165955108E-05,1.58203125,0,0
-1.85060180228902E-05,2.20334313780768E-05,1.58203125,0,0
-1.63557288033189E-05,2.1093006580486E-05,1.58203125,0,0
-1.47189348354004E-05,1.97747358470224E-05,1.58203125,0,0
-1.46463162309374E-05,1.8437687685946E-05,1.58203125,0,0
-1.60161926032742E-05,1.60787367349258E-05,1.58203125,0,0
-1.4317928616947E-05,6.80506082062493E-06,1.58203125,0,0
-2.08224391826661E-05,6.13231577517581E-06,1.58203125,0,0
-1.75376553670503E-05,3.9815213312977E-06,1.58203125,0,0
-2.36835821851855E-05,9.36800734052667E-06,1.58203125,0,0
-2.32700003834907E-05,6.85396207700251E-06,1.58203125,0,0
-2.63914189417847E-05,6.81891197018558E-06,1.58203125,0,0
-2.44819693762111E-05,5.61141405341914E-06,1.58203125,0,0
-2.40998197114095E-05,9.40096288104542E-06,1.58203125,0,0
-2.30067435040837E-05,1.21312350529479E-05,1.58203125,0,0
-2.3399439669447E-05,1.35488344312762E-05,1.58203125,0,0
-2.4300221411977E-05,1.35292912091245E-05,1.58203125,0,0
-2.44638249569107E-05,1.23232357509551E-05,1.58203125,0,0
-2.66658189502778E-05,1.15463553811423E-05,1.58203125,0,0
-2.80216736427974E-05,9.73627811617916E-06,1.58203125,0,0
-2.9619352062582E-05,9.27279234019807E-06,1.58203125,0,0
-2.80609328910941E-05,7.9069714047364E-06,1.58203125,0,0
-2.77792314591352E-05,7.87227963883197E-06,1.58203125,0,0
-2.72772940661525E-05,7.1049125835998E-06,1.58203125,0,0
-2.84663456113776E-05,7.34848799766041E-06,1.58203125,0,0
-2.68903950200183E-05,6.91130708219134E-06,1.58203125,0,0
-2.5138371711364E-05,8.08269578556065E-06,1.58203125,0,0
-2.31425565289101E-05,9.04490661923774E-06,1.58203125,0,0
-2.38921693380689E-05,1.01718424048158E-05,1.58203125,0,0
-2.49432559940033E-05,1.06539991975296E-05,1.58203125,0,0
-2.58471281995298E-05,1.28548135762685E-05,1.58203125,0,0
-2.59182652371237E-05,1.4110974916548E-05,1.58203125,0,0
-2.63583697233116E-05,1.43631650644238E-05,1.58203125,0,0
-2.19056018977426E-05,1.13013202280854E-05,1.58203125,0,0
-3.05119647237007E-05,1.55353009176906E-05,1.58203125,0,0
-2.06273944058921E-05,1.12249099402106E-05,1.58203125,0,0
-2.52488607657142E-05,1.40185284180916E-05,1.58203125,0,0
-2.24740342673613E-05,1.03894662970561E-05,1.58203125,0,0
-2.78360421361867E-05,1.09239708763198E-05,1.58203125,0,0
-2.71824101218954E-05,1.09179582068464E-05,1.58203125,0,0
-2.80441436188994E-05,1.4291451407189E-05,1.58203125,0,0
-2.55100003414555E-05,1.61591906362446E-05,1.58203125,0,0
-2.43685863097198E-05,1.66644949786132E-05,1.58203125,0,0
-2.38318316405639E-05,1.56050919031259E-05,1.58203125,0,0
-2.28070657612989E-05,1.34803203764022E-05,1.58203125,0,0
-2.48592205025489E-05,1.15699476737063E-05,1.58203125,0,0
-2.50534376391442E-05,7.29212615624419E-06,1.58203125,0,0
-2.62773064605426E-05,4.30911268267664E-06,1.58203125,0,0
-2.49142613029107E-05,2.58343561654328E-06,1.58203125,0,0
-2.70337059191661E-05,4.78027914141421E-06,1.58203125,0,0
-2.67647974396823E-05,7.06526179783395E-06,1.58203125,0,0
-2.7035734092351E-05,9.81749599304749E-06,1.58203125,0,0
-2.54250335274264E-05,9.16618228075095E-06,1.58203125,0,0
-2.73248806479387E-05,7.97415577835636E-06,1.58203125,0,0
-2.84541056316812E-05,8.26987343316432E-06,1.58203125,0,0
-2.94328365271213E-05,1.21496177598601E-05,1.58203125,0,0
-2.81025531876367E-05,1.55770721903536E-05,1.58203125,0,0
-2.64131012954749E-05,1.77556867129169E-05,1.58203125,0,0
-2.43364320340334E-05,1.6673919162713E-05,1.58203125,0,0
-2.41395082412055E-05,1.31211545522092E-05,1.58203125,0,0
-2.05684191314504E-05,9.68192671280121E-06,1.58203125,0,0
-2.8683645723504E-05,1.39860985655105E-05,1.58203125,0,0
-2.12660361285089E-05,9.98462564893998E-06,1.58203125,0,0
-2.66110018856125E-05,1.13893884190475E-05,1.58203125,0,0
-2.16703901969595E-05,8.88696013134904E-06,1.58203125,0,0
-2.35587995121023E-05,9.9704266176559E-06,1.58203125,0,0
-2.00702397705754E-05,9.5076557045104E-06,1.58203125,0,0
-2.11738752113888E-05,9.6562198450556E-06,1.58203125,0,0
-2.25608237087727E-05,8.57323902891949E-06,1.58203125,0,0
-2.41632478719112E-05,8.33552803669591E-06,1.58203125,0,0
-2.50328794209054E-05,9.39996880333638E-06,1.58203125,0,0
-2.48497199208941E-05,9.09163463802543E-06,1.58203125,0,0
-2.54173392022494E-05,7.22722097634687E-06,1.58203125,0,0
-2.21815935219638E-05,4.98950703331502E-06,1.58203125,0,0
-2.06608547159703E-05,6.47985370960669E-06,1.58203125,0,0
-1.80977258423809E-05,8.51002732815687E-06,1.58203125,0,0
-1.94792955880985E-05,1.08626954897773E-05,1.58203125,0,0
-1.91603321582079E-05,1.11364024633076E-05,1.58203125,0,0
-2.02684586838586E-05,1.25698707051924E-05,1.58203125,0,0
-1.94053609448019E-05,1.48384979183902E-05,1.58203125,0,0
-1.99994174181484E-05,1.69599352375371E-05,1.58203125,0,0
-1.89038073585834E-05,1.57523300003959E-05,1.58203125,0,0
-1.91066083061742E-05,1.46791726365336E-05,1.58203125,0,0
-1.86514735105447E-05,1.42022900035954E-05,1.58203125,0,0
-1.83552529051667E-05,1.2913530554215E-05,1.58203125,0,0
-1.7852184100775E-05,1.03879665402928E-05,1.58203125,0,0
-1.81457744474756E-05,8.90584669832606E-06,1.58203125,0,0
-1.69098384503741E-05,8.59116607898613E-06,1.58203125,0,0
-2.58081036008662E-05,1.57285830937326E-05,1.58203125,0,0
-2.14962328755064E-05,1.55968937178841E-05,1.58203125,0,0
-2.64375739789102E-05,1.58385919348802E-05,1.58203125,0,0
-2.40730059886118E-05,1.29435011331225E-05,1.58203125,0,0
-2.51888595812488E-05,1.49918914758018E-05,1.58203125,0,0
-2.29525867325719E-05,1.64679404406343E-05,1.58203125,0,0
-2.46693762164796E-05,1.66339796123793E-05,1.58203125,0,0
-2.46939671342261E-05,1.42627759487368E-05,1.58203125,0,0
-2.44654584093951E-05,1.24480538943317E-05,1.58203125,0,0
-2.55976883636322E-05,1.04446253317292E-05,1.58203125,0,0
-2.59064381680219E-05,6.43534895061748E-06,1.58203125,0,0
-2.63048787019216E-05,3.27748898598657E-06,1.58203125,0,0
-2.56439398071961E-05,2.74525609711418E-06,1.58203125,0,0
-2.77760318567744E-05,6.41149927105289E-06,1.58203125,0,0
-2.84888974420028E-05,1.03669326563249E-05,1.58203125,0,0
-2.93378016067436E-05,1.30767839436885E-05,1.58203125,0,0
-2.72104916803073E-05,1.16155433715903E-05,1.58203125,0,0
-2.61069035332184E-05,8.88764043338597E-06,1.58203125,0,0
-2.38374504988315E-05,7.13377175998176E-06,1.58203125,0,0
-2.40386107179802E-05,8.52236007631291E-06,1.58203125,0,0
-2.33121409110026E-05,9.54146707954351E-06,1.58203125,0,0
-2.30231471505249E-05,8.49829029903049E-06,1.58203125,0,0
-2.3247053832165E-05,6.4870923779381E-06,1.58203125,0,0
-2.37101321545197E-05,5.46186902283807E-06,1.58203125,0,0
-2.23287552216789E-05,4.06310118705733E-06,1.58203125,0,0
-2.07966404559556E-05,3.68310179510445E-06,1.58203125,0,0
-1.82473559107166E-05,3.40863698511384E-06,1.58203125,0,0
-2.73722325800918E-05,5.62324976272066E-06,1.58203125,0,0
-2.22494545596419E-05,5.34104265170754E-06,1.58203125,0,0
-2.66845945589012E-05,5.7556221690902E-06,1.58203125,0,0
-2.41247907979414E-05,3.68901851288683E-06,1.58203125,0,0
-2.7307600248605E-05,2.94583787763258E-06,1.58203125,0,0
-2.50962493737461E-05,3.12866677631973E-06,1.58203125,0,0
-2.57827687164536E-05,3.35180902766297E-06,1.58203125,0,0
-2.46144063567044E-05,1.54734095758613E-06,1.58203125,0,0
-2.45289975282503E-05,9.17315389870055E-07,1.58203125,0,0
-2.55939285125351E-05,2.69061183644226E-06,1.58203125,0,0
-2.60274100583047E-05,5.17796388521674E-06,1.58203125,0,0
-2.73250116151758E-05,5.34928994966322E-06,1.58203125,0,0
-2.63043693848886E-05,3.98674774260144E-06,1.58203125,0,0
-2.66197912424104E-05,5.38874337507878E-06,1.58203125,0,0
-2.60636807070114E-05,8.83508073457051E-06,1.58203125,0,0
-2.80666772596305E-05,1.15380025818013E-05,1.58203125,0,0
-2.70846339844866E-05,1.11475328594679E-05,1.58203125,0,0
-2.66934130195295E-05,1.08288131741574E-05,1.58203125,0,0
-2.46909694396891E-05,1.14538870548131E-05,1.58203125,0,0
-2.5485342121101E-05,1.2429349226295E-05,1.58203125,0,0
-2.65401995420689E-05,1.17532272270182E-05,1.58203125,0,0
-2.80364183709025E-05,1.10156061055022E-05,1.58203125,0,0
-2.67981777142268E-05,1.2927625903103E-05,1.58203125,0,0
-2.51670790021308E-05,1.59282826643903E-05,1.58203125,0,0
-2.42101941694273E-05,1.69216345966561E-05,1.58203125,0,0
-2.5142153390334E-05,1.53366909216857E-05,1.58203125,0,0
-2.15122909139609E-05,9.51563743001316E-06,1.58203125,0,0
-2.93889297608985E-05,1.31678134493995E-05,1.58203125,0,0
-2.0830777430092E-05,9.73435180640081E-06,1.58203125,0,0
-2.60342276305892E-05,1.19331634778064E-05,1.58203125,0,0
-2.13825351238484E-05,8.92088701220928E-06,1.58203125,0,0
-2.482408490323E-05,1.04895088952617E-05,1.58203125,0,0
-2.19723624468315E-05,1.02620733741787E-05,1.58203125,0,0
-2.27090622502146E-05,9.2294640126056E-06,1.58203125,0,0
-2.25007770495722E-05,2.71316298494639E-06,1.58203125,0,0
-2.40203971770825E-05,-2.87174520963163E-06,1.58203125,0,0
-2.56954754149774E-05,-2.1376447421062E-06,1.58203125,0,0
-2.46605104621267E-05,3.68017094842799E-06,1.58203125,0,0
-2.43520062213065E-05,1.0935556019831E-05,1.58203125,0,0
-2.17705110117095E-05,1.38739405883825E-05,1.58203125,0,0
-2.23770348384278E-05,1.52148477354785E-05,1.58203125,0,0
-2.18795048567699E-05,1.43636298162164E-05,1.58203125,0,0
-2.41278612520546E-05,1.42768822115613E-05,1.58203125,0,0
-2.41487814491848E-05,1.37699862534646E-05,1.58203125,0,0
-2.63574511336628E-05,1.51351305248681E-05,1.58203125,0,0
-2.55375816777814E-05,1.54960089275846E-05,1.58203125,0,0
-2.42016976699233E-05,1.49235929711722E-05,1.58203125,0,0
-2.07925913855433E-05,1.30399794215919E-05,1.58203125,0,0
-2.11733367905254E-05,1.40985075631761E-05,1.58203125,0,0
-2.30882396863308E-05,1.74391207110602E-05,1.58203125,0,0
-2.47201278398279E-05,2.06409713428002E-05,1.58203125,0,0
-2.4011929781409E-05,2.18711193156196E-05,1.58203125,0,0
-2.31980957323685E-05,2.14643732761033E-05,1.58203125,0,0
-1.86759589269059E-05,1.4824003301328E-05,1.58203125,0,0
-2.62246503552888E-05,2.03230265469756E-05,1.58203125,0,0
-1.97212357306853E-05,1.33915827973397E-05,1.58203125,0,0
-2.60978213191265E-05,1.27402272482868E-05,1.58203125,0,0
-2.39470991800772E-05,5.41337294635014E-06,1.58203125,0,0
-2.58604977716459E-05,7.54909206079901E-06,1.58203125,0,0
-2.3742844859953E-05,7.47576950743678E-06,1.58203125,0,0
-2.54697879427113E-05,1.14284875962767E-05,1.58203125,0,0
-2.50965094892308E-05,1.37524502861197E-05,1.58203125,0,0
-2.56750718108378E-05,1.58598413690925E-05,1.58203125,0,0
-2.61622299149167E-05,1.6824420526973E-05,1.58203125,0,0
-2.48434516834095E-05,1.58225957420655E-05,1.58203125,0,0
-2.46259205596289E-05,1.49887964653317E-05,1.58203125,0,0
-2.37095737247728E-05,1.25196565932129E-05,1.58203125,0,0
-2.5103172447416E-05,1.30941562019871E-05,1.58203125,0,0
-2.36469295487041E-05,1.31540919028339E-05,1.58203125,0,0
-2.40718054556055E-05,1.44571731652832E-05,1.58203125,0,0
-2.36331288760994E-05,1.38497671287041E-05,1.58203125,0,0
-2.56607982009882E-05,1.7494485291536E-05,1.58203125,0,0
-2.48902651946992E-05,2.21861009777058E-05,1.58203125,0,0
-2.38267602981068E-05,2.63319507212145E-05,1.58203125,0,0
-2.11987608054187E-05,2.65734142885776E-05,1.58203125,0,0
-2.02443279704312E-05,2.7215854061069E-05,1.58203125,0,0
-1.96710607269779E-05,2.64242116827518E-05,1.58203125,0,0
-2.03677409444936E-05,2.46130275627365E-05,1.58203125,0,0
-2.03115487238392E-05,2.26610918616643E-05,1.58203125,0,0
-2.04144289455144E-05,2.14320771192433E-05,1.58203125,0,0
-1.64889079314889E-05,1.53859255078714E-05,1.58203125,0,0
-2.35324132518144E-05,1.92361658264417E-05,1.58203125,0,0
-1.89364109246526E-05,1.00656134236488E-05,1.58203125,0,0
-2.4642919015605E-05,9.46834461501567E-06,1.58203125,0,0
-2.21023965423228E-05,-9.353070851148E-08,1.58203125,0,0
-2.40206809394294E-05,-3.33078742187354E-06,1.58203125,0,0
-2.13733273994876E-05,-9.0108760559815E-06,1.58203125,0,0
-2.14900683204178E-05,-7.56135386836831E-06,1.58203125,0,0
-2.05335982172983E-05,-3.95119059248827E-06,1.58203125,0,0
-2.12747399928048E-05,1.41321311275533E-06,1.58203125,0,0
-2.21018071897561E-05,5.19692002853844E-06,1.58203125,0,0
-2.1941821614746E-05,5.04645640830859E-06,1.58203125,0,0
-2.24781833821908E-05,4.73674299428239E-06,1.58203125,0,0
-2.13145722227637E-05,3.45875764651282E-06,1.58203125,0,0
-2.22471680899616E-05,5.90595891480916E-06,1.58203125,0,0
-2.16344051295891E-05,8.00135148892878E-06,1.58203125,0,0
-2.30501063924748E-05,1.07422010842129E-05,1.58203125,0,0
-2.28526314458577E-05,8.85838198882993E-06,1.58203125,0,0
-2.43715603573946E-05,7.37116988602793E-06,1.58203125,0,0
-2.42529058596119E-05,4.78138326798216E-06,1.58203125,0,0
-2.43038830376463E-05,4.51871073892107E-06,1.58203125,0,0
-2.27752407226944E-05,3.21339553011057E-06,1.58203125,0,0
-2.39283162954962E-05,1.39223868700356E-06,1.58203125,0,0
-2.47352072619833E-05,1.2390924553074E-07,1.58203125,0,0
-2.44519687839784E-05,3.57234830516973E-06,1.58203125,0,0
-2.30938094318844E-05,8.31543275126023E-06,1.58203125,0,0
-2.16889930015896E-05,1.08091198853799E-05,1.58203125,0,0
-1.73086918948684E-05,8.60267664393177E-06,1.58203125,0,0
-2.61365948972525E-05,1.16407081804937E-05,1.58203125,0,0
-2.28105363930808E-05,9.81743141892366E-06,1.58203125,0,0
-2.74936901405454E-05,1.46525389936869E-05,1.58203125,0,0
-2.35386432905216E-05,1.47249702422414E-05,1.58203125,0,0
-2.55408940574853E-05,1.74687629623804E-05,1.58203125,0,0
-2.22148628381547E-05,1.70919975062134E-05,1.58203125,0,0
-2.22403286898043E-05,1.620330294827E-05,1.58203125,0,0
-2.21035461436259E-05,1.36716325869202E-05,1.58203125,0,0
-2.24560699280119E-05,1.32329614643822E-05,1.58203125,0,0
-2.21524860535283E-05,1.39270205181674E-05,1.58203125,0,0
-2.2390977392206E-05,1.27579714899184E-05,1.58203125,0,0
-2.52464069490088E-05,1.09907023215783E-05,1.58203125,0,0
-2.52649369940627E-05,8.23808932182146E-06,1.58203125,0,0
-2.57774827332469E-05,7.82391452958109E-06,1.58203125,0,0
-2.49274271482136E-05,8.43021734908689E-06,1.58203125,0,0
-2.57975952990819E-05,9.94632046058541E-06,1.58203125,0,0
-2.33328773902031E-05,9.32648981688544E-06,1.58203125,0,0
-2.27954969886923E-05,1.06505103758536E-05,1.58203125,0,0
-2.26634947466664E-05,1.24115013022674E-05,1.58203125,0,0
-2.41689795075217E-05,1.31997276184848E-05,1.58203125,0,0
-2.3420439902111E-05,1.17503332148772E-05,1.58203125,0,0
-2.42487749346765E-05,1.14251906779828E-05,1.58203125,0,0
-2.49756703851745E-05,1.15551829367178E-05,1.58203125,0,0
-2.50458160735434E-05,1.13751602839329E-05,1.58203125,0,0
-2.39380660786992E-05,1.08322419691831E-05,1.58203125,0,0
-2.38619304582244E-05,1.06502402559272E-05,1.58203125,0,0
-2.16559037653496E-05,8.59144711284898E-06,1.58203125,0,0
-3.25995497405529E-05,1.16505625555874E-05,1.58203125,0,0
-2.56285657087574E-05,8.29041709948797E-06,1.58203125,0,0
-2.88191422441741E-05,9.60228862822987E-06,1.58203125,0,0
-2.34602757700486E-05,5.58161900698906E-06,1.58203125,0,0
-2.61225723079406E-05,5.09749634147738E-06,1.58203125,0,0
-2.48816741077462E-05,5.00118767376989E-06,1.58203125,0,0
-2.74438916676445E-05,8.50915512273787E-06,1.58203125,0,0
-2.68123694695532E-05,1.13380683615105E-05,1.58203125,0,0
-2.63080382865155E-05,1.2162637176516E-05,1.58203125,0,0
-2.63604160863906E-05,1.03214733826462E-05,1.58203125,0,0
-2.56183502642671E-05,6.52411608825787E-06,1.58203125,0,0
-2.63528036157368E-05,2.55882946476049E-06,1.58203125,0,0
-2.5280367481173E-05,-1.39548205879692E-07,1.58203125,0,0
-2.63152323896065E-05,1.84263046776323E-06,1.58203125,0,0
-2.45580013142899E-05,4.50695188192185E-06,1.58203125,0,0
-2.54472124652239E-05,6.64296157992794E-06,1.58203125,0,0
-2.48001961153932E-05,5.62140758120222E-06,1.58203125,0,0
-2.54236292676069E-05,5.39687061973382E-06,1.58203125,0,0
-2.33607825066429E-05,6.54807581668138E-06,1.58203125,0,0
-2.37692383961985E-05,1.05122326203855E-05,1.58203125,0,0
-2.43865761149209E-05,1.31291135403444E-05,1.58203125,0,0
-2.61517052422278E-05,1.3956344446342E-05,1.58203125,0,0
-2.57307128777029E-05,1.30891048684134E-05,1.58203125,0,0
-2.44792572630104E-05,1.20480081022833E-05,1.58203125,0,0
-2.30237674259115E-05,1.14549766294658E-05,1.58203125,0,0
-2.2925307348487E-05,1.26999257190619E-05,1.58203125,0,0
-1.94877484318567E-05,1.21200509966002E-05,1.58203125,0,0
-2.87057519017253E-05,1.72180971276248E-05,1.58203125,0,0
-2.23835195356514E-05,1.26265858853003E-05,1.58203125,0,0
-2.51118199230405E-05,1.47266746353125E-05,1.58203125,0,0
-1.92252937267767E-05,1.02434250948136E-05,1.58203125,0,0
-2.17079159483546E-05,1.04420341813238E-05,1.58203125,0,0
-2.14246538234875E-05,9.58201599132735E-06,1.58203125,0,0
-2.41611578530865E-05,1.1921926670766E-05,1.58203125,0,0
-2.32336060435046E-05,1.34067777253222E-05,1.58203125,0,0
-2.2907692255103E-05,1.3119474715495E-05,1.58203125,0,0
-2.39373948716093E-05,1.16802002594341E-05,1.58203125,0,0
-2.36716550716665E-05,1.08086060208734E-05,1.58203125,0,0
-2.31824633374345E-05,1.19625183288008E-05,1.58203125,0,0
-2.08108194783563E-05,1.16387909656623E-05,1.58203125,0,0
-2.12074464798206E-05,1.20471886475571E-05,1.58203125,0,0
-2.05041724257171E-05,9.71987628872739E-06,1.58203125,0,0
-2.26032625505468E-05,8.58553630678216E-06,1.58203125,0,0
-2.14842293644324E-05,7.99523149908055E-06,1.58203125,0,0
-2.09888712561224E-05,9.91193792287959E-06,1.58203125,0,0
-1.96490709640784E-05,1.11094386738841E-05,1.58203125,0,0
-2.06227832677541E-05,1.25794294945081E-05,1.58203125,0,0
-2.0117809981457E-05,1.24781399790663E-05,1.58203125,0,0
-2.09264126169728E-05,1.2666543625528E-05,1.58203125,0,0
-2.14606643567095E-05,1.2461370715755E-05,1.58203125,0,0
-2.31075100600719E-05,1.19648411782691E-05,1.58203125,0,0
-2.48849810304819E-05,1.12925663415808E-05,1.58203125,0,0
-2.62600278801983E-05,1.13303367470508E-05,1.58203125,0,0
-2.1516249034903E-05,8.72108194016619E-06,1.58203125,0,0
-3.09652787109371E-05,1.39584235512302E-05,1.58203125,0,0
-2.28677163249813E-05,1.61606621986721E-05,1.58203125,0,0
-2.64851933025057E-05,2.23353181354469E-05,1.58203125,0,0
-2.17617252928903E-05,2.01363836822566E-05,1.58203125,0,0
-2.61390250670956E-05,1.92332445294596E-05,1.58203125,0,0
-2.49122276727576E-05,1.51159938468481E-05,1.58203125,0,0
-2.5578296117601E-05,1.45330213854322E-05,1.58203125,0,0
-2.33991249842802E-05,1.56975438585505E-05,1.58203125,0,0
-2.27935506700305E-05,1.73554417415289E-05,1.58203125,0,0
-2.43316899286583E-05,1.80046445166226E-05,1.58203125,0,0
-2.48740834649652E-05,1.45239018820575E-05,1.58203125,0,0
-2.63747715507634E-05,7.84219082561322E-06,1.58203125,0,0
-2.69454903900623E-05,2.92277127300622E-06,1.58203125,0,0
-3.03635388263501E-05,6.32928140475997E-06,1.58203125,0,0
-2.97315582429292E-05,1.328722191829E-05,1.58203125,0,0
-2.85679761873325E-05,1.96188466361491E-05,1.58203125,0,0
-2.50025696004741E-05,1.99630921997596E-05,1.58203125,0,0
-2.56959956459468E-05,1.68411843333161E-05,1.58203125,0,0
-2.62538578681415E-05,1.28077044792008E-05,1.58203125,0,0
-2.83079862128943E-05,1.18571642815368E-05,1.58203125,0,0
-2.75642632914241E-05,1.00147071862011E-05,1.58203125,0,0
-2.68034455075394E-05,7.96188760432415E-06,1.58203125,0,0
-2.5217388611054E-05,6.87336569171748E-06,1.58203125,0,0
-2.48554479185259E-05,7.22841105016414E-06,1.58203125,0,0
-2.40639292314881E-05,7.5857146839553E-06,1.58203125,0,0
-2.34617709793383E-05,8.25395181891508E-06,1.58203125,0,0
-1.90738028322812E-05,7.90564627095591E-06,1.58203125,0,0
-2.81317225017119E-05,1.27927241919679E-05,1.58203125,0,0
-2.3199283532449E-05,1.17396693894989E-05,1.58203125,0,0
-2.76695482170908E-05,1.27851672004908E-05,1.58203125,0,0
-2.16658645513235E-05,9.06500736164162E-06,1.58203125,0,0
-2.24464438360883E-05,8.36852268548682E-06,1.58203125,0,0
-1.89489492186112E-05,7.87882709119003E-06,1.58203125,0,0
-1.93678242794704E-05,9.52298432821408E-06,1.58203125,0,0
-1.88735411938978E-05,8.91016225068597E-06,1.58203125,0,0
-1.93149098777212E-05,9.02636293176329E-06,1.58203125,0,0
-2.1045312678325E-05,1.19081014418043E-05,1.58203125,0,0
-2.17869910557056E-05,1.44474652188364E-05,1.58203125,0,0
-2.34089220612077E-05,1.48043473018333E-05,1.58203125,0,0
-2.25564108404797E-05,1.14601853056229E-05,1.58203125,0,0
-2.26528500206769E-05,8.69232098921202E-06,1.58203125,0,0
-2.10764665098395E-05,6.17707155470271E-06,1.58203125,0,0
-2.32101028814213E-05,5.19219884154154E-06,1.58203125,0,0
-2.4109296646202E-05,5.19171999258106E-06,1.58203125,0,0
-2.55289323831676E-05,6.64808840156184E-06,1.58203125,0,0
-2.38860211538849E-05,7.13413282937836E-06,1.58203125,0,0
-2.34235994867049E-05,9.07197681954131E-06,1.58203125,0,0
-2.24751893256325E-05,1.1242103028053E-05,1.58203125,0,0
-2.32944676099578E-05,1.35771797431516E-05,1.58203125,0,0
-2.38626616919646E-05,1.56078313011676E-05,1.58203125,0,0
-2.46689978666836E-05,1.63500499184011E-05,1.58203125,0,0
-2.40442932408769E-05,1.40943839141983E-05,1.58203125,0,0
-2.31822887144517E-05,7.98180553829297E-06,1.58203125,0,0
-1.94823805941269E-05,1.24740142837254E-06,1.58203125,0,0
-2.81843549601035E-05,2.90663615487574E-06,1.58203125,0,0
-2.12365612242138E-05,5.97076632402604E-06,1.58203125,0,0
-2.56506446021376E-05,9.02758165466366E-06,1.58203125,0,0
-2.18170116568217E-05,9.84672169579426E-06,1.58203125,0,0
-2.4307131752721E-05,1.06168854472344E-05,1.58203125,0,0
-2.34030394494766E-05,9.85581573331729E-06,1.58203125,0,0
-2.56860730587505E-05,9.74468912318116E-06,1.58203125,0,0
-2.46742984018056E-05,1.14962385850959E-05,1.58203125,0,0
-2.31333779083798E-05,1.41240234370343E-05,1.58203125,0,0
-2.21718346438138E-05,1.5499292203458E-05,1.58203125,0,0
-2.16358475881862E-05,1.52413413161412E-05,1.58203125,0,0
-2.28369208343793E-05,1.45201101986459E-05,1.58203125,0,0
-2.22152939386433E-05,1.36093085529865E-05,1.58203125,0,0
-2.3634172976017E-05,1.42926655826159E-05,1.58203125,0,0
-2.23278821067652E-05,1.69486447703093E-05,1.58203125,0,0
-2.18131372093922E-05,1.95968113985145E-05,1.58203125,0,0
-1.87494733836502E-05,1.98353100131499E-05,1.58203125,0,0
-1.76242338056909E-05,1.8499733414501E-05,1.58203125,0,0
-1.55214784172131E-05,1.73099761013873E-05,1.58203125,0,0
-1.68921269505518E-05,1.73763055499876E-05,1.58203125,0,0
-1.88992562470958E-05,1.72116579051362E-05,1.58203125,0,0
-2.00334325199947E-05,1.48041917782393E-05,1.58203125,0,0
-1.80883162101964E-05,1.26508593893959E-05,1.58203125,0,0
-1.81160121428547E-05,1.31153783513582E-05,1.58203125,0,0
-1.94142594409641E-05,1.2541128853627E-05,1.58203125,0,0
-1.96260498341871E-05,9.34332820179407E-06,1.58203125,0,0
-1.51372641994385E-05,2.5721346901264E-06,1.58203125,0,0
-2.26401098188944E-05,6.70197664476291E-07,1.58203125,0,0
-1.92499210243113E-05,-8.48823390242615E-07,1.58203125,0,0
-2.30390523938695E-05,4.96193797516753E-06,1.58203125,0,0
-2.01354523596819E-05,8.83626216818811E-06,1.58203125,0,0
-2.28958288062131E-05,1.28154879348585E-05,1.58203125,0,0
-2.21893915295368E-05,1.41990230986266E-05,1.58203125,0,0
-2.45100709435064E-05,1.51207796079689E-05,1.58203125,0,0
-2.43585291173076E-05,1.48387371154968E-05,1.58203125,0,0
-2.48337782977615E-05,1.4789182387176E-05,1.58203125,0,0
-2.61558579950361E-05,1.4352713151311E-05,1.58203125,0,0
-2.60978213191265E-05,1.36299322548439E-05,1.58203125,0,0
-2.57455831160769E-05,1.28880701595335E-05,1.58203125,0,0
-2.42850182985421E-05,1.25713140732842E-05,1.58203125,0,0
-2.54832721111597E-05,1.44204805110348E-05,1.58203125,0,0
-2.54787155427039E-05,1.57032900460763E-05,1.58203125,0,0
-2.67577743215952E-05,1.52335887833033E-05,1.58203125,0,0
-2.61727691395208E-05,1.32340064737946E-05,1.58203125,0,0
-2.76949776889523E-05,1.2712425814243E-05,1.58203125,0,0
-2.79931537079392E-05,1.2274874279683E-05,1.58203125,0,0
-2.84693978755968E-05,1.11043718789006E-05,1.58203125,0,0
-2.70510936388746E-05,7.15920941729564E-06,1.58203125,0,0
-2.68069215962896E-05,2.6674053970055E-06,1.58203125,0,0
-2.69298216153402E-05,1.41138161779963E-06,1.58203125,0,0
-2.81333850580268E-05,6.35619426248013E-06,1.58203125,0,0
-2.88699338852894E-05,1.1805493159045E-05,1.58203125,0,0
-2.85418027488049E-05,1.2010019418085E-05,1.58203125,0,0
-2.31453977903584E-05,5.69931808058755E-06,1.58203125,0,0
-3.22374871757347E-05,6.04544220550451E-06,1.58203125,0,0
-2.28578046517214E-05,3.4963720736414E-06,1.58203125,0,0
-2.79605774267111E-05,6.51171421850449E-06,1.58203125,0,0
-2.2839547455078E-05,5.2470668379101E-06,1.58203125,0,0
-2.59201169683365E-05,7.57622456148965E-06,1.58203125,0,0
-2.35065581364324E-05,8.17510772321839E-06,1.58203125,0,0
-2.46154668275267E-05,8.50233664095867E-06,1.58203125,0,0
-2.41141569858883E-05,7.15167061571265E-06,1.58203125,0,0
-2.49922231887467E-05,7.24891424397356E-06,1.58203125,0,0
-2.63352303591091E-05,8.50948435981991E-06,1.58203125,0,0
-2.60133001575014E-05,1.01000059657963E-05,1.58203125,0,0
-2.58190393651603E-05,1.17992158266134E-05,1.58203125,0,0
-2.24148425331805E-05,1.21015964396065E-05,1.58203125,0,0
-2.22395356104244E-05,1.30541529870243E-05,1.58203125,0,0
-2.12637824006379E-05,1.29164636746282E-05,1.58203125,0,0
-2.36827727349009E-05,1.23722775242641E-05,1.58203125,0,0
-2.33934115385637E-05,1.00742718132096E-05,1.58203125,0,0
-2.43677895923611E-05,9.59325734584127E-06,1.58203125,0,0
-2.30252917390317E-05,9.77487889031181E-06,1.58203125,0,0
-2.42580335907405E-05,1.04578948594281E-05,1.58203125,0,0
-2.39414603129262E-05,1.06624956970336E-05,1.58203125,0,0
-2.40980753005715E-05,1.20919821711141E-05,1.58203125,0,0
-2.37643562286394E-05,1.34477459141635E-05,1.58203125,0,0
-2.60521883319598E-05,1.57402500917669E-05,1.58203125,0,0
-2.85344503936358E-05,1.6734134987928E-05,1.58203125,0,0
-2.9087757866364E-05,1.63629538292298E-05,1.58203125,0,0
-2.32930815400323E-05,1.33241128423833E-05,1.58203125,0,0
-3.28158093907405E-05,1.68769674928626E-05,1.58203125,0,0
-2.40919689531438E-05,9.99349595076637E-06,1.58203125,0,0
-2.93418743240181E-05,1.38963323479402E-05,1.58203125,0,0
-2.4617374947411E-05,1.23224108392606E-05,1.58203125,0,0
-2.80245858448325E-05,1.61121442943113E-05,1.58203125,0,0
-2.59827484114794E-05,1.54084427776979E-05,1.58203125,0,0
-2.84938651020639E-05,1.4988338080002E-05,1.58203125,0,0
-2.90643092739629E-05,1.33550020109396E-05,1.58203125,0,0
-3.00364463328151E-05,1.36032531372621E-05,1.58203125,0,0
-2.96100679406663E-05,1.37660517793847E-05,1.58203125,0,0
-2.7667620088323E-05,1.21622369988472E-05,1.58203125,0,0
-2.82490891549969E-05,1.20603608593228E-05,1.58203125,0,0
-2.66506685875356E-05,1.23274367069826E-05,1.58203125,0,0
-2.68236999545479E-05,1.45919684655382E-05,1.58203125,0,0
-2.5202500182786E-05,1.47794189615524E-05,1.58203125,0,0
-2.78045426966855E-05,1.63073036674177E-05,1.58203125,0,0
-2.79557334579295E-05,1.66298887052108E-05,1.58203125,0,0
-2.93672674160916E-05,1.81385566975223E-05,1.58203125,0,0
-2.73189671133878E-05,1.72871550603304E-05,1.58203125,0,0
-2.60415217780974E-05,1.7385520550306E-05,1.58203125,0,0
-2.47345105890417E-05,1.69626982824411E-05,1.58203125,0,0
-2.72933175438084E-05,1.66477966558887E-05,1.58203125,0,0
-2.84890320472186E-05,1.48621438711416E-05,1.58203125,0,0
-2.86461636278545E-05,1.19944588732324E-05,1.58203125,0,0
-2.8077682145522E-05,8.06786192697473E-06,1.58203125,0,0
-2.67549494310515E-05,6.37052926322212E-06,1.58203125,0,0
-2.08546425710665E-05,4.24638892582152E-06,1.58203125,0,0
-3.0636103474535E-05,4.79033815281582E-06,1.58203125,0,0
-2.46218442043755E-05,2.24554128180898E-06,1.58203125,0,0
-2.85616606561234E-05,1.55506916144077E-06,1.58203125,0,0
-2.23292972805211E-05,-2.30951332014229E-06,1.58203125,0,0
-2.54216320172418E-05,-3.53889936377527E-06,1.58203125,0,0
-2.49757795245387E-05,-3.15030706588004E-06,1.58203125,0,0
-2.70545042440062E-05,3.18463048643025E-06,1.58203125,0,0
-2.63212896243203E-05,1.06581401269068E-05,1.58203125,0,0
-2.62720222963253E-05,1.47851251313114E-05,1.58203125,0,0
-2.55798076977953E-05,1.41143036671565E-05,1.58203125,0,0
-2.30862260650611E-05,1.05588715086924E-05,1.58203125,0,0
-2.27787750191055E-05,8.70332951308228E-06,1.58203125,0,0
-2.11294027394615E-05,8.3201884990558E-06,1.58203125,0,0
-2.21895261347527E-05,8.31368561193813E-06,1.58203125,0,0
-2.10614434763556E-05,7.55117707740283E-06,1.58203125,0,0
-2.17196375160711E-05,9.16764201974729E-06,1.58203125,0,0
-2.00594204216031E-05,1.22472074508551E-05,1.58203125,0,0
-2.02029350475641E-05,1.54372646647971E-05,1.58203125,0,0
-1.86079159902874E-05,1.57735230459366E-05,1.58203125,0,0
-1.96223809325602E-05,1.44097393786069E-05,1.58203125,0,0
-2.06336171686416E-05,1.2236982001923E-05,1.58203125,0,0
-2.29985162150115E-05,1.03782258520368E-05,1.58203125,0,0
-2.33662594837369E-05,7.8384364314843E-06,1.58203125,0,0
-2.35621773754247E-05,6.34145044386969E-06,1.58203125,0,0
-2.47976549871964E-05,7.97145912656561E-06,1.58203125,0,0
-2.60271790466504E-05,1.04990322142839E-05,1.58203125,0,0
-1.93406813195907E-05,8.3032055044896E-06,1.58203125,0,0
-2.61584955296712E-05,1.0622833542584E-05,1.58203125,0,0
-1.89118727575988E-05,7.27700808056397E-06,1.58203125,0,0
-2.5109027774306E-05,1.02166604847298E-05,1.58203125,0,0
-2.26008578465553E-05,8.91223317012191E-06,1.58203125,0,0
-2.68756521109026E-05,1.09706406874466E-05,1.58203125,0,0
-2.52386344072875E-05,9.79386641120072E-06,1.58203125,0,0
-2.63683068624232E-05,9.238334314432E-06,1.58203125,0,0
-2.46924555540318E-05,9.31713657337241E-06,1.58203125,0,0
-2.36978539760457E-05,1.0414007192594E-05,1.58203125,0,0
-2.39929740928346E-05,9.5112454800983E-06,1.58203125,0,0
-2.39829769270727E-05,6.66757841827348E-06,1.58203125,0,0
-2.47336156462552E-05,4.63209607914905E-06,1.58203125,0,0
-2.34127055591671E-05,3.86590818379773E-06,1.58203125,0,0
-2.39920937019633E-05,6.6096449700126E-06,1.58203125,0,0
-2.17484393942868E-05,9.73192345554708E-06,1.58203125,0,0
-2.17816195799969E-05,1.32116756503819E-05,1.58203125,0,0
-2.09670561162056E-05,1.3593137737189E-05,1.58203125,0,0
-2.35285460803425E-05,1.29784166347235E-05,1.58203125,0,0
-2.41200614254922E-05,1.18713442134322E-05,1.58203125,0,0
-2.50302709901007E-05,1.24944854178466E-05,1.58203125,0,0
-2.3849037461332E-05,1.14022559500881E-05,1.58203125,0,0
-2.43864160438534E-05,1.06550323835108E-05,1.58203125,0,0
-2.35953593801241E-05,1.02486792457057E-05,1.58203125,0,0
-2.2208905647858E-05,9.74559043243062E-06,1.58203125,0,0
-2.17516007978702E-05,9.81095763563644E-06,1.58203125,0,0
-2.27267009904608E-05,1.08506783362827E-05,1.58203125,0,0
-1.89389193110401E-05,8.85592817212455E-06,1.58203125,0,0
-2.55675040534697E-05,1.09928942038096E-05,1.58203125,0,0
-1.68378101079725E-05,4.2676933844632E-06,1.58203125,0,0
-2.11187816603342E-05,3.65598543794476E-06,1.58203125,0,0
-1.85690405487549E-05,6.53759570923285E-07,1.58203125,0,0
-2.19094708882039E-05,1.89026275165816E-06,1.58203125,0,0
-1.88531193998642E-05,3.13868031298625E-06,1.58203125,0,0
-1.95019911188865E-05,7.73489045968745E-06,1.58203125,0,0
-1.97062472580001E-05,1.04735281638568E-05,1.58203125,0,0
-2.06238273676718E-05,1.15557886601891E-05,1.58203125,0,0
-2.15755990211619E-05,1.2929007425555E-05,1.58203125,0,0
-2.14574774872744E-05,1.39258972922107E-05,1.58203125,0,0
-2.25144303840352E-05,1.42047510962584E-05,1.58203125,0,0
-2.15813706745394E-05,1.15413704406819E-05,1.58203125,0,0
-2.2585116312257E-05,8.76642479852308E-06,1.58203125,0,0
-2.20451438508462E-05,5.8648352023738E-06,1.58203125,0,0
-2.39155360759469E-05,6.22505467617884E-06,1.58203125,0,0
-2.27992823056411E-05,7.61809405958047E-06,1.58203125,0,0
-2.31004596571438E-05,8.65305992192589E-06,1.58203125,0,0
-2.29005108849378E-05,6.75452656651032E-06,1.58203125,0,0
-2.39229157159571E-05,5.84133522352204E-06,1.58203125,0,0
-2.28639855777146E-05,6.29090664006071E-06,1.58203125,0,0
-2.37050226132851E-05,8.92062053026166E-06,1.58203125,0,0
-2.30774494411889E-05,1.14030863187509E-05,1.58203125,0,0
-2.25398616748862E-05,1.15608054329641E-05,1.58203125,0,0
-2.22744329221314E-05,1.14344466055627E-05,1.58203125,0,0
-2.14281408261741E-05,1.33124322019285E-05,1.58203125,0,0
-1.62168889801251E-05,1.22626734082587E-05,1.58203125,0,0
-2.26192369154887E-05,1.85899953066837E-05,1.58203125,0,0
-1.58532038767589E-05,1.60142772074323E-05,1.58203125,0,0
-1.84723630809458E-05,1.85191966011189E-05,1.58203125,0,0
-1.48130511661293E-05,1.4088471289142E-05,1.58203125,0,0
-1.84411837835796E-05,1.32307723106351E-05,1.58203125,0,0
-1.7734195353114E-05,9.00900522537995E-06,1.58203125,0,0
-1.83770007424755E-05,9.14705105969915E-06,1.58203125,0,0
-1.85197295650141E-05,1.09793354567955E-05,1.58203125,0,0
-1.95114116650075E-05,1.3000967555854E-05,1.58203125,0,0
-1.90974787983578E-05,1.35755981318653E-05,1.58203125,0,0
-1.77534875547281E-05,1.26972436191863E-05,1.58203125,0,0
-1.9526536561898E-05,1.27194116430474E-05,1.58203125,0,0
-2.10344824154163E-05,1.34956580950529E-05,1.58203125,0,0
-2.20921010622988E-05,1.77445908775553E-05,1.58203125,0,0
-1.96451910596807E-05,1.9906583474949E-05,1.58203125,0,0
-2.00873291760217E-05,2.1072704839753E-05,1.58203125,0,0
-2.11659444175893E-05,1.852611603681E-05,1.58203125,0,0
-2.37439435295528E-05,1.57721369760111E-05,1.58203125,0,0
-2.32333986787125E-05,1.32150580611778E-05,1.58203125,0,0
-2.37211825151462E-05,1.31293827507761E-05,1.58203125,0,0
-2.39687378780218E-05,1.27336898003705E-05,1.58203125,0,0
-2.42229016294004E-05,1.39614548970712E-05,1.58203125,0,0
-2.15481995837763E-05,1.53937580762431E-05,1.58203125,0,0
-1.99502737814328E-05,1.49856987263774E-05,1.58203125,0,0
-1.99064506887225E-05,1.18740572361276E-05,1.58203125,0,0
-2.04393363674171E-05,8.0449699453311E-06,1.58203125,0,0
-1.71656320162583E-05,-3.91300460478305E-07,1.58203125,0,0
-2.48972392000724E-05,-7.5638076850737E-06,1.58203125,0,0
-2.02448918571463E-05,-1.0548186764936E-05,1.58203125,0,0
-2.50389130087569E-05,-3.5174568893126E-06,1.58203125,0,0
-2.05388223548653E-05,1.9853482626786E-06,1.58203125,0,0
-2.22677408601157E-05,6.96051847626222E-06,1.58203125,0,0
-2.20946367335273E-05,8.51722234074259E-06,1.58203125,0,0
-2.62321191257797E-05,9.67285632214043E-06,1.58203125,0,0
-2.77428498520749E-05,9.9150711321272E-06,1.58203125,0,0
-2.8304135412327E-05,1.01266614365159E-05,1.58203125,0,0
-2.86672038782854E-05,1.01588366305805E-05,1.58203125,0,0
-2.85355290543521E-05,9.36470132728573E-06,1.58203125,0,0
-2.90838088403689E-05,9.73616806732025E-06,1.58203125,0,0
-2.72925426543225E-05,1.08667836684617E-05,1.58203125,0,0
-2.92886907118373E-05,1.26117447507568E-05,1.58203125,0,0
-3.169642877765E-05,1.22088513307972E-05,1.58203125,0,0
-3.45430598827079E-05,1.1741184607672E-05,1.58203125,0,0
-3.2362702768296E-05,1.28735609905561E-05,1.58203125,0,0
-3.05746325466316E-05,1.56593596329913E-05,1.58203125,0,0
-2.80736294371309E-05,1.73909465956967E-05,1.58203125,0,0
-2.89236613753019E-05,1.7589796698303E-05,1.58203125,0,0
-3.03439610433998E-05,1.73564603755949E-05,1.58203125,0,0
-3.19437131111044E-05,1.84182190423599E-05,1.58203125,0,0
-3.19177670462523E-05,1.93141568161082E-05,1.58203125,0,0
-3.33221541950479E-05,2.00724425667431E-05,1.58203125,0,0
-3.37311139446683E-05,1.98944071598817E-05,1.58203125,0,0
-3.25136752508115E-05,1.76414159795968E-05,1.58203125,0,0
-2.5174580514431E-05,1.12826983240666E-05,1.58203125,0,0
-3.47610002791043E-05,1.66087975230766E-05,1.58203125,0,0
-2.43540725932689E-05,1.5259289284586E-05,1.58203125,0,0
-3.05801477225032E-05,1.88922203960828E-05,1.58203125,0,0
-2.52125319093466E-05,1.31512051666505E-05,1.58203125,0,0
-2.82068394881208E-05,1.20351087389281E-05,1.58203125,0,0
-2.540940840845E-05,7.76676370151108E-06,1.58203125,0,0
-2.70053424173966E-05,5.51470338905347E-06,1.58203125,0,0
-2.54695933108451E-05,6.45357022222015E-06,1.58203125,0,0
-2.37451786233578E-05,1.07681171357399E-05,1.58203125,0,0
-2.30326513701584E-05,1.22991850730614E-05,1.58203125,0,0
-2.27494474529522E-05,1.07798787212232E-05,1.58203125,0,0
-2.53613234235672E-05,1.06623738247436E-05,1.58203125,0,0
-2.48077012656722E-05,1.21093844427378E-05,1.58203125,0,0
-2.52802146860631E-05,1.62629257829394E-05,1.58203125,0,0
-2.28293483814923E-05,1.70350831467658E-05,1.58203125,0,0
-2.39273631450487E-05,1.68641799973557E-05,1.58203125,0,0
-2.29239121836144E-05,1.45373469422339E-05,1.58203125,0,0
-2.41294455918251E-05,1.22383471534704E-05,1.58203125,0,0
-2.30335972446483E-05,7.7937547757756E-06,1.58203125,0,0
-2.47931347985286E-05,4.39095174442627E-06,1.58203125,0,0
-2.61572840827284E-05,1.85783937922679E-06,1.58203125,0,0
-2.83663157460978E-05,2.98237409879221E-06,1.58203125,0,0
-2.5648978407844E-05,6.76879335514968E-06,1.58203125,0,0
-2.18953646253794E-05,1.22763549370575E-05,1.58203125,0,0
-2.11838905670447E-05,1.39244220918044E-05,1.58203125,0,0
-2.33063874475192E-05,1.12332290882478E-05,1.58203125,0,0
-2.0848739950452E-05,6.40988491795724E-06,1.58203125,0,0
-2.95884474326158E-05,8.69162795424927E-06,1.58203125,0,0
-2.14468909689458E-05,7.88518991612364E-06,1.58203125,0,0
-2.55203394772252E-05,1.22588508020272E-05,1.58203125,0,0
-2.19323374039959E-05,1.09493521449622E-05,1.58203125,0,0
-2.65733197011286E-05,1.10808487079339E-05,1.58203125,0,0
-2.61825425695861E-05,1.07766609289683E-05,1.58203125,0,0
-2.8543263397296E-05,1.27268840515171E-05,1.58203125,0,0
-2.80241256405134E-05,1.43621937240823E-05,1.58203125,0,0
-2.77484141406603E-05,1.34395359054906E-05,1.58203125,0,0
-2.83029803540558E-05,9.66507377597736E-06,1.58203125,0,0
-2.79063042398775E-05,6.4704213400546E-06,1.58203125,0,0
-2.73802925221389E-05,7.66354969528038E-06,1.58203125,0,0
-2.39633063756628E-05,1.01781879493501E-05,1.58203125,0,0
-2.36486066569341E-05,1.15500824904302E-05,1.58203125,0,0
-2.24629620788619E-05,9.65858180279611E-06,1.58203125,0,0
-2.4392355044256E-05,8.87756959855324E-06,1.58203125,0,0
-2.39337095990777E-05,8.95249377208529E-06,1.58203125,0,0
-2.52460995397996E-05,8.54411337058991E-06,1.58203125,0,0
-2.44343173108064E-05,5.95598748986959E-06,1.58203125,0,0
-2.39136425079778E-05,4.63891092294944E-06,1.58203125,0,0
-2.1884859961574E-05,4.57074975201976E-06,1.58203125,0,0
-2.28050175792305E-05,6.2064609664958E-06,1.58203125,0,0
-2.39333767240169E-05,8.08517870609649E-06,1.58203125,0,0
-2.52245699812192E-05,1.04993332570302E-05,1.58203125,0,0
-2.45519640884595E-05,1.26733457364026E-05,1.58203125,0,0
-2.41227189690107E-05,1.29622876556823E-05,1.58203125,0,0
-2.07014090847224E-05,9.38264747674111E-06,1.58203125,0,0
-2.95381978503428E-05,1.28391857288079E-05,1.58203125,0,0
-2.16048065340146E-05,9.14683823793894E-06,1.58203125,0,0
-2.55656377703417E-05,1.41340933623724E-05,1.58203125,0,0
-2.14456649700878E-05,1.57873691932764E-05,1.58203125,0,0
-2.46299368882319E-05,1.87132391147316E-05,1.58203125,0,0
-2.23696242755977E-05,1.86591241799761E-05,1.58203125,0,0
-2.33329592447262E-05,1.9955030438723E-05,1.58203125,0,0
-2.15881518670358E-05,1.98090474441415E-05,1.58203125,0,0
-2.16727639781311E-05,1.88552712643286E-05,1.58203125,0,0
-2.46328381763306E-05,1.74065080500441E-05,1.58203125,0,0
-2.69686770479893E-05,1.64553021022584E-05,1.58203125,0,0
-2.90150856017135E-05,1.63647418958135E-05,1.58203125,0,0
-2.70770815404831E-05,1.32549794216175E-05,1.58203125,0,0
-2.54931692325044E-05,9.23252537177177E-06,1.58203125,0,0
-2.10717826121254E-05,5.88067223361577E-06,1.58203125,0,0
-2.01249349629506E-05,7.2135153459385E-06,1.58203125,0,0
-1.92727984540397E-05,1.16481332952389E-05,1.58203125,0,0
-2.1405134248198E-05,1.7868384020403E-05,1.58203125,0,0
-2.01931288756896E-05,1.9598810467869E-05,1.58203125,0,0
-1.87209698196966E-05,1.85266326298006E-05,1.58203125,0,0
-1.63693293870892E-05,1.64002376550343E-05,1.58203125,0,0
-1.71611300174845E-05,1.5029487258289E-05,1.58203125,0,0
-1.99422102014069E-05,1.41522132253158E-05,1.58203125,0,0
-2.41596608248074E-05,1.64229732035892E-05,1.58203125,0,0
-2.43743834289489E-05,2.05269916477846E-05,1.58203125,0,0
-2.2028514649719E-05,2.13299099414144E-05,1.58203125,0,0
-1.63573604368139E-05,1.45575158967404E-05,1.58203125,0,0
-2.38612228713464E-05,1.91389881365467E-05,1.58203125,0,0
-1.94286385521991E-05,1.38593568408396E-05,1.58203125,0,0
-2.36532268900191E-05,1.90299197129207E-05,1.58203125,0,0
-2.07731500267982E-05,1.59024220920401E-05,1.58203125,0,0
-2.47281168412883E-05,1.73817534232512E-05,1.58203125,0,0
-2.48431497311685E-05,1.31650531329797E-05,1.58203125,0,0
-2.63536221609684E-05,1.06439001683611E-05,1.58203125,0,0
-2.37072654272197E-05,7.67876463214634E-06,1.58203125,0,0
-2.13515231735073E-05,9.00014492799528E-06,1.58203125,0,0
-1.98796969925752E-05,1.20895911095431E-05,1.58203125,0,0
-1.81501200131606E-05,1.01647137853433E-05,1.58203125,0,0
-1.8502212697058E-05,6.47579827273148E-06,1.58203125,0,0
-1.81411633093376E-05,3.21140214509796E-06,1.58203125,0,0
-2.00114591279998E-05,3.1894123821985E-06,1.58203125,0,0
-2.08964374905918E-05,2.35514789892477E-06,1.58203125,0,0
-2.38191278185695E-05,5.45090188097674E-06,1.58203125,0,0
-2.3505726858275E-05,8.55094003782142E-06,1.58203125,0,0
-2.2873011403135E-05,1.18484695121879E-05,1.58203125,0,0
-2.03665149456356E-05,1.18862890303717E-05,1.58203125,0,0
-2.07164230232593E-05,1.25627611851087E-05,1.58203125,0,0
-2.23493407247588E-05,1.18801372082089E-05,1.58203125,0,0
-2.60415745287901E-05,1.16726741907769E-05,1.58203125,0,0
-2.82526798400795E-05,1.06178695205017E-05,1.58203125,0,0
-2.96765265375143E-05,1.24886337289354E-05,1.58203125,0,0
-2.91827273031231E-05,1.46120255521964E-05,1.58203125,0,0
-2.7399535611039E-05,1.53092660184484E-05,1.58203125,0,0
-2.19229223148432E-05,1.26726126836729E-05,1.58203125,0,0
-3.11513758788351E-05,1.70649364008568E-05,1.58203125,0,0
-2.27390228246804E-05,1.02407957456307E-05,1.58203125,0,0
-2.58548425335903E-05,1.30497082864167E-05,1.58203125,0,0
-1.87073310371488E-05,1.15182674562675E-05,1.58203125,0,0
-2.14271294680657E-05,1.21394768939354E-05,1.58203125,0,0
-2.08261044463143E-05,7.78829871705966E-06,1.58203125,0,0
-2.35813331528334E-05,4.69583847007016E-06,1.58203125,0,0
-2.31570302275941E-05,1.30894727590203E-06,1.58203125,0,0
-2.30521272897022E-05,-2.16481066672714E-06,1.58203125,0,0
-2.33719692914747E-05,-4.13033012591768E-06,1.58203125,0,0
-2.23997667490039E-05,-3.09475149151695E-06,1.58203125,0,0
-2.35594106925419E-05,1.73136086800696E-07,1.58203125,0,0
-2.37029089475982E-05,1.00549721082643E-06,1.58203125,0,0
-2.65808994299732E-05,2.35733114095638E-06,1.58203125,0,0
-2.65858143393416E-05,3.35073809765163E-06,1.58203125,0,0
-2.79905398201663E-05,6.45414456812432E-06,1.58203125,0,0
-2.6673555112211E-05,8.39383665152127E-06,1.58203125,0,0
-2.79789819614962E-05,1.04351647678413E-05,1.58203125,0,0
-2.78692696156213E-05,1.02963376775733E-05,1.58203125,0,0
-2.86410941043869E-05,1.09397778942366E-05,1.58203125,0,0
-2.75487691396847E-05,1.19901205835049E-05,1.58203125,0,0
-2.86437789327465E-05,1.43099605338648E-05,1.58203125,0,0
-2.91542655759258E-05,1.53462224261602E-05,1.58203125,0,0
-2.92779550363775E-05,1.6013415006455E-05,1.58203125,0,0
-2.84658926830161E-05,1.60846393555403E-05,1.58203125,0,0
-2.89823747152695E-05,1.43261677294504E-05,1.58203125,0,0
-2.42372079810593E-05,9.00038594409125E-06,1.58203125,0,0
-3.44429281540215E-05,1.26275908769458E-05,1.58203125,0,0
-2.58759537246078E-05,1.10730525193503E-05,1.58203125,0,0
-3.28385795000941E-05,1.54354038386373E-05,1.58203125,0,0
-2.89197196252644E-05,1.28838491946226E-05,1.58203125,0,0
-3.16949517582543E-05,1.21223010864924E-05,1.58203125,0,0
-2.79986434179591E-05,9.60201577981934E-06,1.58203125,0,0
-2.87241891783196E-05,1.14632484837784E-05,1.58203125,0,0
-2.69733591267141E-05,1.3799841326545E-05,1.58203125,0,0
-2.48168180405628E-05,1.41582304422627E-05,1.58203125,0,0
-2.31329031521454E-05,1.26773202282493E-05,1.58203125,0,0
-2.2117046682979E-05,9.54500956140691E-06,1.58203125,0,0
-2.43914219026919E-05,8.44926125864731E-06,1.58203125,0,0
-2.42186342802597E-05,8.90250885277055E-06,1.58203125,0,0
-2.52977424679557E-05,1.09581060314667E-05,1.58203125,0,0
-2.32708589464892E-05,1.05181970866397E-05,1.58203125,0,0
-2.32157126447419E-05,1.01821515272604E-05,1.58203125,0,0
-2.07400371436961E-05,1.00562065199483E-05,1.58203125,0,0
-2.17777833313448E-05,1.11103572635329E-05,1.58203125,0,0
-2.10997641261201E-05,9.66708284977358E-06,1.58203125,0,0
-2.15329546335852E-05,8.10802794148913E-06,1.58203125,0,0
-1.96975233848207E-05,7.45199304219568E-06,1.58203125,0,0
-1.86557608685689E-05,9.15813961910317E-06,1.58203125,0,0
-1.77567762875697E-05,1.06485413198243E-05,1.58203125,0,0
-1.87056102731731E-05,1.1798015293607E-05,1.58203125,0,0
-1.97528152057203E-05,1.35940726977424E-05,1.58203125,0,0
-2.06931417778833E-05,1.59643277584109E-05,1.58203125,0,0
-1.6509651686647E-05,1.44189298225683E-05,1.58203125,0,0
-2.27216842176858E-05,2.02616738533834E-05,1.58203125,0,0
-1.70539860846475E-05,1.44815821840893E-05,1.58203125,0,0
-2.25905841944041E-05,1.53661185322562E-05,1.58203125,0,0
-1.95417560462374E-05,7.66933408158366E-06,1.58203125,0,0
-2.19423873204505E-05,7.37663458494353E-06,1.58203125,0,0
-2.18797049456043E-05,6.10697770753177E-06,1.58203125,0,0
-2.42978567257524E-05,6.20392165728845E-06,1.58203125,0,0
-2.47170064540114E-05,3.34026390191866E-06,1.58203125,0,0
-2.44993843807606E-05,1.15176703729958E-06,1.58203125,0,0
-2.29452416533604E-05,1.38315883191353E-07,1.58203125,0,0
-2.08387446036795E-05,-1.16614693013162E-07,1.58203125,0,0
-2.08798901439877E-05,2.00607405531628E-06,1.58203125,0,0
-1.95937500393484E-05,2.75049660558579E-06,1.58203125,0,0
-2.01001494133379E-05,3.46287470165407E-06,1.58203125,0,0
-1.90555620065425E-05,2.03829927158949E-06,1.58203125,0,0
-1.98706129594939E-05,3.98954352931469E-06,1.58203125,0,0
-1.89951388165355E-05,6.48267632641364E-06,1.58203125,0,0
-1.90852715604706E-05,1.01501645985991E-05,1.58203125,0,0
-1.7663494872977E-05,1.06118704934488E-05,1.58203125,0,0
-1.9252218407928E-05,1.15177572297398E-05,1.58203125,0,0
-2.1310133888619E-05,1.25807018775959E-05,1.58203125,0,0
-2.34385897783795E-05,1.45443991641514E-05,1.58203125,0,0
-2.16000407817774E-05,1.37291335704504E-05,1.58203125,0,0
-1.94795720744878E-05,1.30989710669382E-05,1.58203125,0,0
-1.856204107753E-05,1.42665612656856E-05,1.58203125,0,0
-1.83503034349997E-05,1.54341651068535E-05,1.58203125,0,0
-1.56665846589021E-05,1.15826433102484E-05,1.58203125,0,0
-2.22437975025969E-05,1.591376712895E-05,1.58203125,0,0
-1.73518292285735E-05,1.19074938993435E-05,1.58203125,0,0
-2.25170533667551E-05,1.55516427184921E-05,1.58203125,0,0
-2.04234183911467E-05,1.23287927635829E-05,1.58203125,0,0
-2.30801488214638E-05,1.2834922017646E-05,1.58203125,0,0
-2.13159601116786E-05,1.26399409055011E-05,1.58203125,0,0
-2.28537173825316E-05,1.4855021618132E-05,1.58203125,0,0
-2.35411189350998E-05,1.49196757774916E-05,1.58203125,0,0
-2.42896276176907E-05,1.50896958075464E-05,1.58203125,0,0
-2.44777638727101E-05,1.41150112540345E-05,1.58203125,0,0
-2.3084341592039E-05,1.15272878247197E-05,1.58203125,0,0
-2.33852351811947E-05,1.02443973446498E-05,1.58203125,0,0
-2.29262986977119E-05,8.9211025624536E-06,1.58203125,0,0
-2.46542622335255E-05,1.008238268696E-05,1.58203125,0,0
-2.44574803218711E-05,1.064272964868E-05,1.58203125,0,0
-2.50911925832042E-05,1.18783991638338E-05,1.58203125,0,0
-2.36694522754988E-05,1.03860611488926E-05,1.58203125,0,0
-2.43034610321047E-05,9.40542486205231E-06,1.58203125,0,0
-2.38208904193016E-05,8.8712931756163E-06,1.58203125,0,0
-2.47415100602666E-05,1.11330855361302E-05,1.58203125,0,0
-2.49723361775978E-05,1.18106727313716E-05,1.58203125,0,0
-2.46874333242886E-05,1.21234952530358E-05,1.58203125,0,0
-2.30080240726238E-05,1.24990428957972E-05,1.58203125,0,0
-2.30642126552993E-05,1.20799641081248E-05,1.58203125,0,0
-2.40867993852589E-05,1.11679173642187E-05,1.58203125,0,0
-2.4650726118125E-05,1.09832490124973E-05,1.58203125,0,0
-2.00114209292224E-05,9.41456528380513E-06,1.58203125,0,0
-2.93703124043532E-05,1.46467973536346E-05,1.58203125,0,0
-2.32663405768108E-05,1.23591380543076E-05,1.58203125,0,0
-2.73234309133841E-05,1.23358558994369E-05,1.58203125,0,0
-2.19083231058903E-05,6.75823821438826E-06,1.58203125,0,0
-2.47334446612513E-05,5.9985477491864E-06,1.58203125,0,0
-2.38839602388907E-05,5.52950132259866E-06,1.58203125,0,0
-2.75161037279759E-05,8.47402861836599E-06,1.58203125,0,0
-3.03794913634192E-05,1.0730486792454E-05,1.58203125,0,0
-3.37257915816735E-05,1.16125866043149E-05,1.58203125,0,0
-3.48436187778134E-05,1.23334166346467E-05,1.58203125,0,0
-3.30032999045216E-05,1.35295076688635E-05,1.58203125,0,0
-3.27538509736769E-05,1.54319895955268E-05,1.58203125,0,0
-3.07018381136004E-05,1.38151272039977E-05,1.58203125,0,0
-3.09748829749879E-05,1.14560998554225E-05,1.58203125,0,0
-2.98517752526095E-05,8.79793151398189E-06,1.58203125,0,0
-3.07721093122382E-05,9.60144552664133E-06,1.58203125,0,0
-2.82651835732395E-05,1.13235573735437E-05,1.58203125,0,0
-2.68063031398924E-05,1.31668912217719E-05,1.58203125,0,0
-2.3772463464411E-05,1.26219219964696E-05,1.58203125,0,0
-2.35307834373089E-05,1.11884646685212E-05,1.58203125,0,0
-2.40069402934751E-05,9.59128374233842E-06,1.58203125,0,0
-2.62723933701636E-05,1.01320611065603E-05,1.58203125,0,0
-2.72142115136376E-05,1.07832274807151E-05,1.58203125,0,0
-2.77685940091033E-05,1.23844074551016E-05,1.58203125,0,0
-2.76835999102332E-05,1.34537303893012E-05,1.58203125,0,0
-2.78111019724747E-05,1.3980912626721E-05,1.58203125,0,0
-2.21919199248077E-05,1.26507320601377E-05,1.58203125,0,0
-2.97013684757985E-05,1.99819969566306E-05,1.58203125,0,0
-1.99777095986065E-05,1.69454979186412E-05,1.58203125,0,0
-2.46569343289593E-05,1.79567996383412E-05,1.58203125,0,0
-1.8744225599221E-05,1.42324197440757E-05,1.58203125,0,0
-2.08495894185035E-05,1.70052499015583E-05,1.58203125,0,0
-1.77325891854707E-05,1.59550818352727E-05,1.58203125,0,0
-2.06145523407031E-05,1.52881802932825E-05,1.58203125,0,0
-2.32152360695181E-05,1.31190672618686E-05,1.58203125,0,0
-2.5586508854758E-05,1.29917916638078E-05,1.58203125,0,0
-2.54822534770938E-05,1.43883580676629E-05,1.58203125,0,0
-2.30098157771863E-05,1.35072623379529E-05,1.58203125,0,0
-2.18600616790354E-05,1.05360304587521E-05,1.58203125,0,0
-1.89066649909364E-05,6.01803094468778E-06,1.58203125,0,0
-1.9413988411543E-05,4.64440108771669E-06,1.58203125,0,0
-1.81825143954484E-05,5.06894002683111E-06,1.58203125,0,0
-1.91733706742525E-05,8.98393591342028E-06,1.58203125,0,0
-1.85118988156319E-05,1.09075062937336E-05,1.58203125,0,0
-2.20825222640997E-05,1.17046565719647E-05,1.58203125,0,0
-2.30478926823707E-05,1.08038439066149E-05,1.58203125,0,0
-2.33904938795604E-05,1.07274026959203E-05,1.58203125,0,0
-2.09399659070186E-05,9.8522314146976E-06,1.58203125,0,0
-2.05661435757065E-05,1.1086575796071E-05,1.58203125,0,0
-1.99653040908743E-05,1.33925041154725E-05,1.58203125,0,0
-1.93378691619728E-05,1.50340965774376E-05,1.58203125,0,0
-1.97615518118255E-05,1.2085416528862E-05,1.58203125,0,0
-2.38106113101821E-05,9.21587161428761E-06,1.58203125,0,0
-2.27579766942654E-05,6.9562233875331E-06,1.58203125,0,0
-3.20299877785146E-05,9.33109276957111E-06,1.58203125,0,0
-2.26296706387075E-05,5.75752437725896E-06,1.58203125,0,0
-2.75156780844554E-05,5.78633262193762E-06,1.58203125,0,0
-2.34356139117153E-05,4.25874304710305E-06,1.58203125,0,0
-2.73153727903264E-05,6.58183762425324E-06,1.58203125,0,0
-2.66609131358564E-05,4.90122465635068E-06,1.58203125,0,0
-2.91550222755177E-05,4.16247712564655E-06,1.58203125,0,0
-2.85209262074204E-05,4.63172591480543E-06,1.58203125,0,0
-2.74945814453531E-05,5.4708334573661E-06,1.58203125,0,0
-2.77250946965069E-05,5.54211919734371E-06,1.58203125,0,0
-2.79567975667305E-05,5.21286574439728E-06,1.58203125,0,0
-2.93017146759667E-05,5.26853409610339E-06,1.58203125,0,0
-2.84181442111731E-05,2.77294793704641E-06,1.58203125,0,0
-3.0091676308075E-05,6.9394269530676E-07,1.58203125,0,0
-2.81415450444911E-05,3.44957157949466E-07,1.58203125,0,0
-2.70295204245485E-05,2.14333272197109E-06,1.58203125,0,0
-2.4592651243438E-05,2.40119379668613E-06,1.58203125,0,0
-2.57021911238553E-05,3.66413837582513E-06,1.58203125,0,0
-2.47222487814724E-05,5.00100759381894E-06,1.58203125,0,0
-2.56986804743065E-05,6.14018108535674E-06,1.58203125,0,0
-2.52682239079149E-05,6.86697921992163E-06,1.58203125,0,0
-2.52591635216959E-05,9.31261092773639E-06,1.58203125,0,0
-2.55288614425808E-05,1.08106387415319E-05,1.58203125,0,0
-2.69977590505732E-05,1.08093609014759E-05,1.58203125,0,0
-2.64482896454865E-05,1.20307468023384E-05,1.58203125,0,0
-2.59283642662922E-05,1.3606973880087E-05,1.58203125,0,0
-2.16609660128597E-05,1.0070022653963E-05,1.58203125,0,0
-3.12811680487357E-05,1.41950467877905E-05,1.58203125,0,0
-2.39747823798098E-05,1.18546149678878E-05,1.58203125,0,0
-2.89125764538767E-05,1.52626325871097E-05,1.58203125,0,0
-2.4511191440979E-05,1.15167922558612E-05,1.58203125,0,0
-2.76572700386168E-05,1.22249048217782E-05,1.58203125,0,0
-2.57123792835046E-05,1.18588195618941E-05,1.58203125,0,0
-2.84044363070279E-05,1.46752545333584E-05,1.58203125,0,0
-2.92142758553382E-05,1.68423757713754E-05,1.58203125,0,0
-2.83287790807663E-05,1.75644545379328E-05,1.58203125,0,0
-2.6007790438598E-05,1.72506606759271E-05,1.58203125,0,0
-2.35891748161521E-05,1.67128491739277E-05,1.58203125,0,0
-2.45511328103021E-05,1.74071865330916E-05,1.58203125,0,0
-2.4867487809388E-05,1.59580522449687E-05,1.58203125,0,0
-2.77723047474865E-05,1.54518693307182E-05,1.58203125,0,0
-2.75593338301405E-05,1.46477850648807E-05,1.58203125,0,0
-2.89227900793776E-05,1.53235669131391E-05,1.58203125,0,0
-2.72917041002074E-05,1.55138441186864E-05,1.58203125,0,0
-2.65098533418495E-05,1.69017603184329E-05,1.58203125,0,0
-2.41204033955E-05,1.5810062905075E-05,1.58203125,0,0
-2.52615955105284E-05,1.42388680615113E-05,1.58203125,0,0
-2.50996163231321E-05,1.15046177597833E-05,1.58203125,0,0
-2.39194505411433E-05,8.91127820068505E-06,1.58203125,0,0
-2.07502907869639E-05,6.42166241959785E-06,1.58203125,0,0
-1.96751425391994E-05,4.74725220556138E-06,1.58203125,0,0
-2.09035624720855E-05,6.31458533462137E-06,1.58203125,0,0
-2.338146805414E-05,8.05614581622649E-06,1.58203125,0,0
-2.00255744857714E-05,5.0561061470944E-06,1.58203125,0,0
-2.65924227278447E-05,7.40627592676901E-06,1.58203125,0,0
-1.64919729286339E-05,6.35978085483657E-06,1.58203125,0,0
-1.89159163710428E-05,7.46948626328958E-06,1.58203125,0,0
-1.39133690026938E-05,5.964279807813E-06,1.58203125,0,0
-1.7461850802647E-05,8.60964792082086E-06,1.58203125,0,0
-1.57542763190577E-05,1.22320134323672E-05,1.58203125,0,0
-1.86112301889807E-05,1.50262503666454E-05,1.58203125,0,0
-1.90966584341368E-05,1.39320954986033E-05,1.58203125,0,0
-1.88906415132806E-05,1.30969210658805E-05,1.58203125,0,0
-1.95192969840718E-05,1.54473364091245E-05,1.58203125,0,0
-1.96458950085798E-05,1.85434382728999E-05,1.58203125,0,0
-2.0674240658991E-05,2.00848389795283E-05,1.58203125,0,0
-1.86152647074778E-05,1.97775589185767E-05,1.58203125,0,0
-1.8691844161367E-05,1.94805124920094E-05,1.58203125,0,0
-1.82482854143018E-05,1.77960100700147E-05,1.58203125,0,0
-2.19832309085177E-05,1.60743602464208E-05,1.58203125,0,0
-2.27721848204965E-05,1.39745316118933E-05,1.58203125,0,0
-2.35576935665449E-05,1.31398028315743E-05,1.58203125,0,0
-2.19652501982637E-05,1.25807728181826E-05,1.58203125,0,0
-2.27323162107496E-05,1.263602553081E-05,1.58203125,0,0
-2.24443338083802E-05,1.25742899399484E-05,1.58203125,0,0
-2.25257317651995E-05,1.15572838694789E-05,1.58203125,0,0
-2.16639436985133E-05,9.16651242732769E-06,1.58203125,0,0
-2.18108561966801E-05,9.70083328866167E-06,1.58203125,0,0
-2.23395254579373E-05,1.20593094834476E-05,1.58203125,0,0
-2.44981492869556E-05,1.18042889880599E-05,1.58203125,0,0
-2.11115602724021E-05,7.48029060559929E-06,1.58203125,0,0
-2.97232782031642E-05,9.60023680818267E-06,1.58203125,0,0
-2.17280339711579E-05,7.9673009167891E-06,1.58203125,0,0
-2.56799958151532E-05,1.23194495245116E-05,1.58203125,0,0
-2.01810271391878E-05,1.10772516563884E-05,1.58203125,0,0
-2.18854092963738E-05,1.30285798149998E-05,1.58203125,0,0
-1.81233208422782E-05,1.26769236885593E-05,1.58203125,0,0
-1.91223807632923E-05,1.29643212858355E-05,1.58203125,0,0
-1.84528944373596E-05,1.21175453386968E-05,1.58203125,0,0
-1.87426630873233E-05,1.18675716294092E-05,1.58203125,0,0
-1.93287214642623E-05,1.16947194328532E-05,1.58203125,0,0
-1.91290509974351E-05,1.05692161014304E-05,1.58203125,0,0
-2.12511677091243E-05,1.09039847302483E-05,1.58203125,0,0
-2.13622206501896E-05,1.12980624180636E-05,1.58203125,0,0
-2.29163288167911E-05,1.1756122148654E-05,1.58203125,0,0
-2.17913220694754E-05,1.02148633231991E-05,1.58203125,0,0
-2.27797863772139E-05,9.54424740484683E-06,1.58203125,0,0
-2.08102956094081E-05,8.68614642968168E-06,1.58203125,0,0
-2.14970550587168E-05,9.55965151661076E-06,1.58203125,0,0
-2.22607341129333E-05,9.47963690123288E-06,1.58203125,0,0
-2.52698755502934E-05,8.81709911482176E-06,1.58203125,0,0
-2.64107329712715E-05,7.24962819731445E-06,1.58203125,0,0
-2.76859955192776E-05,6.91741070113494E-06,1.58203125,0,0
-2.59344342339318E-05,6.68981056151097E-06,1.58203125,0,0
-2.52297686529346E-05,7.92003993410617E-06,1.58203125,0,0
-2.64664049609564E-05,1.00708975878661E-05,1.58203125,0,0
-2.74136400548741E-05,1.06562829387258E-05,1.58203125,0,0
-2.09783720492851E-05,7.35391085981973E-06,1.58203125,0,0
-2.83437275356846E-05,9.26489428820787E-06,1.58203125,0,0
-2.08771853067447E-05,5.36166544407024E-06,1.58203125,0,0
-2.90567404590547E-05,7.3659757617861E-06,1.58203125,0,0
-2.78555617114762E-05,7.55056953494204E-06,1.58203125,0,0
-3.21533698297571E-05,9.79105243459344E-06,1.7578125,0,0
-2.71842691290658E-05,8.79720209923107E-06,1.7578125,0,0
-2.46303243329749E-05,9.39653727982659E-06,1.7578125,0,0
-2.29707948165014E-05,8.829894795781E-06,1.7578125,0,0
-2.46920881181723E-05,9.64027549343882E-06,1.7578125,0,0
-2.56231942330487E-05,1.0791022759804E-05,1.7578125,0,0
-2.42422138398979E-05,1.08421409095172E-05,1.7578125,0,0
-2.48649994318839E-05,1.03460070022265E-05,1.7578125,0,0
-2.38958582485793E-05,9.4347069534706E-06,1.7578125,0,0
-2.54103251791094E-05,1.1380991054466E-05,1.7578125,0,0
-2.46405597863486E-05,1.2429019989213E-05,1.7578125,0,0
-2.62993708020076E-05,1.27878447528929E-05,1.7578125,0,0
-2.50109042099211E-05,1.12196503323503E-05,1.7578125,0,0
-2.51589572144439E-05,1.14013228085241E-05,1.7578125,0,0
-2.36730556935072E-05,1.29176269183517E-05,1.7578125,0,0
-2.4725302864681E-05,1.49092802530504E-05,1.7578125,0,0
-2.46295803663088E-05,1.4002415809955E-05,1.7578125,0,0
-2.63373312918702E-05,1.30844200612046E-05,1.7578125,0,0
-2.73368059424683E-05,1.25632395793218E-05,1.7578125,0,0
-2.67850446107332E-05,1.1112415450043E-05,1.7578125,0,0
-2.46157760557253E-05,9.17587567528244E-06,1.7578125,0,0
-2.40697609115159E-05,8.65487527335063E-06,1.7578125,0,0
-2.11239730560919E-05,6.82509244143148E-06,1.7578125,0,0
-3.08927410515025E-05,1.04476230262662E-05,1.7578125,0,0
-2.37141175603028E-05,9.92792502074735E-06,1.7578125,0,0
-2.86046360997716E-05,1.16515748231905E-05,1.7578125,0,0
-2.4698023480596E-05,7.27027099856059E-06,1.7578125,0,0
-2.74045869446127E-05,6.82921745465137E-06,1.7578125,0,0
-2.72267134278081E-05,9.2040190793341E-06,1.7578125,0,0
-3.19967075483873E-05,1.18650723379687E-05,1.7578125,0,0
-3.44719264830928E-05,1.09060511022108E-05,1.7578125,0,0
-3.69290646631271E-05,9.9227163445903E-06,1.7578125,0,0
-3.83016376872547E-05,9.62524063652381E-06,1.7578125,0,0
-3.66470958397258E-05,9.78121352090966E-06,1.7578125,0,0
-3.56969903805293E-05,1.05462122519384E-05,1.7578125,0,0
-3.37469209625851E-05,1.0185016435571E-05,1.7578125,0,0
-3.41643317369744E-05,1.00678244052688E-05,1.7578125,0,0
-3.17065168928821E-05,9.38414814299904E-06,1.7578125,0,0
-3.07947011606302E-05,9.96930975816213E-06,1.7578125,0,0
-2.75675320153823E-05,1.06438392322161E-05,1.7578125,0,0
-2.72717206826201E-05,1.23098034237046E-05,1.7578125,0,0
-2.6407593395561E-05,1.19940650620265E-05,1.7578125,0,0
-2.64376176346559E-05,1.14675485747284E-05,1.7578125,0,0
-2.427337494737E-05,1.11905728772399E-05,1.7578125,0,0
-2.35390980378725E-05,1.2026841432089E-05,1.7578125,0,0
-2.17003016587114E-05,1.21781877169269E-05,1.7578125,0,0
-1.97311273950618E-05,1.22802521218546E-05,1.7578125,0,0
-1.7526024748804E-05,1.2117126971134E-05,1.7578125,0,0
-1.64598532137461E-05,1.23444297059905E-05,1.7578125,0,0
-1.20052645797841E-05,9.64500850386685E-06,1.7578125,0,0
-1.47700529851136E-05,1.16570909085567E-05,1.7578125,0,0
-8.7446342149633E-06,5.11887310494785E-06,1.7578125,0,0
-1.13493342723814E-05,6.29088935966138E-06,1.7578125,0,0
-7.40699351808871E-06,4.51921277999645E-06,1.7578125,0,0
-8.07489868748235E-06,8.23701793706277E-06,1.7578125,0,0
-4.59338298242074E-06,8.65092897583963E-06,1.7578125,0,0
-2.31049398280447E-06,7.59444856157643E-06,1.7578125,0,0
3.10957830151892E-07,4.43566705143894E-06,1.7578125,0,0
-5.72928593456368E-09,4.29672945756465E-06,1.7578125,0,0
-2.80249946627009E-06,7.37907566872309E-06,1.7578125,0,0
-4.94082769364468E-06,1.06305260487716E-05,1.7578125,0,0
-6.90795604896266E-06,1.24331236293074E-05,1.7578125,0,0
-7.69048165238928E-06,1.1932920642721E-05,1.7578125,0,0
-1.19083588288049E-05,1.41763530336902E-05,1.7578125,0,0
-1.62842516147066E-05,1.72908039530739E-05,1.7578125,0,0
-2.0899404262309E-05,2.14725241676206E-05,1.7578125,0,0
-2.17413653444964E-05,2.16912794712698E-05,1.7578125,0,0
-2.28883982344996E-05,1.96424225578085E-05,1.7578125,0,0
-2.35288280237E-05,1.61689131346066E-05,1.7578125,0,0
-2.59518437815132E-05,1.58489710884169E-05,1.7578125,0,0
-2.68378571490757E-05,1.67638299899409E-05,1.7578125,0,0
-2.66976494458504E-05,1.78860391315538E-05,1.7578125,0,0
-2.59724565694341E-05,1.69503928191261E-05,1.7578125,0,0
-2.66582319454756E-05,1.50342048073071E-05,1.7578125,0,0
-2.66158567683306E-05,1.21971070257132E-05,1.7578125,0,0
-2.68592812062707E-05,9.14430074772099E-06,1.7578125,0,0
-2.31321682804264E-05,5.5926461755007E-06,1.7578125,0,0
-3.26458430208731E-05,8.71433621796314E-06,1.7578125,0,0
-2.34163435379742E-05,8.21166304376675E-06,1.7578125,0,0
-2.85454534605378E-05,9.56478379521286E-06,1.7578125,0,0
-2.42557616729755E-05,8.26436371426098E-06,1.7578125,0,0
-2.82233286270639E-05,1.06682364275912E-05,1.7578125,0,0
-2.5507803002256E-05,1.12137395262835E-05,1.7578125,0,0
-2.54138994932873E-05,1.24856824186281E-05,1.7578125,0,0
-2.29744873649906E-05,1.4717481462867E-05,1.7578125,0,0
-2.22602848225506E-05,1.58124075824162E-05,1.7578125,0,0
-2.38664706557756E-05,1.38909008455812E-05,1.7578125,0,0
-2.46504296228522E-05,1.1306740816508E-05,1.7578125,0,0
-2.60666420217603E-05,1.09338016045513E-05,1.7578125,0,0
-2.43965259869583E-05,1.15698458102997E-05,1.7578125,0,0
-2.55955565080512E-05,1.4039023881196E-05,1.7578125,0,0
-2.60589167737635E-05,1.61512452905299E-05,1.7578125,0,0
-2.94429373752791E-05,1.68350998137612E-05,1.7578125,0,0
-2.85531623376301E-05,1.5139702554734E-05,1.7578125,0,0
-2.81334778264863E-05,1.38963332574349E-05,1.7578125,0,0
-2.68623407464474E-05,1.21798611871782E-05,1.7578125,0,0
-2.88689370790962E-05,9.61686691880459E-06,1.7578125,0,0
-2.86776485154405E-05,7.55629343984765E-06,1.7578125,0,0
-2.73808509518858E-05,9.11033748707268E-06,1.7578125,0,0
-2.40720764850266E-05,1.16924438771093E-05,1.7578125,0,0
-2.22698690777179E-05,1.24289244922693E-05,1.7578125,0,0
-2.21144491661107E-05,9.56009444053052E-06,1.7578125,0,0
-2.43701124418294E-05,7.90747981227469E-06,1.7578125,0,0
-2.19411394937197E-05,8.5816564023844E-06,1.7578125,0,0
-3.13963028020225E-05,1.21844077511923E-05,1.7578125,0,0
-2.40241370192962E-05,8.66831123857992E-06,1.7578125,0,0
-3.0130657250993E-05,1.0611815014272E-05,1.7578125,0,0
-2.69291449512821E-05,7.57508678361773E-06,1.7578125,0,0
-3.12729716824833E-05,5.56103759663529E-06,1.7578125,0,0
-2.87669845420169E-05,2.93646462523611E-06,1.7578125,0,0
-2.81273387372494E-05,2.80035828836844E-06,1.7578125,0,0
-2.68639360001544E-05,1.68699841651687E-06,1.7578125,0,0
-2.75808670266997E-05,2.59014683479109E-07,1.7578125,0,0
-2.8163667593617E-05,1.6502070820934E-08,1.7578125,0,0
-2.65094022324774E-05,6.82176050759153E-07,1.7578125,0,0
-2.72481265710667E-05,2.00364138436271E-06,1.7578125,0,0
-2.76884456980042E-05,2.25683129428944E-06,1.7578125,0,0
-3.05282956105657E-05,3.58916827281064E-06,1.7578125,0,0
-2.94452092930442E-05,3.34598962581367E-06,1.7578125,0,0
-3.00136798614403E-05,2.81053576145496E-06,1.7578125,0,0
-2.9248045393615E-05,2.91171318167471E-06,1.7578125,0,0
-3.08619637507945E-05,4.93336483486928E-06,1.7578125,0,0
-3.00354604405584E-05,4.63223523183842E-06,1.7578125,0,0
-3.04160384985153E-05,3.44631325788214E-06,1.7578125,0,0
-2.97792976198252E-05,2.4467840376019E-06,1.7578125,0,0
-3.03404558508191E-05,2.78873494607979E-06,1.7578125,0,0
-2.96353482553968E-05,2.05947162612574E-06,1.7578125,0,0
-2.99147650366649E-05,2.06029244509409E-06,1.7578125,0,0
-3.15895267704036E-05,4.58984231954673E-06,1.7578125,0,0
-3.38691097567789E-05,8.64354660734534E-06,1.7578125,0,0
-2.6810997951543E-05,8.98755661182804E-06,1.7578125,0,0
-3.68191358575132E-05,1.1980218005192E-05,1.7578125,0,0
-2.61214536294574E-05,6.6943925958185E-06,1.7578125,0,0
-3.19575410685502E-05,7.65561253501801E-06,1.7578125,0,0
-2.44488819589606E-05,5.82362099521561E-06,1.7578125,0,0
-2.6839954443858E-05,7.94645620771917E-06,1.7578125,0,0
-2.22156650124816E-05,7.88773013482569E-06,1.7578125,0,0
-2.22805701923789E-05,7.73340707382886E-06,1.7578125,0,0
-2.09952904697275E-05,7.3355790846108E-06,1.7578125,0,0
-2.0799576304853E-05,9.00551185623044E-06,1.7578125,0,0
-2.04137668333715E-05,1.15407983685145E-05,1.7578125,0,0
-1.97208883037092E-05,1.18528596431133E-05,1.7578125,0,0
-2.14293868339155E-05,1.09334969238262E-05,1.7578125,0,0
-1.90651589946356E-05,9.45365627558203E-06,1.7578125,0,0
-1.81236573553178E-05,1.07101141111343E-05,1.7578125,0,0
-1.59234896273119E-05,1.20030554171535E-05,1.7578125,0,0
-1.92873067135224E-05,1.27581879496574E-05,1.7578125,0,0
-2.03738072741544E-05,1.13984569907188E-05,1.7578125,0,0
-2.27828659262741E-05,1.121176774177E-05,1.7578125,0,0
-2.1129364540684E-05,1.06852467069984E-05,1.7578125,0,0
-2.18257900996832E-05,1.06541629065759E-05,1.7578125,0,0
-2.23668794205878E-05,9.96874132397352E-06,1.7578125,0,0
-2.43939321080688E-05,9.48516026255675E-06,1.7578125,0,0
-2.36862579185981E-05,9.7218317023362E-06,1.7578125,0,0
-2.39716428040992E-05,1.11828376248013E-05,1.7578125,0,0
-2.4427365133306E-05,1.12344923763885E-05,1.7578125,0,0
-2.49568347499007E-05,1.00438610388665E-05,1.7578125,0,0
-2.1957908757031E-05,8.3165950854891E-06,1.7578125,0,0
-3.17728045047261E-05,1.3370822671277E-05,1.7578125,0,0
-2.48685282713268E-05,1.29437485156814E-05,1.7578125,0,0
-3.17888334393501E-05,1.55586894834414E-05,1.7578125,0,0
-2.94507062790217E-05,1.27064504340524E-05,1.7578125,0,0
-3.26019471685868E-05,1.1832168638648E-05,1.7578125,0,0
-2.97310543828644E-05,1.00197676147218E-05,1.7578125,0,0
-3.01058516924968E-05,1.10539003799204E-05,1.7578125,0,0
-2.88279334199615E-05,1.23762238217751E-05,1.7578125,0,0
-2.79506657534512E-05,1.27539260574849E-05,1.7578125,0,0
-2.7517316993908E-05,1.03690845207893E-05,1.7578125,0,0
-2.68652547674719E-05,7.16974636816303E-06,1.7578125,0,0
-2.84844372799853E-05,5.38325366505887E-06,1.7578125,0,0
-2.85446349153062E-05,2.43347631112556E-06,1.7578125,0,0
-3.09031711367425E-05,6.3399568261957E-07,1.7578125,0,0
-3.06996553263161E-05,1.85987482836936E-06,1.7578125,0,0
-3.22692794725299E-05,7.97568009147653E-06,1.7578125,0,0
-3.06576548609883E-05,1.33001667563803E-05,1.7578125,0,0
-2.9767987143714E-05,1.58834081958048E-05,1.7578125,0,0
-2.68494441115763E-05,1.49001361933188E-05,1.7578125,0,0
-2.70303808065364E-05,1.52534148583072E-05,1.7578125,0,0
-2.71609096671455E-05,1.710707329039E-05,1.7578125,0,0
-2.79934392892756E-05,1.91395174624631E-05,1.7578125,0,0
-2.55548820859985E-05,1.95488246390596E-05,1.7578125,0,0
-2.33496684813872E-05,2.00186732399743E-05,1.7578125,0,0
-2.48020496655954E-05,1.98247071239166E-05,1.7578125,0,0
-2.7961050363956E-05,1.81371124199359E-05,1.7578125,0,0
-2.30128971452359E-05,1.33423291117651E-05,1.7578125,0,0
-3.0858598620398E-05,2.13332568819169E-05,1.7578125,0,0
-2.12458598980447E-05,1.965809315152E-05,1.7578125,0,0
-2.64424561464693E-05,2.13886887650006E-05,1.7578125,0,0
-1.97433782886947E-05,1.64210377988638E-05,1.7578125,0,0
-2.07842549571069E-05,1.83714873855934E-05,1.7578125,0,0
-1.65999408636708E-05,1.81460218300344E-05,1.7578125,0,0
-1.7758693502401E-05,2.01380371436244E-05,1.7578125,0,0
-1.72809250216233E-05,2.00944596144836E-05,1.7578125,0,0
-1.91287563211517E-05,1.98644374904688E-05,1.7578125,0,0
-2.17820761463372E-05,1.78230638994137E-05,1.7578125,0,0
-2.1881493012188E-05,1.58609418576816E-05,1.7578125,0,0
-2.24877148866653E-05,1.77058554982068E-05,1.7578125,0,0
-2.15870695683407E-05,1.94140684470767E-05,1.7578125,0,0
-2.43698650592705E-05,1.98254529095721E-05,1.7578125,0,0
-2.42002843151568E-05,1.65980145538924E-05,1.7578125,0,0
-2.50665380008286E-05,1.62644937518053E-05,1.7578125,0,0
-2.24782543227775E-05,1.63063541549491E-05,1.7578125,0,0
-2.30896384891821E-05,1.73208700289251E-05,1.7578125,0,0
-2.15650688915048E-05,1.54773861140711E-05,1.7578125,0,0
-2.12558006751351E-05,1.34452220663661E-05,1.7578125,0,0
-1.97994340851437E-05,1.00556644611061E-05,1.7578125,0,0
-2.07449957088102E-05,8.87808801053325E-06,1.7578125,0,0
-2.00542508537183E-05,1.03002184914658E-05,1.7578125,0,0
-1.88212925422704E-05,1.37484948936617E-05,1.7578125,0,0
-1.8107124560629E-05,1.43653232953511E-05,1.7578125,0,0
-1.8837432435248E-05,1.3416351066553E-05,1.7578125,0,0
-1.7602355001145E-05,1.15859311335953E-05,1.7578125,0,0
-2.64999289356638E-05,1.76182093127863E-05,1.7578125,0,0
-2.11059632420074E-05,1.43953302540467E-05,1.7578125,0,0
-2.40885074163089E-05,1.59123137564166E-05,1.7578125,0,0
-2.05628639378119E-05,1.09919828901184E-05,1.7578125,0,0
-2.34394901781343E-05,1.02988724393072E-05,1.7578125,0,0
-2.20653928408865E-05,8.38515643408755E-06,1.7578125,0,0
-2.37839140027063E-05,9.75678358372534E-06,1.7578125,0,0
-2.54406313615618E-05,1.04918390206876E-05,1.7578125,0,0
-2.71266890194966E-05,8.98556663742056E-06,1.7578125,0,0
-2.75761831289856E-05,7.90260401117848E-06,1.7578125,0,0
-2.60334927588701E-05,7.94979678175878E-06,1.7578125,0,0
-2.65258859144524E-05,9.63166257861303E-06,1.7578125,0,0
-2.64692589553306E-05,1.11346680569113E-05,1.7578125,0,0
-2.69781121460255E-05,1.30725366034312E-05,1.7578125,0,0
-2.43207905441523E-05,1.20578979476704E-05,1.7578125,0,0
-2.3748871171847E-05,1.11154186015483E-05,1.7578125,0,0
-2.2532982256962E-05,9.88285046332749E-06,1.7578125,0,0
-2.31897756748367E-05,1.11465142254019E-05,1.7578125,0,0
-2.34223443840165E-05,1.2110591342207E-05,1.7578125,0,0
-2.53503603744321E-05,1.33035900944378E-05,1.7578125,0,0
-2.50653120019706E-05,1.2744194464176E-05,1.7578125,0,0
-2.45438968704548E-05,1.23945719678886E-05,1.7578125,0,0
-2.32822767429752E-05,1.25800352179795E-05,1.7578125,0,0
-2.18575478356797E-05,1.45108015203732E-05,1.7578125,0,0
-2.00252234208165E-05,1.59699338837527E-05,1.7578125,0,0
-2.06323220481863E-05,1.44233999890275E-05,1.7578125,0,0
-1.73026801348897E-05,8.9870227384381E-06,1.7578125,0,0
-2.33807277254527E-05,1.13251217044308E-05,1.7578125,0,0
-1.53802611748688E-05,7.6342657848727E-06,1.7578125,0,0
-1.75594395841472E-05,1.04695882328087E-05,1.7578125,0,0
-1.19661081043887E-05,6.44198735244572E-06,1.7578125,0,0
-1.3006389963266E-05,5.82796565140598E-06,1.7578125,0,0
-9.75623333943076E-06,4.91692935611354E-06,1.7578125,0,0
-9.83467089099577E-06,6.60630212223623E-06,1.7578125,0,0
-8.78668379300507E-06,7.14443649485474E-06,1.7578125,0,0
-9.21815353649436E-06,7.51899278839119E-06,1.7578125,0,0
-1.01434116004384E-05,8.63812965690158E-06,1.7578125,0,0
-9.74568774836371E-06,1.06894704003935E-05,1.7578125,0,0
-1.00105362434988E-05,1.32956020024722E-05,1.7578125,0,0
-8.9088453023578E-06,1.3185838724894E-05,1.7578125,0,0
-1.07767455119756E-05,1.29459449453861E-05,2.4609375,0,0
-1.16084183900966E-05,1.09676821011817E-05,2.4609375,0,0
-1.45886169775622E-05,1.10227438199217E-05,2.4609375,0,0
-1.56960850290488E-05,1.22266856124043E-05,2.4609375,0,0
-1.81479172169929E-05,1.46949487316306E-05,2.4609375,0,0
-1.81044160854071E-05,1.48724320752081E-05,2.4609375,0,0
-1.92077495739795E-05,1.56869573402219E-05,2.4609375,0,0
-1.89540205610683E-05,1.66526315297233E-05,2.4609375,0,0
-2.02878654818051E-05,1.7304268112639E-05,2.4609375,0,0
-2.18651966861216E-05,1.65380588441622E-05,2.4609375,0,0
-2.406273415545E-05,1.60031922860071E-05,2.4609375,0,0
-2.47543212026358E-05,1.57234044309007E-05,2.4609375,0,0
-2.45751398324501E-05,1.52034363054554E-05,2.4609375,0,0
-2.06942168006208E-05,1.10266046249308E-05,2.4609375,0,0
-3.27034758811351E-05,1.50196819959092E-05,2.4609375,0,0
-2.92119839286897E-05,1.11154222395271E-05,2.4609375,0,0
-3.44283907907084E-05,1.45568019433995E-05,2.4609375,0,0
-3.02015305351233E-05,1.16754017653875E-05,2.4609375,0,0
-3.25609835272189E-05,1.22702940643649E-05,2.4609375,0,0
-2.95326844934607E-05,1.06356010292075E-05,2.4609375,0,0
-2.97793176287087E-05,1.08524327515624E-05,2.4609375,0,0
-2.86356062133564E-05,9.40299560170388E-06,2.4609375,0,0
-2.9865570468246E-05,8.20054083305877E-06,2.4609375,0,0
-3.16678524541203E-05,6.6096495174861E-06,2.4609375,0,0
-3.12197444145568E-05,5.392220828071E-06,2.4609375,0,0
-3.1183342798613E-05,7.2777652349032E-06,2.4609375,0,0
-3.00245446851477E-05,9.52572372625582E-06,2.4609375,0,0
-3.09126771753654E-05,1.22661540444824E-05,2.4609375,0,0
-2.85764199361438E-05,1.17824265544186E-05,2.4609375,0,0
-2.7608431992121E-05,1.09934653664823E-05,2.4609375,0,0
-2.52912868745625E-05,9.41230337048182E-06,2.4609375,0,0
-2.67904561042087E-05,1.10924511318444E-05,2.4609375,0,0
-2.74825652013533E-05,1.31018832689733E-05,2.4609375,0,0
-2.88173941953573E-05,1.61109983309871E-05,2.4609375,0,0
-2.84811594610801E-05,1.70868734130636E-05,2.4609375,0,0
-2.95138052024413E-05,1.5144246390264E-05,2.4609375,0,0
-2.88669052679325E-05,1.13728528958745E-05,2.4609375,0,0
-2.85149853880284E-05,1.10765658973833E-05,2.4609375,0,0
-2.84394282061839E-05,1.08078493212815E-05,2.4609375,0,0
-2.85674268525327E-05,8.73010139912367E-06,2.4609375,0,0
-2.30137502512662E-05,7.2368029577774E-06,2.4609375,0,0
-3.32252602674998E-05,1.2602527931449E-05,2.4609375,0,0
-2.59468961303355E-05,1.45629792314139E-05,2.4609375,0,0
-3.19975006277673E-05,1.84042364708148E-05,2.4609375,0,0
-2.68347812379943E-05,1.67177040566457E-05,2.4609375,0,0
-2.92811655526748E-05,1.74838514794828E-05,2.4609375,0,0
-2.59308635577327E-05,1.73184234881774E-05,2.4609375,0,0
-2.58554518950405E-05,1.86657016456593E-05,2.4609375,0,0
-2.38681586779421E-05,2.05155029107118E-05,2.4609375,0,0
-2.34656599786831E-05,2.26222055061953E-05,2.4609375,0,0
-2.43282847804949E-05,2.27264008572092E-05,2.4609375,0,0
-2.45502815232612E-05,2.10157722904114E-05,2.4609375,0,0
-2.7140173187945E-05,1.97149583982537E-05,2.4609375,0,0
-2.73780970019288E-05,1.75981003849301E-05,2.4609375,0,0
-2.86533759208396E-05,1.56461646838579E-05,2.4609375,0,0
-2.67523919319501E-05,1.32796576508554E-05,2.4609375,0,0
-2.7781177777797E-05,1.36347171064699E-05,2.4609375,0,0
-2.73076930170646E-05,1.42676772156847E-05,2.4609375,0,0
-2.94179226330016E-05,1.49841189340805E-05,2.4609375,0,0
-2.88408027699916E-05,1.41851878652233E-05,2.4609375,0,0
-2.8565535103553E-05,1.32072582346154E-05,2.4609375,0,0
-2.77826711680973E-05,1.21970697364304E-05,2.4609375,0,0
-2.92049226118252E-05,1.32868517539464E-05,2.4609375,0,0
-2.85179103229893E-05,1.5650095519959E-05,2.4609375,0,0
-2.81960801657988E-05,1.71447445609374E-05,2.4609375,0,0
-2.82751479971921E-05,1.69824907061411E-05,2.4609375,0,0
-2.86848298856057E-05,1.72089276020415E-05,2.4609375,0,0
-2.37056010519154E-05,1.48296321640373E-05,2.4609375,0,0
-3.24706634273753E-05,2.09709542104974E-05,2.4609375,0,0
-2.24450795940356E-05,1.47384080264601E-05,2.4609375,0,0
-2.84346588159679E-05,1.69553823070601E-05,2.4609375,0,0
-2.44961920543574E-05,1.24341258924687E-05,2.4609375,0,0
-2.74624089797726E-05,1.2603564755409E-05,2.4609375,0,0
-2.36976993619464E-05,1.00656952781719E-05,2.4609375,0,0
-2.3938560843817E-05,1.135511774919E-05,2.4609375,0,0
-2.25852036237484E-05,1.03637958090985E-05,2.4609375,0,0
-2.16695352719398E-05,7.04857939126669E-06,2.4609375,0,0
-2.01781040232163E-05,3.28081955558446E-06,2.4609375,0,0
-1.78671270987252E-05,1.09897052880115E-06,2.4609375,0,0
-1.81679570232518E-05,1.40345741783676E-06,2.4609375,0,0
-1.66541212820448E-05,1.93909500012523E-06,2.4609375,0,0
-1.68542883329792E-05,5.99971190240467E-06,2.4609375,0,0
-1.42210838021128E-05,9.36538708629087E-06,2.4609375,0,0
-1.4755669326405E-05,1.32339828269323E-05,2.4609375,0,0
-1.36378439492546E-05,1.32497807499021E-05,2.4609375,0,0
-1.56284495460568E-05,1.30580820041359E-05,2.4609375,0,0
-1.63762579177273E-05,1.17179451990523E-05,2.4609375,0,0
-1.91583549167262E-05,1.26051163533702E-05,2.4609375,0,0
-1.95272496057441E-05,1.2594409781741E-05,2.4609375,0,0
-2.14577030419605E-05,1.2511336535681E-05,2.4609375,0,0
-2.31706908380147E-05,1.11761310108704E-05,2.4609375,0,0
-2.50365137617337E-05,9.85739370662486E-06,2.4609375,0,0
-2.49538406933425E-05,6.98339454174857E-06,2.4609375,0,0
-2.38102711591637E-05,3.93694881495321E-06,2.4609375,0,0
-1.85437893378548E-05,5.63513231099932E-06,2.4609375,0,0
-2.66851711785421E-05,1.12965362859541E-05,2.4609375,0,0
-2.21761711145518E-05,1.10680748548475E-05,2.4609375,0,0
-2.83836561720818E-05,8.81235791894142E-06,2.4609375,0,0
-2.40406534430804E-05,5.98073256696807E-06,2.4609375,0,0
-2.57163064816268E-05,6.02312184128095E-06,2.4609375,0,0
-2.33764585573226E-05,5.79371544517926E-06,2.4609375,0,0
-2.41920442931587E-05,4.68627058580751E-06,2.4609375,0,0
-2.32302154472563E-05,3.7529464407271E-06,2.4609375,0,0
-2.27979217015672E-05,4.54364044344402E-06,2.4609375,0,0
-2.19460725929821E-05,5.16890258950298E-06,2.4609375,0,0
-1.99273035832448E-05,4.89044941787142E-06,2.4609375,0,0
-2.09484678634908E-05,3.79567745767417E-06,2.4609375,0,0
-2.13801631616661E-05,1.64175935424282E-06,2.4609375,0,0
-2.34298258874333E-05,2.02387795411596E-07,2.4609375,0,0
-2.2990756406216E-05,-1.16480191536539E-06,2.4609375,0,0
-2.42050246015424E-05,-1.23743620861205E-06,2.4609375,0,0
-2.28136959776748E-05,-1.67418107821504E-07,2.4609375,0,0
-2.29661000048509E-05,2.40954454966413E-06,2.4609375,0,0
-2.18495879380498E-05,3.46269735018723E-06,2.4609375,0,0
-2.28842145588715E-05,4.54002838523593E-06,2.4609375,0,0
-2.32513484661467E-05,7.36418087399215E-06,2.4609375,0,0
-2.34896087931702E-05,9.62597368925344E-06,2.4609375,0,0
-2.22026719711721E-05,9.16596491151722E-06,2.4609375,0,0
-2.23480092245154E-05,7.97163102106424E-06,2.4609375,0,0
-2.33229038713034E-05,7.74586260376964E-06,2.4609375,0,0
-2.4191274860641E-05,8.73403314471943E-06,2.4609375,0,0
-1.97567442228319E-05,6.93328502165969E-06,2.4609375,0,0
-2.85705391434021E-05,9.09132904780563E-06,2.4609375,0,0
-2.17843753489433E-05,6.61828971715295E-06,2.4609375,0,0
-2.55458216997795E-05,1.06749475889956E-05,2.4609375,0,0
-2.10086291190237E-05,1.18249690785888E-05,2.4609375,0,0
-2.43208269239403E-05,1.41054188134149E-05,2.4609375,0,0
-2.21670670725871E-05,1.25827364172437E-05,2.4609375,0,0
-2.25075873458991E-05,1.16038836495136E-05,2.4609375,0,0
-2.16754924622364E-05,1.06195338958059E-05,2.4609375,0,0
-2.22021462832345E-05,1.07464720713324E-05,2.4609375,0,0
-2.32771963055711E-05,1.13450305434526E-05,2.4609375,0,0
-2.31199774134438E-05,1.13789137685671E-05,2.4609375,0,0
-2.44307357206708E-05,1.11153140096576E-05,2.4609375,0,0
-2.3474751287722E-05,1.00121960713295E-05,2.4609375,0,0
-2.35797597269993E-05,9.83983682090184E-06,2.4609375,0,0
-2.16317184822401E-05,8.98576308827614E-06,2.4609375,0,0
-2.24992800212931E-05,9.08504443941638E-06,2.4609375,0,0
-2.21261561819119E-05,8.15453859104309E-06,2.4609375,0,0
-2.36279902310343E-05,8.09717585070757E-06,2.4609375,0,0
-2.25981530093122E-05,8.29448345029959E-06,2.4609375,0,0
-2.30278656090377E-05,9.53242943069199E-06,2.4609375,0,0
-2.28434710152214E-05,1.13851438072743E-05,2.4609375,0,0
-2.41804154939018E-05,1.40083857331774E-05,2.4609375,0,0
-2.60496344708372E-05,1.45506573971943E-05,2.4609375,0,0
-2.84051584458211E-05,1.46923239299213E-05,2.4609375,0,0
-2.87897291855188E-05,1.51267913679476E-05,2.4609375,0,0
-2.8146354452474E-05,1.47789469338022E-05,2.4609375,0,0
-2.21980189962778E-05,1.15735365397995E-05,2.4609375,0,0
-3.20634935633279E-05,1.76316225406481E-05,2.4609375,0,0
-2.55683935392881E-05,1.53936907736352E-05,2.4609375,0,0
-3.23794374708086E-05,1.85286771738902E-05,2.4609375,0,0
-2.92535787593806E-05,1.55003053805558E-05,2.4609375,0,0
-3.40061924362089E-05,1.5603334759362E-05,2.4609375,0,0
-3.1812767701922E-05,1.20724498628988E-05,2.4609375,0,0
-3.15810575557407E-05,1.04119881143561E-05,2.4609375,0,0
-2.93817374767968E-05,8.08161621534964E-06,2.4609375,0,0
-2.82088622043375E-05,8.41630844661267E-06,2.4609375,0,0
-2.75037309620529E-05,1.20239083116758E-05,2.4609375,0,0
-2.65263752226019E-05,1.55798970808974E-05,2.4609375,0,0
-2.79916985164164E-05,1.66309837368317E-05,2.4609375,0,0
-2.75992806564318E-05,1.3992760614201E-05,2.4609375,0,0
-2.87021575786639E-05,1.33242065203376E-05,2.4609375,0,0
-2.6624373276718E-05,1.36057460622396E-05,2.4609375,0,0
-2.652445982676E-05,1.6735983081162E-05,2.4609375,0,0
-2.39959681493929E-05,1.82954299816629E-05,2.4609375,0,0
-2.3533610146842E-05,1.85842491191579E-05,2.4609375,0,0
-2.10685502679553E-05,1.59599057951709E-05,2.4609375,0,0
-1.98330999410246E-05,1.3942562873126E-05,2.4609375,0,0
-1.69320064742351E-05,1.22147512229276E-05,2.4609375,0,0
-1.5853334843996E-05,1.29731915876619E-05,2.4609375,0,0
-1.47693726830767E-05,1.36470216602902E-05,2.4609375,0,0
-1.50687501445645E-05,1.29007794384961E-05,2.4609375,0,0
-1.52896063809749E-05,1.00540009952965E-05,2.4609375,0,0
-1.67013713507913E-05,7.96564017946366E-06,2.4609375,0,0
-1.5417625036207E-05,5.19078321303823E-06,2.4609375,0,0
-2.20960446313256E-05,7.20655043551233E-06,2.4609375,0,0
-1.65762667165836E-05,6.69291466692812E-06,2.4609375,0,0
-2.09851314139087E-05,9.55081122810952E-06,2.4609375,0,0
-1.90143291547429E-05,9.63145248533692E-06,2.4609375,0,0
-2.11303413379937E-05,1.1061577424698E-05,2.4609375,0,0
-1.99983041966334E-05,8.96551591722528E-06,2.4609375,0,0
-2.13539824471809E-05,7.80597929406213E-06,2.4609375,0,0
-2.14518695429433E-05,7.534929409303E-06,2.4609375,0,0
-2.13004805118544E-05,7.82339338911697E-06,2.4609375,0,0
-2.08990913961316E-05,6.98087342243525E-06,2.4609375,0,0
-1.9854449419654E-05,5.27740621691919E-06,2.4609375,0,0
-2.08523397304816E-05,5.49691640117089E-06,2.4609375,0,0
-2.15468153328402E-05,7.50049275666242E-06,2.4609375,0,0
-2.36989308177726E-05,9.99162966763834E-06,2.4609375,0,0
-2.30743480642559E-05,1.12545621959725E-05,2.4609375,0,0
-2.30768964684103E-05,1.33389385155169E-05,2.4609375,0,0
-2.25739404413616E-05,1.35920909087872E-05,2.4609375,0,0
-2.53536818490829E-05,1.36579374157009E-05,2.4609375,0,0
-2.74851081485394E-05,1.42512717502541E-05,2.4609375,0,0
-2.95078934868798E-05,1.59767605509842E-05,2.4609375,0,0
-2.84597117570229E-05,1.70828316186089E-05,2.4609375,0,0
-2.74949252343504E-05,1.80423849087674E-05,2.4609375,0,0
-2.64172740571667E-05,1.80070692294976E-05,2.4609375,0,0
-2.63940564764198E-05,1.76704052137211E-05,2.4609375,0,0
-2.60998349403962E-05,1.69993600138696E-05,2.4609375,0,0
-2.47320131165907E-05,1.71980573213659E-05,2.4609375,0,0
-1.97309946088353E-05,1.37331508085481E-05,2.4609375,0,0
-2.88593764707912E-05,1.79841808858328E-05,2.4609375,0,0
-2.40390436374582E-05,1.09445782072726E-05,2.4609375,0,0
-3.07637928926852E-05,1.27281082313857E-05,2.4609375,0,0
-2.67958748736419E-05,6.61658668832388E-06,2.4609375,0,0
-2.95184945571236E-05,4.62436219095252E-06,2.4609375,0,0
-2.93199937004829E-05,1.75316120021307E-06,2.4609375,0,0
-3.36870944011025E-05,3.49558240486658E-06,2.4609375,0,0
-3.40375299856532E-05,1.7358630657327E-06,2.4609375,0,0
-3.29349204548635E-05,-1.29356806155556E-06,2.4609375,0,0
-3.14386015816126E-05,-2.7493715606397E-06,2.4609375,0,0
-2.82365672319429E-05,-1.29125317016587E-06,2.4609375,0,0
-2.70512955466984E-05,3.16138380185294E-06,2.4609375,0,0
-2.44803995883558E-05,5.24011420566239E-06,2.4609375,0,0
-2.28190492634894E-05,6.41391216049669E-06,2.4609375,0,0
-1.81932573468657E-05,5.85853604206932E-06,2.4609375,0,0
-1.6629110177746E-05,8.32827481644927E-06,2.4609375,0,0
-1.44471759995213E-05,9.68736094364431E-06,2.4609375,0,0
-1.55006855493411E-05,1.16933833851363E-05,2.4609375,0,0
-1.56598744069925E-05,1.14451304398244E-05,2.4609375,0,0
-1.70049315784127E-05,1.31304432215984E-05,2.4609375,0,0
-1.68773349287221E-05,1.4365329661814E-05,2.4609375,0,0
-1.84437903953949E-05,1.48600884131156E-05,2.4609375,0,0
-1.9565422917367E-05,1.29093396026292E-05,2.4609375,0,0
-2.10781417990802E-05,1.12143488877336E-05,2.4609375,0,0
-2.22834787564352E-05,1.17511626740452E-05,2.4609375,0,0
-2.38038683164632E-05,1.3957268492959E-05,2.4609375,0,0
-1.86542711162474E-05,1.09026168502169E-05,2.4609375,0,0
-2.40114459302276E-05,1.42872995638754E-05,2.4609375,0,0
-1.50620799104217E-05,1.04707542050164E-05,2.4609375,0,0
-1.97974222828634E-05,1.52312850332237E-05,2.4609375,0,0
-1.55118614202365E-05,1.22060228022747E-05,2.4609375,0,0
-1.84116124728462E-05,1.17115141620161E-05,2.4609375,0,0
-1.72808177012485E-05,9.70697055890923E-06,2.4609375,0,0
-2.06833701668074E-05,9.28939880395774E-06,2.4609375,0,0
-2.30221539823106E-05,8.62201613927027E-06,2.4609375,0,0
-2.50462398980744E-05,1.08198291854933E-05,2.4609375,0,0
-2.56776711466955E-05,1.45442299981369E-05,2.4609375,0,0
-2.35702827922069E-05,1.64912944455864E-05,2.4609375,0,0
-2.22682028834242E-05,1.66362424351973E-05,2.4609375,0,0
-2.04520547413267E-05,1.38515688377083E-05,2.4609375,0,0
-2.25298845180077E-05,1.16056889964966E-05,2.4609375,0,0
-2.32346465054434E-05,8.25839561002795E-06,2.4609375,0,0
-2.55150534940185E-05,7.47782496546279E-06,2.4609375,0,0
-2.50037628575228E-05,6.61543072055792E-06,2.4609375,0,0
-2.54533424595138E-05,6.83013377056341E-06,2.4609375,0,0
-2.39225482800975E-05,7.67838992032921E-06,3.8671875,0,0
-2.45723804255249E-05,1.3449415746436E-05,3.8671875,0,0
-2.40536410274217E-05,1.91155977518065E-05,3.8671875,0,0
-2.40408262470737E-05,2.04811076400802E-05,3.8671875,0,0
-2.3784503355273E-05,1.71527517522918E-05,3.8671875,0,0
-2.45822320721345E-05,1.40076372190379E-05,3.8671875,0,0
-2.40420376940165E-05,1.38421000883682E-05,3.8671875,0,0
-2.42207206611056E-05,1.54690769704757E-05,3.8671875,0,0
-2.00258291442879E-05,1.34810243253014E-05,3.8671875,0,0
-2.83031677099643E-05,2.02077444555471E-05,3.8671875,0,0
-2.18813638639404E-05,1.68897331604967E-05,3.8671875,0,0
-2.72700199275278E-05,2.09888858080376E-05,3.8671875,0,0
-2.33953887800453E-05,1.87984915100969E-05,3.8671875,0,0
-2.70033706328832E-05,1.619860631763E-05,3.8671875,0,0
-2.49131880991627E-05,4.64565846414189E-06,3.8671875,0,0
-2.57273659372004E-05,-3.96462291973876E-06,3.8671875,0,0
-2.51004039455438E-05,-8.39374661154579E-06,3.8671875,0,0
-2.5946537789423E-05,-5.11815187564935E-06,3.8671875,0,0
-2.71172593784286E-05,2.60563388110313E-06,3.8671875,0,0
-2.69166594080161E-05,9.89264663076028E-06,3.8671875,0,0
-2.78814623015933E-05,1.55868619913235E-05,3.8671875,0,0
-2.78761363006197E-05,1.67884336406132E-05,3.8671875,0,0
-3.07040427287575E-05,1.61536136147333E-05,3.8671875,0,0
-3.16385121550411E-05,1.25235710584093E-05,3.8671875,0,0
-3.47859677276574E-05,1.17277049866971E-05,3.8671875,0,0
-3.50162627000827E-05,1.29461332107894E-05,3.8671875,0,0
-3.60236226697452E-05,1.72677300724899E-05,3.8671875,0,0
-3.33730204147287E-05,1.84054279088741E-05,3.8671875,0,0
-3.09786810248625E-05,1.79642374860123E-05,3.8671875,0,0
-2.80741787719307E-05,1.53651326399995E-05,3.8671875,0,0
-2.74751419055974E-05,1.16890723802499E-05,3.8671875,0,0
-2.59298703895183E-05,6.33210538580897E-06,3.8671875,0,0
-2.58760737779085E-05,3.00249303109013E-06,3.8671875,0,0
-2.56309976975899E-05,-1.84273574177496E-08,3.8671875,0,0
-2.44842340180185E-05,-3.25421780189572E-07,3.8671875,0,0
-1.92140760191251E-05,3.58305624104105E-06,3.8671875,0,0
-2.83209137705853E-05,6.43144039713661E-06,3.8671875,0,0
-2.30980658670887E-05,5.72945145904669E-06,3.8671875,0,0
-2.84434972854797E-05,6.35970764051308E-06,3.8671875,0,0
-2.46447434619768E-05,6.47640626993962E-06,3.8671875,0,0
-2.78497227554908E-05,7.00102555128979E-06,3.8671875,0,0
-2.64834270637948E-05,8.99032056622673E-06,3.8671875,0,0
-2.74429257842712E-05,1.23540430649882E-05,3.8671875,0,0
-2.63352812908124E-05,1.46001430039178E-05,3.8671875,0,0
-2.4601034965599E-05,1.36665321406326E-05,3.8671875,0,0
-2.24857158173108E-05,1.20711210911395E-05,3.8671875,0,0
-1.97843946807552E-05,1.19299611469614E-05,3.8671875,0,0
-1.97380559256999E-05,1.25031547213439E-05,3.8671875,0,0
