biceps_emg, triceps_emg, subject_position, position_estimate, brace_position
-2.74889171123505E-05,1.62082378665218E-05,0.3515625,0,0
-2.54318802035414E-05,1.54266472236486E-05,0.3515625,0,0
-2.51830915658502E-05,1.41036734930822E-05,0.3515625,0,0
-2.488526115485E-05,1.26030563478707E-05,0.3515625,0,0
-2.60425786109408E-05,1.25756851048209E-05,0.3515625,0,0
-2.53230427915696E-05,1.15945631478098E-05,0.3515625,0,0
-2.70579748757882E-05,1.21216698971693E-05,0.3515625,0,0
-2.71780390903587E-05,1.14375507109798E-05,0.3515625,0,0
-2.85153000731952E-05,1.36613425638643E-05,0.3515625,0,0
-2.68582625722047E-05,1.62866472237511E-05,0.3515625,0,0
-2.76373084489023E-05,1.82361163751921E-05,0.3515625,0,0
-2.74217036349E-05,1.56771748152096E-05,0.3515625,0,0
-2.79041887552012E-05,1.44550822369638E-05,0.3515625,0,0
-2.69904594460968E-05,1.53719574882416E-05,0.3515625,0,0
-2.83322879113257E-05,1.76694011315703E-05,0.3515625,0,0
-2.94644232781138E-05,1.7634651158005E-05,0.3515625,0,0
-2.95644858852029E-05,1.5525034541497E-05,0.3515625,0,0
-2.79881205642596E-05,1.27619514387334E-05,0.3515625,0,0
-2.74225330940681E-05,1.24200651043793E-05,0.3515625,0,0
-2.32826714636758E-05,1.13109563244507E-05,0.3515625,0,0
-3.25618566421326E-05,1.53920263983309E-05,0.3515625,0,0
-2.29432953346986E-05,9.27575092646293E-06,0.3515625,0,0
-2.74309877568157E-05,9.63463571679313E-06,0.3515625,0,0
-2.28257758863037E-05,6.83824418956647E-06,0.3515625,0,0
-2.69448864855804E-05,9.08429683477152E-06,0.3515625,0,0
-2.38011252804426E-05,8.12252346804598E-06,0.3515625,0,0
-2.4672677682247E-05,8.19246179162292E-06,0.3515625,0,0
-2.51212732109707E-05,6.45104319119127E-06,0.3515625,0,0
-2.49445110966917E-05,5.78949948248919E-06,0.3515625,0,0
-2.41383349930402E-05,6.56734300719108E-06,0.3515625,0,0
-2.36515188589692E-05,6.17846535533317E-06,0.3515625,0,0
-2.55153736361535E-05,5.67500455872505E-06,0.3515625,0,0
-2.46023246290861E-05,4.43510407421854E-06,0.3515625,0,0
-2.50529155891854E-05,5.1060997066088E-06,0.3515625,0,0
-2.25351450353628E-05,5.60327634957503E-06,0.3515625,0,0
-2.34461476793513E-05,8.07110154710244E-06,0.3515625,0,0
-2.29209636017913E-05,8.48728450364433E-06,0.3515625,0,0
-2.3992759452085E-05,8.56648784974823E-06,0.3515625,0,0
-2.21238005906343E-05,8.45661452331115E-06,0.3515625,0,0
-2.1791018298245E-05,1.04275486592087E-05,0.3515625,0,0
-1.97097560885595E-05,9.87742714642081E-06,0.3515625,0,0
-1.94117164937779E-05,8.53757046570536E-06,0.3515625,0,0
-1.9700450138771E-05,7.92647279013181E-06,0.3515625,0,0
-2.04431344172917E-05,9.10638573259348E-06,0.3515625,0,0
-1.85366407094989E-05,1.05487652035663E-05,0.3515625,0,0
-1.80481001734734E-05,1.2061290362908E-05,0.3515625,0,0
-1.73253774846671E-05,9.94255060504656E-06,0.3515625,0,0
-2.61181139649125E-05,1.3334165487322E-05,0.3515625,0,0
-2.11850674531888E-05,8.86525140231242E-06,0.3515625,0,0
-2.55077156907646E-05,1.13684145617299E-05,0.3515625,0,0
-2.31473495659884E-05,8.93313608685276E-06,0.3515625,0,0
-2.63113379332935E-05,9.20282855076948E-06,0.3515625,0,0
-2.54583028436173E-05,7.2441130214429E-06,0.3515625,0,0
-2.65006528934464E-05,6.26953942628461E-06,0.3515625,0,0
-2.57049268839182E-05,4.2372744246677E-06,0.3515625,0,0
-2.51261953962967E-05,4.39604355051415E-06,0.3515625,0,0
-2.49725089815911E-05,5.78615208723932E-06,0.3515625,0,0
-2.36906562349759E-05,6.2904382502893E-06,0.3515625,0,0
-2.40291283262195E-05,6.76924992148997E-06,0.3515625,0,0
-2.35586576309288E-05,6.85704071656801E-06,0.3515625,0,0
-2.49955046456307E-05,8.80322659213562E-06,0.3515625,0,0
-2.53919024544302E-05,9.62861577136209E-06,0.3515625,0,0
-2.80001804640051E-05,1.09955417428864E-05,0.3515625,0,0
-2.82837499980815E-05,1.09644643089268E-05,0.3515625,0,0
-2.86936992779374E-05,1.15177072075312E-05,0.3515625,0,0
-2.78984844044317E-05,1.05444059954607E-05,0.3515625,0,0
-2.90050793410046E-05,1.14754029709729E-05,0.3515625,0,0
-2.79492342087906E-05,1.36067492348957E-05,0.3515625,0,0
-2.59593325608876E-05,1.69528975675348E-05,0.3515625,0,0
-2.31752637773752E-05,1.87147998076398E-05,0.3515625,0,0
-2.27016025746707E-05,1.79479047801578E-05,0.3515625,0,0
-2.31768535741139E-05,1.5301466191886E-05,0.3515625,0,0
-2.19305566133698E-05,1.22526080303942E-05,0.3515625,0,0
-1.51180538523477E-05,9.27147993934341E-06,0.3515625,0,0
-2.14771971513983E-05,1.3933496120444E-05,0.3515625,0,0
-1.83965948963305E-05,1.13161850094912E-05,0.3515625,0,0
-2.52190457104007E-05,1.45276644616388E-05,0.3515625,0,0
-2.28998887905618E-05,1.45282074299757E-05,0.3515625,0,0
-2.44019356614444E-05,1.5718042050139E-05,0.3515625,0,0
-2.24678569793468E-05,1.30270063891658E-05,0.3515625,0,0
-2.33896844292758E-05,1.13520773084019E-05,0.3515625,0,0
-2.19265930354595E-05,1.00028801170993E-05,0.3515625,0,0
-2.17271481233183E-05,1.00670540632564E-05,0.3515625,0,0
-2.25799340114463E-05,1.06924317151424E-05,0.3515625,0,0
-2.30901932809502E-05,1.12480056486675E-05,0.3515625,0,0
-2.36049436352914E-05,1.21201846923213E-05,0.3515625,0,0
-2.23872357310029E-05,1.07705245682155E-05,0.3515625,0,0
-2.29277102334891E-05,9.80068034550641E-06,0.3515625,0,0
-2.22877151827561E-05,8.98411144589772E-06,0.3515625,0,0
-2.32437778322492E-05,9.35852494876599E-06,0.3515625,0,0
-2.13538769457955E-05,9.04509852261981E-06,0.3515625,0,0
-2.12469622056233E-05,1.05493209048291E-05,0.3515625,0,0
-2.13007442653179E-05,1.12089664980886E-05,0.3515625,0,0
-2.33853133977391E-05,1.14802378448076E-05,0.3515625,0,0
-2.35749084822601E-05,1.05162407635362E-05,0.3515625,0,0
-2.41654452111106E-05,9.38529956329148E-06,0.3515625,0,0
-2.4501045118086E-05,8.48833406053018E-06,0.3515625,0,0
-2.53285907092504E-05,9.07703633856727E-06,0.3515625,0,0
-2.41822672251146E-05,1.04017972262227E-05,0.3515625,0,0
-2.23377774091205E-05,1.18828747872612E-05,0.3515625,0,0
-1.74355791386915E-05,1.03565107565373E-05,0.3515625,0,0
-2.4892049623304E-05,1.46969059642288E-05,0.3515625,0,0
-1.98385405383306E-05,1.08403537524282E-05,0.3515625,0,0
-2.47700463660294E-05,1.31324668473098E-05,0.3515625,0,0
-2.03856998268748E-05,9.53385733737377E-06,0.3515625,0,0
-2.25596995733213E-05,7.12707060301909E-06,0.3515625,0,0
-2.21970967686502E-05,2.8787860628654E-06,0.3515625,0,0
-2.52055615419522E-05,3.12123302137479E-06,0.3515625,0,0
-2.48231626756024E-05,5.00021860716515E-06,0.3515625,0,0
-2.30242749239551E-05,8.454589988105E-06,0.3515625,0,0
-2.04165080504026E-05,1.0853345884243E-05,0.3515625,0,0
-1.787647488527E-05,1.16081173473503E-05,0.3515625,0,0
-1.80423521669582E-05,1.35177951960941E-05,0.3515625,0,0
-1.75802324520191E-05,1.46934517033515E-05,0.3515625,0,0
-1.94408694369486E-05,1.72693253261968E-05,0.3515625,0,0
-1.92093684745487E-05,1.88413305295398E-05,0.3515625,0,0
-2.03239251277409E-05,1.95664888451574E-05,0.3515625,0,0
-1.83557640411891E-05,1.6191204849747E-05,0.3515625,0,0
-1.7381824363838E-05,1.29170612126472E-05,0.3515625,0,0
-1.50605810631532E-05,1.04060090961866E-05,0.3515625,0,0
-1.58425791596528E-05,1.04941364043043E-05,0.3515625,0,0
-1.80519673449453E-05,9.76259343588026E-06,0.3515625,0,0
-2.13987768802326E-05,8.61199259816203E-06,0.3515625,0,0
-2.15072541323025E-05,9.8220680229133E-06,0.3515625,0,0
-2.09041118068853E-05,1.3915213457949E-05,0.3515625,0,0
-2.04742209461983E-05,1.48670596900047E-05,0.3515625,0,0
-2.05900287255645E-05,1.2289900041651E-05,0.3515625,0,0
-1.7851147276815E-05,6.13386055192677E-06,0.3515625,0,0
-2.55960039794445E-05,6.33620493317721E-06,0.3515625,0,0
-1.89620586752426E-05,1.68562530689087E-06,0.3515625,0,0
-2.34413691941882E-05,1.59964849899552E-06,0.3515625,0,0
-2.15761847357498E-05,-5.59093621177453E-07,0.3515625,0,0
-2.58562104136217E-05,2.74752324003202E-06,0.3515625,0,0
-2.56068560702261E-05,3.88530088457628E-06,0.3515625,0,0
-2.69920819846448E-05,4.90977390654734E-06,0.3515625,0,0
-2.66455663222587E-05,5.09056462760782E-06,0.3515625,0,0
-2.75546844932251E-05,6.85011718815076E-06,0.3515625,0,0
-2.9021921363892E-05,9.1436904767761E-06,0.3515625,0,0
-2.93303601210937E-05,1.01891373560647E-05,0.3515625,0,0
-2.93319644697476E-05,1.01404621091206E-05,0.3515625,0,0
-2.68851581495255E-05,8.46605689730495E-06,0.3515625,0,0
-2.68360545305768E-05,8.04974752099952E-06,0.3515625,0,0
-2.62310513789998E-05,7.43797318136785E-06,0.3515625,0,0
-2.75689599220641E-05,8.10836718301289E-06,0.3515625,0,0
-2.62623616436031E-05,8.81042160472134E-06,0.3515625,0,0
-2.71951521426672E-05,1.04077416835935E-05,0.3515625,0,0
-2.79398427665001E-05,9.99910844257101E-06,0.3515625,0,0
-3.07717127725482E-05,9.29846737562912E-06,0.3515625,0,0
-3.17453559546266E-05,8.51812546898145E-06,0.3515625,0,0
-3.30622315232176E-05,8.98740108823404E-06,0.3515625,0,0
-3.27767738781404E-05,9.20672027859837E-06,0.3515625,0,0
-3.17391386488453E-05,9.65348044701386E-06,0.3515625,0,0
-3.04999921354465E-05,1.06259294625488E-05,0.3515625,0,0
-2.8321466743364E-05,1.31976339616813E-05,0.3515625,0,0
-2.09609279409051E-05,1.25158567243489E-05,0.3515625,0,0
-2.96760736091528E-05,1.702296322037E-05,0.3515625,0,0
-2.32752445299411E-05,1.25429505715147E-05,0.3515625,0,0
-2.85310943581862E-05,1.82506919372827E-05,0.3515625,0,0
-2.22477083298145E-05,1.74056804098655E-05,0.3515625,0,0
-2.4256223696284E-05,1.8006034224527E-05,0.3515625,0,0
-2.15473137359368E-05,1.38591885843198E-05,0.3515625,0,0
-2.28095323109301E-05,1.33932353492128E-05,0.3515625,0,0
-2.17658907786245E-05,1.48135877680033E-05,0.3515625,0,0
-2.11795304494444E-05,1.64947359735379E-05,0.3515625,0,0
-2.09908230317524E-05,1.64180946740089E-05,0.3515625,0,0
-1.98130401258823E-05,1.42096723720897E-05,0.3515625,0,0
-2.12430677493103E-05,1.36195640152437E-05,0.3515625,0,0
-2.11542574106716E-05,1.36756443680497E-05,0.3515625,0,0
-2.18251298065297E-05,1.50247888086597E-05,0.3515625,0,0
-1.99297319340985E-05,1.36156877488247E-05,0.3515625,0,0
-2.21225091081578E-05,1.30243543026154E-05,0.3515625,0,0
-2.2596213966608E-05,1.20379218060407E-05,0.3515625,0,0
-2.31912799790734E-05,1.2926451745443E-05,0.3515625,0,0
-2.04051848413656E-05,1.35916916406131E-05,0.3515625,0,0
-2.10260168387322E-05,1.52112743307953E-05,0.3515625,0,0
-2.22210946958512E-05,1.4451141396421E-05,0.3515625,0,0
-2.42051701206947E-05,1.38549230541685E-05,0.3515625,0,0
-2.33543378271861E-05,1.40200509122224E-05,0.3515625,0,0
-2.2560676370631E-05,1.6066418538685E-05,0.3515625,0,0
-2.34698836720781E-05,1.61297230079072E-05,0.3515625,0,0
-2.66056049440522E-05,1.51760787048261E-05,0.3515625,0,0
-2.36943542404333E-05,1.10231867438415E-05,0.3515625,0,0
-3.36658049491234E-05,1.41029968290241E-05,0.3515625,0,0
-2.50370667345123E-05,9.14252450456843E-06,0.3515625,0,0
-3.03856722894125E-05,1.24477974168258E-05,0.3515625,0,0
-2.46651743509574E-05,1.09687653093715E-05,0.3515625,0,0
-2.79105224763043E-05,1.38500363391358E-05,0.3515625,0,0
-2.61767982010497E-05,1.16815099318046E-05,0.3515625,0,0
-2.71644876193022E-05,1.09420625449275E-05,0.3515625,0,0
-2.56647217611317E-05,9.75257535174023E-06,0.3515625,0,0
-2.54997703450499E-05,9.3146709332359E-06,0.3515625,0,0
-2.53877460636431E-05,8.61467015056405E-06,0.3515625,0,0
-2.27277614612831E-05,7.53174072087859E-06,0.3515625,0,0
-2.24364503083052E-05,9.19003741728375E-06,0.3515625,0,0
-2.18806198972743E-05,1.03723841675674E-05,0.3515625,0,0
-2.38476459344383E-05,1.17769795906497E-05,0.3515625,0,0
-2.30703317356529E-05,1.01403848020709E-05,0.3515625,0,0
-2.57952106039738E-05,8.89149032445857E-06,0.3515625,0,0
-2.65601647697622E-05,7.17004195394111E-06,0.3515625,0,0
-2.77923281828407E-05,7.87428689363878E-06,0.3515625,0,0
-2.5376999474247E-05,7.66258835938061E-06,0.3515625,0,0
-2.50691973633366E-05,8.18485659692669E-06,0.3515625,0,0
-2.37892327277223E-05,8.43379530124366E-06,0.3515625,0,0
-2.43082740780665E-05,9.71433291852009E-06,0.3515625,0,0
-2.37958902289392E-05,9.39718756853836E-06,0.3515625,0,0
-2.32118309213547E-05,7.99732333689462E-06,0.3515625,0,0
-2.33286373259034E-05,7.07789649823098E-06,0.3515625,0,0
-2.35863644775236E-05,7.44797125662444E-06,0.3515625,0,0
-1.7993868823396E-05,6.8267449933046E-06,0.3515625,0,0
-2.6180856366409E-05,1.07087225842406E-05,0.3515625,0,0
-2.15804757317528E-05,9.55247287492966E-06,0.3515625,0,0
-2.641991704877E-05,1.17893232527422E-05,0.3515625,0,0
-2.21721402340336E-05,1.03129941635416E-05,0.3515625,0,0
-2.5459487005719E-05,1.06098677861155E-05,0.3515625,0,0
-2.38131651713047E-05,1.04816754173953E-05,0.3515625,0,0
-2.36453670368064E-05,1.07460000435822E-05,0.3515625,0,0
-2.21886675717542E-05,8.68724964675494E-06,0.3515625,0,0
-2.30101450142683E-05,6.32754654361634E-06,0.3515625,0,0
-2.51467008638429E-05,5.4497763812833E-06,0.3515625,0,0
-2.56781568168662E-05,6.29317355560488E-06,0.3515625,0,0
-2.59197768173181E-05,8.96023630048148E-06,0.3515625,0,0
-2.3568611140945E-05,1.02481881185668E-05,0.3515625,0,0
-2.39328255702276E-05,1.11407780423178E-05,0.3515625,0,0
-2.34360086324159E-05,1.06120123746223E-05,0.3515625,0,0
-2.43764334300067E-05,9.7525571618462E-06,0.3515625,0,0
-2.31756985158427E-05,7.65666754887206E-06,0.3515625,0,0
-2.49904642259935E-05,6.70781764711137E-06,0.3515625,0,0
-2.5839006411843E-05,6.491606200143E-06,0.3515625,0,0
-2.73952191491844E-05,6.89133275955101E-06,0.3515625,0,0
-2.71731114480644E-05,6.76159652357455E-06,0.3515625,0,0
-2.71791705017677E-05,8.2603728515096E-06,0.3515625,0,0
-2.61691675405018E-05,1.12715833893162E-05,0.3515625,0,0
-2.59156604442978E-05,1.38720997711062E-05,0.3515625,0,0
-2.64792615780607E-05,1.4718069905939E-05,0.3515625,0,0
-2.71115659415955E-05,1.40550519063254E-05,0.3515625,0,0
-2.22015878534876E-05,9.92787590803346E-06,0.3515625,0,0
-3.17955527862068E-05,1.21651437439141E-05,0.3515625,0,0
-2.36740925174672E-05,6.62722459310316E-06,0.3515625,0,0
-2.78661154879956E-05,1.01293580883066E-05,0.3515625,0,0
-2.25792337005259E-05,9.26621487451484E-06,0.3515625,0,0
-2.56694693234749E-05,1.07326159195509E-05,0.3515625,0,0
-2.27264063141774E-05,7.9365736382897E-06,0.3515625,0,0
-2.31536650971975E-05,6.141439826024E-06,0.3515625,0,0
-2.18678087549051E-05,4.221496055834E-06,0.3515625,0,0
-2.07831672014436E-05,4.44961688117473E-06,0.3515625,0,0
-2.09208956221119E-05,6.50711535854498E-06,0.3515625,0,0
-2.0914076230838E-05,8.59496867633425E-06,0.3515625,0,0
-2.15458530874457E-05,1.05549079307821E-05,0.3515625,0,0
-1.91819763131207E-05,1.07913429019391E-05,0.3515625,0,0
-1.92416518984828E-05,1.281307413592E-05,0.3515625,0,0
-1.74250708369073E-05,1.36231265059905E-05,0.3515625,0,0
-1.87554396688938E-05,1.45527628774289E-05,0.3515625,0,0
-1.91334820556222E-05,1.39026096803718E-05,0.3515625,0,0
-2.20868241740391E-05,1.36868557092384E-05,0.3515625,0,0
-2.20905003516236E-05,1.20821805467131E-05,0.3515625,0,0
-2.35904662986286E-05,1.32795985336998E-05,0.3515625,0,0
-2.42547084781108E-05,1.60156723723048E-05,0.3515625,0,0
-2.51630481216125E-05,1.68777096405393E-05,0.3515625,0,0
-2.3382730432786E-05,1.3744108400715E-05,0.3515625,0,0
-2.11293063330231E-05,1.08068015833851E-05,0.3515625,0,0
-1.93706255231518E-05,1.00874831332476E-05,0.3515625,0,0
-1.94985841517337E-05,1.01857831396046E-05,0.3515625,0,0
-1.75903696799651E-05,9.55430095928023E-06,0.3515625,0,0
-2.6381530915387E-05,1.47035862028133E-05,0.3515625,0,0
-2.2293335860013E-05,1.20691938718664E-05,0.3515625,0,0
-2.69991433015093E-05,1.34427555167349E-05,0.3515625,0,0
-2.30628756980877E-05,1.12370171336806E-05,0.3515625,0,0
-2.55411287071183E-05,1.19919968710747E-05,0.3515625,0,0
-2.47115149250021E-05,1.03223210317083E-05,0.3515625,0,0
-2.64763712038985E-05,9.55676387093263E-06,0.3515625,0,0
-2.5962643121602E-05,8.48812396725407E-06,0.3515625,0,0
-2.50086486630607E-05,9.2127393145347E-06,0.3515625,0,0
-2.38447646552231E-05,1.14917202154174E-05,0.3515625,0,0
-2.23933893721551E-05,1.34706669996376E-05,0.3515625,0,0
-2.39883011090569E-05,1.39912990562152E-05,0.3515625,0,0
-2.4925779143814E-05,1.24768512250739E-05,0.3515625,0,0
-2.68061630777083E-05,1.20383592729922E-05,0.3515625,0,0
-2.55347331403755E-05,1.19393453132943E-05,0.3515625,0,0
-2.52617792284582E-05,1.36659655254334E-05,0.3515625,0,0
-2.29590204980923E-05,1.33121202452458E-05,0.3515625,0,0
-2.30237419600599E-05,1.23240115499357E-05,0.3515625,0,0
-2.29388970183209E-05,9.9116359706386E-06,0.3515625,0,0
-2.457437767589E-05,8.08937966212397E-06,0.3515625,0,0
-2.4208493414335E-05,6.14255077380221E-06,0.3515625,0,0
-2.37356380239362E-05,6.46646049062838E-06,0.3515625,0,0
-2.18240456888452E-05,8.38349387777271E-06,0.3515625,0,0
-2.10898106161039E-05,1.00101678981446E-05,0.3515625,0,0
-2.21619520743843E-05,1.01673513199785E-05,0.3515625,0,0
-2.43514041358139E-05,1.05709868876147E-05,0.3515625,0,0
-2.04142852453515E-05,9.13485109776957E-06,0.3515625,0,0
-2.78515890386188E-05,1.29514528453001E-05,0.3515625,0,0
-1.96386190509656E-05,8.37788684293628E-06,0.3515625,0,0
-2.42143469222356E-05,7.59232489144779E-06,0.3515625,0,0
-1.82796229637461E-05,3.87535055779153E-06,0.3515625,0,0
-2.10511007026071E-05,4.90223374072229E-06,0.3515625,0,0
-2.07264183700318E-05,4.12216650147457E-06,0.3515625,0,0
-2.39003020396922E-05,5.03873525303788E-06,0.3515625,0,0
-2.40558929363033E-05,4.70602162749856E-06,0.3515625,0,0
-2.35315055761021E-05,4.63329297417658E-06,0.3515625,0,0
-2.25184849114157E-05,5.11496637045639E-06,0.3515625,0,0
-2.07739867619239E-05,4.26587257607025E-06,0.3515625,0,0
-2.1576473955065E-05,4.38284632764407E-06,0.3515625,0,0
-2.17519591387827E-05,5.28432428836823E-06,0.3515625,0,0
-2.37153053603834E-05,8.54923200677149E-06,0.3515625,0,0
-2.2360822185874E-05,1.0990730515914E-05,0.3515625,0,0
-2.27831369556952E-05,1.28609726743889E-05,0.3515625,0,0
-2.1110185116413E-05,1.21407956612529E-05,0.3515625,0,0
-2.19905650737928E-05,1.14590948214754E-05,0.3515625,0,0
-2.07071389013436E-05,1.0727653716458E-05,0.3515625,0,0
-1.96972396224737E-05,1.21555940495455E-05,0.3515625,0,0
-1.80914266820764E-05,1.29274158098269E-05,0.3515625,0,0
-2.04995030799182E-05,1.36864246087498E-05,0.3515625,0,0
-2.16472672036616E-05,1.40153533720877E-05,0.3515625,0,0
-2.16374792216811E-05,1.39314970510895E-05,0.3515625,0,0
-2.16487696889089E-05,1.33579242174164E-05,0.3515625,0,0
-2.10208490898367E-05,1.3609511370305E-05,0.3515625,0,0
-1.6227328160312E-05,1.18406896945089E-05,0.3515625,0,0
-2.43181875703158E-05,1.76291632669745E-05,0.3515625,0,0
-2.15086438402068E-05,1.40989068313502E-05,0.3515625,0,0
-2.68255153059727E-05,1.69420818565413E-05,0.3515625,0,0
-2.34708768402925E-05,1.47485325214802E-05,0.3515625,0,0
-2.59440639638342E-05,1.57094291353133E-05,0.3515625,0,0
-2.36348769249162E-05,1.28638530441094E-05,0.3515625,0,0
-2.30818623094819E-05,1.28627825688454E-05,0.3515625,0,0
-2.24845953198383E-05,1.35823920572875E-05,0.3515625,0,0
-2.40919507632498E-05,1.51040649143397E-05,0.3515625,0,0
-2.54102833423531E-05,1.5911711670924E-05,0.3515625,0,0
-2.50259236054262E-05,1.55844627443003E-05,0.3515625,0,0
-2.58096915786155E-05,1.51783851833898E-05,0.3515625,0,0
-2.50122975558043E-05,1.33143557832227E-05,0.3515625,0,0
-2.55320774158463E-05,1.28503397718305E-05,0.3515625,0,0
-2.36348532780539E-05,1.14985914478893E-05,0.3515625,0,0
-2.31400754273636E-05,1.19960432130028E-05,0.3515625,0,0
-2.21040954784257E-05,1.18184398161247E-05,0.3515625,0,0
-2.44160255533643E-05,1.29564723465592E-05,0.3515625,0,0
-2.51937435677974E-05,1.30519229060155E-05,0.3515625,0,0
-2.56138664553873E-05,1.42064136525732E-05,0.3515625,0,0
-2.37556469073752E-05,1.43970955832629E-05,0.3515625,0,0
-2.30473451665603E-05,1.43623274198035E-05,0.3515625,0,0
-2.22609232878312E-05,1.26944669318618E-05,0.3515625,0,0
-2.19972498598509E-05,1.0506418220757E-05,0.3515625,0,0
-2.16592434298946E-05,8.63981586007867E-06,0.3515625,0,0
-2.10186917684041E-05,8.47137562232092E-06,0.3515625,0,0
-1.74343604157912E-05,9.00731811270816E-06,0.3515625,0,0
-2.59456319327001E-05,1.47212049341761E-05,0.3515625,0,0
-2.12371014640667E-05,1.28747151393327E-05,0.3515625,0,0
-2.62680059677223E-05,1.48378230733215E-05,0.3515625,0,0
-2.39436922129244E-05,1.31916103782714E-05,0.3515625,0,0
-2.74358080787351E-05,1.42660146593698E-05,0.3515625,0,0
-2.62700268649496E-05,1.50031773955561E-05,0.3515625,0,0
-2.67845443886472E-05,1.66703466675244E-05,0.3515625,0,0
-2.45754599745851E-05,1.63727218023269E-05,0.3515625,0,0
-2.31658177654026E-05,1.52830052684294E-05,0.3515625,0,0
-2.32179572776658E-05,1.3852622032573E-05,0.3515625,0,0
-2.28469380090246E-05,1.20521126518724E-05,0.3515625,0,0
-2.40859844780061E-05,1.25845172078698E-05,0.3515625,0,0
-2.45385690504918E-05,1.2852899999416E-05,0.3515625,0,0
-2.64876762230415E-05,1.28065839817282E-05,0.3515625,0,0
-2.58947584370617E-05,1.04574219221831E-05,0.3515625,0,0
-2.6794523364515E-05,9.13910389499506E-06,0.3515625,0,0
-2.61413824773626E-05,9.08801666810177E-06,0.3515625,0,0
-2.72654888249235E-05,1.06559982668841E-05,0.3515625,0,0
-2.61756085819798E-05,1.09608936327277E-05,0.3515625,0,0
-2.57150568359066E-05,1.0405260582047E-05,0.3515625,0,0
-2.38792708842084E-05,1.00547977126553E-05,0.3515625,0,0
-2.27130021812627E-05,1.1707754310919E-05,0.3515625,0,0
-2.20511956285918E-05,1.29159898278886E-05,0.3515625,0,0
-2.38827979046619E-05,1.34384717966896E-05,0.3515625,0,0
-2.58544787357096E-05,1.23784211609745E-05,0.3515625,0,0
-2.62616013060324E-05,1.0346371709602E-05,0.3515625,0,0
-2.11036003747722E-05,6.94225309416652E-06,0.3515625,0,0
-3.07831360260025E-05,9.3463204393629E-06,0.3515625,0,0
-2.42598016484408E-05,6.62735874357168E-06,0.3515625,0,0
-2.91233609459596E-05,7.48725051380461E-06,0.3515625,0,0
-2.46582658292027E-05,3.30288503391785E-06,0.3515625,0,0
-2.77345843642252E-05,1.36433311581641E-06,0.3515625,0,0
-2.5039760657819E-05,-5.52147866983432E-07,0.3515625,0,0
-2.50247503572609E-05,8.11911149867228E-07,0.3515625,0,0
-2.26006377488375E-05,1.99776923182071E-06,0.3515625,0,0
-2.20803904085187E-05,4.92718891109689E-06,0.3515625,0,0
-2.33651662711054E-05,8.76977992447792E-06,0.3515625,0,0
-2.38903376157396E-05,1.15324719445198E-05,0.3515625,0,0
-2.45954197453102E-05,1.26238019220182E-05,0.3515625,0,0
-2.28472817980219E-05,1.07557207229547E-05,0.3515625,0,0
-2.44282673520502E-05,8.71917382028187E-06,0.3515625,0,0
-2.56944131251657E-05,7.17182501830393E-06,0.3515625,0,0
-2.89156869257567E-05,9.15248347155284E-06,0.3515625,0,0
-2.78012485068757E-05,1.10833516373532E-05,0.3515625,0,0
-2.8189107979415E-05,1.14936019599554E-05,0.3515625,0,0
-2.69761512754485E-05,9.46418549574446E-06,0.3515625,0,0
-2.68865860562073E-05,8.6249528976623E-06,0.3515625,0,0
-2.58636573562399E-05,8.80833522387547E-06,0.3515625,0,0
-2.71703029284254E-05,1.11410226963926E-05,0.3515625,0,0
-2.66861006821273E-05,1.31384194901329E-05,0.3515625,0,0
-2.5085219022003E-05,1.37402621476213E-05,0.3515625,0,0
-2.24658306251513E-05,1.27755038192845E-05,0.3515625,0,0
-2.15668060263852E-05,1.13836313175852E-05,0.3515625,0,0
-1.79903945536353E-05,7.48676666262327E-06,0.3515625,0,0
-2.56560397247085E-05,9.59366479946766E-06,0.3515625,0,0
-1.9299281120766E-05,7.59416889195563E-06,0.3515625,0,0
-2.29474771913374E-05,1.33266839839052E-05,0.3515625,0,0
-1.84638283826644E-05,1.46826505442732E-05,0.3515625,0,0
-2.07479588425485E-05,1.53887867782032E-05,0.3515625,0,0
-1.91557064681547E-05,1.14109579953947E-05,0.3515625,0,0
-2.09894260478904E-05,9.41683356359135E-06,0.3515625,0,0
-2.17609158426058E-05,9.43174018175341E-06,0.3515625,0,0
-2.26420834223973E-05,1.26809682114981E-05,0.3515625,0,0
-2.26927932089893E-05,1.60796080308501E-05,0.3515625,0,0
-2.1567544536083E-05,1.63953427545493E-05,0.3515625,0,0
-2.1614738216158E-05,1.47603268487728E-05,0.3515625,0,0
-2.07453304028604E-05,1.22904648378608E-05,0.3515625,0,0
-2.30519854085287E-05,1.19511778393644E-05,0.3515625,0,0
-2.28067565331003E-05,1.08922822619206E-05,0.3515625,0,0
-2.28891676670173E-05,1.09276288640103E-05,0.3515625,0,0
-2.08239198400406E-05,1.08732465378125E-05,0.3515625,0,0
-2.23786882997956E-05,1.16619312393595E-05,0.3515625,0,0
-2.39946111832978E-05,1.08777812783956E-05,0.3515625,0,0
-2.61823042819742E-05,1.02906587926554E-05,0.3515625,0,0
-2.52219324465841E-05,9.26520806387998E-06,0.3515625,0,0
-2.42516543949023E-05,8.46324292069767E-06,0.3515625,0,0
-2.36498217418557E-05,7.46788509786711E-06,0.3515625,0,0
-2.51224355451996E-05,7.28424811313744E-06,0.3515625,0,0
-2.68371131824097E-05,7.16143722456764E-06,0.3515625,0,0
-2.74314897978911E-05,6.94429991199286E-06,0.3515625,0,0
-2.11039423447801E-05,6.96434244673583E-06,0.3515625,0,0
-2.94687415589578E-05,1.35307946038665E-05,0.3515625,0,0
-2.17169108509552E-05,1.47842638398288E-05,0.3515625,0,0
-2.78992301900871E-05,1.47885884871357E-05,0.3515625,0,0
-2.45286810240941E-05,1.09343400254147E-05,0.3515625,0,0
-2.63788133452181E-05,9.9573953775689E-06,0.3515625,0,0
-2.05288379220292E-05,8.76273861649679E-06,0.3515625,0,0
-1.90644695976516E-05,9.22519666346489E-06,0.3515625,0,0
-1.91441467904951E-05,9.78276693786029E-06,0.3515625,0,0
-2.24438499571988E-05,1.10757800939609E-05,0.3515625,0,0
-2.54341248364653E-05,1.25336591736414E-05,0.3515625,0,0
-2.52964182436699E-05,1.23527634059428E-05,0.3515625,0,0
-2.53738198807696E-05,1.06374154711375E-05,0.3515625,0,0
-2.36504383792635E-05,8.58388830238255E-06,0.3515625,0,0
-2.45811315835454E-05,8.63346303958679E-06,0.3515625,0,0
-2.30573750741314E-05,8.61062471813057E-06,0.3515625,0,0
-2.32599250011845E-05,8.28460179036483E-06,0.3515625,0,0
-2.16340904444223E-05,6.87447982272715E-06,0.3515625,0,0
-2.30573259614175E-05,6.51590607958497E-06,0.3515625,0,0
-2.23762217501644E-05,6.46046737529105E-06,0.3515625,0,0
-2.28654607781209E-05,7.38798644306371E-06,0.3515625,0,0
-2.35975276154932E-05,7.95086361904396E-06,0.3515625,0,0
-2.70092368737096E-05,8.83111897564959E-06,0.3515625,0,0
-2.82015043922002E-05,9.56902567850193E-06,0.3515625,0,0
-2.67780524154659E-05,1.0355871381762E-05,0.3515625,0,0
-2.44097245740704E-05,1.17458175736829E-05,0.3515625,0,0
-2.52710688073421E-05,1.26399945656885E-05,0.3515625,0,0
-2.07045814022422E-05,1.02060002973303E-05,0.3515625,0,0
-2.84842899418436E-05,1.34652964334236E-05,0.3515625,0,0
-2.0837867850787E-05,7.63413481763564E-06,0.3515625,0,0
-2.71997614618158E-05,7.79868605604861E-06,0.3515625,0,0
-2.30479927267879E-05,4.76287505080109E-06,0.3515625,0,0
-2.4967239369289E-05,7.20620209904155E-06,0.3515625,0,0
-2.30916630243883E-05,7.7805716500734E-06,0.3515625,0,0
-2.54187634709524E-05,9.44660587265389E-06,0.3515625,0,0
-2.43069771386217E-05,8.89115472091362E-06,0.3515625,0,0
-2.35286333918339E-05,9.25251788430614E-06,0.3515625,0,0
-2.3679951482336E-05,1.14263375508017E-05,0.3515625,0,0
-2.23743372771423E-05,1.42545550261275E-05,0.3515625,0,0
-2.17016549868276E-05,1.61071347974939E-05,0.3515625,0,0
-1.97723566088825E-05,1.52903648995562E-05,0.3515625,0,0
-2.14035826502368E-05,1.5575225916109E-05,0.3515625,0,0
-2.12911727430765E-05,1.49686757140444E-05,0.3515625,0,0
-2.32701386266854E-05,1.5461189832422E-05,0.3515625,0,0
-2.32232214329997E-05,1.40664451464545E-05,0.3515625,0,0
-2.48275282501709E-05,1.29738282339531E-05,0.3515625,0,0
-2.30295881920028E-05,1.12350035124109E-05,0.3515625,0,0
-2.1978670702083E-05,1.04475338957855E-05,0.3515625,0,0
-2.13904731936054E-05,8.30506905913353E-06,0.3515625,0,0
-2.43505401158473E-05,7.59443128117709E-06,0.3515625,0,0
-2.59051103057573E-05,7.68505651649321E-06,0.3515625,0,0
-2.61232562479563E-05,8.73058343131561E-06,0.3515625,0,0
-2.50631037488347E-05,9.03845284483396E-06,0.3515625,0,0
-2.52151548920665E-05,8.76198100741021E-06,0.3515625,0,0
-2.13898256333778E-05,7.64399828767637E-06,0.3515625,0,0
-2.98399154416984E-05,1.17370018415386E-05,0.3515625,0,0
-2.16497446672292E-05,1.10079354271875E-05,0.3515625,0,0
-2.63457350229146E-05,1.47201881190995E-05,0.3515625,0,0
-2.2003781850799E-05,1.35202690216829E-05,0.3515625,0,0
-2.61590994341532E-05,1.23571317089954E-05,0.3515625,0,0
-2.41623947658809E-05,9.04626449482748E-06,0.3515625,0,0
-2.49453278229339E-05,8.95308130566264E-06,0.3515625,0,0
-2.41948928305646E-05,1.0153909897781E-05,0.3515625,0,0
-2.3966980734258E-05,1.14528556878213E-05,0.3515625,0,0
-2.42711757891811E-05,1.16829833132215E-05,0.3515625,0,0
-2.48262094828533E-05,1.04299069789704E-05,0.3515625,0,0
-2.77864273812156E-05,9.47045737120789E-06,0.3515625,0,0
-2.72241286438657E-05,8.65177480591228E-06,0.3515625,0,0
-2.66535025730263E-05,9.94665151665686E-06,0.3515625,0,0
-2.30437490245095E-05,1.09625443656114E-05,0.3515625,0,0
-2.22838116314961E-05,1.19504284157301E-05,0.3515625,0,0
-2.04500211111736E-05,9.77911076915916E-06,0.3515625,0,0
-2.18709355976898E-05,7.62580339142005E-06,0.3515625,0,0
-2.20815381908324E-05,7.63738535169978E-06,0.3515625,0,0
-2.32898291869788E-05,1.03878655863809E-05,0.3515625,0,0
-2.22504895646125E-05,1.24866865007789E-05,0.3515625,0,0
-2.30466630455339E-05,1.39744979605894E-05,0.3515625,0,0
-2.38358643400716E-05,1.41216514748521E-05,0.3515625,0,0
-2.49616605287883E-05,1.32514751385315E-05,0.3515625,0,0
-2.39365472225472E-05,1.15492603072198E-05,0.3515625,0,0
-2.266022056574E-05,8.90813043952221E-06,0.3515625,0,0
-1.92206334759248E-05,5.73049328522757E-06,0.3515625,0,0
-2.84447341982741E-05,7.72076145949541E-06,0.3515625,0,0
-2.3423974198522E-05,5.63407274967176E-06,0.3515625,0,0
-2.87729108094936E-05,7.73531428421848E-06,0.3515625,0,0
-2.45215524046216E-05,8.16619740362512E-06,0.3515625,0,0
-2.63269794231746E-05,1.10785131255398E-05,0.3515625,0,0
-2.44888360612094E-05,1.06444977063802E-05,0.3515625,0,0
-2.60806555161253E-05,9.79685319180135E-06,0.3515625,0,0
-2.57198189501651E-05,9.08473793970188E-06,0.3515625,0,0
-2.54953538387781E-05,9.58401324169245E-06,0.3515625,0,0
-2.50511166086653E-05,1.13045971374959E-05,0.3515625,0,0
-2.34014642046532E-05,1.33785097204964E-05,0.3515625,0,0
-2.39762503042584E-05,1.54545959958341E-05,0.3515625,0,0
-2.38011143665062E-05,1.59243772941409E-05,0.3515625,0,0
-2.53067846642807E-05,1.57866270455997E-05,0.3515625,0,0
-2.45582450588699E-05,1.38152645376977E-05,0.3515625,0,0
-2.51642013608944E-05,1.26092054415494E-05,0.3515625,0,0
-2.3032356693875E-05,1.18836233014008E-05,0.3515625,0,0
-2.31855919992086E-05,1.26441154861823E-05,0.3515625,0,0
-2.22363214561483E-05,1.26591467051185E-05,0.3515625,0,0
-2.26080446736887E-05,1.34113570311456E-05,0.3515625,0,0
-2.20049969357206E-05,1.42713151944918E-05,0.3515625,0,0
-2.29145534831332E-05,1.32434925035341E-05,0.3515625,0,0
-2.35145653277868E-05,9.93419325823197E-06,0.3515625,0,0
-2.52379159064731E-05,8.95522316568531E-06,0.3515625,0,0
-2.6819237973541E-05,1.10049168142723E-05,0.3515625,0,0
-2.64052487182198E-05,1.30647258629324E-05,0.3515625,0,0
-2.01569928321987E-05,1.11490471681464E-05,0.3515625,0,0
-2.8764907256118E-05,1.52254597196588E-05,0.3515625,0,0
-2.21521859202767E-05,1.08725644167862E-05,0.3515625,0,0
-2.64094342128374E-05,1.29688251035986E-05,0.3515625,0,0
-2.03675390366698E-05,9.3873104560771E-06,0.3515625,0,0
-2.34807430388173E-05,1.0639646461641E-05,0.3515625,0,0
-2.25321473408258E-05,9.95417849480873E-06,0.3515625,0,0
-2.32893362408504E-05,1.26177837955765E-05,0.3515625,0,0
-2.1634868971887E-05,1.33249204736785E-05,0.3515625,0,0
-2.1117559299455E-05,1.39105759444647E-05,0.3515625,0,0
-2.20202309719753E-05,1.54802764882334E-05,0.3515625,0,0
-2.19603771256516E-05,1.67264261108357E-05,0.3515625,0,0
-2.23241659114137E-05,1.79057042259956E-05,0.3515625,0,0
-2.05914748221403E-05,1.68829537869897E-05,0.3515625,0,0
-2.12265185837168E-05,1.6369927834603E-05,0.3515625,0,0
-1.95152369997231E-05,1.31584947666852E-05,0.3515625,0,0
-1.98099078261293E-05,9.59715362114366E-06,0.3515625,0,0
-1.90263635886367E-05,6.305266651907E-06,0.3515625,0,0
-2.07201192097273E-05,8.26384075480746E-06,0.3515625,0,0
-1.95544216694543E-05,1.043949941959E-05,0.3515625,0,0
-2.01234997803112E-05,1.17053596113692E-05,0.3515625,0,0
-2.11350652534748E-05,1.06371280708117E-05,0.3515625,0,0
-2.35079060075805E-05,9.64020000537857E-06,0.3515625,0,0
-2.40027056861436E-05,9.06599325389834E-06,0.3515625,0,0
-2.50461453106254E-05,1.05689578049351E-05,0.3515625,0,0
-2.60313991020666E-05,1.1349817214068E-05,0.3515625,0,0
-2.52248210017569E-05,1.0990901500918E-05,0.3515625,0,0
-1.94816639123019E-05,8.59490228322102E-06,0.3515625,0,0
-2.80546628346201E-05,1.15156817628304E-05,0.3515625,0,0
-2.23084480239777E-05,6.45766704110429E-06,0.3515625,0,0
-2.83620775007876E-05,7.24070423530065E-06,0.3515625,0,0
-2.42916867136955E-05,5.08399625687161E-06,0.3515625,0,0
-2.59586213360308E-05,4.93333845952293E-06,0.3515625,0,0
-2.36230262089521E-05,3.43991860063397E-06,0.3515625,0,0
-2.43576942011714E-05,5.20521825819742E-06,0.3515625,0,0
-2.3955901269801E-05,6.02980117037077E-06,0.3515625,0,0
-2.53311100095743E-05,4.105329480808E-06,0.3515625,0,0
-2.60820706898812E-05,9.18182706755033E-07,0.3515625,0,0
-2.46613853960298E-05,-5.44459567208833E-07,0.3515625,0,0
-2.43223348661559E-05,2.520267116779E-06,0.3515625,0,0
-2.25510921154637E-05,5.62587865715614E-06,0.3515625,0,0
-2.2795833501732E-05,7.49261516830302E-06,0.3515625,0,0
-2.18133554881206E-05,7.05235152054229E-06,0.3515625,0,0
-2.43127251451369E-05,7.04108242643997E-06,0.3515625,0,0
-2.43114573095227E-05,5.86079386266647E-06,0.3515625,0,0
-2.56377697951393E-05,5.33250204171054E-06,0.3515625,0,0
-2.56354978773743E-05,4.78577294416027E-06,0.3515625,0,0
-2.71077988145407E-05,5.52129131392576E-06,0.3515625,0,0
-2.70981272478821E-05,6.30153044767212E-06,0.3515625,0,0
-2.76570644928142E-05,7.92028004070744E-06,0.3515625,0,0
-2.68810927082086E-05,9.11998449737439E-06,0.3515625,0,0
-2.66399329120759E-05,9.72123780229595E-06,0.3515625,0,0
-2.65847374976147E-05,1.05947119664052E-05,0.3515625,0,0
-2.62825560639612E-05,1.35169157147175E-05,0.3515625,0,0
-2.08390465559205E-05,1.142358269135E-05,0.3515625,0,0
-2.94675191980787E-05,1.53492874233052E-05,0.3515625,0,0
-2.3269663870451E-05,1.0784200640046E-05,0.3515625,0,0
-3.0707578844158E-05,1.44973373608082E-05,0.3515625,0,0
-2.72453489742475E-05,1.2035874533467E-05,0.3515625,0,0
-2.91434280370595E-05,1.42622411658522E-05,0.3515625,0,0
-2.47260832111351E-05,1.47542104969034E-05,0.3515625,0,0
-2.42061778408242E-05,1.56801816046936E-05,0.3515625,0,0
-2.37570002354914E-05,1.35853861138457E-05,0.3515625,0,0
-2.46676754613873E-05,1.2119036000513E-05,0.3515625,0,0
-2.56070507020922E-05,1.19781780085759E-05,0.3515625,0,0
-2.50634930125671E-05,1.07329851743998E-05,0.3515625,0,0
-2.51898618444102E-05,9.53565995587269E-06,0.3515625,0,0
-2.32835700444411E-05,8.4215516835684E-06,0.3515625,0,0
-2.35757051996188E-05,9.32422699406743E-06,0.3515625,0,0
-2.1631862182403E-05,9.58915461524157E-06,0.3515625,0,0
-2.23362494580215E-05,1.25929454952711E-05,0.3515625,0,0
-2.17913657252211E-05,1.47716355058947E-05,0.3515625,0,0
-2.37703061429784E-05,1.61428761202842E-05,0.3515625,0,0
-2.31250487559009E-05,1.56553269334836E-05,0.3515625,0,0
-2.28390526899602E-05,1.59064311446855E-05,0.3515625,0,0
-2.11354363273131E-05,1.40523334266618E-05,0.3515625,0,0
-2.21011141547933E-05,1.1806029760919E-05,0.3515625,0,0
-2.35671486734645E-05,9.04598618944874E-06,0.3515625,0,0
-2.56496914516902E-05,9.19930153031601E-06,0.3515625,0,0
-2.5646751964814E-05,1.05199551398982E-05,0.3515625,0,0
-2.41730158450082E-05,1.05962972156703E-05,0.3515625,0,0
-1.81234372576E-05,8.58959720062558E-06,0.3515625,0,0
-2.49331187660573E-05,1.21787688840413E-05,0.3515625,0,0
-1.88651356438641E-05,9.30454552872106E-06,0.3515625,0,0
-2.46770978264976E-05,1.17961953947088E-05,0.3515625,0,0
-2.03755480470136E-05,1.05694134617806E-05,0.3515625,0,0
-2.08902365557151E-05,1.09451711978181E-05,0.3515625,0,0
-1.72355885297293E-05,8.04167484602658E-06,0.3515625,0,0
-1.8146944057662E-05,7.95681353338296E-06,0.3515625,0,0
-1.94800795725314E-05,9.12851737666642E-06,0.3515625,0,0
-2.22483176912647E-05,1.09224929474294E-05,0.3515625,0,0
-2.28478675126098E-05,1.2214063644933E-05,0.3515625,0,0
-2.12296672543744E-05,1.30898706629523E-05,0.3515625,0,0
-2.18688182940241E-05,1.37596507556736E-05,0.3515625,0,0
-2.1781146642752E-05,1.23655845527537E-05,0.3515625,0,0
-2.25143903662683E-05,1.29610089061316E-05,0.3515625,0,0
-2.01392103917897E-05,1.42375411087414E-05,0.3515625,0,0
-2.08711098821368E-05,1.59416231326759E-05,0.3515625,0,0
-2.11708811548306E-05,1.53684159158729E-05,0.3515625,0,0
-2.37269887293223E-05,1.49074994624243E-05,0.3515625,0,0
-2.41538073169068E-05,1.44754385473789E-05,0.3515625,0,0
-2.56903640547534E-05,1.57513168232981E-05,0.3515625,0,0
-2.55458926403662E-05,1.42661683639744E-05,0.3515625,0,0
-2.65000035142293E-05,1.08310641735443E-05,0.3515625,0,0
-2.64004465861944E-05,8.89219063537894E-06,0.3515625,0,0
-2.63973743130919E-05,1.05673016150831E-05,0.3515625,0,0
-2.60600882029394E-05,1.27089679153869E-05,0.3515625,0,0
-2.62406811089022E-05,1.21862594824051E-05,0.3515625,0,0
-2.31514604820404E-05,8.58530802361201E-06,0.3515625,0,0
-3.36777011398226E-05,1.17888102977304E-05,0.3515625,0,0
-2.55964932875941E-05,8.60071031638654E-06,0.3515625,0,0
-2.99377843475668E-05,1.07983869384043E-05,0.3515625,0,0
-2.40866702370113E-05,9.19246213015867E-06,0.3515625,0,0
-2.69729862338863E-05,1.13218811748084E-05,0.3515625,0,0
-2.48492870014161E-05,1.12057778096641E-05,0.3515625,0,0
-2.52196114161052E-05,1.19516653285245E-05,0.3515625,0,0
-2.24951872951351E-05,1.10029959614621E-05,0.3515625,0,0
-2.05811084015295E-05,9.75812417891575E-06,0.3515625,0,0
-2.05947035283316E-05,8.64627236296656E-06,0.3515625,0,0
-2.105057319568E-05,6.96500683261547E-06,0.3515625,0,0
-2.3461097953259E-05,6.35878677712753E-06,0.3515625,0,0
-2.25828371185344E-05,6.70568215355161E-06,0.3515625,0,0
-2.20032616198296E-05,9.26099164644256E-06,0.3515625,0,0
-1.8229913621326E-05,9.87756538961548E-06,0.3515625,0,0
-1.81437626451952E-05,1.06965544546256E-05,0.3515625,0,0
-1.85044045792893E-05,1.05586777863209E-05,0.3515625,0,0
-2.33659866353264E-05,1.07257646959624E-05,0.3515625,0,0
-2.59713942796225E-05,1.04615000964259E-05,0.3515625,0,0
-2.75103593594395E-05,1.18517427836196E-05,0.3515625,0,0
-2.5526482204441E-05,1.10058872451191E-05,0.3515625,0,0
-2.48844971793005E-05,8.339425221493E-06,0.3515625,0,0
-2.46432609856129E-05,6.75577712172526E-06,0.3515625,0,0
-2.57455976679921E-05,7.76858360040933E-06,0.3515625,0,0
-2.68296316789929E-05,9.12814994080691E-06,0.3515625,0,0
-2.80202857538825E-05,9.74186968960566E-06,0.3515625,0,0
-2.35744155361317E-05,6.94912023391225E-06,0.3515625,0,0
-3.26661429426167E-05,9.07578760234173E-06,0.3515625,0,0
-2.31291614909424E-05,6.63321134197759E-06,0.3515625,0,0
-2.8707219826174E-05,7.98822293290868E-06,0.3515625,0,0
-2.2539054043591E-05,5.52251822227845E-06,0.3515625,0,0
-2.26634347200161E-05,7.7719532782794E-06,0.3515625,0,0
-1.82151488843374E-05,8.43544694362208E-06,0.3515625,0,0
-1.97125827980926E-05,9.86543636827264E-06,0.3515625,0,0
-2.11871356441407E-05,9.3621720225201E-06,0.3515625,0,0
-2.28397057071561E-05,8.71684551384533E-06,0.3515625,0,0
-2.30801560974214E-05,9.53696235228563E-06,0.3515625,0,0
-2.20564525079681E-05,1.12493526103208E-05,0.3515625,0,0
-2.29563393077115E-05,1.31644874272752E-05,0.3515625,0,0
-2.19317298615351E-05,1.28582678371458E-05,0.3515625,0,0
-2.34555282077054E-05,1.22970595839433E-05,0.3515625,0,0
-2.19552057387773E-05,1.08032227217336E-05,0.3515625,0,0
-2.2621316020377E-05,1.14626618596958E-05,0.3515625,0,0
-2.08874917007051E-05,1.26386203191942E-05,0.3515625,0,0
-2.15772197407205E-05,1.37293973239139E-05,0.3515625,0,0
-2.08597994060256E-05,1.26571458167746E-05,0.3515625,0,0
-2.25760486500803E-05,1.26842014651629E-05,0.3515625,0,0
-2.26830288738711E-05,1.34957399495761E-05,0.3515625,0,0
-2.27609216381097E-05,1.47666823977488E-05,0.3515625,0,0
-2.09932986763306E-05,1.6071349818958E-05,0.3515625,0,0
-2.15667732845759E-05,1.9090231944574E-05,0.3515625,0,0
-2.30163532251026E-05,2.12581580854021E-05,0.3515625,0,0
-2.3230353690451E-05,2.20894089579815E-05,0.3515625,0,0
-1.8406373783364E-05,1.69959312188439E-05,0.3515625,0,0
-2.66247934632702E-05,2.2897811504663E-05,0.3515625,0,0
-2.22176258830586E-05,1.63771801453549E-05,0.3515625,0,0
-2.78660900221439E-05,2.06770328077255E-05,0.3515625,0,0
-2.30848945648177E-05,1.58932598424144E-05,0.3515625,0,0
-2.47179923462681E-05,1.79646849574056E-05,0.3515625,0,0
-2.25741423491854E-05,1.57169579324545E-05,0.3515625,0,0
-2.32486745517235E-05,1.53776290972019E-05,0.3515625,0,0
-2.23838542297017E-05,1.23497611639323E-05,0.3515625,0,0
-2.23703955271048E-05,1.10820528789191E-05,0.3515625,0,0
-2.20744150283281E-05,9.87377006822499E-06,0.3515625,0,0
-2.22972194023896E-05,7.98736800788902E-06,0.3515625,0,0
-2.52519002970075E-05,8.21341927803587E-06,0.3515625,0,0
-2.58990821748739E-05,7.12818473402876E-06,0.3515625,0,0
-2.70753916993272E-05,6.68231359668425E-06,0.3515625,0,0
-2.54129736276809E-05,3.64905395144888E-06,0.3515625,0,0
-2.51078272412997E-05,4.35609581472818E-06,0.3515625,0,0
-2.28166263696039E-05,4.98036752105691E-06,0.3515625,0,0
-2.37607582675992E-05,7.77075911173597E-06,0.3515625,0,0
-2.41268426179886E-05,7.97187749412842E-06,0.3515625,0,0
-2.58885866060155E-05,8.53821347845951E-06,0.3515625,0,0
-2.62859648501035E-05,7.10048880137037E-06,0.3515625,0,0
-2.72154902631883E-05,7.13668987373239E-06,0.3515625,0,0
-2.59416119661182E-05,6.96828919899417E-06,0.3515625,0,0
-2.54467813647352E-05,6.75599721944309E-06,0.3515625,0,0
-2.57544852502178E-05,5.07211734657176E-06,0.3515625,0,0
-2.5734945666045E-05,3.62511627827189E-06,0.3515625,0,0
-2.09761310543399E-05,3.18323327519465E-06,0.3515625,0,0
-3.08438284264412E-05,6.3717748162162E-06,0.3515625,0,0
-2.48823889705818E-05,7.31787758923019E-06,0.3515625,0,0
-3.05256980936974E-05,6.95870267009013E-06,0.3515625,0,0
-2.56325329246465E-05,5.26521580468398E-06,0.3515625,0,0
-2.65881353698205E-05,6.41442738924525E-06,0.3515625,0,0
-2.29020188271534E-05,7.93094659456983E-06,0.3515625,0,0
-2.38720422203187E-05,8.91523814061657E-06,0.3515625,0,0
-2.34555045608431E-05,1.0061916327686E-05,0.3515625,0,0
-2.39509663515491E-05,1.04817363535403E-05,0.3515625,0,0
-2.48788528551813E-05,1.06796769614448E-05,0.3515625,0,0
-2.49329950747779E-05,1.17020344987395E-05,0.3515625,0,0
-2.67992454610066E-05,1.35525424411753E-05,0.3515625,0,0
-2.67371797235683E-05,1.49726365634706E-05,0.3515625,0,0
-2.79551659332355E-05,1.52607808558969E-05,0.3515625,0,0
-2.53158250416163E-05,1.42169956234284E-05,0.3515625,0,0
-2.40950739680557E-05,1.35455666168127E-05,0.3515625,0,0
-2.1046633264632E-05,1.29181380543741E-05,0.3515625,0,0
-2.14662341022631E-05,1.23038453239133E-05,0.3515625,0,0
-2.16529660974629E-05,1.21394432426314E-05,0.3515625,0,0
-2.29451725317631E-05,1.23859517771052E-05,0.3515625,0,0
-2.21937352762325E-05,1.1493920283101E-05,0.3515625,0,0
-2.32599486480467E-05,1.06575589597924E-05,0.3515625,0,0
-2.40148747252533E-05,1.10279042928596E-05,0.3515625,0,0
-2.56630901276367E-05,1.229298322869E-05,0.3515625,0,0
-2.66053866653237E-05,1.274797887163E-05,0.3515625,0,0
-2.58177078649169E-05,1.14192998807994E-05,0.3515625,0,0
-1.92043280549115E-05,6.10395545663778E-06,0.3515625,0,0
-2.64903901552316E-05,7.68221798352897E-06,0.3515625,0,0
-1.90229602594627E-05,6.09403377893614E-06,0.3515625,0,0
-2.40395675064065E-05,8.84416749613592E-06,0.3515625,0,0
-1.98172838281607E-05,7.36221591068897E-06,0.3515625,0,0
-2.18811601371272E-05,1.05915341919172E-05,0.3515625,0,0
-2.01052262127632E-05,1.29734453366837E-05,0.3515625,0,0
-2.21572972805006E-05,1.63839158631163E-05,0.3515625,0,0
-2.21198315557558E-05,1.77723959495779E-05,0.3515625,0,0
-2.25422354560578E-05,1.66582321980968E-05,0.3515625,0,0
-2.30563946388429E-05,1.34255051307264E-05,0.3515625,0,0
-2.30534278671257E-05,1.13782853077282E-05,0.3515625,0,0
-2.39050659729401E-05,1.18629832286388E-05,0.3515625,0,0
-2.19944849959575E-05,1.24888028949499E-05,0.3515625,0,0
-2.22328344534617E-05,1.37172046379419E-05,0.3515625,0,0
-2.14962201425806E-05,1.3834851415595E-05,0.3515625,0,0
-2.41793495661113E-05,1.4357711734192E-05,0.3515625,0,0
-2.51398269028869E-05,1.35523196149734E-05,0.3515625,0,0
-2.71022454398917E-05,1.34672700369265E-05,0.3515625,0,0
-2.55653012573021E-05,1.30357284433558E-05,0.3515625,0,0
-2.44867569563212E-05,1.29815634863917E-05,0.3515625,0,0
-2.2899555915501E-05,1.1678696864692E-05,0.3515625,0,0
-2.38564352912363E-05,1.13814539872692E-05,0.3515625,0,0
-2.41647194343386E-05,1.08208650999586E-05,0.3515625,0,0
-2.4096085326164E-05,1.00065308288322E-05,0.3515625,0,0
-2.36727228184463E-05,9.86029135674471E-06,0.3515625,0,0
-2.39187247643713E-05,1.0371113603469E-05,0.3515625,0,0
-1.97497047338402E-05,7.48365937397466E-06,0.3515625,0,0
-2.73929799732286E-05,9.85954102361575E-06,0.3515625,0,0
-1.98086181626422E-05,6.201638825587E-06,0.3515625,0,0
-2.56462826655479E-05,7.58672422307427E-06,0.3515625,0,0
-2.2332023945637E-05,6.76565923640737E-06,0.3515625,0,0
-2.48005089815706E-05,8.97590234671952E-06,0.3515625,0,0
-2.3256690838025E-05,7.5407515396364E-06,0.3515625,0,0
-2.58430591202341E-05,7.50211529521039E-06,0.3515625,0,0
-2.64989866991527E-05,8.59857664181618E-06,0.3515625,0,0
-2.67752493527951E-05,1.05574608824099E-05,0.3515625,0,0
-2.65708986262325E-05,1.113599864766E-05,0.3515625,0,0
-2.53990037890617E-05,1.15209004434291E-05,0.3515625,0,0
-2.57402443821775E-05,1.30465823531267E-05,0.3515625,0,0
-2.45708906732034E-05,1.26739623738104E-05,0.3515625,0,0
-2.61043551290641E-05,1.09829788925708E-05,0.3515625,0,0
-2.59301723417593E-05,8.71809334057616E-06,0.3515625,0,0
-2.75280381174525E-05,9.74667909758864E-06,0.3515625,0,0
-2.62986632151296E-05,1.0530312465562E-05,0.3515625,0,0
-2.59808857663302E-05,1.01167734101182E-05,0.3515625,0,0
-2.31531375902705E-05,7.36678248358658E-06,0.3515625,0,0
-2.32885795412585E-05,5.87416752750869E-06,0.3515625,0,0
-2.46988856815733E-05,5.15690453539719E-06,0.3515625,0,0
-2.69066131295403E-05,7.3227552093158E-06,0.3515625,0,0
-2.68705825874349E-05,1.06731549749384E-05,0.3515625,0,0
-2.7115007469547E-05,1.2015234460705E-05,0.3515625,0,0
-2.68880594376242E-05,1.14184467747691E-05,0.3515625,0,0
-2.55989652941935E-05,1.183823133033E-05,0.3515625,0,0
-1.90739829122322E-05,8.57292161526857E-06,0.3515625,0,0
-2.7211364795221E-05,1.12766347228899E-05,0.3515625,0,0
-2.22423932427773E-05,9.08795027498854E-06,0.3515625,0,0
-2.90095940727042E-05,1.31936158140888E-05,0.3515625,0,0
-2.53934049396776E-05,1.15306265797699E-05,0.3515625,0,0
-2.76176433544606E-05,1.31438455355237E-05,0.3515625,0,0
-2.50465564022306E-05,1.13507021524129E-05,0.3515625,0,0
-2.60092911048559E-05,1.1767918294936E-05,0.3515625,0,0
-2.45826322498033E-05,1.26313825603575E-05,0.3515625,0,0
-2.37673411902506E-05,1.38479172164807E-05,0.3515625,0,0
-2.46232848439831E-05,1.56580881593982E-05,0.3515625,0,0
-2.57894407695858E-05,1.70599960256368E-05,0.3515625,0,0
-2.7983795007458E-05,1.82452022272628E-05,0.3515625,0,0
-2.68932708422653E-05,1.63668664754368E-05,0.3515625,0,0
-2.67797622655053E-05,1.5436718967976E-05,0.3515625,0,0
-2.40327262872597E-05,1.46649408634403E-05,0.3515625,0,0
-2.40247009060113E-05,1.46373531606514E-05,0.3515625,0,0
-2.27026066568214E-05,1.28583606056054E-05,0.3515625,0,0
-2.37604581343476E-05,1.2745429557981E-05,0.3515625,0,0
-2.32609854720067E-05,1.2725542546832E-05,0.3515625,0,0
-2.33173977903789E-05,1.25210090118344E-05,0.3515625,0,0
-2.17217493627686E-05,9.70837299973937E-06,0.3515625,0,0
-2.18912064156029E-05,6.45821819489356E-06,0.3515625,0,0
-2.19211069634184E-05,4.21697950514499E-06,0.3515625,0,0
-2.28612989303656E-05,4.86405224364717E-06,0.3515625,0,0
-2.32647580560297E-05,6.92405137669994E-06,0.3515625,0,0
-2.27451437240234E-05,7.43200735087157E-06,0.3515625,0,0
-1.73038006323623E-05,5.8662462834036E-06,0.3515625,0,0
-2.39067612710642E-05,8.57250142871635E-06,0.3515625,0,0
-1.81674840860069E-05,6.73493423164473E-06,0.3515625,0,0
-2.32432976190466E-05,8.30470344226342E-06,0.3515625,0,0
-1.99182341020787E-05,7.5049447332276E-06,0.3515625,0,0
-2.37141775869532E-05,8.51597633300116E-06,0.3515625,0,0
-2.28708668146282E-05,8.43694670038531E-06,0.3515625,0,0
-2.33364735322539E-05,9.46686850511469E-06,0.3515625,0,0
-2.09259451366961E-05,1.04948530861293E-05,0.3515625,0,0
-1.97676818061154E-05,1.11182598629966E-05,0.3515625,0,0
-2.02845585590694E-05,1.02228450487019E-05,0.3515625,0,0
-2.08261044463143E-05,9.23481366044143E-06,0.3515625,0,0
-2.14557931030868E-05,9.63505226536654E-06,0.3515625,0,0
-1.98439229279757E-05,9.8611590146902E-06,0.3515625,0,0
-2.08667679544305E-05,9.26938901102403E-06,0.3515625,0,0
-1.99796777451411E-05,7.16958174962201E-06,0.3515625,0,0
-2.13486382563133E-05,6.27977442491101E-06,0.3515625,0,0
-2.17517044802662E-05,6.02499585511396E-06,0.3515625,0,0
-2.41795514739351E-05,7.37113532522926E-06,0.3515625,0,0
-2.37511594605166E-05,8.81164669408463E-06,0.3515625,0,0
-2.36390314967139E-05,1.15959192044102E-05,0.3515625,0,0
-2.27826967602596E-05,1.42822582347435E-05,0.3515625,0,0
-2.35025381698506E-05,1.51230615301756E-05,0.3515625,0,0
-2.31739923037821E-05,1.30687112687156E-05,0.3515625,0,0
-2.32117545237998E-05,1.08849662865396E-05,0.3515625,0,0
-2.40542358369567E-05,1.11175095298677E-05,0.3515625,0,0
-2.58605996350525E-05,1.3716990906687E-05,0.3515625,0,0
-2.09682802960742E-05,1.11520885184291E-05,0.3515625,0,0
-2.83530680462718E-05,1.44339092003065E-05,0.3515625,0,0
-1.98563393496443E-05,8.97009704203811E-06,0.3515625,0,0
-2.40324061451247E-05,1.09368238554453E-05,0.3515625,0,0
-1.84321052074665E-05,8.32007299322868E-06,0.3515625,0,0
-2.2178826839081E-05,1.06443803815637E-05,0.3515625,0,0
-2.12716167879989E-05,8.18984699435532E-06,0.3515625,0,0
-2.38563588936813E-05,6.71715042699361E-06,0.3515625,0,0
-2.33636346820276E-05,4.20574269810459E-06,0.3515625,0,0
-2.43636313825846E-05,3.81014774575306E-06,0.3515625,0,0
-2.58204181591282E-05,5.77743821850163E-06,0.3515625,0,0
-2.53577291005058E-05,8.29637883725809E-06,0.3515625,0,0
-2.49671593337553E-05,1.25215583466343E-05,0.3515625,0,0
-2.23648767132545E-05,1.49762790897512E-05,0.3515625,0,0
-2.36112555285217E-05,1.63485383382067E-05,0.3515625,0,0
-2.31573121709516E-05,1.49293982758536E-05,0.3515625,0,0
-2.54290589509765E-05,1.46704924190999E-05,0.3515625,0,0
-2.55246304732282E-05,1.30784028442577E-05,0.3515625,0,0
-2.7129197405884E-05,1.20772565423977E-05,0.3515625,0,0
-2.51129058597144E-05,9.43112991080852E-06,0.3515625,0,0
-2.39908185903914E-05,8.65469337441027E-06,0.3515625,0,0
-2.20000729314052E-05,8.72292366693728E-06,0.3515625,0,0
-2.29148226935649E-05,1.09877264549141E-05,0.3515625,0,0
-2.32563343161019E-05,1.36178787215613E-05,0.3515625,0,0
-2.29934503295226E-05,1.5301078747143E-05,0.3515625,0,0
-2.1117833966855E-05,1.51513586388319E-05,0.3515625,0,0
-1.99281512323068E-05,1.54907829710282E-05,0.3515625,0,0
-1.73201169673121E-05,1.32099212351022E-05,0.3515625,0,0
-2.48082415055251E-05,1.67926464200718E-05,0.3515625,0,0
-1.81325267476495E-05,9.80587628873764E-06,0.3515625,0,0
-2.21953141590348E-05,1.33425137391896E-05,0.3515625,0,0
-2.02412466023816E-05,1.03645870694891E-05,0.3515625,0,0
-2.25875119213015E-05,1.09368957055267E-05,0.3515625,0,0
-2.0043156837346E-05,8.32143359730253E-06,0.3515625,0,0
-2.05411161005031E-05,9.11761253519217E-06,0.3515625,0,0
-2.03940508072264E-05,1.05878498288803E-05,0.3515625,0,0
-2.21733389480505E-05,1.15607072075363E-05,0.3515625,0,0
-2.41765828832285E-05,1.06935276562581E-05,0.3515625,0,0
-2.38822740357136E-05,8.14750637800898E-06,0.3515625,0,0
-2.43443282670341E-05,6.61419835523702E-06,0.3515625,0,0
-2.46184517891379E-05,4.57395390185411E-06,0.3515625,0,0
-2.68477288045688E-05,4.50650350103388E-06,0.3515625,0,0
-2.65541439148365E-05,2.93920834337769E-06,0.3515625,0,0
-2.72568613581825E-05,3.65549112757435E-06,0.3515625,0,0
-2.5198511139024E-05,4.7099147195695E-06,0.3515625,0,0
-2.39423152379459E-05,8.29354576126207E-06,0.3515625,0,0
-2.26366737479111E-05,1.04579921753611E-05,0.3515625,0,0
-2.53438392974203E-05,1.1731779522961E-05,0.3515625,0,0
-2.5782883312786E-05,1.04464988908148E-05,0.3515625,0,0
-2.41928592004115E-05,1.0370604286436E-05,0.3515625,0,0
-2.19656940316781E-05,1.04025266409735E-05,0.3515625,0,0
-2.29582365136594E-05,9.9404132924974E-06,0.3515625,0,0
-2.4656959794811E-05,8.81315736478427E-06,0.3515625,0,0
-2.54004826274468E-05,8.62987417349359E-06,0.3515625,0,0
-2.05514552362729E-05,8.19228262116667E-06,0.3515625,0,0
-2.90962489088997E-05,1.30338557937648E-05,0.3515625,0,0
-2.14403225982096E-05,1.16047940537101E-05,0.3515625,0,0
-2.52985701081343E-05,1.16399114631349E-05,0.3515625,0,0
-1.98763082153164E-05,7.87849785410799E-06,0.3515625,0,0
-2.3090016838978E-05,9.37257391342428E-06,0.3515625,0,0
-2.23692131839925E-05,8.58408566273283E-06,0.3515625,0,0
-2.5517967515043E-05,7.70062797528226E-06,0.3515625,0,0
-2.6315798095311E-05,7.27947099221637E-06,0.3515625,0,0
-2.73582118097693E-05,7.54848088035942E-06,0.3515625,0,0
-2.72551624220796E-05,7.80395475885598E-06,0.3515625,0,0
-2.52848094532965E-05,7.76351498643635E-06,0.3515625,0,0
-2.57272658927832E-05,7.06802529748529E-06,0.3515625,0,0
-2.53910366154742E-05,4.4518301365315E-06,0.3515625,0,0
-2.68847215920687E-05,3.15980491905066E-06,0.3515625,0,0
-2.522167051211E-05,2.60618730862916E-06,0.3515625,0,0
-2.66851802734891E-05,3.70067368749005E-06,0.3515625,0,0
-2.78148945653811E-05,3.97110079575214E-06,0.3515625,0,0
-3.04434015561128E-05,5.52669553144369E-06,0.3515625,0,0
-2.845749440894E-05,7.48025104257977E-06,0.3515625,0,0
-2.66500537691172E-05,1.10194514491013E-05,0.3515625,0,0
-2.50033717748011E-05,1.36610151457717E-05,0.3515625,0,0
-2.62480043602409E-05,1.44078858284047E-05,0.3515625,0,0
-2.61756249528844E-05,1.23952331705368E-05,0.3515625,0,0
-2.52363679464906E-05,9.70750988926739E-06,0.3515625,0,0
-2.40830977418227E-05,8.27755047794199E-06,0.3515625,0,0
-2.4041670258157E-05,8.90900355443591E-06,0.3515625,0,0
-1.89431466424139E-05,8.58326529851183E-06,0.3515625,0,0
-2.71438675554236E-05,1.45530839290586E-05,0.3515625,0,0
-2.14054434763966E-05,1.4883536096022E-05,0.3515625,0,0
-2.70428645308129E-05,1.70999574038433E-05,0.3515625,0,0
-2.40113931795349E-05,1.3496392966772E-05,0.3515625,0,0
-2.7269723432255E-05,1.10591636257595E-05,0.3515625,0,0
-2.42566457018256E-05,7.14824955139193E-06,0.3515625,0,0
-2.3612712539034E-05,7.10065569364815E-06,0.3515625,0,0
-2.30873374675866E-05,7.3678711487446E-06,0.3515625,0,0
-2.39248802245129E-05,9.11172810447169E-06,0.3515625,0,0
-2.44674192799721E-05,1.13236283141305E-05,0.3515625,0,0
-2.45706305577187E-05,1.30142561829416E-05,0.3515625,0,0
-2.67110481217969E-05,1.48308108691708E-05,0.3515625,0,0
-2.64887057710439E-05,1.49794532262604E-05,0.3515625,0,0
-2.65527432929957E-05,1.5148079910432E-05,0.3515625,0,0
-2.44051425397629E-05,1.388855616824E-05,0.3515625,0,0
-2.52692861977266E-05,1.29764102894114E-05,0.3515625,0,0
-2.47405187110417E-05,1.1260885912634E-05,0.3515625,0,0
-2.60666802205378E-05,1.20872955449158E-05,0.3515625,0,0
-2.48944033955922E-05,1.44357900353498E-05,0.3515625,0,0
-2.38952943618642E-05,1.69362301676301E-05,0.3515625,0,0
-2.16843309317483E-05,1.58597340487177E-05,0.3515625,0,0
-2.12993109016679E-05,1.54707813635468E-05,0.3515625,0,0
-1.98651778191561E-05,1.70173443621024E-05,0.3515625,0,0
-2.01186358026462E-05,1.74594424606767E-05,0.3515625,0,0
-2.23494735109853E-05,1.5444584278157E-05,0.3515625,0,0
-2.45054816332413E-05,1.49673842315678E-05,0.3515625,0,0
-1.82387811946683E-05,1.21082812256645E-05,0.3515625,0,0
-2.35708375839749E-05,1.69692939380184E-05,0.3515625,0,0
-1.59399623953504E-05,1.26084814837668E-05,0.3515625,0,0
-2.14683859667275E-05,1.64678622240899E-05,0.3515625,0,0
-1.81876257556723E-05,1.47679120345856E-05,0.3515625,0,0
-2.15683103306219E-05,1.76993962668348E-05,0.3515625,0,0
-1.88942813110771E-05,1.73050175362732E-05,0.3515625,0,0
-2.01464190467959E-05,1.73894131876295E-05,0.3515625,0,0
-2.03014151338721E-05,1.58069833560148E-05,0.3515625,0,0
-2.17284723476041E-05,1.43550632856204E-05,0.3515625,0,0
-2.17658089241013E-05,1.36369326355634E-05,0.3515625,0,0
-2.03500494535547E-05,1.27147377497749E-05,0.3515625,0,0
-2.10312464332674E-05,1.17894705908839E-05,0.3515625,0,0
-2.10275993595133E-05,9.44574549066601E-06,0.3515625,0,0
-2.38302309298888E-05,9.45394185691839E-06,0.3515625,0,0
-2.29388770094374E-05,8.72327018441865E-06,0.3515625,0,0
-2.25997227971675E-05,8.94785807759035E-06,0.3515625,0,0
-2.0080384274479E-05,8.30621593195247E-06,0.3515625,0,0
-2.08926776394947E-05,9.64656919677509E-06,0.3515625,0,0
-2.0503477571765E-05,9.74972772382898E-06,0.3515625,0,0
-2.17449123738334E-05,9.05877823242918E-06,0.3515625,0,0
-2.16607750189723E-05,7.83839732321212E-06,0.3515625,0,0
-2.29076467803679E-05,8.86341967998305E-06,0.3515625,0,0
-2.3192409571493E-05,9.23955212783767E-06,0.3515625,0,0
-2.37192216445692E-05,1.01018767963978E-05,0.3515625,0,0
-2.34673880186165E-05,1.10015116661089E-05,0.3515625,0,0
-2.28847238759045E-05,1.11130748337018E-05,0.3515625,0,0
-1.70304465427762E-05,8.86464385985164E-06,0.3515625,0,0
-2.48373453359818E-05,1.26951854326762E-05,0.3515625,0,0
-2.12958875636104E-05,8.39986023493111E-06,0.3515625,0,0
-2.77357084996765E-05,8.41548444441287E-06,0.3515625,0,0
-2.45659721258562E-05,6.82955214870162E-06,0.3515625,0,0
-2.57060692092637E-05,1.03283982753055E-05,0.3515625,0,0
-2.20977835851954E-05,1.05726639958448E-05,0.3515625,0,0
-2.3108867026167E-05,1.0823785487446E-05,0.3515625,0,0
-2.30971800192492E-05,1.09270940811257E-05,0.3515625,0,0
-2.23394035856472E-05,1.21353068607277E-05,0.3515625,0,0
-2.11303304240573E-05,1.420114767825E-05,0.3515625,0,0
-2.01482835109346E-05,1.53678101924015E-05,0.3515625,0,0
-2.16590415220708E-05,1.6138796127052E-05,0.3515625,0,0
-2.13932198676048E-05,1.63692930073012E-05,0.3515625,0,0
-2.18704153667204E-05,1.77265228558099E-05,0.3515625,0,0
-2.03937452170067E-05,1.70503662957344E-05,0.3515625,0,0
-2.12772429222241E-05,1.66333884408232E-05,0.3515625,0,0
-2.12460454349639E-05,1.53047440107912E-05,0.3515625,0,0
-2.36145078815753E-05,1.41945056384429E-05,0.3515625,0,0
-2.35301195061766E-05,1.16945566333015E-05,0.3515625,0,0
-2.32225957006449E-05,8.95617813512217E-06,0.3515625,0,0
-2.18198911170475E-05,6.15812268733862E-06,0.3515625,0,0
-2.18198892980581E-05,5.79483184992569E-06,0.3515625,0,0
-2.11569240491372E-05,4.91674700242584E-06,0.3515625,0,0
-2.21425452764379E-05,2.24336508836132E-06,0.3515625,0,0
-2.28519002121175E-05,-7.03912860444689E-07,0.3515625,0,0
-2.32179372687824E-05,-1.86285365089134E-06,0.3515625,0,0
-1.98828129214235E-05,-2.83620056507061E-06,0.3515625,0,0
-2.83781610050937E-05,-4.34705088991905E-06,0.3515625,0,0
-2.04663156182505E-05,-2.06954791792668E-06,0.3515625,0,0
-2.45728460868122E-05,-1.51183584762293E-07,0.3515625,0,0
-2.1883462977712E-05,3.23570475302404E-06,0.3515625,0,0
-2.67488903773483E-05,4.91569244331913E-06,0.3515625,0,0
-2.62538924289402E-05,5.65578511668718E-06,0.3515625,0,0
-2.80040312645724E-05,5.99672512180405E-06,0.3515625,0,0
-2.77457438642159E-05,7.86890086601488E-06,0.3515625,0,0
-2.80622462014435E-05,1.07542264231597E-05,0.3515625,0,0
-2.81783850368811E-05,1.22408273455221E-05,0.3515625,0,0
-2.76432147074956E-05,1.16656556201633E-05,0.3515625,0,0
-3.00487317872467E-05,1.09529937617481E-05,0.3515625,0,0
-3.06078181893099E-05,1.33521771203959E-05,0.3515625,0,0
-3.14938333758619E-05,1.56306887220126E-05,0.3515625,0,0
-2.99670773529215E-05,1.5305860870285E-05,0.3515625,0,0
-3.05570065393113E-05,1.39852318170597E-05,0.3515625,0,0
-2.83389945252566E-05,1.44479508890072E-05,0.3515625,0,0
-2.75110905931797E-05,1.53880901052617E-05,0.3515625,0,0
-2.59116623055888E-05,1.59511782840127E-05,0.3515625,0,0
-2.75855727522867E-05,1.60845447680913E-05,0.3515625,0,0
-2.84590132650919E-05,1.68847473105416E-05,0.3515625,0,0
-2.92825625365367E-05,1.82377916644327E-05,0.3515625,0,0
-2.82470173260663E-05,1.79784910869785E-05,0.3515625,0,0
-2.76663977274438E-05,1.6538062482141E-05,0.3515625,0,0
-2.64519094343996E-05,1.54021927301073E-05,0.3515625,0,0
-2.53385333053302E-05,1.47318341987557E-05,0.3515625,0,0
-2.15194704651367E-05,1.12583502414054E-05,0.3515625,0,0
-3.16179321089294E-05,1.43935385494842E-05,0.3515625,0,0
-2.5346826078021E-05,8.32844216347439E-06,0.3515625,0,0
-2.94901674351422E-05,1.24676644190913E-05,0.3515625,0,0
-2.27518885367317E-05,1.19228425319307E-05,0.3515625,0,0
-2.45310147874989E-05,1.24406342365546E-05,0.3515625,0,0
-2.33117934840266E-05,8.30154112918535E-06,0.3515625,0,0
-2.66691295109922E-05,7.80352365836734E-06,0.3515625,0,0
-2.68991370830918E-05,8.35161426948616E-06,0.3515625,0,0
-2.73877449217252E-05,1.05573917608126E-05,0.3515625,0,0
-2.87563325400697E-05,1.13990954559995E-05,0.3515625,0,0
-2.84149755316321E-05,1.04967166407732E-05,0.3515625,0,0
-2.78585175692569E-05,1.1475128303573E-05,0.3515625,0,0
-2.55664854194038E-05,1.2446232176444E-05,0.3515625,0,0
-2.67289942712523E-05,1.45704734677565E-05,0.3515625,0,0
-2.58198342635296E-05,1.32841441882192E-05,0.3515625,0,0
-2.66424067376647E-05,1.09620386865572E-05,0.3515625,0,0
-2.44084130827105E-05,8.40716529637575E-06,0.3515625,0,0
-2.46151594183175E-05,9.90103308140533E-06,0.3515625,0,0
-2.34222061408218E-05,1.10704286271357E-05,0.3515625,0,0
-2.37795575230848E-05,1.24674843391404E-05,0.3515625,0,0
-2.34812450798927E-05,1.20737795441528E-05,0.3515625,0,0
-2.55622435361147E-05,1.05608141893754E-05,0.3515625,0,0
-2.60783363046357E-05,8.21246703708312E-06,0.3515625,0,0
-2.5390540031367E-05,7.89258592703845E-06,0.3515625,0,0
-2.34169801842654E-05,7.89770274423063E-06,0.3515625,0,0
-2.21720456465846E-05,7.70861697674263E-06,0.3515625,0,0
-1.84018699656008E-05,5.59715408599004E-06,0.3515625,0,0
-2.89967993012397E-05,7.13049939804478E-06,0.3515625,0,0
-2.42559563048417E-05,4.6625950744783E-06,0.3515625,0,0
-2.66714887402486E-05,6.96683127898723E-06,0.3515625,0,0
-2.14147075894289E-05,5.67301731280168E-06,0.3515625,0,0
-2.29928245971678E-05,5.53099107492017E-06,0.3515625,0,0
-2.12843588087708E-05,6.96797951604822E-06,0.3515625,0,0
-2.24352515942883E-05,1.1273788913968E-05,0.3515625,0,0
-2.22637499973644E-05,1.3206399671617E-05,0.3515625,0,0
-2.23995448322967E-05,1.30107837321702E-05,0.3515625,0,0
-2.27337259275373E-05,1.28085312098847E-05,0.3515625,0,0
-2.18994846363785E-05,1.30036532937083E-05,0.3515625,0,0
-2.26302217924967E-05,1.30002517835237E-05,0.3515625,0,0
-2.27440323214978E-05,1.24933712868369E-05,0.3515625,0,0
-2.56753683061106E-05,1.36601393023739E-05,0.3515625,0,0
-2.62184275925392E-05,1.41904547490412E-05,0.3515625,0,0
-2.61833956756163E-05,1.40029333124403E-05,0.3515625,0,0
-2.27117980102776E-05,1.27735820569796E-05,0.3515625,0,0
-2.09900263143936E-05,1.2907046766486E-05,0.3515625,0,0
-1.95081574929645E-05,1.27369967231061E-05,0.3515625,0,0
-2.09962854569312E-05,1.22833762361552E-05,0.3515625,0,0
-2.14122519537341E-05,1.04033142633853E-05,0.3515625,0,0
-2.0796416720259E-05,9.34923900786089E-06,0.3515625,0,0
-1.96247856365517E-05,1.05218114185845E-05,0.3515625,0,0
-1.92040643014479E-05,1.32608629428432E-05,0.3515625,0,0
-1.83764004759723E-05,1.55231919052312E-05,0.3515625,0,0
-1.87895766430302E-05,1.68610094988253E-05,0.3515625,0,0
-1.73031185113359E-05,1.22285109682707E-05,0.3515625,0,0
-2.61411532846978E-05,1.58647326315986E-05,0.3515625,0,0
-2.12884006032255E-05,1.07032874439028E-05,0.3515625,0,0
-2.49902295763604E-05,1.46176744237891E-05,0.3515625,0,0
-2.09937752515543E-05,1.17981035145931E-05,0.3515625,0,0
-2.19655612454517E-05,1.39712619784405E-05,0.3515625,0,0
-2.04835178010399E-05,1.31714086819557E-05,0.3515625,0,0
-2.23735278268578E-05,1.53811415657401E-05,0.3515625,0,0
-2.13770326809026E-05,1.53683540702332E-05,0.3515625,0,0
-2.1296782506397E-05,1.37824163175537E-05,0.3515625,0,0
-2.1753763576271E-05,1.35052468976937E-05,0.3515625,0,0
-2.23455754166935E-05,1.44389432534808E-05,0.3515625,0,0
-2.43461636273423E-05,1.57615922944387E-05,0.3515625,0,0
-2.44200928136706E-05,1.40153279062361E-05,0.3515625,0,0
-2.59311709669419E-05,1.20904196592164E-05,0.3515625,0,0
-2.50928114837734E-05,9.03472027857788E-06,0.3515625,0,0
-2.57538904406829E-05,9.54240113060223E-06,0.3515625,0,0
-2.47520947596058E-05,1.00646357168444E-05,0.3515625,0,0
-2.56087259913329E-05,1.21064340419252E-05,0.3515625,0,0
-2.49939312197967E-05,1.28884967125487E-05,0.3515625,0,0
-2.55361228482798E-05,1.45558551594149E-05,0.3515625,0,0
-2.44381117227022E-05,1.45163376146229E-05,0.3515625,0,0
-2.38407046708744E-05,1.44649848152767E-05,0.3515625,0,0
-2.28956596401986E-05,1.30612979774014E-05,0.3515625,0,0
-2.32094698731089E-05,1.07484893305809E-05,0.3515625,0,0
-2.31289213843411E-05,9.68686526903184E-06,0.3515625,0,0
-2.27064065256855E-05,9.89947147900239E-06,0.3515625,0,0
-1.8798415112542E-05,7.36474567020196E-06,0.3515625,0,0
-2.7483343728818E-05,1.03062993730418E-05,0.3515625,0,0
-2.11301776289474E-05,7.02533498042612E-06,0.3515625,0,0
-2.37126150750555E-05,7.16424938218552E-06,0.3515625,0,0
-1.78072896233061E-05,4.64313598058652E-06,0.3515625,0,0
-2.09318423003424E-05,6.58050294077839E-06,0.3515625,0,0
-2.10084490390727E-05,7.93600247561699E-06,0.3515625,0,0
-2.20519541471731E-05,1.00525285233743E-05,0.3515625,0,0
-2.01391922018956E-05,1.07410987766343E-05,0.3515625,0,0
-1.94754502444994E-05,1.16445244202623E-05,0.3515625,0,0
-2.01944658329012E-05,1.19899505079957E-05,0.3515625,0,0
-2.13205494219437E-05,1.25985316117294E-05,0.3515625,0,0
-2.32302918448113E-05,1.37845754579757E-05,0.3515625,0,0
-2.23801434913184E-05,1.28925494209398E-05,0.3515625,0,0
-2.29013166972436E-05,1.13998421511496E-05,0.3515625,0,0
-2.14966530620586E-05,8.1128373494721E-06,0.3515625,0,0
-2.26892771024723E-05,6.51605478196871E-06,0.3515625,0,0
-2.21766913455212E-05,5.62367222300963E-06,0.3515625,0,0
-2.24584582610987E-05,5.77781338506611E-06,0.3515625,0,0
-1.96161472558742E-05,3.78775439457968E-06,0.3515625,0,0
-1.86164706974523E-05,1.96640985450358E-06,0.3515625,0,0
-1.79753151314799E-05,2.49648519456969E-06,0.3515625,0,0
-1.91128929145634E-05,4.85544114781078E-06,0.3515625,0,0
-1.99000223801704E-05,5.11798180014011E-06,0.3515625,0,0
-2.14179090107791E-05,5.34771834281855E-06,0.3515625,0,0
-2.25418916670606E-05,4.75734532301431E-06,0.3515625,0,0
-2.31619851547293E-05,4.03784952140995E-06,0.3515625,0,0
-1.98922716663219E-05,4.50245761385304E-06,0.3515625,0,0
-2.99470539175672E-05,7.55982227929053E-06,0.3515625,0,0
-2.47901316470234E-05,7.60691455070628E-06,0.3515625,0,0
-2.88942264887737E-05,9.51351557887392E-06,0.3515625,0,0
-2.33060309255961E-05,8.0094678196474E-06,0.3515625,0,0
-2.5470471882727E-05,6.84371298120823E-06,0.3515625,0,0
-2.38476095546503E-05,5.82950906391488E-06,0.3515625,0,0
-2.53814141615294E-05,5.94884386373451E-06,0.3515625,0,0
-2.55547784036025E-05,6.42859049548861E-06,0.3515625,0,0
-2.66837905655848E-05,7.46103978599422E-06,0.3515625,0,0
-2.78113220701925E-05,7.8505454439437E-06,0.3515625,0,0
-2.68258900177898E-05,7.56471672502812E-06,0.3515625,0,0
-2.66048591583967E-05,7.94519746705191E-06,0.3515625,0,0
-2.5227845981135E-05,8.83549091668101E-06,0.3515625,0,0
-2.6923167752102E-05,1.05772078313748E-05,0.3515625,0,0
-2.63673664449016E-05,1.19603482744424E-05,0.3515625,0,0
-2.7044514354202E-05,1.36954377012444E-05,0.3515625,0,0
-2.58271793427411E-05,1.41268801598926E-05,0.3515625,0,0
-2.71854496531887E-05,1.36715270855348E-05,0.3515625,0,0
-2.69884421868483E-05,1.30741345856222E-05,0.3515625,0,0
-2.72034376394004E-05,1.4195682524587E-05,0.3515625,0,0
-2.58629206655314E-05,1.56317419168772E-05,0.3515625,0,0
-2.65234739345033E-05,1.49203033288359E-05,0.3515625,0,0
-2.65938433585688E-05,1.1572373296076E-05,0.3515625,0,0
-2.68480980594177E-05,1.00872757684556E-05,0.3515625,0,0
-2.63938309217338E-05,9.67551932262722E-06,0.3515625,0,0
-2.56816529144999E-05,8.43248562887311E-06,0.3515625,0,0
-2.04260068130679E-05,6.79932963976171E-06,0.3515625,0,0
-2.84975249087438E-05,1.12626512418501E-05,0.3515625,0,0
-2.14899664570112E-05,1.07944124465575E-05,0.3515625,0,0
-2.79738524113782E-05,1.29269064927939E-05,0.3515625,0,0
-2.53153430094244E-05,1.21789225886459E-05,0.3515625,0,0
-2.90004682028666E-05,1.31536853587022E-05,0.3515625,0,0
-2.71271073870594E-05,1.24656271509593E-05,0.3515625,0,0
-2.83378958556568E-05,1.3055398085271E-05,0.3515625,0,0
-2.62029352597892E-05,1.29140416902374E-05,0.3515625,0,0
-2.49532258749241E-05,1.36875269163284E-05,0.3515625,0,0
-2.46511099248892E-05,1.34566207634634E-05,0.3515625,0,0
-2.36318228417076E-05,1.15880648081657E-05,0.3515625,0,0
-2.4901979486458E-05,1.0910350283666E-05,0.3515625,0,0
-2.55110626312671E-05,1.26490213006036E-05,0.3515625,0,0
-2.71872140729101E-05,1.61879943334498E-05,0.3515625,0,0
-2.48050218942808E-05,1.7272264813073E-05,0.3515625,0,0
-2.47177540586563E-05,1.63600470841629E-05,0.3515625,0,0
-2.36493324337061E-05,1.42832541314419E-05,0.3515625,0,0
-2.53191028605215E-05,1.46080892591272E-05,0.3515625,0,0
-2.47635507548694E-05,1.50987771121436E-05,0.3515625,0,0
-2.49220083787804E-05,1.57611775648547E-05,0.3515625,0,0
-2.25502390094334E-05,1.52162992890226E-05,0.3515625,0,0
-2.0962419512216E-05,1.52495958900545E-05,0.3515625,0,0
-1.91417693713447E-05,1.55618181452155E-05,0.3515625,0,0
-2.02664941753028E-05,1.49881152538001E-05,0.3515625,0,0
-2.36839878198225E-05,1.31949491333216E-05,0.3515625,0,0
-2.68942603725009E-05,1.09158618215588E-05,0.3515625,0,0
-2.16571079363348E-05,5.57980092708021E-06,0.3515625,0,0
-2.9180806450313E-05,6.49138473818311E-06,0.3515625,0,0
-2.05378237296827E-05,2.93007360596675E-06,0.3515625,0,0
-2.77750823443057E-05,3.03980527860404E-06,0.3515625,0,0
-2.40626595768845E-05,1.82994540409709E-06,0.3515625,0,0
-2.58538329944713E-05,5.03230876347516E-06,0.3515625,0,0
-2.2629925297224E-05,6.46273247184581E-06,0.3515625,0,0
-2.34206599998288E-05,8.24962990009226E-06,0.3515625,0,0
-2.27299933612812E-05,7.52831920181052E-06,0.3515625,0,0
-2.33256268984405E-05,6.64376329950755E-06,0.3515625,0,0
-2.39989458350465E-05,6.09211383562069E-06,0.3515625,0,0
-2.41865236603189E-05,5.75588592255372E-06,0.3515625,0,0
-2.61407767538913E-05,6.63959417579463E-06,0.3515625,0,0
-2.53277285082731E-05,7.31822001398541E-06,0.3515625,0,0
-2.56674356933218E-05,7.28931354387896E-06,0.3515625,0,0
-2.40519311773824E-05,4.99967518408084E-06,0.3515625,0,0
-2.599967228889E-05,4.97776636620983E-06,0.3515625,0,0
-2.52569261647295E-05,7.56797453504987E-06,0.3515625,0,0
-2.54379028774565E-05,1.10987930383999E-05,0.3515625,0,0
-2.31497506320011E-05,1.10087248685886E-05,0.3515625,0,0
-2.36415944527835E-05,1.11332929009222E-05,0.3515625,0,0
-2.40914778260048E-05,1.15945194920641E-05,0.3515625,0,0
-2.54412079812028E-05,1.15494312922237E-05,0.3515625,0,0
-2.41111574723618E-05,1.05258168332512E-05,0.3515625,0,0
-2.1926243789494E-05,1.0021526577475E-05,0.3515625,0,0
-2.02940645976923E-05,1.04278760773013E-05,0.3515625,0,0
-2.11646947718691E-05,1.05308317870367E-05,0.3515625,0,0
-1.84071723197121E-05,7.21545347914798E-06,0.3515625,0,0
-2.75437323580263E-05,1.07840751297772E-05,0.3515625,0,0
-2.34293729590718E-05,1.03491147456225E-05,0.3515625,0,0
-2.7994599804515E-05,1.24874113680562E-05,0.3515625,0,0
-2.27387063205242E-05,9.67524374573259E-06,0.3515625,0,0
-2.31640169658931E-05,1.17750059871469E-05,0.3515625,0,0
-1.95058819372207E-05,1.20576432891539E-05,0.3515625,0,0
-2.18179211515235E-05,1.23490808618953E-05,0.3515625,0,0
-2.49311124207452E-05,1.14371496238164E-05,0.3515625,0,0
-2.7056355975219E-05,1.04809805634432E-05,0.3515625,0,0
-2.66959232249064E-05,9.61382829700597E-06,0.3515625,0,0
-2.49122022069059E-05,1.00691040643142E-05,0.3515625,0,0
-2.51195397140691E-05,1.23570061987266E-05,0.3515625,0,0
-2.40985445998376E-05,1.29711597764981E-05,0.3515625,0,0
-2.53029302257346E-05,1.28616156871431E-05,0.3515625,0,0
-2.4808186935843E-05,1.18990210467018E-05,0.3515625,0,0
-2.64695881924126E-05,1.30996295411023E-05,0.3515625,0,0
-2.6155537852901E-05,1.38383957164478E-05,0.3515625,0,0
-2.76816645055078E-05,1.4576650755771E-05,0.3515625,0,0
-2.75489892374026E-05,1.34274705487769E-05,0.3515625,0,0
-2.90385796688497E-05,1.13288797365385E-05,0.3515625,0,0
-2.94756737275748E-05,9.38703033170896E-06,0.3515625,0,0
-2.94664441753412E-05,1.06397656054469E-05,0.3515625,0,0
-2.79000159935094E-05,1.149740000983E-05,0.3515625,0,0
-2.74905178230256E-05,1.13292817331967E-05,0.3515625,0,0
-2.75599886663258E-05,1.13797577796504E-05,0.3515625,0,0
-2.71664612228051E-05,1.18698781079729E-05,0.3515625,0,0
-2.15185173146892E-05,1.02132617030293E-05,0.3515625,0,0
-3.05678913719021E-05,1.43790321089909E-05,0.3515625,0,0
-2.191881503677E-05,9.48260458244476E-06,0.3515625,0,0
-2.43729209614685E-05,1.11755689431448E-05,0.3515625,0,0
-1.73407406691695E-05,1.05836625152733E-05,0.3515625,0,0
-1.96383170987247E-05,1.35300315378117E-05,0.3515625,0,0
-1.72612653841497E-05,1.24629686979461E-05,0.3515625,0,0
-1.65652381838299E-05,1.25396027215174E-05,0.3515625,0,0
-1.31767528728233E-05,1.25894703160156E-05,0.3515625,0,0
-1.16998626253917E-05,1.30838761833729E-05,0.3515625,0,0
-1.11290901259053E-05,1.3641136320075E-05,0.3515625,0,0
-9.69527627603384E-06,1.3591204151453E-05,0.3515625,0,0
-9.82074107014341E-06,1.29949685288011E-05,0.3515625,0,0
-8.87073747435352E-06,1.07678297354141E-05,0.3515625,0,0
-1.15255907076062E-05,1.09079619505792E-05,0.3515625,0,0
-1.26749964692863E-05,1.1616831216088E-05,0.3515625,0,0
-1.55342368088895E-05,1.31941769723198E-05,0.3515625,0,0
-1.53600867633941E-05,1.22668134281412E-05,0.3515625,0,0
-1.71750598383369E-05,1.18472335088882E-05,0.3515625,0,0
-1.76993944478454E-05,1.10793953354005E-05,0.3515625,0,0
-2.02850933419541E-05,1.10679475255893E-05,0.3515625,0,0
-2.11566621146631E-05,9.6194389698212E-06,0.3515625,0,0
-2.32027396123158E-05,9.00545092008542E-06,0.3515625,0,0
-2.49003896897193E-05,9.21213904803153E-06,0.3515625,0,0
-2.64646096184151E-05,9.73402529780287E-06,0.3515625,0,0
-2.60577417066088E-05,9.9274384410819E-06,0.3515625,0,0
-2.68259282165673E-05,1.01638088381151E-05,0.3515625,0,0
-2.32953334489139E-05,9.12828727450687E-06,0.3515625,0,0
-3.38651843776461E-05,1.34842448460404E-05,0.3515625,0,0
-2.72669549303828E-05,1.05265771708218E-05,0.3515625,0,0
-3.46898486895952E-05,1.13661471914384E-05,0.3515625,0,0
-3.100592221017E-05,7.36077981855487E-06,0.3515625,0,0
-3.39903526764829E-05,7.75460557633778E-06,0.3515625,0,0
-3.07027657981962E-05,7.67265737522393E-06,0.3515625,0,0
-3.09608985844534E-05,9.43641407502582E-06,0.3515625,0,0
-2.9357595849433E-05,9.81541234068573E-06,0.3515625,0,0
-2.91946416837163E-05,9.4743618319626E-06,0.3515625,0,0
-3.01950749417301E-05,9.94270703813527E-06,0.3515625,0,0
-2.97954320558347E-05,1.16474475362338E-05,0.3515625,0,0
-2.95056051982101E-05,1.40851352625759E-05,0.3515625,0,0
-2.64683731074911E-05,1.40831607495784E-05,0.3515625,0,0
-2.66884671873413E-05,1.43821107485564E-05,0.3515625,0,0
-2.51624023803743E-05,1.44755367728067E-05,0.3515625,0,0
-2.59557655226672E-05,1.53820747073041E-05,0.3515625,0,0
-2.39543369389139E-05,1.47500786624732E-05,0.3515625,0,0
-2.42413752857829E-05,1.49740790220676E-05,0.3515625,0,0
-2.25414569285931E-05,1.41587979669566E-05,0.3515625,0,0
-2.31471167353448E-05,1.42389098982676E-05,0.3515625,0,0
-2.29851466428954E-05,1.53622731886571E-05,0.3515625,0,0
-2.35459028772311E-05,1.72310665220721E-05,0.3515625,0,0
-2.28491462621605E-05,1.68089700309793E-05,0.3515625,0,0
-2.29247143579414E-05,1.5335448551923E-05,0.3515625,0,0
-2.14641640923219E-05,1.41248438012553E-05,0.3515625,0,0
-1.9957653421443E-05,1.361242357234E-05,0.3515625,0,0
-1.63639106176561E-05,1.06178404166712E-05,0.3515625,0,0
-2.35900479310658E-05,1.49647194120917E-05,0.3515625,0,0
-1.82970325113274E-05,1.18171492431429E-05,0.3515625,0,0
-2.14828160096658E-05,1.54124554683222E-05,0.3515625,0,0
-1.58300663315458E-05,1.43934867082862E-05,0.3515625,0,0
-1.6227837477345E-05,1.72473264683504E-05,0.3515625,0,0
-1.43266761369887E-05,1.49499319377355E-05,0.3515625,0,0
-1.47675109474221E-05,1.30762664412032E-05,0.3515625,0,0
-1.46108050103066E-05,1.10132878035074E-05,0.3515625,0,0
-1.62142059707548E-05,1.0962628039124E-05,0.3515625,0,0
-1.72340478457045E-05,1.16880082714488E-05,0.3515625,0,0
-1.7876258425531E-05,1.06110455817543E-05,0.3515625,0,0
-2.09158315556124E-05,1.05605349745019E-05,0.3515625,0,0
-2.26866413868265E-05,1.22693436424015E-05,0.3515625,0,0
-2.58177842624718E-05,1.69652284967015E-05,0.3515625,0,0
-2.62958492385224E-05,1.8263057427248E-05,0.3515625,0,0
-2.75567235803464E-05,1.73705011548009E-05,0.3515625,0,0
-2.65898943325737E-05,1.39118028528173E-05,0.3515625,0,0
-2.75312304438557E-05,1.1717107554432E-05,0.3515625,0,0
-2.8037758966093E-05,9.78732259682147E-06,0.3515625,0,0
-2.97181777568767E-05,9.27982273424277E-06,0.3515625,0,0
-2.84715551970294E-05,7.81275775807444E-06,0.3515625,0,0
-2.70171367446892E-05,6.65854940962163E-06,0.3515625,0,0
-2.53320959018311E-05,5.38527092430741E-06,0.3515625,0,0
-2.49619679379975E-05,5.02623061038321E-06,0.3515625,0,0
-2.45612482103752E-05,5.17708122060867E-06,0.3515625,0,0
-2.36844025494065E-05,6.68460506858537E-06,0.3515625,0,0
-2.01525672309799E-05,6.83008920532302E-06,0.3515625,0,0
-2.99513994832523E-05,9.65246999840019E-06,0.3515625,0,0
-2.47542102442821E-05,7.65079767006682E-06,0.3515625,0,0
-3.05361973005347E-05,1.05055423773592E-05,0.3515625,0,0
-2.60009728663135E-05,1.10199471237138E-05,0.3515625,0,0
-2.75478123512585E-05,1.2699800208793E-05,0.3515625,0,0
-2.52105037361616E-05,1.20358236017637E-05,0.3515625,0,0
-2.70810924121179E-05,1.29260079120286E-05,0.3515625,0,0
-2.71062544925371E-05,1.14241647679592E-05,0.3515625,0,0
-2.66353345068637E-05,8.34366255730856E-06,0.3515625,0,0
-2.49316308327252E-05,6.24636322754668E-06,0.3515625,0,0
-2.17830238398165E-05,5.07497588841943E-06,0.3515625,0,0
-2.11372080229921E-05,5.02895181853091E-06,0.3515625,0,0
-2.0152179786237E-05,4.96962820761837E-06,0.3515625,0,0
-2.22652743104845E-05,5.45831653653295E-06,0.3515625,0,0
-2.29484794544987E-05,4.39687710240833E-06,0.3515625,0,0
-2.54588594543748E-05,4.94700452691177E-06,0.3515625,0,0
-2.43823615164729E-05,6.22571724306908E-06,0.3515625,0,0
-2.52230056503322E-05,6.85890245222254E-06,0.3515625,0,0
-2.62451194430469E-05,5.07058211951517E-06,0.3515625,0,0
-2.91583965008613E-05,5.3574149205815E-06,0.3515625,0,0
-2.87019465758931E-05,7.86427972343517E-06,0.3515625,0,0
-2.884934656322E-05,1.0994701369782E-05,0.3515625,0,0
-2.96601501759142E-05,1.15313614514889E-05,0.3515625,0,0
-3.00338833767455E-05,1.16457358672051E-05,0.3515625,0,0
-2.84876623481978E-05,1.18983625725377E-05,0.3515625,0,0
-2.74837348115398E-05,1.0431442206027E-05,0.3515625,0,0
-2.30108762480086E-05,7.48860065868939E-06,0.3515625,0,0
-3.30954935634509E-05,1.16957617137814E-05,0.3515625,0,0
-2.46164163399953E-05,1.16624205475091E-05,0.3515625,0,0
-2.85707719740458E-05,1.48008584801573E-05,0.3515625,0,0
-2.29804336413508E-05,1.27443672681693E-05,0.3515625,0,0
-2.71402041107649E-05,1.32645409394172E-05,0.3515625,0,0
-2.64420195890125E-05,1.12825573523878E-05,0.3515625,0,0
-2.94276269414695E-05,1.08669601104339E-05,0.3515625,0,0
-2.95245681627421E-05,1.05435465229675E-05,0.3515625,0,0
-2.88581904897001E-05,1.1163268936798E-05,0.3515625,0,0
-2.74229169008322E-05,1.33659268612973E-05,0.3515625,0,0
-2.47372427111259E-05,1.48909766721772E-05,0.3515625,0,0
-2.49516997428145E-05,1.50016758198035E-05,0.3515625,0,0
-2.440603566356E-05,1.34849251480773E-05,0.3515625,0,0
-2.6156556486967E-05,1.31714605231537E-05,0.3515625,0,0
-2.43820377363591E-05,1.20691365737002E-05,0.3515625,0,0
-2.46192776103271E-05,1.14911081254832E-05,0.3515625,0,0
-2.27094260480953E-05,1.1319540135446E-05,0.3515625,0,0
-2.33968785323668E-05,1.34327165142167E-05,0.3515625,0,0
-2.20111323869787E-05,1.45874619192909E-05,0.3515625,0,0
-2.18696059164358E-05,1.49401612361544E-05,0.3515625,0,0
-2.0399038476171E-05,1.28393139675609E-05,0.3515625,0,0
-2.08290530281374E-05,1.02678231996833E-05,0.3515625,0,0
-2.05237083719112E-05,9.08354377315845E-06,0.3515625,0,0
-2.07081666303566E-05,1.0468980690348E-05,0.3515625,0,0
-2.06375098059652E-05,1.18615171231795E-05,0.3515625,0,0
-2.06040276680142E-05,1.12065081339097E-05,0.3515625,0,0
-1.7316893718089E-05,7.75608714320697E-06,0.3515625,0,0
-2.65235139522702E-05,1.01144405562081E-05,0.3515625,0,0
-2.45289647864411E-05,7.44573208066868E-06,0.3515625,0,0
-3.19425744237378E-05,1.09578259070986E-05,0.3515625,0,0
-2.8648748411797E-05,1.08510939753614E-05,0.3515625,0,0
-2.87654220301192E-05,1.35159471028601E-05,0.3515625,0,0
-2.6374891604064E-05,1.24946409414406E-05,0.3515625,0,0
-2.79497744486434E-05,1.21198390843347E-05,0.3515625,0,0
-2.73384339379845E-05,1.08199928945396E-05,0.3515625,0,0
-2.63960009760922E-05,9.69589109445224E-06,0.3515625,0,0
-2.52196587098297E-05,9.15529290068662E-06,0.3515625,0,0
-2.3479871742893E-05,8.73338649398647E-06,0.3515625,0,0
-2.3128866814659E-05,9.09733898879495E-06,0.3515625,0,0
-2.23557399294805E-05,8.88353042682866E-06,0.3515625,0,0
-2.41969955823151E-05,1.00241986729088E-05,0.3515625,0,0
-2.44897710217629E-05,1.0576011845842E-05,0.3515625,0,0
-2.55645081779221E-05,1.20607346616453E-05,0.3515625,0,0
-2.3321545086219E-05,1.22395704238443E-05,0.3515625,0,0
-2.21690715989098E-05,1.25588612718275E-05,0.3515625,0,0
-1.9991126464447E-05,1.11528697743779E-05,0.3515625,0,0
-1.97427179955412E-05,9.26123175304383E-06,0.3515625,0,0
-1.81076629814925E-05,6.09802918916103E-06,0.3515625,0,0
-1.69112590810983E-05,5.15906822329271E-06,0.3515625,0,0
-1.63049408001825E-05,6.27429108135402E-06,0.3515625,0,0
-1.83531483344268E-05,6.24908261670498E-06,0.3515625,0,0
-2.02252576855244E-05,4.23330357079976E-06,0.3515625,0,0
-2.15329800994368E-05,2.65624521489372E-06,0.3515625,0,0
-1.77055972017115E-05,3.8444995880127E-06,0.3515625,0,0
-2.51506371569121E-05,7.22454888091306E-06,0.3515625,0,0
-1.93062405742239E-05,6.45852378511336E-06,0.3515625,0,0
-2.39270739257336E-05,6.63533364786417E-06,0.3515625,0,0
-2.06145723495865E-05,7.42509246265399E-06,0.3515625,0,0
-2.30314744840143E-05,9.26895154407248E-06,0.3515625,0,0
-2.04089883482084E-05,1.0112812560692E-05,0.3515625,0,0
-2.12072500289651E-05,1.03105785456137E-05,0.3515625,0,0
-2.06554341275478E-05,1.15175871542306E-05,0.3515625,0,0
-2.11444912565639E-05,1.35602140289848E-05,0.3515625,0,0
-2.10047983273398E-05,1.49415864143521E-05,0.3515625,0,0
-1.92258557945024E-05,1.43119741551345E-05,0.3515625,0,0
-1.89890124602243E-05,1.31861079353257E-05,0.3515625,0,0
-1.8105758499587E-05,1.21146695164498E-05,0.3515625,0,0
-1.99851110664895E-05,1.14445037979749E-05,0.3515625,0,0
-2.02055507543264E-05,1.08519425339182E-05,0.3515625,0,0
-2.16166463360423E-05,1.02996245914255E-05,0.3515625,0,0
-1.98353791347472E-05,9.56588701228611E-06,0.3515625,0,0
-2.02319370146142E-05,9.38744778977707E-06,0.3515625,0,0
-2.02213850570843E-05,8.53911933518248E-06,0.3515625,0,0
-2.21680147660663E-05,7.32328498997958E-06,0.3515625,0,0
-2.27039217861602E-05,7.31534919395926E-06,0.3515625,0,0
-2.33948067034362E-05,8.27852909424109E-06,0.3515625,0,0
-2.29561537707923E-05,8.89608963916544E-06,0.3515625,0,0
-2.28721437451895E-05,9.09241498447955E-06,0.3515625,0,0
-2.17518900171854E-05,8.06770458439132E-06,0.3515625,0,0
-2.16803018702194E-05,7.14460111339577E-06,0.3515625,0,0
-1.78436275746208E-05,6.38860092294635E-06,0.3515625,0,0
-2.40263652813155E-05,1.06843272078549E-05,0.3515625,0,0
-1.75485329236835E-05,1.07294736153563E-05,0.3515625,0,0
-2.5281102352892E-05,1.39157991725369E-05,0.3515625,0,0
-2.48093710979447E-05,1.37725173772196E-05,0.3515625,0,0
-2.86559206870152E-05,1.42440349009121E-05,0.3515625,0,0
-2.5800827643252E-05,1.22163437481504E-05,0.3515625,0,0
-2.50007360591553E-05,1.0978666068695E-05,0.3515625,0,0
-2.32770489674294E-05,9.93802223092644E-06,0.3515625,0,0
-2.2885325961397E-05,1.01896375781507E-05,0.3515625,0,0
-2.42869209614582E-05,1.00400047813309E-05,0.3515625,0,0
-2.5906510927598E-05,8.87684655026533E-06,0.3515625,0,0
-2.8798014682252E-05,8.29589680506615E-06,0.3515625,0,0
-2.93190169031732E-05,8.16541069070809E-06,0.3515625,0,0
-3.16586483677384E-05,9.698233952804E-06,0.3515625,0,0
-3.19171595037915E-05,1.06294919532957E-05,0.3515625,0,0
-3.2568714232184E-05,1.19558135338593E-05,0.3515625,0,0
-3.00501287711086E-05,1.34063766381587E-05,0.3515625,0,0
-2.93863795377547E-05,1.51450003613718E-05,0.3515625,0,0
-2.82740111288149E-05,1.41159080158104E-05,0.3515625,0,0
-2.88891060336027E-05,1.22727369671338E-05,0.3515625,0,0
-2.61818731814856E-05,1.02026915556053E-05,0.3515625,0,0
-2.24202431127196E-05,9.92532750387909E-06,0.3515625,0,0
-1.84950677066809E-05,1.1748162251024E-05,0.3515625,0,0
-1.67536054505035E-05,1.30760363390436E-05,0.3515625,0,0
-1.48621384141734E-05,1.35047666844912E-05,0.3515625,0,0
-1.28700185086927E-05,1.46978754855809E-05,0.3515625,0,0
-7.78144203650299E-06,1.27893063108786E-05,0.3515625,0,0
-9.96036760625429E-06,1.7802907677833E-05,0.3515625,0,0
-6.51518530503381E-06,1.30328135128366E-05,0.3515625,0,0
-8.68800725584151E-06,1.64341290656012E-05,0.3515625,0,0
-7.81482049205806E-06,1.31253536892473E-05,0.3515625,0,0
-1.13053556560772E-05,1.41756254379288E-05,0.3515625,0,0
-1.33027642732486E-05,1.21268740258529E-05,0.3515625,0,0
-1.65223464136943E-05,1.14392878458602E-05,0.3515625,0,0
-1.74919259734452E-05,9.47420357988449E-06,0.3515625,0,0
-1.70049861480948E-05,7.97814209363423E-06,0.3515625,0,0
-1.74031411006581E-05,8.12895905255573E-06,0.3515625,0,0
-1.89750462595839E-05,8.92901061888551E-06,0.3515625,0,0
-2.20221445488278E-05,9.78795742412331E-06,0.3515625,0,0
-2.48689684667625E-05,9.7623560577631E-06,0.3515625,0,0
-2.80006315733772E-05,1.17569807116524E-05,0.3515625,0,0
-2.89154304482508E-05,1.09929023892619E-05,0.3515625,0,0
-2.91499218292302E-05,1.11625868157716E-05,0.3515625,0,0
-2.7788655643235E-05,1.10770097307977E-05,0.3515625,0,0
-2.78949773928616E-05,1.25712085718988E-05,0.3515625,0,0
-2.78339393844362E-05,1.30290272863931E-05,0.3515625,0,0
-2.86996182694566E-05,1.3836516700394E-05,0.3515625,0,0
-2.92942513624439E-05,1.27465173136443E-05,0.3515625,0,0
-2.93144439638127E-05,1.29891341202892E-05,0.3515625,0,0
-2.85031401290325E-05,1.42453400258091E-05,0.703125,0,0
-2.77596172963968E-05,1.55184370669303E-05,0.703125,0,0
-2.63892015937017E-05,1.51735021063359E-05,0.703125,0,0
-2.58548570855055E-05,1.4131078387436E-05,0.703125,0,0
-2.18998229684075E-05,1.03651555036777E-05,0.703125,0,0
-3.24898792314343E-05,1.36369626488886E-05,0.703125,0,0
-2.57633473665919E-05,8.94088043423835E-06,0.703125,0,0
-3.02878233924275E-05,1.17263425636338E-05,0.703125,0,0
-2.59441421803785E-05,9.58827422437025E-06,0.703125,0,0
-3.05744215438608E-05,9.66356310527772E-06,0.703125,0,0
-2.98593895422528E-05,6.88331829223898E-06,0.703125,0,0
-3.16716650559101E-05,8.11701738712145E-06,0.703125,0,0
-2.98509003187064E-05,9.94034508039476E-06,0.703125,0,0
-2.9632892619702E-05,1.07136411315878E-05,0.703125,0,0
-3.08749949908815E-05,1.06764773590839E-05,0.703125,0,0
-3.0310520742205E-05,1.10429282358382E-05,0.703125,0,0
-3.080815076828E-05,1.18641000881325E-05,0.703125,0,0
-3.0429158869083E-05,9.69068787526339E-06,0.703125,0,0
-3.32852359861135E-05,7.50136086935527E-06,0.703125,0,0
-3.28816458932124E-05,5.40170049134758E-06,0.703125,0,0
-3.31232840835582E-05,6.78436344969668E-06,0.703125,0,0
-3.06492438539863E-05,8.36925482872175E-06,0.703125,0,0
-3.07250011246651E-05,1.08372860267991E-05,0.703125,0,0
-2.86629638139857E-05,1.04380760603817E-05,0.703125,0,0
-2.80414133158047E-05,9.12277300813003E-06,0.703125,0,0
-2.66407514573075E-05,7.8173043220886E-06,0.703125,0,0
-2.78060542768799E-05,8.08407639851794E-06,0.703125,0,0
-2.79230407613795E-05,6.56569272905472E-06,0.703125,0,0
-2.77040580840549E-05,3.41971986017597E-06,0.703125,0,0
-2.70636774075683E-05,1.55234567955631E-06,0.703125,0,0
-2.63539750449127E-05,2.64313734987809E-06,0.703125,0,0
-2.26125030167168E-05,3.97630583393038E-06,0.703125,0,0
-3.23718377330806E-05,6.89846274326555E-06,0.703125,0,0
-2.34895869652973E-05,7.4796016633627E-06,0.703125,0,0
-2.72239649348194E-05,1.07458918137127E-05,0.703125,0,0
-2.1341618776205E-05,1.32688674057135E-05,0.703125,0,0
-2.3949432943482E-05,1.33498106151819E-05,0.703125,0,0
-2.22810085688252E-05,9.49619334278395E-06,0.703125,0,0
-2.44208858930506E-05,7.94744573795469E-06,0.703125,0,0
-2.40388053498464E-05,8.90085630089743E-06,0.703125,0,0
-2.3767153834342E-05,1.12376264951308E-05,0.703125,0,0
-2.44061848206911E-05,1.33813655338599E-05,0.703125,0,0
-2.34221479331609E-05,1.37879560497822E-05,0.703125,0,0
-2.30798214033712E-05,1.27624389278935E-05,0.703125,0,0
-2.05908381758491E-05,1.09258471638896E-05,0.703125,0,0
-2.1673642550013E-05,9.68885615293402E-06,0.703125,0,0
-2.23223560169572E-05,7.76802153268363E-06,0.703125,0,0
-2.52371482929448E-05,6.90719571139198E-06,0.703125,0,0
-2.37476069742115E-05,7.46642854210222E-06,0.703125,0,0
-2.33491100516403E-05,8.97497284313431E-06,0.703125,0,0
-2.2505986635224E-05,1.01244668258005E-05,0.703125,0,0
-2.43560643866658E-05,1.1646891834971E-05,0.703125,0,0
-2.3805945602362E-05,1.27302691907971E-05,0.703125,0,0
-2.31644353334559E-05,1.39098847284913E-05,0.703125,0,0
-2.275890801684E-05,1.42093895192374E-05,0.703125,0,0
-2.54511269304203E-05,1.37226843435201E-05,0.703125,0,0
-2.73445584753063E-05,1.41316886583809E-05,0.703125,0,0
-2.77714952972019E-05,1.45158064697171E-05,0.703125,0,0
-2.30174264288507E-05,1.01932118923287E-05,0.703125,0,0
-3.11158946715295E-05,1.40072552312631E-05,0.703125,0,0
-2.04952721105656E-05,1.17960353236413E-05,0.703125,0,0
-2.56449693551986E-05,1.56967362272553E-05,0.703125,0,0
-2.20094898395473E-05,1.12922225525836E-05,0.703125,0,0
-2.67124542006059E-05,1.07805053630727E-05,0.703125,0,0
-2.45021692535374E-05,8.42405188450357E-06,0.703125,0,0
-2.5300696506747E-05,8.68177721713437E-06,0.703125,0,0
-2.58752170338994E-05,7.44727321944083E-06,0.703125,0,0
-2.8123045922257E-05,6.7624405346578E-06,0.703125,0,0
-2.91583983198507E-05,8.19780143501703E-06,0.703125,0,0
-2.81713855656562E-05,1.01607647593482E-05,0.703125,0,0
-2.87786406261148E-05,1.24113066704012E-05,0.703125,0,0
-2.63327110587852E-05,1.16483561214409E-05,0.703125,0,0
-2.52905792876845E-05,1.08144022306078E-05,0.703125,0,0
-2.16139960684814E-05,9.64744049269939E-06,0.703125,0,0
-2.09125737455906E-05,1.14786589620053E-05,0.703125,0,0
-1.86112647497794E-05,1.22654573715408E-05,0.703125,0,0
-1.96567380044144E-05,1.25102105812402E-05,0.703125,0,0
-1.88714711839566E-05,1.09380189314834E-05,0.703125,0,0
-1.96315340872388E-05,1.089763645723E-05,0.703125,0,0
-1.88270896614995E-05,1.13985915959347E-05,0.703125,0,0
-1.90433729585493E-05,1.30719163280446E-05,0.703125,0,0
-1.798739140213E-05,1.23656936921179E-05,0.703125,0,0
-1.84618002094794E-05,1.05537628769525E-05,0.703125,0,0
-1.92819952644641E-05,9.28609279071679E-06,0.703125,0,0
-1.92736224562395E-05,7.97654865891673E-06,0.703125,0,0
-1.56832975335419E-05,6.2771032389719E-06,0.703125,0,0
-2.26225765800336E-05,9.01851035450818E-06,0.703125,0,0
-1.7938935343409E-05,7.49624359741574E-06,0.703125,0,0
-2.21030186366988E-05,9.2131513156346E-06,0.703125,0,0
-1.86261877388461E-05,7.4476438385318E-06,0.703125,0,0
-2.01420989469625E-05,9.0414014266571E-06,0.703125,0,0
-1.92773713934002E-05,9.13963231141679E-06,0.703125,0,0
-2.22710405068938E-05,1.01817850008956E-05,0.703125,0,0
-2.22834951273398E-05,1.20921677080332E-05,0.703125,0,0
-2.10435227927519E-05,1.39192570713931E-05,0.703125,0,0
-2.0306291844463E-05,1.50558571476722E-05,0.703125,0,0
-1.99311252799816E-05,1.49893639900256E-05,0.703125,0,0
-2.10713351407321E-05,1.46259353641653E-05,0.703125,0,0
-2.06422628252767E-05,1.34899410113576E-05,0.703125,0,0
-2.15777108678594E-05,1.42211274578585E-05,0.703125,0,0
-2.07188040803885E-05,1.55414527398534E-05,0.703125,0,0
-2.15646396100055E-05,1.62133237608941E-05,0.703125,0,0
-2.03050367417745E-05,1.43230572575703E-05,0.703125,0,0
-1.99924943444785E-05,1.29924455904984E-05,0.703125,0,0
-1.93077466974501E-05,1.20923295980901E-05,0.703125,0,0
-2.1266532712616E-05,1.23479094327195E-05,0.703125,0,0
-2.20697475015186E-05,1.1789241398219E-05,0.703125,0,0
-2.32572929235175E-05,1.10729015432298E-05,0.703125,0,0
-2.30256118811667E-05,1.05650960904313E-05,0.703125,0,0
-2.2466929294751E-05,1.0336743798689E-05,0.703125,0,0
-2.10346024687169E-05,9.6462172223255E-06,0.703125,0,0
-1.92653278645594E-05,8.74878242029808E-06,0.703125,0,0
-1.55334109877003E-05,6.94118671162869E-06,0.703125,0,0
-2.23102979362011E-05,1.0397926416772E-05,0.703125,0,0
-1.8474829630577E-05,9.29494854062796E-06,0.703125,0,0
-2.37074982578633E-05,1.18381449283333E-05,0.703125,0,0
-2.07399971259292E-05,1.01091400210862E-05,0.703125,0,0
-2.29139823204605E-05,9.85180940915598E-06,0.703125,0,0
-2.12586564884987E-05,8.07465676189167E-06,0.703125,0,0
-2.22771250264486E-05,8.62426531966776E-06,0.703125,0,0
-2.1659800040652E-05,8.11072459327988E-06,0.703125,0,0
-2.18782715819543E-05,7.6538144639926E-06,0.703125,0,0
-2.2780273866374E-05,7.73723786551273E-06,0.703125,0,0
-2.38643151533324E-05,7.50134086047183E-06,0.703125,0,0
-2.54812330240384E-05,7.87358658271842E-06,0.703125,0,0
-2.43005306401756E-05,7.70022961660288E-06,0.703125,0,0
-2.54512706305832E-05,8.08758704806678E-06,0.703125,0,0
-2.61877521552378E-05,7.50703702578903E-06,0.703125,0,0
-2.86585727735655E-05,7.87580574979074E-06,0.703125,0,0
-2.84959223790793E-05,8.59369083627826E-06,0.703125,0,0
-2.90739480988123E-05,1.07809573819395E-05,0.703125,0,0
-2.82246455753921E-05,1.19142114272108E-05,0.703125,0,0
-2.90530315396609E-05,1.27145076476154E-05,0.703125,0,0
-2.87184448097833E-05,1.16153050839785E-05,0.703125,0,0
-2.87349430436734E-05,9.70394194155233E-06,0.703125,0,0
-2.72552551905392E-05,8.62169963511406E-06,0.703125,0,0
-2.65025646513095E-05,9.81857556325849E-06,0.703125,0,0
-2.54303813562728E-05,1.0337460480514E-05,0.703125,0,0
-2.44955026573734E-05,1.07397390820552E-05,0.703125,0,0
-2.08343644771958E-05,1.02100630101631E-05,0.703125,0,0
-3.07865266222507E-05,1.49078559843474E-05,0.703125,0,0
-2.46688668994466E-05,1.10029550342006E-05,0.703125,0,0
-2.86598442471586E-05,1.23009604067192E-05,0.703125,0,0
-2.25321109610377E-05,1.02382982731797E-05,0.703125,0,0
-2.51189703703858E-05,1.29269355966244E-05,0.703125,0,0
-2.36869636864867E-05,1.24349326142692E-05,0.703125,0,0
-2.49185559368925E-05,1.24129446703591E-05,0.703125,0,0
-2.31028861890081E-05,1.18317402666435E-05,0.703125,0,0
-2.1704005121137E-05,1.22533674584702E-05,0.703125,0,0
-2.22723210754339E-05,1.22136807476636E-05,0.703125,0,0
-2.31083322432823E-05,1.15995653686696E-05,0.703125,0,0
-2.49678505497286E-05,1.27289504234795E-05,0.703125,0,0
-2.32215352298226E-05,1.23611544040614E-05,0.703125,0,0
-2.27453219849849E-05,1.20189042718266E-05,0.703125,0,0
-2.06076401809696E-05,1.00510433185264E-05,0.703125,0,0
-2.05093074328033E-05,9.03397994989064E-06,0.703125,0,0
-1.87491623364622E-05,7.52102005208144E-06,0.703125,0,0
-2.04838343051961E-05,8.26638461148832E-06,0.703125,0,0
-2.15646832657512E-05,8.9683517217054E-06,0.703125,0,0
-2.35370862355921E-05,9.81890298135113E-06,0.703125,0,0
-2.18761397263734E-05,9.49326022237074E-06,0.703125,0,0
-2.0863732061116E-05,1.06355100797373E-05,0.703125,0,0
-2.09388945222599E-05,1.23605086628231E-05,0.703125,0,0
-2.19314570131246E-05,1.45760204759426E-05,0.703125,0,0
-2.1781881514471E-05,1.62791093316628E-05,0.703125,0,0
-2.19540124817286E-05,1.55241250467952E-05,0.703125,0,0
-1.9220593458158E-05,1.10291912278626E-05,0.703125,0,0
-2.80490949080558E-05,1.58059392560972E-05,0.703125,0,0
-2.18411241803551E-05,1.35289483296219E-05,0.703125,0,0
-2.62043286056723E-05,1.73387943505077E-05,1.93359375,0,0
-2.31147278100252E-05,1.46340889841667E-05,1.93359375,0,0
-2.68965795839904E-05,1.60131476150127E-05,1.93359375,0,0
-2.62575740634929E-05,1.47913542605238E-05,1.93359375,0,0
-2.83325680356938E-05,1.52679785969667E-05,1.93359375,0,0
-2.73706446023425E-05,1.30588787214947E-05,1.93359375,0,0
-2.67394043476088E-05,1.1535094017745E-05,1.93359375,0,0
-2.6833607989829E-05,1.12135958261206E-05,1.93359375,0,0
-2.63377642113483E-05,1.11834215203999E-05,1.93359375,0,0
-2.75069833151065E-05,1.24139160107006E-05,1.93359375,0,0
-2.73161695076851E-05,1.19158094094018E-05,1.93359375,0,0
-2.79228152066935E-05,1.18980524348444E-05,1.93359375,0,0
-2.48056894633919E-05,1.09723296191078E-05,1.93359375,0,0
-2.41083234868711E-05,1.18990219561965E-05,1.93359375,0,0
-2.33921382459812E-05,1.1947220627917E-05,1.93359375,0,0
-2.58289801422507E-05,1.34494275698671E-05,1.93359375,0,0
-2.60080669249874E-05,1.32795394165441E-05,1.93359375,0,0
-2.67603390966542E-05,1.31710376081173E-05,1.93359375,0,0
-2.55102022492792E-05,1.15597849799087E-05,1.93359375,0,0
-2.37332515098387E-05,1.11042445496423E-05,1.93359375,0,0
-2.12035556614865E-05,1.13076466732309E-05,1.93359375,0,0
-2.18696441152133E-05,1.16685623652302E-05,1.93359375,0,0
-2.33288265008014E-05,1.03185566331376E-05,1.93359375,0,0
-2.29991455853451E-05,8.36287563288352E-06,1.93359375,0,0
-1.86716060852632E-05,6.14568443779717E-06,1.93359375,0,0
-2.75434722425416E-05,7.63604293751996E-06,1.93359375,0,0
-2.35249044635566E-05,5.8899727264361E-06,1.93359375,0,0
-2.96986381727038E-05,1.03603551906417E-05,1.93359375,0,0
-2.5986018954427E-05,1.04426608231734E-05,1.93359375,0,0
-2.91920005111024E-05,1.06284533103462E-05,1.93359375,0,0
-2.80409676634008E-05,9.2805557869724E-06,1.93359375,0,0
-2.93453595077153E-05,1.04485679912614E-05,1.93359375,0,0
-2.96056950901402E-05,1.16350265670917E-05,1.93359375,0,0
-3.01739091810305E-05,1.1490697033878E-05,1.93359375,0,0
-2.98186314466875E-05,1.11419667518931E-05,1.93359375,0,0
-2.85943933704402E-05,1.15331476990832E-05,1.93359375,0,0
-2.90820935333613E-05,1.19572223411524E-05,1.93359375,0,0
-2.70990203716792E-05,1.12116531454376E-05,1.93359375,0,0
-2.67226296273293E-05,1.26796730910428E-05,1.93359375,0,0
-2.49312051892048E-05,1.41236841955106E-05,1.93359375,0,0
-2.52996869676281E-05,1.51116091728909E-05,1.93359375,0,0
-2.35418192460202E-05,1.40138045026106E-05,1.93359375,0,0
-2.36359464906855E-05,1.29421368910698E-05,1.93359375,0,0
-2.27538967010332E-05,1.17084973680903E-05,1.93359375,0,0
-2.37181302509271E-05,1.21118182505597E-05,1.93359375,0,0
-2.4069513528957E-05,1.24212365335552E-05,1.93359375,0,0
-2.59520293184323E-05,1.20923186841537E-05,1.93359375,0,0
-2.64519603661029E-05,1.03070578916231E-05,1.93359375,0,0
-2.64925474766642E-05,8.55415328260278E-06,1.93359375,0,0
-2.60401120613096E-05,8.47082264954224E-06,1.93359375,0,0
-2.69947522610892E-05,9.21189439395675E-06,1.93359375,0,0
-2.24663508561207E-05,7.76531760493526E-06,1.93359375,0,0
-3.0743995012017E-05,1.16832516141585E-05,1.93359375,0,0
-2.08490491786506E-05,9.99820986180566E-06,1.93359375,0,0
-2.50845514528919E-05,1.36102871692856E-05,1.93359375,0,0
-1.97892459254945E-05,1.37377564897179E-05,1.93359375,0,0
-2.21464106289204E-05,1.51553285832051E-05,1.93359375,0,0
-1.86521738214651E-05,1.43895276778494E-05,1.93359375,0,0
-2.04289772227639E-05,1.40339552672231E-05,1.93359375,0,0
-2.11463975574588E-05,1.15815837489208E-05,1.93359375,0,0
-2.13088624150259E-05,9.64086120802676E-06,1.93359375,0,0
-1.92158277059207E-05,1.00423221738311E-05,1.93359375,0,0
-1.52040083776228E-05,1.16644596346305E-05,1.93359375,0,0
-1.42986991704674E-05,1.33559824462282E-05,1.93359375,0,0
-1.30061662275693E-05,1.27793764477246E-05,1.93359375,0,0
-1.42860753840068E-05,1.26637442008359E-05,1.93359375,0,0
-1.30687076307368E-05,1.1879285921168E-05,1.93359375,0,0
-1.37160459416918E-05,1.15029552034684E-05,1.93359375,0,0
-1.11728695628699E-05,1.02426001831191E-05,1.93359375,0,0
-1.1338426702423E-05,1.04438622656744E-05,1.93359375,0,0
-1.07383220893098E-05,1.04505234048702E-05,1.93359375,0,0
-1.31234864966245E-05,1.04643595477683E-05,1.93359375,0,0
-1.48502522279159E-05,9.28303325054003E-06,1.93359375,0,0
-1.77330330188852E-05,8.25690131023293E-06,1.93359375,0,0
-1.91884755622596E-05,9.10222297534347E-06,1.93359375,0,0
-2.11178503377596E-05,1.04463979369029E-05,1.93359375,0,0
-2.11454644158948E-05,8.7967046056292E-06,1.93359375,0,0
-2.19908069993835E-05,5.8241544138582E-06,1.93359375,0,0
-1.92139505088562E-05,4.7858106881904E-06,1.93359375,0,0
-2.79262058029417E-05,9.11935694603017E-06,1.93359375,0,0
-2.34118051594123E-05,9.88349347608164E-06,1.93359375,0,0
-3.10142022499349E-05,1.02597723525832E-05,1.93359375,0,0
-2.8123762604082E-05,8.68246752361301E-06,1.93359375,0,0
-2.95533009193605E-05,9.91216984402854E-06,1.93359375,0,0
-2.69114971160889E-05,1.03381789813284E-05,1.93359375,0,0
-2.81736447504954E-05,9.60529268922983E-06,1.93359375,0,0
-2.68302337644855E-05,7.73595093050972E-06,1.93359375,0,0
-2.59691423707409E-05,7.09259893483249E-06,1.93359375,0,0
-2.64252030319767E-05,8.5015826698509E-06,1.93359375,0,0
-2.65190938080195E-05,1.00161569207557E-05,1.93359375,0,0
-2.70744258159539E-05,1.06491606857162E-05,1.93359375,0,0
-2.57660922216019E-05,1.04158534668386E-05,1.93359375,0,0
-2.68677158601349E-05,1.04378232208546E-05,1.93359375,0,0
-2.58328927884577E-05,1.00833894975949E-05,1.93359375,0,0
-2.66332226601662E-05,1.04486371128587E-05,1.93359375,0,0
-2.47866300924215E-05,1.08765261757071E-05,1.93359375,0,0
-2.43006525124656E-05,1.08885333247599E-05,1.93359375,0,0
-2.22131729969988E-05,9.36408105189912E-06,1.93359375,0,0
-2.18233435589354E-05,8.9012519310927E-06,1.93359375,0,0
-2.03738982236246E-05,9.99590884021018E-06,1.93359375,0,0
-2.05055039259605E-05,1.14654530989355E-05,1.93359375,0,0
-2.01532056962606E-05,1.18389098133775E-05,1.93359375,0,0
-2.03812396648573E-05,1.15000384539599E-05,1.93359375,0,0
-2.15543386730133E-05,1.00732422652072E-05,1.93359375,0,0
-2.42209935095161E-05,9.3108747023507E-06,1.93359375,0,0
-2.24776686081896E-05,9.3894659585203E-06,1.93359375,0,0
-3.25715445796959E-05,1.51969306898536E-05,1.93359375,0,0
-2.48017513513332E-05,1.25937085613259E-05,1.93359375,0,0
-3.0266703106463E-05,1.36595517687965E-05,1.93359375,0,0
-2.64285426965216E-05,1.18909019874991E-05,1.93359375,0,0
-2.98935683531454E-05,1.30849075503647E-05,1.93359375,0,0
-2.7565029085963E-05,1.16249539132696E-05,1.93359375,0,0
-2.78982279269258E-05,1.16912424346083E-05,1.93359375,0,0
-2.71261633315589E-05,1.08009571704315E-05,1.93359375,0,0
-2.76699920505052E-05,8.83079610503046E-06,1.93359375,0,0
-2.79422729363432E-05,8.14913437352516E-06,1.93359375,0,0
-2.67175728367874E-05,8.74228771863272E-06,1.93359375,0,0
-2.67253726633498E-05,1.02068897831487E-05,1.93359375,0,0
-2.54076840064954E-05,1.03724451037124E-05,1.93359375,0,0
-2.67985615209909E-05,1.10486516859964E-05,1.93359375,0,0
-2.49580389208859E-05,1.12615853140596E-05,1.93359375,0,0
-2.47220777964685E-05,1.19979004011839E-05,1.93359375,0,0
-2.2314665329759E-05,1.11143954200088E-05,1.93359375,0,0
-2.31215526582673E-05,1.06046809378313E-05,1.93359375,0,0
-2.31943868129747E-05,9.6883813966997E-06,1.93359375,0,0
-2.46907038672362E-05,9.63891943683848E-06,1.93359375,0,0
-2.38417342188768E-05,9.27145265450235E-06,1.93359375,0,0
-2.32811325986404E-05,9.88934152701404E-06,1.93359375,0,0
-2.17691449506674E-05,9.7606625786284E-06,1.93359375,0,0
-2.31710164371179E-05,8.73221506481059E-06,1.93359375,0,0
-2.52461177296937E-05,8.66066602611681E-06,1.93359375,0,0
-2.5826804630924E-05,9.80865934252506E-06,1.93359375,0,0
-2.02961655304534E-05,7.48730826671817E-06,1.93359375,0,0
-2.86930298898369E-05,9.85593669611262E-06,1.93359375,0,0
-2.19197227124823E-05,6.45821000944125E-06,1.93359375,0,0
-2.7871472411789E-05,8.20360764919315E-06,1.93359375,0,0
-2.49144450208405E-05,6.51377649774076E-06,1.93359375,0,0
-2.9246282792883E-05,7.7189097282826E-06,1.93359375,0,0
-2.69638221652713E-05,7.09966798240202E-06,1.93359375,0,0
-2.75998736469774E-05,8.17123236629413E-06,1.93359375,0,0
-2.72020624834113E-05,8.17497402749723E-06,1.93359375,0,0
-2.73317727987887E-05,8.73297813086538E-06,1.93359375,0,0
-2.8419117370504E-05,9.54698680288857E-06,1.93359375,0,0
-2.78373572655255E-05,9.39227811613819E-06,1.93359375,0,0
-2.73141849902458E-05,1.02262583823176E-05,1.93359375,0,0
-2.57625197264133E-05,1.12768011604203E-05,1.93359375,0,0
-2.77084291155916E-05,1.41391610668506E-05,1.93359375,0,0
-2.7270760256215E-05,1.58086004375946E-05,1.93359375,0,0
-2.88769224425778E-05,1.61718617164297E-05,1.93359375,0,0
-2.86116519419011E-05,1.38401510412223E-05,1.93359375,0,0
-2.94152068818221E-05,1.21552729979157E-05,1.93359375,0,0
-2.72582947218325E-05,1.05102899397025E-05,1.93359375,0,0
-2.68399162450805E-05,1.11261806523544E-05,1.93359375,0,0
-2.61131190200103E-05,1.28899937408278E-05,1.93359375,0,0
-2.67058239842299E-05,1.44380646815989E-05,1.93359375,0,0
-2.63131132669514E-05,1.46073289215565E-05,1.93359375,0,0
-2.58883919741493E-05,1.34267329485738E-05,1.93359375,0,0
-2.46957097260747E-05,1.14512613436091E-05,1.93359375,0,0
-2.55009272223106E-05,9.57761949393898E-06,1.93359375,0,0
-2.20566289499402E-05,6.69004157316522E-06,1.93359375,0,0
-3.08222224703059E-05,9.72626003203914E-06,1.93359375,0,0
-2.1486264813575E-05,7.37428172215004E-06,1.93359375,0,0
-2.51081528404029E-05,8.17114596429747E-06,1.93359375,0,0
-1.99362439161632E-05,6.60693740428542E-06,1.93359375,0,0
-2.32033235079143E-05,8.43190446175868E-06,1.93359375,0,0
-1.96367163880495E-05,8.10117217042716E-06,1.93359375,0,0
-1.92589832295198E-05,7.99346889834851E-06,1.93359375,0,0
-1.92803727259161E-05,8.65670426719589E-06,4.04296875,0,0
-2.22425878746435E-05,1.04430291685276E-05,4.04296875,0,0
-2.44200200540945E-05,1.1344574886607E-05,4.04296875,0,0
-2.24358482228126E-05,1.07050227597938E-05,4.04296875,0,0
-2.07519497052999E-05,1.14681952254614E-05,4.04296875,0,0
-1.81195646291599E-05,1.27486973724444E-05,4.04296875,0,0
-1.92918287211796E-05,1.32339246192714E-05,4.04296875,0,0
-1.95859902305529E-05,1.12678580990178E-05,4.04296875,0,0
-2.28310927923303E-05,9.45861211221199E-06,4.04296875,0,0
-2.27217296924209E-05,7.9364208431798E-06,4.04296875,0,0
-2.38152551901294E-05,9.23527568374993E-06,4.04296875,0,0
-2.33001537708333E-05,1.16163146230974E-05,4.04296875,0,0
-2.43601407419192E-05,1.41064174385974E-05,4.04296875,0,0
-2.28142580454005E-05,1.43556781040388E-05,4.04296875,0,0
-2.17448287003208E-05,1.28887859318638E-05,4.04296875,0,0
-2.00496469915379E-05,1.10112569018384E-05,4.04296875,0,0
-2.10581711144187E-05,1.1467754120531E-05,4.04296875,0,0
-2.31622634601081E-05,1.31299639178906E-05,4.04296875,0,0
-2.38689372054068E-05,1.39470575959422E-05,4.04296875,0,0
-1.86687975656241E-05,1.06108709587716E-05,4.04296875,0,0
-2.57060091826133E-05,1.43141132866731E-05,4.04296875,0,0
-1.90769405890023E-05,9.97028109850362E-06,4.04296875,0,0
-2.42364822042873E-05,1.23776735563297E-05,4.04296875,0,0
-2.14769315789454E-05,1.01106270449236E-05,4.04296875,0,0
-2.56871026067529E-05,1.19060314318631E-05,4.04296875,0,0
-2.39652654272504E-05,9.37900495046051E-06,4.04296875,0,0
-2.55161012319149E-05,8.09144876257051E-06,4.04296875,0,0
-2.48266787821194E-05,7.17404964234447E-06,4.04296875,0,0
-2.35702991631115E-05,8.50610649649752E-06,4.04296875,0,0
-2.18056520679966E-05,9.71757708612131E-06,4.04296875,0,0
-1.96221426449483E-05,8.64865160110639E-06,4.04296875,0,0
-1.929682912305E-05,6.73867407385842E-06,4.04296875,0,0
-1.76429130078759E-05,5.39545862920932E-06,4.04296875,0,0
-1.83724569069454E-05,8.34072397992713E-06,4.04296875,0,0
-1.69634113262873E-05,1.09322290882119E-05,4.04296875,0,0
-1.79356247826945E-05,1.23069703477086E-05,4.04296875,0,0
-1.78149166458752E-05,9.30022179090884E-06,4.04296875,0,0
-2.11164751817705E-05,7.94350671640132E-06,4.04296875,0,0
-2.28845565288793E-05,8.08622371550882E-06,4.04296875,0,0
-2.53161197178997E-05,1.03278898677672E-05,4.04296875,0,0
-2.61957102338783E-05,1.14468375613797E-05,4.04296875,0,0
-2.80082385870628E-05,1.22079718494206E-05,4.04296875,0,0
-2.84711168205831E-05,1.21383382065687E-05,4.04296875,0,0
-2.8856107746833E-05,1.30947464640485E-05,4.04296875,0,0
-2.86290141957579E-05,1.28226793094655E-05,4.04296875,0,0
-2.88633273157757E-05,1.28270512504969E-05,4.04296875,0,0
-2.31507019634591E-05,1.21170314741903E-05,4.04296875,0,0
-3.302382901893E-05,1.69580125657376E-05,4.04296875,0,0
-2.50157045229571E-05,1.17359131763806E-05,4.04296875,0,0
-2.96410853479756E-05,1.45255780807929E-05,4.04296875,0,0
-2.30886871577241E-05,1.31380975290085E-05,4.04296875,0,0
-2.42457681451924E-05,1.53191977005918E-05,4.04296875,0,0
-1.97112221940188E-05,1.34691035782453E-05,4.04296875,0,0
-2.09666141017806E-05,1.3194655366533E-05,4.04296875,0,0
-2.00119411601918E-05,1.15168149932288E-05,4.04296875,0,0
-1.80161441676319E-05,1.05243116195197E-05,4.04296875,0,0
-1.64117227541283E-05,1.06747866084334E-05,4.04296875,0,0
-1.55895759235136E-05,1.03288120953948E-05,4.04296875,0,0
-1.6615213098703E-05,1.10183900687844E-05,4.04296875,0,0
-1.40073170769028E-05,1.08747744889115E-05,4.04296875,0,0
-1.39290295919636E-05,1.20345157483825E-05,4.04296875,0,0
-1.32613959067385E-05,1.14684380605468E-05,4.04296875,0,0
-1.59017963596853E-05,1.20181739475811E-05,4.04296875,0,0
-1.4951058801671E-05,1.1600802281464E-05,4.04296875,0,0
-1.51465710587217E-05,1.21081166071235E-05,4.04296875,0,0
-1.34798119688639E-05,1.16870705824113E-05,4.04296875,0,0
-1.51856238517212E-05,1.3699089322472E-05,4.04296875,0,0
-1.52427510329289E-05,1.62315045599826E-05,4.04296875,0,0
-1.55508587340591E-05,1.80466340680141E-05,4.04296875,0,0
-1.61263560585212E-05,1.67540219990769E-05,4.04296875,0,0
-1.78836835402763E-05,1.4742827261216E-05,4.04296875,0,0
-1.84139498742297E-05,1.36234903038712E-05,4.04296875,0,0
-1.88997018994996E-05,1.41409846037277E-05,4.04296875,0,0
-1.60987056005979E-05,1.0620918146742E-05,4.04296875,0,0
-2.30636287597008E-05,1.41740738399676E-05,4.04296875,0,0
-1.79461349034682E-05,9.91297929431312E-06,4.04296875,0,0
-2.16317112062825E-05,1.26538880067528E-05,4.04296875,0,0
-1.77562760654837E-05,1.16221917778603E-05,4.04296875,0,0
-2.00139129447052E-05,1.49673669511685E-05,4.04296875,0,0
-1.93984869838459E-05,1.35819218485267E-05,4.04296875,0,0
-2.11938749998808E-05,1.31946953842998E-05,4.04296875,0,0
-2.19990142795723E-05,1.10847231553635E-05,4.04296875,0,0
-2.45914816332515E-05,9.80703407549299E-06,4.04296875,0,0
-2.83999415842118E-05,9.24215510167414E-06,4.04296875,0,0
-3.21070001518819E-05,8.62797696754569E-06,4.04296875,0,0
-3.47751629306003E-05,7.90084777690936E-06,4.04296875,0,0
-3.37096535076853E-05,5.8959726629837E-06,4.04296875,0,0
-3.41867780662142E-05,6.29802025287063E-06,4.04296875,0,0
-3.33463940478396E-05,5.96798463448067E-06,4.04296875,0,0
-3.43371284543537E-05,6.77839898344246E-06,4.04296875,0,0
-3.35513395839371E-05,6.98056192049989E-06,4.04296875,0,0
-3.47950881405268E-05,8.39249059936265E-06,4.04296875,0,0
-3.54877447534818E-05,6.68180746288272E-06,4.04296875,0,0
-3.74970841221511E-05,4.84966585645452E-06,4.04296875,0,0
-3.66551903425716E-05,4.24574545832002E-06,4.04296875,0,0
-3.61201236955822E-05,6.49034382149694E-06,4.04296875,0,0
-3.58815923391376E-05,8.64375215314794E-06,4.04296875,0,0
-3.56998716597445E-05,9.90175431070384E-06,4.04296875,0,0
-3.50156515196431E-05,9.77303534455132E-06,4.04296875,0,0
-3.45006192219444E-05,9.82722667686176E-06,4.04296875,0,0
-2.83061490335967E-05,8.33247031550854E-06,4.04296875,0,0
-4.03934136556927E-05,1.26969525808818E-05,4.04296875,0,0
-2.92144977720454E-05,1.20058157335734E-05,4.04296875,0,0
-3.33393436449114E-05,1.67372945725219E-05,4.04296875,0,0
-2.5244667995139E-05,1.56133246491663E-05,4.04296875,0,0
-2.81787615676876E-05,1.29916479636449E-05,4.04296875,0,0
-2.38535321841482E-05,8.69787891133456E-06,4.04296875,0,0
-2.46582203544676E-05,9.40199788601603E-06,4.04296875,0,0
-2.47995576501125E-05,9.95574464468518E-06,4.04296875,0,0
-2.48033738898812E-05,9.7846223070519E-06,4.04296875,0,0
-2.34797917073593E-05,1.00696570370928E-05,4.04296875,0,0
-2.18191580643179E-05,8.65112360770581E-06,4.04296875,0,0
-2.27325672312872E-05,7.00154032529099E-06,4.04296875,0,0
-2.04640546144219E-05,5.6403277994832E-06,4.04296875,0,0
-2.05601700145053E-05,7.23660423318506E-06,4.04296875,0,0
-1.74917349795578E-05,9.14614338398678E-06,4.04296875,0,0
-1.70852017618017E-05,1.09550273919012E-05,4.04296875,0,0
-1.38893501571147E-05,1.00910756373196E-05,4.04296875,0,0
-1.41318587338901E-05,9.54407551034819E-06,4.04296875,0,0
-1.28644496726338E-05,9.12336508918088E-06,4.04296875,0,0
-1.48929393617436E-05,9.47126591199776E-06,4.04296875,0,0
-1.46025904541602E-05,9.2263817350613E-06,4.04296875,0,0
-1.53982891788473E-05,9.72706675383961E-06,4.04296875,0,0
-1.60169620357919E-05,1.05762719613267E-05,4.04296875,0,0
-1.72809413925279E-05,1.15573529910762E-05,4.04296875,0,0
-1.87645600817632E-05,1.19078295028885E-05,4.04296875,0,0
-2.1451895008795E-05,1.16095452540321E-05,4.04296875,0,0
-1.8420969354338E-05,9.39571782510029E-06,4.04296875,0,0
-2.72674751613522E-05,1.25612987176282E-05,4.04296875,0,0
-2.29335673793685E-05,7.51574816604261E-06,4.04296875,0,0
-2.85882269963622E-05,8.77306956681423E-06,4.04296875,0,0
-2.58921263593948E-05,6.86252360537765E-06,4.04296875,0,0
-2.94022047455655E-05,9.31177419261076E-06,4.04296875,0,0
-2.77463968814118E-05,1.03580041468376E-05,4.04296875,0,0
-2.80146978184348E-05,1.13890191641985E-05,4.04296875,0,0
-2.6436135158292E-05,9.88344345387304E-06,4.04296875,0,0
-2.60061842709547E-05,9.8147347671329E-06,4.04296875,0,0
-2.57362207776168E-05,1.11664730866323E-05,4.04296875,0,0
-2.43909107666695E-05,1.15000984806102E-05,4.04296875,0,0
-2.58583513641497E-05,1.04260052466998E-05,4.04296875,0,0
-2.75233851425583E-05,6.90354181642761E-06,4.04296875,0,0
-3.07697664538864E-05,5.49443666386651E-06,4.04296875,0,0
-2.97501610475592E-05,5.52441088075284E-06,4.04296875,0,0
-2.95515346806496E-05,7.42600332159782E-06,4.04296875,0,0
-2.81476386589929E-05,7.63902153266827E-06,4.04296875,0,0
-2.91940577881178E-05,7.74899945099605E-06,4.04296875,0,0
-2.77953276963672E-05,6.3289376157627E-06,4.04296875,0,0
-2.72083489107899E-05,6.52399239697843E-06,4.04296875,0,0
-2.64601821982069E-05,7.81584549258696E-06,4.04296875,0,0
-2.79385076282779E-05,9.97642200672999E-06,4.04296875,0,0
-2.75079073617235E-05,1.12876086859615E-05,4.04296875,0,0
-2.54103779298021E-05,1.18327488962677E-05,4.04296875,0,0
-2.38725842791609E-05,1.03319271147484E-05,4.04296875,0,0
-2.49553104367806E-05,8.35507944429992E-06,4.04296875,0,0
-2.30052810366033E-05,8.05294530437095E-06,4.04296875,0,0
-3.17839294439182E-05,1.34995498228818E-05,4.04296875,0,0
-2.18204113480169E-05,1.22847377497237E-05,4.04296875,0,0
-2.69670017587487E-05,1.42027820402291E-05,4.04296875,0,0
-2.29012202908052E-05,1.37001989060082E-05,4.04296875,0,0
-2.56374369200785E-05,1.56264468387235E-05,4.04296875,0,0
-2.15383970498806E-05,1.59746559802443E-05,4.04296875,0,0
-2.13514322240371E-05,1.77973033714807E-05,4.04296875,0,0
-2.01871498575201E-05,1.99883324967232E-05,4.04296875,0,0
-1.94293643289711E-05,2.11624865187332E-05,4.04296875,0,0
-1.83062093128683E-05,2.03576946660178E-05,6.85546875,0,0
-1.8527887732489E-05,1.77611582330428E-05,6.85546875,0,0
-2.25240019062767E-05,1.54551053128671E-05,6.85546875,0,0
-2.43852700805292E-05,1.35566469907644E-05,6.85546875,0,0
-2.7363177650841E-05,1.34033798531163E-05,6.85546875,0,0
-2.73173609457444E-05,1.26458426166209E-05,6.85546875,0,0
-2.99390630971175E-05,1.25284550449578E-05,6.85546875,0,0
-2.9254184482852E-05,1.18018415378174E-05,6.85546875,0,0
-3.00413685181411E-05,1.20673976198304E-05,6.85546875,0,0
-2.94222645607078E-05,1.20222721307073E-05,6.85546875,0,0
-3.10059112962335E-05,1.24302878248272E-05,6.85546875,0,0
-2.96961861749878E-05,1.24691086966777E-05,6.85546875,0,0
-2.83122008113423E-05,1.17134532047203E-05,6.85546875,0,0
-2.65151138592046E-05,1.01994128272054E-05,6.85546875,0,0
-2.59024436672917E-05,9.6428284450667E-06,6.85546875,0,0
-2.48789292527363E-05,9.86133727565175E-06,6.85546875,0,0
-2.43139493250055E-05,1.03676975413691E-05,6.85546875,0,0
-1.88176381925587E-05,9.12400628294563E-06,6.85546875,0,0
-2.5754963644431E-05,1.32257700897753E-05,6.85546875,0,0
-1.79076960193925E-05,1.00136330729583E-05,6.85546875,0,0
-2.1709765860578E-05,1.24619182315655E-05,6.85546875,0,0
-1.66967929544626E-05,1.14780887088273E-05,6.85546875,0,0
-1.89014772331575E-05,1.17593144750572E-05,6.85546875,0,0
-1.70003349921899E-05,8.66096252138959E-06,6.85546875,0,0
-1.64590328495251E-05,8.97153586265631E-06,6.85546875,0,0
-1.36038433993235E-05,8.95927678357111E-06,6.85546875,0,0
-1.31027591123711E-05,7.62288755140617E-06,6.85546875,0,0
-1.48208773680381E-05,6.6149818849226E-06,6.85546875,0,0
-1.64104349096306E-05,6.3110073824646E-06,6.85546875,0,0
-1.94756903511006E-05,6.43810608380591E-06,6.85546875,0,0
-2.02348473976599E-05,5.36727566213813E-06,6.85546875,0,0
-2.16961270780303E-05,5.71246255276492E-06,6.85546875,0,0
-2.05383876163978E-05,6.58245198792429E-06,6.85546875,0,0
-2.17964770854451E-05,8.93694050319027E-06,6.85546875,0,0
-2.0975527149858E-05,8.53884466778254E-06,6.85546875,0,0
-2.13593757507624E-05,7.69370944908587E-06,6.85546875,0,0
-2.02228311536601E-05,7.17148532203282E-06,6.85546875,0,0
-2.08482997550163E-05,8.90711544343503E-06,6.85546875,0,0
-2.07849443540908E-05,1.03142601801665E-05,6.85546875,0,0
-2.33551108976826E-05,1.05778017314151E-05,6.85546875,0,0
-2.5529754566378E-05,9.20259299164172E-06,6.85546875,0,0
-2.67865580099169E-05,9.02287138160318E-06,6.85546875,0,0
-2.72229026450077E-05,9.88789088296471E-06,6.85546875,0,0
-2.87628554360708E-05,1.00482575362548E-05,6.85546875,0,0
-2.43655140366172E-05,6.13446445640875E-06,6.85546875,0,0
-3.38544086844195E-05,9.755790415511E-06,6.85546875,0,0
-2.47456282522762E-05,1.03165648397407E-05,6.85546875,0,0
-3.15752949973103E-05,1.32747345560347E-05,6.85546875,0,0
-2.6223326131003E-05,1.14035756269004E-05,6.85546875,0,0
-2.71793087449623E-05,1.17661902550026E-05,6.85546875,0,0
-2.22245398617815E-05,1.16137398435967E-05,6.85546875,0,0
-2.22984035644913E-05,1.2990647519473E-05,6.85546875,0,0
-2.01874172489624E-05,1.33109188027447E-05,6.85546875,0,0
-1.99909227376338E-05,1.27026587506407E-05,6.85546875,0,0
-1.92407005670248E-05,1.10423570731655E-05,6.85546875,0,0
-1.53232595039299E-05,9.90352418739349E-06,6.85546875,0,0
-1.38811765282298E-05,1.0011060112447E-05,6.85546875,0,0
-1.30317775983713E-05,1.03448082882096E-05,6.85546875,0,0
-1.67757389135659E-05,1.0904537703027E-05,6.85546875,0,0
-1.78342088474892E-05,9.60993020271417E-06,6.85546875,0,0
-2.06119821086759E-05,8.98111375136068E-06,6.85546875,0,0
-2.04004645638634E-05,8.69572795636486E-06,6.85546875,0,0
-2.30377681873506E-05,1.02981221061782E-05,6.85546875,0,0
-2.40562203543959E-05,1.20999484352069E-05,6.85546875,0,0
-2.70961518253898E-05,1.39309267979115E-05,6.85546875,0,0
-2.70777854893822E-05,1.40445145007106E-05,6.85546875,0,0
-2.77755789284129E-05,1.33710173031432E-05,6.85546875,0,0
-2.86529175355099E-05,1.10277587737073E-05,6.85546875,0,0
-3.09384158754256E-05,9.34106628847076E-06,6.85546875,0,0
-3.23542371916119E-05,1.07283221950638E-05,6.85546875,0,0
-3.34190954163205E-05,1.35757600219222E-05,6.85546875,0,0
-2.79147679975722E-05,1.38863715619664E-05,6.85546875,0,0
-3.94019480154384E-05,2.06563709070906E-05,6.85546875,0,0
-2.87211059912806E-05,1.4234215086617E-05,6.85546875,0,0
-3.35651056957431E-05,1.53453256643843E-05,6.85546875,0,0
-2.48991655098507E-05,1.3225173461251E-05,6.85546875,0,0
-2.61667482845951E-05,1.45398917084094E-05,6.85546875,0,0
-2.11614988074871E-05,1.1026439096895E-05,6.85546875,0,0
-2.25189851335017E-05,8.99555288924603E-06,6.85546875,0,0
-2.26866086450173E-05,7.07057506588171E-06,6.85546875,0,0
-2.24103132495657E-05,6.94332675266196E-06,6.85546875,0,0
-2.03031158889644E-05,6.94057234795764E-06,6.85546875,0,0
-1.55373745656107E-05,6.05922286922578E-06,6.85546875,0,0
-1.36333119371557E-05,6.25815528110252E-06,6.85546875,0,0
-1.21508455777075E-05,5.76135153096402E-06,6.85546875,0,0
-1.54517128976295E-05,6.77950129102101E-06,6.85546875,0,0
-1.58871807798278E-05,6.81300616633962E-06,6.85546875,0,0
-1.93668911379064E-05,8.71317843120778E-06,6.85546875,0,0
-1.94396652659634E-05,8.0009012890514E-06,6.85546875,0,0
-2.07941902772291E-05,7.22294771549059E-06,6.85546875,0,0
-1.91873441508505E-05,6.96123561283457E-06,6.85546875,0,0
-2.06074655579869E-05,9.40990412345855E-06,6.85546875,0,0
-2.0480394596234E-05,1.01641180663137E-05,6.85546875,0,0
-2.07683115149848E-05,1.01461309895967E-05,6.85546875,0,0
-1.88636404345743E-05,9.2943055278738E-06,6.85546875,0,0
-1.88038320629857E-05,9.10154722078005E-06,6.85546875,0,0
-1.98878406081349E-05,1.00667439255631E-05,6.85546875,0,0
-2.14727988350205E-05,1.13913083623629E-05,6.85546875,0,0
-1.82824223884381E-05,9.27549172047293E-06,6.85546875,0,0
-2.53656344284536E-05,1.19572659968981E-05,6.85546875,0,0
-1.89126531040529E-05,7.44412136555184E-06,6.85546875,0,0
-2.43816175498068E-05,1.05256995084346E-05,6.85546875,0,0
-2.24070736294379E-05,9.75498824118404E-06,6.85546875,0,0
-2.65211219812045E-05,1.1754490515159E-05,6.85546875,0,0
-2.49664553848561E-05,1.09987568066572E-05,6.85546875,0,0
-2.58672480413225E-05,1.25032929645386E-05,6.85546875,0,0
-2.38540305872448E-05,1.41445962071884E-05,6.85546875,0,0
