biceps_emg, triceps_emg, subject_position, position_estimate, brace_position
-2.06839304155437E-05,7.94993593444815E-06,1.93359375,0,0
-1.90436476259492E-05,8.18645639810711E-06,1.93359375,0,0
-1.83599131560186E-05,1.02845378933125E-05,1.93359375,0,0
-1.74649758264422E-05,1.1357889889041E-05,1.93359375,0,0
-1.98768939299043E-05,1.32855748233851E-05,1.93359375,0,0
-2.04289335670182E-05,1.43451488838764E-05,1.93359375,0,0
-2.20157835428836E-05,1.60879171744455E-05,1.93359375,0,0
-2.22666349145584E-05,1.63637214427581E-05,1.93359375,0,0
-2.28816097660456E-05,1.65439705597237E-05,1.93359375,0,0
-2.19426783587551E-05,1.47841583384434E-05,1.93359375,0,0
-2.23158531298395E-05,1.27779112517601E-05,1.93359375,0,0
-2.18659206439042E-05,1.08295207610354E-05,1.93359375,0,0
-2.08042292797472E-05,1.03711236079107E-05,1.93359375,0,0
-1.94959029613528E-05,1.08459689727169E-05,1.93359375,0,0
-1.98570978682255E-05,1.19791075121611E-05,1.93359375,0,0
-1.78506579686655E-05,1.07662817754317E-05,1.93359375,0,0
-2.66491024376592E-05,1.65922647283878E-05,1.93359375,0,0
-2.09936042665504E-05,1.48358431033557E-05,1.93359375,0,0
-2.51533438131446E-05,1.69058221217711E-05,1.93359375,0,0
-2.19794274016749E-05,1.30180715132155E-05,1.93359375,0,0
-2.33902155741816E-05,1.39936837513233E-05,1.93359375,0,0
-2.14728243008722E-05,1.17685340228491E-05,1.93359375,0,0
-2.35798834182788E-05,1.14933664008277E-05,1.93359375,0,0
-2.39449454966234E-05,1.27757457448752E-05,1.93359375,0,0
-2.42919122683816E-05,1.54276131070219E-05,1.93359375,0,0
-2.36746491282247E-05,1.79928956640651E-05,1.93359375,0,0
-2.06898857868509E-05,1.92814168258337E-05,1.93359375,0,0
-1.85386579687474E-05,1.96047021745471E-05,1.93359375,0,0
-1.64290759130381E-05,1.66619302035542E-05,1.93359375,0,0
-1.79261896846583E-05,1.38158738991478E-05,1.93359375,0,0
-1.76311204995727E-05,1.14930126073887E-05,1.93359375,0,0
-1.83287593245041E-05,1.25584138004342E-05,1.93359375,0,0
-1.83163338078884E-05,1.34601332320017E-05,1.93359375,0,0
-2.13411458389601E-05,1.49081452036626E-05,1.93359375,0,0
-2.19003577512922E-05,1.49270799738588E-05,1.93359375,0,0
-2.20941874431446E-05,1.56377191160573E-05,1.93359375,0,0
-2.0853653040831E-05,1.42676281029708E-05,1.93359375,0,0
-2.13738039747113E-05,1.25817759908387E-05,1.93359375,0,0
-2.19246758206282E-05,1.11423405542155E-05,1.93359375,0,0
-2.28664539463352E-05,1.02557614809484E-05,1.93359375,0,0
-2.32521415455267E-05,9.21078299143119E-06,1.93359375,0,0
-2.27639375225408E-05,7.73804913478671E-06,1.93359375,0,0
-1.78413229150465E-05,5.32710919287638E-06,1.93359375,0,0
-2.56076909863623E-05,8.31950001156656E-06,1.93359375,0,0
-2.07206740014954E-05,7.92523132986389E-06,1.93359375,0,0
-2.69459960691165E-05,9.67456799116917E-06,1.93359375,0,0
-2.37110562011367E-05,8.47451792651555E-06,1.93359375,0,0
-2.45392966462532E-05,9.32644888962386E-06,1.93359375,0,0
-2.07123102882179E-05,8.65866968524642E-06,1.93359375,0,0
-2.05780524993315E-05,8.09768243925646E-06,1.93359375,0,0
-1.90251139429165E-05,6.89234275341732E-06,1.93359375,0,0
-2.02103983610868E-05,6.78394644637592E-06,1.93359375,0,0
-2.34123981499579E-05,8.35098489915254E-06,1.93359375,0,0
-2.55887662206078E-05,1.05496237665648E-05,1.93359375,0,0
-2.82086512015667E-05,1.22730543807847E-05,1.93359375,0,0
-2.82965829683235E-05,1.27774774227873E-05,1.93359375,0,0
-2.83178069366841E-05,1.39886087708874E-05,1.93359375,0,0
-2.45933551923372E-05,1.38780078486889E-05,1.93359375,0,0
-2.26544252655003E-05,1.36481257868581E-05,1.93359375,0,0
-1.95297088794177E-05,1.34321635414381E-05,1.93359375,0,0
-1.93973410205217E-05,1.45494523167145E-05,1.93359375,0,0
-1.87515161087504E-05,1.45490166687523E-05,1.93359375,0,0
-2.01122984435642E-05,1.33714984258404E-05,1.93359375,0,0
-2.03940981009509E-05,1.26645936688874E-05,1.93359375,0,0
-2.11858150578337E-05,1.36098442453658E-05,1.93359375,0,0
-2.09580048249336E-05,1.28171895994456E-05,1.93359375,0,0
-2.2090691345511E-05,1.08520844150917E-05,1.93359375,0,0
-2.35830484598409E-05,8.75548357726075E-06,1.93359375,0,0
-2.50359316851245E-05,7.79489801061573E-06,1.93359375,0,0
-2.11068399948999E-05,6.39468225926976E-06,1.93359375,0,0
-3.09113929688465E-05,8.83683333086083E-06,1.93359375,0,0
-2.53396883636015E-05,7.55779183236882E-06,1.93359375,0,0
-3.21695806633215E-05,9.96387279883493E-06,1.93359375,0,0
-2.80966942227678E-05,9.06834793568123E-06,1.93359375,0,0
-2.94381206913386E-05,1.1893378541572E-05,1.93359375,0,0
-2.6262041501468E-05,1.16680721475859E-05,1.93359375,0,0
-2.8352140361676E-05,1.06276856968179E-05,1.93359375,0,0
-2.86268441413995E-05,8.8161959865829E-06,1.93359375,0,0
-2.84195666608866E-05,9.30144051380921E-06,1.93359375,0,0
-2.70445780188311E-05,1.07060423033545E-05,1.93359375,0,0
-2.50972516369075E-05,1.10378186946036E-05,1.93359375,0,0
-2.57730007433565E-05,1.05596209323267E-05,1.93359375,0,0
-2.48339711106382E-05,9.02189549378818E-06,1.93359375,0,0
-2.70423770416528E-05,9.00757095223526E-06,1.93359375,0,0
-2.78651423286647E-05,7.94795778347179E-06,1.93359375,0,0
-3.04413915728219E-05,6.16655597696081E-06,1.93359375,0,0
-2.93570556095801E-05,3.85077009923407E-06,1.93359375,0,0
-2.98095928883413E-05,4.92141089125653E-06,1.93359375,0,0
-2.89204035652801E-05,6.77397792969714E-06,1.93359375,0,0
-2.99369039566955E-05,8.56688984640641E-06,1.93359375,0,0
-2.87419661617605E-05,8.28300926514203E-06,1.93359375,0,0
-2.70592790911905E-05,8.05845502327429E-06,1.93359375,0,0
-2.44260154431686E-05,8.40761094877962E-06,1.93359375,0,0
-2.40271310758544E-05,8.40634766063886E-06,1.93359375,0,0
-2.51057317655068E-05,7.4201220741088E-06,1.93359375,0,0
-2.53431262535742E-05,8.67713060870301E-06,1.93359375,0,0
-1.90760656550992E-05,8.7093940237537E-06,1.93359375,0,0
-2.58935469901189E-05,1.25202068375074E-05,1.93359375,0,0
-1.94512358575594E-05,9.62680496741086E-06,1.93359375,0,0
-2.67948944383534E-05,1.16590881589218E-05,1.93359375,0,0
-2.39181499637198E-05,9.79725882643834E-06,1.93359375,0,0
-2.68364256044151E-05,1.15734019345837E-05,1.93359375,0,0
-2.51467463385779E-05,1.11522012957721E-05,1.93359375,0,0
-2.60443484876305E-05,1.19711194201955E-05,1.93359375,0,0
-2.51527089858428E-05,1.177769536298E-05,1.93359375,0,0
-2.53951184276957E-05,1.20561026051291E-05,1.93359375,0,0
-2.59996922977734E-05,1.30890057334909E-05,1.93359375,0,0
-2.59917451330693E-05,1.34997862915043E-05,1.93359375,0,0
-2.72925535682589E-05,1.44477880894556E-05,1.93359375,0,0
-2.65137459791731E-05,1.4371340512298E-05,1.93359375,0,0
-2.75617148872698E-05,1.52373550008633E-05,1.93359375,0,0
-2.61182412941707E-05,1.54686713358387E-05,1.93359375,0,0
-2.61324385064654E-05,1.57368231157307E-05,1.93359375,0,0
-2.38139691646211E-05,1.39950179800508E-05,1.93359375,0,0
-2.3647609850741E-05,1.30999715111102E-05,1.93359375,0,0
-2.21939553739503E-05,1.23146546684438E-05,1.93359375,0,0
-2.23950810323004E-05,1.31030974444002E-05,1.93359375,0,0
-2.06451859412482E-05,1.28129031509161E-05,1.93359375,0,0
-2.01982638827758E-05,1.23119707495789E-05,1.93359375,0,0
-2.00172125914833E-05,1.13844916995731E-05,1.93359375,0,0
-2.15976069739554E-05,1.14006070361938E-05,1.93359375,0,0
-2.23980314331129E-05,1.12327034003101E-05,1.93359375,0,0
-2.08888959605247E-05,1.03468764791614E-05,1.93359375,0,0
-1.5676883776905E-05,7.47906597098336E-06,1.93359375,0,0
-2.28924382099649E-05,1.01274927146733E-05,1.93359375,0,0
-1.85666649485938E-05,7.59062822908163E-06,1.93359375,0,0
-2.25440326175885E-05,9.64322680374607E-06,1.93359375,0,0
-1.90290938917315E-05,7.77923014538828E-06,1.93359375,0,0
-2.19272151298355E-05,1.00127672340022E-05,1.93359375,0,0
-2.16359658224974E-05,9.43097984418273E-06,1.93359375,0,0
-2.31368139793631E-05,8.96474466571817E-06,1.93359375,0,0
-2.24030882236548E-05,8.60101226862753E-06,1.93359375,0,0
-2.18897348531755E-05,9.45295050769346E-06,1.93359375,0,0
-2.1486886907951E-05,1.06979705378762E-05,1.93359375,0,0
-2.06817167054396E-05,1.1769940101658E-05,1.93359375,0,0
-2.11207207030384E-05,1.29245818243362E-05,1.93359375,0,0
-1.95732118299929E-05,1.24337275337894E-05,1.93359375,0,0
-1.980899105547E-05,1.22170895338058E-05,1.93359375,0,0
-1.93320138350828E-05,1.13093228719663E-05,1.93359375,0,0
-2.13148432521848E-05,1.16823284770362E-05,1.93359375,0,0
-2.1646250388585E-05,1.0816246685863E-05,1.93359375,0,0
-2.23159913730342E-05,9.5379227786907E-06,1.93359375,0,0
-2.1478286726051E-05,7.92828814155655E-06,1.93359375,0,0
-2.25111725740135E-05,9.49273726291722E-06,1.93359375,0,0
-2.19344765355345E-05,1.2758030607074E-05,1.93359375,0,0
-2.2102798538981E-05,1.52549600898055E-05,1.93359375,0,0
-2.25502699322533E-05,1.44094929055427E-05,1.93359375,0,0
-2.34978488151683E-05,1.29993732116418E-05,1.93359375,0,0
-2.32622951443773E-05,1.29499439935898E-05,1.93359375,0,0
-2.3643809981877E-05,1.40779120556545E-05,1.93359375,0,0
-1.93271298485342E-05,1.13015248643933E-05,1.93359375,0,0
-2.64330901700305E-05,1.52712727867765E-05,1.93359375,0,0
-1.86512788786786E-05,9.57940028456505E-06,1.93359375,0,0
-2.459481038386E-05,1.23166746561765E-05,1.93359375,0,0
-2.19203739106888E-05,1.12369179987581E-05,1.93359375,0,0
-2.53771249845158E-05,1.36684029712342E-05,1.93359375,0,0
-2.43327631324064E-05,1.24526268336922E-05,1.93359375,0,0
-2.67227278527571E-05,1.21341545309406E-05,1.93359375,0,0
-2.68417243205477E-05,1.04429418570362E-05,1.93359375,0,0
-2.7042287911172E-05,7.87346289143898E-06,1.93359375,0,0
-2.66471342911245E-05,5.68278437640402E-06,1.93359375,0,0
-2.53828402492218E-05,4.73495401820401E-06,1.93359375,0,0
-2.67538980551763E-05,6.3723387029313E-06,1.93359375,0,0
-2.72164052148582E-05,7.64400465413928E-06,1.93359375,0,0
-2.92213881039061E-05,9.49864443100523E-06,1.93359375,0,0
-2.79380747087998E-05,8.89279544935562E-06,1.93359375,0,0
-2.87266284431098E-05,8.45309932628879E-06,1.93359375,0,0
-2.82200526271481E-05,8.00029283709591E-06,1.93359375,0,0
-2.94916480925167E-05,1.00026081781834E-05,1.93359375,0,0
-2.82074433926027E-05,1.14976028271485E-05,1.93359375,0,0
-2.85130590782501E-05,1.33197572722565E-05,1.93359375,0,0
-2.83603840216529E-05,1.33889652715879E-05,1.93359375,0,0
-2.85863989120116E-05,1.33319563246914E-05,1.93359375,0,0
-2.59425814874703E-05,1.27331677504117E-05,1.93359375,0,0
-2.33683658734662E-05,1.28882238641381E-05,1.93359375,0,0
-2.23194056161447E-05,1.27251141748275E-05,1.93359375,0,0
-2.31778431043494E-05,1.33499015646521E-05,1.93359375,0,0
-1.92063907888951E-05,1.15702614493784E-05,1.93359375,0,0
-2.70130840362981E-05,1.51353715409641E-05,1.93359375,0,0
-2.06766089831945E-05,9.61453770287335E-06,1.93359375,0,0
-2.64397967839614E-05,1.23549971249304E-05,1.93359375,0,0
-2.29395118367393E-05,9.63457659963751E-06,1.93359375,0,0
-2.67496398009826E-05,1.17251165647758E-05,1.93359375,0,0
-2.57849715126213E-05,9.99773874355014E-06,1.93359375,0,0
-2.60665947280359E-05,9.50153389567276E-06,1.93359375,0,0
-2.28590033657383E-05,8.75283240020508E-06,1.93359375,0,0
-2.02014925889671E-05,8.53273559187073E-06,1.93359375,0,0
-1.91910839930642E-05,8.67708331497852E-06,1.93359375,0,0
-1.87429195648292E-05,7.78646790422499E-06,1.93359375,0,0
-2.04105217562756E-05,7.96594667917816E-06,1.93359375,0,0
-2.02215105673531E-05,7.06349783285987E-06,1.93359375,0,0
-2.22314101847587E-05,7.90649664850207E-06,1.93359375,0,0
-2.21463542402489E-05,8.23068876343314E-06,1.93359375,0,0
-2.38108186749741E-05,1.05286680991412E-05,1.93359375,0,0
-2.27319433179218E-05,1.11608733277535E-05,1.93359375,0,0
-2.29434208449675E-05,1.16550490929512E-05,1.93359375,0,0
-2.11598962778226E-05,1.0742627637228E-05,1.93359375,0,0
-2.09540867217584E-05,1.09767861431465E-05,1.93359375,0,0
-1.96197979676072E-05,9.95490881905425E-06,1.93359375,0,0
-1.90277514775516E-05,7.53330186853418E-06,1.93359375,0,0
-1.75046880031005E-05,5.02721468365053E-06,1.93359375,0,0
-1.58354014274664E-05,6.10885626883828E-06,1.93359375,0,0
-1.49052384585957E-05,1.00543065855163E-05,1.93359375,0,0
-1.58154234668473E-05,1.09666607386316E-05,1.93359375,0,0
-1.32310779008549E-05,6.83233065501554E-06,1.93359375,0,0
-1.76937210198957E-05,9.25728181755403E-06,1.93359375,0,0
-1.19187216114369E-05,6.82437848809059E-06,1.93359375,0,0
-1.61148873303318E-05,8.58746625453932E-06,1.93359375,0,0
-1.59364080900559E-05,6.86029716234771E-06,1.93359375,0,0
-1.97555018530693E-05,6.68257007419015E-06,1.93359375,0,0
-1.90020728041418E-05,4.66050323666423E-06,1.93359375,0,0
-1.99417045223527E-05,4.77737421533675E-06,1.93359375,0,0
-1.96277451323112E-05,4.06834124078159E-06,1.93359375,0,0
-1.9673896531458E-05,2.17594470086624E-06,1.93359375,0,0
-1.97957178897923E-05,-6.28947077530029E-07,1.93359375,0,0
-1.9956012693001E-05,-2.39534710999578E-06,1.93359375,0,0
-2.19759003812214E-05,-2.12272607313935E-06,1.93359375,0,0
-2.30061468755594E-05,-8.58827092997672E-07,1.93359375,0,0
-2.56181228905916E-05,2.32597744798113E-06,1.93359375,0,0
-2.67545856331708E-05,3.64223774340644E-06,1.93359375,0,0
-2.81571883533616E-05,3.95344159187516E-06,1.93359375,0,0
-2.71164080913877E-05,2.52878430728742E-06,1.93359375,0,0
-2.79680716630537E-05,2.88600972453423E-06,1.93359375,0,0
-2.78791030723369E-05,4.47477941634133E-06,1.93359375,0,0
-2.83163099084049E-05,7.00646478435374E-06,1.93359375,0,0
-2.82533765130211E-05,8.57674967846833E-06,1.93359375,0,0
-2.975909410452E-05,1.01081295724725E-05,1.93359375,0,0
-2.98988634312991E-05,1.11434101199848E-05,1.93359375,0,0
-2.91745618596906E-05,1.28770225273911E-05,1.93359375,0,0
-2.89930994767929E-05,1.40620250022039E-05,1.93359375,0,0
-2.96404614346102E-05,1.60440431500319E-05,1.93359375,0,0
-2.40791305259336E-05,1.50966552610043E-05,1.93359375,0,0
-3.34814831148833E-05,2.24162813537987E-05,1.93359375,0,0
-2.41837569774361E-05,1.75657005456742E-05,1.93359375,0,0
-2.96293019346194E-05,2.12521881621797E-05,1.93359375,0,0
-2.43122103711357E-05,1.77357251232024E-05,1.93359375,0,0
-2.84281977656065E-05,1.89400398085127E-05,1.93359375,0,0
-2.57103329204256E-05,1.77397396328161E-05,1.93359375,0,0
-2.69398842647206E-05,1.94074546016054E-05,1.93359375,0,0
-2.6745576178655E-05,1.90155296877492E-05,1.93359375,0,0
-2.80429012491368E-05,1.71387982845772E-05,1.93359375,0,0
-2.88524734060047E-05,1.51969152284437E-05,1.93359375,0,0
-2.75553047686117E-05,1.4577870388166E-05,1.93359375,0,0
-2.82794917438878E-05,1.66862409969326E-05,1.93359375,0,0
-2.73280675173737E-05,1.77272631844971E-05,1.93359375,0,0
-2.93019438686315E-05,1.91347589861834E-05,1.93359375,0,0
-2.83482859231299E-05,1.69547110999702E-05,1.93359375,0,0
-2.89218351099407E-05,1.49581928781117E-05,1.93359375,0,0
-2.53765974775888E-05,1.28209612739738E-05,1.93359375,0,0
-2.40849039983004E-05,1.44713749250514E-05,1.93359375,0,0
-2.1550515157287E-05,1.58012480824254E-05,1.93359375,0,0
-2.21379104914377E-05,1.65871570061427E-05,1.93359375,0,0
-2.11400565603981E-05,1.33105477289064E-05,1.93359375,0,0
-2.05623964575352E-05,9.38790617510676E-06,1.93359375,0,0
-1.93810719792964E-05,7.31189402358723E-06,1.93359375,0,0
-1.91626604646444E-05,8.85298868524842E-06,1.93359375,0,0
-1.88763588084839E-05,1.02593849078403E-05,1.93359375,0,0
-1.92834286281141E-05,1.10879245767137E-05,1.93359375,0,0
-1.514657651569E-05,1.10475129986298E-05,1.93359375,0,0
-2.27630262088496E-05,1.60473555297358E-05,1.93359375,0,0
-1.93220093933633E-05,1.21629891509656E-05,1.93359375,0,0
-2.28719127335353E-05,1.42437247632188E-05,1.93359375,0,0
-1.8704036847339E-05,1.34099673232413E-05,1.93359375,0,0
-2.09092813747702E-05,1.64474895427702E-05,1.93359375,0,0
-2.09023583011003E-05,1.50391842907993E-05,1.93359375,0,0
-2.28566059377044E-05,1.44858813655446E-05,1.93359375,0,0
-2.30225741688628E-05,1.28490801216685E-05,1.93359375,0,0
-2.3561849957332E-05,1.20123422675533E-05,1.93359375,0,0
-2.4713583115954E-05,1.09045322460588E-05,1.93359375,0,0
-2.54959522862919E-05,1.0416132681712E-05,1.93359375,0,0
-2.6686077035265E-05,1.21412294902257E-05,1.93359375,0,0
-2.54826300079003E-05,1.19905253086472E-05,1.93359375,0,0
-2.50576740654651E-05,1.17262643470895E-05,1.93359375,0,0
-2.34620147239184E-05,1.03964730442385E-05,1.93359375,0,0
-2.46422132477164E-05,1.15222755994182E-05,1.93359375,0,0
-2.53276448347606E-05,1.14031445264118E-05,1.93359375,0,0
-2.74092835752526E-05,1.0928871233773E-05,1.93359375,0,0
-2.74706289928872E-05,8.43010366224917E-06,1.93359375,0,0
-2.85486057691742E-05,7.42749398341402E-06,1.93359375,0,0
-2.84903799183667E-05,6.14868531556567E-06,1.93359375,0,0
-2.94373930955771E-05,4.7683970478829E-06,1.93359375,0,0
-3.13582968374249E-05,2.25208191295678E-06,1.93359375,0,0
-3.36493394570425E-05,-3.58045326720458E-07,1.93359375,0,0
-3.37348246830516E-05,-2.38566485677438E-06,1.93359375,0,0
-3.22213745675981E-05,-3.54091616827645E-06,1.93359375,0,0
-2.54406495514559E-05,-1.71630267686851E-06,1.93359375,0,0
-3.60740414180327E-05,9.81286802925752E-07,1.93359375,0,0
-2.71193312073592E-05,6.45207728666719E-06,1.93359375,0,0
-3.22394880640786E-05,6.56638803775422E-06,1.93359375,0,0
-2.45227765844902E-05,5.8046880440088E-06,1.93359375,0,0
-2.65643011516659E-05,5.26331768924138E-06,1.93359375,0,0
-2.3182961740531E-05,6.82404333929298E-06,1.93359375,0,0
-2.44804541580379E-05,6.53581673759618E-06,1.93359375,0,0
-2.28248336497927E-05,5.83786095376126E-06,1.93359375,0,0
-2.23817187361419E-05,3.93732489101239E-06,1.93359375,0,0
-2.22923536057351E-05,2.1948781068204E-06,1.93359375,0,0
-2.01789098355221E-05,1.95219013221504E-06,1.93359375,0,0
-1.94714812096208E-05,2.67764107775292E-06,1.93359375,0,0
-1.71472402143991E-05,3.40449264513154E-06,1.93359375,0,0
-1.83358060894534E-05,3.56494206243951E-06,1.93359375,0,0
-1.64229022630025E-05,4.92324579681735E-06,1.93359375,0,0
-1.66341342264786E-05,7.24200390322949E-06,1.93359375,0,0
-1.4626314623456E-05,9.47914759308333E-06,1.93359375,0,0
-1.66548979905201E-05,9.62891681410838E-06,1.93359375,0,0
-1.71216015587561E-05,9.5701407190063E-06,1.93359375,0,0
-1.89086040336406E-05,1.05528370113461E-05,1.93359375,0,0
-1.7656291674939E-05,1.36806065711426E-05,1.93359375,0,0
-1.81936611625133E-05,1.62694414029829E-05,1.93359375,0,0
-1.89109978236957E-05,1.68086498888442E-05,1.93359375,0,0
-2.10756170417881E-05,1.581663491379E-05,1.93359375,0,0
-2.26704196393257E-05,1.58854800247354E-05,1.93359375,0,0
-2.30486803047825E-05,1.58518032549182E-05,1.93359375,0,0
-1.8685961549636E-05,1.2350323231658E-05,1.93359375,0,0
-2.66086863121018E-05,1.75177283381345E-05,1.93359375,0,0
-2.09372337849345E-05,1.35715899887145E-05,1.93359375,0,0
-2.66292572632665E-05,1.64302909979597E-05,1.93359375,0,0
-2.37222429859685E-05,1.27436796901748E-05,1.93359375,0,0
-2.65611070062732E-05,1.47145847222419E-05,1.93359375,0,0
-2.43623762798961E-05,1.28569545267965E-05,1.93359375,0,0
-2.5821467716014E-05,1.18224925245158E-05,1.93359375,0,0
-2.54892584052868E-05,9.19178273761645E-06,1.93359375,0,0
-2.42111054831184E-05,8.23983282316476E-06,1.93359375,0,0
-2.33502814808162E-05,9.49112654780038E-06,1.93359375,0,0
-2.33108930842718E-05,1.14556696644286E-05,1.93359375,0,0
-2.53851630986901E-05,1.31112510644016E-05,1.93359375,0,0
-2.51899000431877E-05,1.30252046801616E-05,1.93359375,0,0
-2.54735095950309E-05,1.45316917041782E-05,1.93359375,0,0
-2.20261190406745E-05,1.47263108374318E-05,1.93359375,0,0
-1.99054920813069E-05,1.62501801241888E-05,1.93359375,0,0
-1.72001218743389E-05,1.48421831909218E-05,1.93359375,0,0
-1.85576627700357E-05,1.34719384732307E-05,1.93359375,0,0
-1.9552842786652E-05,1.22235060189269E-05,1.93359375,0,0
-2.15104955714196E-05,1.30096595967188E-05,1.93359375,0,0
-2.07719349418767E-05,1.1981669558736E-05,1.93359375,0,0
-2.10143607546343E-05,1.17245972433011E-05,1.93359375,0,0
-2.10685611818917E-05,1.20936647363123E-05,1.93359375,0,0
-2.17744309338741E-05,1.27795528896968E-05,1.93359375,0,0
-2.27674627240049E-05,1.06587540358305E-05,1.93359375,0,0
-2.41757988987956E-05,8.9838922576746E-06,1.93359375,0,0
-2.05659544008086E-05,9.82739948085509E-06,1.93359375,0,0
-2.92123550025281E-05,1.64045522978995E-05,1.93359375,0,0
-2.25328476517461E-05,1.42741846502759E-05,1.93359375,0,0
-2.86964932456613E-05,1.48206499943626E-05,1.93359375,0,0
-2.56331823038636E-05,1.40173979161773E-05,1.93359375,0,0
-2.92331969831139E-05,1.7191521692439E-05,1.93359375,0,0
-2.7513386157807E-05,1.56386176968226E-05,1.93359375,0,0
-2.89390900434228E-05,1.40879310492892E-05,1.93359375,0,0
-2.77740673482185E-05,1.27142702694982E-05,1.93359375,0,0
-2.68920139205875E-05,1.18922343972372E-05,1.93359375,0,0
-2.65617472905433E-05,1.09993970909272E-05,1.93359375,0,0
-2.6398776753922E-05,9.55982068262529E-06,1.93359375,0,0
-2.88042720058002E-05,9.66791139944689E-06,1.93359375,0,0
-2.99513540085172E-05,1.01459500001511E-05,1.93359375,0,0
-3.26318404404446E-05,1.17248810056481E-05,1.93359375,0,0
-3.26093031617347E-05,1.16856499516871E-05,1.93359375,0,0
-3.42815328622237E-05,1.18035768537084E-05,1.93359375,0,0
-3.2920237572398E-05,1.01497262221528E-05,1.93359375,0,0
-3.28527639794629E-05,8.75104251463199E-06,1.93359375,0,0
-3.07848313241266E-05,6.90819570081658E-06,1.93359375,0,0
-3.08987182506826E-05,5.95791652813205E-06,1.93359375,0,0
-2.8946789825568E-05,5.12087808601791E-06,1.93359375,0,0
-2.77951130556175E-05,5.66281687497394E-06,1.93359375,0,0
-2.64005448116222E-05,6.87865122017683E-06,1.93359375,0,0
-2.61340483120875E-05,8.83951815922046E-06,1.93359375,0,0
-2.62780977209331E-05,1.06150773717673E-05,1.93359375,0,0
-2.65194394160062E-05,1.02316616903408E-05,1.93359375,0,0
-2.20664460357511E-05,6.00477005718858E-06,1.93359375,0,0
-3.37061319442E-05,8.37079096527305E-06,1.93359375,0,0
-2.93635748676024E-05,5.67630604564329E-06,1.93359375,0,0
-3.53237810486462E-05,5.39714255864965E-06,1.93359375,0,0
-2.97602091450244E-05,2.81196048490528E-06,1.93359375,0,0
-3.15483375743497E-05,4.70232453153585E-06,1.93359375,0,0
-2.90822081296938E-05,5.91823527429369E-06,1.93359375,0,0
-3.05721150652971E-05,7.0922701524978E-06,1.93359375,0,0
-2.96442940452835E-05,7.27820861357031E-06,1.93359375,0,0
-2.92820495815249E-05,7.56665440349025E-06,1.93359375,0,0
-2.8752876460203E-05,7.77315835875925E-06,1.93359375,0,0
-2.73823789029848E-05,8.69406994752353E-06,1.93359375,0,0
-2.73410605586832E-05,9.80281402007677E-06,1.93359375,0,0
-2.41110137721989E-05,8.69962877914077E-06,1.93359375,0,0
-2.35198749578558E-05,8.07557808002457E-06,1.93359375,0,0
-2.32172660616925E-05,8.61587068357039E-06,1.93359375,0,0
-2.60843680734979E-05,1.0989727343258E-05,1.93359375,0,0
-2.50887769652763E-05,1.13021515062428E-05,1.93359375,0,0
-2.50507127930177E-05,1.02341164165409E-05,1.93359375,0,0
-2.32415331993252E-05,8.52292851050152E-06,1.93359375,0,0
-2.30393670790363E-05,7.54445954953553E-06,1.93359375,0,0
-2.18126133404439E-05,5.82293750994722E-06,1.93359375,0,0
-2.23936785914702E-05,4.59775128547335E-06,1.93359375,0,0
-2.18843488255516E-05,3.50482355315762E-06,1.93359375,0,0
-2.24889172386611E-05,5.01769090988091E-06,1.93359375,0,0
-2.21974551095627E-05,8.50938431540271E-06,1.93359375,0,0
-2.16274602280464E-05,1.14236290755798E-05,1.93359375,0,0
-1.78582158696372E-05,1.07423757071956E-05,1.93359375,0,0
-2.58535037573893E-05,1.41159744089236E-05,1.93359375,0,0
-2.04867337743053E-05,8.78468017617706E-06,1.93359375,0,0
-2.60431552305818E-05,1.21948160085594E-05,1.93359375,0,0
-2.2958140107221E-05,1.12605466711102E-05,1.93359375,0,0
-2.41907873714808E-05,1.29821437440114E-05,1.93359375,0,0
-2.14711326407269E-05,1.20097611215897E-05,1.93359375,0,0
-2.21779173443792E-05,1.30760663523688E-05,1.93359375,0,0
-1.98559082491556E-05,1.24413591038319E-05,1.93359375,0,0
-1.68839760590345E-05,1.04590499176993E-05,1.93359375,0,0
-1.61444640980335E-05,8.15324528957717E-06,1.93359375,0,0
-1.69616578205023E-05,7.44450744605274E-06,1.93359375,0,0
-1.90021437447285E-05,9.0627390818554E-06,1.93359375,0,0
-1.8092123355018E-05,1.06585484900279E-05,1.93359375,0,0
-1.80495335371234E-05,1.3710083294427E-05,1.93359375,0,0
-1.69795330293709E-05,1.47458076753537E-05,1.93359375,0,0
-1.96929195226403E-05,1.52275570144411E-05,1.93359375,0,0
-2.17026772588724E-05,1.28179881357937E-05,1.93359375,0,0
-2.49825716309715E-05,1.20085624075728E-05,1.93359375,0,0
-2.50870452873642E-05,1.22382025438128E-05,1.93359375,0,0
-2.47740135819186E-05,1.38058394441032E-05,1.93359375,0,0
-2.32148231589235E-05,1.2830811101594E-05,1.93359375,0,0
-2.37603871937608E-05,1.24532925838139E-05,1.93359375,0,0
-2.35303341469262E-05,1.30634671222651E-05,1.93359375,0,0
-2.31353060371475E-05,1.30533271658351E-05,1.93359375,0,0
-2.33261052926537E-05,1.25379901874112E-05,1.93359375,0,0
-2.47875595960068E-05,1.27564244394307E-05,1.93359375,0,0
-2.13751736737322E-05,1.02174917628872E-05,1.93359375,0,0
-2.98544928227784E-05,1.50334408317576E-05,1.93359375,0,0
-2.10028283618158E-05,1.17044710350456E-05,1.93359375,0,0
-2.55377581197536E-05,1.38094992507831E-05,1.93359375,0,0
-2.13026087294566E-05,1.05640719993971E-05,1.93359375,0,0
-2.45716091740178E-05,1.18007901619421E-05,1.93359375,0,0
-2.15415893762838E-05,1.2111488103983E-05,1.93359375,0,0
-2.08546553039923E-05,1.36373355417163E-05,1.93359375,0,0
-1.95255815924611E-05,1.44363330036867E-05,1.93359375,0,0
-2.08670662686927E-05,1.31585456983885E-05,1.93359375,0,0
-2.30695859499974E-05,1.05683711808524E-05,1.93359375,0,0
-2.32017737289425E-05,9.54621373239206E-06,1.93359375,0,0
-2.3143858925323E-05,1.12203533717548E-05,1.93359375,0,0
-2.07565444725333E-05,1.23136087495368E-05,1.93359375,0,0
-2.13926105061546E-05,1.35940135805868E-05,1.93359375,0,0
-2.01728544197977E-05,1.34574884214089E-05,1.93359375,0,0
-2.18232598854229E-05,1.55576472025132E-05,1.93359375,0,0
-2.23287024709862E-05,1.67758425959619E-05,1.93359375,0,0
-2.44603888859274E-05,1.63379645528039E-05,1.93359375,0,0
-2.35202533076517E-05,1.42916305776453E-05,1.93359375,0,0
-2.41762318182737E-05,1.46159281939617E-05,1.93359375,0,0
-2.40964109252673E-05,1.55806319526164E-05,1.93359375,0,0
-2.53659090958536E-05,1.71827050508E-05,1.93359375,0,0
-2.57527790381573E-05,1.69903796631843E-05,1.93359375,0,0
-2.60725246334914E-05,1.61968928296119E-05,1.93359375,0,0
-2.46632789639989E-05,1.4320087757369E-05,1.93359375,0,0
-2.29938068514457E-05,1.33061166707193E-05,1.93359375,0,0
-1.75855802808655E-05,1.15570765046868E-05,1.93359375,0,0
-2.40202880377183E-05,1.56750011228723E-05,1.93359375,0,0
-1.69529412232805E-05,9.85814131126972E-06,1.93359375,0,0
-2.13590774365002E-05,1.0755478797364E-05,1.93359375,0,0
-1.80237257154658E-05,7.73564988776343E-06,1.93359375,0,0
-2.04039024538361E-05,1.01772029665881E-05,1.93359375,0,0
-1.74177002918441E-05,8.00178167992271E-06,1.93359375,0,0
-1.81473842530977E-05,5.722248715756E-06,1.93359375,0,0
-1.82861222128849E-05,2.52621271101816E-06,1.93359375,0,0
-1.85368699021637E-05,2.81997904494347E-06,1.93359375,0,0
-1.93915202544304E-05,5.27717975273845E-06,1.93359375,0,0
-1.99578589672456E-05,7.54838265493163E-06,1.93359375,0,0
-2.17865854210686E-05,9.68613767327042E-06,1.93359375,0,0
-2.11377828236436E-05,9.30851820157841E-06,1.93359375,0,0
-2.11549559026025E-05,1.06660436358652E-05,1.93359375,0,0
-1.86395373020787E-05,1.111568781198E-05,1.93359375,0,0
-1.89009515452199E-05,1.12433881440666E-05,1.93359375,0,0
-1.87714413186768E-05,8.48861327540362E-06,1.93359375,0,0
-2.00830163521459E-05,8.94242566573666E-06,1.93359375,0,0
-1.83845404535532E-05,1.03276051959256E-05,1.93359375,0,0
-1.79597191163339E-05,1.11999734144774E-05,1.93359375,0,0
-1.7718703020364E-05,1.01090508906054E-05,1.93359375,0,0
-2.00492522708373E-05,9.92166042124154E-06,1.93359375,0,0
-2.24997911573155E-05,1.0463567377883E-05,1.93359375,0,0
-2.52356094279094E-05,1.18110865514609E-05,1.93359375,0,0
-2.71622247964842E-05,1.07489358924795E-05,1.93359375,0,0
-2.71820827038027E-05,9.80895856628194E-06,1.93359375,0,0
-1.98762791114859E-05,8.59307237988105E-06,1.93359375,0,0
-2.61512250290252E-05,1.32282211779966E-05,1.93359375,0,0
-1.78440805029823E-05,1.15924776764587E-05,1.93359375,0,0
-2.5045503207366E-05,1.25460956041934E-05,1.93359375,0,0
-2.38787670241436E-05,8.64486992213642E-06,1.93359375,0,0
-2.69789434241829E-05,1.02366420833278E-05,1.93359375,0,0
-2.15615345950937E-05,1.19852184070623E-05,1.93359375,0,0
-2.16192256630166E-05,1.44509031088091E-05,1.93359375,0,0
-2.28545195568586E-05,1.4340051166073E-05,1.93359375,0,0
-2.57500523730414E-05,1.36565404318389E-05,1.93359375,0,0
-2.72076376859332E-05,1.44037521749851E-05,1.93359375,0,0
-2.66212955466472E-05,1.62779324455187E-05,1.93359375,0,0
-2.7752455935115E-05,1.77668262040243E-05,1.93359375,0,0
-2.73197856586194E-05,1.65005258168094E-05,1.93359375,0,0
-2.94738129014149E-05,1.62554206326604E-05,1.93359375,0,0
-2.92737822746858E-05,1.5809337128303E-05,1.93359375,0,0
-3.06214824377093E-05,1.56813839566894E-05,1.93359375,0,0
-2.91958040179452E-05,1.39385965667316E-05,1.93359375,0,0
-3.05870125885122E-05,1.39200574267306E-05,1.93359375,0,0
-3.13029959215783E-05,1.50425403262489E-05,1.93359375,0,0
-3.3995762350969E-05,1.65420551638817E-05,1.93359375,0,0
-3.34961259795818E-05,1.52047277879319E-05,1.93359375,0,0
-3.2705476769479E-05,1.28321544252685E-05,1.93359375,0,0
-3.04998557112413E-05,1.18349107651738E-05,1.93359375,0,0
-2.86563717963872E-05,1.29088357425644E-05,1.93359375,0,0
-2.7387513910071E-05,1.41938025990385E-05,1.93359375,0,0
-2.72925790341105E-05,1.63873246492585E-05,1.93359375,0,0
-2.11046244658064E-05,1.40169868245721E-05,1.93359375,0,0
-2.8941989512532E-05,1.9675744624692E-05,1.93359375,0,0
-2.15869858948281E-05,1.48026629176456E-05,1.93359375,0,0
-2.88494611595524E-05,1.86164561455371E-05,1.93359375,0,0
-2.6076822905452E-05,1.43124652822735E-05,1.93359375,0,0
-2.97828155453317E-05,1.4954986909288E-05,1.93359375,0,0
-2.71113658527611E-05,1.38436089400784E-05,1.93359375,0,0
-2.75523561867885E-05,1.55396701302379E-05,1.93359375,0,0
-2.65445924014784E-05,1.5736693967483E-05,1.93359375,0,0
-2.74041012744419E-05,1.49704865179956E-05,1.93359375,0,0
-2.69761603703955E-05,1.36106955324067E-05,1.93359375,0,0
-2.46887721004896E-05,1.17715699161636E-05,1.93359375,0,0
-2.44698985625291E-05,1.0178297998209E-05,1.93359375,0,0
-2.24959567276528E-05,7.1731928983354E-06,1.93359375,0,0
-2.33108730753884E-05,6.53320103083388E-06,1.93359375,0,0
-2.26018200919498E-05,4.87875740873278E-06,1.93359375,0,0
-2.41444813582348E-05,5.46712317373022E-06,1.93359375,0,0
-2.25416260946076E-05,5.81968606638839E-06,1.93359375,0,0
-2.29418947128579E-05,7.47807007428491E-06,1.93359375,0,0
-2.16665048355935E-05,7.09776168150711E-06,1.93359375,0,0
-2.23482984438306E-05,7.00971440892317E-06,1.93359375,0,0
-2.15765358007047E-05,5.63675803277874E-06,1.93359375,0,0
-2.26304018724477E-05,4.89522017232957E-06,1.93359375,0,0
-2.37819422181929E-05,4.15803560827044E-06,1.93359375,0,0
-2.51682595262537E-05,5.17594935445231E-06,1.93359375,0,0
-2.39815799432108E-05,6.69869041303173E-06,1.93359375,0,0
-2.15857417060761E-05,7.59231988922693E-06,1.93359375,0,0
-1.6504720406374E-05,4.79160053146188E-06,1.93359375,0,0
-2.33839891734533E-05,4.38007100456161E-06,1.93359375,0,0
-1.76241192093585E-05,1.11862948415364E-06,1.93359375,0,0
-2.13203347811941E-05,1.91186654774356E-06,1.93359375,0,0
-1.67043890542118E-05,-1.59289959356101E-06,1.93359375,0,0
-1.81381310540019E-05,-9.89923933047976E-07,1.93359375,0,0
-1.68644619407132E-05,-3.40614889182689E-07,1.93359375,0,0
-1.91800972970668E-05,8.6565222545687E-07,1.93359375,0,0
-1.98426369024673E-05,1.89834634056751E-06,1.93359375,0,0
-1.93710257008206E-05,3.1310623853642E-06,1.93359375,0,0
-1.92832849279512E-05,3.83077076548943E-06,1.93359375,0,0
-1.89602669706801E-05,2.86817726191657E-06,1.93359375,0,0
-2.06449331017211E-05,2.00105978365173E-06,1.93359375,0,0
-2.11173446587054E-05,1.47366813507688E-06,1.93359375,0,0
-2.28156641242094E-05,3.06027800434094E-06,1.93359375,0,0
-2.20665606320836E-05,2.99576072393393E-06,1.93359375,0,0
-2.2785574401496E-05,2.20304150388984E-06,1.93359375,0,0
-2.14953415706987E-05,1.22387837109272E-06,1.93359375,0,0
-2.1303863832145E-05,2.573246774773E-06,1.93359375,0,0
-1.98819943761919E-05,4.31384933108347E-06,1.93359375,0,0
-2.02008086489514E-05,5.9127223721589E-06,1.93359375,0,0
-2.08700475923251E-05,6.08862046647118E-06,1.93359375,0,0
-2.24457453441573E-05,5.75814419789822E-06,1.93359375,0,0
-2.20673882722622E-05,6.72092573950067E-06,1.93359375,0,0
-2.09580302907852E-05,9.21101127460133E-06,1.93359375,0,0
-1.98011766769923E-05,1.01791993074585E-05,1.93359375,0,0
-1.97696208488196E-05,7.89153727964731E-06,1.93359375,0,0
-1.67608759511495E-05,3.67836469195026E-06,1.93359375,0,0
-2.405023042229E-05,7.06770697433967E-06,1.93359375,0,0
-1.86645665962715E-05,1.01923169495421E-05,1.93359375,0,0
-2.25682106247405E-05,1.30721291498048E-05,1.93359375,0,0
-1.79369235411286E-05,1.14149388537044E-05,1.93359375,0,0
-1.93210962606827E-05,1.27227540360764E-05,1.93359375,0,0
-1.73692296812078E-05,1.38311615955899E-05,1.93359375,0,0
-1.85112712642876E-05,1.49582265294157E-05,1.93359375,0,0
-1.89707716344856E-05,1.62441374413902E-05,1.93359375,0,0
-2.00734266400104E-05,1.80175338755362E-05,1.93359375,0,0
-2.13723560591461E-05,1.90083519555628E-05,1.93359375,0,0
-2.2187634385773E-05,1.90150076377904E-05,1.93359375,0,0
-2.36951673286967E-05,1.8103117326973E-05,1.93359375,0,0
-2.32841412071139E-05,1.66132358572213E-05,1.93359375,0,0
-2.51044220931362E-05,1.60862400662154E-05,1.93359375,0,0
-2.62252506217919E-05,1.54357530846028E-05,1.93359375,0,0
-2.92299810098484E-05,1.5954321497702E-05,1.93359375,0,0
-2.93479733954882E-05,1.72665440913988E-05,1.93359375,0,0
-3.06679285131395E-05,1.72929394466337E-05,1.93359375,0,0
-3.05583198496606E-05,1.45458989209146E-05,1.93359375,0,0
-3.1707309972262E-05,1.33455614559352E-05,1.93359375,0,0
-3.15468023472931E-05,1.50202313307091E-05,1.93359375,0,0
-3.15927609335631E-05,1.9080689526163E-05,1.93359375,0,0
-3.20173057843931E-05,2.14632345887367E-05,1.93359375,0,0
-3.40628539561294E-05,1.97206118173199E-05,1.93359375,0,0
-3.46650667779613E-05,1.65190122061176E-05,1.93359375,0,0
-3.37298733938951E-05,1.4744467989658E-05,1.93359375,0,0
-2.57158135354985E-05,1.21057737487718E-05,1.93359375,0,0
-3.43542960763443E-05,1.82853564183461E-05,1.93359375,0,0
-2.29709585255478E-05,1.43908673635451E-05,1.93359375,0,0
-2.97119840979576E-05,1.59538249135949E-05,1.93359375,0,0
-2.6064310077345E-05,1.15405355245457E-05,1.93359375,0,0
-3.25359033013228E-05,1.15815537355957E-05,1.93359375,0,0
-3.08728122035973E-05,1.01125360743026E-05,1.93359375,0,0
-3.19321952702012E-05,1.16468590931618E-05,1.93359375,0,0
-2.95532045129221E-05,1.20931035780814E-05,1.93359375,0,0
-2.88994306174573E-05,1.11732560981181E-05,1.93359375,0,0
-2.97472852253122E-05,9.21301761991344E-06,1.93359375,0,0
-2.95183854177594E-05,7.40569385015988E-06,1.93359375,0,0
-3.14774115395267E-05,7.88788747740909E-06,1.93359375,0,0
-3.06774563796353E-05,8.36868548503844E-06,1.93359375,0,0
-3.19326609314885E-05,1.02196854641079E-05,1.93359375,0,0
-3.009446663782E-05,9.45396459428594E-06,1.93359375,0,0
-3.12593074340839E-05,8.67522248881869E-06,1.93359375,0,0
-2.90185762423789E-05,6.9941329456924E-06,1.93359375,0,0
-2.88318660750519E-05,7.51238485463546E-06,1.93359375,0,0
-2.72311845037621E-05,7.34911373001523E-06,1.93359375,0,0
-2.93262455670629E-05,7.54750044507091E-06,1.93359375,0,0
-2.99320254271152E-05,6.56855172564974E-06,1.93359375,0,0
-2.98542090604315E-05,6.63201626593946E-06,1.93359375,0,0
-2.63819674728438E-05,8.16066039988073E-06,1.93359375,0,0
-2.39250221056864E-05,9.23190782486927E-06,1.93359375,0,0
-2.30124951485777E-05,7.77833884058055E-06,1.93359375,0,0
-2.4707151169423E-05,6.45620593786589E-06,1.93359375,0,0
-2.11304013646441E-05,4.78750234833569E-06,1.93359375,0,0
-2.86515623884043E-05,7.67237452237168E-06,1.93359375,0,0
-1.89556158147752E-05,8.16297051642323E-06,1.93359375,0,0
-2.33046230277978E-05,9.6649891929701E-06,1.93359375,0,0
-1.88152680493658E-05,6.48740979158902E-06,1.93359375,0,0
-2.06854692805791E-05,5.44797012480558E-06,1.93359375,0,0
-1.78457084984984E-05,4.05376522394363E-06,1.93359375,0,0
-1.98358175111935E-05,4.48765968030784E-06,1.93359375,0,0
-1.97900317289168E-05,6.49785579298623E-06,1.93359375,0,0
-1.82240000867751E-05,8.57385475683259E-06,1.93359375,0,0
-1.62691139848903E-05,9.58221880864585E-06,1.93359375,0,0
-1.48972294482519E-05,1.01859277492622E-05,1.93359375,0,0
-1.62085198098794E-05,1.14461518023745E-05,1.93359375,0,0
-1.63059394253651E-05,1.08757067209808E-05,1.93359375,0,0
-1.89063539437484E-05,9.99466283246875E-06,1.93359375,0,0
-1.9345370674273E-05,9.48068100115051E-06,1.93359375,0,0
-2.1407793610706E-05,1.0919960004685E-05,1.93359375,0,0
-2.01613038370851E-05,1.20820041047409E-05,1.93359375,0,0
-2.03241252165753E-05,1.29619729705155E-05,1.93359375,0,0
-1.86449651664589E-05,1.38436862471281E-05,1.93359375,0,0
-1.84863256436074E-05,1.50413034134544E-05,1.93359375,0,0
-1.68512960954104E-05,1.41460932354676E-05,1.93359375,0,0
-1.71762349054916E-05,1.33234607346822E-05,1.93359375,0,0
-1.69845352502307E-05,1.5216819519992E-05,1.93359375,0,0
-1.74491833604407E-05,1.71958145074314E-05,1.93359375,0,0
-1.82219519047067E-05,1.52847096615005E-05,1.93359375,0,0
-1.9648627130664E-05,1.16739647637587E-05,1.93359375,0,0
-1.75905042851809E-05,9.39222809392959E-06,1.93359375,0,0
-2.54604747169651E-05,1.44056502904277E-05,1.93359375,0,0
-2.03254057851154E-05,1.14502727228682E-05,1.93359375,0,0
-2.59781609202037E-05,1.34882538986858E-05,1.93359375,0,0
-2.35747102124151E-05,1.1688712220348E-05,1.93359375,0,0
-2.58648233284475E-05,1.13522592073423E-05,1.93359375,0,0
-2.43948907154845E-05,8.6193094830378E-06,1.93359375,0,0
-2.60935848928057E-05,8.83768825588049E-06,1.93359375,0,0
-2.50255925493548E-05,9.47250828176038E-06,1.93359375,0,0
-2.40159097302239E-05,1.02383364719572E-05,1.93359375,0,0
-2.30230089073302E-05,1.08726662801928E-05,1.93359375,0,0
-2.15359796129633E-05,1.05835633803508E-05,1.93359375,0,0
-2.28635381063214E-05,1.04648852357059E-05,1.93359375,0,0
-2.26888696488459E-05,8.8374845290673E-06,1.93359375,0,0
-2.31272206292488E-05,7.479626674467E-06,1.93359375,0,0
-2.15501077036606E-05,5.8245923355571E-06,1.93359375,0,0
-2.35209045058582E-05,6.53662164040725E-06,1.93359375,0,0
-2.46220097324112E-05,7.91724505688762E-06,1.93359375,0,0
-2.66769820882473E-05,9.9946882983204E-06,1.93359375,0,0
-2.65834951278521E-05,1.00101333373459E-05,1.93359375,0,0
-2.811041122186E-05,9.73815076577012E-06,1.93359375,0,0
-2.85633177554701E-05,8.1446405602037E-06,1.93359375,0,0
-2.93949105980573E-05,7.12566952643101E-06,1.93359375,0,0
-2.83846420643386E-05,7.30234796719742E-06,1.93359375,0,0
-2.61363384197466E-05,7.15250416760682E-06,1.93359375,0,0
-2.37620206462452E-05,5.83777182328049E-06,1.93359375,0,0
-2.32517140830169E-05,4.98926056025084E-06,1.93359375,0,0
-2.00224239961244E-05,3.69660301657859E-06,1.93359375,0,0
-3.02789685520111E-05,5.59900036023464E-06,1.93359375,0,0
-2.53740436164662E-05,5.71349937672494E-06,1.93359375,0,0
-3.08276030409615E-05,7.57074258217472E-06,1.93359375,0,0
-2.78998522844631E-05,7.70371116232127E-06,1.93359375,0,0
-3.12488336930983E-05,9.29534417082323E-06,1.93359375,0,0
-2.87993825622834E-05,8.96121491678059E-06,1.93359375,0,0
-2.92872227873886E-05,9.24206324270926E-06,1.93359375,0,0
-2.77609342447249E-05,9.41530197451357E-06,1.93359375,0,0
-2.73516288871178E-05,1.00051402114332E-05,1.93359375,0,0
-2.75189795502229E-05,1.14387257781345E-05,1.93359375,0,0
-2.61692912317812E-05,1.2031998267048E-05,1.93359375,0,0
-2.59117150562815E-05,1.15406401164364E-05,1.93359375,0,0
-2.45102000917541E-05,1.14520225906745E-05,1.93359375,0,0
-2.55352260865038E-05,1.38882078317693E-05,1.93359375,0,0
-2.41778870986309E-05,1.6375661289203E-05,1.93359375,0,0
-2.4378021407756E-05,1.73360749613494E-05,1.93359375,0,0
-2.25070471060462E-05,1.60569343279349E-05,1.93359375,0,0
-2.24454797717044E-05,1.51594076669426E-05,1.93359375,0,0
-2.00205668079434E-05,1.38727054945775E-05,1.93359375,0,0
-1.97382723854389E-05,1.19783671834739E-05,1.93359375,0,0
-2.0116998712183E-05,1.00171555459383E-05,1.93359375,0,0
-2.17206052184338E-05,1.01546147561749E-05,1.93359375,0,0
-2.16320186154917E-05,1.00074303190922E-05,1.93359375,0,0
-2.16277239815099E-05,7.77342484070687E-06,1.93359375,0,0
-2.00383183255326E-05,5.39841994395829E-06,1.93359375,0,0
-1.80914885277161E-05,5.63290041100117E-06,1.93359375,0,0
-1.40474303407245E-05,6.67041331325891E-06,1.93359375,0,0
-1.91181406989926E-05,1.07970090539311E-05,1.93359375,0,0
-1.44507384902681E-05,1.01492187241092E-05,1.93359375,0,0
-2.01308102987241E-05,1.21219927677885E-05,1.93359375,0,0
-1.89414422493428E-05,1.05187473309343E-05,1.93359375,0,0
-2.12585473491345E-05,1.21384882731945E-05,1.93359375,0,0
-1.97140197997214E-05,1.21543234854471E-05,1.93359375,0,0
-2.07452030736022E-05,1.05555909613031E-05,1.93359375,0,0
-2.02707415155601E-05,8.6823056335561E-06,1.93359375,0,0
-1.98805282707326E-05,7.9400588219869E-06,1.93359375,0,0
-1.94607673620339E-05,7.1460804065282E-06,1.93359375,0,0
-1.90895498235477E-05,6.61931380818714E-06,1.93359375,0,0
-2.06187578442041E-05,7.14386624167673E-06,1.93359375,0,0
-2.09877598535968E-05,7.45121451473096E-06,1.93359375,0,0
-2.3534732463304E-05,8.56788301462075E-06,1.93359375,0,0
-2.49490331043489E-05,9.5272507678601E-06,1.93359375,0,0
-2.77108010777738E-05,1.09304428406176E-05,1.93359375,0,0
-2.88770806946559E-05,1.11337103589904E-05,1.93359375,0,0
-3.11574622173794E-05,1.12785091914702E-05,1.93359375,0,0
-3.0947365303291E-05,1.03181882877834E-05,1.93359375,0,0
-3.05123721773271E-05,1.04753289633663E-05,1.93359375,0,0
-2.78791630989872E-05,1.1339152479195E-05,1.93359375,0,0
-2.57680749200517E-05,1.33769572130404E-05,1.93359375,0,0
-2.41458856180543E-05,1.46019210660597E-05,1.93359375,0,0
-2.32332131417934E-05,1.29958880279446E-05,1.93359375,0,0
-2.20805977733107E-05,1.00936831586296E-05,1.93359375,0,0
-2.23269198613707E-05,9.88522242550971E-06,1.93359375,0,0
-1.91958206414711E-05,8.02302929514553E-06,1.93359375,0,0
-2.87334587483201E-05,1.03752017821535E-05,1.93359375,0,0
-2.37797830777708E-05,7.41828853279003E-06,1.93359375,0,0
-2.92195491056191E-05,1.07482928797253E-05,1.93359375,0,0
-2.50466073339339E-05,1.03362899608328E-05,1.93359375,0,0
-2.75987749773776E-05,1.32658360598725E-05,1.93359375,0,0
-2.68035400949884E-05,1.28660922200652E-05,1.93359375,0,0
-2.86866561509669E-05,1.40591009767377E-05,1.93359375,0,0
-2.81298453046475E-05,1.54195640789112E-05,1.93359375,0,0
-2.76500250038225E-05,1.62955275300192E-05,1.93359375,0,0
-2.80209496850148E-05,1.54965528054163E-05,1.93359375,0,0
-2.79389532806817E-05,1.40941610879963E-05,1.93359375,0,0
-2.88792653009295E-05,1.41450436785817E-05,1.93359375,0,0
-2.76154441962717E-05,1.34097845148062E-05,1.93359375,0,0
-2.79285559372511E-05,1.3518130799639E-05,1.93359375,0,0
-2.64846094069071E-05,1.2880932445114E-05,1.93359375,0,0
-2.6767094823299E-05,1.3073808986519E-05,1.93359375,0,0
-2.43181057157926E-05,1.19582518891548E-05,1.93359375,0,0
-2.3974391297088E-05,1.13515934572206E-05,1.93359375,0,0
-2.3603724912391E-05,1.0700615348469E-05,1.93359375,0,0
-2.52890786214266E-05,1.18962816486601E-05,1.93359375,0,0
-2.49011627602158E-05,1.12712377813295E-05,1.93359375,0,0
-2.41014513449045E-05,9.93919820757583E-06,1.93359375,0,0
-2.24810992222046E-05,8.83695429365616E-06,1.93359375,0,0
-2.17464184970595E-05,8.79003164300229E-06,1.93359375,0,0
-2.08894271054305E-05,1.03338088592864E-05,1.93359375,0,0
-1.95257816812955E-05,1.19402966447524E-05,1.93359375,0,0
-1.5406838429044E-05,9.67367213888792E-06,1.93359375,0,0
-2.1844030925422E-05,1.25476099128718E-05,1.93359375,0,0
-1.64367011166178E-05,8.25706501927925E-06,1.93359375,0,0
-2.13162693398772E-05,1.00713023130083E-05,1.93359375,0,0
-1.95504781004274E-05,6.38354049442569E-06,1.93359375,0,0
-2.15254476643167E-05,7.21632568456698E-06,1.93359375,0,0
-2.01854054466821E-05,6.59211582387798E-06,1.93359375,0,0
-2.17668621189659E-05,8.076107405941E-06,1.93359375,0,0
-2.09630015888251E-05,9.24946289160289E-06,1.93359375,0,0
-2.07191460503964E-05,9.99439544102643E-06,1.93359375,0,0
-2.14800656976877E-05,9.81579069048166E-06,1.93359375,0,0
-2.14968094951473E-05,1.03653046608088E-05,1.93359375,0,0
-2.26864976866636E-05,1.24431044241646E-05,1.93359375,0,0
-2.25076109927613E-05,1.26428221847164E-05,1.93359375,0,0
-2.39722448895918E-05,1.32198720166343E-05,1.93359375,0,0
-2.30173300224124E-05,1.25068581837695E-05,1.93359375,0,0
-2.38526336033829E-05,1.29983181977877E-05,1.93359375,0,0
-2.44002603722038E-05,1.26304230434471E-05,1.93359375,0,0
-2.62117955571739E-05,1.29148238556809E-05,1.93359375,0,0
-2.52958034252515E-05,1.15197262857691E-05,1.93359375,0,0
-2.5112007278949E-05,1.12713505586726E-05,1.93359375,0,0
-2.40897134062834E-05,1.13679379865061E-05,1.93359375,0,0
-2.3654267351958E-05,1.19459027700941E-05,1.93359375,0,0
-2.23822207772173E-05,1.16106293717166E-05,1.93359375,0,0
-2.14711890293984E-05,1.0823950105987E-05,1.93359375,0,0
-2.17375418287702E-05,1.00276583907544E-05,1.93359375,0,0
-2.25984294957016E-05,9.48407978285104E-06,1.93359375,0,0
-1.8106371499016E-05,7.38163726055063E-06,1.93359375,0,0
-2.52132158493623E-05,1.21300863611395E-05,1.93359375,0,0
-1.91035851457855E-05,1.13597279778332E-05,1.93359375,0,0
-2.39537948800717E-05,1.18183452286758E-05,1.93359375,0,0
-1.96154978766572E-05,8.19525121187326E-06,1.93359375,0,0
-2.21900227188598E-05,8.19973320176359E-06,1.93359375,0,0
-2.00006707018474E-05,7.70427413954167E-06,1.93359375,0,0
-2.10534744837787E-05,8.90850060386583E-06,1.93359375,0,0
-2.10821835935349E-05,1.04109303720179E-05,1.93359375,0,0
-2.23584484047024E-05,1.14437443698989E-05,1.93359375,0,0
-2.22977432713378E-05,1.1043474842154E-05,1.93359375,0,0
-1.92778825294226E-05,9.69905613601441E-06,1.93359375,0,0
-1.78896607394563E-05,8.77589263836853E-06,1.93359375,0,0
-1.66169302246999E-05,6.44277952233097E-06,1.93359375,0,0
-1.87551759154303E-05,4.16159718952258E-06,1.93359375,0,0
-1.85570370376809E-05,2.30445857596351E-06,1.93359375,0,0
-1.95202228496782E-05,3.00765850624884E-06,1.93359375,0,0
-1.81958621396916E-05,4.44777379016159E-06,1.93359375,0,0
-1.94536150956992E-05,7.57787393013132E-06,1.93359375,0,0
-1.90023783943616E-05,1.04991149783018E-05,1.93359375,0,0
-1.95513712242246E-05,1.27796311062411E-05,1.93359375,0,0
-2.02400369744282E-05,1.31254573716433E-05,1.93359375,0,0
-2.30564710363979E-05,1.29112713693758E-05,1.93359375,0,0
-2.40519202634459E-05,1.11217814264819E-05,1.93359375,0,0
-2.36019932344789E-05,8.98485814104788E-06,1.93359375,0,0
-2.34800845646532E-05,7.94655170466285E-06,1.93359375,0,0
-2.40709832723951E-05,8.42282497615088E-06,1.93359375,0,0
-1.93478663277347E-05,7.89964724390302E-06,1.93359375,0,0
-2.78588522633072E-05,1.13515043267398E-05,1.93359375,0,0
-2.22896851482801E-05,7.99042209109757E-06,1.93359375,0,0
-2.86080448859138E-05,8.81077357917093E-06,1.93359375,0,0
-2.48949982051272E-05,7.14164798409911E-06,1.93359375,0,0
-2.66364568233257E-05,9.51516449276824E-06,1.93359375,0,0
-2.47137377300533E-05,1.00102561191306E-05,1.93359375,0,0
-2.64642512775026E-05,1.09360171336448E-05,1.93359375,0,0
-2.58298678090796E-05,1.15512502816273E-05,1.93359375,0,0
-2.50442062679213E-05,1.24603084259434E-05,1.93359375,0,0
-2.40105036937166E-05,1.2501205674198E-05,1.93359375,0,0
-2.38546144828433E-05,1.18488214866375E-05,1.93359375,0,0
-2.7110292649013E-05,1.18728430607007E-05,1.93359375,0,0
-2.78929874184541E-05,1.07870991996606E-05,1.93359375,0,0
-2.83140998362796E-05,1.08247904790915E-05,1.93359375,0,0
-2.48466603807174E-05,1.1530449228303E-05,1.93359375,0,0
-2.43447084358195E-05,1.383610197081E-05,1.93359375,0,0
-2.47867865255103E-05,1.45602552947821E-05,1.93359375,0,0
-2.81701195490314E-05,1.58418733917642E-05,1.93359375,0,0
-2.7649261028273E-05,1.77289803104941E-05,1.93359375,0,0
-2.69568554358557E-05,2.04985790333012E-05,1.93359375,0,0
-2.57820083788829E-05,2.1056108380435E-05,1.93359375,0,0
-2.65690323431045E-05,2.05312480829889E-05,1.93359375,0,0
-2.72170764219482E-05,2.0393737941049E-05,1.93359375,0,0
-2.74929971055826E-05,2.01442508114269E-05,1.93359375,0,0
-2.63009333139053E-05,1.93792857317021E-05,1.93359375,0,0
-2.54530496022198E-05,1.9373064787942E-05,1.93359375,0,0
-2.12569939321838E-05,1.40092688525328E-05,1.93359375,0,0
-3.10897521558218E-05,1.78427799255587E-05,1.93359375,0,0
-2.46171330218203E-05,1.11099443529383E-05,1.93359375,0,0
-3.02881380775943E-05,1.4653862308478E-05,1.93359375,0,0
-2.69022566499189E-05,1.12702900878503E-05,1.93359375,0,0
-3.04921359202126E-05,1.39947105708416E-05,1.93359375,0,0
-2.8573973395396E-05,1.28983274407801E-05,1.93359375,0,0
-3.05222565657459E-05,1.28215360746253E-05,1.93359375,0,0
-3.01853942801245E-05,1.08403855847428E-05,1.93359375,0,0
-2.98792510875501E-05,9.73204805632122E-06,1.93359375,0,0
-3.05411122099031E-05,8.57115537655773E-06,1.93359375,0,0
-3.03560445900075E-05,7.87240333011141E-06,1.93359375,0,0
-3.15096222038846E-05,9.11683127924334E-06,1.93359375,0,0
-3.01584095723229E-05,9.40504378377227E-06,1.93359375,0,0
-3.11549811158329E-05,1.21620751087903E-05,1.93359375,0,0
-2.95863865176216E-05,1.37174311021226E-05,1.93359375,0,0
-3.01468953693984E-05,1.5454766980838E-05,1.93359375,0,0
-2.89883773803012E-05,1.38498735395842E-05,1.93359375,0,0
-2.98032100545242E-05,1.3255191333883E-05,1.93359375,0,0
-2.79005853371928E-05,1.19518990686629E-05,1.93359375,0,0
-2.69548090727767E-05,1.39296053021098E-05,1.93359375,0,0
-2.51689998549409E-05,1.43966644827742E-05,1.93359375,0,0
-2.64556638285285E-05,1.30103071569465E-05,1.93359375,0,0
-2.75317106570583E-05,1.11060289782472E-05,1.93359375,0,0
-2.69457832473563E-05,1.17553236123058E-05,1.93359375,0,0
-2.64644277194748E-05,1.25765591292293E-05,1.93359375,0,0
-2.78604638879187E-05,1.30166281451238E-05,1.93359375,0,0
-2.27260334213497E-05,1.04971977634705E-05,1.93359375,0,0
-3.15400320687331E-05,1.56765945575899E-05,1.93359375,0,0
-2.22070175368572E-05,1.4032580111234E-05,1.93359375,0,0
-2.6915076887235E-05,1.6071981008281E-05,1.93359375,0,0
-2.28899352805456E-05,1.19112901302287E-05,1.93359375,0,0
-2.84943271253724E-05,1.37303304654779E-05,1.93359375,0,0
-2.66214374278206E-05,1.31826718643424E-05,1.93359375,0,0
-2.71959888777928E-05,1.39083758767811E-05,1.93359375,0,0
-2.4813334675855E-05,1.33080902742222E-05,1.93359375,0,0
-2.25398871407378E-05,1.26616714624106E-05,1.93359375,0,0
-2.12398099392885E-05,1.1245585483266E-05,1.93359375,0,0
-1.969038930838E-05,8.85363169800257E-06,1.93359375,0,0
-2.08248602575623E-05,7.25647123545059E-06,1.93359375,0,0
-2.0182957086945E-05,5.20001094628242E-06,1.93359375,0,0
-2.16725311474875E-05,5.97583721173578E-06,1.93359375,0,0
-2.00954764295602E-05,6.52556536806514E-06,1.93359375,0,0
-2.0399245840963E-05,8.21490448288387E-06,1.93359375,0,0
-1.88888625416439E-05,8.05456511443481E-06,1.93359375,0,0
-2.07864322874229E-05,8.85686858964618E-06,1.93359375,0,0
-2.11758397199446E-05,9.43819213716779E-06,1.93359375,0,0
-2.2390382582671E-05,1.1069055290136E-05,1.93359375,0,0
-2.15459276660113E-05,1.28197989397449E-05,1.93359375,0,0
-2.22969683818519E-05,1.599135066499E-05,1.93359375,0,0
-2.13661314774072E-05,1.65823021234246E-05,1.93359375,0,0
-2.01414131879574E-05,1.53391574713169E-05,1.93359375,0,0
-1.89639577001799E-05,1.3880593542126E-05,1.93359375,0,0
-1.9065670130658E-05,1.40881120387348E-05,1.93359375,0,0
-1.66445297509199E-05,1.21211269288324E-05,1.93359375,0,0
-2.2519960111822E-05,1.5902980521787E-05,1.93359375,0,0
-1.48596745930263E-05,9.19856029213406E-06,1.93359375,0,0
-1.88300800800789E-05,1.15743132482748E-05,1.93359375,0,0
-1.75912391569E-05,8.81825690157712E-06,1.93359375,0,0
-2.13310413528234E-05,9.50217508943751E-06,1.93359375,0,0
-1.99034220713656E-05,7.35151525077526E-06,1.93359375,0,0
-2.1137644580449E-05,6.54459245197359E-06,1.93359375,0,0
-2.05853229999775E-05,5.29085264133755E-06,1.93359375,0,0
-2.11201622732915E-05,4.80091830468155E-06,1.93359375,0,0
-2.25986586883664E-05,4.30397130912752E-06,1.93359375,0,0
-2.34810395340901E-05,3.40236010742956E-06,1.93359375,0,0
-2.56256225839024E-05,3.23979520544526E-06,1.93359375,0,0
-2.4964345357148E-05,2.5038516469067E-06,1.93359375,0,0
-2.44087968894746E-05,3.69145777767699E-06,1.93359375,0,0
-2.20667807298014E-05,2.7656824386213E-06,1.93359375,0,0
-2.31267295021098E-05,1.77231504494557E-06,1.93359375,0,0
-2.29465658776462E-05,-1.81206033289527E-07,1.93359375,0,0
-2.37593703786843E-05,2.16773500483214E-07,1.93359375,0,0
-2.21432237594854E-05,6.87916156039137E-07,1.93359375,0,0
-2.26563643082045E-05,3.20389108310337E-06,1.93359375,0,0
-2.28035041800467E-05,4.49064373242436E-06,1.93359375,0,0
-2.24237828660989E-05,5.35584104000009E-06,1.93359375,0,0
-2.13584080483997E-05,5.80205050937366E-06,1.93359375,0,0
-2.21695099753561E-05,6.19449838268338E-06,1.93359375,0,0
-2.32016918744193E-05,5.7982742873719E-06,1.93359375,0,0
-2.25073054025415E-05,5.90858780924464E-06,1.93359375,0,0
-1.7845688489615E-05,5.32679769094102E-06,1.93359375,0,0
-2.53391863225261E-05,6.34543494015816E-06,1.93359375,0,0
-1.87001842277823E-05,2.66093252321298E-06,1.93359375,0,0
-2.21224254346453E-05,3.47508762388316E-06,1.93359375,0,0
-1.80955630639801E-05,2.6636507755029E-06,1.93359375,0,0
-2.23143833864015E-05,4.62829348180094E-06,1.93359375,0,0
-2.33730788750108E-05,5.54809639652376E-06,1.93359375,0,0
-2.56906932918355E-05,5.42113275514566E-06,1.93359375,0,0
-2.43908070842735E-05,4.20073456552927E-06,1.93359375,0,0
-2.46364143094979E-05,3.37302731168165E-06,1.93359375,0,0
-2.65860871877521E-05,3.15261740979622E-06,1.93359375,0,0
-2.67647956206929E-05,3.99881628254661E-06,1.93359375,0,0
-2.63047313637799E-05,5.24466713613947E-06,1.93359375,0,0
-2.3260387024493E-05,4.20817377744243E-06,1.93359375,0,0
-2.32313122978667E-05,3.49492597706558E-06,1.93359375,0,0
-2.27485252253246E-05,3.9538458622701E-06,1.93359375,0,0
-2.48850737989414E-05,5.97695589021896E-06,1.93359375,0,0
-2.4870278139133E-05,7.7245003922144E-06,1.93359375,0,0
-2.56779094343074E-05,1.02813237390365E-05,1.93359375,0,0
-2.48704473051475E-05,1.23121744763921E-05,1.93359375,0,0
-2.63095662376145E-05,1.38100285766996E-05,1.93359375,0,0
-2.66167899098946E-05,1.34333295136457E-05,1.93359375,0,0
-2.6467714633327E-05,1.42411881824955E-05,1.93359375,0,0
-2.50894881901331E-05,1.65943438332761E-05,1.93359375,0,0
-2.5025174181792E-05,1.72949185071047E-05,1.93359375,0,0
-2.47030002356041E-05,1.60528416017769E-05,1.93359375,0,0
-2.43121030507609E-05,1.58467591973022E-05,1.93359375,0,0
-1.93364921869943E-05,1.29155832837569E-05,1.93359375,0,0
-2.65551752818283E-05,1.84027248906204E-05,1.93359375,0,0
-1.96106757357484E-05,1.29804038806469E-05,1.93359375,0,0
-2.56243365583941E-05,1.49778834384051E-05,1.93359375,0,0
-2.28804965445306E-05,1.10596620288561E-05,1.93359375,0,0
-2.67804953182349E-05,1.20914710350917E-05,1.93359375,0,0
-2.39037053688662E-05,1.11945137177827E-05,1.93359375,0,0
-2.34063245443394E-05,1.41556065500481E-05,1.93359375,0,0
-2.18387849599821E-05,1.69037703017239E-05,1.93359375,0,0
-2.16631269722711E-05,1.76540543179726E-05,1.93359375,0,0
-2.05140368052525E-05,1.59234641614603E-05,1.93359375,0,0
-1.73143271240406E-05,1.42574499477632E-05,1.93359375,0,0
-1.68545830092626E-05,1.56681508087786E-05,1.93359375,0,0
-1.60313938977197E-05,1.63751992658945E-05,1.93359375,0,0
-1.7566308088135E-05,1.7092212146963E-05,1.93359375,0,0
-1.65696037583984E-05,1.49217121361289E-05,1.93359375,0,0
-1.7594764358364E-05,1.47944592754357E-05,1.93359375,0,0
-1.66703975992277E-05,1.57948070409475E-05,1.93359375,0,0
-1.85672906809486E-05,1.83431566256331E-05,1.93359375,0,0
-1.92205297935288E-05,1.83223237399943E-05,1.93359375,0,0
-1.99721398530528E-05,1.81263440026669E-05,1.93359375,0,0
-1.79385278897826E-05,1.62425640155561E-05,1.93359375,0,0
-1.83486954483669E-05,1.56704882101621E-05,1.93359375,0,0
-2.0496847355389E-05,1.71132342074998E-05,1.93359375,0,0
-2.29913275688887E-05,1.96491128008347E-05,1.93359375,0,0
-2.2969436031417E-05,2.09153040486854E-05,1.93359375,0,0
-2.19278699660208E-05,2.13062558032107E-05,1.93359375,0,0
-1.73108946910361E-05,1.56445312313735E-05,1.93359375,0,0
-2.48194901359966E-05,2.01637303689495E-05,1.93359375,0,0
-1.83728370757308E-05,1.33869934870745E-05,1.93359375,0,0
-2.19789126276737E-05,1.88253125088522E-05,1.93359375,0,0
-1.94812655536225E-05,1.51506146721658E-05,1.93359375,0,0
-2.41266152443131E-05,1.58423626999138E-05,1.93359375,0,0
-2.39327746385243E-05,1.28829196910374E-05,1.93359375,0,0
-2.4681372451596E-05,1.2812909517379E-05,1.93359375,0,0
-2.34544750128407E-05,1.09382453956641E-05,1.93359375,0,0
-2.29895467782626E-05,1.03281581687042E-05,1.93359375,0,0
-2.32806505664485E-05,1.0952655429719E-05,1.93359375,0,0
-2.39276359934593E-05,1.09623188109254E-05,1.93359375,0,0
-2.56510138569865E-05,1.10058617792674E-05,1.93359375,0,0
-2.44792754529044E-05,8.77367619978031E-06,1.93359375,0,0
-2.46130621235352E-05,8.03400507720653E-06,1.93359375,0,0
-2.35593670367962E-05,5.9354488257668E-06,1.93359375,0,0
-2.48155229201075E-05,6.25861184744281E-06,1.93359375,0,0
-2.41028883465333E-05,4.68787993668229E-06,1.93359375,0,0
-2.52349473157665E-05,4.59330885860254E-06,1.93359375,0,0
-2.59160260611679E-05,3.62457990377152E-06,1.93359375,0,0
-2.80378917523194E-05,4.94897039970965E-06,1.93359375,0,0
-2.75413931376534E-05,4.5823335312889E-06,1.93359375,0,0
-2.70191485469695E-05,3.52797792402271E-06,1.93359375,0,0
-2.64688078459585E-05,1.36619394197623E-06,1.93359375,0,0
-2.71252210950479E-05,4.03715546326566E-07,1.93359375,0,0
-2.8069987820345E-05,9.78007165031158E-07,1.93359375,0,0
-2.84153084066929E-05,1.89434160802193E-06,1.93359375,0,0
-2.19124449358787E-05,9.99639723886503E-07,1.93359375,0,0
-2.90588432108052E-05,1.30860576064151E-06,1.93359375,0,0
-1.89137208508328E-05,2.72197280537512E-06,1.93359375,0,0
-2.5132723749266E-05,5.63851517654257E-06,1.93359375,0,0
-2.23132028622786E-05,7.01995440977043E-06,1.93359375,0,0
-2.65634898823919E-05,6.90987644702545E-06,1.93359375,0,0
-2.42370315390872E-05,5.04319450556068E-06,1.93359375,0,0
-2.5687657398521E-05,4.58394970337395E-06,1.93359375,0,0
-2.5110641217907E-05,6.13455267739482E-06,1.93359375,0,0
-2.53340331255458E-05,7.9731471487321E-06,1.93359375,0,0
-2.70365562755615E-05,1.01034265753697E-05,1.93359375,0,0
-2.80178119282937E-05,1.10532355392934E-05,1.93359375,0,0
-3.00374667858705E-05,9.81624452833785E-06,1.93359375,0,0
-2.89369072561385E-05,7.48552201912389E-06,1.93359375,0,0
-2.9529377570725E-05,7.05369438946946E-06,1.93359375,0,0
-2.83925255644135E-05,8.19827891973546E-06,1.93359375,0,0
-3.06026195175946E-05,9.45635292737279E-06,1.93359375,0,0
-3.01983309327625E-05,1.00718452813453E-05,1.93359375,0,0
-3.01208419841714E-05,1.06498182503856E-05,1.93359375,0,0
-2.70464624918532E-05,1.05363915281487E-05,1.93359375,0,0
-2.70999371423386E-05,9.78313528321451E-06,1.93359375,0,0
-2.7546566343517E-05,1.10810206024325E-05,1.93359375,0,0
-2.82051296380814E-05,1.46563352245721E-05,1.93359375,0,0
-2.65383441728773E-05,1.68057376868092E-05,1.93359375,0,0
-2.65072867478011E-05,1.720118598314E-05,1.93359375,0,0
-2.69351421593456E-05,1.67471716849832E-05,1.93359375,0,0
-2.76383179880213E-05,1.45759631777764E-05,1.93359375,0,0
-2.26157353608869E-05,9.37298318604007E-06,1.93359375,0,0
-3.22399500873871E-05,1.29810814541997E-05,1.93359375,0,0
-2.46885974775068E-05,1.17313074952108E-05,1.93359375,0,0
-3.0003378924448E-05,1.73921398527455E-05,1.93359375,0,0
-2.45943410845939E-05,1.61158641276415E-05,1.93359375,0,0
-2.71444969257573E-05,1.78833925019717E-05,1.93359375,0,0
-2.54154674621532E-05,1.65540204761783E-05,1.93359375,0,0
-2.86073536699405E-05,1.64758766914019E-05,1.93359375,0,0
-2.84396483039018E-05,1.56437436089618E-05,1.93359375,0,0
-2.74305002676556E-05,1.60356285050511E-05,1.93359375,0,0
-2.64030986727448E-05,1.66018271556823E-05,1.93359375,0,0
-2.57478386629373E-05,1.6641406546114E-05,1.93359375,0,0
-2.82142027572263E-05,1.72484069480561E-05,1.93359375,0,0
-2.8905649742228E-05,1.49159141074051E-05,1.93359375,0,0
-3.14569006150123E-05,1.17489416879835E-05,1.93359375,0,0
-3.08453709294554E-05,7.38306380299036E-06,1.93359375,0,0
-3.20204089803156E-05,5.7337651924172E-06,1.93359375,0,0
-3.07978370983619E-05,4.37082280768664E-06,1.93359375,0,0
-3.18302445521113E-05,4.9731816034182E-06,1.93359375,0,0
-3.03262313536834E-05,5.29523276782129E-06,1.93359375,0,0
-3.02475946227787E-05,7.33851857148693E-06,1.93359375,0,0
-2.90375246549957E-05,9.30704209167743E-06,1.93359375,0,0
-2.97061105811736E-05,1.15181301225675E-05,1.93359375,0,0
-2.96149828500347E-05,1.18971383926691E-05,1.93359375,0,0
-2.96765629173024E-05,1.13979722300428E-05,1.93359375,0,0
-2.74591729976237E-05,1.23681847981061E-05,1.93359375,0,0
-2.49917084147455E-05,1.26000686577754E-05,1.93359375,0,0
-1.89452330232598E-05,7.07733124727383E-06,1.93359375,0,0
-2.45099508902058E-05,9.14787779038306E-06,1.93359375,0,0
-1.45563026308082E-05,7.84359508543275E-06,1.93359375,0,0
-1.85417939064791E-05,1.1986030585831E-05,1.93359375,0,0
-1.42063954626792E-05,1.1219462066947E-05,1.93359375,0,0
-1.56732894538436E-05,1.4650434422947E-05,1.93359375,0,0
-1.37153274408774E-05,1.62423002620926E-05,1.93359375,0,0
-1.63931690622121E-05,1.81412797246594E-05,1.93359375,0,0
-1.74812030309113E-05,1.78586942638503E-05,1.93359375,0,0
-1.80830502358731E-05,1.59124138008337E-05,1.93359375,0,0
-1.68682763614925E-05,1.41083337439341E-05,1.93359375,0,0
-1.43141242006095E-05,1.33145458676154E-05,1.93359375,0,0
-1.48474609886762E-05,1.2814550245821E-05,1.93359375,0,0
-1.50627492985222E-05,1.22901110444218E-05,1.93359375,0,0
-1.72986819961807E-05,1.35856407723622E-05,1.93359375,0,0
-1.68658152688295E-05,1.30220851133345E-05,1.93359375,0,0
-1.81356936082011E-05,1.23866675494355E-05,1.93359375,0,0
-1.71461015270324E-05,1.10353303170996E-05,1.93359375,0,0
-1.82391577254748E-05,1.14663398562698E-05,1.93359375,0,0
-1.83930369530572E-05,1.13869327833527E-05,1.93359375,0,0
-2.11093683901709E-05,1.04407299659215E-05,1.93359375,0,0
-2.26097563427174E-05,8.21924277261132E-06,1.93359375,0,0
-2.4501045118086E-05,7.0936785050435E-06,1.93359375,0,0
-2.46304116444662E-05,7.04422382113989E-06,1.93359375,0,0
-2.40846402448369E-05,9.27139171835734E-06,1.93359375,0,0
-2.29812558245612E-05,9.16574481379939E-06,1.93359375,0,0
-2.20705587707926E-05,6.13582869846141E-06,1.93359375,0,0
-1.81262548721861E-05,3.96259747503791E-06,1.93359375,0,0
-2.62440389633412E-05,5.070828137832E-06,1.93359375,0,0
-1.98931065824581E-05,3.27606790051505E-06,1.93359375,0,0
-2.27840100706089E-05,5.18242586622364E-06,1.93359375,0,0
-1.86630350071937E-05,5.40037171958829E-06,1.93359375,0,0
-2.24859795707744E-05,6.09898643233464E-06,1.93359375,0,0
-2.10700873140013E-05,5.09444771523704E-06,1.93359375,0,0
-2.127307743649E-05,3.24810048368818E-06,1.93359375,0,0
-2.00300382857677E-05,2.53432813224208E-06,1.93359375,0,0
-1.93524720089044E-05,4.30836553277913E-06,1.93359375,0,0
-1.85578046512092E-05,5.58960982743884E-06,1.93359375,0,0
-1.76080902747344E-05,6.54796303933836E-06,1.93359375,0,0
-1.89359052455984E-05,7.86482996772975E-06,1.93359375,0,0
-1.86339420906734E-05,7.83027007855708E-06,1.93359375,0,0
-1.99261339730583E-05,7.34952391212573E-06,1.93359375,0,0
-1.88955018529668E-05,6.54886980555602E-06,1.93359375,0,0
-1.9027027519769E-05,7.49046512282803E-06,1.93359375,0,0
-1.74253218574449E-05,9.44346902542748E-06,1.93359375,0,0
-1.93484393093968E-05,1.10129703898565E-05,1.93359375,0,0
-2.08987075893674E-05,1.04672326415312E-05,1.93359375,0,0
-2.30273763008881E-05,1.04689324871288E-05,1.93359375,0,0
-2.28733006224502E-05,1.10125092760427E-05,1.93359375,0,0
-2.32112815865548E-05,1.1551916031749E-05,1.93359375,0,0
-2.27824784815311E-05,1.20328750199405E-05,1.93359375,0,0
-2.26223492063582E-05,1.37121105581173E-05,1.93359375,0,0
-2.21842910832493E-05,1.50657397171017E-05,1.93359375,0,0
-2.31336653087055E-05,1.52794600580819E-05,1.93359375,0,0
-1.97490644495701E-05,1.20992635856965E-05,1.93359375,0,0
-2.84465204458684E-05,1.6319650967489E-05,1.93359375,0,0
-2.31049580179388E-05,1.15209104478708E-05,1.93359375,0,0
-2.97309870802565E-05,1.50497144204564E-05,1.93359375,0,0
-2.61619297816651E-05,1.30745065689553E-05,1.93359375,0,0
-2.87088423647219E-05,1.56359819811769E-05,1.93359375,0,0
-2.65495564235607E-05,1.42976477945922E-05,1.93359375,0,0
-2.82208802673267E-05,1.47583114085137E-05,1.93359375,0,0
-2.91544110950781E-05,1.39383555506356E-05,1.93359375,0,0
-3.11383482767269E-05,1.32579589262605E-05,1.93359375,0,0
-3.17900958179962E-05,1.23495246953098E-05,1.93359375,0,0
-3.00197243632283E-05,1.09505353975692E-05,1.93359375,0,0
-2.93138309643837E-05,9.79224296315806E-06,1.93359375,0,0
-2.76583232334815E-05,6.7655728344107E-06,1.93359375,0,0
-2.91001797450008E-05,5.98409587837523E-06,1.93359375,0,0
-2.80156527878717E-05,6.11188443144783E-06,1.93359375,0,0
-2.86485174001427E-05,8.56904352986021E-06,1.93359375,0,0
-2.79729101748671E-05,8.16843748907559E-06,1.93359375,0,0
-2.9755812647636E-05,7.04838748788461E-06,1.93359375,0,0
-2.92273271043086E-05,4.71030398330186E-06,1.93359375,0,0
-2.9669998184545E-05,4.82216137243086E-06,1.93359375,0,0
-2.88051833194913E-05,4.4725566112902E-06,1.93359375,0,0
-2.92850763798924E-05,3.83493807021296E-06,1.93359375,0,0
-2.82322598650353E-05,1.6829051219247E-06,1.93359375,0,0
-2.64670743490569E-05,4.35283169508693E-07,1.93359375,0,0
-2.42948499362683E-05,1.11034137262322E-06,1.93359375,0,0
-2.22422368096886E-05,4.17597129853675E-06,1.93359375,0,0
-1.73142561834538E-05,3.15132683681441E-06,1.93359375,0,0
-2.54734095506137E-05,3.51281369148637E-06,1.93359375,0,0
-2.0596364265657E-05,4.09595531891682E-06,1.93359375,0,0
-2.47316947934451E-05,7.63645311963046E-06,1.93359375,0,0
-2.10486941796262E-05,6.64652679915889E-06,1.93359375,0,0
-2.40918216150021E-05,5.99179611526779E-06,1.93359375,0,0
-2.29359538934659E-05,5.13365830556722E-06,1.93359375,0,0
-2.33058472076664E-05,7.15917440174962E-06,1.93359375,0,0
-2.16352527786512E-05,8.49994648888242E-06,1.93359375,0,0
-2.06903350772336E-05,7.77818422648124E-06,1.93359375,0,0
-1.94648346223403E-05,7.30346846467E-06,1.93359375,0,0
-1.72945710801287E-05,8.83505708770826E-06,1.93359375,0,0
-1.80398201337084E-05,1.0693439435272E-05,1.93359375,0,0
-1.89364291145466E-05,1.09921393232071E-05,1.93359375,0,0
-2.14830997720128E-05,1.03825486803544E-05,1.93359375,0,0
-2.19106314034434E-05,8.59020838106517E-06,1.93359375,0,0
-2.48798314714804E-05,8.37927291286178E-06,1.93359375,0,0
-2.6054578484036E-05,1.01729665402672E-05,1.93359375,0,0
-2.79008945653914E-05,1.30953922052868E-05,1.93359375,0,0
-2.79901050816989E-05,1.27060320664896E-05,1.93359375,0,0
-2.99174153042259E-05,1.10396513264277E-05,1.93359375,0,0
-3.06732545141131E-05,1.0927275980066E-05,1.93359375,0,0
-3.0645496735815E-05,1.33715020638192E-05,1.93359375,0,0
-2.82881210296182E-05,1.51226004163618E-05,1.93359375,0,0
-2.70799137069844E-05,1.46966422107653E-05,1.93359375,0,0
-2.66199149336899E-05,1.26143913803389E-05,1.93359375,0,0
-2.55140403169207E-05,1.15119655674789E-05,1.93359375,0,0
-2.00183822016697E-05,1.17036915980862E-05,1.93359375,0,0
-2.87049497273983E-05,1.78274258360034E-05,1.93359375,0,0
-2.16877197090071E-05,1.38970935950056E-05,1.93359375,0,0
-2.70804139290703E-05,1.56491951202042E-05,1.93359375,0,0
-2.353678792133E-05,1.33397898025578E-05,1.93359375,0,0
-2.58678664977197E-05,1.57029644469731E-05,1.93359375,0,0
-2.28612661885563E-05,1.60730214702198E-05,1.93359375,0,0
-2.32093425438507E-05,1.79322141775629E-05,1.93359375,0,0
-2.28257540584309E-05,1.78018908627564E-05,1.93359375,0,0
-2.3827464247006E-05,1.6978334315354E-05,1.93359375,0,0
-2.55636205110932E-05,1.70162620634073E-05,1.93359375,0,0
-2.58205018326407E-05,1.75738459802233E-05,1.93359375,0,0
-2.64204481936758E-05,1.84952841664199E-05,1.93359375,0,0
-2.48727337748278E-05,1.739243089105E-05,1.93359375,0,0
-2.5504521545372E-05,1.7787009710446E-05,1.93359375,0,0
-2.31915018957807E-05,1.73002099472797E-05,1.93359375,0,0
-2.2023610654287E-05,1.70442945091054E-05,1.93359375,0,0
-1.96483306353912E-05,1.56601090566255E-05,1.93359375,0,0
-2.01855618797708E-05,1.69478698808234E-05,1.93359375,0,0
-1.94720669242088E-05,1.74082088051364E-05,1.93359375,0,0
-2.00196373043582E-05,1.69044214999303E-05,1.93359375,0,0
-1.94236672541592E-05,1.46544098242885E-05,1.93359375,0,0
-2.06721633730922E-05,1.32718005261268E-05,1.93359375,0,0
-2.23877832468133E-05,1.21966240840266E-05,1.93359375,0,0
-2.50824941758765E-05,1.18740135803819E-05,1.93359375,0,0
-2.62348075921182E-05,1.24338412206271E-05,1.93359375,0,0
-2.64002555923071E-05,1.25419228425017E-05,1.93359375,0,0
-1.97472363652196E-05,9.95010304905009E-06,1.93359375,0,0
-2.62140874838224E-05,1.37198685479234E-05,1.93359375,0,0
-1.89702077477705E-05,1.03333786682924E-05,1.93359375,0,0
-2.61118511843961E-05,1.43426550494041E-05,1.93359375,0,0
-2.35452280321624E-05,1.32304721773835E-05,1.93359375,0,0
-2.75904840236763E-05,1.49755769598414E-05,1.93359375,0,0
-2.46113049797714E-05,1.49397083077929E-05,1.93359375,0,0
-2.41001798713114E-05,1.55283032654552E-05,1.93359375,0,0
-2.17113720282214E-05,1.40328556881286E-05,1.93359375,0,0
-2.12305167224258E-05,1.26993563753786E-05,1.93359375,0,0
-2.20195252040867E-05,1.20290414997726E-05,1.93359375,0,0
-2.20102356252028E-05,1.12197876660503E-05,1.93359375,0,0
-2.33823575399583E-05,1.08729955172748E-05,1.93359375,0,0
-2.28916032938287E-05,9.21967694011983E-06,1.93359375,0,0
-2.41470916080289E-05,9.17463512450922E-06,1.93359375,0,0
-2.2358144633472E-05,9.1684660219471E-06,1.93359375,0,0
-2.2784262910136E-05,1.08339154394343E-05,1.93359375,0,0
-2.10599246202037E-05,1.06486804725137E-05,1.93359375,0,0
-2.16036060010083E-05,1.06976931419922E-05,1.93359375,0,0
-2.02024093596265E-05,1.09989759948803E-05,1.93359375,0,0
-2.06827025976963E-05,1.37791366796591E-05,1.93359375,0,0
-2.00958838831866E-05,1.58120856212918E-05,1.93359375,0,0
-2.02277060452616E-05,1.62898504640907E-05,1.93359375,0,0
-1.96050805243431E-05,1.44442701639491E-05,1.93359375,0,0
-1.98342713702004E-05,1.20826043712441E-05,1.93359375,0,0
-2.01931361516472E-05,9.86206578090787E-06,1.93359375,0,0
-2.11004880839027E-05,8.56947372085415E-06,1.93359375,0,0
-1.95013944903621E-05,7.22730419511208E-06,1.93359375,0,0
-2.94788478640839E-05,1.0770675544336E-05,1.93359375,0,0
-2.29135239351308E-05,8.08570439403411E-06,1.93359375,0,0
-2.51707351708319E-05,9.07773937797174E-06,1.93359375,0,0
-2.11584356293315E-05,8.82192125573056E-06,1.93359375,0,0
-2.54395781666972E-05,1.13607011371641E-05,1.93359375,0,0
-2.59221433225321E-05,1.13980786409229E-05,1.93359375,0,0
-2.78197494480992E-05,1.29278041640646E-05,1.93359375,0,0
-2.65963099082001E-05,1.39266112455516E-05,1.93359375,0,0
-2.61785990005592E-05,1.50680507431389E-05,1.93359375,0,0
-2.60742272075731E-05,1.57247814058792E-05,1.93359375,0,0
-2.49025106313638E-05,1.56184905790724E-05,1.93359375,0,0
-2.58263462455943E-05,1.61287043738412E-05,1.93359375,0,0
-2.59316784649855E-05,1.53247310663573E-05,1.93359375,0,0
-2.76144219242269E-05,1.47555037983693E-05,1.93359375,0,0
-2.65388734987937E-05,1.33856692627887E-05,1.93359375,0,0
-2.73800305876648E-05,1.32468130686902E-05,1.93359375,0,0
-2.56105286098318E-05,1.27984458231367E-05,1.93359375,0,0
-2.45202190853888E-05,1.27928497022367E-05,1.93359375,0,0
-2.24349478230579E-05,1.29310865304433E-05,1.93359375,0,0
-2.35066763707437E-05,1.38954828798887E-05,1.93359375,0,0
-2.39929013332585E-05,1.30023563542636E-05,1.93359375,0,0
-2.44557486439589E-05,1.18684301924077E-05,1.93359375,0,0
-2.42118330788799E-05,1.0668267350411E-05,1.93359375,0,0
-2.52350728260353E-05,1.08376107164077E-05,1.93359375,0,0
-2.67286832240643E-05,1.12027137220139E-05,1.93359375,0,0
-2.72166689683218E-05,9.9250264611328E-06,1.93359375,0,0
-1.98844991246006E-05,7.22052982382593E-06,1.93359375,0,0
-2.68011481239228E-05,9.59365570452064E-06,1.93359375,0,0
-1.86787146958523E-05,5.98213091507205E-06,1.93359375,0,0
-2.30487930821255E-05,7.16922113497276E-06,1.93359375,0,0
-1.90931423276197E-05,5.33063712282456E-06,1.93359375,0,0
-2.4565164494561E-05,7.07981052983087E-06,1.93359375,0,0
-2.34664767049253E-05,7.7273771239561E-06,1.93359375,0,0
-2.44558632402914E-05,7.85378051659791E-06,1.93359375,0,0
-2.39622877415968E-05,6.2144135881681E-06,1.93359375,0,0
-2.46494473685743E-05,6.21572462478071E-06,1.93359375,0,0
-2.57079354923917E-05,8.31328361527994E-06,1.93359375,0,0
-2.58715517702512E-05,9.9516519185272E-06,1.93359375,0,0
-2.68750118266325E-05,1.06543784568203E-05,1.93359375,0,0
-2.47597781708464E-05,1.04398750409018E-05,1.93359375,0,0
-2.44064085563878E-05,1.09636994238826E-05,1.93359375,0,0
-2.19499652303057E-05,1.00908810054534E-05,1.93359375,0,0
-2.21328518819064E-05,9.9431326816557E-06,1.93359375,0,0
-2.0886107449769E-05,9.94707897916669E-06,1.93359375,0,0
-2.2476227968582E-05,1.12144825834548E-05,1.93359375,0,0
-2.29789002332836E-05,1.07441837826627E-05,1.93359375,0,0
-2.55747017945396E-05,9.47835087572457E-06,1.93359375,0,0
-2.62639005086385E-05,8.2015812949976E-06,1.93359375,0,0
-2.71336484729545E-05,9.00268423720263E-06,1.93359375,0,0
-2.62901685346151E-05,9.20687853067648E-06,1.93359375,0,0
-2.63230467680842E-05,8.62860269990051E-06,1.93359375,0,0
-2.59605039900634E-05,8.81521009432618E-06,1.93359375,0,0
-2.58638956438517E-05,8.79999333847081E-06,1.93359375,0,0
-2.16536882362561E-05,6.94756408847752E-06,1.93359375,0,0
-3.07622321997769E-05,1.03911552287173E-05,1.93359375,0,0
-2.21922000491759E-05,1.00611960078822E-05,1.93359375,0,0
-2.59604184975615E-05,1.28412411868339E-05,1.93359375,0,0
-2.16090957110282E-05,9.90846456261352E-06,1.93359375,0,0
-2.52936169999884E-05,1.07438136183191E-05,1.93359375,0,0
-2.2995922336122E-05,1.14759677671827E-05,1.93359375,0,0
-2.44348211708711E-05,1.30461930893944E-05,1.93359375,0,0
-2.40208210016135E-05,1.36301250677207E-05,1.93359375,0,0
-2.40069202845916E-05,1.32690511236433E-05,1.93359375,0,0
-2.37254371313611E-05,1.1854147487611E-05,1.93359375,0,0
-2.23568004003027E-05,1.10061046143528E-05,1.93359375,0,0
-2.2283964426606E-05,1.20514769150759E-05,1.93359375,0,0
-2.03085764951538E-05,1.17985428005341E-05,1.93359375,0,0
-2.03498293558368E-05,1.07745299828821E-05,1.93359375,0,0
-1.81391169462586E-05,7.97939901531208E-06,1.93359375,0,0
-2.01125367311761E-05,5.92320202486007E-06,1.93359375,0,0
-2.08826695597963E-05,4.06876461056527E-06,1.93359375,0,0
-2.25337698793737E-05,3.45869216289429E-06,1.93359375,0,0
-2.05627347895643E-05,2.09089535019302E-06,1.93359375,0,0
-2.02592527784873E-05,1.13026112558146E-06,1.93359375,0,0
-2.04900279641151E-05,-7.73662094388783E-08,1.93359375,0,0
-2.33627488341881E-05,-1.61855595592897E-08,1.93359375,0,0
-2.47349034907529E-05,3.68799447869606E-07,1.93359375,0,0
-2.50446191785159E-05,4.2329034499744E-07,1.93359375,0,0
-2.34128328884253E-05,1.56155053332441E-07,1.93359375,0,0
-2.23218539758818E-05,6.05740069659078E-07,1.93359375,0,0
-1.92227089428343E-05,2.06850404538272E-06,1.93359375,0,0
-2.7520769435796E-05,5.63816820431384E-06,1.93359375,0,0
-2.04473581106868E-05,8.65030597196892E-06,1.93359375,0,0
-2.50240373134147E-05,1.03095653685159E-05,1.93359375,0,0
-2.21919199248077E-05,1.09471748146461E-05,1.93359375,0,0
-2.61570894508623E-05,1.17980171125964E-05,1.93359375,0,0
-2.49980730586685E-05,1.15830243885284E-05,1.93359375,0,0
-2.43922040681355E-05,1.08712274595746E-05,1.93359375,0,0
-2.0822997612413E-05,1.0946238944598E-05,1.93359375,0,0
-1.88486628758255E-05,1.15522989290184E-05,1.93359375,0,0
-1.87149926205166E-05,1.11506215034751E-05,1.93359375,0,0
-1.83409047167515E-05,1.04516475403216E-05,1.93359375,0,0
-1.97196623048512E-05,9.76185492618242E-06,1.93359375,0,0
-1.90037535503507E-05,8.85937606653897E-06,1.93359375,0,0
-1.96867003978696E-05,1.01120549516054E-05,1.93359375,0,0
-1.87064379133517E-05,1.29091858980246E-05,1.93359375,0,0
-2.0541890989989E-05,1.49668503581779E-05,1.93359375,0,0
-2.05879186978564E-05,1.45145131682511E-05,1.93359375,0,0
-2.1737423594459E-05,1.2610679732461E-05,1.93359375,0,0
-2.07900047826115E-05,1.07815703813685E-05,1.93359375,0,0
-2.10796042665606E-05,1.00097604445182E-05,1.93359375,0,0
-2.0809155103052E-05,9.52046593738487E-06,1.93359375,0,0
-2.22516264329897E-05,8.49107527756132E-06,1.93359375,0,0
-2.34414328588173E-05,8.22965739644133E-06,1.93359375,0,0
-2.46061008510878E-05,8.86075849848567E-06,1.93359375,0,0
-2.4393184503424E-05,8.97063364391215E-06,1.93359375,0,0
-2.54387668974232E-05,9.42661972658243E-06,1.93359375,0,0
-2.31563481065677E-05,9.65555591392331E-06,1.93359375,0,0
-3.34102332999464E-05,1.48009394251858E-05,1.93359375,0,0
-2.59780172200408E-05,1.07254163594916E-05,1.93359375,0,0
-3.27100387949031E-05,1.16243436423247E-05,1.93359375,0,0
-2.8319636840024E-05,1.10593937279191E-05,1.93359375,0,0
-3.01816889987094E-05,1.46808615681948E-05,1.93359375,0,0
-2.60404103755718E-05,1.49429051816696E-05,1.93359375,0,0
-2.66613369603874E-05,1.35661211970728E-05,1.93359375,0,0
-2.68589046754641E-05,1.13806863737409E-05,1.93359375,0,0
-2.70671862381278E-05,1.27353087009396E-05,1.93359375,0,0
-2.63620058831293E-05,1.49667321238667E-05,1.93359375,0,0
-2.39779365074355E-05,1.47747141454602E-05,1.93359375,0,0
-2.38986576732714E-05,1.37236111186212E-05,1.93359375,0,0
-2.22644212044543E-05,1.16330757009564E-05,1.93359375,0,0
-2.34056715271436E-05,1.20458362289355E-05,1.93359375,0,0
-2.28638182306895E-05,1.3489244338416E-05,1.93359375,0,0
-2.53234829870053E-05,1.5453711966984E-05,1.93359375,0,0
-2.54135884460993E-05,1.44965715662693E-05,1.93359375,0,0
-2.74095946224406E-05,1.31763981698896E-05,1.93359375,0,0
-2.72287870757282E-05,1.17372128443094E-05,1.93359375,0,0
-2.76593655144097E-05,1.21292332551093E-05,1.93359375,0,0
-2.54479382419959E-05,1.2763288395945E-05,1.93359375,0,0
-2.52586851274828E-05,1.34968358906917E-05,1.93359375,0,0
-2.55247778113699E-05,1.38115710797138E-05,1.93359375,0,0
-2.5903013010975E-05,1.44805926538538E-05,1.93359375,0,0
-2.54663009400247E-05,1.43040824696072E-05,1.93359375,0,0
-2.4460414351779E-05,1.48108101711841E-05,1.93359375,0,0
-1.89427137229359E-05,1.22485162137309E-05,1.93359375,0,0
-2.71442313533043E-05,1.70269304362591E-05,1.93359375,0,0
-2.03927702386864E-05,1.21899765872513E-05,1.93359375,0,0
-2.38335414906032E-05,1.43520064739278E-05,1.93359375,0,0
-1.98368870769627E-05,1.04699083749438E-05,1.93359375,0,0
-2.35750449064653E-05,1.05165026980103E-05,1.93359375,0,0
-2.19151952478569E-05,7.66732955526095E-06,1.93359375,0,0
-2.27682776312577E-05,8.40237134980271E-06,1.93359375,0,0
-2.19832381844753E-05,9.08523543330375E-06,1.93359375,0,0
-2.20153269765433E-05,9.57636075327173E-06,1.93359375,0,0
-2.21177433559205E-05,7.92540231486782E-06,1.93359375,0,0
-2.17146243812749E-05,5.33054071638617E-06,1.93359375,0,0
-2.35268507822184E-05,4.05135915571009E-06,1.93359375,0,0
-2.45686678681523E-05,3.23833887705405E-06,1.93359375,0,0
-2.7473301088321E-05,5.51465063836076E-06,1.93359375,0,0
-2.70462478511035E-05,5.3512030717684E-06,1.93359375,0,0
-2.75469519692706E-05,4.38700953964144E-06,1.93359375,0,0
-2.52076533797663E-05,2.08879941965279E-06,1.93359375,0,0
-2.41361376538407E-05,3.47648369825038E-06,1.93359375,0,0
-2.19318226299947E-05,4.36159052696894E-06,1.93359375,0,0
-2.22399648919236E-05,4.26158112531994E-06,1.93359375,0,0
-2.25914118345827E-05,2.52060772254481E-06,1.93359375,0,0
-2.47889456659323E-05,2.22416633732792E-06,1.93359375,0,0
-2.55355116678402E-05,2.80420476883592E-06,1.93359375,0,0
-2.61130862782011E-05,5.06458400195697E-06,1.93359375,0,0
-2.48752257903107E-05,7.52667438064236E-06,1.93359375,0,0
-2.43195099756122E-05,1.0080040738103E-05,1.93359375,0,0
-2.05632477445761E-05,8.05125091574155E-06,1.93359375,0,0
-2.85574369627284E-05,8.50499509397196E-06,1.93359375,0,0
-1.99309506569989E-05,3.25689984492783E-06,1.93359375,0,0
-2.48905053013004E-05,6.72337364449049E-06,1.93359375,0,0
-2.21675763896201E-05,7.02670786267845E-06,1.93359375,0,0
-2.6226747650071E-05,1.07362457129057E-05,1.93359375,0,0
-2.3837403205107E-05,1.13162632260355E-05,1.93359375,0,0
-2.39158634940395E-05,1.10745277197566E-05,1.93359375,0,0
-2.26104730245424E-05,8.64977209857898E-06,1.93359375,0,0
-2.3233549654833E-05,7.25419477021205E-06,1.93359375,0,0
-2.48980977630708E-05,7.88295074016787E-06,1.93359375,0,0
-2.53749603871256E-05,8.46986677061068E-06,1.93359375,0,0
-2.68915355263744E-05,9.11246479518013E-06,1.93359375,0,0
-2.57289921137271E-05,8.93726610229351E-06,1.93359375,0,0
-2.5989611458499E-05,1.06026327557629E-05,1.93359375,0,0
-2.43942195083946E-05,1.18317484520958E-05,1.93359375,0,0
-2.54396545642521E-05,1.32608802232426E-05,1.93359375,0,0
-2.49503482336877E-05,1.24179850899964E-05,1.93359375,0,0
-2.72561537713045E-05,1.25291262520477E-05,1.93359375,0,0
-2.72703891823767E-05,1.35944846988423E-05,1.93359375,0,0
-2.72236920864088E-05,1.62554679263849E-05,1.93359375,0,0
-2.52171485044528E-05,1.67723119375296E-05,1.93359375,0,0
-2.58877789747203E-05,1.55638190335594E-05,1.93359375,0,0
-2.68929034064058E-05,1.46780366776511E-05,1.93359375,0,0
-2.5995363102993E-05,1.46692991620512E-05,1.93359375,0,0
-2.31739904847927E-05,1.31381393657648E-05,1.93359375,0,0
-2.33994887821609E-05,1.24303933262127E-05,1.93359375,0,0
-2.08440469577909E-05,1.10423088699463E-05,1.93359375,0,0
-3.05140729324194E-05,1.7238224245375E-05,1.93359375,0,0
-2.48023607127834E-05,1.50106361616054E-05,1.93359375,0,0
-3.09283896058332E-05,1.68139322340721E-05,1.93359375,0,0
-2.74442554655252E-05,1.36728222059901E-05,1.93359375,0,0
-3.03222168440698E-05,1.5416899259435E-05,1.93359375,0,0
-2.63920264842454E-05,1.40281226777006E-05,1.93359375,0,0
-2.50516113737831E-05,1.27204184536822E-05,1.93359375,0,0
-2.25818494072882E-05,1.0165690582653E-05,1.93359375,0,0
-2.16881344385911E-05,8.59042302181479E-06,1.93359375,0,0
-2.11356182262534E-05,8.77184720593505E-06,1.93359375,0,0
-1.95693974092137E-05,1.07768282759935E-05,1.93359375,0,0
-2.05108117370401E-05,1.39245703394408E-05,1.93359375,0,0
-2.00028462131741E-05,1.37814149638871E-05,1.93359375,0,0
-2.10815378522966E-05,1.31426941152313E-05,1.93359375,0,0
-1.97512017621193E-05,1.23693871501018E-05,1.93359375,0,0
-2.16278895095456E-05,1.31840779431514E-05,1.93359375,0,0
-2.28504159167642E-05,1.2369554497127E-05,1.93359375,0,0
-2.59109910984989E-05,1.34285501189879E-05,1.93359375,0,0
-2.53443940891884E-05,1.49891548062442E-05,1.93359375,0,0
-2.5236031433451E-05,1.67312446137657E-05,1.93359375,0,0
-2.46781055466272E-05,1.6133242752403E-05,1.93359375,0,0
-2.67936793534318E-05,1.5380473996629E-05,1.93359375,0,0
-2.7630054319161E-05,1.45919075293932E-05,1.93359375,0,0
-2.65256476268405E-05,1.51534050019109E-05,1.93359375,0,0
-2.44129969360074E-05,1.58758666657377E-05,1.93359375,0,0
-2.45265237026615E-05,1.6127161870827E-05,1.93359375,0,0
-2.01617058337433E-05,1.29352729345555E-05,1.93359375,0,0
-2.92870190605754E-05,1.69349950738251E-05,1.93359375,0,0
-2.38045849982882E-05,1.1535655175976E-05,1.93359375,0,0
-2.94199198833667E-05,1.6072801372502E-05,1.93359375,0,0
-2.52331665251404E-05,1.42710241561872E-05,1.93359375,0,0
-2.7851030608872E-05,1.53365544974804E-05,1.93359375,0,0
-2.56712846748997E-05,1.19625592560624E-05,1.93359375,0,0
-2.81408993032528E-05,1.15781504064216E-05,1.93359375,0,0
-2.79679388768272E-05,1.01946388895158E-05,1.93359375,0,0
-2.69255506282207E-05,9.46062846196583E-06,1.93359375,0,0
-2.59632925008191E-05,9.40217432798818E-06,1.93359375,0,0
-2.46464278461644E-05,8.48324179969495E-06,1.93359375,0,0
-2.49849781539524E-05,7.93105027696583E-06,1.93359375,0,0
-2.36707128351554E-05,6.24134281679289E-06,1.93359375,0,0
-2.48921533057E-05,7.25360087017179E-06,1.93359375,0,0
-2.47417574428255E-05,8.18941225588787E-06,1.93359375,0,0
-2.63661040662555E-05,9.90347507467959E-06,1.93359375,0,0
-2.42339174292283E-05,8.1731141108321E-06,1.93359375,0,0
-2.36883024626877E-05,7.77430523157818E-06,1.93359375,0,0
-2.18446075450629E-05,7.48305228626123E-06,1.93359375,0,0
-2.19220819417387E-05,8.87915211933432E-06,1.93359375,0,0
-2.03553099709097E-05,8.86946327227633E-06,1.93359375,0,0
-2.04531697818311E-05,8.44602982397191E-06,1.93359375,0,0
-2.13891489693196E-05,6.72118949296419E-06,1.93359375,0,0
-2.15023264900083E-05,4.67487006972078E-06,1.93359375,0,0
-1.95352477021515E-05,2.44815760197525E-06,1.93359375,0,0
-1.78851696546189E-05,2.53467601396551E-06,1.93359375,0,0
-1.3514398233383E-05,3.57886392521323E-06,1.93359375,0,0
-2.00431786652189E-05,6.04381148150424E-06,1.93359375,0,0
-1.76167304744013E-05,6.03359558226657E-06,1.93359375,0,0
-2.29792221944081E-05,7.24119900041842E-06,1.93359375,0,0
-2.01979655685136E-05,6.74902094033314E-06,1.93359375,0,0
-2.01754228328355E-05,6.98555550115998E-06,1.93359375,0,0
-1.8108350559487E-05,7.9964902397478E-06,1.93359375,0,0
-2.00710055651143E-05,1.0803474651766E-05,1.93359375,0,0
-2.18098721234128E-05,1.25060714708525E-05,1.93359375,0,0
-2.29178749577841E-05,1.15010434456053E-05,1.93359375,0,0
-2.2440772227128E-05,1.02310141301132E-05,1.93359375,0,0
-2.12305458262563E-05,1.12367615656694E-05,1.93359375,0,0
-2.20844704017509E-05,1.30767339214799E-05,1.93359375,0,0
-2.1906113033765E-05,1.25327987916535E-05,1.93359375,0,0
-2.23904371523531E-05,1.21820539789042E-05,1.93359375,0,0
-2.23737843043637E-05,1.34446572701563E-05,1.93359375,0,0
-2.54809110629139E-05,1.50541691255057E-05,1.93359375,0,0
-2.71517892542761E-05,1.36185381052201E-05,1.93359375,0,0
-2.90268926619319E-05,1.13870137283811E-05,1.93359375,0,0
-2.83193912764546E-05,1.13023997982964E-05,1.93359375,0,0
-2.69703832600499E-05,1.2922987480124E-05,1.93359375,0,0
-2.50301982305245E-05,1.40615265991073E-05,1.93359375,0,0
-2.57787014561472E-05,1.37760525831254E-05,1.93359375,0,0
-2.62877510976978E-05,1.18941761684255E-05,1.93359375,0,0
-2.63844303844962E-05,1.04829350675573E-05,1.93359375,0,0
-2.63101301243296E-05,9.06632612895919E-06,1.93359375,0,0
-2.57631454587681E-05,8.15309977042489E-06,1.93359375,0,0
-1.93181913346052E-05,6.93582114763558E-06,1.93359375,0,0
-2.63112233369611E-05,1.1324928891554E-05,1.93359375,0,0
-1.78176360350335E-05,1.07502282844507E-05,1.93359375,0,0
-2.2540298232343E-05,1.22330220619915E-05,1.93359375,0,0
-1.93615906027844E-05,1.05670551420189E-05,1.93359375,0,0
-2.28063381655375E-05,1.26295381051023E-05,1.93359375,0,0
-2.02042647288181E-05,1.23700119729619E-05,1.93359375,0,0
-2.10320195037639E-05,1.13856340249185E-05,1.93359375,0,0
-2.15849922824418E-05,9.956214853446E-06,1.93359375,0,0
-2.24883151531685E-05,1.03048741948442E-05,1.93359375,0,0
-2.22508970182389E-05,9.60279794526286E-06,1.93359375,0,0
-2.16272183024557E-05,7.42811016607448E-06,1.93359375,0,0
-2.31538469961379E-05,6.47590741209569E-06,1.93359375,0,0
-2.27991258725524E-05,6.00691009822185E-06,1.93359375,0,0
-2.40282879531151E-05,6.95527387506445E-06,1.93359375,0,0
-2.36339910770766E-05,7.4808053796005E-06,1.93359375,0,0
-2.63500169239705E-05,7.38995549909305E-06,1.93359375,0,0
-2.70192558673443E-05,4.43564931629226E-06,1.93359375,0,0
-2.9060091037536E-05,2.45321439251711E-06,1.93359375,0,0
-2.83820063486928E-05,1.05045762666123E-06,1.93359375,0,0
-2.89065865217708E-05,1.26403472222592E-06,1.93359375,0,0
-2.79918695014203E-05,2.65626749751391E-06,1.93359375,0,0
-2.74670674116351E-05,4.53909933639807E-06,1.93359375,0,0
-2.61236782534979E-05,4.88749765281682E-06,1.93359375,0,0
-2.51585079240613E-05,5.06590095028514E-06,1.93359375,0,0
-2.43430986301973E-05,5.69155145058176E-06,1.93359375,0,0
-2.48898868449032E-05,6.45319323666627E-06,1.93359375,0,0
-1.98793859453872E-05,5.03776436744374E-06,1.93359375,0,0
-2.70677537628217E-05,7.42371321393875E-06,1.93359375,0,0
-1.82989970198832E-05,7.98868768470129E-06,1.93359375,0,0
-2.14888004848035E-05,1.11507752080797E-05,1.93359375,0,0
-1.60300041898154E-05,8.85753797774669E-06,1.93359375,0,0
-1.93299456441309E-05,8.79127674124902E-06,1.93359375,0,0
-1.7529693650431E-05,8.42780900711659E-06,1.93359375,0,0
-1.72946456586942E-05,8.53812980494695E-06,1.93359375,0,0
-1.46107313412358E-05,7.58016130930628E-06,1.93359375,0,0
-1.44806463140412E-05,6.52862172501045E-06,1.93359375,0,0
-1.56552578118863E-05,6.17781279288465E-06,1.93359375,0,0
-1.52242082549492E-05,7.33946262698737E-06,1.93359375,0,0
-1.50097703226493E-05,9.1025976871606E-06,1.93359375,0,0
-1.25380356621463E-05,9.35932894208236E-06,1.93359375,0,0
-1.37505048769526E-05,1.00532570286305E-05,1.93359375,0,0
-1.42838571264292E-05,9.33044339035405E-06,1.93359375,0,0
-1.67776252055774E-05,9.07889261725359E-06,1.93359375,0,0
-1.57637714437442E-05,9.44662224355852E-06,1.93359375,0,0
-1.67766338563524E-05,1.12939660539269E-05,1.93359375,0,0
-1.71966657944722E-05,1.33667617774336E-05,1.93359375,0,0
-2.05347078008344E-05,1.57312260853359E-05,1.93359375,0,0
-2.23668066610117E-05,1.5606579836458E-05,1.93359375,0,0
-2.32036054512719E-05,1.47966638905928E-05,1.93359375,0,0
-2.1672172806575E-05,1.51635558722774E-05,1.93359375,0,0
-2.08396013476886E-05,1.54942590597784E-05,1.93359375,0,0
-2.11877759284107E-05,1.37733741212287E-05,1.93359375,0,0
-2.19726243813057E-05,1.22476785691106E-05,1.93359375,0,0
-1.84003401955124E-05,1.02031262940727E-05,1.93359375,0,0
-2.59713942796225E-05,1.47842638398288E-05,1.93359375,0,0
-1.9615830751718E-05,1.09300453914329E-05,1.93359375,0,0
-2.51519613811979E-05,1.23487197924987E-05,1.93359375,0,0
-2.22320250031771E-05,9.61724163062172E-06,1.93359375,0,0
-2.45637529587839E-05,1.06995048554381E-05,1.93359375,0,0
-2.26013362407684E-05,9.02211468201131E-06,1.93359375,0,0
-2.39406090258854E-05,9.95530990621774E-06,1.93359375,0,0
-2.33509181271074E-05,1.11063427539193E-05,1.93359375,0,0
-2.34159215324325E-05,1.24759399113827E-05,1.93359375,0,0
-2.42736714426428E-05,1.28770298033487E-05,1.93359375,0,0
-2.46312301896978E-05,1.17422905532294E-05,1.93359375,0,0
-2.65854632743867E-05,1.05598182926769E-05,1.93359375,0,0
-2.60562464973191E-05,9.25891527003841E-06,1.93359375,0,0
-2.67320101556834E-05,1.09535048977705E-05,1.93359375,0,0
-2.62473768088967E-05,1.20909962788573E-05,1.93359375,0,0
-2.92125641863095E-05,1.30609478219412E-05,1.93359375,0,0
-3.02382104564458E-05,1.17017843876965E-05,1.93359375,0,0
-3.17886588163674E-05,1.19611895570415E-05,1.93359375,0,0
-3.04833538393723E-05,1.17149511424941E-05,1.93359375,0,0
-3.02550506603438E-05,1.19381711556343E-05,1.93359375,0,0
-2.9601682399516E-05,1.17147783385008E-05,1.93359375,0,0
-2.91921078314772E-05,1.17540403152816E-05,1.93359375,0,0
-2.66990246018395E-05,1.15189714051667E-05,1.93359375,0,0
-2.42584665102186E-05,1.11893414214137E-05,1.93359375,0,0
-2.29639354074607E-05,1.16126584543963E-05,1.93359375,0,0
-2.38691118283896E-05,1.3770851182926E-05,1.93359375,0,0
-2.00239701371174E-05,1.29426407511346E-05,1.93359375,0,0
-2.79099913313985E-05,1.83733391168062E-05,1.93359375,0,0
-2.06751810765127E-05,1.35173459057114E-05,1.93359375,0,0
-2.70928612735588E-05,1.59439987328369E-05,1.93359375,0,0
-2.4306473278557E-05,1.31183469420648E-05,1.93359375,0,0
-2.74940521194367E-05,1.66412592079723E-05,1.93359375,0,0
-2.53747311944608E-05,1.58617658598814E-05,1.93359375,0,0
-2.57037736446364E-05,1.31024762595189E-05,1.93359375,0,0
-2.46479394263588E-05,8.61211719893618E-06,1.93359375,0,0
-2.54383030551253E-05,6.46439684715006E-06,1.93359375,0,0
-2.71437365881866E-05,6.29531723461696E-06,1.93359375,0,0
-2.76697101071477E-05,6.6979591792915E-06,1.93359375,0,0
-2.94275760097662E-05,8.56730093801161E-06,1.93359375,0,0
-3.03317610814702E-05,9.26292341318913E-06,1.93359375,0,0
-3.39554026140831E-05,1.1827789421659E-05,1.93359375,0,0
-3.46203050867189E-05,1.35682885229471E-05,1.93359375,0,0
-3.56280215783045E-05,1.60936542670242E-05,1.93359375,0,0
-3.36461853294168E-05,1.54371773533057E-05,1.93359375,0,0
-3.34282922267448E-05,1.53456658154028E-05,1.93359375,0,0
-3.11437470372766E-05,1.47447744893725E-05,1.93359375,0,0
-3.09401111735497E-05,1.51106441990123E-05,1.93359375,0,0
-3.02584485325497E-05,1.42970438901102E-05,1.93359375,0,0
-3.00549327221233E-05,1.50331807162729E-05,1.93359375,0,0
-2.86906579276547E-05,1.65368710440816E-05,1.93359375,0,0
-2.85133846773533E-05,1.75704844878055E-05,1.93359375,0,0
-2.83112221950432E-05,1.70906878338428E-05,1.93359375,0,0
-2.67319010163192E-05,1.7114069123636E-05,1.93359375,0,0
-2.05785927391844E-05,1.49749612319283E-05,1.93359375,0,0
-2.97258175123716E-05,2.12870454561198E-05,1.93359375,0,0
-2.31819303735392E-05,1.62242085934849E-05,1.93359375,0,0
-2.75163511105347E-05,1.99500245798845E-05,1.93359375,0,0
-2.16979569813702E-05,1.69175291375723E-05,1.93359375,0,0
-2.3693171897321E-05,1.91427061508875E-05,1.93359375,0,0
-2.2172782337293E-05,1.67391717695864E-05,1.93359375,0,0
-2.49534459726419E-05,1.7537207895657E-05,1.93359375,0,0
-2.54733986366773E-05,1.77011261257576E-05,1.93359375,0,0
-2.56619605352171E-05,1.65970777743496E-05,1.93359375,0,0
-2.61167078861035E-05,1.40999190989533E-05,1.93359375,0,0
-2.57939063885715E-05,1.21854163808166E-05,1.93359375,0,0
-2.66800889221486E-05,1.34976053232094E-05,1.93359375,0,0
-2.47744465013966E-05,1.32110062622814E-05,1.93359375,0,0
-2.45214177994058E-05,1.35282080009347E-05,1.93359375,0,0
-2.32668226090027E-05,1.2184225852252E-05,1.93359375,0,0
-2.54887381743174E-05,1.3200596185925E-05,1.93359375,0,0
-2.45697356149321E-05,1.28644096548669E-05,1.93359375,0,0
-2.35631068790099E-05,1.28854144350043E-05,1.93359375,0,0
-2.06750064535299E-05,9.37356526264921E-06,1.93359375,0,0
-2.09772842936218E-05,5.99939357925905E-06,1.93359375,0,0
-2.09135341719957E-05,3.31882392856642E-06,1.93359375,0,0
-2.10030721063958E-05,3.48388698512281E-06,1.93359375,0,0
-1.89644870260963E-05,4.07640527555486E-06,1.93359375,0,0
-1.76641351572471E-05,5.11920870849281E-06,1.93359375,0,0
-1.63710101332981E-05,5.48554862689343E-06,1.93359375,0,0
-1.58655693667242E-05,5.84446752327494E-06,1.93359375,0,0
-1.2961010725121E-05,5.62024433747865E-06,1.93359375,0,0
-1.86206452781335E-05,8.0265026554116E-06,1.93359375,0,0
-1.51775730046211E-05,6.4035011746455E-06,1.93359375,0,0
-1.95770135178464E-05,8.31320085126208E-06,1.93359375,0,0
-1.86419092642609E-05,7.86553209763952E-06,1.93359375,0,0
-2.29161778406706E-05,8.58234034240013E-06,1.93359375,0,0
-2.38002085097833E-05,7.48965112506994E-06,1.93359375,0,0
-2.55749800999183E-05,6.92465437168721E-06,1.93359375,0,0
-2.51122091867728E-05,6.70425424686982E-06,1.93359375,0,0
-2.51464134635171E-05,7.78292815084569E-06,1.93359375,0,0
-2.61044242506614E-05,9.54329425439937E-06,1.93359375,0,0
-2.67254963546293E-05,9.00240502232919E-06,1.93359375,0,0
-2.64889513346134E-05,5.70828206036822E-06,1.93359375,0,0
-2.36878950090613E-05,2.3080956452759E-06,1.93359375,0,0
-2.25128333113389E-05,3.16965224556043E-06,1.93359375,0,0
-2.078720353893E-05,5.68755331187276E-06,1.93359375,0,0
-2.14500396396033E-05,8.19975957710994E-06,1.93359375,0,0
-2.14774863707135E-05,8.34649290482048E-06,1.93359375,0,0
-2.2348205675371E-05,7.44523322282475E-06,1.93359375,0,0
-2.10085418075323E-05,6.57219425193034E-06,1.93359375,0,0
-2.10889447771478E-05,7.94940206105821E-06,1.93359375,0,0
-2.08577384910313E-05,9.24242431210587E-06,1.93359375,0,0
-2.08057263080264E-05,8.67803373694187E-06,1.93359375,0,0
-2.0398209017003E-05,6.81438632454956E-06,1.93359375,0,0
-2.19971188926138E-05,5.89426372243906E-06,1.93359375,0,0
-2.3753595087328E-05,5.23253675055457E-06,1.93359375,0,0
-2.44684233621228E-05,4.86592807646957E-06,1.93359375,0,0
-2.05514861590927E-05,4.91484206577297E-06,1.93359375,0,0
-2.9489332519006E-05,8.13609131000703E-06,1.93359375,0,0
-2.21420687012142E-05,8.05383115221048E-06,1.93359375,0,0
-2.62975390796782E-05,9.57384327193722E-06,1.93359375,0,0
-2.0088673409191E-05,7.85254997026641E-06,1.93359375,0,0
-2.18708482861985E-05,7.16170279702055E-06,1.93359375,0,0
-2.07852845051093E-05,4.53110169473803E-06,1.93359375,0,0
-2.2972735678195E-05,3.09781103169371E-06,1.93359375,0,0
-2.25975454668514E-05,4.16129023506073E-06,1.93359375,0,0
-2.31103367696051E-05,5.87998511036858E-06,1.93359375,0,0
-2.53452562901657E-05,7.22365302863182E-06,1.93359375,0,0
-2.6326471925131E-05,7.81769267632626E-06,1.93359375,0,0
-2.64893023995683E-05,8.98126836545998E-06,1.93359375,0,0
-2.32697329920484E-05,1.10071678136592E-05,1.93359375,0,0
-2.26249121624278E-05,1.35533537104493E-05,1.93359375,0,0
-2.12293034564937E-05,1.42963990583667E-05,1.93359375,0,0
-2.27234741032589E-05,1.34012179842102E-05,1.93359375,0,0
-2.21469326788792E-05,1.08223421193543E-05,1.93359375,0,0
-2.3121407139115E-05,9.63810362009099E-06,1.93359375,0,0
-2.25401327043073E-05,1.11321724034497E-05,1.93359375,0,0
-2.4390948965447E-05,1.43787437991705E-05,1.93359375,0,0
-2.49435015575727E-05,1.63610893650912E-05,1.93359375,0,0
-2.52598456427222E-05,1.67598664120305E-05,1.93359375,0,0
-2.4374523491133E-05,1.48680064739892E-05,1.93359375,0,0
-2.38078591792146E-05,1.19275737233693E-05,1.93359375,0,0
-2.24169762077508E-05,1.03096608654596E-05,1.93359375,0,0
-2.11637634492945E-05,1.15095626824768E-05,1.93359375,0,0
-1.67726684594527E-05,1.00617899079225E-05,1.93359375,0,0
-2.48280957748648E-05,1.39389394462341E-05,1.93359375,0,0
-1.99466521735303E-05,1.00752913567703E-05,1.93359375,0,0
-2.4010816559894E-05,1.2285316188354E-05,1.93359375,0,0
-2.09100126085104E-05,1.01789382824791E-05,1.93359375,0,0
-2.29683864745311E-05,1.23036425065948E-05,1.93359375,0,0
-2.02892242668895E-05,1.19461947178934E-05,1.93359375,0,0
-2.06644326681271E-05,1.25763926916989E-05,1.93359375,0,0
-2.15740419662325E-05,1.17118379421299E-05,1.93359375,0,0
-2.28667213377776E-05,1.22449937407509E-05,1.93359375,0,0
-2.24551749852253E-05,1.29347463371232E-05,1.93359375,0,0
-2.15965792449424E-05,1.31106799017289E-05,1.93359375,0,0
-2.39779055846157E-05,1.24903108371655E-05,1.93359375,0,0
-2.57016581599601E-05,1.06025099739782E-05,1.93359375,0,0
-2.81426564470166E-05,1.16571109174401E-05,1.93359375,0,0
-2.85566457023378E-05,1.24805419545737E-05,1.93359375,0,0
-3.05528446915559E-05,1.32403010866255E-05,1.93359375,0,0
-3.05010780721204E-05,1.14995527837891E-05,1.93359375,0,0
-3.14057324430905E-05,1.08189406091697E-05,1.93359375,0,0
-2.95972167805303E-05,1.02937201518216E-05,1.93359375,0,0
-2.8898501113872E-05,1.21200437206426E-05,1.93359375,0,0
-2.86907616100507E-05,1.34835408971412E-05,1.93359375,0,0
-3.0316497941385E-05,1.46238844536128E-05,1.93359375,0,0
-3.02186927001458E-05,1.3623451195599E-05,1.93359375,0,0
-2.86484737443971E-05,1.16378560051089E-05,1.93359375,0,0
-2.77645140158711E-05,1.01678497230751E-05,1.93359375,0,0
-2.87986949842889E-05,1.02690091807744E-05,1.93359375,0,0
-2.30002933676587E-05,8.45907288749004E-06,1.93359375,0,0
-3.03444976452738E-05,1.17161016532918E-05,1.93359375,0,0
-1.89527800102951E-05,9.03487762116129E-06,1.93359375,0,0
-2.31041449296754E-05,1.20480308396509E-05,1.93359375,0,0
-1.73728021763964E-05,1.09197562778718E-05,1.93359375,0,0
-2.10903053812217E-05,1.3048749679001E-05,1.93359375,0,0
-1.81571285793325E-05,1.23711488413392E-05,1.93359375,0,0
-1.78245682036504E-05,1.25899596241652E-05,1.93359375,0,0
-1.58210859808605E-05,1.25301558000501E-05,1.93359375,0,0
-1.5137561604206E-05,1.13014766611741E-05,1.93359375,0,0
-1.52242810145253E-05,1.02435551525559E-05,1.93359375,0,0
-1.51456388266524E-05,9.88756892184028E-06,1.93359375,0,0
-1.83646043296903E-05,1.06920897451346E-05,1.93359375,0,0
-2.00048179976875E-05,1.07765299617313E-05,1.93359375,0,0
-2.2813579562353E-05,1.21902285172837E-05,1.93359375,0,0
-2.19683297473239E-05,1.27795428852551E-05,1.93359375,0,0
-2.36612740991404E-05,1.41060645546531E-05,1.93359375,0,0
-2.27408472710522E-05,1.39784924613195E-05,1.93359375,0,0
-2.38474403886357E-05,1.34802166940062E-05,1.93359375,0,0
-2.37469030253123E-05,1.14765089165303E-05,1.93359375,0,0
-2.59625267062802E-05,1.12155257738777E-05,1.93359375,0,0
-2.62583507719683E-05,1.12962379716919E-05,1.93359375,0,0
-2.7736057745642E-05,1.02869034890318E-05,1.93359375,0,0
-2.81098855339224E-05,8.34127513371641E-06,1.93359375,0,0
-2.88013216049876E-05,7.20568323231419E-06,1.93359375,0,0
-2.9454480682034E-05,7.75468834035564E-06,1.93359375,0,0
-2.9857650588383E-05,8.57525537867332E-06,1.93359375,0,0
-2.3848811906646E-05,8.04597402748186E-06,1.93359375,0,0
-3.26572262565605E-05,1.24550842883764E-05,1.93359375,0,0
-2.34851013374282E-05,1.10030023279251E-05,1.93359375,0,0
-2.93246393994195E-05,1.18100751933525E-05,1.93359375,0,0
-2.37399071920663E-05,7.09172263668734E-06,1.93359375,0,0
-2.66888273472432E-05,6.27116651230608E-06,1.93359375,0,0
-2.31615540542407E-05,6.2250578594103E-06,1.93359375,0,0
-2.37204167206073E-05,8.6192585513345E-06,1.93359375,0,0
-2.3599888663739E-05,8.66642676555784E-06,1.93359375,0,0
-2.48409214691492E-05,7.17869806976523E-06,1.93359375,0,0
-2.48793257924262E-05,7.69426696933806E-06,1.93359375,0,0
-2.24384657485643E-05,9.42218321142718E-06,1.93359375,0,0
-2.19629455386894E-05,1.06002362372237E-05,1.93359375,0,0
-1.99977675947594E-05,9.89966065390036E-06,1.93359375,0,0
-2.21759837586433E-05,1.05735225588433E-05,1.93359375,0,0
-2.32545644394122E-05,1.11440567707177E-05,1.93359375,0,0
-2.67575142061105E-05,1.20550439532963E-05,1.93359375,0,0
-2.58022173511563E-05,1.14256963570369E-05,1.93359375,0,0
-2.67434061242966E-05,1.1250550414843E-05,1.93359375,0,0
-2.65678227151511E-05,1.06248935480835E-05,1.93359375,0,0
-2.89798954327125E-05,1.14235444925725E-05,1.93359375,0,0
-2.90971474896651E-05,1.14278564069537E-05,1.93359375,0,0
-2.77522176475031E-05,9.51891161093954E-06,1.93359375,0,0
-2.42749429162359E-05,6.34116167930188E-06,1.93359375,0,0
-2.28740718739573E-05,5.74361047256389E-06,1.93359375,0,0
-2.26187676162226E-05,7.1276372182183E-06,1.93359375,0,0
-2.38257998717017E-05,7.87104272603756E-06,1.93359375,0,0
-1.99047208297998E-05,5.9952367337246E-06,1.93359375,0,0
-2.73052537522744E-05,8.37908828543732E-06,1.93359375,0,0
-1.89588845387334E-05,7.31443333279458E-06,1.93359375,0,0
-2.40853405557573E-05,1.04057035059668E-05,1.93359375,0,0
-2.13333369174507E-05,9.51196943788091E-06,1.93359375,0,0
-2.55778177233879E-05,1.11112531158142E-05,1.93359375,0,0
-2.5751578505151E-05,1.0393196134828E-05,1.93359375,0,0
-2.81062693829881E-05,8.6208483480732E-06,1.93359375,0,0
-2.66140923486091E-05,6.96197912475327E-06,1.93359375,0,0
-2.54456990660401E-05,7.33816932552145E-06,1.93359375,0,0
-2.57529663940659E-05,8.68926781549817E-06,1.93359375,0,0
-2.64890513790306E-05,9.04214812180726E-06,1.93359375,0,0
-2.83057197520975E-05,9.12236373551423E-06,1.93359375,0,0
-2.76566424872726E-05,8.81447158462834E-06,1.93359375,0,0
-2.92348704533651E-05,9.35436855797889E-06,1.93359375,0,0
-2.8339023629087E-05,9.9600129033206E-06,1.93359375,0,0
-2.79935375147033E-05,1.17793633762631E-05,1.93359375,0,0
-2.4819284590194E-05,1.22237715913798E-05,1.93359375,0,0
-2.49303884629626E-05,1.28698393382365E-05,1.93359375,0,0
-2.39295295614284E-05,1.35665213747416E-05,1.93359375,0,0
-2.39506443904247E-05,1.54533190652728E-05,1.93359375,0,0
-2.28360986511689E-05,1.67737143783597E-05,1.93359375,0,0
-2.28905555559322E-05,1.66941463248804E-05,1.93359375,0,0
-2.13843304663897E-05,1.5073365830176E-05,1.93359375,0,0
-1.97342851606663E-05,1.2956415048393E-05,1.93359375,0,0
-1.78624959517038E-05,1.06361012512934E-05,1.93359375,0,0
-1.72435811691685E-05,9.02140709513333E-06,1.93359375,0,0
-1.47312894114293E-05,8.03984858066542E-06,1.93359375,0,0
-2.20556394197047E-05,1.19342812467949E-05,1.93359375,0,0
-1.8812586858985E-05,8.7166790763149E-06,1.93359375,0,0
-2.34541057579918E-05,8.58659768709913E-06,1.93359375,0,0
-2.1398864191724E-05,5.72904491491499E-06,1.93359375,0,0
-2.25082658289466E-05,7.68150857766159E-06,1.93359375,0,0
-2.02280698431423E-05,9.99280109681422E-06,1.93359375,0,0
-2.21469235839322E-05,1.29460477182874E-05,1.93359375,0,0
-2.23031784116756E-05,1.38368732223171E-05,1.93359375,0,0
-2.24654104385991E-05,1.51278927660314E-05,1.93359375,0,0
-2.22093822230818E-05,1.63782278832514E-05,1.93359375,0,0
-2.17157976294402E-05,1.66040226758923E-05,1.93359375,0,0
-2.24256018555025E-05,1.60680974659044E-05,1.93359375,0,0
-2.16679545701481E-05,1.53710661834339E-05,1.93359375,0,0
-2.27648088184651E-05,1.62757914949907E-05,1.93359375,0,0
-2.27187229029369E-05,1.56401747517521E-05,1.93359375,0,0
-2.4364670025534E-05,1.45291860462748E-05,1.93359375,0,0
-2.29501310968772E-05,1.22701303553185E-05,1.93359375,0,0
-2.17030938074458E-05,1.26673057820881E-05,1.93359375,0,0
-2.01808361453004E-05,1.40360789373517E-05,1.93359375,0,0
-2.21408354263986E-05,1.47454693433247E-05,1.93359375,0,0
-2.37737313000252E-05,1.21819794003386E-05,1.93359375,0,0
-2.47215903073084E-05,1.00881816251785E-05,1.93359375,0,0
-2.35677180171479E-05,1.0536625268287E-05,1.93359375,0,0
-2.30761943385005E-05,1.25894603115739E-05,1.93359375,0,0
-2.29800807574065E-05,1.32560253405245E-05,1.93359375,0,0
-2.32717484323075E-05,1.36917979034479E-05,1.93359375,0,0
-1.96067921933718E-05,1.26639324662392E-05,1.93359375,0,0
-2.79950563708553E-05,1.77288366103312E-05,1.93359375,0,0
-2.05469677894143E-05,1.15705306598102E-05,1.93359375,0,0
-2.38035663642222E-05,1.36379603645764E-05,1.93359375,0,0
-1.80855295184301E-05,1.05973249446834E-05,1.93359375,0,0
-2.02808223548345E-05,1.13712776510511E-05,1.93359375,0,0
-1.92715524462983E-05,1.01644773167209E-05,1.93359375,0,0
-2.20774272747803E-05,1.1499428183015E-05,1.93359375,0,0
-2.35872357734479E-05,1.21476787171559E-05,1.93359375,0,0
-2.50332304858603E-05,1.26975546663743E-05,1.93359375,0,0
-2.50430475716712E-05,1.36375474539818E-05,1.93359375,0,0
-2.31577669183025E-05,1.39264902827563E-05,1.93359375,0,0
-2.29427459998988E-05,1.48967110362719E-05,1.93359375,0,0
-2.19012144953012E-05,1.45019839692395E-05,1.93359375,0,0
-2.26830161409453E-05,1.54184472194174E-05,1.93359375,0,0
-2.11487804335775E-05,1.42546005008626E-05,1.93359375,0,0
-2.24221948883496E-05,1.33837975226925E-05,1.93359375,0,0
-2.17850738408742E-05,1.17905883598723E-05,1.93359375,0,0
-2.20901038119337E-05,1.28013316498254E-05,1.93359375,0,0
-2.06912391149672E-05,1.31333472381812E-05,1.93359375,0,0
-2.18146542465547E-05,1.29371956063551E-05,1.93359375,0,0
-2.2114396415418E-05,1.23182289826218E-05,1.93359375,0,0
-2.33286500588292E-05,1.35774325826787E-05,1.93359375,0,0
-2.37938529608073E-05,1.34663141579949E-05,1.93359375,0,0
-2.43864942603977E-05,1.21463699542801E-05,1.93359375,0,0
-2.35218922171043E-05,9.7988322522724E-06,1.93359375,0,0
-2.28405406232923E-05,8.16414194559911E-06,1.93359375,0,0
-1.89406164281536E-05,6.41063206785475E-06,1.93359375,0,0
-2.76710725302109E-05,9.34778927330626E-06,1.93359375,0,0
-2.21689206227893E-05,8.08208642411046E-06,1.93359375,0,0
-2.70336549874628E-05,1.0416346412967E-05,1.93359375,0,0
-2.28755652642576E-05,9.4095194071997E-06,1.93359375,0,0
-2.45425289904233E-05,1.0053987352876E-05,1.93359375,0,0
-2.07887587748701E-05,7.99518511485076E-06,1.93359375,0,0
-2.00153335754294E-05,7.39908273317269E-06,1.93359375,0,0
-1.80145398189779E-05,7.48743195799761E-06,1.93359375,0,0
-1.75193727045553E-05,8.44671376398765E-06,1.93359375,0,0
-1.77123747562291E-05,9.67698179010767E-06,1.93359375,0,0
-1.69873328559333E-05,1.07866508187726E-05,1.93359375,0,0
-1.83707725227578E-05,1.17346726256073E-05,1.93359375,0,0
-1.8244991224492E-05,9.99280473479303E-06,1.93359375,0,0
-1.97123245015973E-05,7.26216057955753E-06,1.93359375,0,0
-1.9215152860852E-05,5.36333118361654E-06,1.93359375,0,0
-2.09805584745482E-05,6.60157365928171E-06,1.93359375,0,0
-2.01169004867552E-05,7.25565496395575E-06,1.93359375,0,0
-2.11725109693361E-05,7.75154876464512E-06,1.93359375,0,0
-2.17922843148699E-05,7.45238230592804E-06,1.93359375,0,0
-2.35662955674343E-05,7.35054663891788E-06,1.93359375,0,0
-2.36842206504662E-05,7.3850042099366E-06,1.93359375,0,0
-2.5627527065808E-05,9.53138533077436E-06,1.93359375,0,0
-2.70596119662514E-05,1.02848607639316E-05,1.93359375,0,0
-2.89299896394368E-05,7.87050703365821E-06,1.93359375,0,0
-2.94721066893544E-05,4.20399919676129E-06,1.93359375,0,0
-2.92555650958093E-05,1.78770619641E-06,1.93359375,0,0
-2.46373019763269E-05,2.47179673351638E-06,1.93359375,0,0
-3.58202451025136E-05,4.90701768285362E-06,1.93359375,0,0
-2.87220427708235E-05,4.14530632042442E-06,1.93359375,0,0
-3.72738322766963E-05,3.74264868696628E-06,1.93359375,0,0
-3.36678422172554E-05,6.02735963184386E-06,1.93359375,0,0
-3.63552499038633E-05,1.02627209344064E-05,1.93359375,0,0
-3.20923245453741E-05,1.1448065379227E-05,1.93359375,0,0
-3.19123755616602E-05,8.88294289325131E-06,1.93359375,0,0
-3.10875548166223E-05,6.76828176437994E-06,1.93359375,0,0
-3.1481893529417E-05,6.76093168294756E-06,1.93359375,0,0
-3.19433020194992E-05,8.19028991827508E-06,1.93359375,0,0
-3.13403797917999E-05,9.90588341664989E-06,1.93359375,0,0
-3.29278300341684E-05,1.02790054370416E-05,1.93359375,0,0
-3.1752872018842E-05,9.5322784545715E-06,1.93359375,0,0
-3.20904728141613E-05,9.02971714822343E-06,1.93359375,0,0
-2.9420903956634E-05,8.62378146848641E-06,1.93359375,0,0
-2.88205956167076E-05,7.94549305282999E-06,1.93359375,0,0
-2.61735731328372E-05,7.57179077481851E-06,1.93359375,0,0
-2.72941470029764E-05,9.05186789168511E-06,1.93359375,0,0
-2.7104973923997E-05,1.10944574771565E-05,1.93359375,0,0
-2.92355871351901E-05,1.17762929221499E-05,1.93359375,0,0
-2.95582758553792E-05,1.14870108518517E-05,1.93359375,0,0
-2.95315385301365E-05,1.1157544577145E-05,1.93359375,0,0
-2.89834188151872E-05,1.02336653071688E-05,1.93359375,0,0
-3.05569628835656E-05,9.67045616562245E-06,1.93359375,0,0
-3.11167459585704E-05,1.03236889117397E-05,1.93359375,0,0
-2.99124494631542E-05,1.13632058855728E-05,1.93359375,0,0
-2.32955826504622E-05,1.01971290860092E-05,1.93359375,0,0
-3.29450012941379E-05,1.63685781444656E-05,1.93359375,0,0
-2.55504055530764E-05,1.42264316309593E-05,1.93359375,0,0
-3.14972494379617E-05,1.44468249345664E-05,1.93359375,0,0
-2.60386968875537E-05,9.6247731562471E-06,1.93359375,0,0
-3.02871339954436E-05,9.99677649815567E-06,1.93359375,0,0
-2.92994100163924E-05,8.82665790413739E-06,1.93359375,0,0
-3.06816546071786E-05,1.01726436696481E-05,1.93359375,0,0
-2.78885217994684E-05,1.10615292214788E-05,1.93359375,0,0
-2.62391949945595E-05,1.22908822959289E-05,1.93359375,0,0
-2.62364064838039E-05,1.32528393805842E-05,1.93359375,0,0
-2.4591745386715E-05,1.27357852761634E-05,1.93359375,0,0
-2.37038584600668E-05,1.17546878755093E-05,1.93359375,0,0
-2.14741630770732E-05,8.92301795829553E-06,1.93359375,0,0
-2.35575007536681E-05,7.55158544052392E-06,1.93359375,0,0
-2.36273026530398E-05,6.41195174466702E-06,1.93359375,0,0
-2.4463281079079E-05,7.11446000423166E-06,1.93359375,0,0
-2.19062512769597E-05,6.56333213555627E-06,1.93359375,0,0
-2.28982225962682E-05,6.85445775161497E-06,1.93359375,0,0
-2.28734152187826E-05,6.50618903819122E-06,1.93359375,0,0
-2.39591445279075E-05,6.48248487777892E-06,1.93359375,0,0
-2.17810866161017E-05,6.56652264297009E-06,1.93359375,0,0
-2.0507786757662E-05,8.88067643245449E-06,1.93359375,0,0
-1.81209270522231E-05,1.11567915155319E-05,1.93359375,0,0
-1.69918403116753E-05,1.2577017514559E-05,1.93359375,0,0
-1.70578932738863E-05,1.23524696391542E-05,1.93359375,0,0
-1.63786735356553E-05,1.08146496131667E-05,1.93359375,0,0
-1.21644416140043E-05,6.95376365911216E-06,1.93359375,0,0
-1.79651615326293E-05,9.8605951279751E-06,1.93359375,0,0
-1.55823036038782E-05,7.02284478393267E-06,1.93359375,0,0
-1.93240430235164E-05,7.26647203919129E-06,1.93359375,0,0
-1.64475040946854E-05,5.54004600417102E-06,1.93359375,0,0
-1.82930962182581E-05,9.05979140952695E-06,1.93359375,0,0
-1.81547693500761E-05,9.77585841610562E-06,1.93359375,0,0
-2.02547853405122E-05,9.1192723630229E-06,1.93359375,0,0
-2.19959183596075E-05,8.69044561113697E-06,1.93359375,0,0
-2.4267699700431E-05,9.37236291065346E-06,1.93359375,0,0
-2.57219435297884E-05,1.01411733339773E-05,1.93359375,0,0
-2.44495076913154E-05,1.17861045509926E-05,1.93359375,0,0
-2.25780040636892E-05,1.38762306960416E-05,1.93359375,0,0
-2.04068201128393E-05,1.34502943183179E-05,1.93359375,0,0
-2.1985630155541E-05,1.26353716041194E-05,1.93359375,0,0
-2.25674702960532E-05,1.18522821139777E-05,1.93359375,0,0
-2.25654366659001E-05,1.25337655845215E-05,1.93359375,0,0
-2.02480223379098E-05,1.24110265460331E-05,1.93359375,0,0
-1.92026309377979E-05,1.23857807921013E-05,1.93359375,0,0
-1.69515678862808E-05,1.09200491351658E-05,1.93359375,0,0
-1.49581546793343E-05,1.04608270703466E-05,1.93359375,0,0
-1.31280330606387E-05,1.12558491309755E-05,1.93359375,0,0
-1.35055488499347E-05,1.25228807519306E-05,1.93359375,0,0
-1.40451120387297E-05,1.20611493912293E-05,1.93359375,0,0
-1.40392085086205E-05,1.25270416901913E-05,1.93359375,0,0
-1.33645153255202E-05,1.35904665512498E-05,1.93359375,0,0
-1.47818391269539E-05,1.37378710860503E-05,1.93359375,0,0
-1.34841684484854E-05,1.22473829833325E-05,1.93359375,0,0
-1.95474640349858E-05,1.8604519937071E-05,1.93359375,0,0
-1.55581219587475E-05,1.61273328558309E-05,1.93359375,0,0
-1.97935278265504E-05,1.9934899682994E-05,1.93359375,0,0
-1.79729158844566E-05,1.62109190569026E-05,1.93359375,0,0
-2.0029372535646E-05,1.55837497004541E-05,1.93359375,0,0
-1.78243899426889E-05,1.30010139400838E-05,1.93359375,0,0
-1.84001801244449E-05,1.30066728161182E-05,1.93359375,0,0
-1.88326303032227E-05,1.32663335534744E-05,1.93359375,0,0
-2.06238455575658E-05,1.46862703331863E-05,1.93359375,0,0
-2.35368861467578E-05,1.54161716636736E-05,1.93359375,0,0
-2.57250467257109E-05,1.53797172970371E-05,1.93359375,0,0
-2.89093622996006E-05,1.57698959810659E-05,1.93359375,0,0
-3.01108084386215E-05,1.29991158246412E-05,1.93359375,0,0
-3.01595209748484E-05,1.03945085356827E-05,1.93359375,0,0
-2.67982140940148E-05,8.64284356794087E-06,1.93359375,0,0
-2.62005396507448E-05,1.10264345494215E-05,1.93359375,0,0
-2.60880224232096E-05,1.19269361675833E-05,1.93359375,0,0
-2.7783233235823E-05,1.11423823909718E-05,1.93359375,0,0
-2.87913953798125E-05,8.29700456961291E-06,1.93359375,0,0
-3.04904897348024E-05,8.46081275085453E-06,1.93359375,0,0
-3.09781826217659E-05,9.82781784841791E-06,1.93359375,0,0
-3.15266370307654E-05,1.13969581434503E-05,1.93359375,0,0
-3.09805327560753E-05,1.15952207124792E-05,1.93359375,0,0
-3.12001175188925E-05,1.25794831546955E-05,1.93359375,0,0
-3.06684232782573E-05,1.31895067170262E-05,1.93359375,0,0
-2.87865896098083E-05,1.25468341138912E-05,1.93359375,0,0
-1.99949899979401E-05,9.13286294235149E-06,1.93359375,0,0
-2.63637812167872E-05,1.32186069095042E-05,1.93359375,0,0
-1.83511874638498E-05,1.09049888123991E-05,1.93359375,0,0
-2.52078589255689E-05,1.41425534820883E-05,1.93359375,0,0
-2.10923026315868E-05,1.36844346343423E-05,1.93359375,0,0
-2.37427757383557E-05,1.67386588145746E-05,1.93359375,0,0
-2.11478309211088E-05,1.50224004755728E-05,1.93359375,0,0
-2.23695606109686E-05,1.42153430715553E-05,1.93359375,0,0
-2.28076423809398E-05,1.56928454089211E-05,1.93359375,0,0
-2.46616618824191E-05,1.84518303285586E-05,1.93359375,0,0
-2.65623675659299E-05,1.91878807527246E-05,1.93359375,0,0
-2.75450911431108E-05,1.72646996361436E-05,1.93359375,0,0
-2.9590688427561E-05,1.60658437380334E-05,1.93359375,0,0
-2.91083651973167E-05,1.46524407682591E-05,1.93359375,0,0
-3.06114779959898E-05,1.51172744153882E-05,1.93359375,0,0
-2.91127944365144E-05,1.48913413795526E-05,1.93359375,0,0
-2.95123627438443E-05,1.4639364053437E-05,1.93359375,0,0
-2.78715360764181E-05,1.22999344966956E-05,1.93359375,0,0
-2.79602245427668E-05,1.02860867627896E-05,1.93359375,0,0
-2.63360288954573E-05,8.05565832706634E-06,1.93359375,0,0
-2.68894036707934E-05,7.72749626776204E-06,1.93359375,0,0
-2.51169949478935E-05,8.19349497760413E-06,1.93359375,0,0
-2.41055768128717E-05,9.15642431209562E-06,1.93359375,0,0
-2.29159668378998E-05,8.46914190333337E-06,1.93359375,0,0
-2.2791033188696E-05,8.26835639600176E-06,1.93359375,0,0
-2.20373385673156E-05,7.95346932136454E-06,1.93359375,0,0
-2.07156117539853E-05,6.4785517679411E-06,1.93359375,0,0
-1.70388266269583E-05,4.91436821903335E-06,1.93359375,0,0
-2.53521193371853E-05,6.82186464473489E-06,1.93359375,0,0
-2.16932021430694E-05,5.38481890544062E-06,1.93359375,0,0
-2.69036718236748E-05,7.4312524702691E-06,1.93359375,0,0
-2.37804124481045E-05,8.08348431746708E-06,1.93359375,0,0
-2.67466311925091E-05,1.1072370398324E-05,1.93359375,0,0
-2.54059123108163E-05,1.07756968645845E-05,1.93359375,0,0
-2.66699316853192E-05,1.03458305602544E-05,1.93359375,0,0
-2.66099850705359E-05,1.18249026854755E-05,1.93359375,0,0
-2.69898991973605E-05,1.43405004564556E-05,1.93359375,0,0
-2.70428954536328E-05,1.54575736814877E-05,1.93359375,0,0
-2.66955485130893E-05,1.48238659676281E-05,1.93359375,0,0
-2.83706776826875E-05,1.47324317367747E-05,1.93359375,0,0
-2.81103784800507E-05,1.46787815538119E-05,1.93359375,0,0
-2.83831195702078E-05,1.51719486893853E-05,1.93359375,0,0
-2.61958375631366E-05,1.42076596603147E-05,1.93359375,0,0
-2.58400104939938E-05,1.38845161927748E-05,1.93359375,0,0
-2.35071838687873E-05,1.47322280099615E-05,1.93359375,0,0
-2.23639417527011E-05,1.5486260963371E-05,1.93359375,0,0
-2.07771736313589E-05,1.35515956571908E-05,1.93359375,0,0
-2.20432775677182E-05,1.08585509224213E-05,1.93359375,0,0
-2.17234392039245E-05,7.77766308601713E-06,1.93359375,0,0
-2.06085533136502E-05,5.24992310602102E-06,1.93359375,0,0
-1.85515218618093E-05,3.99615782953333E-06,1.93359375,0,0
-1.88308586075436E-05,5.22671871294733E-06,1.93359375,0,0
-2.02646278921748E-05,7.38623293727869E-06,1.93359375,0,0
-2.13519033422926E-05,9.90467833617004E-06,1.93359375,0,0
-1.75811619556043E-05,8.56437327456661E-06,1.93359375,0,0
-2.52078989433357E-05,1.1153269042552E-05,1.93359375,0,0
-2.056524863292E-05,7.624005775142E-06,1.93359375,0,0
-2.56611456279643E-05,1.0921869034064E-05,1.93359375,0,0
-2.16515854845056E-05,1.00345505416044E-05,1.93359375,0,0
-2.39421424339525E-05,1.20301519928034E-05,1.93359375,0,0
-2.1465548343258E-05,1.03618285720586E-05,1.93359375,0,0
-2.10593861993402E-05,9.23388324736152E-06,1.93359375,0,0
-1.90628870768705E-05,8.95164885150734E-06,1.93359375,0,0
-1.91322742466582E-05,1.10851970021031E-05,1.93359375,0,0
-1.92497864190955E-05,1.29101999846171E-05,1.93359375,0,0
-1.82913317985367E-05,1.21194543680758E-05,1.93359375,0,0
-1.89670899999328E-05,9.76172213995596E-06,1.93359375,0,0
-1.87158930202713E-05,6.26991231911234E-06,1.93359375,0,0
-2.06635595532134E-05,4.90633692606934E-06,1.93359375,0,0
-2.02723294933094E-05,3.54481721842603E-06,1.93359375,0,0
-2.26687752729049E-05,3.56127452505461E-06,1.93359375,0,0
-2.40420631598681E-05,3.00559554489155E-06,1.93359375,0,0
-2.64428726950428E-05,3.69597091776086E-06,1.93359375,0,0
-2.58365380432224E-05,3.80627261620248E-06,1.93359375,0,0
-2.68333096755669E-05,5.11714961248799E-06,1.93359375,0,0
-2.78533480013721E-05,6.21379149379209E-06,1.93359375,0,0
-3.00913688988658E-05,5.86874284635996E-06,1.93359375,0,0
-2.978214979521E-05,4.39069754065713E-06,1.93359375,0,0
-2.92031290882733E-05,5.66470862395363E-06,1.93359375,0,0
-2.84264351648744E-05,7.69320195104228E-06,1.93359375,0,0
-2.76834252872504E-05,8.91549916559597E-06,1.93359375,0,0
-2.2326668840833E-05,6.68595748720691E-06,1.93359375,0,0
-3.13430064124987E-05,8.41571636556182E-06,1.93359375,0,0
-2.26026513701072E-05,5.84054168939474E-06,1.93359375,0,0
-2.76635764748789E-05,8.45834711071802E-06,1.93359375,0,0
-2.27489290409721E-05,6.64146273265942E-06,1.93359375,0,0
-2.53656126005808E-05,6.85712075210176E-06,1.93359375,0,0
-2.2610944142798E-05,5.27498150404426E-06,1.93359375,0,0
-2.49182503466727E-05,5.092581432109E-06,1.93359375,0,0
-2.686178413569E-05,5.03715045852005E-06,1.93359375,0,0
-2.8992577426834E-05,6.26114842816605E-06,1.93359375,0,0
-2.97379010589793E-05,8.0768741099746E-06,1.93359375,0,0
-2.77152503258549E-05,8.31581110105617E-06,1.93359375,0,0
-2.69187803496607E-05,8.42515055410331E-06,1.93359375,0,0
-2.5185952836182E-05,8.4265802797745E-06,1.93359375,0,0
-2.65727012447314E-05,9.64827358984621E-06,1.93359375,0,0
-2.61287550529232E-05,8.77657294040546E-06,1.93359375,0,0
-2.85538772004656E-05,8.06880689196987E-06,1.93359375,0,0
-2.77518920483999E-05,8.32919886306627E-06,1.93359375,0,0
-2.72069773927797E-05,1.06433981272858E-05,1.93359375,0,0
-2.39283999690088E-05,1.11714498416404E-05,1.93359375,0,0
-2.29965771723073E-05,1.1165964679094E-05,1.93359375,0,0
-2.1249061319395E-05,1.0684552762541E-05,1.93359375,0,0
-2.10242269531591E-05,1.10262872112799E-05,1.93359375,0,0
-2.11150309041841E-05,1.10112887341529E-05,1.93359375,0,0
-2.21203063119901E-05,9.10766357264947E-06,1.93359375,0,0
-2.21954014705261E-05,8.19655087980209E-06,1.93359375,0,0
-2.17818396777147E-05,9.42375390877714E-06,1.93359375,0,0
-1.81393661478069E-05,9.53512972046155E-06,1.93359375,0,0
-2.57038900599582E-05,1.47234359246795E-05,1.93359375,0,0
-2.00301874428988E-05,1.14164768092451E-05,1.93359375,0,0
-2.57982246694155E-05,1.14260392365395E-05,1.93359375,0,0
-2.34888484555995E-05,7.84948406362673E-06,1.93359375,0,0
-2.61533023149241E-05,8.69948144099908E-06,1.93359375,0,0
-2.40522913372843E-05,8.45424165163422E-06,1.93359375,0,0
-2.56969888141612E-05,9.7908759926213E-06,1.93359375,0,0
