biceps_emg, triceps_emg, subject_position, position_estimate, brace_position
-2.73804707831005E-05,1.37868701131083E-05,3.33984375,0,0
-2.99879848171258E-05,1.47256960190134E-05,3.33984375,0,0
-3.0733961466467E-05,1.56922305905027E-05,3.33984375,0,0
-3.13560631184373E-05,1.63575550686801E-05,3.33984375,0,0
-3.02015032502823E-05,1.64027769642416E-05,3.33984375,0,0
-3.04197219520574E-05,1.46564252645476E-05,3.33984375,0,0
-3.05852154269814E-05,1.20555287139723E-05,3.33984375,0,0
-3.16581317747477E-05,9.73145597527036E-06,3.33984375,0,0
-3.22943633364048E-05,1.03068741736934E-05,3.33984375,0,0
-3.3303502277704E-05,1.18125544759096E-05,3.33984375,0,0
-3.36535122187342E-05,1.21665561891859E-05,3.33984375,0,0
-3.34742580889724E-05,1.21713437692961E-05,3.33984375,0,0
-2.62548364844406E-05,9.63310958468355E-06,3.33984375,0,0
-3.71077221643645E-05,1.27212742881966E-05,3.33984375,0,0
-2.88205410470255E-05,9.67080723057734E-06,3.33984375,0,0
-3.67712964361999E-05,1.38498471642379E-05,3.33984375,0,0
-3.09364368149545E-05,1.15845568871009E-05,3.33984375,0,0
-3.35464428644627E-05,1.00506122180377E-05,3.33984375,0,0
-2.89288163912715E-05,2.9352675028349E-06,3.33984375,0,0
-2.91030100925127E-05,-2.27207834768706E-07,3.33984375,0,0
-2.74907688435633E-05,9.6110363756452E-07,3.33984375,0,0
-2.69842767011141E-05,6.58642602502368E-06,3.33984375,0,0
-2.59492499026237E-05,1.2709610928141E-05,3.33984375,0,0
-2.34988910960965E-05,1.62135656864848E-05,3.33984375,0,0
-2.41083926084684E-05,1.62925553013338E-05,3.33984375,0,0
-2.29663219215581E-05,1.46927122841589E-05,3.33984375,0,0
-2.42713304032804E-05,1.64428947755368E-05,3.33984375,0,0
-2.22361541091232E-05,1.50130263136816E-05,3.33984375,0,0
-2.3068660084391E-05,7.98441760707647E-06,3.33984375,0,0
-2.1427802494145E-05,-5.76709362576366E-06,3.33984375,0,0
-2.21388927457156E-05,-1.70505172718549E-05,3.33984375,0,0
-2.06504846573807E-05,-2.11686801776523E-05,3.33984375,0,0
-2.24466366489651E-05,-1.59267146955244E-05,3.33984375,0,0
-2.25724525080295E-05,-7.97705160948681E-06,3.33984375,0,0
-2.32457878155401E-05,-2.71047468913821E-07,3.33984375,0,0
-2.22400285565527E-05,3.20995991387463E-06,3.33984375,0,0
-2.20375277422136E-05,5.01358636029181E-06,3.33984375,0,0
-2.2048032406019E-05,7.47429930925136E-06,3.33984375,0,0
-2.27790424105478E-05,1.08719968920923E-05,3.33984375,0,0
-1.84153759619221E-05,1.25382130136131E-05,3.33984375,0,0
-2.52997797360877E-05,2.05503147299169E-05,3.33984375,0,0
-1.72824329638388E-05,1.91118233487941E-05,3.33984375,0,0
-2.0372899598442E-05,2.15531490539433E-05,3.33984375,0,0
-1.63319764396874E-05,1.69145769177703E-05,3.33984375,0,0
-2.00037375179818E-05,1.68300739460392E-05,3.33984375,0,0
-1.97292065422516E-05,1.53400123963365E-05,3.33984375,0,0
-2.12336071854224E-05,1.55901652760804E-05,3.33984375,0,0
-1.94847325474257E-05,1.4061597539694E-05,3.33984375,0,0
-1.84019918378908E-05,1.16423680083244E-05,3.33984375,0,0
-1.87910973181715E-05,1.11323925011675E-05,3.33984375,0,0
-1.91198487300426E-05,1.2936622624693E-05,3.33984375,0,0
-2.09394474950386E-05,1.62772539624712E-05,3.33984375,0,0
-2.05222659133142E-05,1.74174965650309E-05,3.33984375,0,0
-2.06037784664659E-05,1.80620863829972E-05,3.33984375,0,0
-1.83757838385645E-05,1.36583848870941E-05,3.33984375,0,0
-1.92694587894948E-05,5.67044799026917E-06,3.33984375,0,0
-1.86674515134655E-05,-2.38054985857161E-06,3.33984375,0,0
-1.97394383576466E-05,-1.43703846333665E-06,3.33984375,0,0
-1.9467745005386E-05,5.04186846228549E-06,3.33984375,0,0
-2.00397371372674E-05,1.09800748759881E-05,3.33984375,0,0
-1.79155667865416E-05,1.23824493130087E-05,3.33984375,0,0
-1.75700006366242E-05,1.36136959554278E-05,3.33984375,0,0
-1.81673458428122E-05,1.52030515891965E-05,3.33984375,0,0
-1.90009959624149E-05,1.66811441886239E-05,3.33984375,0,0
-1.88297071872512E-05,1.45533913382678E-05,3.33984375,0,0
-1.88839512702543E-05,1.16274677566253E-05,3.33984375,0,0
-1.53995297296206E-05,9.67655341810314E-06,3.33984375,0,0
-2.18525983655127E-05,1.45184458233416E-05,3.33984375,0,0
-1.78192694875179E-05,1.25127307910589E-05,3.33984375,0,0
-2.25503663386917E-05,1.56083206093172E-05,3.33984375,0,0
-1.86231136467541E-05,1.33383045977098E-05,3.33984375,0,0
-1.95216271094978E-05,1.37608149088919E-05,3.33984375,0,0
-1.74055730894906E-05,1.3692190805159E-05,3.33984375,0,0
-1.99893347598845E-05,1.65550445672125E-05,3.33984375,0,0
-2.18523509829538E-05,1.7358863260597E-05,3.33984375,0,0
-2.40352601394989E-05,1.65010951604927E-05,3.33984375,0,0
-2.45065602939576E-05,1.4446832210524E-05,3.33984375,0,0
-2.28821900236653E-05,1.34019192046253E-05,3.33984375,0,0
-2.21597038034815E-05,1.45459207487875E-05,3.33984375,0,0
-2.06561526283622E-05,1.51490676216781E-05,3.33984375,0,0
-2.2221711333259E-05,1.6796942873043E-05,3.33984375,0,0
-2.3157417672337E-05,1.54674889927264E-05,3.33984375,0,0
-2.54817950917641E-05,1.32010036395513E-05,3.33984375,0,0
-2.45779865508666E-05,1.14725262392312E-05,3.33984375,0,0
-2.428301195323E-05,1.38266668727738E-05,3.33984375,0,0
-2.38179854932241E-05,1.60359759320272E-05,3.33984375,0,0
-2.65166090684943E-05,1.65137880685506E-05,3.33984375,0,0
-2.73805890174117E-05,1.35793688968988E-05,3.33984375,0,0
-2.75893216894474E-05,9.86133545666235E-06,3.33984375,0,0
-2.63237470790045E-05,4.97968267154647E-06,3.33984375,0,0
-2.64852460531984E-05,1.96632390725426E-06,3.33984375,0,0
-2.78248280665139E-05,1.51866140640777E-06,3.33984375,0,0
-3.00923984468682E-05,2.3757870621921E-06,3.33984375,0,0
-2.57183473877376E-05,3.83949645765824E-06,3.33984375,0,0
-3.67187640222255E-05,6.96819552103989E-06,3.33984375,0,0
-2.78011630143737E-05,7.58742680773139E-06,3.33984375,0,0
-3.5088221920887E-05,8.24319340608781E-06,3.33984375,0,0
-3.1470408430323E-05,6.916773145349E-06,3.33984375,0,0
-3.59364676114637E-05,9.78522803052329E-06,3.33984375,0,0
-3.27155867125839E-05,1.34758947751834E-05,3.33984375,0,0
-3.23071872116998E-05,1.44677815114846E-05,3.33984375,0,0
-2.94192595902132E-05,1.42210774356499E-05,3.33984375,0,0
-2.85132464341586E-05,1.41841146614752E-05,3.33984375,0,0
-2.78655425063334E-05,1.26517570606666E-05,3.33984375,0,0
-2.62222347373609E-05,8.38308551465161E-06,3.33984375,0,0
-2.67119685304351E-05,2.08322217076784E-06,3.33984375,0,0
-2.46894251176855E-05,-2.80313611256133E-06,3.33984375,0,0
-2.51250712608453E-05,-9.53223036503914E-07,3.33984375,0,0
-2.33016362471972E-05,5.3002122513135E-06,3.33984375,0,0
-2.48495034611551E-05,1.11626823127153E-05,3.33984375,0,0
-2.41465022554621E-05,1.26141858345363E-05,3.33984375,0,0
-2.58237505477155E-05,1.08298845589161E-05,3.33984375,0,0
-2.40166500589112E-05,8.21133653516881E-06,3.33984375,0,0
-2.43934337049723E-05,7.05059983374667E-06,3.33984375,0,0
-2.4696666514501E-05,7.44201452107518E-06,3.33984375,0,0
-2.61648838204565E-05,9.32091552385828E-06,3.33984375,0,0
-2.50270732067293E-05,1.14363374450477E-05,3.33984375,0,0
-2.4744924303377E-05,1.19174164865399E-05,3.33984375,0,0
-2.43334325205069E-05,9.38049106480321E-06,3.33984375,0,0
-2.39901219174499E-05,5.97357575315982E-06,3.33984375,0,0
-2.11364986171247E-05,5.04550098412437E-06,3.33984375,0,0
-3.1142306397669E-05,6.88662657921668E-06,3.33984375,0,0
-2.42363403231138E-05,4.58144222648116E-06,3.33984375,0,0
-2.82284017885104E-05,5.48198750038864E-06,3.33984375,0,0
-2.32225447689416E-05,3.74899104826909E-06,3.33984375,0,0
-2.51498840952991E-05,4.16590182794607E-06,3.33984375,0,0
-2.25290496018715E-05,4.46429066869314E-06,3.33984375,0,0
-2.34819672186859E-05,4.04898491979111E-06,3.33984375,0,0
-2.25623298319988E-05,2.27581699618895E-06,3.33984375,0,0
-2.24732866627164E-05,2.27842997446714E-06,3.33984375,0,0
-2.3203876480693E-05,3.8341931940522E-06,3.33984375,0,0
-2.30907444347395E-05,5.40785867997329E-06,3.33984375,0,0
-2.3945867724251E-05,7.59831846153247E-06,3.33984375,0,0
-2.21014815906528E-05,8.69872565090191E-06,3.33984375,0,0
-2.30535988521297E-05,9.83014524535974E-06,3.33984375,0,0
-2.31410504056839E-05,1.03038082670537E-05,3.33984375,0,0
-2.56563362199813E-05,1.02744334071758E-05,3.33984375,0,0
-2.47857824433595E-05,8.91367471922422E-06,3.33984375,0,0
-2.52895879384596E-05,8.00427824287908E-06,3.33984375,0,0
-2.52117461059242E-05,6.38431220068014E-06,3.33984375,0,0
-2.74278136203066E-05,6.13765041634906E-06,3.33984375,0,0
-2.70028467639349E-05,7.8841430877219E-06,3.33984375,0,0
-2.65650032815756E-05,1.03075071820058E-05,3.33984375,0,0
-2.61188251897693E-05,9.78255502559477E-06,3.33984375,0,0
-2.68642434093636E-05,7.20702928447281E-06,3.33984375,0,0
-2.69835582002997E-05,6.54366203889367E-06,3.33984375,0,0
-2.61183467955561E-05,7.73124884290155E-06,3.33984375,0,0
-1.97485733224312E-05,8.03168677521171E-06,3.33984375,0,0
-2.72645775112323E-05,1.40484735311475E-05,3.33984375,0,0
-2.10050147870788E-05,1.50491368913208E-05,3.33984375,0,0
-2.72126162599307E-05,1.65072669915389E-05,3.33984375,0,0
-2.34857616305817E-05,1.19846090456122E-05,3.33984375,0,0
-2.74295325652929E-05,1.10417604446411E-05,3.33984375,0,0
-2.58451582340058E-05,9.69892607827205E-06,3.33984375,0,0
-2.74533213087125E-05,1.11033914436121E-05,3.33984375,0,0
-2.57878964475822E-05,1.24548050735029E-05,3.33984375,0,0
-2.3289776436286E-05,1.31067727124901E-05,3.33984375,0,0
-2.11599817703245E-05,1.29653417388909E-05,3.33984375,0,0
-1.84363689186284E-05,1.4599596397602E-05,3.33984375,0,0
-1.72561412909999E-05,1.84870023076655E-05,3.33984375,0,0
-1.48908893606858E-05,2.09433037525741E-05,3.33984375,0,0
-1.59069932124112E-05,2.29221823246917E-05,3.33984375,0,0
-1.54045555973426E-05,2.26737902266905E-05,3.33984375,0,0
-1.65200963238021E-05,2.11985116038704E-05,3.33984375,0,0
-1.49978222907521E-05,1.84520813490963E-05,3.33984375,0,0
-1.56688856804976E-05,1.93725772987818E-05,3.33984375,0,0
-1.4415762052522E-05,2.04563039005734E-05,3.33984375,0,0
-1.51384529090137E-05,1.77936981344828E-05,3.33984375,0,0
-1.57267168106046E-05,9.0750027084141E-06,3.33984375,0,0
-1.74740307556931E-05,-1.7213044145592E-07,3.33984375,0,0
-1.68754704645835E-05,-4.50652896688553E-06,3.33984375,0,0
-1.6452320778626E-05,-1.86790737188858E-06,3.33984375,0,0
-1.7451222447562E-05,3.82394182452117E-06,3.33984375,0,0
-2.02456758415792E-05,7.46199884815724E-06,3.33984375,0,0
-1.75883415067801E-05,6.27082954451907E-06,3.33984375,0,0
-2.44114053202793E-05,7.97248958406271E-06,3.33984375,0,0
-1.87948899110779E-05,6.09022845310392E-06,3.33984375,0,0
-2.50266039074631E-05,1.1366974831617E-05,3.33984375,0,0
-2.22581948037259E-05,1.46009206218878E-05,3.33984375,0,0
-2.42100777541054E-05,1.82245694304584E-05,3.33984375,0,0
-2.19618777919095E-05,1.64542525453726E-05,3.33984375,0,0
-2.34837207244709E-05,1.49120724017848E-05,3.33984375,0,0
-2.34102990361862E-05,1.59978499141289E-05,3.33984375,0,0
-2.37777203437872E-05,1.72634172486141E-05,3.33984375,0,0
-2.39000728470273E-05,1.54241024574731E-05,3.33984375,0,0
-2.30404675676255E-05,1.3096943803248E-05,3.33984375,0,0
-2.39451037487015E-05,1.39414269142435E-05,3.33984375,0,0
-2.27985583478585E-05,1.48635344885406E-05,3.33984375,0,0
-2.42950118263252E-05,1.49037541632424E-05,3.33984375,0,0
-2.50017819780624E-05,1.25486130855279E-05,3.33984375,0,0
-2.67098057520343E-05,1.11381787064602E-05,3.33984375,0,0
-2.5136117983493E-05,1.07501873571891E-05,3.33984375,0,0
-2.5701951017254E-05,1.18794114314369E-05,3.33984375,0,0
-2.51841574936407E-05,1.17086319733062E-05,3.33984375,0,0
-2.52512145380024E-05,1.14238619062235E-05,3.33984375,0,0
-2.33477039728314E-05,1.10196015157271E-05,3.33984375,0,0
-2.2049965991755E-05,1.1811046533694E-05,3.33984375,0,0
-2.02260998776183E-05,1.28489491544315E-05,3.33984375,0,0
-2.00283993763151E-05,1.5107933904801E-05,3.33984375,0,0
-2.14211231650552E-05,1.84035816346295E-05,3.33984375,0,0
-2.25415788008831E-05,1.92522402358009E-05,3.33984375,0,0
-1.75766544998623E-05,1.29079880935024E-05,3.33984375,0,0
-2.48192645813106E-05,1.31492015498225E-05,3.33984375,0,0
-1.89733309525764E-05,-5.16329373567714E-06,3.33984375,0,0
-2.27387572522275E-05,-1.31023562062182E-05,3.33984375,0,0
-1.82763433258515E-05,-9.9530834631878E-06,3.33984375,0,0
-2.08485853363527E-05,8.79660456121201E-06,3.33984375,0,0
-1.88650683412561E-05,1.799312485673E-05,3.33984375,0,0
-1.99786154553294E-05,1.9215058273403E-05,3.33984375,0,0
-2.05399901460623E-05,1.25043416119297E-05,3.33984375,0,0
-2.33623413805617E-05,6.38779010841972E-06,3.33984375,0,0
-2.55138165812241E-05,3.90578679798637E-06,3.33984375,0,0
-2.56009716395056E-05,5.46788578503765E-06,3.33984375,0,0
-2.68936546490295E-05,8.32364094094373E-06,3.33984375,0,0
-2.6545721993898E-05,7.91159436630551E-06,3.33984375,0,0
-2.76629234576831E-05,8.8178376245196E-06,3.33984375,0,0
-2.74454250757117E-05,9.63775346463081E-06,3.33984375,0,0
-2.99267921946011E-05,1.20370550575899E-05,3.33984375,0,0
-2.9789947802783E-05,1.15672046376858E-05,3.33984375,0,0
-2.96899652312277E-05,1.23336612887215E-05,3.33984375,0,0
-2.64359860011609E-05,1.25026845125831E-05,3.33984375,0,0
-2.55120139627252E-05,1.50271980601246E-05,3.33984375,0,0
-2.43958220380591E-05,1.55056004587095E-05,3.33984375,0,0
-2.41926372837042E-05,1.28189858514816E-05,3.33984375,0,0
-2.30373916565441E-05,6.69566179567482E-06,3.33984375,0,0
-2.32893962675007E-05,2.46510148826928E-06,3.33984375,0,0
-2.36236173805082E-05,1.79663084054482E-06,3.33984375,0,0
-2.24766481551342E-05,3.79421317120432E-06,3.33984375,0,0
-1.81183804670582E-05,5.34466062163119E-06,3.33984375,0,0
-2.62514040514361E-05,8.82550648384495E-06,3.33984375,0,0
-2.06456570595037E-05,8.33076683193212E-06,3.33984375,0,0
-2.51364308496704E-05,8.83496977621689E-06,3.33984375,0,0
-2.07348330150126E-05,7.9286228356068E-06,3.33984375,0,0
-2.32176753343083E-05,1.07298728835303E-05,3.33984375,0,0
-2.27712280320702E-05,1.31324140966171E-05,3.33984375,0,0
-2.43479844357353E-05,1.62862179422518E-05,3.33984375,0,0
-2.31634003284853E-05,1.7756354282028E-05,3.33984375,0,0
-2.29285997193074E-05,1.74228898686124E-05,3.33984375,0,0
-2.31333724514116E-05,1.71142419276293E-05,3.33984375,0,0
-2.19163430301705E-05,1.74895958480192E-05,3.33984375,0,0
-2.183339347539E-05,1.79840772034368E-05,3.33984375,0,0
-2.10420803341549E-05,1.65746732818661E-05,3.33984375,0,0
-2.25954354391433E-05,1.41965583679848E-05,3.33984375,0,0
-2.15330492210342E-05,8.37747393234167E-06,3.33984375,0,0
-2.18198838410899E-05,2.38525444729021E-06,3.33984375,0,0
-2.1147177903913E-05,-1.29615398236638E-06,3.33984375,0,0
-2.38623761106282E-05,-1.10637847683392E-06,3.33984375,0,0
-2.47261941694887E-05,-1.3828410772021E-07,3.33984375,0,0
-2.52993431786308E-05,8.33768297070492E-07,3.33984375,0,0
-2.44151906372281E-05,2.28863382290001E-06,3.33984375,0,0
-2.49471249844646E-05,5.61218621442094E-06,3.33984375,0,0
-2.50377561314963E-05,9.84609232546063E-06,3.33984375,0,0
-2.57140000030631E-05,1.42777680594008E-05,3.33984375,0,0
-2.53703110502101E-05,1.58726561494404E-05,3.33984375,0,0
-2.51354522333713E-05,1.43523147926317E-05,3.33984375,0,0
-2.11093938560225E-05,1.0738379387476E-05,3.33984375,0,0
-3.22244559356477E-05,1.51743342939881E-05,3.33984375,0,0
-2.75028414762346E-05,9.79715605353704E-06,3.33984375,0,0
-3.13714481308125E-05,1.0097606718773E-05,3.33984375,0,0
-2.49483637162484E-05,7.130410267564E-06,3.33984375,0,0
-2.81627981166821E-05,9.7697966339183E-06,3.33984375,0,0
-2.77221170108533E-05,9.00901613931637E-06,3.33984375,0,0
-3.02605349133955E-05,8.17194813862443E-06,3.33984375,0,0
-2.89983254333492E-05,6.20146556684631E-06,3.33984375,0,0
-2.80358854070073E-05,6.01615784034948E-06,3.33984375,0,0
-2.85704172711121E-05,7.91984439274529E-06,3.33984375,0,0
-2.8155134714325E-05,9.55722953221994E-06,3.33984375,0,0
-2.77780163742136E-05,9.79765991360182E-06,3.33984375,0,0
-2.46331583184656E-05,6.88626641931478E-06,3.33984375,0,0
-2.43877566390438E-05,5.25146515428787E-06,3.33984375,0,0
-2.32349211728433E-05,4.78692436445272E-06,3.33984375,0,0
-2.502066672605E-05,7.21410560799995E-06,3.33984375,0,0
-2.39786477322923E-05,8.94339427759405E-06,3.33984375,0,0
-2.3926075300551E-05,1.02440408227267E-05,3.33984375,0,0
-2.20298225031001E-05,9.70278779277578E-06,3.33984375,0,0
-2.20661149796797E-05,1.17046311061131E-05,3.33984375,0,0
-2.14407427847618E-05,1.33004832605366E-05,3.33984375,0,0
-2.2731421267963E-05,1.30071048261016E-05,3.33984375,0,0
-2.37511612795061E-05,1.1301888662274E-05,3.33984375,0,0
-2.57626033999259E-05,1.23314430311439E-05,3.33984375,0,0
-2.68488765868824E-05,1.56144960783422E-05,3.33984375,0,0
-2.63720721704885E-05,1.81278574018506E-05,3.33984375,0,0
-1.97553999896627E-05,1.55097150127403E-05,3.33984375,0,0
-2.71259123110212E-05,1.93072683032369E-05,3.33984375,0,0
-1.94293988897698E-05,5.9666899687727E-06,3.33984375,0,0
-2.3766229787725E-05,3.47036666425993E-06,3.33984375,0,0
-1.89619458978996E-05,2.24310088015045E-06,3.33984375,0,0
-2.19040302908979E-05,1.18285452117561E-05,3.33984375,0,0
-2.00353042600909E-05,1.52499469550094E-05,3.33984375,0,0
-2.10616981348721E-05,1.67939488164848E-05,3.33984375,0,0
-1.95068259927211E-05,1.57647828018526E-05,3.33984375,0,0
-1.90467271750094E-05,1.49862798934919E-05,3.33984375,0,0
-1.92103052540915E-05,1.4942681445973E-05,3.33984375,0,0
-1.85861317731906E-05,1.41899490699871E-05,3.33984375,0,0
-1.95949996850686E-05,1.29654763441067E-05,3.33984375,0,0
-1.8625727534527E-05,1.17653553388664E-05,3.33984375,0,0
-1.97981753444765E-05,1.66608933795942E-05,3.33984375,0,0
-1.93550313269952E-05,2.06616223294986E-05,3.33984375,0,0
-2.0956469597877E-05,2.23708047997206E-05,3.33984375,0,0
-1.9461700503598E-05,1.9935634554713E-05,3.33984375,0,0
-1.9475155568216E-05,1.97413410205627E-05,3.33984375,0,0
-1.83412084879819E-05,2.05425603780895E-05,3.33984375,0,0
-2.03050585696474E-05,2.28702137974324E-05,3.33984375,0,0
-2.13482162507717E-05,2.04841708182357E-05,3.33984375,0,0
-2.23068163904827E-05,1.70568710018415E-05,3.33984375,0,0
-2.1287060008035E-05,1.50409014167963E-05,3.33984375,0,0
-2.07892480830196E-05,1.51510639625485E-05,3.33984375,0,0
-2.04550397029379E-05,1.53346936713206E-05,3.33984375,0,0
-2.10453345061978E-05,1.63857639563503E-05,3.33984375,0,0
-1.77198362507625E-05,1.45758713188116E-05,3.33984375,0,0
-2.61886179941939E-05,1.96442924789153E-05,3.33984375,0,0
-2.17325505218469E-05,1.22407291200943E-05,3.33984375,0,0
-2.74049016297795E-05,1.29856007333728E-05,3.33984375,0,0
-2.34687358897645E-05,5.84631152378279E-06,3.33984375,0,0
-2.4480725187459E-05,2.78841707768152E-06,3.33984375,0,0
-2.21860755118541E-05,-2.61176819549291E-06,3.33984375,0,0
-2.25818821490975E-05,-3.36727680405602E-06,3.33984375,0,0
-2.22348589886678E-05,-2.71048156719189E-06,3.33984375,0,0
-2.32762504310813E-05,-3.4015627647932E-07,3.33984375,0,0
-2.32811980822589E-05,2.04060961550567E-06,3.33984375,0,0
-2.08264318644069E-05,4.12367717217421E-06,3.33984375,0,0
-1.97633053176105E-05,7.37754908186616E-06,3.33984375,0,0
-1.83322172233602E-05,1.00824490800733E-05,3.33984375,0,0
-1.98817888303893E-05,1.37381257445668E-05,3.33984375,0,0
-1.99641963263275E-05,1.44201285365853E-05,3.33984375,0,0
-2.13531784538645E-05,1.57772738020867E-05,3.33984375,0,0
-2.05246997211361E-05,1.52201055243495E-05,3.33984375,0,0
-2.21636582864448E-05,1.54209228639957E-05,3.33984375,0,0
-2.39989294641418E-05,1.23750487546204E-05,3.33984375,0,0
-2.70937107416103E-05,9.33615319809178E-06,3.33984375,0,0
-2.64566951955203E-05,7.19582067176816E-06,3.33984375,0,0
-2.52313529927051E-05,8.87356236489723E-06,3.33984375,0,0
-2.48434698733035E-05,1.09482125481009E-05,3.33984375,0,0
-2.6423018425703E-05,1.19870255730348E-05,3.33984375,0,0
-2.93935881927609E-05,1.04288692455157E-05,3.33984375,0,0
-3.15657671308145E-05,7.3776450335572E-06,3.33984375,0,0
-2.62711619143374E-05,2.90027196570009E-06,3.33984375,0,0
-3.74838309653569E-05,2.31347303270013E-06,3.33984375,0,0
-2.80209169432055E-05,1.2882978808193E-06,3.33984375,0,0
-3.43967767548747E-05,3.78484014618152E-06,3.33984375,0,0
-3.03435372188687E-05,5.64897891308647E-06,3.33984375,0,0
-3.53525902028196E-05,1.07333216874395E-05,3.33984375,0,0
-3.2724052289268E-05,1.13303240141249E-05,3.33984375,0,0
-3.28137975884601E-05,9.66008883551694E-06,3.33984375,0,0
-2.92142140096985E-05,1.02328222055803E-05,3.33984375,0,0
-2.78929965134012E-05,1.15983220894122E-05,3.33984375,0,0
-2.83546032733284E-05,1.03751808637753E-05,3.33984375,0,0
-2.82151377177797E-05,8.22212405182654E-06,3.33984375,0,0
-2.99523344438057E-05,8.11736299510812E-06,3.33984375,0,0
-2.90214811684564E-05,9.28895769902738E-06,3.33984375,0,0
-3.05670109810308E-05,1.17312465590658E-05,3.33984375,0,0
-2.91843298327876E-05,1.40582205858664E-05,3.33984375,0,0
-3.04372006212361E-05,1.55620364239439E-05,3.33984375,0,0
-2.89276777039049E-05,1.37455790536478E-05,3.33984375,0,0
-2.99656094284728E-05,1.20693212011247E-05,3.33984375,0,0
-2.83357567241183E-05,1.250531659025E-05,3.33984375,0,0
-2.82647870335495E-05,1.38853329190169E-05,3.33984375,0,0
-2.66981551249046E-05,1.28613610286266E-05,3.33984375,0,0
-2.77184390142793E-05,1.15922211989528E-05,3.33984375,0,0
-2.76291539194062E-05,1.3187262993597E-05,3.33984375,0,0
-2.69243428192567E-05,1.84411728696432E-05,3.33984375,0,0
-2.40553472394822E-05,2.2696722226101E-05,3.33984375,0,0
-2.15143027162412E-05,2.12930208363105E-05,3.33984375,0,0
-1.65166493388824E-05,1.1403461030568E-05,3.33984375,0,0
-2.24513678404037E-05,1.35309346660506E-05,3.33984375,0,0
-1.5161102055572E-05,8.0876498032012E-06,3.33984375,0,0
-1.97775170818204E-05,1.08458561953739E-05,3.33984375,0,0
-1.87382811418502E-05,4.83200165035669E-06,3.33984375,0,0
-2.22544003918301E-05,5.68783389098826E-06,3.33984375,0,0
-2.16098269447684E-05,3.96339328290196E-06,3.33984375,0,0
-2.38926277233986E-05,3.19076116284123E-06,3.33984375,0,0
-2.35275674640434E-05,2.20833385355945E-06,3.33984375,0,0
-2.29347388085444E-05,1.26285556234507E-06,3.33984375,0,0
-2.38359316426795E-05,-4.45597925136099E-06,3.33984375,0,0
-2.53390426223632E-05,-1.0315527106286E-05,3.33984375,0,0
-2.71240060101263E-05,-7.14136695023626E-06,3.33984375,0,0
-2.47787047555903E-05,-7.42770623674005E-07,3.33984375,0,0
-2.33623777603498E-05,3.64659808838042E-06,3.33984375,0,0
-2.12269424082479E-05,-6.924437343514E-07,3.33984375,0,0
-2.24506293307059E-05,-7.72626208345173E-06,3.33984375,0,0
-2.28460266953334E-05,-1.1892375368916E-05,3.33984375,0,0
-2.4632339773234E-05,-6.72860915074125E-06,3.33984375,0,0
-2.39191049331566E-05,2.5865465431707E-06,3.33984375,0,0
-2.37983404076658E-05,1.18347834359156E-05,3.33984375,0,0
-2.29658144235145E-05,1.39748308356502E-05,3.33984375,0,0
-2.3852508093114E-05,1.16244636956253E-05,3.33984375,0,0
-2.45219453063328E-05,8.32109526527347E-06,3.33984375,0,0
-2.45026949414751E-05,8.00038469606079E-06,3.33984375,0,0
-2.3363325453829E-05,8.4495623013936E-06,3.33984375,0,0
-2.19288049265742E-05,8.6160262071644E-06,3.33984375,0,0
-1.78443424374564E-05,7.24573646948556E-06,3.33984375,0,0
-2.62617395492271E-05,1.0883897630265E-05,3.33984375,0,0
-2.07929424504982E-05,9.43321629165439E-06,3.33984375,0,0
-2.5763600206119E-05,1.23659256132669E-05,3.33984375,0,0
-2.3210128347273E-05,1.0992905117746E-05,3.33984375,0,0
-2.55568284046603E-05,1.01551522675436E-05,3.33984375,0,0
-2.33953160204692E-05,9.3447324616136E-06,3.33984375,0,0
-2.39915825659409E-05,1.25672459034831E-05,3.33984375,0,0
-2.29517590923933E-05,1.59849387273425E-05,3.33984375,0,0
-2.30489149544155E-05,1.7380814824719E-05,3.33984375,0,0
-2.31923204410123E-05,1.72657710209023E-05,3.33984375,0,0
-2.25836283789249E-05,1.69896993611474E-05,3.33984375,0,0
-2.46149702434195E-05,1.75973818841157E-05,3.33984375,0,0
-2.72129709628643E-05,1.75936365849338E-05,3.33984375,0,0
-3.10631512547843E-05,1.83974952960853E-05,3.33984375,0,0
-2.9392795113381E-05,1.80768256541342E-05,3.33984375,0,0
-2.74732283287449E-05,1.72849922819296E-05,3.33984375,0,0
-2.47487241722411E-05,1.5832230928936E-05,3.33984375,0,0
-2.48013620876009E-05,1.63236200023675E-05,3.33984375,0,0
-2.35127408814151E-05,1.69879422173835E-05,3.33984375,0,0
-2.4680259230081E-05,1.77515721588861E-05,3.33984375,0,0
-2.56191560765728E-05,1.7165468307212E-05,3.33984375,0,0
-2.72375618806109E-05,1.68145725183422E-05,3.33984375,0,0
-2.76871633104747E-05,1.728242932586E-05,3.33984375,0,0
-2.77874987659743E-05,1.72573818417732E-05,3.33984375,0,0
-2.7362781111151E-05,1.5530456948909E-05,3.33984375,0,0
-2.76176033366937E-05,1.40137935886742E-05,3.33984375,0,0
-2.23220722546102E-05,1.15691127575701E-05,3.33984375,0,0
-3.08216076518875E-05,1.63195436471142E-05,3.33984375,0,0
-2.23408533202019E-05,1.12055786303245E-05,3.33984375,0,0
-2.83089339063736E-05,1.30287116917316E-05,3.33984375,0,0
-2.32552774832584E-05,1.06039415186387E-05,3.33984375,0,0
-2.56639468716457E-05,1.13844780571526E-05,3.33984375,0,0
-2.33785813179566E-05,6.90477008902235E-06,3.33984375,0,0
-2.49773402174469E-05,5.08592484038672E-06,3.33984375,0,0
-2.33272694458719E-05,7.5200018727628E-06,3.33984375,0,0
-2.1892779841437E-05,1.29792470033863E-05,3.33984375,0,0
-2.04323969228426E-05,1.64220491569722E-05,3.33984375,0,0
-1.87022978934692E-05,1.80246661329875E-05,3.33984375,0,0
-2.01110378839076E-05,2.001688699238E-05,3.33984375,0,0
-2.01341335923644E-05,1.8282962628291E-05,3.33984375,0,0
-2.19371286220849E-05,1.63220829563215E-05,3.33984375,0,0
-2.03278777917149E-05,1.37284723678022E-05,3.33984375,0,0
-2.07298016903223E-05,1.4352322978084E-05,3.33984375,0,0
-1.94780768651981E-05,1.59169085236499E-05,3.33984375,0,0
-2.20491147047142E-05,1.75246477738256E-05,3.33984375,0,0
-2.33396676776465E-05,1.39089852382313E-05,3.33984375,0,0
-2.65143244178034E-05,7.72209477872821E-06,3.33984375,0,0
-2.81269367405912E-05,1.77467222783889E-06,3.33984375,0,0
-2.98611521429848E-05,1.54763768023258E-06,3.33984375,0,0
-2.89285308099352E-05,4.51594769401709E-06,3.33984375,0,0
-2.78502575383754E-05,8.2440064943512E-06,3.33984375,0,0
-2.66226579697104E-05,1.28987048810814E-05,3.33984375,0,0
-2.57953233813168E-05,1.5911635273369E-05,3.33984375,0,0
-1.98973011720227E-05,1.17076278911554E-05,3.33984375,0,0
-2.81025386357214E-05,1.51981857925421E-05,3.33984375,0,0
-2.22465805563843E-05,1.0327875315852E-05,3.33984375,0,0
-2.77134786301758E-05,1.35243799377349E-05,3.33984375,0,0
-2.20348920265678E-05,9.81572520686314E-06,3.33984375,0,0
-2.42503010667861E-05,1.06090883491561E-05,3.33984375,0,0
-2.18115237657912E-05,8.49891694088001E-06,3.33984375,0,0
-2.13685671042185E-05,8.77104048413457E-06,3.33984375,0,0
-1.97257322724909E-05,8.78038008522708E-06,3.33984375,0,0
-2.04048537852941E-05,8.67719700181624E-06,3.33984375,0,0
-2.19394696614472E-05,6.59380384604447E-06,3.33984375,0,0
-2.27689051826019E-05,2.32821253121074E-06,3.33984375,0,0
-2.50919238169445E-05,-2.51919161087244E-08,3.33984375,0,0
-2.48805808951147E-05,7.64613844239648E-07,3.33984375,0,0
-2.58089203271084E-05,5.94445009483024E-06,3.33984375,0,0
-2.36305641010404E-05,8.92022762855049E-06,3.33984375,0,0
-2.26430893235374E-05,1.10736727947369E-05,3.33984375,0,0
-1.95826887647854E-05,1.05943154267152E-05,3.33984375,0,0
-2.06834174605319E-05,9.04882290342357E-06,3.33984375,0,0
-2.19397206819849E-05,4.54218525192118E-06,3.33984375,0,0
-2.44167749769986E-05,2.62860953625932E-06,3.33984375,0,0
-2.41451907641022E-05,1.58424722940254E-06,3.33984375,0,0
-2.34453345910879E-05,1.86407646651787E-06,3.33984375,0,0
-2.15681739064166E-05,4.93222751174471E-06,3.33984375,0,0
-2.14182673516916E-05,1.24538200907409E-05,3.33984375,0,0
-2.04322059289552E-05,1.95639695448335E-05,3.33984375,0,0
-1.92728621186689E-05,2.26627198571805E-05,3.33984375,0,0
-1.54042136273347E-05,1.60531308210921E-05,3.33984375,0,0
-2.0663670511567E-05,1.82445255632047E-05,3.33984375,0,0
-1.50949945236789E-05,7.54757593313116E-06,3.33984375,0,0
-1.9565526599763E-05,8.19267916085664E-06,3.33984375,0,0
-1.45473668453633E-05,-1.3370322449191E-06,3.33984375,0,0
-1.61778170877369E-05,3.53636181671391E-07,3.33984375,0,0
-1.69878785527544E-05,2.37138351621979E-06,3.33984375,0,0
-2.13216790143633E-05,7.69235521147493E-06,3.33984375,0,0
-2.31121503020404E-05,1.18095022116904E-05,3.33984375,0,0
-2.37464973906754E-05,1.5442547010025E-05,3.33984375,0,0
-2.38155080296565E-05,1.71068440977251E-05,3.33984375,0,0
-2.18372770177666E-05,1.62192300194874E-05,3.33984375,0,0
-2.13047715078574E-05,1.49816505654599E-05,3.33984375,0,0
-2.02245100808796E-05,1.1615855328273E-05,3.33984375,0,0
-2.14754418266239E-05,1.20750946734915E-05,3.33984375,0,0
-2.15610125451349E-05,1.11903100332711E-05,3.33984375,0,0
-2.33337432291592E-05,7.73149258748163E-06,3.33984375,0,0
-2.31905814871425E-05,-1.327318955191E-06,3.33984375,0,0
-2.43157883232925E-05,-4.86555154566304E-06,3.33984375,0,0
-2.40829976974055E-05,-1.86426836989995E-06,3.33984375,0,0
-2.48889136855723E-05,7.8571611084044E-06,3.33984375,0,0
-2.43541016970994E-05,1.38501336550689E-05,3.33984375,0,0
-2.47893531195587E-05,1.3874704563932E-05,3.33984375,0,0
-2.46215004153783E-05,1.07881915027974E-05,3.33984375,0,0
-2.48962332989322E-05,1.16543224066845E-05,3.33984375,0,0
-2.52741592703387E-05,1.32978693727637E-05,3.33984375,0,0
-2.50698649324477E-05,1.18607549666194E-05,3.33984375,0,0
-1.9876635633409E-05,5.7396937336307E-06,3.33984375,0,0
-2.93072662316263E-05,5.08365974383196E-06,3.33984375,0,0
-2.3943181076902E-05,1.82176904672815E-06,3.33984375,0,0
-2.93255707219942E-05,5.46458295502816E-06,3.33984375,0,0
-2.49533550231718E-05,4.72464080303325E-06,3.33984375,0,0
-2.76948267128319E-05,7.25408017387963E-06,3.33984375,0,0
-2.60726428678026E-05,9.989099453378E-06,3.33984375,0,0
-2.66783536062576E-05,1.36465596369817E-05,3.33984375,0,0
-2.40723456954584E-05,1.41063410410425E-05,3.33984375,0,0
-2.27743130380986E-05,1.37898559842142E-05,3.33984375,0,0
-2.34154449572088E-05,1.54036242747679E-05,3.33984375,0,0
-2.43943577515893E-05,2.02946557692485E-05,3.33984375,0,0
-2.67405102931662E-05,2.67913492280059E-05,3.33984375,0,0
-2.62327030213783E-05,2.77153430943144E-05,3.33984375,0,0
-2.61069126281654E-05,2.17862962017534E-05,3.33984375,0,0
-2.33552145800786E-05,1.47585351442103E-05,3.33984375,0,0
-2.34210165217519E-05,1.55403849930735E-05,3.33984375,0,0
-2.21742666326463E-05,1.8986378563568E-05,3.33984375,0,0
-2.30555415328126E-05,2.13003240787657E-05,3.33984375,0,0
-2.20750735024922E-05,2.07399680220988E-05,3.33984375,0,0
-2.26232023123885E-05,2.12700906558894E-05,3.33984375,0,0
-2.20521033043042E-05,2.27839773287997E-05,3.33984375,0,0
-2.34776816796511E-05,2.42112273554085E-05,3.33984375,0,0
-2.51995243161218E-05,2.1498673959286E-05,3.33984375,0,0
-2.61601890088059E-05,1.61221396410838E-05,3.33984375,0,0
-2.52381651080213E-05,1.27193434309447E-05,3.33984375,0,0
-2.41945217567263E-05,1.26176637422759E-05,3.33984375,0,0
-1.88060803338885E-05,1.04753398773028E-05,3.33984375,0,0
-2.77400067716371E-05,1.30662010633387E-05,3.33984375,0,0
-2.26558750000549E-05,6.40152256892179E-06,3.33984375,0,0
-2.7406626031734E-05,7.55407609176473E-06,3.33984375,0,0
-2.38961292780004E-05,5.76537468077731E-06,3.33984375,0,0
-2.66659153567161E-05,7.5088696576131E-06,3.33984375,0,0
-2.33493101404747E-05,4.48184482593206E-06,3.33984375,0,0
-2.29296747420449E-05,3.35814343088714E-06,3.33984375,0,0
-2.22867965931073E-05,2.96375742436794E-06,3.33984375,0,0
-2.36492160183843E-05,4.3853469833266E-06,3.33984375,0,0
-2.4832495910232E-05,6.46289481665008E-06,3.33984375,0,0
-2.44957009272184E-05,8.21052344690543E-06,3.33984375,0,0
-2.58826676144963E-05,9.32425245991908E-06,3.33984375,0,0
-2.60508004430449E-05,8.96472738531884E-06,3.33984375,0,0
-2.73318873951212E-05,1.14143722385052E-05,3.33984375,0,0
-2.52933768933872E-05,1.34751226141816E-05,3.33984375,0,0
-2.50102821155451E-05,1.51946214828058E-05,3.33984375,0,0
-2.41314774029888E-05,1.47372202263796E-05,3.33984375,0,0
-2.59248754446162E-05,1.62313517648727E-05,3.33984375,0,0
-2.52109239227138E-05,1.65329765877686E-05,3.33984375,0,0
-2.45744868152542E-05,1.51720569192548E-05,3.33984375,0,0
-2.27963209908921E-05,9.11222105060006E-06,3.33984375,0,0
-2.28746885113651E-05,9.10718995328352E-07,3.33984375,0,0
-2.21343725570478E-05,-5.64699303140515E-06,3.33984375,0,0
-2.21669106394984E-05,-3.25552286994935E-06,3.33984375,0,0
-2.24304712901358E-05,5.31043133378262E-06,3.33984375,0,0
-2.36873056564946E-05,1.13731948658824E-05,3.33984375,0,0
-1.92062398127746E-05,1.03602624221821E-05,3.33984375,0,0
-2.62243975157617E-05,1.42985827551456E-05,3.33984375,0,0
-1.95309257833287E-05,9.76535466179485E-06,3.33984375,0,0
-2.69993015535874E-05,1.30183098008274E-05,3.33984375,0,0
-2.56012499448843E-05,1.13451205834281E-05,3.33984375,0,0
-2.85936148429755E-05,1.23463032650761E-05,3.33984375,0,0
-2.48242577072233E-05,1.15527445814223E-05,3.33984375,0,0
-2.52020709012868E-05,1.19561836982029E-05,3.33984375,0,0
-2.37651202041889E-05,1.15474122139858E-05,3.33984375,0,0
-2.2268801330938E-05,1.04768405435607E-05,3.33984375,0,0
-2.23282895603916E-05,1.04710807136144E-05,3.33984375,0,0
-2.34340132010402E-05,1.19359592645196E-05,3.33984375,0,0
-2.61138775385916E-05,1.39386811497388E-05,3.33984375,0,0
-2.51594628934981E-05,1.1353934496583E-05,3.33984375,0,0
-2.5376999474247E-05,7.89252862887224E-06,3.33984375,0,0
-2.36537234741263E-05,6.11646464676596E-06,3.33984375,0,0
-2.3946886358317E-05,8.89879720489262E-06,3.33984375,0,0
-2.25549010792747E-05,1.05341850940022E-05,3.33984375,0,0
-2.41147354245186E-05,1.06507313830662E-05,3.33984375,0,0
-2.4176733859349E-05,1.00200913948356E-05,3.33984375,0,0
-2.58107229456073E-05,1.12876450657495E-05,3.33984375,0,0
-2.60490814980585E-05,1.17531744763255E-05,3.33984375,0,0
-2.64077334577451E-05,1.14903941721423E-05,3.33984375,0,0
-2.49762979365187E-05,1.01266559795476E-05,3.33984375,0,0
-2.37801050388953E-05,8.57780014484888E-06,3.33984375,0,0
-2.28677727136528E-05,7.28296117813443E-06,3.33984375,0,0
-2.3198350390885E-05,6.54819086776115E-06,3.33984375,0,0
-1.86603592737811E-05,4.22972016167478E-06,3.33984375,0,0
-2.43987542489776E-05,3.88637772630318E-06,3.33984375,0,0
-1.66550780704711E-05,1.2730273510897E-06,3.33984375,0,0
-2.34478884522105E-05,5.58238480152795E-06,3.33984375,0,0
-2.10546204471029E-05,7.83650466473773E-06,3.33984375,0,0
-2.45304272539215E-05,1.03777138065198E-05,3.33984375,0,0
-2.16963253478752E-05,1.06840680018649E-05,3.33984375,0,0
-2.05798842216609E-05,1.07688147181761E-05,3.33984375,0,0
-1.87300011020852E-05,9.97462848317809E-06,3.33984375,0,0
-1.89209658856271E-05,8.1228399722022E-06,3.33984375,0,0
-1.9141689335811E-05,6.37281436866033E-06,3.33984375,0,0
-1.7649841538514E-05,6.83571715853759E-06,3.33984375,0,0
-1.93122377822874E-05,8.51447657623794E-06,3.33984375,0,0
-2.09945155802416E-05,7.00250757290632E-06,3.33984375,0,0
-2.38020493270596E-05,4.65961875306675E-06,3.33984375,0,0
-2.20700439967914E-05,4.38710503658513E-06,3.33984375,0,0
-2.04606458282797E-05,8.21473713585874E-06,3.33984375,0,0
-1.70444673130987E-05,1.21841803775169E-05,3.33984375,0,0
-1.77978145075031E-05,1.53426117321942E-05,3.33984375,0,0
-1.84472828550497E-05,1.80787719727959E-05,3.33984375,0,0
-1.99891383090289E-05,2.08542478503659E-05,3.33984375,0,0
-1.87560872291215E-05,2.16491371247685E-05,3.33984375,0,0
-1.74951674125623E-05,2.11280985240592E-05,3.33984375,0,0
-1.6180116290343E-05,1.91440249182051E-05,3.33984375,0,0
-1.6470472473884E-05,1.63533186423592E-05,3.33984375,0,0
-1.48116696436773E-05,1.16327864816412E-05,3.33984375,0,0
-1.29027766888612E-05,7.34817058400949E-06,3.33984375,0,0
-9.96571179712191E-06,8.58707699080696E-06,3.33984375,0,0
-1.48903909575893E-05,1.49397310451604E-05,3.33984375,0,0
-1.4212928363122E-05,8.12757662060903E-06,3.33984375,0,0
-2.07114444492618E-05,-2.02826026907132E-06,3.33984375,0,0
-2.09457521123113E-05,-9.616359420761E-06,3.33984375,0,0
-2.27481104957405E-05,-5.04330137118814E-06,3.33984375,0,0
-2.30725927394815E-05,2.22619678424962E-06,3.33984375,0,0
-2.51986566581763E-05,6.89079251969815E-06,3.33984375,0,0
-2.57628598774318E-05,7.03906107446528E-06,3.33984375,0,0
-2.58883246715413E-05,5.34900982529507E-06,3.33984375,0,0
-2.70812470262172E-05,5.36285233465605E-06,3.33984375,0,0
-2.87992297671735E-05,8.1736752690631E-06,3.33984375,0,0
-3.0004050131538E-05,1.15562970677274E-05,3.33984375,0,0
-2.96171365334885E-05,1.19849528346094E-05,3.33984375,0,0
-3.08828784909565E-05,1.06620473161456E-05,3.33984375,0,0
-3.15723264066037E-05,7.4486661105766E-06,3.33984375,0,0
-3.28059068124276E-05,5.67190818401286E-06,3.33984375,0,0
-3.27955203829333E-05,5.30597435499658E-06,3.33984375,0,0
-3.36007142323069E-05,7.00591363056446E-06,3.33984375,0,0
-3.29834074364044E-05,9.17451143322978E-06,3.33984375,0,0
-3.24190550600179E-05,1.19991445899359E-05,3.33984375,0,0
-3.13260388793424E-05,1.29936597659253E-05,3.33984375,0,0
-3.15797406074125E-05,1.3617681361211E-05,3.33984375,0,0
-3.15011202474125E-05,1.59594746946823E-05,3.33984375,0,0
-3.24017164530233E-05,1.83627471415093E-05,3.33984375,0,0
-3.4017939469777E-05,1.86088327609468E-05,3.33984375,0,0
-3.49943984474521E-05,1.71496758412104E-05,3.33984375,0,0
-2.74537032964872E-05,1.3191410289437E-05,3.33984375,0,0
-3.76919924747199E-05,2.08911351364804E-05,3.33984375,0,0
-2.68862913799239E-05,1.81027535290923E-05,3.33984375,0,0
-3.53218747477513E-05,2.23252245632466E-05,3.33984375,0,0
-3.00763877021382E-05,2.20631573029095E-05,3.33984375,0,0
-3.28115384036209E-05,2.58561121881939E-05,3.33984375,0,0
-2.87872680928558E-05,2.50635184784187E-05,3.33984375,0,0
-3.04664827126544E-05,2.45233695750358E-05,3.33984375,0,0
-2.91556498268619E-05,2.33285845752107E-05,3.33984375,0,0
-2.81870779872406E-05,2.20429319597315E-05,3.33984375,0,0
-2.73176920018159E-05,1.83458905667067E-05,3.33984375,0,0
-2.50098109972896E-05,1.31669448819594E-05,3.33984375,0,0
-2.48532287514536E-05,1.00896404546802E-05,3.33984375,0,0
-2.29496981773991E-05,7.78014236857416E-06,3.33984375,0,0
-2.37647436733823E-05,6.58523958918522E-06,3.33984375,0,0
-2.07227913051611E-05,3.67327470485179E-06,3.33984375,0,0
-2.10123798751738E-05,2.61228092313104E-06,3.33984375,0,0
-1.92837505892385E-05,1.36675851081236E-06,3.33984375,0,0
-2.12568393180845E-05,2.90934053737146E-06,3.33984375,0,0
-2.07131997740362E-05,3.37526671501109E-06,3.33984375,0,0
-2.07343273359584E-05,4.69463884655852E-06,3.33984375,0,0
-1.90066020877566E-05,8.31831130199134E-06,3.33984375,0,0
-2.04978077817941E-05,1.42689241329208E-05,3.33984375,0,0
-2.15067411772907E-05,1.7812251826399E-05,3.33984375,0,0
-2.25526109716157E-05,1.89723086805316E-05,3.33984375,0,0
-2.12276736419881E-05,1.84429409273434E-05,3.33984375,0,0
-2.05752821784699E-05,1.93459509318927E-05,3.33984375,0,0
-1.81540053745266E-05,1.72794352693018E-05,3.33984375,0,0
-2.64786085608648E-05,2.52445188380079E-05,3.33984375,0,0
-2.00501290237298E-05,1.815716677811E-05,3.33984375,0,0
-2.32862239499809E-05,1.95014908968005E-05,3.33984375,0,0
-1.84009495569626E-05,1.37318902488914E-05,3.33984375,0,0
-1.94848489627475E-05,1.26182485473691E-05,3.33984375,0,0
-1.82141247933032E-05,5.45055308975861E-06,3.33984375,0,0
-2.14461833820678E-05,4.55526605946943E-06,3.33984375,0,0
-2.37267686316045E-05,7.28021996110328E-06,3.33984375,0,0
-2.31254452955909E-05,1.01752348200534E-05,3.33984375,0,0
-1.97095432667993E-05,1.09314687506412E-05,3.33984375,0,0
-1.59434930537827E-05,1.00220668173279E-05,3.33984375,0,0
-1.61365787789691E-05,8.7004691522452E-06,3.33984375,0,0
-1.59765022544889E-05,3.80434698854515E-06,3.33984375,0,0
-1.69451795954956E-05,1.34942683871486E-06,3.33984375,0,0
-1.52251504914602E-05,-3.72365263956453E-07,3.33984375,0,0
-1.45954181789421E-05,2.1341429601307E-06,3.33984375,0,0
-1.26639833979425E-05,4.23994561060681E-06,3.33984375,0,0
-1.37772922244039E-05,5.21481797477463E-06,3.33984375,0,0
-1.47319633470033E-05,-2.71769607707029E-07,3.33984375,0,0
-1.70614148373716E-05,-4.63588730781339E-06,3.33984375,0,0
-1.82406674866797E-05,-4.62485286334413E-06,3.33984375,0,0
-2.01637576537905E-05,2.42312739828776E-06,3.33984375,0,0
-2.03934232558822E-05,1.08200674731052E-05,3.33984375,0,0
-1.97290628420888E-05,1.59718492795946E-05,3.33984375,0,0
-1.82898966158973E-05,1.47078217196395E-05,3.33984375,0,0
-1.72155723703327E-05,1.00170645964681E-05,3.33984375,0,0
-1.40474130603252E-05,5.61214710614877E-06,3.33984375,0,0
-2.0302113625803E-05,5.53595282326569E-06,3.33984375,0,0
-1.65473520610249E-05,8.71095210186468E-07,3.33984375,0,0
-2.20461552089546E-05,3.25240102938551E-06,3.33984375,0,0
-2.10290618269937E-05,5.27814836459584E-06,3.33984375,0,0
-2.41119469137629E-05,9.83321478997823E-06,3.33984375,0,0
-2.32204347412335E-05,1.18007474156911E-05,3.33984375,0,0
-2.37920994550223E-05,1.19075557449833E-05,3.33984375,0,0
-2.41129255300621E-05,1.03535803646082E-05,3.33984375,0,0
-2.5924076908268E-05,9.14114752958994E-06,3.33984375,0,0
-2.76029531960376E-05,8.7701837401255E-06,3.33984375,0,0
-2.65977450908395E-05,8.97633344720816E-06,3.33984375,0,0
-2.54213609878207E-05,9.43312625167891E-06,3.33984375,0,0
-2.37943895626813E-05,9.88658393907826E-06,3.33984375,0,0
-2.54849874181673E-05,1.17146782940836E-05,3.33984375,0,0
-2.66773877228843E-05,1.17861727630952E-05,3.33984375,0,0
-2.8560734790517E-05,1.08826525320183E-05,3.33984375,0,0
-2.7255448003416E-05,9.98578616417944E-06,3.33984375,0,0
-2.61998302448774E-05,1.05537483250373E-05,3.33984375,0,0
-2.38990178331733E-05,9.99351868813392E-06,3.33984375,0,0
-2.31684152822709E-05,8.80594689078862E-06,3.33984375,0,0
-2.37856220337562E-05,5.67000279261265E-06,3.33984375,0,0
-2.63917063421104E-05,2.5178310352203E-06,3.33984375,0,0
-2.74027479463257E-05,6.9672898916906E-07,3.33984375,0,0
-2.6641100703273E-05,2.25832673095283E-06,3.33984375,0,0
-2.51068449870218E-05,6.92291359882802E-06,3.33984375,0,0
-2.56414368777769E-05,1.16116389108356E-05,3.33984375,0,0
-2.24564028030727E-05,1.12979032564908E-05,3.33984375,0,0
-3.20682083838619E-05,1.47468499562819E-05,3.33984375,0,0
-2.46476211032132E-05,9.06927471078234E-06,3.33984375,0,0
-3.08768430841155E-05,1.08778413050459E-05,3.33984375,0,0
-2.69274842139566E-05,1.00001598184463E-05,3.33984375,0,0
-3.08977614622563E-05,1.55230227392167E-05,3.33984375,0,0
-2.95818172162399E-05,1.44370478665223E-05,3.33984375,0,0
-3.04404875350883E-05,1.27221446746262E-05,3.33984375,0,0
-2.76213795586955E-05,1.11862200355972E-05,3.33984375,0,0
-2.62263565673493E-05,1.14732147267205E-05,3.33984375,0,0
-2.57325009442866E-05,1.33175090013538E-05,3.33984375,0,0
-2.52728823397774E-05,1.43850456879591E-05,3.33984375,0,0
-2.67628074652748E-05,1.47585560625885E-05,3.33984375,0,0
-2.59320931945695E-05,1.33364128487301E-05,3.33984375,0,0
-2.66831593762618E-05,1.4320103218779E-05,3.33984375,0,0
-2.42587557295337E-05,1.46631855386659E-05,3.33984375,0,0
-2.4639439288876E-05,1.4974651094235E-05,3.33984375,0,0
-2.35080806305632E-05,1.31845117721241E-05,3.33984375,0,0
-2.52219251706265E-05,1.21871635201387E-05,3.33984375,0,0
-2.51233468588907E-05,9.5249451987911E-06,3.33984375,0,0
-2.61512122960994E-05,7.79418223828543E-06,3.33984375,0,0
-2.52690351771889E-05,5.68549421586795E-06,3.33984375,0,0
-2.55473496508785E-05,5.5772779887775E-06,3.33984375,0,0
-2.35491752391681E-05,6.89419312038808E-06,3.33984375,0,0
-2.29380239034072E-05,9.37755066843238E-06,3.33984375,0,0
-2.44019538513385E-05,1.06100678749499E-05,3.33984375,0,0
-2.57350438914727E-05,1.17104300443316E-05,3.33984375,0,0
-2.07182602025568E-05,1.06303095890325E-05,3.33984375,0,0
-2.84688449028181E-05,1.45563853948261E-05,3.33984375,0,0
-2.06014046852943E-05,9.61413024924695E-06,3.33984375,0,0
-2.59548905887641E-05,1.0187925909122E-05,3.33984375,0,0
-2.22713351831771E-05,5.32064359504147E-06,3.33984375,0,0
-2.65893886535196E-05,4.92818935526884E-06,3.33984375,0,0
-2.57544779742602E-05,2.66513166025106E-06,3.33984375,0,0
-2.73356090474408E-05,3.15846727971802E-06,3.33984375,0,0
-2.57006413448835E-05,2.99772705147916E-06,3.33984375,0,0
-2.46925083047245E-05,2.27821669795958E-06,3.33984375,0,0
-2.45045412157197E-05,2.0896020487271E-06,3.33984375,0,0
-2.38506981986575E-05,2.91754304271308E-06,3.33984375,0,0
-2.40801491599996E-05,6.72564465276082E-06,3.33984375,0,0
-2.12482154893223E-05,9.76857882051263E-06,3.33984375,0,0
-2.18491659325082E-05,1.29113886941923E-05,3.33984375,0,0
-2.21782356675249E-05,1.30871076180483E-05,3.33984375,0,0
-2.46612326009199E-05,1.30304651975166E-05,3.33984375,0,0
-2.34036306210328E-05,1.28064029922825E-05,3.33984375,0,0
-2.32840448006755E-05,1.45984840855817E-05,3.33984375,0,0
-2.14144347410183E-05,1.42723092722008E-05,3.33984375,0,0
-2.15445597859798E-05,1.27519970192225E-05,3.33984375,0,0
-2.04477728402708E-05,1.01243149401853E-05,3.33984375,0,0
-2.19802514038747E-05,8.49534717417555E-06,3.33984375,0,0
-2.33777500397991E-05,8.08268214314012E-06,3.33984375,0,0
-2.44091806962388E-05,8.73998487804784E-06,3.33984375,0,0
-2.32834936468862E-05,8.1351518019801E-06,3.33984375,0,0
-2.15310083149234E-05,8.11347217677394E-06,3.33984375,0,0
-1.74478209373774E-05,6.2768440329819E-06,3.33984375,0,0
-2.59329099208117E-05,9.0211897258996E-06,3.33984375,0,0
-2.06161512323888E-05,8.1242224041489E-06,3.33984375,0,0
-2.48284050030634E-05,1.14989443318336E-05,3.33984375,0,0
-2.18663262785412E-05,1.10650944407098E-05,3.33984375,0,0
-2.49921558861388E-05,1.21487082651583E-05,3.33984375,0,0
-2.56919265666511E-05,1.0105673027283E-05,3.33984375,0,0
-2.8482772904681E-05,8.94609547685832E-06,3.33984375,0,0
-2.74121830443619E-05,1.20298955152975E-05,3.33984375,0,0
-2.63940783042926E-05,1.99398818949703E-05,3.33984375,0,0
-2.62889716395875E-05,2.64671834884211E-05,3.33984375,0,0
-2.64568388956832E-05,2.80807507806458E-05,3.33984375,0,0
-2.7595910069067E-05,2.69614574790467E-05,3.33984375,0,0
-2.58819327427773E-05,2.42622318182839E-05,3.33984375,0,0
-2.56218518188689E-05,2.2302634533844E-05,3.33984375,0,0
-2.39570472331252E-05,1.92644438357092E-05,3.33984375,0,0
-2.39305718423566E-05,1.71862848219462E-05,3.33984375,0,0
-2.26804422709392E-05,1.63208442245377E-05,3.33984375,0,0
-2.39594410231803E-05,1.79108574229758E-05,3.33984375,0,0
-2.40730114455801E-05,1.85397911991458E-05,3.33984375,0,0
-2.51223391387612E-05,1.85664230230032E-05,3.33984375,0,0
-2.47069110628217E-05,1.7175547327497E-05,3.33984375,0,0
-2.55614595516818E-05,1.33146622829372E-05,3.33984375,0,0
-2.58201180258766E-05,8.80566949490458E-06,3.33984375,0,0
-2.57042756857118E-05,8.74385568749858E-06,3.33984375,0,0
-2.44339044002118E-05,1.28320061776321E-05,3.33984375,0,0
-2.39255768974544E-05,1.84984146471834E-05,3.33984375,0,0
-2.00159593077842E-05,1.84899636224145E-05,3.33984375,0,0
-2.93649518425809E-05,2.59477055806201E-05,3.33984375,0,0
-2.18802779272664E-05,1.80719907802995E-05,3.33984375,0,0
-2.45136543526314E-05,2.13693147088634E-05,3.33984375,0,0
-1.98252218979178E-05,1.61580010171747E-05,3.33984375,0,0
-2.3267910364666E-05,1.85179069376318E-05,3.33984375,0,0
-2.26506144826999E-05,1.75395689439029E-05,3.33984375,0,0
-2.52409263339359E-05,1.77347865246702E-05,3.33984375,0,0
-2.45375904341927E-05,1.59861338033807E-05,3.33984375,0,0
-2.3686807253398E-05,1.48372355397441E-05,3.33984375,0,0
-2.38181874010479E-05,1.3182057045924E-05,3.33984375,0,0
-2.34902545344085E-05,1.13062560558319E-05,3.33984375,0,0
-2.31320118473377E-05,7.94642892287811E-06,3.33984375,0,0
-2.01853708858835E-05,1.16858586807211E-06,3.33984375,0,0
-2.07381854124833E-05,1.55821442149318E-06,3.33984375,0,0
-2.0555327864713E-05,6.21513936494011E-06,3.33984375,0,0
-2.21596219489584E-05,1.24787366075907E-05,3.33984375,0,0
-2.17858196265297E-05,1.12215820990968E-05,3.33984375,0,0
-2.47003572440008E-05,6.05566083322628E-06,3.33984375,0,0
-2.64041173068108E-05,-3.08538869830954E-06,3.33984375,0,0
-2.89214367512614E-05,-7.95879714132752E-06,3.33984375,0,0
-2.91811666102149E-05,-8.61948501551524E-06,3.33984375,0,0
-2.99167313642101E-05,-4.29583406003076E-06,3.33984375,0,0
-2.98566901619779E-05,1.61377624863235E-06,3.33984375,0,0
-2.97851729555987E-05,8.42390545585658E-06,3.33984375,0,0
-2.9123768399586E-05,1.25937867778703E-05,3.33984375,0,0
-2.98219292744761E-05,1.31511606014101E-05,3.33984375,0,0
-2.55902687058551E-05,8.19927208794979E-06,3.33984375,0,0
-3.69113586202729E-05,1.03986531030387E-05,3.33984375,0,0
-2.70958316832548E-05,7.15813257556874E-06,3.33984375,0,0
-3.07327427435666E-05,8.549081030651E-06,3.33984375,0,0
-2.33472565014381E-05,4.56215502708801E-06,3.33984375,0,0
-2.53473299380858E-05,5.57530074729584E-06,3.33984375,0,0
-2.24595787585713E-05,6.52430207992438E-06,3.33984375,0,0
-2.63418532995274E-05,1.01633422673331E-05,3.33984375,0,0
-2.76346981991082E-05,1.21717785077635E-05,3.33984375,0,0
-2.68784679064993E-05,1.11451663542539E-05,3.33984375,0,0
-2.55920585914282E-05,8.3852346506319E-06,3.33984375,0,0
-2.45276132773142E-05,6.21015942670056E-06,3.33984375,0,0
-2.6847215849557E-05,6.16220586380223E-06,3.33984375,0,0
-2.6702051400207E-05,5.94618404647917E-06,3.33984375,0,0
-2.69968986685853E-05,7.67783603805583E-06,3.33984375,0,0
-2.29550350923091E-05,9.78156549535925E-06,3.33984375,0,0
-2.17087872442789E-05,1.21079665404977E-05,3.33984375,0,0
-1.88647481991211E-05,1.11260151243187E-05,3.33984375,0,0
-1.94846525118919E-05,9.15050986804999E-06,3.33984375,0,0
-1.81957711902214E-05,5.91411480854731E-06,3.33984375,0,0
-1.87476707651513E-05,6.1163291320554E-06,3.33984375,0,0
-1.81720188265899E-05,9.18430305318907E-06,3.33984375,0,0
-1.99215955944965E-05,1.34503852677881E-05,3.33984375,0,0
-2.03618274099426E-05,1.55938068928663E-05,3.33984375,0,0
-2.0024072000524E-05,1.4255907444749E-05,3.33984375,0,0
-1.83250722329831E-05,1.05525832623243E-05,3.33984375,0,0
-1.86596989806276E-05,7.73590454627993E-06,3.33984375,0,0
-1.70499570231186E-05,5.32369040229241E-06,3.33984375,0,0
-2.37616768572479E-05,7.2700950113358E-06,3.33984375,0,0
-1.65054516401142E-05,4.3716768232116E-06,3.33984375,0,0
-2.01470757019706E-05,3.51588869307307E-06,3.33984375,0,0
-1.80081242433516E-05,-6.0238232890697E-07,3.33984375,0,0
-1.9998933566967E-05,-2.11057317756058E-06,3.33984375,0,0
-1.57213216880336E-05,-1.57689180468878E-06,3.33984375,0,0
-1.40922111313557E-05,3.8393486647692E-06,3.33984375,0,0
-1.15818174890592E-05,1.04864311651909E-05,3.33984375,0,0
-1.11759918581811E-05,1.48323142639128E-05,3.33984375,0,0
-1.27758994494798E-05,1.58343991643051E-05,3.33984375,0,0
-1.42735489134793E-05,1.51823251144378E-05,3.33984375,0,0
-1.69251488841837E-05,1.42204771691468E-05,3.33984375,0,0
-1.81664090632694E-05,1.2180331395939E-05,3.33984375,0,0
-2.04837924684398E-05,9.82674009719631E-06,3.33984375,0,0
-1.91429662663722E-05,4.73117052024463E-06,3.33984375,0,0
-1.92370735021541E-05,-1.18760738132551E-06,3.33984375,0,0
-1.88982303370722E-05,-4.7021721911733E-06,3.33984375,0,0
-2.05135456781136E-05,-2.54607897431924E-07,3.33984375,0,0
-1.95440825336846E-05,8.6679965534131E-06,3.33984375,0,0
-2.05251944862539E-05,1.524030813016E-05,3.33984375,0,0
-2.21380996663356E-05,1.56302630784921E-05,3.33984375,0,0
-2.43670929194195E-05,1.39391459015314E-05,3.33984375,0,0
-2.37380427279277E-05,1.40117108458071E-05,3.33984375,0,0
-2.19089433812769E-05,1.66195186466211E-05,3.33984375,0,0
-1.99305122805526E-05,1.70492749020923E-05,3.33984375,0,0
-1.9816288840957E-05,1.41869222716196E-05,3.33984375,0,0
-1.8395538063487E-05,9.10411199583905E-06,3.33984375,0,0
-2.8474731152528E-05,1.19323940452887E-05,3.33984375,0,0
-2.3237633286044E-05,8.46192961034831E-06,3.33984375,0,0
-2.69096835836535E-05,1.14310068966006E-05,3.33984375,0,0
-2.50462835538201E-05,9.09365280676866E-06,3.33984375,0,0
-2.89606068690773E-05,1.03000784292817E-05,3.33984375,0,0
-2.51881174335722E-05,7.64250580687076E-06,3.33984375,0,0
-2.4202674467233E-05,6.08206846663961E-06,3.33984375,0,0
-2.59858625213383E-05,5.87873728363775E-06,3.33984375,0,0
-2.83465724351117E-05,6.9561224336212E-06,3.33984375,0,0
-2.92488875857089E-05,6.95770131642348E-06,3.33984375,0,0
-2.89686795440502E-05,7.18129467713879E-06,3.33984375,0,0
-2.95493227895349E-05,9.2273085101624E-06,3.33984375,0,0
-2.88423925667303E-05,1.02028670880827E-05,3.33984375,0,0
-3.13254095090088E-05,1.30220187202212E-05,3.33984375,0,0
-3.21754887409043E-05,1.55358738993527E-05,3.33984375,0,0
-3.41434570145793E-05,1.74336273630615E-05,3.33984375,0,0
-3.38799800374545E-05,1.72851196111878E-05,3.33984375,0,0
-3.42013991030399E-05,1.93460418813629E-05,3.33984375,0,0
-3.27963171002921E-05,2.02636856556637E-05,3.33984375,0,0
-3.35749609803315E-05,2.04120096896077E-05,3.33984375,0,0
-3.42191560775973E-05,1.91480739886174E-05,3.33984375,0,0
-3.49909714714158E-05,1.86022152774967E-05,3.33984375,0,0
-3.30548937199637E-05,1.7744558135746E-05,3.33984375,0,0
-2.98162321996642E-05,1.70513521879911E-05,3.33984375,0,0
-2.66779843514087E-05,1.59399132826366E-05,3.33984375,0,0
-2.59071039181435E-05,1.54816971189575E-05,3.33984375,0,0
-2.27378550334834E-05,1.34706706376164E-05,3.33984375,0,0
-3.27083580486942E-05,1.78485315700527E-05,3.33984375,0,0
-2.43222530116327E-05,1.09177472040756E-05,3.33984375,0,0
-2.96600373985711E-05,1.40374704642454E-05,3.33984375,0,0
-2.6421756047057E-05,1.12831721708062E-05,3.33984375,0,0
-3.03557117149467E-05,1.18579509944539E-05,3.33984375,0,0
-2.69526317424607E-05,9.12316045287298E-06,3.33984375,0,0
-2.63581896433607E-05,9.68488711805549E-06,3.33984375,0,0
-2.40028475673171E-05,8.55790131026879E-06,3.33984375,0,0
-2.23656606976874E-05,5.16312502440996E-06,3.33984375,0,0
-2.05204760277411E-05,1.55527015976986E-06,3.33984375,0,0
-1.8182030544267E-05,-1.25157453112479E-06,3.33984375,0,0
-1.92145216715289E-05,-1.16120486381988E-06,3.33984375,0,0
-1.8826005543815E-05,-4.28752798597998E-07,3.33984375,0,0
-2.0215487893438E-05,2.43077761297172E-06,3.33984375,0,0
-1.84683267434593E-05,3.00576652989548E-06,3.33984375,0,0
-1.96151413547341E-05,3.63731669494882E-06,3.33984375,0,0
-1.92477418750059E-05,3.54268536284508E-06,3.33984375,0,0
-2.05067426577443E-05,5.649225840898E-06,3.33984375,0,0
-1.95533357327804E-05,5.50081267647329E-06,3.33984375,0,0
-2.0016679627588E-05,4.90510410600109E-06,3.33984375,0,0
-1.74857032106956E-05,3.54967687599128E-06,3.33984375,0,0
-1.68107053468702E-05,4.2884930735454E-06,3.33984375,0,0
-1.75576315086801E-05,4.01835768570891E-06,3.33984375,0,0
-1.93017640413018E-05,4.60298997495556E-06,3.33984375,0,0
-1.98115212697303E-05,7.12911969458219E-06,3.33984375,0,0
-1.97552981262561E-05,9.50079538597493E-06,3.33984375,0,0
-1.56790574692423E-05,8.17904583527707E-06,3.33984375,0,0
-2.15750296774786E-05,1.19961378004518E-05,3.33984375,0,0
-1.55215784616303E-05,1.13284468170605E-05,3.33984375,0,0
-2.04392872547032E-05,1.58653801918263E-05,3.33984375,0,0
-1.82277926796814E-05,1.49676052387804E-05,3.33984375,0,0
-2.09906447707908E-05,1.76214289240306E-05,3.33984375,0,0
-2.09515892493073E-05,1.95504544535652E-05,3.33984375,0,0
-2.38833672483452E-05,2.19952526094858E-05,3.33984375,0,0
-2.56449329754105E-05,2.2476548110717E-05,3.33984375,0,0
-2.66860206465935E-05,2.12602317333221E-05,3.33984375,0,0
-2.62354824371869E-05,1.85186127055204E-05,3.33984375,0,0
-2.59528223978123E-05,1.60570689331507E-05,3.33984375,0,0
-2.83122990367701E-05,1.44106179504888E-05,3.33984375,0,0
-2.86237973341485E-05,1.07748273876496E-05,3.33984375,0,0
-2.96670659736265E-05,8.63529658090556E-06,3.33984375,0,0
-2.93414486804977E-05,8.71254724188475E-06,3.33984375,0,0
-3.07794398395345E-05,1.16160654215491E-05,3.33984375,0,0
-3.06217407342047E-05,1.34840283863014E-05,3.33984375,0,0
-3.24750762956683E-05,1.51758740685182E-05,3.33984375,0,0
-3.31371848005801E-05,1.50372925418196E-05,3.33984375,0,0
-3.42204002663493E-05,1.50296746141976E-05,3.33984375,0,0
-3.40145379595924E-05,1.38970544867334E-05,3.33984375,0,0
-3.52022289007436E-05,1.13912446977338E-05,3.33984375,0,0
-3.5235545510659E-05,9.12890845938819E-06,3.33984375,0,0
-3.46086162608117E-05,9.41825237532612E-06,3.33984375,0,0
-3.32497584167868E-05,1.05665185401449E-05,3.33984375,0,0
-3.18460006383248E-05,1.38337409225642E-05,3.33984375,0,0
-2.54469523497391E-05,1.37491761051933E-05,3.33984375,0,0
-3.65941705240402E-05,1.36231583383051E-05,3.33984375,0,0
-2.71288718067808E-05,-2.66812253357784E-06,3.33984375,0,0
-3.07305708702188E-05,-5.00543455927982E-06,3.33984375,0,0
-2.27341060963226E-05,-4.42212103735073E-06,3.33984375,0,0
-2.67057603196008E-05,7.32987200535717E-06,3.33984375,0,0
-2.50523462455021E-05,1.41071159305284E-05,3.33984375,0,0
-2.49593249463942E-05,1.64764660439687E-05,3.33984375,0,0
-2.15815107367234E-05,1.45201292980346E-05,3.33984375,0,0
-1.90276259672828E-05,1.20317999972031E-05,3.33984375,0,0
-1.77908332261723E-05,8.15540624898858E-06,3.33984375,0,0
-1.75584536918905E-05,5.95614619669504E-06,3.33984375,0,0
-1.94051081052748E-05,8.93940978130559E-06,3.33984375,0,0
-1.73402368091047E-05,1.12236511995434E-05,3.33984375,0,0
-1.75566601683386E-05,1.39476142066997E-05,3.33984375,0,0
-1.6013622371247E-05,1.33596167870564E-05,3.33984375,0,0
-1.77486454049358E-05,1.27072698887787E-05,3.33984375,0,0
-1.62292963068467E-05,9.78879324975424E-06,3.33984375,0,0
-1.70272851391928E-05,8.3550203271443E-06,3.33984375,0,0
-1.72504060174106E-05,6.95617291057715E-06,3.33984375,0,0
-2.00820377358468E-05,8.34536149341147E-06,3.33984375,0,0
-2.00927424884867E-05,8.68938059284119E-06,3.33984375,0,0
-2.10909893212374E-05,7.96808035374852E-06,3.33984375,0,0
-2.11663464142475E-05,6.98892790751415E-06,3.33984375,0,0
-2.06438744498882E-05,9.06929017219227E-06,3.33984375,0,0
-1.94404074136401E-05,9.80170807451941E-06,3.33984375,0,0
-1.91412636922905E-05,8.75336354511091E-06,3.33984375,0,0
-1.65150813700166E-05,7.51813604438212E-06,3.33984375,0,0
-2.44251932599582E-05,1.16655901365448E-05,3.33984375,0,0
-2.0300954929553E-05,1.05535209513619E-05,3.33984375,0,0
-2.6027686544694E-05,1.07660980575019E-05,3.33984375,0,0
-2.37276235566242E-05,6.11637779002194E-06,3.33984375,0,0
-2.54134029091801E-05,7.49748369344161E-06,3.33984375,0,0
-2.41679808823392E-05,7.55648579797708E-06,3.33984375,0,0
-2.5383553293068E-05,6.70923463985673E-06,3.33984375,0,0
-2.4097906134557E-05,6.41315727989422E-06,3.33984375,0,0
-2.27381224249257E-05,6.12452777204453E-06,3.33984375,0,0
-2.24212326429551E-05,4.58131489722291E-06,3.33984375,0,0
-2.24484174395911E-05,2.83501526610053E-06,3.33984375,0,0
-2.2768865164835E-05,3.35595814249245E-06,3.33984375,0,0
-2.00853046408156E-05,2.89757599603035E-06,3.33984375,0,0
-1.98513080249541E-05,2.39995915762847E-06,3.33984375,0,0
-2.00697668333305E-05,1.07374887647893E-06,3.33984375,0,0
-2.29122324526543E-05,1.60506397151039E-06,3.33984375,0,0
-2.38513221120229E-05,4.38771076005651E-06,3.33984375,0,0
-2.49411987169879E-05,8.86606721905991E-06,3.33984375,0,0
-2.30708610615693E-05,1.05468980109436E-05,3.33984375,0,0
-2.27017353608971E-05,1.07140467662248E-05,3.33984375,0,0
-2.2264888684731E-05,1.08616550278384E-05,3.33984375,0,0
-2.33087612286909E-05,1.27680350487935E-05,3.33984375,0,0
-2.4395023501711E-05,1.40127058330108E-05,3.33984375,0,0
-2.43693339143647E-05,1.44385048770346E-05,3.33984375,0,0
-2.24426585191395E-05,1.41276996146189E-05,3.33984375,0,0
-2.15959807974286E-05,1.37614388222573E-05,3.33984375,0,0
-1.82497551577399E-05,1.10097844299162E-05,3.33984375,0,0
-2.73717214440694E-05,1.64840566867497E-05,3.33984375,0,0
-2.18686327571049E-05,1.30700855152099E-05,3.33984375,0,0
-2.58784930338152E-05,1.46982247315464E-05,3.33984375,0,0
-2.17791603063233E-05,1.12182397060678E-05,3.33984375,0,0
-2.22863945964491E-05,1.33471621666104E-05,3.33984375,0,0
-1.93226442206651E-05,1.37220949909533E-05,3.33984375,0,0
-2.14509364013793E-05,1.46776046676678E-05,3.33984375,0,0
-2.32885668083327E-05,1.42224325827556E-05,3.33984375,0,0
-2.65519174718065E-05,1.51822559928405E-05,3.33984375,0,0
-2.92264539893949E-05,1.51391986946692E-05,3.33984375,0,0
-2.95680711133173E-05,1.17600329758716E-05,3.33984375,0,0
-3.01183736155508E-05,8.26638279249892E-06,3.33984375,0,0
-2.90247407974675E-05,6.45050704406458E-06,3.33984375,0,0
-2.95183581329184E-05,8.89365310285939E-06,3.33984375,0,0
-2.75919683190295E-05,1.09611919469899E-05,3.33984375,0,0
-2.71855678874999E-05,1.37293091029278E-05,3.33984375,0,0
-2.50419961957959E-05,1.51061422002385E-05,3.33984375,0,0
-2.51572455454152E-05,1.62316500791349E-05,3.33984375,0,0
-2.38903230638243E-05,1.53734945342876E-05,3.33984375,0,0
-2.36447212955682E-05,1.45737058119266E-05,3.33984375,0,0
-2.27161744987825E-05,1.26154045574367E-05,3.33984375,0,0
-2.31597150559537E-05,1.1722288945748E-05,3.33984375,0,0
-2.25886160478694E-05,9.97378174361074E-06,3.33984375,0,0
-2.31022459047381E-05,8.15102157503134E-06,3.33984375,0,0
-2.393489194219E-05,9.02567262528464E-06,3.33984375,0,0
-2.49121785600437E-05,1.27950388559839E-05,3.33984375,0,0
-2.1107412976562E-05,1.13070354927913E-05,3.33984375,0,0
-3.02523130812915E-05,1.18442458187928E-05,3.33984375,0,0
-2.35019160754746E-05,-5.54841292910169E-08,3.33984375,0,0
-2.92468557745451E-05,-3.54895587406645E-06,3.33984375,0,0
-2.63383280980634E-05,-7.77982313593384E-06,3.33984375,0,0
-3.21613915730268E-05,-1.49262234572234E-06,3.33984375,0,0
-3.1759227567818E-05,1.80672759597655E-06,3.33984375,0,0
-3.14257413265295E-05,4.01484476242331E-06,3.33984375,0,0
-2.72453798970673E-05,6.51216441838187E-06,3.33984375,0,0
-2.5897788873408E-05,9.84988855634583E-06,3.33984375,0,0
-2.59705648204545E-05,1.16718365461566E-05,3.33984375,0,0
-2.37655549426563E-05,1.25895812743693E-05,3.33984375,0,0
-2.22821690840647E-05,1.41379496199079E-05,3.33984375,0,0
-1.88991816685302E-05,1.2683996828855E-05,3.33984375,0,0
-1.85749722731998E-05,1.19164969873964E-05,3.33984375,0,0
-1.64480552484747E-05,1.1324755178066E-05,3.33984375,0,0
-1.66634199558757E-05,1.28751325974008E-05,3.33984375,0,0
-1.51350322994404E-05,1.2831777894462E-05,3.33984375,0,0
-1.63325112225721E-05,1.359226553177E-05,3.33984375,0,0
-1.57238246174529E-05,1.23377258205437E-05,3.33984375,0,0
-1.64511529874289E-05,1.16584651550511E-05,3.33984375,0,0
-1.5094652553671E-05,1.08911672214163E-05,3.33984375,0,0
-1.48399676618283E-05,1.15655020636041E-05,3.33984375,0,0
-1.44767409437918E-05,1.21823068184312E-05,3.33984375,0,0
-1.49474935824401E-05,1.25240658235271E-05,3.33984375,0,0
-1.44871873999364E-05,1.1741831258405E-05,3.33984375,0,0
-1.40490719786612E-05,1.15776720122085E-05,3.33984375,0,0
-1.02394342320622E-05,1.04910195659613E-05,3.33984375,0,0
-1.36980688694166E-05,1.38391997097642E-05,3.33984375,0,0
-1.05735789475148E-05,6.67683252686402E-06,3.33984375,0,0
-1.42767758006812E-05,6.50994115858339E-06,3.33984375,0,0
-1.20268032333115E-05,5.92244077779469E-06,3.33984375,0,0
-1.34663041535532E-05,1.08599506347673E-05,3.33984375,0,0
-1.33831363200443E-05,1.18271900646505E-05,3.33984375,0,0
-1.54081535583828E-05,1.31091965158703E-05,3.33984375,0,0
-1.55185152834747E-05,1.43019251481746E-05,3.33984375,0,0
-1.62296400958439E-05,1.54968329297844E-05,3.33984375,0,0
-1.710563992674E-05,1.5174255167949E-05,3.33984375,0,0
-1.76536104845582E-05,1.4175405340211E-05,3.33984375,0,0
-1.97979079530342E-05,1.40996371555957E-05,3.33984375,0,0
-2.16455409827176E-05,1.31927663460374E-05,3.33984375,0,0
-2.3849434001022E-05,1.42657818287262E-05,3.33984375,0,0
-2.27049076784169E-05,1.55656125571113E-05,3.33984375,0,0
-2.21193495235639E-05,1.79124708665768E-05,3.33984375,0,0
-2.19424819078995E-05,1.87876939889975E-05,3.33984375,0,0
-2.42815767705906E-05,2.08364108402748E-05,3.33984375,0,0
-2.49946351686958E-05,2.10915077332174E-05,3.33984375,0,0
-2.49107852141606E-05,2.14643969229655E-05,3.33984375,0,0
-2.27749205805594E-05,2.20059664570726E-05,3.33984375,0,0
-2.05160995392362E-05,2.37719068536535E-05,3.33984375,0,0
-1.84098098543473E-05,2.27484488277696E-05,3.33984375,0,0
-1.81329342012759E-05,1.9451450498309E-05,3.33984375,0,0
-1.78067621163791E-05,1.72745112649864E-05,3.33984375,0,0
-1.73068146978039E-05,1.63861659530085E-05,3.33984375,0,0
-1.49819106809446E-05,7.60281727707479E-06,3.33984375,0,0
-2.20686706597917E-05,2.70740292762639E-06,3.33984375,0,0
-1.71239098563092E-05,-4.35878610005602E-06,3.33984375,0,0
-2.13146013265941E-05,6.8105341597402E-06,3.33984375,0,0
-1.97148074221332E-05,1.33525973069482E-05,3.33984375,0,0
-2.26829542953055E-05,1.77621514012571E-05,3.33984375,0,0
-2.44404745899374E-05,1.23336922115413E-05,3.33984375,0,0
-2.96250891551608E-05,8.09987614047714E-06,3.33984375,0,0
-3.10467366944067E-05,6.59617990095285E-06,3.33984375,0,0
-3.09604329231661E-05,8.57141094456892E-06,3.33984375,0,0
-3.13936943712179E-05,9.45758529269369E-06,3.33984375,0,0
-3.31104711221997E-05,8.33226204122184E-06,3.33984375,0,0
-3.61118909495417E-05,8.11809877632186E-06,3.33984375,0,0
-3.55712618329562E-05,7.65113782108529E-06,3.33984375,0,0
-3.483942055027E-05,9.4196802820079E-06,3.33984375,0,0
-3.35763397742994E-05,1.06874394987244E-05,3.33984375,0,0
-3.54962685378268E-05,1.42753324325895E-05,3.33984375,0,0
-3.50636655639391E-05,1.60781273734756E-05,3.33984375,0,0
-3.47712812072132E-05,1.80369261215674E-05,3.33984375,0,0
-3.36694502038881E-05,1.79989583557472E-05,3.33984375,0,0
-3.42567327606957E-05,1.78638238139683E-05,3.33984375,0,0
-3.37457786372397E-05,1.55180205183569E-05,3.33984375,0,0
-3.40003061864991E-05,1.41687096402165E-05,3.33984375,0,0
-3.37181481881998E-05,1.35111667987076E-05,3.33984375,0,0
-3.40694132319186E-05,1.32491250042222E-05,3.33984375,0,0
-3.4156513720518E-05,1.23617710414692E-05,3.33984375,0,0
-3.27909947372973E-05,1.02103604149306E-05,3.33984375,0,0
-2.40737026615534E-05,5.87030808674172E-06,3.33984375,0,0
-3.32259187416639E-05,8.04361570772016E-06,3.33984375,0,0
-2.42991736740805E-05,5.46704995940672E-06,3.33984375,0,0
-3.02157332043862E-05,5.61391925657517E-06,3.33984375,0,0
-2.42658752540592E-05,2.49014465225628E-06,3.33984375,0,0
-2.69229349214584E-05,2.2280339635472E-06,3.33984375,0,0
-2.21872742258711E-05,7.00838882039534E-07,3.33984375,0,0
-2.16906701098196E-05,-1.68097460573335E-06,3.33984375,0,0
-1.96264500118559E-05,-3.68398718819662E-06,3.33984375,0,0
-2.03218060050858E-05,-2.24800260184566E-06,3.33984375,0,0
-2.23432343773311E-05,2.01520401788002E-06,3.33984375,0,0
-2.33632708841469E-05,7.31748968973989E-06,3.33984375,0,0
-2.60208526015049E-05,9.47825265029678E-06,3.33984375,0,0
-2.65421494987095E-05,8.45210070110625E-06,3.33984375,0,0
-2.96316047752043E-05,1.01254445326049E-05,3.33984375,0,0
-2.95237605314469E-05,1.25860660773469E-05,3.33984375,0,0
-3.16516416205559E-05,1.34620568132959E-05,3.33984375,0,0
-3.07375485135708E-05,1.19452188300784E-05,3.33984375,0,0
-3.19957034662366E-05,1.15077791633666E-05,3.33984375,0,0
-3.06328256556299E-05,1.27612047435832E-05,3.33984375,0,0
-3.27539200952742E-05,1.61366242537042E-05,3.33984375,0,0
-3.38923782692291E-05,1.82442818186246E-05,3.33984375,0,0
-3.47341847373173E-05,1.92496827366995E-05,3.33984375,0,0
-3.34139549522661E-05,1.83135034603765E-05,3.33984375,0,0
-3.211316652596E-05,1.67480102390982E-05,3.33984375,0,0
-3.11431576847099E-05,1.45844205690082E-05,3.33984375,0,0
-3.33093121298589E-05,1.3257118553156E-05,3.33984375,0,0
-2.81795109913219E-05,1.07478836071095E-05,3.33984375,0,0
-3.9271340938285E-05,1.5031948350952E-05,3.33984375,0,0
-2.86233680526493E-05,1.20225522550754E-05,3.33984375,0,0
-3.47582827089354E-05,1.5583844287903E-05,3.33984375,0,0
-2.75176116701914E-05,1.11525032480131E-05,3.33984375,0,0
-3.09863899019547E-05,1.0670234587451E-05,3.33984375,0,0
-2.6796231395565E-05,9.89023101283237E-06,3.33984375,0,0
-2.60781944234623E-05,1.30624503071886E-05,3.33984375,0,0
-2.26543779717758E-05,1.68939386639977E-05,3.33984375,0,0
-2.1400703190011E-05,1.91028630069923E-05,3.33984375,0,0
-2.10666203201981E-05,1.98478828679072E-05,3.33984375,0,0
-1.96708479052177E-05,1.99586320377421E-05,3.33984375,0,0
-2.15065829252126E-05,1.87974201253382E-05,3.33984375,0,0
-2.12486356758745E-05,1.41286000143737E-05,3.33984375,0,0
-2.33423434110591E-05,1.07993155324948E-05,3.33984375,0,0
-2.16254702536389E-05,8.4091370808892E-06,3.33984375,0,0
-2.266583214805E-05,9.87625026027672E-06,3.33984375,0,0
-2.10358048207127E-05,1.22603696581791E-05,3.33984375,0,0
-2.23894512600964E-05,1.51607464431436E-05,3.33984375,0,0
-2.02945375349373E-05,1.54028675751761E-05,3.33984375,0,0
-1.99738733499544E-05,1.57129379658727E-05,3.33984375,0,0
-1.83474567165831E-05,1.52896191139007E-05,3.33984375,0,0
-1.94689419004135E-05,1.59237806656165E-05,3.33984375,0,0
-2.05372198252007E-05,1.55651487148134E-05,3.33984375,0,0
-2.16463467950234E-05,1.37705874294625E-05,3.33984375,0,0
-2.0142051653238E-05,1.13786509245983E-05,3.33984375,0,0
-1.94780877791345E-05,1.00739853223786E-05,3.33984375,0,0
-1.67895541380858E-05,7.08477000443963E-06,3.33984375,0,0
-2.37582116824342E-05,8.6117706814548E-06,3.33984375,0,0
-1.66663830896141E-05,5.57375688003958E-06,3.33984375,0,0
-1.97891440620879E-05,8.13798669696553E-06,3.33984375,0,0
-1.69082086358685E-05,6.9623019953724E-06,3.33984375,0,0
-1.92272327694809E-05,1.09164420791785E-05,3.33984375,0,0
-1.83337215275969E-05,1.38538871397031E-05,3.33984375,0,0
-1.94994772755308E-05,1.69444938364904E-05,3.33984375,0,0
-1.79219932761043E-05,1.85132230399176E-05,3.33984375,0,0
-1.67266043717973E-05,1.78388545464259E-05,3.33984375,0,0
-1.65503934113076E-05,1.49825964399497E-05,3.33984375,0,0
-1.60804338520393E-05,1.31748138301191E-05,3.33984375,0,0
-1.62641754286597E-05,1.44630266731838E-05,3.33984375,0,0
-1.46061975101475E-05,1.51983285832102E-05,3.33984375,0,0
-1.48149392771302E-05,1.58327638928313E-05,3.33984375,0,0
-1.4067623851588E-05,1.50229498103727E-05,3.33984375,0,0
-1.53411474457243E-05,1.3963874152978E-05,3.33984375,0,0
-1.42561784741702E-05,1.12120951598627E-05,3.33984375,0,0
-1.45206377055729E-05,1.0033478247351E-05,3.33984375,0,0
-1.46446436701808E-05,8.99551923794206E-06,3.33984375,0,0
-1.68037477124017E-05,7.96263975644251E-06,3.33984375,0,0
-1.71243646036601E-05,6.44663441562443E-06,3.33984375,0,0
-1.79601138370344E-05,5.48968182556564E-06,3.33984375,0,0
-1.89551883522654E-05,5.24748838870437E-06,3.33984375,0,0
-2.1067800844321E-05,7.51978541302378E-06,3.33984375,0,0
-2.29679317271803E-05,1.01825571618974E-05,3.33984375,0,0
-2.53648668149253E-05,1.19044652819866E-05,3.33984375,0,0
-2.19140019908082E-05,1.0904424925684E-05,3.33984375,0,0
-2.87924522126559E-05,1.62564065249171E-05,3.33984375,0,0
-1.82838120963424E-05,1.08075391835882E-05,3.33984375,0,0
-2.33563605434028E-05,9.08459787751781E-06,3.33984375,0,0
-1.89273050636984E-05,5.16252475790679E-06,3.33984375,0,0
-2.29510842473246E-05,8.09440825833008E-06,3.33984375,0,0
-2.1500625734916E-05,7.99130611994769E-06,3.33984375,0,0
-2.25755356950685E-05,7.00181135471212E-06,3.33984375,0,0
-2.03410345420707E-05,4.1955677261285E-06,3.33984375,0,0
-1.93250016309321E-05,1.68456540450279E-06,3.33984375,0,0
-2.0712468540296E-05,6.22910420133849E-07,3.33984375,0,0
-2.17642991628964E-05,4.51020440550565E-07,3.33984375,0,0
-2.27106065722182E-05,1.88065848760743E-06,3.33984375,0,0
-2.10728521778947E-05,2.62502203440818E-06,3.33984375,0,0
-2.30580426432425E-05,5.0311009545112E-06,3.33984375,0,0
-2.32977945415769E-05,6.02821910433704E-06,3.33984375,0,0
-2.48442629526835E-05,6.37085713606211E-06,3.33984375,0,0
-2.29778397624614E-05,5.17628086527111E-06,3.33984375,0,0
-2.40508325077826E-05,5.97420057601994E-06,3.33984375,0,0
-2.43094782490516E-05,6.01712144998601E-06,3.33984375,0,0
-2.65713115368271E-05,6.53861525279353E-06,3.33984375,0,0
-2.68585808953503E-05,7.95890446170233E-06,3.33984375,0,0
-2.87650145764928E-05,1.08274216472637E-05,3.33984375,0,0
-3.04672012134688E-05,1.26077075037756E-05,3.33984375,0,0
-3.11332260025665E-05,1.19678716146154E-05,3.33984375,0,0
-2.87816528725671E-05,9.47995886235731E-06,3.33984375,0,0
-2.73914411081932E-05,7.96865242591593E-06,3.33984375,0,0
-2.11179776670178E-05,5.04994568473194E-06,3.33984375,0,0
-2.91915421257727E-05,5.30732222614461E-06,3.33984375,0,0
-2.24881277972599E-05,2.03641002372024E-06,3.33984375,0,0
-2.98907816613792E-05,3.55384850081464E-06,3.33984375,0,0
-2.7058771593147E-05,1.51769665990287E-06,3.33984375,0,0
-3.10301438730676E-05,2.48667788582679E-06,3.33984375,0,0
-2.8153088351246E-05,2.65431822299433E-06,3.33984375,0,0
-2.84392281173496E-05,1.67179712207144E-06,3.33984375,0,0
-2.70282562269131E-05,-2.87001995502578E-08,3.33984375,0,0
-2.72214092547074E-05,-1.81523262199335E-07,3.33984375,0,0
-2.85923015326262E-05,9.66066295404744E-07,3.33984375,0,0
-2.9292241379153E-05,2.13854787034506E-06,3.33984375,0,0
-3.10488176182844E-05,3.24050733979675E-06,3.33984375,0,0
-3.01391082757618E-05,2.39995438278129E-06,3.33984375,0,0
-3.14540484396275E-05,1.45532669648674E-06,3.33984375,0,0
-3.01934705930762E-05,7.12966141236393E-07,3.33984375,0,0
-3.06093643303029E-05,1.28996714465757E-06,3.33984375,0,0
-2.87402745016152E-05,1.37118411203119E-06,3.33984375,0,0
-2.96506841550581E-05,3.03640945276129E-06,3.33984375,0,0
-2.82664714177372E-05,5.10760492034024E-06,3.33984375,0,0
-2.88046849163948E-05,5.77965010961634E-06,3.33984375,0,0
-2.82166747638257E-05,4.36150867244578E-06,3.33984375,0,0
-2.70703185378807E-05,2.85339410766028E-06,3.33984375,0,0
-2.41693123825826E-05,1.68474912243255E-06,3.33984375,0,0
-2.31777394219534E-05,2.86057706944121E-06,3.33984375,0,0
-2.32419533858774E-05,5.10339805259719E-06,3.8671875,0,0
-2.39491218962939E-05,6.31412876828108E-06,3.8671875,0,0
-2.07187367777806E-05,6.81706478644628E-06,3.8671875,0,0
-3.21516999974847E-05,1.13746518763946E-05,3.8671875,0,0
-2.82216715277173E-05,1.17651634354843E-05,3.8671875,0,0
-3.42762687068898E-05,1.47946439028601E-05,3.8671875,0,0
-3.07355876429938E-05,1.3525876966014E-05,3.8671875,0,0
-3.27654270222411E-05,1.51447839016328E-05,3.8671875,0,0
-3.00528899970232E-05,1.58268831000896E-05,3.8671875,0,0
-3.08654925902374E-05,1.6367768694181E-05,3.8671875,0,0
-2.89551080641104E-05,1.74243014043896E-05,3.8671875,0,0
-2.65103644778719E-05,1.96227247215575E-05,3.8671875,0,0
-2.37085314438445E-05,2.10937469091732E-05,3.8671875,0,0
-2.03022336791037E-05,2.07936227525352E-05,3.8671875,0,0
-1.87548121175496E-05,1.9774724933086E-05,3.8671875,0,0
-1.62675296451198E-05,1.77727652044268E-05,3.8671875,0,0
-1.7211927115568E-05,1.64713910635328E-05,3.8671875,0,0
-1.71515748661477E-05,1.5324454579968E-05,3.8671875,0,0
-1.91266281035496E-05,1.6111489458126E-05,3.8671875,0,0
-1.86277811735636E-05,1.59547344082966E-05,3.8671875,0,0
-2.01568218471948E-05,1.52909724420169E-05,3.8671875,0,0
-2.04845837288303E-05,1.47267637657933E-05,3.8671875,0,0
-2.29579545703018E-05,1.59756455104798E-05,3.8671875,0,0
-2.39092551055364E-05,1.71147075889166E-05,3.8671875,0,0
-2.38703978538979E-05,1.71712345036212E-05,3.8671875,0,0
-2.08340370591031E-05,1.5474117390113E-05,3.8671875,0,0
-1.86423822015058E-05,1.37115275720134E-05,3.8671875,0,0
-1.68509195646038E-05,1.2914826584165E-05,3.8671875,0,0
-1.52004868141375E-05,1.32143777591409E-05,3.8671875,0,0
-1.32397562992992E-05,1.03383854366257E-05,3.8671875,0,0
-1.95246557268547E-05,1.47170212585479E-05,3.8671875,0,0
-1.52347220137017E-05,1.43623019539518E-05,3.8671875,0,0
-1.69568484125193E-05,2.30514961003792E-05,3.8671875,0,0
-1.41450809678645E-05,2.44571965595242E-05,3.8671875,0,0
-1.84398886631243E-05,2.82988185063004E-05,3.8671875,0,0
-1.95997472474119E-05,2.75575221166946E-05,3.8671875,0,0
-2.03087256522849E-05,2.5359762730659E-05,3.8671875,0,0
-1.85268781933701E-05,2.27921700570732E-05,3.8671875,0,0
-1.60445833898848E-05,2.15579857467674E-05,3.8671875,0,0
-1.35570835482213E-05,2.09739700949285E-05,3.8671875,0,0
-1.16207575047156E-05,2.05691940209363E-05,3.8671875,0,0
-1.1450947567937E-05,1.99516507564113E-05,3.8671875,0,0
-1.04700420706649E-05,1.83768061106093E-05,3.8671875,0,0
-1.06963552752859E-05,1.89031543413876E-05,3.8671875,0,0
-9.27549444895703E-06,1.78694335772889E-05,3.8671875,0,0
-8.52428183861775E-06,1.64381090144161E-05,3.8671875,0,0
-7.05739876138978E-06,1.22770643429249E-05,3.8671875,0,0
-8.06643038231414E-06,9.36046944843838E-06,3.8671875,0,0
-7.92630089563318E-06,8.15794464870123E-06,3.8671875,0,0
-8.94415734364884E-06,9.11027291294886E-06,3.8671875,0,0
-9.69195571087766E-06,8.09245648270007E-06,3.8671875,0,0
-1.19747519420343E-05,6.6232928475074E-06,3.8671875,0,0
-1.45301537486375E-05,5.93854520047898E-06,3.8671875,0,0
-1.78240188688505E-05,6.85897839503014E-06,3.8671875,0,0
-2.05900214496069E-05,7.89919704402564E-06,3.8671875,0,0
-2.30476671276847E-05,1.0684086191759E-05,3.8671875,0,0
-2.12321465369314E-05,1.13105479613296E-05,3.8671875,0,0
-3.24296197504736E-05,1.57865524670342E-05,3.8671875,0,0
-2.81466818705667E-05,1.14937965918216E-05,3.8671875,0,0
-3.52330789610278E-05,1.50863907038001E-05,3.8671875,0,0
-3.37906858476345E-05,1.29238160297973E-05,3.8671875,0,0
-4.05777900596149E-05,1.46752408909379E-05,3.8671875,0,0
-4.11835972045083E-05,1.4930937140889E-05,3.8671875,0,0
-4.34247922385111E-05,1.43781571750878E-05,3.8671875,0,0
-4.22116645495407E-05,1.22039991765632E-05,3.8671875,0,0
-4.10142929467838E-05,1.14472613859107E-05,3.8671875,0,0
-4.04513448302168E-05,1.18682037282269E-05,3.8671875,0,0
-3.85581115551759E-05,1.30681282826117E-05,3.8671875,0,0
-3.7665682611987E-05,1.45843641803367E-05,3.8671875,0,0
-3.39975413226057E-05,1.30997395899612E-05,3.8671875,0,0
-3.12842275889125E-05,1.07885880424874E-05,3.8671875,0,0
-2.66939168795943E-05,7.20878415449988E-06,3.8671875,0,0
-2.60231918218778E-05,5.85039924771991E-06,3.8671875,0,0
-2.45691808231641E-05,3.7125230392121E-06,3.8671875,0,0
-2.58850559475832E-05,2.47523712459952E-06,3.8671875,0,0
-2.65786329691764E-05,3.48767969171604E-07,3.8671875,0,0
-3.03537872241577E-05,-1.76362493675697E-06,3.8671875,0,0
-3.2188261684496E-05,-4.72609781354549E-06,3.8671875,0,0
-3.31196715706028E-05,-5.42569796380121E-06,3.8671875,0,0
-3.19845858030021E-05,-5.57713792659342E-06,3.8671875,0,0
-3.04363893519621E-05,-5.26403982803458E-06,3.8671875,0,0
-2.84088873740984E-05,-5.79426250624238E-06,3.8671875,0,0
-2.6800671548699E-05,-6.55830945106572E-06,3.8671875,0,0
-2.15196414501406E-05,-4.71997964268667E-06,3.8671875,0,0
-3.04344812320778E-05,-5.23964990861714E-06,3.8671875,0,0
-2.29959932767088E-05,-2.06925346901699E-06,3.8671875,0,0
-2.69563061010558E-05,-2.68645499090781E-06,3.8671875,0,0
-2.05678188649472E-05,9.47676483065152E-07,3.8671875,0,0
-2.34946310229134E-05,3.54439634975279E-06,3.8671875,0,0
-2.1179492250667E-05,6.00891826252337E-06,3.8671875,0,0
-2.16473417822272E-05,4.72903639092692E-06,3.8671875,0,0
-2.17540764424484E-05,3.62895275429764E-06,3.8671875,0,0
-2.46288891503355E-05,3.07717823488929E-06,3.8671875,0,0
-2.64510581473587E-05,4.71284465675126E-06,3.8671875,0,0
-2.53965154115576E-05,7.41574149287771E-06,3.8671875,0,0
-2.43581671384163E-05,7.41285430194694E-06,3.8671875,0,0
-2.17152719415026E-05,6.00082785240375E-06,3.8671875,0,0
-2.33192840823904E-05,4.44955458078766E-06,3.8671875,0,0
-2.31741960305953E-05,4.43444378106506E-06,3.8671875,0,0
-2.39705259446055E-05,4.62921389043913E-06,3.8671875,0,0
-2.20060956053203E-05,6.0638021750492E-06,3.8671875,0,0
-2.40694807871478E-05,6.39227801002562E-06,3.8671875,0,0
-2.45372139033861E-05,6.19808906776598E-06,3.8671875,0,0
-2.39816417888505E-05,4.23252322434564E-06,3.8671875,0,0
-1.97655481315451E-05,3.34348669639439E-06,3.8671875,0,0
-1.94917047338095E-05,4.99566021971987E-06,3.8671875,0,0
-2.1711397494073E-05,8.01881105871871E-06,3.8671875,0,0
-2.53891030297382E-05,9.72811812971486E-06,3.8671875,0,0
-2.65482576651266E-05,9.92318655335112E-06,3.8671875,0,0
-2.39259770751232E-05,8.26159612188349E-06,3.8671875,0,0
-1.59488117787987E-05,6.5070762502728E-06,3.8671875,0,0
-2.1439580450533E-05,1.06316128949402E-05,3.8671875,0,0
-1.5301871826523E-05,1.00999650385347E-05,3.8671875,0,0
-1.96173441509018E-05,1.22763331091846E-05,3.8671875,0,0
-1.52228622027906E-05,1.17219051389839E-05,3.8671875,0,0
-1.4518368516292E-05,1.4649010154244E-05,3.8671875,0,0
-9.41222606343217E-06,1.47958144225413E-05,3.8671875,0,0
-8.26583254820434E-06,1.46935899465461E-05,3.8671875,0,0
-5.55353562958771E-06,1.5663239537389E-05,3.8671875,0,0
-5.14867451784085E-06,1.77798101503868E-05,3.8671875,0,0
-7.60148986955755E-06,1.88809244718868E-05,3.8671875,0,0
-1.00084089353913E-05,1.93461401067907E-05,3.8671875,0,0
-1.24304633573047E-05,2.00453978322912E-05,3.8671875,0,0
-1.2004026757495E-05,1.99287896975875E-05,3.8671875,0,0
-1.29228237710777E-05,2.14907850022428E-05,3.8671875,0,0
-1.31189281091793E-05,2.34202889259905E-05,3.8671875,0,0
-1.64368266268866E-05,2.56092844210798E-05,3.8671875,0,0
-1.82096591743175E-05,2.50697521551047E-05,3.8671875,0,0
-2.14610390685266E-05,2.3275482817553E-05,3.8671875,0,0
-2.25386884267209E-05,2.10396192414919E-05,3.8671875,0,0
-2.30956593441078E-05,2.01798229682026E-05,3.8671875,0,0
-2.17179494939046E-05,1.86090746865375E-05,3.8671875,0,0
-2.32813363254536E-05,1.60503077495378E-05,3.8671875,0,0
-2.47128009505104E-05,1.3496496649168E-05,3.8671875,0,0
-2.46389954554616E-05,1.24654961837223E-05,3.8671875,0,0
-2.48404448939255E-05,1.30349944811314E-05,3.8671875,0,0
-2.64461232291069E-05,1.35745931402198E-05,3.8671875,0,0
-2.28798398893559E-05,1.17121981020318E-05,3.8671875,0,0
-3.44753643730655E-05,1.75576878973516E-05,3.8671875,0,0
-3.0812978366157E-05,1.32672521431232E-05,3.8671875,0,0
-4.10758912039455E-05,1.47260798257776E-05,3.8671875,0,0
-3.95339629903901E-05,1.3000500985072E-05,3.8671875,0,0
-4.3029085645685E-05,1.71631945704576E-05,3.8671875,0,0
-4.08140440413263E-05,1.9653652998386E-05,3.8671875,0,0
-4.30596192018129E-05,2.37239819398383E-05,3.8671875,0,0
-4.31829503213521E-05,2.49745935434476E-05,3.8671875,0,0
-4.48845312348567E-05,2.29918914556038E-05,3.8671875,0,0
-4.64742770418525E-05,2.03143536054995E-05,3.8671875,0,0
-4.49277322331909E-05,1.97750141524011E-05,3.8671875,0,0
-4.28274579462595E-05,2.07423836400267E-05,3.8671875,0,0
-3.79802841052879E-05,1.98882389668142E-05,3.8671875,0,0
-3.65500673069619E-05,2.00090817088494E-05,3.8671875,0,0
-3.38546851708088E-05,1.77450820046943E-05,3.8671875,0,0
-3.30612710968126E-05,1.52365337271476E-05,3.8671875,0,0
-2.93100329145091E-05,1.21934281196445E-05,3.8671875,0,0
-2.86012163996929E-05,1.10555110950372E-05,3.8671875,0,0
-2.65924409177387E-05,9.14743941393681E-06,3.8671875,0,0
-2.66568149527302E-05,8.76848207553849E-06,3.8671875,0,0
-2.56561652349774E-05,7.37807431505644E-06,3.8671875,0,0
-2.68920448434073E-05,6.69707878842019E-06,3.8671875,0,0
-2.89597955998033E-05,6.52654216537485E-06,3.8671875,0,0
-3.30385737470351E-05,5.05052594235167E-06,3.8671875,0,0
-3.56653363269288E-05,3.11521830553829E-06,3.8671875,0,0
-3.65199302905239E-05,4.11115206588875E-06,3.8671875,0,0
-3.03561300825095E-05,4.7872995310172E-06,3.8671875,0,0
-4.39468312833924E-05,5.170941221877E-06,3.8671875,0,0
-3.55507145286538E-05,7.45600630125409E-07,3.8671875,0,0
-4.51966843684204E-05,3.02470908764008E-07,3.8671875,0,0
-3.84689665224869E-05,-8.30862973089097E-07,3.8671875,0,0
-4.20753640355542E-05,7.71154930134799E-07,3.8671875,0,0
-4.03486956201959E-05,9.41665064146946E-07,3.8671875,0,0
-4.23585479438771E-05,1.7437180304114E-06,3.8671875,0,0
-3.90249515476171E-05,2.5476897462795E-06,3.8671875,0,0
-3.62859864253551E-05,2.62285084318137E-06,3.8671875,0,0
-3.52402057615109E-05,1.901726932374E-06,3.8671875,0,0
-3.4263441193616E-05,1.68856774962478E-06,3.8671875,0,0
-3.55530173692387E-05,3.13404120788618E-06,3.8671875,0,0
-3.25889886880759E-05,3.64999550583889E-06,3.8671875,0,0
-3.11983822030015E-05,4.0770642044663E-06,3.8671875,0,0
-2.57915144175058E-05,3.28531996274251E-06,3.8671875,0,0
-2.2857482690597E-05,3.08693188344478E-06,3.8671875,0,0
-1.66115278261714E-05,2.29325928557955E-06,3.8671875,0,0
-1.4388266208698E-05,1.56127794070926E-06,3.8671875,0,0
-1.05500057543395E-05,-1.29195001363769E-07,3.8671875,0,0
-9.15295913728187E-06,-5.09868300468952E-07,3.8671875,0,0
-6.22535526417778E-06,8.8151529098468E-07,3.8671875,0,0
-5.07354570800089E-06,2.93412267637905E-06,3.8671875,0,0
-1.02573358162772E-06,5.22312302564387E-06,3.8671875,0,0
2.19075604945829E-06,8.25852839625441E-06,3.8671875,0,0
2.91365995508386E-06,1.15979401016375E-05,3.8671875,0,0
1.08428037037811E-06,1.37979404826183E-05,3.8671875,0,0
-1.04484888652223E-06,1.12846537376754E-05,3.8671875,0,0
-1.7880922769109E-06,1.39725680128322E-05,3.8671875,0,0
-8.74550948992692E-07,8.41456403577467E-06,3.8671875,0,0
-2.35326297115535E-06,1.22072879094048E-05,3.8671875,0,0
-1.00288798421388E-05,1.19726655611885E-05,3.8671875,0,0
-1.69633040059125E-05,1.80775859917048E-05,3.8671875,0,0
-1.94518870557658E-05,2.07784614758566E-05,3.8671875,0,0
-1.79423623194452E-05,2.3808181140339E-05,3.8671875,0,0
-1.44466748679406E-05,2.29382421821356E-05,3.8671875,0,0
-1.08927279143245E-05,1.94631938938983E-05,3.8671875,0,0
-8.69371251610573E-06,1.47415239553084E-05,3.8671875,0,0
-7.77514833316673E-06,1.17375975605682E-05,3.8671875,0,0
-8.42682129587047E-06,1.19895876196097E-05,3.8671875,0,0
-9.99584517558105E-06,1.05260814962094E-05,3.8671875,0,0
-1.19213627840509E-05,9.75687999016372E-06,3.8671875,0,0
-1.41315695145749E-05,8.70391158969142E-06,3.8671875,0,0
-1.61031966854353E-05,1.04619984995225E-05,3.8671875,0,0
-1.6648704331601E-05,9.72499128693016E-06,3.8671875,0,0
-1.59128212544601E-05,8.2708902482409E-06,3.8671875,0,0
-1.57540762302233E-05,6.73146041663131E-06,3.8671875,0,0
-1.58425409608753E-05,9.34219497139566E-06,3.8671875,0,0
-1.43292299981113E-05,1.13792757474585E-05,3.8671875,0,0
-1.28839901663014E-05,1.11667031887919E-05,3.8671875,0,0
-1.41744612847106E-05,8.79756134963827E-06,3.8671875,0,0
-1.42530616358272E-05,7.73025658418192E-06,3.8671875,0,0
-1.17147910714266E-05,9.70148175838403E-06,3.8671875,0,0
-8.19457181933103E-06,1.36111066240119E-05,3.8671875,0,0
-2.16878333958448E-06,1.18520501928288E-05,3.8671875,0,0
-1.26818088119762E-06,1.53819019033108E-05,3.8671875,0,0
5.81088499984617E-07,1.04862838270492E-05,3.8671875,0,0
2.48595682705854E-07,1.52756310853874E-05,3.8671875,0,0
-7.26702126030432E-07,1.45041794894496E-05,3.8671875,0,0
-7.97487609816017E-06,1.67551661434118E-05,3.8671875,0,0
-1.45417006933712E-05,1.43490406117053E-05,3.8671875,0,0
-1.90243717952399E-05,1.51556560012978E-05,3.8671875,0,0
-2.0228140783729E-05,1.69360409927322E-05,3.8671875,0,0
-2.06911754503381E-05,1.79253747774055E-05,3.8671875,0,0
-2.04805674002273E-05,1.67272846738342E-05,3.8671875,0,0
-2.09011377592105E-05,1.40109459607629E-05,3.8671875,0,0
-2.27408745558932E-05,1.28055580717046E-05,3.8671875,0,0
-2.54199912887998E-05,9.54880761128152E-06,3.8671875,0,0
-2.98468075925484E-05,6.4956088863255E-06,3.8671875,0,0
-3.37405181198847E-05,3.26875579048647E-06,3.8671875,0,0
-3.64311745215673E-05,2.83176473203639E-06,3.8671875,0,0
-3.66140120604541E-05,1.04356047359033E-06,3.8671875,0,0
-3.6444966099225E-05,1.55913789967599E-06,3.8671875,0,0
-3.64468978659716E-05,3.154874093525E-06,3.8671875,0,0
-3.7295281799743E-05,5.72857834413298E-06,3.8671875,0,0
-3.75899217033293E-05,7.03396972312476E-06,3.8671875,0,0
-3.73570728697814E-05,8.84282962942962E-06,3.8671875,0,0
-3.61139827873558E-05,9.87763360171812E-06,3.8671875,0,0
-3.591854692786E-05,1.01226278275135E-05,3.8671875,0,0
-3.75275740225334E-05,7.67589517636225E-06,3.8671875,0,0
-3.85440944228321E-05,4.44461829829379E-06,3.8671875,0,0
-2.9072152756271E-05,4.33658300380557E-07,3.8671875,0,0
-3.83193728339393E-05,-7.56544750402099E-07,3.8671875,0,0
-2.42627720581368E-05,-9.41215489547176E-07,3.8671875,0,0
-3.0574417905882E-05,1.12773147975531E-06,7.20703125,0,0
-2.26640750042861E-05,2.13878115573607E-06,7.20703125,0,0
-2.60627512034262E-05,2.86122281067946E-06,7.20703125,0,0
-2.3836064428906E-05,3.33068510371959E-06,7.20703125,0,0
-2.73116056632716E-05,6.92296907800483E-06,7.20703125,0,0
-2.56924286077265E-05,1.28140727611026E-05,7.20703125,0,0
-2.36395844694925E-05,1.75603254319867E-05,7.20703125,0,0
-2.2989539502305E-05,2.04182251763996E-05,7.20703125,0,0
-2.27693763008574E-05,2.12939048651606E-05,7.20703125,0,0
-2.45513911067974E-05,2.01282109628664E-05,7.20703125,0,0
-2.23122206080006E-05,1.70449075085344E-05,7.20703125,0,0
-2.44858238147572E-05,1.43498482430005E-05,7.20703125,0,0
-2.7239473638474E-05,1.29978307086276E-05,7.20703125,0,0
-3.55365991708823E-05,1.21852790471166E-05,7.20703125,0,0
-4.09255881095305E-05,1.07712476165034E-05,7.20703125,0,0
-4.90607017127331E-05,9.73616897681495E-06,7.20703125,0,0
-5.32650665263645E-05,1.02610383692081E-05,7.20703125,0,0
-5.94107768847607E-05,1.2189821973152E-05,7.20703125,0,0
-6.28181514912285E-05,1.47930604725843E-05,7.20703125,0,0
-6.53817332931794E-05,1.81376781256404E-05,7.20703125,0,0
-6.23427113168873E-05,2.01133098016726E-05,7.20703125,0,0
-5.73061479371972E-05,1.998733569053E-05,7.20703125,0,0
-5.22702175658196E-05,1.97894642042229E-05,7.20703125,0,0
-4.7618304961361E-05,1.9519879060681E-05,7.20703125,0,0
-3.33404532284476E-05,1.54861736518797E-05,7.20703125,0,0
-4.09826534450985E-05,2.10424659599084E-05,7.20703125,0,0
-2.1073525203974E-05,1.48749522850267E-05,7.20703125,0,0
-2.7947991839028E-05,1.7493399354862E-05,7.20703125,0,0
-2.15786694752751E-05,1.01071191238589E-05,7.20703125,0,0
-2.62769353867043E-05,9.9529297585832E-06,7.20703125,0,0
-1.95346674445318E-05,8.13826500234427E-06,7.20703125,0,0
-1.85601620614761E-05,9.57804695644882E-06,7.20703125,0,0
-1.52701395563781E-05,8.99911083251936E-06,7.20703125,0,0
-1.44422610901529E-05,7.89126715972088E-06,7.20703125,0,0
-1.40891479532002E-05,7.64056039770367E-06,7.20703125,0,0
-1.13455034806975E-05,9.15598593564937E-06,7.20703125,0,0
-1.15088387246942E-05,1.20937811516342E-05,7.20703125,0,0
-9.9702701845672E-06,1.06875195342582E-05,7.20703125,0,0
-1.35373693410656E-05,9.12931955099339E-06,7.20703125,0,0
-1.40936454045004E-05,6.43249768472742E-06,7.20703125,0,0
-1.89592828974128E-05,6.32309865977732E-06,7.20703125,0,0
-2.0413597667357E-05,4.63480409962358E-06,7.20703125,0,0
-2.50449720624601E-05,4.72618057756335E-06,7.20703125,0,0
-2.43984522967367E-05,3.41848408424994E-06,7.20703125,0,0
-2.50587927439483E-05,3.45077751262579E-06,7.20703125,0,0
-2.42058467847528E-05,3.06973606711836E-06,7.20703125,0,0
-2.64425452769501E-05,5.37139840162126E-06,7.20703125,0,0
-2.65766739175888E-05,9.98562518361723E-06,7.20703125,0,0
-2.5759074560483E-05,1.50058349390747E-05,7.20703125,0,0
-2.11574897548417E-05,1.7172247680719E-05,7.20703125,0,0
-1.58445400302298E-05,1.85362150659785E-05,7.20703125,0,0
-9.19527883525006E-06,1.63543882081285E-05,7.20703125,0,0
-1.07897803900414E-05,2.41246525547467E-05,7.20703125,0,0
-3.60622721018444E-06,1.77874189830618E-05,7.20703125,0,0
-2.26253428081691E-06,1.87449441000354E-05,7.20703125,0,0
3.18097477247647E-07,1.52400325532653E-05,7.20703125,0,0
-3.02602029478294E-06,2.06607019208604E-05,7.20703125,0,0
-5.1864817578462E-06,1.97386416402878E-05,7.20703125,0,0
-8.5862739069853E-06,1.65902183653088E-05,7.20703125,0,0
-9.01500425243285E-06,1.1762288522732E-05,7.20703125,0,0
-8.61831904330757E-06,9.29120960790897E-06,7.20703125,0,0
-1.03522233985132E-05,8.29853252071189E-06,7.20703125,0,0
-1.45313088069088E-05,6.93929905537516E-06,7.20703125,0,0
-1.98037505469983E-05,6.53475717626861E-06,7.20703125,0,0
-2.1373753043008E-05,4.9991895139101E-06,7.20703125,0,0
-2.20034580706852E-05,5.62619061383884E-06,7.20703125,0,0
-2.17793913179776E-05,5.02249167766422E-06,7.20703125,0,0
-2.29026027227519E-05,6.48148625259637E-06,7.20703125,0,0
-2.32509100897005E-05,6.65788093101582E-06,7.20703125,0,0
-2.5156617994071E-05,8.74964007380186E-06,7.20703125,0,0
-2.55273935181322E-05,8.80948027770501E-06,7.20703125,0,0
-2.44407910940936E-05,9.06185778148938E-06,7.20703125,0,0
-2.14480205613654E-05,9.3061034931452E-06,7.20703125,0,0
-1.9995030015707E-05,1.32866443891544E-05,7.20703125,0,0
-1.93053583643632E-05,1.81533687282354E-05,7.20703125,0,0
-1.81599989446113E-05,1.94576114154188E-05,7.20703125,0,0
-1.65834153449396E-05,1.73696043930249E-05,7.20703125,0,0
-1.45356480061309E-05,1.74815195350675E-05,7.20703125,0,0
-1.07637306427932E-05,1.38969035106129E-05,7.20703125,0,0
-1.48846729643992E-05,1.76245503098471E-05,7.20703125,0,0
-1.09611828520428E-05,1.01016030384926E-05,7.20703125,0,0
-1.43422766996082E-05,1.15461716632126E-05,7.20703125,0,0
-1.39045423566131E-05,7.30184592612204E-06,7.20703125,0,0
-1.89396560017485E-05,1.02119365692488E-05,7.20703125,0,0
-2.12812392419437E-05,8.68758797878399E-06,7.20703125,0,0
-2.57957617577631E-05,7.80972550273873E-06,7.20703125,0,0
-3.28070091200061E-05,5.5589430303371E-06,7.20703125,0,0
-4.10128850489855E-05,5.06737478644936E-06,7.20703125,0,0
-4.70197373942938E-05,4.26496262662113E-06,7.20703125,0,0
-5.19519053341355E-05,1.73052831087261E-06,7.20703125,0,0
-5.72512290091254E-05,1.27046826037258E-06,7.20703125,0,0
-5.84270928811748E-05,1.10406494968629E-06,7.20703125,0,0
-5.77764076297171E-05,2.58747809311899E-06,7.20703125,0,0
-5.52925812371541E-05,1.04466437278461E-06,7.20703125,0,0
-5.30992365384009E-05,-2.9432321468903E-08,7.20703125,0,0
-4.79348709632177E-05,-2.3821471586416E-06,7.20703125,0,0
-4.45002260676119E-05,-1.98844668375386E-06,7.20703125,0,0
-4.23818419221789E-05,-1.79535936695174E-06,7.20703125,0,0
-4.02735713578295E-05,3.73662629726823E-07,7.20703125,0,0
-3.51701783074532E-05,1.22148946957168E-06,7.20703125,0,0
-3.01702239084989E-05,7.14732550477493E-07,7.20703125,0,0
-2.40560457314132E-05,-2.13720659303362E-06,7.20703125,0,0
-1.82600579137215E-05,-2.70763666776475E-06,7.20703125,0,0
-1.4639458640886E-05,-8.77915795172157E-07,7.20703125,0,0
-1.24637044791598E-05,2.13866019294073E-06,7.20703125,0,0
-8.03972488938598E-06,3.71167379853432E-06,7.20703125,0,0
-9.96468861558242E-06,7.29445036995457E-06,7.20703125,0,0
-5.72177714275313E-06,1.03590018625255E-05,7.20703125,0,0
-8.34473485156195E-06,1.36847638714244E-05,7.20703125,0,0
-7.71612212702166E-06,1.30977814478683E-05,7.20703125,0,0
-1.03017382571124E-05,1.16266655822983E-05,7.20703125,0,0
-1.17970112114563E-05,9.08697438717354E-06,7.20703125,0,0
-1.45363101182738E-05,8.29943201097194E-06,7.20703125,0,0
-1.45873364090221E-05,7.04499143466819E-06,7.20703125,0,0
-1.39196345116943E-05,6.86340854372247E-06,7.20703125,0,0
-1.40380006996565E-05,9.38215544010745E-06,7.20703125,0,0
-1.57474423758686E-05,1.30956341308774E-05,7.20703125,0,0
-1.95201173482928E-05,1.58078364620451E-05,7.20703125,0,0
-2.19970843318151E-05,1.67011421581265E-05,7.20703125,0,0
-2.45775299845263E-05,1.75826626218623E-05,7.20703125,0,0
-2.66171864495846E-05,1.82286476047011E-05,7.20703125,0,0
-3.02896551147569E-05,2.01865350391017E-05,7.20703125,0,0
-3.25462606269866E-05,2.18985442188568E-05,7.20703125,0,0
-3.43070641974919E-05,2.22117505472852E-05,7.20703125,0,0
-3.49348811141681E-05,1.99011010408867E-05,7.20703125,0,0
-3.72010326827876E-05,1.67478265211685E-05,7.20703125,0,0
-4.0666065615369E-05,1.34348838400911E-05,7.20703125,0,0
-4.63991273136344E-05,1.18363705041702E-05,7.20703125,0,0
-5.09862256876659E-05,1.1850744158437E-05,7.20703125,0,0
-5.20598550792784E-05,1.18130574264796E-05,7.20703125,0,0
-4.9563455831958E-05,1.03160982689587E-05,7.20703125,0,0
-4.72183855890762E-05,8.08266759122489E-06,7.20703125,0,0
-3.84632985515054E-05,5.98985388933215E-06,7.20703125,0,0
-5.60140579182189E-05,9.4359929789789E-06,7.20703125,0,0
-4.16218790633138E-05,9.72286397882272E-06,7.20703125,0,0
-4.67133577330969E-05,1.29281943372916E-05,7.20703125,0,0
-3.28215355693828E-05,1.34203528432408E-05,7.20703125,0,0
-3.23604544973932E-05,1.74088963831309E-05,7.20703125,0,0
-2.27714699576609E-05,1.8591565094539E-05,7.20703125,0,0
-1.94906715478282E-05,1.85439894266892E-05,7.20703125,0,0
-1.30592952700681E-05,1.82393487193622E-05,7.20703125,0,0
-8.17299769551028E-06,1.88672329386463E-05,7.20703125,0,0
-3.9010310501908E-06,1.86559809662867E-05,7.20703125,0,0
1.58953071149881E-06,1.81106406671461E-05,7.20703125,0,0
3.61998331754876E-06,1.66700046975166E-05,7.20703125,0,0
8.36942945170449E-06,1.32384457174339E-05,7.20703125,0,0
8.22117362986319E-06,1.24128973766346E-05,7.20703125,0,0
1.04751588878571E-05,1.33029088829062E-05,7.20703125,0,0
8.3043378253933E-06,1.5423773220391E-05,7.20703125,0,0
1.01612540674978E-05,1.67263751791324E-05,7.20703125,0,0
8.09606717666611E-06,1.75699260580586E-05,7.20703125,0,0
9.92684181255754E-06,1.59788960445439E-05,7.20703125,0,0
9.66160223470069E-06,1.46456268339534E-05,7.20703125,0,0
1.08828435259056E-05,1.39695011966978E-05,7.20703125,0,0
6.73754448143882E-06,1.45660451380536E-05,7.20703125,0,0
4.84546490042703E-07,1.44926762004616E-05,7.20703125,0,0
-8.33597368909977E-06,1.46471229527378E-05,7.20703125,0,0
-1.36683429445839E-05,1.56936730490997E-05,7.20703125,0,0
-1.46654838317772E-05,1.62811193149537E-05,7.20703125,0,0
-1.12415718831471E-05,1.27825305753504E-05,7.20703125,0,0
-1.68440819834359E-05,1.75480563484598E-05,7.20703125,0,0
-1.68580627359916E-05,1.3780841982225E-05,7.20703125,0,0
-2.40566387219587E-05,1.88135236385278E-05,7.20703125,0,0
-2.41245343204355E-05,1.56098631123314E-05,7.20703125,0,0
-2.76524369837716E-05,1.66052286658669E-05,7.20703125,0,0
-3.10790383082349E-05,1.41286036523525E-05,7.20703125,0,0
-3.68131841241848E-05,1.41783293656772E-05,7.20703125,0,0
-3.96769173676148E-05,1.34237670863513E-05,7.20703125,0,0
-4.05584069085307E-05,1.14886752271559E-05,7.20703125,0,0
-4.07919578719884E-05,9.68218409980182E-06,16.34765625,0,0
-3.99631026084535E-05,8.86734505911591E-06,16.34765625,0,0
-3.98450356442481E-05,9.96992821455933E-06,16.34765625,0,0
-3.82440775865689E-05,8.1780399341369E-06,16.34765625,0,0
-3.75591916963458E-05,6.62075535728945E-06,16.34765625,0,0
-3.59029036189895E-05,5.88932152822963E-06,16.34765625,0,0
-3.57066564902198E-05,9.28518329601502E-06,16.34765625,0,0
-3.37216479238123E-05,1.03028796729632E-05,16.34765625,0,0
-3.17791163979564E-05,9.96490780380555E-06,16.34765625,0,0
-2.93811772280606E-05,8.80317111295881E-06,16.34765625,0,0
-2.85843398160068E-05,9.32505827222485E-06,16.34765625,0,0
-2.61614459304838E-05,8.22774200059939E-06,16.34765625,0,0
-2.32990405493183E-05,7.82967072154861E-06,16.34765625,0,0
-2.09723784792004E-05,8.91617492015939E-06,16.34765625,0,0
-1.93132873391733E-05,1.1682573131111E-05,16.34765625,0,0
-1.73757944139652E-05,1.11994431790663E-05,16.34765625,0,0
-1.59988303494174E-05,8.56651786307339E-06,16.34765625,0,0
-1.2392405551509E-05,5.7408224165556E-06,16.34765625,0,0
-1.76078283402603E-05,8.36934668768663E-06,16.34765625,0,0
-1.45616131703719E-05,7.22865024727071E-06,16.34765625,0,0
-2.04682346520713E-05,7.23454331819084E-06,16.34765625,0,0
-2.06051281566033E-05,3.56944974555518E-06,16.34765625,0,0
-2.51034089160385E-05,4.83568874187768E-06,16.34765625,0,0
-2.67423747573048E-05,5.26901658304268E-06,16.34765625,0,0
-3.03054257528856E-05,5.7121701502183E-06,16.34765625,0,0
-3.23912572639529E-05,4.83159374198294E-06,16.34765625,0,0
-3.32218514813576E-05,2.90600996777357E-06,16.34765625,0,0
-3.25691398757044E-05,2.0542804577417E-06,16.34765625,0,0
-3.17454068863299E-05,2.83428812508646E-06,16.34765625,0,0
-3.23463063978124E-05,2.83831241176813E-06,16.34765625,0,0
-3.11697549477685E-05,7.21504932243988E-07,16.34765625,0,0
-3.120418114122E-05,1.03174727428268E-06,16.34765625,0,0
-3.09306160488632E-05,3.04747914015024E-06,16.34765625,0,0
-3.21603947668336E-05,6.19318052486051E-06,16.34765625,0,0
-3.16353980451822E-05,7.65800268709427E-06,16.34765625,0,0
-3.17630729114171E-05,7.72569001128431E-06,16.34765625,0,0
-3.01131203741534E-05,6.15133421888459E-06,16.34765625,0,0
-2.87864677375183E-05,5.44984595762799E-06,16.34765625,0,0
-2.59979424299672E-05,5.45666625839658E-06,16.34765625,0,0
-2.41419784288155E-05,6.14523924014065E-06,16.34765625,0,0
-2.1525584088522E-05,6.21904518993688E-06,16.34765625,0,0
-1.91199233086081E-05,6.88055024511414E-06,16.34765625,0,0
-1.70590701600304E-05,7.31333739167894E-06,16.34765625,0,0
-1.55025409185328E-05,6.68202847009525E-06,16.34765625,0,0
-1.26669383462286E-05,4.22940411226591E-06,16.34765625,0,0
-1.90434802789241E-05,5.99150735069998E-06,16.34765625,0,0
-1.62613359862007E-05,5.59062664251542E-06,16.34765625,0,0
-2.02609626285266E-05,7.68101290304912E-06,16.34765625,0,0
-1.92167899513152E-05,6.9193138187984E-06,16.34765625,0,0
-2.25031417357968E-05,7.80790742282989E-06,16.34765625,0,0
-2.21141544898273E-05,6.6174725361634E-06,16.34765625,0,0
-2.30534769798396E-05,6.70251029077917E-06,16.34765625,0,0
-2.20109777728794E-05,9.24893902265467E-06,16.34765625,0,0
-2.28984590648906E-05,1.15670000013779E-05,16.34765625,0,0
-2.55766808550106E-05,1.00203578767832E-05,16.34765625,0,0
-2.78106490441132E-05,6.79656022839481E-06,16.34765625,0,0
-2.96272191917524E-05,5.5711002460157E-06,16.34765625,0,0
-2.97356364171719E-05,5.32053627466667E-06,16.34765625,0,0
-3.12181837216485E-05,5.46722731087357E-06,16.34765625,0,0
-3.07766240439378E-05,5.46852334082359E-06,16.34765625,0,0
-3.10991890728474E-05,7.15791429684032E-06,16.34765625,0,0
-3.10173345496878E-05,8.3868735600845E-06,16.34765625,0,0
-3.40433180099353E-05,9.29506950342329E-06,16.34765625,0,0
-3.64327243005391E-05,9.01194380276138E-06,16.34765625,0,0
-3.86523570341524E-05,8.63325567479478E-06,16.34765625,0,0
-3.91012908949051E-05,8.71577140060253E-06,16.34765625,0,0
-4.05731516366359E-05,1.07405703602126E-05,16.34765625,0,0
-4.06683684559539E-05,1.29923146232613E-05,16.34765625,0,0
-3.93260015698615E-05,1.45996864375775E-05,16.34765625,0,0
-3.68743785656989E-05,1.5984760466381E-05,16.34765625,0,0
-3.57421231456101E-05,1.78441732714418E-05,16.34765625,0,0
-2.84217039734358E-05,1.52173633978236E-05,16.34765625,0,0
-3.96884861402214E-05,2.06522745429538E-05,16.34765625,0,0
-2.81296015600674E-05,1.20518343464937E-05,16.34765625,0,0
-3.21998304571025E-05,1.31089764181525E-05,16.34765625,0,0
-2.29309625865426E-05,8.71769498189678E-06,16.34765625,0,0
-2.61383756878786E-05,1.13864443846978E-05,16.34765625,0,0
-2.27638738579117E-05,1.04438076959923E-05,16.34765625,0,0
-2.34737399296137E-05,1.05398785308353E-05,16.34765625,0,0
-1.96059918380342E-05,1.10401470010402E-05,16.34765625,0,0
-1.59904375323094E-05,1.26909571918077E-05,16.34765625,0,0
-1.25824808492325E-05,1.29634208860807E-05,16.34765625,0,0
-7.12139262759592E-06,1.25032893265598E-05,16.34765625,0,0
-3.7961383441143E-06,1.32476843646145E-05,16.34765625,0,0
1.32568015942525E-06,1.24148582472117E-05,16.34765625,0,0
3.00579949907842E-06,1.29175232359557E-05,16.34765625,0,0
7.83335235610139E-06,1.20264212455368E-05,16.34765625,0,0
9.15999498829478E-06,1.29718691823655E-05,16.34765625,0,0
1.23548370538629E-05,1.2841561328969E-05,16.34765625,0,0
1.09181237348821E-05,1.47661930895993E-05,16.34765625,0,0
1.03426855275757E-05,1.63484455697471E-05,16.34765625,0,0
5.86653641221346E-06,1.94606400327757E-05,16.34765625,0,0
3.2610630569252E-06,1.96521323232446E-05,16.34765625,0,0
-1.31502364553171E-08,1.97049466805765E-05,16.34765625,0,0
-2.08830692827178E-06,2.04541211132891E-05,16.34765625,0,0
-6.25965321887634E-06,2.28779972530901E-05,16.34765625,0,0
-1.26498207464465E-05,2.43534814217128E-05,16.34765625,0,0
-2.06830191018526E-05,2.43026115640532E-05,16.34765625,0,0
-2.29149136430351E-05,1.90451173693873E-05,16.34765625,0,0
-3.57534227077849E-05,2.64501450146781E-05,16.34765625,0,0
-3.49107685906347E-05,1.79072922037449E-05,16.34765625,0,0
-4.90226047986653E-05,2.01399216166465E-05,16.34765625,0,0
-5.19121058459859E-05,1.38231016535428E-05,16.34765625,0,0
-5.8500070736045E-05,1.53561632032506E-05,16.34765625,0,0
-5.69328149140347E-05,1.27189259728766E-05,16.34765625,0,0
-5.71359378227498E-05,1.32529003167292E-05,16.34765625,0,0
-5.54854632355273E-05,1.25118767755339E-05,16.34765625,0,0
-5.4636228014715E-05,1.26251143228728E-05,16.34765625,0,0
-5.31985388079192E-05,1.23662166515714E-05,16.34765625,0,0
-4.79657828691415E-05,1.08233034552541E-05,16.34765625,0,0
-4.32049673690926E-05,1.06256284198025E-05,16.34765625,0,0
-3.81679310521577E-05,9.31768499867758E-06,16.34765625,0,0
-3.68812943634111E-05,1.10750752355671E-05,16.34765625,0,0
-3.31119699694682E-05,1.15079456008971E-05,16.34765625,0,0
-3.11348230752628E-05,1.24099806271261E-05,16.34765625,0,0
-2.66174101852812E-05,7.66999710322125E-06,16.34765625,0,0
-2.42501992033795E-05,3.25951600643748E-06,16.34765625,0,0
-1.99069581867661E-05,-2.90307610839591E-07,16.34765625,0,0
-1.74936685652938E-05,1.51485693322684E-07,16.34765625,0,0
-1.50894547914504E-05,-1.83593647307134E-06,16.34765625,0,0
-1.52048578456743E-05,-4.02643036068184E-06,16.34765625,0,0
-1.3530634532799E-05,-5.07988943354576E-06,16.34765625,0,0
-1.01978594102548E-05,-4.38847064287984E-06,16.34765625,0,0
-8.4174516814528E-06,-4.34314370068023E-06,16.34765625,0,0
-1.18934358397382E-05,-2.78580364465597E-06,16.34765625,0,0
-1.54232839122415E-05,1.83957752142305E-06,16.34765625,0,0
-2.34029339480912E-05,8.75824025570182E-06,16.34765625,0,0
-1.79888793354621E-05,1.64619068527827E-05,16.34765625,0,0
-1.98950510821305E-05,1.99852202058537E-05,16.34765625,0,0
-1.61571006174199E-05,2.20252495637396E-05,16.34765625,0,0
-1.76466201082803E-05,2.318098268006E-05,16.34765625,0,0
-1.71612045960501E-05,2.41527413891163E-05,16.34765625,0,0
-1.9359524230822E-05,2.29444995056838E-05,16.34765625,0,0
-2.13661369343754E-05,2.12523118534591E-05,16.34765625,0,0
-2.35703628277406E-05,1.83836127689574E-05,16.34765625,0,0
-2.66148181253811E-05,1.54315566760488E-05,16.34765625,0,0
-3.01046002277872E-05,1.31970564325457E-05,16.34765625,0,0
-3.37254023179412E-05,1.16156970761949E-05,16.34765625,0,0
-3.32715717377141E-05,1.06639008663478E-05,16.34765625,0,0
-3.11154944938608E-05,1.07295218185754E-05,16.34765625,0,0
-2.60702090599807E-05,1.28039400806301E-05,16.34765625,0,0
-2.23152328544529E-05,1.46866941577173E-05,16.34765625,0,0
-1.66516165336361E-05,1.35299751491402E-05,16.34765625,0,0
-1.24704047266277E-05,1.0153693438042E-05,16.34765625,0,0
-7.6767946666223E-06,8.61298758536577E-06,16.34765625,0,0
-4.26057840741123E-06,8.51161985337967E-06,16.34765625,0,0
-7.5724130965682E-07,8.57394297781866E-06,16.34765625,0,0
1.39304836466181E-06,8.27111125545343E-06,16.34765625,0,0
1.12113252725976E-06,7.68081372370943E-06,16.34765625,0,0
-2.37742528952367E-06,6.66905179969035E-06,16.34765625,0,0
-6.32240289633046E-06,6.98292615197715E-06,16.34765625,0,0
-1.01186906249495E-05,8.14576742413919E-06,16.34765625,0,0
-1.32427148855641E-05,6.10597317063366E-06,16.34765625,0,0
-2.39924811467063E-05,6.09842163612484E-06,16.34765625,0,0
-2.51444216701202E-05,3.17980766340042E-06,16.34765625,0,0
-3.02979624393629E-05,8.52160064823693E-06,16.34765625,0,0
-2.94999408652075E-05,8.98370217328193E-06,16.34765625,0,0
-3.01246909657493E-05,1.15842294690083E-05,16.34765625,0,0
-2.82462460745592E-05,1.08679150798707E-05,16.34765625,0,0
-2.86478862108197E-05,8.90932096808683E-06,16.34765625,0,0
-2.76359023700934E-05,9.36353717406746E-06,16.34765625,0,0
-2.55099002970383E-05,1.19660799100529E-05,16.34765625,0,0
-2.43637896346627E-05,1.27318180602742E-05,16.34765625,0,0
-2.41323650698178E-05,1.16429155241349E-05,16.34765625,0,0
-2.5069744879147E-05,1.00102943179081E-05,16.34765625,0,0
-2.4743558242335E-05,6.87275860400405E-06,16.34765625,0,0
-2.54155256698141E-05,4.63751985080307E-06,16.34765625,0,0
-2.50050270551583E-05,3.3813341815403E-06,30.05859375,0,0
-2.53378584602615E-05,5.55451151740272E-06,30.05859375,0,0
-2.50642206083285E-05,7.9787914728513E-06,30.05859375,0,0
-2.71051158051705E-05,9.01376188267022E-06,30.05859375,0,0
-2.86663434962975E-05,7.66642006055918E-06,30.05859375,0,0
-2.97462775051827E-05,7.94757579569705E-06,30.05859375,0,0
-2.94162346108351E-05,8.49678963277256E-06,30.05859375,0,0
-3.13493474095594E-05,8.8551851149532E-06,30.05859375,0,0
-3.60928461304866E-05,8.32643490866758E-06,30.05859375,0,0
-4.26157312176656E-05,8.69295217853505E-06,30.05859375,0,0
-4.68204852950294E-05,9.70462770055747E-06,30.05859375,0,0
-4.66756828245707E-05,1.18295438369387E-05,30.05859375,0,0
-3.6016026569996E-05,1.12848674689303E-05,30.05859375,0,0
-4.95031817990821E-05,1.47606906466535E-05,30.05859375,0,0
-3.55922093149275E-05,9.56126132223289E-06,30.05859375,0,0
-4.42635355284438E-05,1.15248913061805E-05,30.05859375,0,0
-3.49509246007074E-05,7.61262981541222E-06,30.05859375,0,0
-4.0695729694562E-05,1.01169580375426E-05,30.05859375,0,0
-3.75678428099491E-05,9.99138865154237E-06,30.05859375,0,0
-3.88240296160802E-05,8.75467776495498E-06,30.05859375,0,0
-3.50990630977321E-05,6.00180646870285E-06,30.05859375,0,0
-3.28115165757481E-05,5.90057379667996E-06,30.05859375,0,0
-3.16636978823226E-05,6.87217425365816E-06,30.05859375,0,0
-3.12767551804427E-05,7.01488716003951E-06,30.05859375,0,0
-3.39381658704951E-05,7.48399543226697E-06,30.05859375,0,0
-3.07396985590458E-05,7.19323816156248E-06,30.05859375,0,0
-2.98307841148926E-05,8.73666522238636E-06,30.05859375,0,0
-2.48662236117525E-05,8.38455616758438E-06,30.05859375,0,0
-2.34276212722762E-05,7.50894014345249E-06,30.05859375,0,0
-1.73945245478535E-05,5.79256447963417E-06,30.05859375,0,0
-1.60735962708713E-05,7.53188487578882E-06,30.05859375,0,0
-1.27735211208346E-05,7.50865137888468E-06,30.05859375,0,0
-1.29392137750983E-05,7.42108068152447E-06,30.05859375,0,0
-1.01677906059194E-05,7.61571436669328E-06,30.05859375,0,0
-9.42833958106348E-06,8.84831570147071E-06,30.05859375,0,0
-7.68204517953563E-06,9.61255864240229E-06,30.05859375,0,0
-7.31918134988518E-06,1.06237202999182E-05,30.05859375,0,0
-6.84893757352256E-06,1.04463961179135E-05,30.05859375,0,0
-8.31615398055874E-06,9.01262683328241E-06,30.05859375,0,0
-1.00382158052525E-05,4.78545734949876E-06,30.05859375,0,0
-1.71816827787552E-05,4.64910499431426E-06,30.05859375,0,0
-1.68395781656727E-05,2.8866099910374E-06,30.05859375,0,0
-1.97038007172523E-05,7.69304824643768E-06,30.05859375,0,0
-1.97975350602064E-05,9.73156602412928E-06,30.05859375,0,0
-2.24219693336636E-05,1.26164204630186E-05,30.05859375,0,0
-2.22158796532312E-05,1.10769033199176E-05,30.05859375,0,0
-2.21633908950025E-05,9.63860111369286E-06,30.05859375,0,0
-2.15328709600726E-05,1.03016336652217E-05,30.05859375,0,0
-2.07368684641551E-05,1.23957688629162E-05,30.05859375,0,0
-1.98616180568933E-05,1.42128219522419E-05,30.05859375,0,0
-1.75061613845173E-05,1.45256863106624E-05,30.05859375,0,0
-1.60009094543057E-05,1.36254584504059E-05,30.05859375,0,0
-1.44051855386351E-05,1.24442221931531E-05,30.05859375,0,0
-1.51823205669643E-05,1.31413980852813E-05,30.05859375,0,0
-1.62667765835067E-05,1.31044980662409E-05,30.05859375,0,0
-1.8879158233176E-05,1.29134841699852E-05,30.05859375,0,0
-2.12894301512279E-05,1.28062465591938E-05,30.05859375,0,0
-2.39764176512836E-05,1.40621787068085E-05,30.05859375,0,0
-2.48947399086319E-05,1.36029966597562E-05,30.05859375,0,0
-2.64391983364476E-05,1.23624922707677E-05,30.05859375,0,0
-2.84779816865921E-05,1.10582559500472E-05,30.05859375,0,0
-3.08953895000741E-05,1.13647338366718E-05,30.05859375,0,0
-3.27848756569438E-05,1.19283586172969E-05,30.05859375,0,0
-3.28467722283676E-05,1.26443919725716E-05,30.05859375,0,0
-3.01932050206233E-05,1.21474904517527E-05,30.05859375,0,0
-2.78160605375888E-05,1.06816823972622E-05,30.05859375,0,0
-2.36587129620602E-05,9.39730580284959E-06,30.05859375,0,0
-3.55435768142343E-05,1.46630818562699E-05,30.05859375,0,0
-2.89378021989251E-05,1.2090997188352E-05,30.05859375,0,0
-3.51342023350298E-05,1.35515974761802E-05,30.05859375,0,0
-3.15548131766263E-05,1.03809379652375E-05,30.05859375,0,0
-3.53058094333392E-05,1.15996854219702E-05,30.05859375,0,0
-3.08017042698339E-05,1.17747713375138E-05,30.05859375,0,0
-2.92694658128312E-05,1.08334916149033E-05,30.05859375,0,0
-2.70438322331756E-05,9.69454413279891E-06,30.05859375,0,0
-2.68885887635406E-05,1.06514444269123E-05,30.05859375,0,0
-2.67577906924998E-05,1.12880106826196E-05,30.05859375,0,0
-2.61700151895639E-05,1.04006530818879E-05,30.05859375,0,0
-2.80144522548653E-05,1.05151812022086E-05,30.05859375,0,0
-2.70081327471416E-05,1.01920304587111E-05,30.05859375,0,0
-2.69404463324463E-05,1.01647738119937E-05,30.05859375,0,0
-2.36703363043489E-05,8.56065253174165E-06,30.05859375,0,0
-2.24991836148547E-05,9.0080038717133E-06,30.05859375,0,0
-1.96415803657146E-05,1.16513001557905E-05,30.05859375,0,0
-2.1103405742906E-05,1.55486577568809E-05,30.05859375,0,0
-2.1684789317078E-05,1.5875313692959E-05,30.05859375,0,0
-2.28734388656449E-05,1.54079316416755E-05,30.05859375,0,0
-1.98146153707057E-05,1.64245539053809E-05,30.05859375,0,0
-1.64824123203289E-05,1.88685044122394E-05,30.05859375,0,0
-1.32216628117021E-05,2.04768002731726E-05,30.05859375,0,0
-1.32378499984043E-05,2.17330089071766E-05,30.05859375,0,0
-1.61590178322513E-05,2.02896280825371E-05,30.05859375,0,0
-2.13978219107958E-05,1.88090725714574E-05,30.05859375,0,0
-2.22153248614632E-05,1.59086721396307E-05,30.05859375,0,0
-3.38839890900999E-05,2.27932850975776E-05,30.05859375,0,0
-2.90227490040706E-05,1.6161635358003E-05,30.05859375,0,0
-3.6312918382464E-05,1.91546987480251E-05,30.05859375,0,0
-3.43156534654554E-05,1.55133566295262E-05,30.05859375,0,0
-3.8594807847403E-05,1.74817687366158E-05,30.05859375,0,0
-3.62766586476937E-05,1.60570034495322E-05,30.05859375,0,0
-3.58096149284393E-05,1.69241411640542E-05,30.05859375,0,0
-3.2431347790407E-05,1.63238401000854E-05,30.05859375,0,0
-2.86549602606101E-05,1.4470476344286E-05,30.05859375,0,0
-2.45506453211419E-05,1.17135841719573E-05,30.05859375,0,0
-2.07973007491091E-05,1.00457582448144E-05,30.05859375,0,0
-2.12234608625295E-05,1.17372592285392E-05,30.05859375,0,0
-1.99197475012625E-05,1.20620206871536E-05,30.05859375,0,0
-1.96810578927398E-05,1.09540069388459E-05,30.05859375,0,0
-1.65637648024131E-05,6.0634911278612E-06,30.05859375,0,0
-1.55549587361747E-05,3.38030326929584E-06,30.05859375,0,0
-1.29309455587645E-05,1.67658527061576E-07,30.05859375,0,0
-1.34759484353708E-05,-2.04449247576122E-06,30.05859375,0,0
-1.29159225252806E-05,-5.69794974580873E-06,30.05859375,0,0
-1.39219155244064E-05,-6.28898351351381E-06,30.05859375,0,0
-1.35785921884235E-05,-5.7361539802514E-06,30.05859375,0,0
-1.52867960423464E-05,-3.15669785777573E-06,30.05859375,0,0
-1.68553542607697E-05,-6.01119722887233E-07,30.05859375,0,0
-1.83490064955549E-05,3.76545585822896E-06,30.05859375,0,0
-1.8975100829266E-05,1.01318682936835E-05,30.05859375,0,0
-1.98086709133349E-05,1.67083580890903E-05,30.05859375,0,0
-1.75861296156654E-05,1.5382322089863E-05,30.05859375,0,0
-2.65182152361376E-05,2.10805992537644E-05,30.05859375,0,0
-2.28579538088525E-05,1.70372586580925E-05,30.05859375,0,0
-2.68707153736614E-05,2.3569120457978E-05,30.05859375,0,0
-2.00588874577079E-05,2.15398395084776E-05,30.05859375,0,0
-1.93673149624374E-05,2.55506638495717E-05,30.05859375,0,0
-1.75410677911714E-05,2.42088917730143E-05,30.05859375,0,0
-1.97237914107973E-05,2.33397859119577E-05,30.05859375,0,0
-1.88128669833532E-05,2.13716684811516E-05,30.05859375,0,0
-1.75353870872641E-05,2.03916897589806E-05,30.05859375,0,0
-1.59423871082254E-05,1.80276147148106E-05,30.05859375,0,0
-1.26942722999956E-05,1.41726713991375E-05,30.05859375,0,0
-1.10512200990343E-05,1.1122128853458E-05,30.05859375,0,0
-9.21712580748135E-06,7.22361210137024E-06,30.05859375,0,0
-1.05650860859896E-05,7.176835424616E-06,30.05859375,0,0
-1.12555353553034E-05,7.08844208929804E-06,30.05859375,0,0
-1.43796269185259E-05,8.32900241221068E-06,30.05859375,0,0
-1.48066665133229E-05,6.65149354972527E-06,30.05859375,0,0
-1.54934605234303E-05,7.01535191183211E-06,30.05859375,0,0
-1.60229246830568E-05,6.76542185829021E-06,30.05859375,0,0
-2.18817713175667E-05,8.28430256660795E-06,30.05859375,0,0
-2.95507015835028E-05,8.01060195954051E-06,30.05859375,0,0
-3.84224076697137E-05,6.44211968392483E-06,30.05859375,0,0
-4.45117548224516E-05,4.56903626400162E-06,30.05859375,0,0
-4.78108631796204E-05,6.20755463387468E-06,30.05859375,0,0
-4.79687041661236E-05,7.46822888686438E-06,30.05859375,0,0
-4.68028665636666E-05,7.28641225578031E-06,30.05859375,0,0
-3.68586624972522E-05,5.89409364692983E-06,30.05859375,0,0
-5.27434167452157E-05,8.280892870971E-06,30.05859375,0,0
-4.13262569054496E-05,5.49597962162807E-06,30.05859375,0,0
-5.15954779984895E-05,4.22722996518132E-06,30.05859375,0,0
-4.19865755247884E-05,1.21192272217741E-06,30.05859375,0,0
-4.43506105511915E-05,1.22405606362008E-06,30.05859375,0,0
-3.6929235648131E-05,-1.10498353933508E-06,30.05859375,0,0
-3.42104431183543E-05,-1.86410420610628E-06,30.05859375,0,0
-2.77088111033663E-05,-1.33567004922952E-06,30.05859375,0,0
-2.37186632148223E-05,-7.3543435519241E-07,30.05859375,0,0
-2.02022056328133E-05,-1.14818851670861E-06,30.05859375,0,0
-1.4612100130762E-05,-1.45377941862534E-06,30.05859375,0,0
-1.10330011011683E-05,-1.41152463584149E-06,30.05859375,0,0
-3.94415201299125E-06,-2.67336372417049E-06,30.05859375,0,0
-1.20086190236179E-06,-2.34462709158834E-06,30.05859375,0,0
6.19476031715749E-06,-2.80286201359559E-07,30.05859375,0,0
9.82141409622272E-06,3.3610715490795E-06,30.05859375,0,0
1.48179287862149E-05,5.38900985702639E-06,44.6484375,0,0
1.02190679172054E-05,8.01361329649808E-06,44.6484375,0,0
3.82648431695998E-06,1.05614872154547E-05,44.6484375,0,0
-5.93500817558379E-06,1.36308544824715E-05,44.6484375,0,0
-1.05961717054015E-05,1.56846508616582E-05,44.6484375,0,0
-1.41249865919235E-05,1.57014619617257E-05,44.6484375,0,0
-1.47942637340748E-05,1.40461697810679E-05,44.6484375,0,0
-1.72963736986276E-05,1.45895583045785E-05,44.6484375,0,0
-2.07952161872527E-05,1.87622972589452E-05,44.6484375,0,0
-2.58163709077053E-05,2.29943525482668E-05,44.6484375,0,0
-2.38805823755683E-05,1.94471376744332E-05,44.6484375,0,0
-3.61781239917036E-05,2.61149652942549E-05,44.6484375,0,0
-3.19559330819175E-05,1.67573070939397E-05,44.6484375,0,0
-4.12859953939915E-05,2.03600247914437E-05,44.6484375,0,0
-3.79694392904639E-05,1.6141464584507E-05,44.6484375,0,0
-4.01077450078446E-05,1.90116570593091E-05,44.6484375,0,0
-3.89312772313133E-05,1.56915575644234E-05,44.6484375,0,0
-4.38047281932086E-05,1.47031496453565E-05,44.6484375,0,0
-4.70880513603333E-05,1.14505573947099E-05,44.6484375,0,0
-5.1312024879735E-05,1.04575801742612E-05,44.6484375,0,0
-5.53906029381324E-05,1.07726664282382E-05,44.6484375,0,0
-5.56562081328593E-05,8.94302593223983E-06,44.6484375,0,0
-5.40958317287732E-05,7.47589774618973E-06,44.6484375,0,0
-4.89870471938048E-05,5.2283189688751E-06,44.6484375,0,0
-4.66675082861912E-05,7.04356853020727E-06,44.6484375,0,0
-4.15331342082936E-05,6.83035432302859E-06,44.6484375,0,0
-3.85649218515027E-05,8.02490103524178E-06,44.6484375,0,0
-3.51364760717843E-05,6.18747117187013E-06,44.6484375,0,0
-3.53376162820496E-05,5.88682223678916E-06,44.6484375,0,0
-3.29597169184126E-05,4.30782984039979E-06,44.6484375,0,0
-3.03618817270035E-05,5.39028587809298E-06,44.6484375,0,0
-2.43184495047899E-05,5.41044664714718E-06,44.6484375,0,0
-2.02272549358895E-05,6.5027393247874E-06,44.6484375,0,0
-1.57898484758334E-05,7.22959339327645E-06,44.6484375,0,0
-1.01057039501029E-05,7.85868087405106E-06,44.6484375,0,0
-2.35390393754642E-06,6.82431800669292E-06,44.6484375,0,0
6.64591834720341E-06,5.98750602875953E-06,44.6484375,0,0
1.28539522847859E-05,5.76402680962929E-06,44.6484375,0,0
2.22736343857832E-05,1.05811823232216E-05,44.6484375,0,0
2.18800705624744E-05,1.29014224512503E-05,44.6484375,0,0
2.66480983555084E-05,1.62574160640361E-05,44.6484375,0,0
2.3388567569782E-05,1.67146827152465E-05,44.6484375,0,0
2.05411834031111E-05,2.05118158191908E-05,44.6484375,0,0
1.35274640342686E-05,2.27211385208648E-05,44.6484375,0,0
8.68389997776831E-06,2.21764894376975E-05,44.6484375,0,0
5.15304054715671E-06,2.05948108487064E-05,44.6484375,0,0
3.42401608577347E-06,2.23466231545899E-05,44.6484375,0,0
-1.97005462609923E-07,2.56104467553087E-05,44.6484375,0,0
-7.65321965445764E-06,2.65393500740174E-05,44.6484375,0,0
-1.6930396668613E-05,2.40816716541303E-05,44.6484375,0,0
-2.59247517533368E-05,1.97073022718541E-05,44.6484375,0,0
-3.07488262478728E-05,1.74368487932952E-05,44.6484375,0,0
-3.58474644599482E-05,1.60118124767905E-05,44.6484375,0,0
-4.01305733248591E-05,1.53251166921109E-05,44.6484375,0,0
-4.4713535316987E-05,1.37822908072849E-05,44.6484375,0,0
-4.68443249701522E-05,1.25360456877388E-05,44.6484375,0,0
-5.00773494422901E-05,1.0520077921683E-05,44.6484375,0,0
-5.18022607138846E-05,9.47327316680457E-06,44.6484375,0,0
-5.1716880989261E-05,9.789184332476E-06,44.6484375,0,0
-4.98680201417301E-05,1.06242896436015E-05,44.6484375,0,0
-4.8719495680416E-05,8.84124347066972E-06,44.6484375,0,0
-4.78478614240885E-05,5.4028901104175E-06,44.6484375,0,0
-4.63295364170335E-05,3.92186893805047E-06,44.6484375,0,0
-4.27695704274811E-05,5.43618898518616E-06,44.6484375,0,0
-3.07820773741696E-05,5.58374676984386E-06,44.6484375,0,0
-4.28706298407633E-05,5.82667507842416E-06,44.6484375,0,0
-3.07505652017426E-05,1.73253283719532E-06,44.6484375,0,0
-3.66975618817378E-05,3.2378375180997E-06,44.6484375,0,0
-2.51689907599939E-05,2.21832033275859E-06,44.6484375,0,0
-2.39946366491495E-05,4.37232120020781E-06,44.6484375,0,0
-1.48517328852904E-05,6.75270712235942E-06,44.6484375,0,0
-1.27455223264406E-05,1.15682169052889E-05,44.6484375,0,0
-7.99468580225948E-06,1.62806300068041E-05,44.6484375,0,0
