biceps_emg, triceps_emg, subject_position, position_estimate, brace_position
-1.65061737789074E-05,1.32048162413412E-05,1.0546875,0,0
-1.71236679307185E-05,1.16999017336639E-05,1.0546875,0,0
-1.52844477270264E-05,1.07073265098734E-05,1.0546875,0,0
-1.44085388456006E-05,1.089216220862E-05,1.0546875,0,0
-1.50846899487078E-05,9.85985025181435E-06,1.0546875,0,0
-1.62768446898554E-05,9.64429000305245E-06,1.0546875,0,0
-1.83594638656359E-05,1.08968943095533E-05,1.0546875,0,0
-1.80895694938954E-05,1.17594454422942E-05,1.0546875,0,0
-1.92144816537621E-05,1.26076429296518E-05,1.0546875,0,0
-1.71276060427772E-05,1.0646108421497E-05,1.0546875,0,0
-1.70059302035952E-05,6.46407488602563E-06,1.0546875,0,0
-1.64888933795737E-05,1.09190068542375E-06,1.0546875,0,0
-1.86930155905429E-05,-9.03784894035198E-07,1.0546875,0,0
-1.77720612555277E-05,-7.79370282089076E-07,1.0546875,0,0
-1.71156079886714E-05,3.06088367096891E-07,1.0546875,0,0
-1.54383833432803E-05,3.53980311729174E-07,1.0546875,0,0
-1.52200182128581E-05,3.25000371503847E-07,1.0546875,0,0
-1.41171003633644E-05,5.44359011200868E-07,1.0546875,0,0
-1.38046189022134E-05,2.05470701075683E-06,1.0546875,0,0
-1.45357780638733E-05,4.93571724291542E-06,1.0546875,0,0
-1.67006328410935E-05,7.48935008232365E-06,1.0546875,0,0
-1.45885323945549E-05,6.95383005222538E-06,1.0546875,0,0
-2.00271515495842E-05,1.02526701084571E-05,1.0546875,0,0
-1.44689474836923E-05,9.24502910493175E-06,1.0546875,0,0
-1.85502103704493E-05,1.22267538245069E-05,1.0546875,0,0
-1.66660283866804E-05,1.03040601970861E-05,1.0546875,0,0
-1.96178989426699E-05,9.4326569524128E-06,1.0546875,0,0
-1.84023247129517E-05,5.89547607887653E-06,1.0546875,0,0
-2.04111838684184E-05,4.70941813546233E-06,1.0546875,0,0
-2.11755432246719E-05,5.93084632782848E-06,1.0546875,0,0
-2.21384780161316E-05,7.2566572271171E-06,1.0546875,0,0
-2.33197133638896E-05,7.80646951170638E-06,1.0546875,0,0
-2.3364213120658E-05,8.58215662447037E-06,1.0546875,0,0
-2.40475874306867E-05,1.00406668934738E-05,1.0546875,0,0
-2.35933093790663E-05,9.70158635027474E-06,1.0546875,0,0
-2.57334868365433E-05,9.2690652309102E-06,1.0546875,0,0
-2.56679541053018E-05,8.14319719211198E-06,1.0546875,0,0
-2.58464733633446E-05,7.96999302110635E-06,1.0546875,0,0
-2.41224915953353E-05,7.19099807611201E-06,1.0546875,0,0
-2.36113937717164E-05,7.1122726694739E-06,1.0546875,0,0
-2.16076368815266E-05,6.79805316394777E-06,1.0546875,0,0
-2.19128978642402E-05,6.99020256433869E-06,1.0546875,0,0
-2.33046030189143E-05,7.45785882827477E-06,1.0546875,0,0
-2.67058167082723E-05,9.62448575592134E-06,1.0546875,0,0
-2.76185273833107E-05,1.06848174254992E-05,1.0546875,0,0
-2.70422551693628E-05,1.05394165075268E-05,1.0546875,0,0
-2.65609942289302E-05,9.82106939773075E-06,1.0546875,0,0
-2.63071888184641E-05,9.35276329983026E-06,1.0546875,0,0
-2.13650637306273E-05,7.76077467889991E-06,1.0546875,0,0
-2.90758562186966E-05,1.08984513644828E-05,1.0546875,0,0
-1.997379513341E-05,7.33061096980236E-06,1.0546875,0,0
-2.61738987319404E-05,8.62934666656656E-06,1.0546875,0,0
-2.27563468797598E-05,7.21207334208884E-06,1.0546875,0,0
-2.60537744907197E-05,1.03524998849025E-05,1.0546875,0,0
-2.35004117712379E-05,1.23585941764759E-05,1.0546875,0,0
-2.33719711104641E-05,1.31998895085417E-05,1.0546875,0,0
-2.10639427677961E-05,1.17993558887974E-05,1.0546875,0,0
-1.97019508050289E-05,9.60630950430641E-06,1.0546875,0,0
-1.9739864001167E-05,7.40812902222387E-06,1.0546875,0,0
-1.94892836589133E-05,4.75308843306266E-06,1.0546875,0,0
-2.11669848795282E-05,3.29440013047133E-06,1.0546875,0,0
-2.09790887311101E-05,3.86152805731399E-06,1.0546875,0,0
-2.26553383981809E-05,7.33105343897478E-06,1.0546875,0,0
-2.26301708607934E-05,9.24642608879367E-06,1.0546875,0,0
-2.57794417848345E-05,9.53495055000531E-06,1.0546875,0,0
-2.70807977358345E-05,8.23529717308702E-06,1.0546875,0,0
-3.03553260891931E-05,8.71762131282594E-06,1.0546875,0,0
-3.04096047329949E-05,8.64664798427839E-06,1.0546875,0,0
-2.9933886253275E-05,8.57092891237699E-06,1.0546875,0,0
-2.85739533865126E-05,9.38756056712009E-06,1.0546875,0,0
-3.13179480144754E-05,1.11858907985152E-05,1.0546875,0,0
-3.31255105265882E-05,1.12419620563742E-05,1.0546875,0,0
-3.28279784298502E-05,1.07708383438876E-05,1.0546875,0,0
-3.14293574774638E-05,1.0864925570786E-05,1.0546875,0,0
-3.1011466489872E-05,1.06364313978702E-05,1.0546875,0,0
-2.45032133534551E-05,7.75688931753393E-06,1.0546875,0,0
-3.44422078342177E-05,1.02451176644536E-05,1.0546875,0,0
-2.5970968636102E-05,6.87813144395477E-06,1.0546875,0,0
-3.16283003485296E-05,9.73234182310989E-06,1.0546875,0,0
-2.59422940871445E-05,1.03320307971444E-05,1.0546875,0,0
-3.09437709802296E-05,1.47680057125399E-05,1.0546875,0,0
-2.92636632366339E-05,1.54295503307367E-05,1.0546875,0,0
-3.02137359540211E-05,1.39475469040917E-05,1.0546875,0,0
-2.87561688310234E-05,1.15277089207666E-05,1.0546875,0,0
-2.92651438940084E-05,1.02582916952088E-05,1.0546875,0,0
-2.97723963740282E-05,7.4377903729328E-06,1.0546875,0,0
-2.86284630419686E-05,3.14899489239906E-06,1.0546875,0,0
-2.91093001578702E-05,9.66402240010211E-07,1.0546875,0,0
-2.65563339780783E-05,2.04804473469267E-06,1.0546875,0,0
-2.71334174613003E-05,7.39637698643492E-06,1.0546875,0,0
-2.67160849034553E-05,1.19271035146085E-05,1.0546875,0,0
-3.00197316391859E-05,1.53756318468368E-05,1.0546875,0,0
-2.9494151021936E-05,1.57455451699207E-05,1.0546875,0,0
-3.00461197184632E-05,1.44341393024661E-05,1.0546875,0,0
-2.78115985565819E-05,1.15487682705862E-05,1.0546875,0,0
-2.80167932942277E-05,1.06966554085375E-05,1.0546875,0,0
-2.71968019660562E-05,1.00825163826812E-05,1.0546875,0,0
-2.83728859358234E-05,9.22045455808984E-06,1.0546875,0,0
-2.90206917270552E-05,7.80351183493622E-06,1.0546875,0,0
-2.87233287963318E-05,8.18519401946105E-06,1.0546875,0,0
-2.75593993137591E-05,8.92280149855651E-06,1.0546875,0,0
-2.8339703931124E-05,9.30515398067655E-06,1.0546875,0,0
-2.39783421420725E-05,8.58244129631203E-06,1.0546875,0,0
-3.40416809194721E-05,1.48171584442025E-05,1.0546875,0,0
-2.52159152296372E-05,1.48843682836741E-05,1.0546875,0,0
-3.10406685457565E-05,1.7928599845618E-05,1.0546875,0,0
-2.68608946498716E-05,1.5663523299736E-05,1.0546875,0,0
-3.13859927700832E-05,1.49210218296503E-05,1.0546875,0,0
-2.99691164400429E-05,1.32761442728224E-05,1.0546875,0,0
-3.03313245240133E-05,1.41761111080996E-05,1.0546875,0,0
-2.79803880403051E-05,1.54354765982134E-05,1.0546875,0,0
-2.68962994596222E-05,1.599135066499E-05,1.0546875,0,0
-2.50347802648321E-05,1.63882650667802E-05,1.0546875,0,0
-2.16417120100232E-05,1.65625169756822E-05,1.0546875,0,0
-2.08239525818499E-05,1.66585668921471E-05,1.0546875,0,0
-1.87440236913972E-05,1.57717004185542E-05,1.0546875,0,0
-1.96176461031428E-05,1.75040713656927E-05,1.0546875,0,0
-1.86186243809061E-05,1.95142547454452E-05,1.0546875,0,0
-2.05714986805106E-05,1.9680770492414E-05,1.0546875,0,0
-1.97226909222081E-05,1.67186863109237E-05,1.0546875,0,0
-2.02946921490366E-05,1.42935996336746E-05,1.0546875,0,0
-1.73719599843025E-05,1.27300636449945E-05,1.0546875,0,0
-1.60914478328777E-05,1.24629223137163E-05,1.0546875,0,0
-1.47751097756554E-05,1.1100030860689E-05,1.0546875,0,0
-1.61526404554024E-05,9.67439609667053E-06,1.0546875,0,0
-1.69685172295431E-05,9.12917948880931E-06,1.0546875,0,0
-1.71574156411225E-05,1.02641997727915E-05,1.0546875,0,0
-1.65438614203595E-05,1.17202598630683E-05,1.0546875,0,0
-1.69201975950273E-05,1.30986491058138E-05,1.0546875,0,0
-1.460992552893E-05,1.26584718600498E-05,1.0546875,0,0
-2.00045888050226E-05,1.93138621398248E-05,1.0546875,0,0
-1.33530793391401E-05,1.63837048603455E-05,1.0546875,0,0
-1.61010175361298E-05,2.03100862563588E-05,1.0546875,0,0
-1.4552887478203E-05,1.87602472578874E-05,1.0546875,0,0
-1.88352114491863E-05,2.1620255211019E-05,1.0546875,0,0
-1.83881766133709E-05,2.07233952096431E-05,1.0546875,0,0
-1.82022304215934E-05,2.00351132662036E-05,1.0546875,0,0
-1.77079891727772E-05,1.79422022483777E-05,1.0546875,0,0
-1.92368934222031E-05,1.60051495186053E-05,1.0546875,0,0
-2.10156304092379E-05,1.46109114211868E-05,1.0546875,0,0
-2.20642687054351E-05,1.33875455503585E-05,1.0546875,0,0
-2.3781194613548E-05,1.2916095329274E-05,1.0546875,0,0
-2.39819801208796E-05,1.12653815449448E-05,1.0546875,0,0
-2.58214968198445E-05,1.1203417670913E-05,1.0546875,0,0
-2.6286728825653E-05,1.06898078229278E-05,1.0546875,0,0
-2.73458881565603E-05,1.18384305096697E-05,1.0546875,0,0
-2.57367228186922E-05,1.08244203147478E-05,1.0546875,0,0
-2.64878854068229E-05,1.12753459688975E-05,1.0546875,0,0
-2.76457321888302E-05,1.19931055451161E-05,1.0546875,0,0
-2.93303874059347E-05,1.24189800772001E-05,1.0546875,0,0
-2.65589642367559E-05,1.00825473055011E-05,1.0546875,0,0
-2.31250614888268E-05,7.77978311816696E-06,1.0546875,0,0
-2.13760886254022E-05,5.31067234987859E-06,1.0546875,0,0
-2.14499013964087E-05,5.27935299032833E-06,1.0546875,0,0
-2.19381690840237E-05,7.13607232682989E-06,1.0546875,0,0
-2.31888407142833E-05,8.8986871560337E-06,1.0546875,0,0
-2.01493276108522E-05,6.95295284458552E-06,1.0546875,0,0
-2.83757563011022E-05,8.01896658231271E-06,1.0546875,0,0
-2.09436439035926E-05,4.60563796877977E-06,1.0546875,0,0
-2.51397304964485E-05,7.60849616199266E-06,1.0546875,0,0
-1.99498099391349E-05,6.94219579600031E-06,1.0546875,0,0
-2.2140327928355E-05,8.54543304740218E-06,1.0546875,0,0
-1.97868866962381E-05,6.75387991577736E-06,1.0546875,0,0
-2.07284083444392E-05,6.22523111815099E-06,1.0546875,0,0
-1.95551547221839E-05,6.1343639572442E-06,1.0546875,0,0
-1.99613969016355E-05,5.70915472053457E-06,1.0546875,0,0
-2.03952768060844E-05,3.62699825018353E-06,1.0546875,0,0
-1.88432295544771E-05,1.00409272363322E-06,1.0546875,0,0
-1.84830005309777E-05,1.22228254895163E-06,1.0546875,0,0
-1.68483929883223E-05,2.33330479204596E-06,1.0546875,0,0
-1.82513722393196E-05,4.12953522754833E-06,1.0546875,0,0
-1.81856612471165E-05,4.78201855003135E-06,1.0546875,0,0
-2.01619877771009E-05,6.21674234935199E-06,1.0546875,0,0
-1.87907062354498E-05,6.0349721024977E-06,1.0546875,0,0
-1.92137631529476E-05,5.80569576413836E-06,1.0546875,0,0
-1.90273221960524E-05,4.68478992843302E-06,1.0546875,0,0
-2.06574386538705E-05,4.9668483370624E-06,1.0546875,0,0
-1.98773559532128E-05,6.43726116322796E-06,1.0546875,0,0
-1.96506534848595E-05,9.66901734500425E-06,1.0546875,0,0
-1.85732860700227E-05,1.15663133328781E-05,1.0546875,0,0
-1.93093128473265E-05,1.19758351502242E-05,1.0546875,0,0
-2.09276113309897E-05,1.10940663944348E-05,1.0546875,0,0
-2.17274246097077E-05,8.6671743702027E-06,1.0546875,0,0
-1.75886998476926E-05,5.86348824072047E-06,1.0546875,0,0
-2.44107432081364E-05,8.31180568638956E-06,1.0546875,0,0
-1.90488954103785E-05,7.36372703613597E-06,1.0546875,0,0
-2.71034896286437E-05,9.75816965365084E-06,1.0546875,0,0
-2.65712060354417E-05,8.96066740097012E-06,1.0546875,0,0
-2.99314415315166E-05,9.87051771517145E-06,1.0546875,0,0
-2.83910194411874E-05,8.873807018972E-06,1.0546875,0,0
-2.93856774078449E-05,1.12726647785166E-05,1.0546875,0,0
-2.93178527499549E-05,1.39702988235513E-05,1.0546875,0,0
-2.97458118438954E-05,1.52078864630312E-05,1.0546875,0,0
-3.00075262202881E-05,1.49943170981715E-05,1.0546875,0,0
-2.96995076496387E-05,1.38243185574538E-05,1.0546875,0,0
-3.13308773911558E-05,1.24938751469017E-05,1.0546875,0,0
-3.12349911837373E-05,1.04391474451404E-05,1.0546875,0,0
-3.26987392327283E-05,1.01305995485745E-05,1.0546875,0,0
-3.25359178532381E-05,1.02714066088083E-05,1.0546875,0,0
-3.39600665029138E-05,1.08638532765326E-05,1.0546875,0,0
-3.28925380017608E-05,9.29603993427008E-06,1.0546875,0,0
-3.35480690409895E-05,5.65712389288819E-06,1.0546875,0,0
-3.32791969412938E-05,-1.2853859061579E-06,1.0546875,0,0
-3.49119363818318E-05,-4.15591057389975E-06,1.0546875,0,0
-3.56558266503271E-05,-2.85236353647633E-07,1.0546875,0,0
-3.70332818420138E-05,5.39491884410381E-06,1.0546875,0,0
-3.68018445442431E-05,8.10683013696689E-06,1.0546875,0,0
-3.65306477760896E-05,9.62083231570432E-06,1.0546875,0,0
-3.64749575965106E-05,9.88968349702191E-06,1.0546875,0,0
-3.59013174602296E-05,1.03442707768409E-05,1.0546875,0,0
-2.69376869255211E-05,1.00690958788618E-05,1.0546875,0,0
-3.57057069777511E-05,1.36661628857837E-05,1.0546875,0,0
-2.46066847466864E-05,7.42742486181669E-06,1.0546875,0,0
-3.18757847708184E-05,8.57784471008927E-06,1.0546875,0,0
-2.486040648364E-05,6.51661366646294E-06,1.0546875,0,0
-2.82794153463328E-05,6.47564320388483E-06,1.0546875,0,0
-2.50828452408314E-05,4.29451074523968E-06,1.0546875,0,0
-2.65231319644954E-05,4.93254583489033E-06,1.0546875,0,0
-2.53234957199311E-05,6.98029998602578E-06,1.0546875,0,0
-2.47924181167036E-05,7.61625278755673E-06,1.0546875,0,0
-2.34309118241072E-05,6.12089843343711E-06,1.0546875,0,0
-2.03777435672237E-05,5.54635062144371E-06,1.0546875,0,0
-1.9628334484878E-05,6.18414151176694E-06,1.0546875,0,0
-1.66499376064166E-05,5.26714075022028E-06,1.0546875,0,0
-1.72847303474555E-05,5.31678051629569E-06,1.0546875,0,0
-1.47592627399717E-05,4.26626820626552E-06,1.0546875,0,0
-1.41074933708296E-05,4.35021729572327E-06,1.0546875,0,0
-1.06147645055898E-05,5.26488565810723E-06,1.0546875,0,0
-1.2554843124235E-05,9.15865803108318E-06,1.0546875,0,0
-1.38245286507299E-05,1.24852294902666E-05,1.0546875,0,0
-1.68677925103111E-05,1.40332804221543E-05,1.0546875,0,0
-1.61072857736144E-05,1.22058099805145E-05,1.0546875,0,0
-1.59207666001748E-05,1.12527850433253E-05,1.0546875,0,0
-1.509500634711E-05,1.22515884868335E-05,1.0546875,0,0
-1.56824989971938E-05,1.32889590531704E-05,1.0546875,0,0
-1.54199005919509E-05,1.26763552543707E-05,1.0546875,0,0
-1.49522638821509E-05,1.30919252114836E-05,1.0546875,0,0
-1.23091649584239E-05,1.22557848953875E-05,1.0546875,0,0
-1.94656095118262E-05,1.68856695381692E-05,1.0546875,0,0
-1.81521518243244E-05,1.21373896035948E-05,1.0546875,0,0
-2.18748900806531E-05,1.58354159793817E-05,1.0546875,0,0
-1.94513941096375E-05,1.50209225466824E-05,1.0546875,0,0
-2.15076179301832E-05,1.93940486497013E-05,1.0546875,0,0
-2.13457278732676E-05,1.87009591172682E-05,1.0546875,0,0
-2.17025681195082E-05,1.76911253220169E-05,1.0546875,0,0
-2.12253944482654E-05,1.71743195096496E-05,1.0546875,0,0
-2.12992817978375E-05,1.80747611011611E-05,1.0546875,0,0
-2.11625738302246E-05,1.80132865352789E-05,1.0546875,0,0
-2.11172191484366E-05,1.60564941324992E-05,1.0546875,0,0
-2.23624610953266E-05,1.46449674502946E-05,1.0546875,0,0
-2.27252985496307E-05,1.32273071358213E-05,1.0546875,0,0
-2.35978368436918E-05,1.47790169648943E-05,1.0546875,0,0
-2.25859985221177E-05,1.50418654811801E-05,1.0546875,0,0
-2.31207104661735E-05,1.54329645738471E-05,1.0546875,0,0
-2.31155536312144E-05,1.3216176739661E-05,1.0546875,0,0
-2.44944476435194E-05,1.18958387247403E-05,1.0546875,0,0
-2.44171496888157E-05,1.07038804344484E-05,1.0546875,0,0
-2.37603508139728E-05,1.23540748973028E-05,1.0546875,0,0
-2.28492481255671E-05,1.34229148898157E-05,1.0546875,0,0
-2.58035452134209E-05,1.33114235723042E-05,1.0546875,0,0
-2.95272748189745E-05,1.28841074911179E-05,1.0546875,0,0
-3.1183757528197E-05,1.38880086524296E-05,1.0546875,0,0
-3.02689877571538E-05,1.37564511533128E-05,1.0546875,0,0
-3.10292052745353E-05,1.25497754197568E-05,1.0546875,0,0
-2.74715748673771E-05,9.13498024601722E-06,1.0546875,0,0
-4.03028934670147E-05,1.19004980660975E-05,1.0546875,0,0
-3.1988944101613E-05,7.35505454940721E-06,1.0546875,0,0
-3.94553680962417E-05,8.48738363856683E-06,1.0546875,0,0
-3.34265205310658E-05,7.52296136852237E-06,1.0546875,0,0
-3.60571320925374E-05,1.1148322300869E-05,1.0546875,0,0
-3.29661052091978E-05,9.4150118457037E-06,1.0546875,0,0
-3.5515047784429E-05,8.54182962939376E-06,1.0546875,0,0
-3.50637601513881E-05,8.86840734892758E-06,1.0546875,0,0
-3.3930718927877E-05,9.69682241702685E-06,1.0546875,0,0
-3.31029514200054E-05,8.32989280752372E-06,1.0546875,0,0
-3.18968995998148E-05,6.76654462949955E-06,1.0546875,0,0
-3.26320114254486E-05,8.64654793986119E-06,1.0546875,0,0
-3.05825305986218E-05,1.16643132059835E-05,1.0546875,0,0
-3.14835633616894E-05,1.56949263327988E-05,1.0546875,0,0
-2.89148338197265E-05,1.72045238286955E-05,1.0546875,0,0
-2.75973288808018E-05,1.74682263605064E-05,1.0546875,0,0
-2.27283308049664E-05,1.4900013411534E-05,1.0546875,0,0
-2.10802700166823E-05,1.37084225571016E-05,1.0546875,0,0
-1.87145196832716E-05,1.22015599117731E-05,1.0546875,0,0
-1.97590670723002E-05,1.17238114398788E-05,1.0546875,0,0
-1.86368270078674E-05,1.11957015178632E-05,1.0546875,0,0
-1.89720576599939E-05,1.18279658636311E-05,1.0546875,0,0
-1.90949704119703E-05,1.19853757496458E-05,1.0546875,0,0
-1.98289944819408E-05,1.28310148284072E-05,1.0546875,0,0
-2.03807539946865E-05,1.32328514155233E-05,1.0546875,0,0
-2.15415784623474E-05,1.38546656671679E-05,1.0546875,0,0
-1.80060815182514E-05,9.92407694866415E-06,1.0546875,0,0
-2.41929792537121E-05,1.17759918794036E-05,1.0546875,0,0
-1.63307995535433E-05,6.55424946671701E-06,1.0546875,0,0
-2.0448418581509E-05,8.37642710393993E-06,1.0546875,0,0
-1.68656770256348E-05,4.1706107367645E-06,1.0546875,0,0
-2.01243456103839E-05,4.46456488134572E-06,1.0546875,0,0
-1.92989336937899E-05,1.8358169882049E-06,1.0546875,0,0
-2.11240621865727E-05,1.79197070337977E-06,1.0546875,0,0
-2.14562551263953E-05,1.78448215137905E-06,1.0546875,0,0
-2.24849845835706E-05,3.22886421599833E-06,1.0546875,0,0
-2.32488764595473E-05,5.2613017942349E-06,1.0546875,0,0
-2.29522865993204E-05,9.00947179616196E-06,1.0546875,0,0
-2.44985258177621E-05,1.37155466291006E-05,1.0546875,0,0
-2.32315269386163E-05,1.54527842823882E-05,1.0546875,0,0
-2.27348973567132E-05,1.71050960489083E-05,1.0546875,0,0
-2.1166299120523E-05,1.69323302543489E-05,1.0546875,0,0
-2.26176507567288E-05,1.74691012944095E-05,1.0546875,0,0
-2.22375419980381E-05,1.65321762324311E-05,1.0546875,0,0
-2.38055399677251E-05,1.72225209098542E-05,1.0546875,0,0
-2.42580517806346E-05,1.51720732901595E-05,1.0546875,0,0
-2.6519839593675E-05,9.7426573120174E-06,1.0546875,0,0
-2.66026836470701E-05,2.63268020717078E-06,1.0546875,0,0
-2.60094966506585E-05,5.25108873716817E-07,1.0546875,0,0
-2.48222931986675E-05,1.34317826905317E-06,1.0546875,0,0
-2.43632730416721E-05,4.90163483846118E-06,1.0546875,0,0
-2.2971888029133E-05,8.49135176395066E-06,1.0546875,0,0
-2.08870333153754E-05,1.17179070002749E-05,1.0546875,0,0
-1.41724140121369E-05,1.13090600279975E-05,1.0546875,0,0
-1.84046984941233E-05,1.48677136166953E-05,1.0546875,0,0
-1.19813184937811E-05,8.63735658640508E-06,1.0546875,0,0
-1.61814441526076E-05,1.0075576028612E-05,1.0546875,0,0
-1.39612975544878E-05,7.102732979547E-06,1.0546875,0,0
-1.62759606610052E-05,9.19206831895281E-06,1.0546875,0,0
-1.46378542922321E-05,1.00662791737705E-05,1.0546875,0,0
-1.64484845299739E-05,1.27822868307703E-05,1.0546875,0,0
-1.71349784068298E-05,1.28558904179954E-05,1.0546875,0,0
-1.75752120412653E-05,1.12774141598493E-05,1.0546875,0,0
-1.83219162863679E-05,9.92808145383606E-06,1.0546875,0,0
-1.85387561941752E-05,9.16589033295168E-06,1.0546875,0,0
-1.84647215064615E-05,9.99541407509241E-06,1.0546875,0,0
-1.67420821526321E-05,8.96482379175723E-06,1.0546875,0,0
-1.83746797119966E-05,8.5237943494576E-06,1.0546875,0,0
-1.93948490050389E-05,8.003006769286E-06,1.0546875,0,0
-2.18026289076079E-05,9.48450906435028E-06,1.0546875,0,0
-2.2366150005837E-05,9.20224465517094E-06,1.0546875,0,0
-2.30274708883371E-05,9.2626032710541E-06,1.0546875,0,0
-2.08126530196751E-05,8.19012348074466E-06,1.0546875,0,0
-2.06353706744267E-05,8.48230683914153E-06,1.0546875,0,0
-2.17517572309589E-05,8.76955800777068E-06,1.0546875,0,0
-2.35233655985212E-05,1.00040906545473E-05,1.0546875,0,0
-2.21881091420073E-05,1.0545252735028E-05,1.0546875,0,0
-2.25594740186352E-05,1.08736039692303E-05,1.0546875,0,0
-2.53674552368466E-05,1.06293364297017E-05,1.0546875,0,0
-2.72405904979678E-05,1.02103831522982E-05,1.0546875,0,0
-2.21779137064004E-05,8.04119918029755E-06,1.0546875,0,0
-3.15573815896641E-05,1.15410339276423E-05,1.0546875,0,0
-2.32671009143814E-05,1.01653367892141E-05,1.0546875,0,0
-2.80774420389207E-05,1.44400919452892E-05,1.0546875,0,0
-2.34036942856619E-05,1.31069364215364E-05,1.0546875,0,0
-2.75073998636799E-05,1.31921497086296E-05,1.0546875,0,0
-2.69869797193678E-05,1.32584445964312E-05,1.0546875,0,0
-3.04386721836636E-05,1.6313408195856E-05,1.0546875,0,0
-3.16564983222634E-05,1.80819806701038E-05,1.0546875,0,0
-3.2807747629704E-05,1.90766622836236E-05,1.0546875,0,0
-3.26290792145301E-05,1.75896329892566E-05,1.0546875,0,0
-3.06436777464114E-05,1.30313419504091E-05,1.0546875,0,0
-3.08141134155449E-05,9.24244432098931E-06,1.0546875,0,0
-3.0279225029517E-05,7.00636928741005E-06,1.0546875,0,0
-3.24369284498971E-05,9.01525618246524E-06,1.0546875,0,0
-3.03112174151465E-05,1.25085680338088E-05,1.0546875,0,0
-2.86166050500469E-05,1.63522545335582E-05,1.0546875,0,0
-2.53195521509042E-05,1.71352967299754E-05,1.0546875,0,0
-2.57020092249149E-05,1.70183975569671E-05,1.0546875,0,0
-2.43249214690877E-05,1.54824283526978E-05,1.0546875,0,0
-2.47175394179067E-05,1.44017831189558E-05,1.0546875,0,0
-2.4334194677067E-05,1.31432325360947E-05,1.0546875,0,0
-2.64448281086516E-05,1.26459763123421E-05,1.0546875,0,0
-2.83895133179612E-05,1.07135083453613E-05,1.0546875,0,0
-3.0070657885517E-05,9.8405862445361E-06,1.0546875,0,0
-3.01467152894475E-05,1.17802201202721E-05,1.0546875,0,0
-3.11088297166862E-05,1.35038544613053E-05,1.0546875,0,0
-2.59990065387683E-05,1.0200819815509E-05,1.0546875,0,0
-3.56506352545694E-05,1.3472809769155E-05,1.0546875,0,0
-2.49928907578578E-05,9.01678595255362E-06,1.0546875,0,0
-3.0467792385025E-05,1.10988257802092E-05,1.0546875,0,0
-2.34537983487826E-05,8.51824916026089E-06,1.0546875,0,0
-2.63357906078454E-05,1.09891734609846E-05,1.0546875,0,0
-2.29020115511958E-05,9.30782425712096E-06,1.0546875,0,0
-2.4003622456803E-05,9.2583941295743E-06,1.0546875,0,0
-2.33331829804229E-05,9.34491890802747E-06,1.0546875,0,0
-2.41215457208455E-05,6.57914597468334E-06,1.0546875,0,0
-2.48649612331064E-05,7.99630697656539E-07,1.0546875,0,0
-2.41271118284203E-05,-1.93486425814626E-06,1.0546875,0,0
-2.68766925728414E-05,2.3958154997672E-06,1.0546875,0,0
-2.74767480732407E-05,7.55073642721982E-06,1.0546875,0,0
-2.913784555858E-05,1.08382273538155E-05,1.0546875,0,0
-2.69979536824394E-05,9.81951689027483E-06,1.0546875,0,0
-2.83687077171635E-05,9.65625167737016E-06,1.0546875,0,0
-2.70152195298579E-05,9.10890230443329E-06,1.0546875,0,0
-2.79703308478929E-05,8.64067806105595E-06,1.0546875,0,0
-2.60685210378142E-05,5.66609560337383E-06,1.0546875,0,0
-2.51555484283017E-05,4.01980287279002E-06,1.0546875,0,0
-2.27342661673902E-05,3.91072353522759E-06,1.0546875,0,0
-2.33394548558863E-05,5.54952612219495E-06,1.0546875,0,0
-2.38751435972517E-05,5.46328146810993E-06,1.0546875,0,0
-2.50310586125124E-05,5.08970606460935E-06,1.0546875,0,0
-2.49825625360245E-05,6.46252283331705E-06,1.0546875,0,0
-2.40808749367716E-05,9.5687555585755E-06,1.0546875,0,0
-1.9365379557712E-05,1.02237536339089E-05,1.0546875,0,0
-2.7446305466583E-05,1.50254782056436E-05,1.0546875,0,0
-2.07228094950551E-05,1.15871935122414E-05,1.0546875,0,0
-2.57816827797797E-05,1.38536870508688E-05,1.0546875,0,0
-2.25464791583363E-05,1.34738747874508E-05,1.0546875,0,0
-2.55196973739658E-05,1.63814020197606E-05,1.0546875,0,0
-2.36742562265135E-05,1.31680189952021E-05,1.0546875,0,0
-2.54532933467999E-05,9.19348804018227E-06,1.0546875,0,0
-2.48522592301015E-05,7.69236976339016E-06,1.0546875,0,0
-2.39908586081583E-05,1.0330007171433E-05,1.0546875,0,0
-2.40917961491505E-05,1.32605264298036E-05,1.0546875,0,0
-2.39609216805547E-05,1.43823626785888E-05,1.0546875,0,0
-2.64229965978302E-05,1.32830964503228E-05,1.0546875,0,0
-2.76577702607028E-05,1.09348611658788E-05,1.0546875,0,0
-2.89592317130882E-05,1.21949224194395E-05,1.0546875,0,0
-2.66235201706877E-05,1.35463778860867E-05,1.0546875,0,0
-2.66961251327302E-05,1.57960330398055E-05,1.0546875,0,0
-2.54989517998183E-05,1.72695636138087E-05,1.0546875,0,0
-2.65274356934242E-05,1.99132555280812E-05,1.0546875,0,0
-2.5282102797064E-05,2.01989460038021E-05,1.0546875,0,0
-2.45152532443171E-05,1.93326977750985E-05,1.0546875,0,0
-2.31790381803876E-05,1.70060502568958E-05,1.0546875,0,0
-2.4703662347747E-05,1.66004538186826E-05,1.0546875,0,0
-2.5480609110673E-05,1.49524621519959E-05,1.0546875,0,0
-2.53295347647509E-05,1.26436007121811E-05,1.0546875,0,0
-2.51211422437336E-05,1.23996687761974E-05,1.0546875,0,0
-2.56276816799073E-05,1.24242869787849E-05,1.0546875,0,0
-2.05634532903787E-05,1.00744928204222E-05,1.0546875,0,0
-2.89529361907626E-05,1.52410557348048E-05,1.0546875,0,0
-2.13873645407148E-05,1.32622608361999E-05,1.0546875,0,0
-2.59340777120087E-05,1.57784779730719E-05,1.0546875,0,0
-2.05560718313791E-05,1.1730898222595E-05,1.0546875,0,0
-2.12739978451282E-05,1.01274708868004E-05,1.0546875,0,0
-1.87662026291946E-05,7.79345282353461E-06,1.0546875,0,0
-2.30460500461049E-05,9.15226246434031E-06,1.0546875,0,0
-2.44077982642921E-05,9.3327262220555E-06,1.0546875,0,0
-2.43023241637275E-05,9.37339609663468E-06,1.0546875,0,0
-2.37906115216902E-05,9.7580468718661E-06,1.0546875,0,0
-2.31972408073489E-05,1.16209348561824E-05,1.0546875,0,0
-2.45476712734671E-05,1.49118641274981E-05,1.0546875,0,0
-2.47117313847411E-05,1.53841683641076E-05,1.0546875,0,0
-2.70058426394826E-05,1.58376660692738E-05,1.0546875,0,0
-2.42192581936251E-05,1.66005975188455E-05,1.0546875,0,0
-2.16318658203818E-05,1.90579412446823E-05,1.0546875,0,0
-1.81634914042661E-05,1.80573588295374E-05,1.0546875,0,0
-1.89509737538174E-05,1.47285581988399E-05,1.0546875,0,0
-1.86229335668031E-05,9.42457427299814E-06,1.0546875,0,0
-2.00319009309169E-05,7.94039988250006E-06,1.0546875,0,0
-2.05208489205688E-05,8.64775392983574E-06,1.0546875,0,0
-2.31392405112274E-05,9.35472598939668E-06,1.0546875,0,0
-2.45646751864115E-05,7.57688121666433E-06,1.0546875,0,0
-2.56971070484724E-05,6.26088922217605E-06,1.0546875,0,0
-2.57590290857479E-05,6.54475388728315E-06,1.0546875,0,0
-2.63179335888708E-05,7.27521228327532E-06,1.0546875,0,0
-2.19246539927553E-05,5.04217587149469E-06,1.0546875,0,0
-3.19407517963555E-05,8.86820907908259E-06,1.0546875,0,0
-2.5906821974786E-05,1.12270590761909E-05,1.0546875,0,0
-3.19616774504539E-05,1.35262098410749E-05,1.0546875,0,0
-2.66245351667749E-05,1.09573302324861E-05,1.0546875,0,0
-2.86779159068828E-05,1.27418934425805E-05,1.0546875,0,0
-2.52588652074337E-05,1.37712331707007E-05,1.0546875,0,0
-2.6203948436887E-05,1.38750892801909E-05,1.0546875,0,0
-2.64087448158534E-05,1.23537365652737E-05,1.0546875,0,0
-2.73254336207174E-05,1.0445424777572E-05,1.0546875,0,0
-2.72876586677739E-05,9.19782087294152E-06,1.0546875,0,0
-2.42816804529866E-05,9.85015049081994E-06,1.0546875,0,0
-2.24268824240426E-05,1.06686220533447E-05,1.0546875,0,0
-1.99465084733674E-05,9.74240447249031E-06,1.0546875,0,0
-2.11612295970554E-05,9.2565460363403E-06,1.0546875,0,0
-2.06189797609113E-05,1.01878858913551E-05,1.0546875,0,0
-2.24317464017076E-05,1.26682261907263E-05,1.0546875,0,0
-2.18715140363202E-05,1.34296678879764E-05,1.0546875,0,0
-2.3228600184666E-05,1.35690461320337E-05,1.0546875,0,0
-2.25522780965548E-05,1.2752218026435E-05,1.0546875,0,0
-2.31556496146368E-05,1.24888001664658E-05,1.0546875,0,0
-2.166611920984E-05,1.13417481770739E-05,1.0546875,0,0
-2.1463587472681E-05,1.00078959803795E-05,1.0546875,0,0
-2.0781320927199E-05,7.81299877417041E-06,1.0546875,0,0
-2.14563187910244E-05,6.80562834531884E-06,1.0546875,0,0
-2.30218738579424E-05,6.43457224214217E-06,1.0546875,0,0
-2.42746937146876E-05,3.65148480341304E-06,1.0546875,0,0
-1.82526237040292E-05,-2.0399065761012E-06,1.0546875,0,0
-2.48721244133776E-05,-4.74277112516575E-06,1.0546875,0,0
-1.86212437256472E-05,-1.97770941667841E-06,1.0546875,0,0
-2.49359200097388E-05,2.04375555767911E-06,1.0546875,0,0
-2.22307862713933E-05,2.98111081065144E-06,1.0546875,0,0
-2.51784877036698E-05,5.36990773980506E-06,1.0546875,0,0
-2.20359779632417E-05,8.4142175182933E-06,1.0546875,0,0
-2.34080689551774E-05,8.45217346068239E-06,1.0546875,0,0
-2.50949924520683E-05,5.28231021235115E-06,1.0546875,0,0
-2.6704192350735E-05,2.47864522862074E-06,1.0546875,0,0
-2.68970525212353E-05,2.9217621886346E-06,1.0546875,0,0
-2.63950096268673E-05,4.84968995806412E-06,1.0546875,0,0
-2.79524610959925E-05,5.43104761163704E-06,1.0546875,0,0
-2.68615312961629E-05,4.29352576247766E-06,1.0546875,0,0
-2.63743531832006E-05,4.85947839479195E-06,1.0546875,0,0
-2.34744056797354E-05,8.48627951199887E-06,1.0546875,0,0
-2.34117833315395E-05,1.17084664452705E-05,1.0546875,0,0
-2.23385941353627E-05,1.18964444482117E-05,1.0546875,0,0
-2.36044106713962E-05,1.12709167296998E-05,1.0546875,0,0
-2.28090120799607E-05,1.24103225971339E-05,1.0546875,0,0
-2.28093376790639E-05,1.36547632791917E-05,1.0546875,0,0
-2.13384828384733E-05,1.20765380415833E-05,1.0546875,0,0
-2.13001894735498E-05,7.11743723513791E-06,1.0546875,0,0
-2.14560641325079E-05,2.5174856546073E-06,1.0546875,0,0
-2.21635364141548E-05,1.90763671525929E-06,1.0546875,0,0
-2.2566824554815E-05,3.84320628654677E-06,1.0546875,0,0
-2.35839979723096E-05,6.55420217299252E-06,1.0546875,0,0
-1.72945983649697E-05,8.56737460708246E-06,1.0546875,0,0
-2.27339041884989E-05,1.37774295581039E-05,1.0546875,0,0
-1.61848820425803E-05,1.0690338058339E-05,1.0546875,0,0
-2.12870727409609E-05,1.14402664621593E-05,1.0546875,0,0
-1.64310476975515E-05,1.00162651506253E-05,1.0546875,0,0
-1.81242339749588E-05,1.20815020636655E-05,1.0546875,0,0
-1.55815014295513E-05,1.22500505312928E-05,1.0546875,0,0
-1.72383497556439E-05,1.15491575343185E-05,1.0546875,0,0
-1.78655336640077E-05,9.88394640444312E-06,1.0546875,0,0
-1.92544048331911E-05,9.59422777668806E-06,1.0546875,0,0
-2.06461209018016E-05,1.13515798148001E-05,1.0546875,0,0
-2.10544294532156E-05,1.22077253763564E-05,1.0546875,0,0
-2.23310707951896E-05,1.14337526611052E-05,1.0546875,0,0
-2.12148552236613E-05,9.38447374210227E-06,1.0546875,0,0
-2.14472765946994E-05,9.56823623710079E-06,1.0546875,0,0
-1.96249784494285E-05,1.04420923889847E-05,1.0546875,0,0
-2.03697527467739E-05,1.21293869597139E-05,1.0546875,0,0
-1.95914308278589E-05,1.11281569843413E-05,1.0546875,0,0
-2.08184246730525E-05,8.65844594954979E-06,1.0546875,0,0
-2.06172317120945E-05,7.17965713192825E-06,1.0546875,0,0
-2.28890112339286E-05,9.35123716772068E-06,1.0546875,0,0
-2.46552226599306E-05,1.30921398522332E-05,1.0546875,0,0
-2.68861913355067E-05,1.72914660652168E-05,1.0546875,0,0
-2.64165028056595E-05,1.8931679733214E-05,1.0546875,0,0
-2.56629791692831E-05,1.85108292498626E-05,1.0546875,0,0
-2.45819755946286E-05,1.71782594406977E-05,1.0546875,0,0
-2.35133047681302E-05,1.6610516468063E-05,1.0546875,0,0
-1.82475941983284E-05,1.53671244333964E-05,1.0546875,0,0
-2.63228375843028E-05,2.29353427130263E-05,1.0546875,0,0
-2.17298202187521E-05,1.7925620340975E-05,1.0546875,0,0
-2.79737359960563E-05,1.96351938939188E-05,1.0546875,0,0
-2.32741549552884E-05,1.13703890747274E-05,1.0546875,0,0
-2.4398841560469E-05,8.01575515652075E-06,1.0546875,0,0
-2.32355105254101E-05,5.20375260748551E-06,1.0546875,0,0
-2.47137104452122E-05,8.29910641186871E-06,1.0546875,0,0
-2.239788773295E-05,1.08007989183534E-05,1.0546875,0,0
-2.02835508389398E-05,1.2254124158062E-05,1.0546875,0,0
-1.92071001947625E-05,1.25985125123407E-05,1.0546875,0,0
-1.86496017704485E-05,1.15678003567155E-05,1.0546875,0,0
-2.00755348487291E-05,1.16674837045139E-05,1.0546875,0,0
-2.04087700694799E-05,1.05935096144094E-05,1.0546875,0,0
-2.22013168240665E-05,1.12990283014369E-05,1.0546875,0,0
-2.1142084733583E-05,1.16653745863005E-05,1.0546875,0,0
-2.12633422052022E-05,1.37578390422277E-05,1.0546875,0,0
-1.88945577974664E-05,1.28675537780509E-05,1.0546875,0,0
-1.88526919373544E-05,1.18852367450017E-05,1.0546875,0,0
-1.79647868208122E-05,1.00384022516664E-05,1.0546875,0,0
-1.86949910130352E-05,1.06324414446135E-05,1.0546875,0,0
-1.79740109160775E-05,1.07071464299224E-05,1.0546875,0,0
-1.88692774827359E-05,1.23482304843492E-05,1.0546875,0,0
-2.00566846615402E-05,1.29118980112253E-05,1.0546875,0,0
-2.08653764275368E-05,1.08694948721677E-05,1.0546875,0,0
-1.96696983039146E-05,6.79171807860257E-06,1.0546875,0,0
-1.88279973372119E-05,4.23375558966654E-06,1.0546875,0,0
-1.5677487681387E-05,3.98058045902872E-06,1.0546875,0,0
-2.24955674639205E-05,7.68392237660009E-06,1.0546875,0,0
-1.71120827872073E-05,8.37455900182249E-06,1.0546875,0,0
-2.17412471101852E-05,9.07871708477614E-06,1.0546875,0,0
-2.00846716325032E-05,8.83613665791927E-06,1.0546875,0,0
-2.29245706577785E-05,1.21221410154249E-05,1.0546875,0,0
-2.09491427085595E-05,1.56956102728145E-05,1.0546875,0,0
-2.10796788451262E-05,1.67609687196091E-05,1.0546875,0,0
-2.10550879273796E-05,1.48390499816742E-05,1.0546875,0,0
-2.15282889257651E-05,1.18185698738671E-05,1.0546875,0,0
-2.14084575418383E-05,1.15375833047437E-05,1.0546875,0,0
-2.01054135686718E-05,1.36469707285869E-05,1.0546875,0,0
-2.00992890313501E-05,1.41477130455314E-05,1.0546875,0,0
-1.90079535968835E-05,1.19772694233689E-05,1.0546875,0,0
-1.95810243894812E-05,1.07249461507308E-05,1.0546875,0,0
-1.76561261469033E-05,1.04752898550942E-05,1.0546875,0,0
-1.67604921443854E-05,9.66760126175359E-06,1.0546875,0,0
-1.62434171215864E-05,8.13762108009541E-06,1.0546875,0,0
-1.90169521374628E-05,8.26582891022554E-06,1.0546875,0,0
-1.98479065147694E-05,9.52450591285015E-06,1.0546875,0,0
-2.06456843443448E-05,1.10335276986007E-05,1.0546875,0,0
-2.05821452254895E-05,1.17112967927824E-05,1.0546875,0,0
-2.20055480895098E-05,1.14999702418572E-05,1.0546875,0,0
-2.34926883422304E-05,9.94972833723295E-06,1.0546875,0,0
-2.56056173384422E-05,8.57156192068942E-06,1.0546875,0,0
-2.59721964539494E-05,8.57345730764791E-06,1.0546875,0,0
-2.43804370256839E-05,8.84506152942777E-06,1.0546875,0,0
-1.87896457646275E-05,7.61194723963854E-06,1.0546875,0,0
-2.72302841040073E-05,1.11117533379002E-05,1.0546875,0,0
-2.27624586841557E-05,9.00950362847652E-06,1.0546875,0,0
-2.98432551062433E-05,1.01845998869976E-05,1.0546875,0,0
-2.95071768050548E-05,7.7097784014768E-06,1.0546875,0,0
-3.6814140912611E-05,9.72863472270546E-06,1.0546875,0,0
-3.71593050658703E-05,1.0359774933022E-05,1.0546875,0,0
-3.85008715966251E-05,1.25225215015234E-05,1.0546875,0,0
-3.64858024113346E-05,1.3668190149474E-05,1.0546875,0,0
-3.46271845046431E-05,1.50034129546839E-05,1.0546875,0,0
-3.34128380927723E-05,1.64213906828081E-05,1.0546875,0,0
-3.23738240695093E-05,1.73815606103744E-05,1.0546875,0,0
-3.3483487641206E-05,1.85496191988932E-05,1.0546875,0,0
-3.38872268912382E-05,1.83443662535865E-05,1.0546875,0,0
-3.65216874342877E-05,1.82974581548478E-05,1.0546875,0,0
-3.52859933627769E-05,1.68268561537843E-05,1.0546875,0,0
-3.50982700183522E-05,1.61912157636834E-05,1.0546875,0,0
-3.3724991226336E-05,1.4288731108536E-05,1.0546875,0,0
-3.52260358340573E-05,1.22791889225482E-05,1.0546875,0,0
-3.46587657986674E-05,1.02149797385209E-05,1.0546875,0,0
-3.39530233759433E-05,1.12730003820616E-05,1.0546875,0,0
-3.10825853375718E-05,1.37331398946117E-05,1.0546875,0,0
-3.11942785629071E-05,1.59045994223561E-05,1.0546875,0,0
-3.12537813442759E-05,1.3725523785979E-05,1.0546875,0,0
-3.1295909138862E-05,9.7394267868367E-06,1.0546875,0,0
-3.25641631206963E-05,7.9303154052468E-06,1.0546875,0,0
-3.46103115589358E-05,8.43403267936083E-06,1.0546875,0,0
-2.84437846858054E-05,6.94642949383706E-06,1.0546875,0,0
-4.04555139539298E-05,8.28764859761577E-06,1.0546875,0,0
-3.04351397062419E-05,2.45160299527925E-06,1.0546875,0,0
-3.72054128092714E-05,7.38654421184037E-07,1.0546875,0,0
-3.15800607495476E-05,-3.51631979356171E-06,1.0546875,0,0
-3.68535656889435E-05,-1.75126479007304E-06,1.0546875,0,0
-3.49454967363272E-05,6.68800737457786E-07,1.0546875,0,0
-3.70099260180723E-05,2.23014308176062E-06,1.0546875,0,0
-3.51126400346402E-05,2.99003204418113E-06,1.0546875,0,0
-3.34242467943113E-05,4.84064412376028E-06,1.0546875,0,0
-3.24324355460703E-05,5.54651933271089E-06,1.0546875,0,0
-3.11217299895361E-05,4.5663300625165E-06,1.0546875,0,0
-3.14500430249609E-05,3.59983937414654E-06,1.0546875,0,0
-2.81466618616832E-05,2.55026589002227E-06,1.0546875,0,0
-2.78076786344172E-05,4.05541368309059E-06,1.0546875,0,0
-2.48025735345436E-05,5.4584975259786E-06,1.0546875,0,0
-2.44290276896209E-05,6.71059251544648E-06,1.0546875,0,0
-2.10448561119847E-05,6.950426268304E-06,1.0546875,0,0
-2.23774004552979E-05,9.50814228417585E-06,1.0546875,0,0
-2.23760689550545E-05,1.25820042740088E-05,1.0546875,0,0
-2.31033009185921E-05,1.40312868097681E-05,1.0546875,0,0
-1.96665332623525E-05,1.1608566637733E-05,1.0546875,0,0
-1.78315640368965E-05,8.8168626461993E-06,1.0546875,0,0
-1.61060906975763E-05,8.44164060254116E-06,1.0546875,0,0
-1.60416402650299E-05,9.22772960620932E-06,1.0546875,0,0
-1.57151534949662E-05,8.58038220030721E-06,1.0546875,0,0
-1.50235646287911E-05,7.78113189880969E-06,1.0546875,0,0
-1.1627435014816E-05,6.6820039137383E-06,1.0546875,0,0
-1.65256460604724E-05,9.20731690712273E-06,1.0546875,0,0
-1.16416904347716E-05,5.33929551238543E-06,1.0546875,0,0
-1.24270300148055E-05,6.29836176813114E-06,1.0546875,0,0
-9.24245068745222E-06,4.82633049614378E-06,1.0546875,0,0
-1.08491549326573E-05,4.80799144497723E-06,1.0546875,0,0
-1.04628379631322E-05,3.96974155592034E-06,1.0546875,0,0
-1.23501667985693E-05,3.79126640837057E-06,1.0546875,0,0
-1.29363797896076E-05,4.07136622015969E-06,1.0546875,0,0
-1.23907193483319E-05,5.64579431738821E-06,1.0546875,0,0
-1.07229052446201E-05,8.03461898613023E-06,1.0546875,0,0
-9.17332454264397E-06,9.80932418315206E-06,1.0546875,0,0
-1.05690842246986E-05,1.09981874629739E-05,1.0546875,0,0
-1.22707333503058E-05,1.11091076178127E-05,1.0546875,0,0
-1.48783910844941E-05,1.13920341391349E-05,1.0546875,0,0
-1.55192483362043E-05,1.14013955681003E-05,1.0546875,0,0
-1.65751771419309E-05,1.21425500765326E-05,1.0546875,0,0
-1.64120538101997E-05,1.16134069685359E-05,1.0546875,0,0
-1.77430811163504E-05,1.12918351078406E-05,1.0546875,0,0
-1.74419765244238E-05,1.07340692920843E-05,1.0546875,0,0
-1.83167740033241E-05,1.10394212242682E-05,1.0546875,0,0
-1.9109920685878E-05,1.23609643196687E-05,1.0546875,0,0
-1.9503395378706E-05,1.46513903018786E-05,1.0546875,0,0
-1.96295804926194E-05,1.68069254868897E-05,1.0546875,0,0
-2.08326327992836E-05,1.81831092049833E-05,1.0546875,0,0
-2.15753480006242E-05,1.65230685524875E-05,1.0546875,0,0
-2.1392499547801E-05,1.38411041916697E-05,1.0546875,0,0
-1.72861091414234E-05,8.56766018841881E-06,1.0546875,0,0
-2.39222463278566E-05,9.8349973995937E-06,1.0546875,0,0
-1.77746460394701E-05,4.32643582826131E-06,1.0546875,0,0
-2.31743488257052E-05,7.34619197828579E-06,1.0546875,0,0
-2.06661716219969E-05,8.99766200745944E-06,1.0546875,0,0
-2.40865647356259E-05,1.45698613778222E-05,1.0546875,0,0
-2.27817126869923E-05,1.52571928992984E-05,1.0546875,0,0
-2.43960148509359E-05,1.57772883540019E-05,1.0546875,0,0
-2.45198134507518E-05,1.50449013744947E-05,1.0546875,0,0
-2.46151612373069E-05,1.55614361574408E-05,1.0546875,0,0
-2.3132693968364E-05,1.65897072292864E-05,1.0546875,0,0
-2.03130912268534E-05,1.56517016876023E-05,1.0546875,0,0
-1.96755026991013E-05,1.22109486255795E-05,1.0546875,0,0
-1.86848246812588E-05,7.10541462467518E-06,1.0546875,0,0
-2.07781413337216E-05,6.68217808197369E-06,1.0546875,0,0
-2.1398553144536E-05,9.55555151449516E-06,1.0546875,0,0
-2.37149124586722E-05,1.38776422318188E-05,1.0546875,0,0
-2.3528989913757E-05,1.50840942296782E-05,1.0546875,0,0
-2.49479398917174E-05,1.55336638272274E-05,1.0546875,0,0
-2.47788593696896E-05,1.41056943903095E-05,1.0546875,0,0
-2.5264847863582E-05,1.37097622427973E-05,1.0546875,0,0
-2.37264648603741E-05,1.31104734464316E-05,1.0546875,0,0
-2.34430881391745E-05,1.32797431433573E-05,1.0546875,0,0
-2.27178934437688E-05,1.34116407934926E-05,1.0546875,0,0
-2.25198073167121E-05,1.34079909912543E-05,1.0546875,0,0
-2.20271977013908E-05,1.31189271996845E-05,1.0546875,0,0
-2.17701144720195E-05,1.27551220430178E-05,1.0546875,0,0
-1.78434765985003E-05,9.40370591706596E-06,1.0546875,0,0
-2.45523660851177E-05,1.3079984455544E-05,1.0546875,0,0
-1.85652461368591E-05,1.00574643511209E-05,1.0546875,0,0
-2.57713636528933E-05,1.334321405011E-05,1.0546875,0,0
-2.34633716900134E-05,1.22352967082406E-05,1.0546875,0,0
-2.68967360170791E-05,1.39924850373063E-05,1.0546875,0,0
-2.72139259323012E-05,1.16515111585613E-05,1.0546875,0,0
-2.96534926746972E-05,1.06983425212093E-05,1.0546875,0,0
-3.05897301586811E-05,9.64329774433281E-06,1.0546875,0,0
-3.25491164403502E-05,8.55915368447313E-06,1.0546875,0,0
-3.42672465194482E-05,7.85655356594361E-06,1.0546875,0,0
-3.4466473152861E-05,7.15590886102291E-06,1.0546875,0,0
-3.52996794390492E-05,7.80730533733731E-06,1.0546875,0,0
-3.365483644302E-05,8.28010524855927E-06,1.0546875,0,0
-3.44283362210263E-05,1.06651668829727E-05,1.0546875,0,0
-3.42889070452657E-05,1.04979380921577E-05,1.0546875,0,0
-3.64482584700454E-05,1.07527994259726E-05,1.0546875,0,0
-3.62099272024352E-05,1.20985569083132E-05,1.0546875,0,0
-3.7408357457025E-05,1.42326070999843E-05,1.0546875,0,0
-3.72029971913435E-05,1.26813138194848E-05,1.0546875,0,0
-3.7167155824136E-05,1.08393378468463E-05,1.0546875,0,0
-3.52090428350493E-05,9.59402404987486E-06,1.0546875,0,0
-3.4377007978037E-05,1.01105933936196E-05,1.0546875,0,0
-3.24143802572507E-05,1.13172300189035E-05,1.0546875,0,0
-3.10073883156292E-05,1.20504464575788E-05,1.0546875,0,0
-3.04801596939797E-05,1.28822130136541E-05,1.0546875,0,0
-3.01158779620891E-05,1.47235232361709E-05,1.0546875,0,0
-2.30017485591816E-05,1.10174332803581E-05,1.0546875,0,0
-3.16603873216081E-05,1.30566368170548E-05,1.0546875,0,0
-2.38957109104376E-05,7.35702724341536E-06,1.0546875,0,0
-3.09554525301792E-05,1.07557279989123E-05,1.0546875,0,0
-2.55052018474089E-05,8.09023822512245E-06,1.0546875,0,0
-2.73293826467125E-05,1.09366756078089E-05,1.0546875,0,0
-2.3323938876274E-05,1.16414530566544E-05,1.0546875,0,0
-2.43663562287111E-05,1.35183618112933E-05,1.0546875,0,0
-2.35293045989238E-05,1.25180249597179E-05,1.0546875,0,0
-2.44273269345285E-05,1.11141289380612E-05,1.0546875,0,0
-2.64411974058021E-05,9.37677668844117E-06,1.0546875,0,0
-2.78290590358665E-05,8.56460792419966E-06,1.0546875,0,0
-2.98619506793329E-05,1.03717475212761E-05,1.0546875,0,0
-2.86435169982724E-05,1.15171951620141E-05,1.0546875,0,0
-3.03002470900537E-05,1.40505171657423E-05,1.0546875,0,0
-2.96054586215178E-05,1.46688416862162E-05,1.0546875,0,0
-3.12936135742348E-05,1.563685691508E-05,1.0546875,0,0
-2.98624381684931E-05,1.43283841680386E-05,1.0546875,0,0
-3.07198570226319E-05,1.2415973287716E-05,1.0546875,0,0
-2.95323279715376E-05,7.40499899620772E-06,1.0546875,0,0
-3.00437313853763E-05,3.90459990740055E-06,1.0546875,0,0
-2.80574513453757E-05,1.99574674297764E-06,1.0546875,0,0
-2.66257047769614E-05,2.788075562421E-06,1.0546875,0,0
-2.52341287705349E-05,2.1699590888602E-06,1.0546875,0,0
-2.60562974290224E-05,1.90740411198931E-06,1.0546875,0,0
-2.611620038806E-05,5.36427023689612E-06,1.0546875,0,0
-2.51440451393137E-05,9.97783081402304E-06,1.0546875,0,0
-1.94937201740686E-05,1.00958141047158E-05,1.0546875,0,0
-2.73851328529418E-05,1.57452341227327E-05,1.0546875,0,0
-2.13658258871874E-05,1.30350990730221E-05,1.0546875,0,0
-2.69943575403886E-05,1.41189648275031E-05,1.0546875,0,0
-2.26947176997783E-05,1.08427266241051E-05,1.0546875,0,0
-2.46502368099755E-05,1.12689112938824E-05,1.0546875,0,0
-2.09296285902383E-05,1.10742075776216E-05,1.0546875,0,0
-2.18350451177685E-05,1.33227249534684E-05,1.0546875,0,0
-2.26360207307152E-05,1.42185217555379E-05,1.0546875,0,0
-2.44549573835684E-05,1.45750727824634E-05,1.0546875,0,0
-2.52989775617607E-05,1.48851713674958E-05,1.0546875,0,0
-2.32687889365479E-05,1.39659414344351E-05,1.0546875,0,0
-2.23080696741818E-05,1.21557750389911E-05,1.0546875,0,0
-1.99249770957977E-05,9.90245735010831E-06,1.0546875,0,0
-2.05371852644021E-05,1.06373963717488E-05,1.0546875,0,0
-1.89915026567178E-05,1.15506081783678E-05,1.0546875,0,0
-1.89857018995099E-05,1.27642870211275E-05,1.0546875,0,0
-1.70012463058811E-05,1.16541641546064E-05,1.0546875,0,0
-1.77126912603853E-05,1.03345309980796E-05,1.0546875,0,0
-1.69895774888573E-05,8.52772700454807E-06,1.0546875,0,0
-1.67570397024974E-05,8.4686998889083E-06,1.0546875,0,0
-1.42305452754954E-05,6.08540904067922E-06,1.0546875,0,0
-1.35476129798917E-05,3.21667039315798E-06,1.0546875,0,0
-1.36321759782732E-05,2.45367868956237E-06,1.0546875,0,0
-1.55731486302102E-05,1.94190056390653E-06,1.0546875,0,0
-1.67166799656115E-05,-7.73914109686302E-07,1.0546875,0,0
-1.60507916007191E-05,-2.25740495807258E-06,1.0546875,0,0
-1.13264968604199E-05,2.22011613004725E-06,1.0546875,0,0
-1.49850948218955E-05,7.65405638958327E-06,1.0546875,0,0
-1.0357676728745E-05,1.08582471511909E-05,1.0546875,0,0
-1.34526007968816E-05,1.00457264124998E-05,1.0546875,0,0
-1.10678220153204E-05,8.85507142811548E-06,1.0546875,0,0
-1.35832069645403E-05,8.46236707729986E-06,1.0546875,0,0
-1.48082681334927E-05,8.98511825653259E-06,1.0546875,0,0
-1.77985111804446E-05,9.19700596568873E-06,1.0546875,0,0
-1.81360283022514E-05,1.01665655165561E-05,1.0546875,0,0
-1.77093625097768E-05,1.04541795735713E-05,1.0546875,0,0
-1.82576404768042E-05,1.15523862405098E-05,1.0546875,0,0
-2.02695591724478E-05,1.28569527078071E-05,1.0546875,0,0
-2.3316924853134E-05,1.26302238641074E-05,1.0546875,0,0
-2.43186514126137E-05,1.10936944111018E-05,1.0546875,0,0
-2.57210613199277E-05,9.8966065706918E-06,1.0546875,0,0
-2.5850500605884E-05,1.02793792393641E-05,1.0546875,0,0
-2.72291672445135E-05,1.07456089608604E-05,1.0546875,0,0
-2.75375932687894E-05,1.12481693577138E-05,1.0546875,0,0
-2.87399143417133E-05,1.29512955027167E-05,1.0546875,0,0
-2.85496716969647E-05,1.42831004268373E-05,1.0546875,0,0
-2.93944322038442E-05,1.33006187752471E-05,1.0546875,0,0
-2.90822517854394E-05,1.2565178622026E-05,1.0546875,0,0
-2.94983201456489E-05,1.09946804514038E-05,1.0546875,0,0
-2.94530927931191E-05,8.04698265710613E-06,1.0546875,0,0
-2.95493027806515E-05,6.25536404186278E-06,1.0546875,0,0
-2.91122632916085E-05,5.98767246628995E-06,1.0546875,0,0
-2.92507320409641E-05,7.56879853724968E-06,1.0546875,0,0
-2.37994936469477E-05,6.23757932771696E-06,1.0546875,0,0
-3.33651405526325E-05,8.27131680125603E-06,1.0546875,0,0
-2.54016449616756E-05,7.70017686591018E-06,1.0546875,0,0
-3.23601852869615E-05,1.16464198072208E-05,1.0546875,0,0
-2.84477082459489E-05,9.03590535017429E-06,1.0546875,0,0
-3.36153170792386E-05,8.68564529810101E-06,1.0546875,0,0
-3.16077348543331E-05,7.02790066497982E-06,1.0546875,0,0
-3.33175594278146E-05,6.87805277266307E-06,1.0546875,0,0
-3.2410698622698E-05,6.67192580294795E-06,1.0546875,0,0
-3.19413666147739E-05,7.97422217146959E-06,1.0546875,0,0
-3.1385658076033E-05,1.0159454177483E-05,1.0546875,0,0
-3.07467889797408E-05,1.11966874101199E-05,1.0546875,0,0
-3.20048675348517E-05,1.09124939626781E-05,1.0546875,0,0
-2.98311751976144E-05,9.26525990507798E-06,1.0546875,0,0
-3.05429457512219E-05,9.7266029115417E-06,1.0546875,0,0
-2.96389680443099E-05,1.00091911008349E-05,1.0546875,0,0
-3.16474506689701E-05,1.04557157101226E-05,1.0546875,0,0
-3.03899014397757E-05,1.07481409941101E-05,1.0546875,0,0
-3.07486261590384E-05,1.28033561850316E-05,1.0546875,0,0
-2.84556354017695E-05,1.26884942801553E-05,1.0546875,0,0
-2.87475559161976E-05,1.13539745143498E-05,1.0546875,0,0
-2.77556446235394E-05,1.04375967566739E-05,1.0546875,0,0
-2.77719955192879E-05,1.07312143882154E-05,1.0546875,0,0
-2.68544881691923E-05,1.10144674181356E-05,1.0546875,0,0
-2.70303407887695E-05,1.27551338664489E-05,1.0546875,0,0
-2.60639862972312E-05,1.44586438182159E-05,1.0546875,0,0
-2.48826945608016E-05,1.44061150422203E-05,1.0546875,0,0
-2.00379417947261E-05,1.23909921967424E-05,1.0546875,0,0
-2.93432822218165E-05,1.81322466232814E-05,1.0546875,0,0
-2.39259570662398E-05,1.393724414811E-05,1.0546875,0,0
-2.83617428067373E-05,1.64354514708975E-05,1.0546875,0,0
-2.28784083446953E-05,1.57534814206883E-05,1.0546875,0,0
-2.52065347012831E-05,2.01910861505894E-05,1.0546875,0,0
-2.3117616365198E-05,1.94872700376436E-05,1.0546875,0,0
-2.49835684371646E-05,2.04435418709181E-05,1.0546875,0,0
-2.59659445873694E-05,2.06272288778564E-05,1.0546875,0,0
-2.73061978077749E-05,2.03973431780469E-05,1.0546875,0,0
-2.73050573014189E-05,1.97432091226801E-05,1.0546875,0,0
-2.5586292395019E-05,1.82694166142028E-05,1.0546875,0,0
-2.50957964453846E-05,1.67498674272792E-05,1.0546875,0,0
-2.3274482373381E-05,1.45835902003455E-05,1.0546875,0,0
-2.38550783251412E-05,1.52698958117981E-05,1.0546875,0,0
-2.22061262320494E-05,1.52609809447313E-05,1.0546875,0,0
-2.2658052330371E-05,1.66680456459289E-05,1.0546875,0,0
-2.09623722184915E-05,1.60909585247282E-05,1.0546875,0,0
-2.13768289540894E-05,1.45875474117929E-05,1.0546875,0,0
-1.9757619156735E-05,1.10928203866933E-05,1.0546875,0,0
-1.87928289960837E-05,9.4033666755422E-06,1.0546875,0,0
-1.66096579050645E-05,8.19577599031618E-06,1.0546875,0,0
-1.68725055118557E-05,9.45717511058319E-06,1.0546875,0,0
-1.74461074493593E-05,1.00973074950161E-05,1.0546875,0,0
-1.88472640729742E-05,9.50501816987526E-06,1.0546875,0,0
-1.8516902855481E-05,9.09020127437543E-06,1.0546875,0,0
-1.67384514497826E-05,1.00561173894675E-05,1.0546875,0,0
-1.24277112263371E-05,8.6040745372884E-06,1.0546875,0,0
-1.83611773536541E-05,1.09797401819378E-05,1.0546875,0,0
-1.56154310388956E-05,6.46384705760283E-06,1.0546875,0,0
-1.85934604814975E-05,8.24841390567599E-06,1.0546875,0,0
-1.59114824782591E-05,6.02467071075807E-06,1.0546875,0,0
-1.94082331290701E-05,6.98726807968342E-06,1.0546875,0,0
-2.10632897506002E-05,6.27449526291457E-06,1.0546875,0,0
-2.3990392946871E-05,6.6781835812435E-06,1.0546875,0,0
-2.38658103626221E-05,6.52655489830067E-06,1.0546875,0,0
-2.29597226280021E-05,6.20409718976589E-06,1.0546875,0,0
-2.17465058085509E-05,6.4175083025475E-06,1.0546875,0,0
-2.05788473977009E-05,7.60407192501589E-06,1.0546875,0,0
-2.04852804017719E-05,1.05811523098964E-05,1.0546875,0,0
-1.90219907381106E-05,1.21024368127109E-05,1.0546875,0,0
-1.95220909517957E-05,1.31583128677448E-05,1.0546875,0,0
-1.91613326023798E-05,1.35434738695039E-05,1.0546875,0,0
-2.02652427105932E-05,1.60754734679358E-05,1.0546875,0,0
-2.05672786250943E-05,1.66022891789908E-05,1.0546875,0,0
-2.24033756239805E-05,1.51190506585408E-05,1.0546875,0,0
-2.20794681808911E-05,1.08867452581762E-05,1.0546875,0,0
-2.15780928556342E-05,6.25484472038806E-06,1.0546875,0,0
-2.10506004805211E-05,2.76593482340104E-06,1.0546875,0,0
-2.29043034778442E-05,2.97066026178072E-06,1.0546875,0,0
-2.42153982981108E-05,5.49416836292949E-06,1.0546875,0,0
-2.48230189754395E-05,1.04158189060399E-05,1.0546875,0,0
-2.40072968153981E-05,1.38678815346793E-05,1.0546875,0,0
-2.24785217142198E-05,1.45590902320691E-05,1.0546875,0,0
-1.72889340319671E-05,1.17053277790546E-05,1.0546875,0,0
-2.40521530940896E-05,1.65147193911253E-05,1.0546875,0,0
-1.82190851774067E-05,1.21092180052074E-05,1.0546875,0,0
-2.21225509449141E-05,1.42267108458327E-05,1.0546875,0,0
-1.63966451509623E-05,9.73229089140659E-06,1.0546875,0,0
-1.82555922947358E-05,9.50367848417955E-06,1.0546875,0,0
-1.69672330230242E-05,9.08029414858902E-06,1.0546875,0,0
-1.76880457729567E-05,1.29791260405909E-05,1.0546875,0,0
-1.56770256580785E-05,1.59534774866188E-05,1.0546875,0,0
-1.57583708642051E-05,1.76777157321339E-05,1.0546875,0,0
-1.80919832928339E-05,1.82493549800711E-05,1.0546875,0,0
-1.99770092876861E-05,1.81041250471026E-05,1.0546875,0,0
-2.15822547033895E-05,1.75601944647497E-05,1.0546875,0,0
-1.98022626136662E-05,1.54689641931327E-05,1.0546875,0,0
-1.97532099264208E-05,1.42760645758244E-05,1.0546875,0,0
-1.88649701158283E-05,9.73750411503715E-06,1.0546875,0,0
-1.98869111045497E-05,6.42749319013092E-06,1.0546875,0,0
-1.78420541487867E-05,5.36461402589339E-06,1.0546875,0,0
-1.75902096088976E-05,8.3966742749908E-06,1.0546875,0,0
-1.68429232871858E-05,9.84908092505066E-06,1.0546875,0,0
-1.90027603821363E-05,1.00497709354386E-05,1.0546875,0,0
-2.01256189029664E-05,8.88269823917653E-06,1.0546875,0,0
-2.14741830859566E-05,8.31159923109226E-06,1.0546875,0,0
-2.30826171900844E-05,7.36675292500877E-06,1.0546875,0,0
-2.57421052083373E-05,8.90184946911177E-06,1.0546875,0,0
-2.69387928710785E-05,1.10868459159974E-05,1.0546875,0,0
-2.74995654763188E-05,1.13493806566112E-05,1.0546875,0,0
-2.28754215640947E-05,9.5487966973451E-06,1.0546875,0,0
-3.31646588165313E-05,1.39209823828423E-05,1.0546875,0,0
-2.59895732597215E-05,9.77801209955942E-06,1.0546875,0,0
-3.20852850563824E-05,8.54569225339219E-06,1.0546875,0,0
-2.77457693300676E-05,3.36800894729095E-06,1.0546875,0,0
-3.10787181660999E-05,4.9038262659451E-06,1.0546875,0,0
-2.86028716800502E-05,6.16714623902226E-06,1.0546875,0,0
-2.93412213068223E-05,8.26543691800907E-06,1.0546875,0,0
-2.85176283796318E-05,9.12201176106464E-06,1.0546875,0,0
-2.92874374281382E-05,1.00870765891159E-05,1.0546875,0,0
-2.98147515422897E-05,1.01180694400682E-05,1.0546875,0,0
-2.91026317427168E-05,7.3921087277995E-06,1.0546875,0,0
-2.97901842714055E-05,5.00176383866346E-06,1.0546875,0,0
-2.77525668934686E-05,4.02663135901093E-06,1.0546875,0,0
-2.86908270936692E-05,7.36754327590461E-06,1.0546875,0,0
-2.75445381703321E-05,1.18075704449438E-05,1.0546875,0,0
-2.79934247373603E-05,1.57041959027993E-05,1.0546875,0,0
-2.53366670222022E-05,1.5264937246684E-05,1.0546875,0,0
-2.51500714512076E-05,1.33294452098198E-05,1.0546875,0,0
-2.39117343880935E-05,9.42718816077104E-06,1.0546875,0,0
-2.49186050496064E-05,5.73019678995479E-06,1.0546875,0,0
-2.44151342485566E-05,3.66098674930981E-06,1.0546875,0,0
-2.50116645474918E-05,6.78532524034381E-06,1.0546875,0,0
-2.34933595493203E-05,1.19998103400576E-05,1.0546875,0,0
-2.20961392187746E-05,1.62228679982945E-05,1.0546875,0,0
-2.13942257687449E-05,1.67893358593574E-05,1.0546875,0,0
-2.22485323320143E-05,1.42308481372311E-05,1.0546875,0,0
-1.88048725249246E-05,9.6671947176219E-06,1.0546875,0,0
-2.69521297013853E-05,1.36081871460192E-05,1.0546875,0,0
-2.21423797484022E-05,1.06596544355853E-05,1.0546875,0,0
-2.97597780445358E-05,1.10220662463689E-05,1.0546875,0,0
-2.68757612502668E-05,5.52982237422839E-06,1.0546875,0,0
-2.8050591936335E-05,5.94802031628205E-06,1.0546875,0,0
-2.48899013968185E-05,5.08731227455428E-06,1.0546875,0,0
-2.62553548964206E-05,7.32846865503234E-06,1.0546875,0,0
-2.73483765340643E-05,7.77058812673204E-06,1.0546875,0,0
-2.88171013380634E-05,7.46176510801888E-06,1.0546875,0,0
-2.93340344796889E-05,7.69159123592544E-06,1.0546875,0,0
-2.70742311840877E-05,7.62096715334337E-06,1.0546875,0,0
-2.44752773141954E-05,7.43016835258459E-06,1.0546875,0,0
-2.1062842279207E-05,6.69457949697971E-06,1.0546875,0,0
-2.07563662115717E-05,7.70294445828767E-06,1.0546875,0,0
-1.83623778866604E-05,6.94035816195537E-06,1.0546875,0,0
-1.76237226696685E-05,7.65563163440675E-06,1.0546875,0,0
-1.58732509589754E-05,7.49093987906235E-06,1.0546875,0,0
-1.72669588209828E-05,8.13239967101254E-06,1.0546875,0,0
-1.76087050931528E-05,7.35103594706743E-06,1.0546875,0,0
-1.84988803084707E-05,6.66665255266707E-06,1.0546875,0,0
-1.68455953826196E-05,5.76166166865733E-06,1.0546875,0,0
-1.74295309989247E-05,6.99692964190035E-06,1.0546875,0,0
-1.86616052815225E-05,7.5790703704115E-06,1.0546875,0,0
-2.06461700145155E-05,7.33467004465638E-06,1.0546875,0,0
-2.05806190933799E-05,7.14424140824121E-06,1.0546875,0,0
-1.90180526260519E-05,7.25156633052393E-06,1.0546875,0,0
-1.43063170980895E-05,4.78225319966441E-06,1.0546875,0,0
-2.08357778319623E-05,5.83642076890101E-06,1.0546875,0,0
-1.73965581780067E-05,4.09399308409775E-06,1.0546875,0,0
-2.13235070987139E-05,6.10485540164518E-06,1.0546875,0,0
-1.70677194546442E-05,5.06806418343331E-06,1.0546875,0,0
-1.94467102119233E-05,6.53867027722299E-06,1.0546875,0,0
-2.07609573408263E-05,7.05691536495578E-06,1.0546875,0,0
-2.48916148848366E-05,8.79112212714972E-06,1.0546875,0,0
-2.64117952610832E-05,9.85300994216232E-06,1.0546875,0,0
-2.66162878688192E-05,9.17937995836837E-06,1.0546875,0,0
-2.65850176219828E-05,8.52315770316636E-06,1.0546875,0,0
-2.74102058028802E-05,9.19342528504785E-06,1.0546875,0,0
-2.93668235826772E-05,1.11353047032026E-05,1.0546875,0,0
-2.83284589386312E-05,1.29769250634126E-05,1.0546875,0,0
-2.83112312899902E-05,1.49495044752257E-05,1.0546875,0,0
-2.77799153991509E-05,1.37275901579414E-05,1.0546875,0,0
-2.97633978334488E-05,1.19198530228459E-05,1.0546875,0,0
-3.00901410810184E-05,1.11320059659192E-05,1.0546875,0,0
-3.15202269121073E-05,1.14544463940547E-05,1.0546875,0,0
-3.1421564926859E-05,1.10327619040618E-05,1.0546875,0,0
-3.18358979711775E-05,1.14068561742897E-05,1.0546875,0,0
-3.09137758449651E-05,1.16891851575929E-05,1.0546875,0,0
-3.11543371935841E-05,1.17631461762358E-05,1.0546875,0,0
-3.08644412143622E-05,1.07917785499012E-05,1.0546875,0,0
-2.99403018289013E-05,1.10797363959136E-05,1.0546875,0,0
-2.7100646548206E-05,1.18037523861858E-05,1.0546875,0,0
-2.30582663789392E-05,1.09533930299222E-05,1.0546875,0,0
-1.70214407262392E-05,8.02091744844802E-06,1.0546875,0,0
-2.41859997913707E-05,9.71932422544342E-06,1.0546875,0,0
-1.85663338925224E-05,5.95657729718369E-06,1.0546875,0,0
-2.28896660701139E-05,8.88112117536366E-06,1.0546875,0,0
-1.98788002307992E-05,7.09747246219194E-06,1.0546875,0,0
-2.39263172261417E-05,8.44989608594915E-06,1.0546875,0,0
-2.37687982007628E-05,7.20363505024579E-06,1.0546875,0,0
-2.57713054452324E-05,8.3625100160134E-06,1.0546875,0,0
-2.44863349507796E-05,1.13639935079846E-05,1.0546875,0,0
-2.25168914766982E-05,1.4824217032583E-05,1.0546875,0,0
-2.13072180486051E-05,1.50183996083797E-05,1.0546875,0,0
-2.04230200324673E-05,1.2742812941724E-05,1.0546875,0,0
-2.08853780350182E-05,1.12278194137616E-05,1.0546875,0,0
-1.99349906324642E-05,9.37453114602249E-06,1.0546875,0,0
-2.18689910980174E-05,9.29508405533852E-06,1.0546875,0,0
-2.34485287364805E-05,8.42294775793562E-06,1.0546875,0,0
-2.68540425167885E-05,8.57797022035811E-06,1.0546875,0,0
-2.66132137767272E-05,7.90242029324872E-06,1.0546875,0,0
-2.64524860540405E-05,9.0550447566784E-06,1.0546875,0,0
-2.45830397034297E-05,9.11943425307982E-06,1.0546875,0,0
-2.51998062594794E-05,7.72543262428371E-06,1.0546875,0,0
-2.62863468378782E-05,6.57905320622376E-06,1.0546875,0,0
-2.85303649434354E-05,8.25351526145823E-06,1.0546875,0,0
-2.83880253846291E-05,9.99494204734219E-06,1.0546875,0,0
-2.7299094654154E-05,1.06634315670817E-05,1.0546875,0,0
-2.67527138930745E-05,9.6604780992493E-06,1.0546875,0,0
-2.79391770163784E-05,8.42699591885321E-06,1.0546875,0,0
-2.30097266467055E-05,5.32862441104953E-06,1.0546875,0,0
-3.17818194162101E-05,6.8718386501132E-06,1.0546875,0,0
-2.23265869863098E-05,5.19370314577827E-06,1.0546875,0,0
-2.6872863600147E-05,6.84021642882726E-06,1.0546875,0,0
-2.17333508771844E-05,4.88018486066721E-06,1.0546875,0,0
-2.52188674494391E-05,5.75713283978985E-06,1.0546875,0,0
-2.28807330131531E-05,5.57110342924716E-06,1.0546875,0,0
-2.54069054790307E-05,6.29007581665064E-06,1.0546875,0,0
-2.64400805463083E-05,6.28283396508778E-06,1.0546875,0,0
-2.83452245639637E-05,5.41563395017874E-06,1.0546875,0,0
-3.01864984066924E-05,4.6663403736602E-06,1.0546875,0,0
-3.11213079839945E-05,5.06367996422341E-06,1.0546875,0,0
-3.33970128849614E-05,8.32469686429249E-06,1.0546875,0,0
-3.31392875523306E-05,1.22072951853625E-05,1.0546875,0,0
-3.46862070728093E-05,1.52541088027647E-05,1.0546875,0,0
-3.26157060044352E-05,1.54793415276799E-05,1.0546875,0,0
-3.23959393426776E-05,1.45698031701613E-05,1.0546875,0,0
-2.96541893476387E-05,1.19507603812963E-05,1.0546875,0,0
-3.06432630168274E-05,9.05959223018726E-06,1.0546875,0,0
-3.06047077174298E-05,5.15311921844841E-06,1.0546875,0,0
-3.10552313749213E-05,2.38535790231253E-06,1.0546875,0,0
-2.80748972727451E-05,6.43272301203979E-07,1.0546875,0,0
-2.63867041212507E-05,2.296526417922E-07,1.0546875,0,0
-2.4667246179888E-05,1.6844301171659E-06,1.0546875,0,0
-2.45301434915746E-05,4.31955913882121E-06,1.0546875,0,0
-2.34908820857527E-05,5.37311143489205E-06,1.0546875,0,0
-2.18142649828224E-05,7.73300598666538E-06,1.0546875,0,0
-1.50002733789734E-05,9.39161327551119E-06,1.0546875,0,0
-2.08711498999037E-05,1.51957956404658E-05,1.0546875,0,0
-1.71876399690518E-05,1.27204784803325E-05,1.0546875,0,0
-2.22359794861404E-05,1.43346669574385E-05,1.0546875,0,0
-1.81347950274358E-05,1.41845230245963E-05,1.0546875,0,0
-2.0032974134665E-05,1.73184271261562E-05,1.0546875,0,0
-1.81077084562276E-05,1.75321183633059E-05,1.0546875,0,0
-1.87656842172146E-05,1.78372265509097E-05,1.0546875,0,0
-1.77796828211285E-05,1.6279047486023E-05,1.0546875,0,0
-1.73552944033872E-05,1.36401376948925E-05,1.0546875,0,0
-1.80994866241235E-05,8.35811442811973E-06,1.0546875,0,0
-1.90732062037569E-05,2.21820573642617E-06,1.0546875,0,0
-2.14500178117305E-05,-3.84199040581734E-07,1.0546875,0,0
-2.22748658416094E-05,1.50271341681218E-06,1.0546875,0,0
-2.41538346017478E-05,8.51130516821286E-06,1.0546875,0,0
-2.24351260840194E-05,1.4539405128744E-05,1.0546875,0,0
-2.0938196030329E-05,1.84575128514552E-05,1.0546875,0,0
-1.88087360584177E-05,1.90167284017662E-05,1.0546875,0,0
-2.02892879315186E-05,1.99492096726317E-05,1.0546875,0,0
-2.10724520002259E-05,2.12850281968713E-05,1.0546875,0,0
-2.34253948292462E-05,2.24127343244618E-05,1.0546875,0,0
-2.49564818659564E-05,2.03988183784531E-05,1.0546875,0,0
-2.65300368482713E-05,1.91264552995563E-05,1.0546875,0,0
-2.56237035500817E-05,1.91569797607372E-05,1.0546875,0,0
-2.29157631110866E-05,2.03232993953861E-05,1.0546875,0,0
-2.07567245524842E-05,2.13276016438613E-05,1.0546875,0,0
-2.05228989216266E-05,2.24818322749343E-05,1.0546875,0,0
-1.53921773744514E-05,1.6851641703397E-05,1.0546875,0,0
-2.05454489332624E-05,2.08713463507593E-05,1.0546875,0,0
-1.55227844516048E-05,1.29169729916612E-05,1.0546875,0,0
-2.06161039386643E-05,2.06190470635192E-05,1.0546875,0,0
-1.57159174705157E-05,2.05392625503009E-05,1.0546875,0,0
-1.66071695275605E-05,2.37253298109863E-05,1.0546875,0,0
-1.51336644194089E-05,1.72852123796474E-05,1.0546875,0,0
-1.78685877472162E-05,1.28149640659103E-05,1.0546875,0,0
-1.94968361029169E-05,1.0330827535654E-05,1.0546875,0,0
-2.07351786229992E-05,1.27744333440205E-05,1.0546875,0,0
-2.08287110581296E-05,1.56072655954631E-05,1.0546875,0,0
-1.96648379642284E-05,1.54029221448582E-05,1.0546875,0,0
-2.04804800887359E-05,1.51486938193557E-05,1.0546875,0,0
-2.04945918085286E-05,1.18972357086022E-05,1.0546875,0,0
-2.17011529457523E-05,1.12212719614035E-05,1.0546875,0,0
-2.0760189727298E-05,1.05284952951479E-05,1.0546875,0,0
-2.18584391404875E-05,1.2207275176479E-05,1.0546875,0,0
-2.16364296647953E-05,1.06571478681872E-05,1.0546875,0,0
-2.36582236539107E-05,1.0495674359845E-05,1.0546875,0,0
-2.41331526922295E-05,9.23582592804451E-06,1.0546875,0,0
-2.53325088124257E-05,1.00242023108876E-05,1.0546875,0,0
-2.51982310146559E-05,1.03109277915792E-05,1.0546875,0,0
-2.61783170572016E-05,1.14347012640792E-05,1.0546875,0,0
-2.7123003746965E-05,9.78386560746003E-06,1.0546875,0,0
-2.87946368189296E-05,7.93532672105357E-06,1.0546875,0,0
-2.99112925858935E-05,8.44325768412091E-06,1.0546875,0,0
-3.02654443657957E-05,1.18895632112981E-05,1.0546875,0,0
-2.39537021116121E-05,1.24094312923262E-05,1.0546875,0,0
-3.3935510145966E-05,1.70623861777131E-05,1.0546875,0,0
-2.63917063421104E-05,1.11617628135718E-05,1.0546875,0,0
-3.34761098201852E-05,1.33351850308827E-05,1.0546875,0,0
-2.86050762952073E-05,1.10518321889685E-05,1.0546875,0,0
-3.13237324007787E-05,1.37922697831527E-05,1.0546875,0,0
-2.80643198493635E-05,1.40164356707828E-05,1.0546875,0,0
-3.07664013234898E-05,1.56106980284676E-05,1.0546875,0,0
-3.20020953950007E-05,1.58668954099994E-05,1.0546875,0,0
-3.28564819938038E-05,1.56642381625716E-05,1.0546875,0,0
-3.19446953653824E-05,1.561303906783E-05,1.0546875,0,0
-2.99201838060981E-05,1.48624667417607E-05,1.0546875,0,0
-3.09232600557152E-05,1.50743398990016E-05,1.0546875,0,0
-3.02131138596451E-05,1.42199087349582E-05,1.0546875,0,0
-3.17933081532829E-05,1.46256452353555E-05,1.0546875,0,0
-3.07187292492017E-05,1.37299939524382E-05,1.0546875,0,0
-3.25888795487117E-05,1.41760892802267E-05,1.0546875,0,0
-3.20615545206238E-05,1.31918541228515E-05,1.0546875,0,0
-3.43718202202581E-05,1.28308747662231E-05,1.0546875,0,0
-3.44197578669991E-05,1.17217678052839E-05,1.0546875,0,0
-3.47667046298739E-05,1.17957479233155E-05,1.0546875,0,0
-3.17221783916466E-05,1.01553032436641E-05,1.0546875,0,0
-2.98404902423499E-05,8.42112058307976E-06,1.0546875,0,0
-2.75401343969861E-05,7.88725628808606E-06,1.0546875,0,0
-2.70438449661015E-05,9.04408261703793E-06,1.0546875,0,0
-2.61039367615012E-05,9.55986433837097E-06,1.0546875,0,0
-2.55950271821348E-05,9.39825531531824E-06,1.0546875,0,0
-2.24899158638436E-05,7.50423532736022E-06,1.0546875,0,0
-3.2822834327817E-05,1.06276756923762E-05,1.0546875,0,0
-2.49413787969388E-05,8.37988409330137E-06,1.0546875,0,0
-2.95716345135588E-05,9.60995930654462E-06,1.0546875,0,0
-2.49825552600669E-05,7.01463068253361E-06,1.0546875,0,0
-2.82637265627272E-05,9.37839467951562E-06,1.0546875,0,0
-2.7179636163055E-05,9.42336646403419E-06,1.0546875,0,0
-2.8043245038134E-05,8.79975232237484E-06,1.0546875,0,0
-2.5898127205437E-05,8.37271363707259E-06,1.0546875,0,0
-2.46125764533645E-05,9.63272395893E-06,1.0546875,0,0
-2.37856656895019E-05,1.09086240627221E-05,1.0546875,0,0
-2.28567623707931E-05,9.59234603215009E-06,1.0546875,0,0
-2.37467284023296E-05,8.12809958006255E-06,1.0546875,0,0
-2.22543003474129E-05,7.44891394788283E-06,1.0546875,0,0
-2.23268889385508E-05,8.67493872647174E-06,1.0546875,0,0
-1.97676672542002E-05,8.32924069982255E-06,1.0546875,0,0
-2.02327682927717E-05,7.5612188084051E-06,1.0546875,0,0
-1.9951505237259E-05,5.78298568143509E-06,1.0546875,0,0
-2.24093673750758E-05,5.24252118339064E-06,1.0546875,0,0
-2.17567321669776E-05,4.95116864840384E-06,1.0546875,0,0
-2.14368155866396E-05,6.56284601063817E-06,1.0546875,0,0
-2.01074999495177E-05,7.87590943218675E-06,1.0546875,0,0
-2.10053549380973E-05,7.72054227127228E-06,1.0546875,0,0
-2.0830993889831E-05,6.10541428613942E-06,1.0546875,0,0
-2.08914807444671E-05,6.47339129500324E-06,1.0546875,0,0
-2.06164822884602E-05,8.16773172118701E-06,1.0546875,0,0
-2.03237523237476E-05,8.25940242066281E-06,1.0546875,0,0
-1.55426605488174E-05,6.40101279714145E-06,1.0546875,0,0
-2.16454682231415E-05,9.88292777037714E-06,1.0546875,0,0
-1.65135716088116E-05,8.20432433101814E-06,1.0546875,0,0
-2.13244566111825E-05,9.3515009211842E-06,1.0546875,0,0
-1.76190133061027E-05,8.01816077000694E-06,1.0546875,0,0
-1.81262712430907E-05,9.17083343665581E-06,1.0546875,0,0
-1.51734047904029E-05,7.28582199371886E-06,1.0546875,0,0
-1.55594243551604E-05,5.96988274992327E-06,1.0546875,0,0
-1.50813302752795E-05,5.54759708393249E-06,1.0546875,0,0
-1.49517072713934E-05,6.20847276877612E-06,1.0546875,0,0
-1.44247696880484E-05,7.45928582546185E-06,1.0546875,0,0
-1.38655623231898E-05,6.36536651654751E-06,1.0546875,0,0
-1.57439262693515E-05,4.03464855480706E-06,1.0546875,0,0
-1.63576114573516E-05,2.78007860288199E-06,1.0546875,0,0
-1.76820558408508E-05,5.32875310454983E-06,1.0546875,0,0
-1.62991491379216E-05,8.18655644252431E-06,1.0546875,0,0
-1.67590369528625E-05,9.6784287961782E-06,1.0546875,0,0
-1.58973325596889E-05,8.33807189337676E-06,1.0546875,0,0
-1.61995703820139E-05,7.55393921281211E-06,1.0546875,0,0
-1.56679889187217E-05,8.35652281239163E-06,1.0546875,0,0
-1.83956071850844E-05,1.04885939435917E-05,1.0546875,0,0
-2.0660352674895E-05,1.02524390968028E-05,1.0546875,0,0
-2.14515293919249E-05,8.57296981848776E-06,1.0546875,0,0
-2.04109419428278E-05,8.51536424306687E-06,1.0546875,0,0
-2.08168457902502E-05,1.03052016129368E-05,1.0546875,0,0
-2.22735034185462E-05,9.97621737042209E-06,1.0546875,0,0
-2.50092343776487E-05,8.78769151313463E-06,1.0546875,0,0
-2.19150679185987E-05,8.16204374132212E-06,1.0546875,0,0
-3.07653281197418E-05,1.22745504995692E-05,1.0546875,0,0
-2.25372750719544E-05,1.05575827547E-05,1.0546875,0,0
-2.74378598987823E-05,1.33861658468959E-05,1.0546875,0,0
-2.17787510337075E-05,1.14614767880994E-05,1.0546875,0,0
-2.34814033319708E-05,1.23179943329887E-05,1.0546875,0,0
-2.10112011700403E-05,1.31538345158333E-05,1.0546875,0,0
-2.37604363064747E-05,1.50758487507119E-05,1.0546875,0,0
-2.39752098423196E-05,1.50922696775524E-05,1.0546875,0,0
-2.35336938203545E-05,1.63846325449413E-05,1.0546875,0,0
-2.28741500905016E-05,1.8804355931934E-05,1.0546875,0,0
-2.27359978453023E-05,2.12351278605638E-05,1.0546875,0,0
-2.54389815381728E-05,2.23409788304707E-05,1.0546875,0,0
-2.5997635020758E-05,1.89753718586871E-05,1.0546875,0,0
-2.83540321106557E-05,1.43277702591149E-05,1.0546875,0,0
-2.80413260043133E-05,9.71269037108868E-06,1.0546875,0,0
-2.9725319109275E-05,9.55252471612766E-06,1.0546875,0,0
-2.83034623862477E-05,1.1507183444337E-05,1.0546875,0,0
-2.89838444587076E-05,1.42001154017635E-05,1.0546875,0,0
-2.82973214780213E-05,1.47162145367474E-05,1.0546875,0,0
-2.90999632852618E-05,1.59867231559474E-05,1.0546875,0,0
-2.70952205028152E-05,1.74079650605563E-05,1.0546875,0,0
-2.61987952399068E-05,1.88740141311428E-05,1.0546875,0,0
-2.54258302447852E-05,1.86549223144539E-05,1.0546875,0,0
-2.69960455625551E-05,1.81028226506896E-05,1.0546875,0,0
-2.8553418815136E-05,1.80444912984967E-05,1.0546875,0,0
-2.95183053822257E-05,1.84748932952061E-05,1.0546875,0,0
-2.46429608523613E-05,1.5499990695389E-05,1.0546875,0,0
-3.46306624123827E-05,2.19496432691813E-05,1.0546875,0,0
-2.56184976024088E-05,1.6097110346891E-05,1.0546875,0,0
-3.19007958751172E-05,1.50616988321417E-05,1.0546875,0,0
-2.52912832365837E-05,2.94110418508353E-06,1.0546875,0,0
-2.71748667728389E-05,6.72270061841118E-07,1.0546875,0,0
-2.56770217674784E-05,-3.20931157204996E-08,1.0546875,0,0
-2.90188472718E-05,3.86093097404228E-06,1.0546875,0,0
-2.92732638627058E-05,6.38389428786468E-06,1.0546875,0,0
-2.92395961878356E-05,8.95454195415368E-06,1.0546875,0,0
-2.88286137219984E-05,1.0343773283239E-05,1.0546875,0,0
-2.62320645560976E-05,1.04643677332206E-05,1.0546875,0,0
-2.54696460615378E-05,1.11206600195146E-05,1.0546875,0,0
-2.43205340666464E-05,9.7327047114959E-06,1.0546875,0,0
-2.76378250418929E-05,9.43244776863139E-06,1.0546875,0,0
-2.80189979093848E-05,7.87449152994668E-06,1.0546875,0,0
-2.99632683891105E-05,9.95700520434184E-06,1.0546875,0,0
-2.94881629088195E-05,1.16553746920545E-05,1.0546875,0,0
-3.09656497847755E-05,1.49862098623998E-05,1.0546875,0,0
-2.88827141048387E-05,1.6227819287451E-05,1.0546875,0,0
-2.79560208582552E-05,1.86749130079988E-05,1.0546875,0,0
-2.54462302109459E-05,1.70760595210595E-05,1.0546875,0,0
-2.42246915149735E-05,1.05466606328264E-05,1.0546875,0,0
-2.28870740102138E-05,2.18702643905999E-06,1.0546875,0,0
-2.33348891924834E-05,1.20043648621504E-06,1.0546875,0,0
-2.30349178309552E-05,7.32823627913604E-06,1.0546875,0,0
-2.24640789383557E-05,1.38182913360652E-05,1.0546875,0,0
-1.82696803676663E-05,1.45864642036031E-05,1.0546875,0,0
-2.60367978626164E-05,2.17371107282816E-05,1.0546875,0,0
-2.02324863494141E-05,1.70777948369505E-05,1.0546875,0,0
-2.55892737186514E-05,1.92263869394083E-05,1.0546875,0,0
-2.25216354010627E-05,1.41487453220179E-05,1.0546875,0,0
-2.49369404627942E-05,1.31292281366768E-05,1.0546875,0,0
-2.20567053474952E-05,9.15293730940903E-06,1.0546875,0,0
-2.25536532525439E-05,7.78945195634151E-06,1.0546875,0,0
-2.30220921366708E-05,5.2977279665356E-06,1.0546875,0,0
-2.35432817135006E-05,2.96038024316658E-06,1.0546875,0,0
-2.1951986127533E-05,2.4847297481756E-06,1.0546875,0,0
-1.89619113371009E-05,4.19233219872694E-06,1.0546875,0,0
-1.91750277735991E-05,6.74068451189669E-06,1.0546875,0,0
-1.95367847481975E-05,6.80733774061082E-06,1.0546875,0,0
-2.15254658542108E-05,8.77805632626405E-06,1.0546875,0,0
-2.06018066819524E-05,1.00375928013818E-05,1.0546875,0,0
-2.14026895264396E-05,1.21372240755591E-05,1.0546875,0,0
-2.00213289645035E-05,1.10882338049123E-05,1.0546875,0,0
-1.98802863451419E-05,1.01818777693552E-05,1.0546875,0,0
-1.82110870809993E-05,8.01665464678081E-06,1.0546875,0,0
-1.81349587364821E-05,7.87533826951403E-06,1.0546875,0,0
-1.74876768141985E-05,8.51462573336903E-06,1.0546875,0,0
-1.88679878192488E-05,9.24123833101476E-06,1.0546875,0,0
-2.00427930394653E-05,8.24536618893035E-06,1.0546875,0,0
-2.08166547963629E-05,9.36953529162565E-06,1.0546875,0,0
-2.06077238544822E-05,9.93517369352048E-06,1.0546875,0,0
-2.1524348994717E-05,8.06014941190369E-06,1.0546875,0,0
-1.81230880116345E-05,4.80105927636032E-06,1.0546875,0,0
-2.55903214565478E-05,7.13284998710151E-06,1.0546875,0,0
-2.05796259251656E-05,6.90647266310407E-06,1.0546875,0,0
-2.64349491772009E-05,8.78473838383798E-06,1.0546875,0,0
-2.31730882660486E-05,7.30914189261966E-06,1.0546875,0,0
-2.62301855400437E-05,7.58090482122498E-06,1.0546875,0,0
-2.43120903178351E-05,7.88525267125806E-06,1.0546875,0,0
-2.63554375123931E-05,8.25014740257757E-06,1.0546875,0,0
-2.70109267148655E-05,6.98889243722078E-06,1.0546875,0,0
-2.75698548648506E-05,6.82347945257789E-06,1.0546875,0,0
-2.71309691015631E-05,7.61529554438312E-06,1.0546875,0,0
-2.59833705058554E-05,9.06189325178275E-06,1.0546875,0,0
-2.68071107711876E-05,1.02616286312696E-05,1.0546875,0,0
-2.57035699178232E-05,9.8215532489121E-06,1.0546875,0,0
-2.60909746430116E-05,1.03780039353296E-05,1.0546875,0,0
-2.41540656134021E-05,1.12923780761776E-05,1.0546875,0,0
-2.48469204962021E-05,1.17445906653302E-05,1.0546875,0,0
-2.36609776038677E-05,1.10115652205423E-05,1.0546875,0,0
-2.41374636971159E-05,1.17726931421203E-05,1.0546875,0,0
-2.32169404625893E-05,1.14273107101326E-05,1.0546875,0,0
-2.41051075136056E-05,9.84133203019155E-06,1.0546875,0,0
-2.45427054323955E-05,8.90016417542938E-06,1.0546875,0,0
-2.63538677245378E-05,9.93401499727042E-06,1.0546875,0,0
-2.6119594622287E-05,1.08159056253498E-05,1.0546875,0,0
-2.55690374615369E-05,1.13837013486773E-05,1.0546875,0,0
-2.55356990237487E-05,1.06052402770729E-05,1.0546875,0,0
-2.60489287029486E-05,9.49185232457239E-06,1.0546875,0,0
-2.05694850592408E-05,6.94436221237993E-06,1.0546875,0,0
-2.88155461021233E-05,9.86904615274398E-06,1.0546875,0,0
-2.18348486669129E-05,8.53400433697971E-06,1.0546875,0,0
-2.7936845071963E-05,1.13581872938084E-05,1.0546875,0,0
-2.49823297053808E-05,9.92053901427425E-06,1.0546875,0,0
-2.90194475383032E-05,1.10391893031192E-05,1.0546875,0,0
-2.66862207354279E-05,1.15452430691221E-05,1.0546875,0,0
-2.69949014182203E-05,1.33148041641107E-05,1.0546875,0,0
-2.46316994889639E-05,1.22578994705691E-05,1.0546875,0,0
-2.26934043894289E-05,1.08848580566701E-05,1.0546875,0,0
-2.09203171834815E-05,1.08957528937026E-05,1.0546875,0,0
-1.8408230971545E-05,1.25405094877351E-05,1.0546875,0,0
-1.79171256604604E-05,1.51663116412237E-05,1.0546875,0,0
-1.58110251504695E-05,1.5941357560223E-05,1.0546875,0,0
-1.65632227435708E-05,1.51127405842999E-05,1.0546875,0,0
-1.59848859766498E-05,1.18862262752373E-05,1.0546875,0,0
-1.77776491909754E-05,9.52546724874992E-06,1.0546875,0,0
-1.66754216479603E-05,7.72114071878605E-06,1.0546875,0,0
-1.71464816958178E-05,8.59395640873117E-06,1.0546875,0,0
-1.66425743373111E-05,9.64980335993459E-06,1.0546875,0,0
-1.93040777958231E-05,9.91418710327707E-06,1.0546875,0,0
-2.06391814572271E-05,8.27788699098164E-06,1.0546875,0,0
-2.23087663471233E-05,8.70200256031239E-06,1.0546875,0,0
-2.27998480113456E-05,9.70639484876301E-06,1.0546875,0,0
-2.34417148021748E-05,1.03484753708472E-05,1.0546875,0,0
-2.33245227718726E-05,9.78860043687746E-06,1.0546875,0,0
-2.38843404076761E-05,6.85237500874791E-06,1.0546875,0,0
-2.00297999981558E-05,4.10468373956974E-06,1.0546875,0,0
-2.72456763923401E-05,6.31029433861841E-06,1.0546875,0,0
-1.78301361302147E-05,6.60165505905752E-06,1.0546875,0,0
-2.14416504604742E-05,9.37486947805155E-06,1.0546875,0,0
-1.79601574927801E-05,1.01286268545664E-05,1.0546875,0,0
-2.205797136412E-05,1.14774147732533E-05,1.0546875,0,0
-2.15600011870265E-05,1.06167453850503E-05,1.0546875,0,0
-2.49612457992043E-05,1.01361110864673E-05,1.0546875,0,0
-2.65055714407936E-05,9.57848260441097E-06,1.0546875,0,0
-2.74169324256945E-05,1.01079067462706E-05,1.0546875,0,0
-2.73921850748593E-05,1.13498317659833E-05,1.0546875,0,0
-2.7070906071458E-05,1.21645516628632E-05,1.0546875,0,0
-2.88619557977654E-05,1.29248546727467E-05,1.0546875,0,0
-2.8794571335311E-05,1.30425714814919E-05,1.0546875,0,0
-2.99947641906329E-05,1.37793904286809E-05,1.0546875,0,0
-2.82581095234491E-05,1.3692078027816E-05,1.0546875,0,0
-2.90814768959535E-05,1.19972355605569E-05,1.0546875,0,0
-2.90916468657088E-05,8.39594667922938E-06,1.0546875,0,0
-3.20815852319356E-05,6.40733787804493E-06,1.0546875,0,0
-3.24143620673567E-05,6.09422659181291E-06,1.0546875,0,0
-3.35875884047709E-05,7.33033448341303E-06,1.0546875,0,0
-3.39650759997312E-05,7.84617714089109E-06,1.0546875,0,0
-3.54383191734087E-05,7.92136415839195E-06,1.0546875,0,0
-3.45886364812031E-05,7.66457378631458E-06,1.0546875,0,0
-3.35352597176097E-05,6.26831251793192E-06,1.0546875,0,0
-3.32156923832372E-05,4.33103832619963E-06,1.0546875,0,0
-3.38030076818541E-05,4.374010131869E-06,1.0546875,0,0
-2.91316282527987E-05,6.4095306697709E-06,1.0546875,0,0
-4.18079798691906E-05,9.607024367142E-06,1.0546875,0,0
-3.06178626487963E-05,5.68771838516113E-06,1.0546875,0,0
-3.5161581763532E-05,4.49030221716384E-06,1.0546875,0,0
-2.66139959421707E-05,2.34640015150944E-06,1.0546875,0,0
-2.90674870484509E-05,3.20271237796987E-06,1.0546875,0,0
-2.50378307100618E-05,3.84792565455427E-06,1.0546875,0,0
-2.60133965639398E-05,5.38187487109099E-06,1.0546875,0,0
-2.57522806350607E-05,7.27994529370335E-06,1.0546875,0,0
-2.57148385571782E-05,9.06666355149355E-06,1.0546875,0,0
-2.48748856392922E-05,9.82208803179674E-06,1.0546875,0,0
-2.32986240007449E-05,9.94644688034896E-06,1.0546875,0,0
-2.51799156103516E-05,1.062020783138E-05,1.0546875,0,0
-2.47477746597724E-05,9.86400573310675E-06,1.0546875,0,0
-2.6453692044015E-05,8.20757486508228E-06,1.0546875,0,0
-2.4783774279058E-05,5.76733827983844E-06,1.0546875,0,0
-2.57178853644291E-05,6.21077060714015E-06,1.0546875,0,0
-2.25549665628932E-05,8.76256126502994E-06,1.0546875,0,0
-2.12286722671706E-05,1.12831958176685E-05,1.0546875,0,0
-1.84293585334672E-05,9.69541906670202E-06,1.0546875,0,0
-1.96341097762343E-05,6.39563722870662E-06,1.0546875,0,0
-1.96891614905326E-05,4.51004461865523E-06,1.0546875,0,0
-2.12791201192886E-05,4.89825652039144E-06,1.0546875,0,0
-2.09876561712008E-05,6.95301059749909E-06,1.0546875,0,0
-2.049312388408E-05,9.88495230558328E-06,1.0546875,0,0
-1.94522854144452E-05,1.16680103019462E-05,1.0546875,0,0
-1.9569673895603E-05,1.22491283036652E-05,1.0546875,0,0
-1.63854874699609E-05,1.0478663170943E-05,1.0546875,0,0
-2.27788386837346E-05,1.54309618665138E-05,1.0546875,0,0
-1.79333419509931E-05,1.28755727928365E-05,1.0546875,0,0
-2.30300447583431E-05,1.63560252985917E-05,1.0546875,0,0
-2.02850278583355E-05,1.34690626509837E-05,1.0546875,0,0
-2.24196010094602E-05,1.54189128807047E-05,1.0546875,0,0
-1.9111854271614E-05,1.5486035408685E-05,1.0546875,0,0
-1.81303494173335E-05,1.49367842823267E-05,1.0546875,0,0
-1.585570134921E-05,1.39191879497957E-05,1.0546875,0,0
-1.63057629833929E-05,1.38780424094875E-05,1.0546875,0,0
-1.72019408637425E-05,1.4252193068387E-05,1.0546875,0,0
-1.56208625412546E-05,1.39781423058594E-05,1.0546875,0,0
-1.47416640174924E-05,1.37443757921574E-05,1.0546875,0,0
-1.39831154228887E-05,1.0776488124975E-05,1.0546875,0,0
-1.7189768186654E-05,7.74975069361972E-06,1.0546875,0,0
-1.84142663783859E-05,4.64053664472885E-06,1.0546875,0,0
-1.99872974917525E-05,4.7608054956072E-06,1.0546875,0,0
-1.86809847946279E-05,4.94142204843229E-06,1.0546875,0,0
-1.99083715415327E-05,4.9320433390676E-06,1.0546875,0,0
-2.01031434698962E-05,3.21767629429814E-06,1.0546875,0,0
-2.15160744119203E-05,3.66650829164428E-06,1.0546875,0,0
-2.23534534598002E-05,5.34954415343236E-06,1.0546875,0,0
-2.46756335400278E-05,5.25762470715563E-06,1.0546875,0,0
-2.61585882981308E-05,1.89380568826891E-06,1.0546875,0,0
-2.68572202912765E-05,4.18704786397939E-07,1.0546875,0,0
-2.57143074122723E-05,2.70961231763067E-06,1.0546875,0,0
-2.42724563577212E-05,6.52253766020294E-06,1.0546875,0,0
-1.93423074961174E-05,7.77506647864357E-06,1.0546875,0,0
-2.9180400815676E-05,1.33833327708999E-05,1.0546875,0,0
-2.49504319072003E-05,1.51459653352504E-05,1.0546875,0,0
-2.95446552627254E-05,1.97530152945546E-05,1.0546875,0,0
-2.52346490015043E-05,1.8500666556065E-05,1.0546875,0,0
-2.89720737782773E-05,1.79946018761257E-05,1.0546875,0,0
-2.71617354883347E-05,1.38942141347798E-05,1.0546875,0,0
-2.73636178462766E-05,1.13776623038575E-05,1.0546875,0,0
-2.58319269050844E-05,1.13258411147399E-05,1.0546875,0,0
-2.59076641668798E-05,1.32973309519002E-05,1.0546875,0,0
-2.6063264158438E-05,1.58754992298782E-05,1.0546875,0,0
-2.48353335337015E-05,1.73220087162917E-05,1.0546875,0,0
-2.51114688580856E-05,1.82749372470425E-05,1.0546875,0,0
-2.42469086515484E-05,1.78314330696594E-05,1.0546875,0,0
-2.58283162111184E-05,1.67682846949901E-05,1.0546875,0,0
-2.58203581324779E-05,1.42022245199769E-05,1.0546875,0,0
-2.7416357625043E-05,1.40100801218068E-05,1.0546875,0,0
-2.55208233284066E-05,1.53350883920211E-05,1.0546875,0,0
-2.4220542400144E-05,1.72588788700523E-05,1.0546875,0,0
-2.11523456528084E-05,1.7638243662077E-05,1.0546875,0,0
-2.03117997443769E-05,1.95162374438951E-05,1.0546875,0,0
-1.77504261955619E-05,2.14690189750399E-05,1.0546875,0,0
-1.54759673023364E-05,2.29531524382764E-05,1.0546875,0,0
-1.3376098650042E-05,2.29808138101362E-05,1.0546875,0,0
-1.31262722788961E-05,2.13002367672743E-05,1.0546875,0,0
-1.30908156279474E-05,1.87905443453928E-05,1.0546875,0,0
-1.30527778310352E-05,1.55157540575601E-05,1.0546875,0,0
-1.03880875030882E-05,9.65782601269893E-06,1.0546875,0,0
-1.50605210365029E-05,1.37500182972872E-05,1.0546875,0,0
-1.10629007394891E-05,1.04599394035176E-05,1.0546875,0,0
-1.2259476534382E-05,1.20751710710465E-05,1.0546875,0,0
-1.09746124508092E-05,9.57874635787448E-06,1.0546875,0,0
-1.52248703670921E-05,1.12942270789063E-05,1.0546875,0,0
-1.66759455169085E-05,8.17540330899647E-06,1.0546875,0,0
-1.80479710252257E-05,5.39223856321769E-06,1.0546875,0,0
-1.87689165613847E-05,3.19423520522832E-06,1.0546875,0,0
-2.0676665371866E-05,4.39392351836432E-06,1.0546875,0,0
-2.25016356125707E-05,7.18797537047067E-06,1.0546875,0,0
-2.34597155213123E-05,8.46876810101094E-06,1.0546875,0,0
-2.4659835617058E-05,7.45039415050996E-06,1.0546875,0,0
-2.40960780502064E-05,3.95546294384985E-06,1.0546875,0,0
-2.4319540898432E-05,2.62240928350366E-06,1.0546875,0,0
-2.36264677369036E-05,1.37391600674164E-06,1.0546875,0,0
-2.46429299295414E-05,2.64051004705834E-06,1.0546875,0,0
-2.50385110120988E-05,3.52192864738754E-06,1.0546875,0,0
-2.53594025707571E-05,5.19665445608553E-06,1.0546875,0,0
-2.32178426813334E-05,6.71259113005362E-06,1.0546875,0,0
-2.21018490265124E-05,9.28336612560088E-06,1.0546875,0,0
-2.15383752220077E-05,7.44682529330021E-06,1.0546875,0,0
-2.16355820157332E-05,2.54470751315239E-06,1.0546875,0,0
-2.10901744139846E-05,1.60220380962528E-07,1.0546875,0,0
-2.18104269151809E-05,2.51542110163427E-06,1.0546875,0,0
-2.45822557189967E-05,5.12394080942613E-06,1.0546875,0,0
-2.63709662249312E-05,6.73583372190478E-06,1.0546875,0,0
-2.12193353945622E-05,5.59419686396723E-06,1.0546875,0,0
-2.98131126328371E-05,9.23899187910138E-06,1.0546875,0,0
-2.20375859498745E-05,9.35592197492952E-06,1.0546875,0,0
-2.73980385827599E-05,1.03644542832626E-05,1.0546875,0,0
-2.28483932005474E-05,7.95552477939054E-06,1.0546875,0,0
-2.59920198004693E-05,9.0125695351162E-06,1.0546875,0,0
-2.38098691625055E-05,9.79294145508902E-06,1.0546875,0,0
-2.47550124186091E-05,1.05773769973894E-05,1.0546875,0,0
-2.4360464522033E-05,8.85997997102095E-06,1.0546875,0,0
-2.61157692875713E-05,7.81158450990915E-06,1.0546875,0,0
-2.76403152383864E-05,8.84454857441597E-06,1.0546875,0,0
-2.76236478384817E-05,1.07151618067292E-05,1.0546875,0,0
-2.8947006285307E-05,1.12922589323716E-05,1.0546875,0,0
-2.69775337073952E-05,9.38186622079229E-06,1.0546875,0,0
-2.66755105258198E-05,9.32532930164598E-06,1.0546875,0,0
-2.56602597801248E-05,1.02294397947844E-05,1.0546875,0,0
-2.76282207778422E-05,1.10645742097404E-05,1.0546875,0,0
-2.64124537352473E-05,1.11159451989806E-05,1.0546875,0,0
-2.70661403192207E-05,1.29095342344954E-05,1.0546875,0,0
-2.69131487584673E-05,1.32738814500044E-05,1.0546875,0,0
-2.92038948828122E-05,1.29631198433344E-05,1.0546875,0,0
-2.9678427381441E-05,1.30460821310407E-05,1.0546875,0,0
-3.17377089231741E-05,1.45322846947238E-05,1.0546875,0,0
-3.31936353177298E-05,1.53134442371083E-05,1.0546875,0,0
-3.50704322045203E-05,1.5138580238272E-05,1.0546875,0,0
-3.57588360202499E-05,1.57458835019497E-05,1.0546875,0,0
-3.58518045686651E-05,1.63938366313232E-05,1.0546875,0,0
-2.92610911856173E-05,1.34568153953296E-05,1.0546875,0,0
-4.08260930271354E-05,1.94425010704435E-05,1.0546875,0,0
-2.96710950351553E-05,1.50889600263326E-05,1.0546875,0,0
-3.65289452020079E-05,1.86825127457269E-05,1.0546875,0,0
-3.06378169625532E-05,1.4438393918681E-05,1.0546875,0,0
-3.51949711330235E-05,1.46642132676789E-05,1.0546875,0,0
-3.2495976483915E-05,1.26735958474455E-05,1.0546875,0,0
-3.55702177330386E-05,1.25430478874478E-05,1.0546875,0,0
-3.56648197339382E-05,1.10285545815714E-05,1.0546875,0,0
-3.66610001947265E-05,1.00235247373348E-05,1.0546875,0,0
-3.67497850675136E-05,9.81264838628704E-06,1.0546875,0,0
-3.38898098561913E-05,1.04540295069455E-05,1.0546875,0,0
-3.23573622154072E-05,1.20950389828067E-05,1.0546875,0,0
-2.93705543299438E-05,1.06626075648819E-05,1.0546875,0,0
-3.11283729388379E-05,1.00867218861822E-05,1.0546875,0,0
-2.96895632345695E-05,8.32148452900583E-06,1.0546875,0,0
-3.0326107662404E-05,8.51017375680385E-06,1.0546875,0,0
-2.66476927208714E-05,7.70152928453172E-06,1.0546875,0,0
-2.61741115537006E-05,8.17104319139617E-06,1.0546875,0,0
-2.40376666624798E-05,7.28137911210069E-06,1.0546875,0,0
-2.49915719905403E-05,6.46309854346327E-06,1.0546875,0,0
-2.38396150962217E-05,5.66146309211035E-06,1.0546875,0,0
-2.41528287006076E-05,8.80057268659584E-06,1.0546875,0,0
-2.32553502428345E-05,1.16319388325792E-05,1.0546875,0,0
-2.35174138651928E-05,1.10947148641571E-05,1.0546875,0,0
-2.3609733034391E-05,8.74149100127397E-06,1.0546875,0,0
-2.45400296989828E-05,8.08836375654209E-06,1.0546875,0,0
-1.97795689018676E-05,6.68610118736979E-06,1.0546875,0,0
-2.78908119071275E-05,1.02579897429678E-05,1.0546875,0,0
-2.05981432372937E-05,9.77575473370962E-06,1.0546875,0,0
-2.47641401074361E-05,1.23236468425603E-05,1.0546875,0,0
-2.15394629776711E-05,1.16740293378825E-05,1.0546875,0,0
-2.54596125159878E-05,1.32307886815397E-05,1.0546875,0,0
-2.35013285418972E-05,1.18789730549906E-05,1.0546875,0,0
-2.57226165558677E-05,1.06449570012046E-05,1.0546875,0,0
-2.71116296062246E-05,8.22280162537936E-06,1.0546875,0,0
-2.88218834612053E-05,6.2554768192058E-06,1.0546875,0,0
-2.95371064567007E-05,4.77441381008248E-06,1.0546875,0,0
-2.86583126580808E-05,4.2711312744359E-06,1.0546875,0,0
-2.91132673737593E-05,4.42819782620063E-06,1.0546875,0,0
-2.78398074442521E-05,3.88240869142464E-06,1.0546875,0,0
-2.87865441350732E-05,3.8583002606174E-06,1.0546875,0,0
-2.72445358859841E-05,3.28813916894433E-06,1.0546875,0,0
-2.75747188425157E-05,4.70623081127997E-06,1.0546875,0,0
-2.56896237260662E-05,6.77245088809286E-06,1.0546875,0,0
-2.65053349721711E-05,9.51676338445395E-06,1.0546875,0,0
-2.68870826403145E-05,1.0058936823043E-05,1.0546875,0,0
-2.90697917080252E-05,9.98855193756754E-06,1.0546875,0,0
-2.9606095267809E-05,9.46414547797758E-06,1.0546875,0,0
-3.11167568725068E-05,8.61225817061495E-06,1.0546875,0,0
-3.04275890812278E-05,6.69052633384126E-06,1.0546875,0,0
-2.87432212644489E-05,5.67006418350502E-06,1.0546875,0,0
-2.76300706900656E-05,4.92200661028619E-06,1.0546875,0,0
-2.77005110547179E-05,6.14279588262434E-06,1.0546875,0,0
-2.19271259993548E-05,8.8710885393084E-06,1.0546875,0,0
-3.00965239148354E-05,1.62368723977124E-05,1.0546875,0,0
-2.04543648578692E-05,1.62215892487438E-05,1.0546875,0,0
-2.47391526499996E-05,1.75022432813421E-05,1.0546875,0,0
-1.98390807781834E-05,1.59108967636712E-05,1.0546875,0,0
-2.23108199861599E-05,1.81848372449167E-05,1.0546875,0,0
-1.86312299774727E-05,1.97628978639841E-05,1.0546875,0,0
-1.77701385837281E-05,2.18235873035155E-05,1.0546875,0,0
-1.44551613630028E-05,2.36110645346344E-05,1.0546875,0,0
-1.28348810903844E-05,2.47957286774181E-05,1.0546875,0,0
-1.34597094074707E-05,2.43893737206236E-05,1.0546875,0,0
-1.3801137356495E-05,2.27105992962606E-05,1.0546875,0,0
-1.45462809086894E-05,2.08453802770237E-05,1.0546875,0,0
-1.32486056827474E-05,1.8189008187619E-05,1.0546875,0,0
-1.54103581735399E-05,1.80086990440032E-05,1.0546875,0,0
-1.59139126481023E-05,1.86517518159235E-05,1.0546875,0,0
-1.85669487109408E-05,1.98187863134081E-05,1.0546875,0,0
-1.82692256203154E-05,2.03461222554324E-05,1.0546875,0,0
-1.95269967662171E-05,2.11039769055787E-05,1.0546875,0,0
-1.8670874851523E-05,2.00449903786648E-05,1.0546875,0,0
-1.95627235370921E-05,1.86236065928824E-05,1.0546875,0,0
-1.89677630260121E-05,1.60322142619407E-05,1.0546875,0,0
-1.95093434740556E-05,1.38779723783955E-05,1.0546875,0,0
-1.87859222933184E-05,1.39338562803459E-05,1.0546875,0,0
-1.86636771104531E-05,1.57969916472211E-05,1.0546875,0,0
-1.76466819539201E-05,1.69258237292524E-05,1.0546875,0,0
-1.65144683705876E-05,1.78509053512244E-05,1.0546875,0,0
-1.43350562211708E-05,1.37318857014179E-05,1.0546875,0,0
-2.38306656683562E-05,1.86449487955542E-05,1.0546875,0,0
-2.35879579122411E-05,1.46780321301776E-05,1.0546875,0,0
-2.73805308097508E-05,2.13985913433135E-05,1.0546875,0,0
-2.25804269575747E-05,1.97805675270502E-05,1.0546875,0,0
-2.24983323278138E-05,1.98947618628154E-05,1.0546875,0,0
-2.14330721064471E-05,1.32946324811201E-05,1.0546875,0,0
-2.39042019529734E-05,9.16173939913278E-06,1.0546875,0,0
-2.48792948696064E-05,7.00195960234851E-06,1.0546875,0,0
-2.45670271397103E-05,8.52149605634622E-06,1.0546875,0,0
-2.34280851145741E-05,1.10634737211512E-05,1.0546875,0,0
-2.2172895114636E-05,1.25818260130472E-05,1.0546875,0,0
-2.20734091271879E-05,1.39240628413972E-05,1.0546875,0,0
-2.06982094823616E-05,1.30815078591695E-05,1.0546875,0,0
-2.06771273951745E-05,1.36590560941841E-05,1.0546875,0,0
-1.92840689123841E-05,1.2736225471599E-05,1.0546875,0,0
-1.93171454156982E-05,1.32162258523749E-05,1.0546875,0,0
-1.79197031684453E-05,1.20760887512006E-05,1.0546875,0,0
-1.81868981599109E-05,1.2217567928019E-05,1.0546875,0,0
-1.72411273524631E-05,1.05064127637888E-05,1.0546875,0,0
-1.64390094141709E-05,8.91511899681063E-06,1.0546875,0,0
-1.49605966726085E-05,5.82756229050574E-06,1.0546875,0,0
-1.58844341058284E-05,5.38000676897354E-06,1.0546875,0,0
-1.74483757291455E-05,4.1236689867219E-06,1.0546875,0,0
-1.9314160454087E-05,1.32368086269707E-06,1.0546875,0,0
-2.1794385247631E-05,-4.14349500488242E-07,1.0546875,0,0
-2.42015885305591E-05,2.91115469508441E-07,1.0546875,0,0
-1.97312292584684E-05,3.17309445563296E-06,1.0546875,0,0
-2.59646967606386E-05,7.30062083675875E-06,1.0546875,0,0
-1.64259690791368E-05,9.2801446953672E-06,1.0546875,0,0
-2.04282096092356E-05,1.05345570773352E-05,1.0546875,0,0
-1.53760574903572E-05,1.22775009003817E-05,1.0546875,0,0
-1.7951353584067E-05,1.56975947902538E-05,1.0546875,0,0
-1.65393994393526E-05,1.59875689860201E-05,1.0546875,0,0
-1.91481867659604E-05,1.32210643641884E-05,1.0546875,0,0
-1.96606270037591E-05,1.19508695206605E-05,1.0546875,0,0
-2.04638727154816E-05,1.1832851669169E-05,1.0546875,0,0
-2.10521066037472E-05,1.08059794001747E-05,1.0546875,0,0
-2.06133136089193E-05,9.67929008766077E-06,1.0546875,0,0
-2.06907734536799E-05,1.02294670796255E-05,1.0546875,0,0
-1.81324485311052E-05,1.15672000902123E-05,1.0546875,0,0
-1.88991252798587E-05,1.26169697978185E-05,1.0546875,0,0
-1.92478455574019E-05,1.24410116768559E-05,1.0546875,0,0
-2.1999585442245E-05,1.17317758849822E-05,1.0546875,0,0
-2.16177686525043E-05,9.9701146609732E-06,1.0546875,0,0
-2.27348537009675E-05,7.89053228800185E-06,1.0546875,0,0
-2.21603131649317E-05,6.01689089307911E-06,1.0546875,0,0
-2.3228289137478E-05,4.81361894344445E-06,1.0546875,0,0
-2.21449372475035E-05,3.71524470210716E-06,1.0546875,0,0
-2.19389748963295E-05,2.45902128881426E-06,1.0546875,0,0
-2.0848938220297E-05,1.70995951975783E-06,1.0546875,0,0
-2.06784898182377E-05,1.51882261434366E-06,1.0546875,0,0
-2.15614090848248E-05,1.84768020972115E-06,1.0546875,0,0
-2.34690651268465E-05,2.28912472266529E-06,1.0546875,0,0
-2.11205460800556E-05,1.63068068559369E-06,1.0546875,0,0
-3.15538454742637E-05,1.93144433069392E-06,1.0546875,0,0
-2.50444409175543E-05,2.45846922553028E-06,1.0546875,0,0
-2.94372039206792E-05,4.8589158723189E-06,1.0546875,0,0
-2.57770643656841E-05,4.35718311564415E-06,1.0546875,0,0
-2.87500497506699E-05,3.64560082743992E-06,1.0546875,0,0
-2.62777266470948E-05,3.27010366163449E-06,1.0546875,0,0
-2.70924665528582E-05,4.64531694888137E-06,1.0546875,0,0
-2.57495157711674E-05,5.2445807341428E-06,1.0546875,0,0
-2.58927047980251E-05,4.7847088353592E-06,1.0546875,0,0
-2.7394604330766E-05,5.17235639563296E-06,1.0546875,0,0
-2.88156261376571E-05,5.44334807273117E-06,1.0546875,0,0
-3.10886862280313E-05,4.54973041996709E-06,1.0546875,0,0
-3.01360614685109E-05,3.43769352184609E-06,1.0546875,0,0
-3.06853798974771E-05,3.44140016750316E-06,1.0546875,0,0
-2.90364732791204E-05,3.44059344570269E-06,1.0546875,0,0
-3.05320172628853E-05,3.38714221470582E-06,1.0546875,0,0
-3.12263073283248E-05,3.479228780634E-06,1.0546875,0,0
-3.40097503794823E-05,3.53948007614235E-06,1.0546875,0,0
-3.40742881235201E-05,3.21551533488673E-06,1.0546875,0,0
-3.45990847563371E-05,4.52051426691469E-06,1.0546875,0,0
-3.31168048433028E-05,5.70581050851615E-06,1.0546875,0,0
-3.31692681356799E-05,6.03477246841067E-06,1.0546875,0,0
-3.22975247399881E-05,6.87167994328775E-06,1.0546875,0,0
-3.21478946716525E-05,7.82636561780237E-06,1.0546875,0,0
-3.24183129123412E-05,7.5713223850471E-06,1.0546875,0,0
-3.35234690282959E-05,6.64184562992887E-06,1.0546875,0,0
-2.73538662440842E-05,3.66465155821061E-06,1.0546875,0,0
-3.83827646146528E-05,4.44863553639152E-06,1.0546875,0,0
-2.78571060334798E-05,4.08880123359268E-06,1.0546875,0,0
-3.38323698088061E-05,7.65868935559411E-06,1.0546875,0,0
-2.87498423858779E-05,7.82225288276095E-06,1.0546875,0,0
-3.48615394614171E-05,1.01398682090803E-05,1.0546875,0,0
-3.26891095028259E-05,1.20514441732666E-05,1.0546875,0,0
-3.31981500494294E-05,1.25634305732092E-05,1.0546875,0,0
-3.05319445033092E-05,1.0901515452133E-05,1.0546875,0,0
-2.89188446913613E-05,9.20118691283278E-06,1.0546875,0,0
-2.797579873004E-05,6.84453652866068E-06,1.0546875,0,0
-2.60331416939152E-05,4.52504355052952E-06,1.0546875,0,0
-2.56357798207318E-05,4.80528296975535E-06,1.0546875,0,0
-2.31536523642717E-05,6.72008127367008E-06,1.0546875,0,0
-2.48127835220657E-05,8.81602318258956E-06,1.0546875,0,0
-2.39534019783605E-05,9.11186543817166E-06,1.0546875,0,0
-2.52554218604928E-05,9.79360083874781E-06,1.0546875,0,0
-2.28306344070006E-05,1.09045595308999E-05,1.0546875,0,0
-2.33259343076497E-05,1.22123674373142E-05,1.0546875,0,0
-2.19545254367404E-05,1.19758005894255E-05,1.0546875,0,0
-2.25165022129659E-05,1.24583793876809E-05,1.0546875,0,0
-2.08424735319568E-05,1.3103869605402E-05,1.0546875,0,0
-2.08368946914561E-05,1.2810802218155E-05,1.0546875,0,0
-1.94363510672702E-05,1.15120410555392E-05,1.0546875,0,0
-1.90818445844343E-05,1.13289306682418E-05,1.0546875,0,0
-1.86776505870512E-05,1.15583088700077E-05,1.0546875,0,0
-1.94276126421755E-05,1.23350446301629E-05,1.0546875,0,0
-1.71962510648882E-05,1.07332061816123E-05,1.0546875,0,0
-2.42084388446528E-05,1.60998843057314E-05,1.23046875,0,0
-1.75500590557931E-05,1.30266689666314E-05,1.23046875,0,0
-2.14976771530928E-05,1.56804635480512E-05,1.23046875,0,0
-1.83970369107556E-05,1.24694843179896E-05,1.23046875,0,0
-2.13295097637456E-05,1.43225870488095E-05,1.23046875,0,0
-2.07360099011566E-05,1.49135712490533E-05,1.23046875,0,0
-2.25101848627673E-05,1.51775857375469E-05,1.23046875,0,0
-2.25242656597402E-05,1.35299160319846E-05,1.23046875,0,0
-2.20100537262624E-05,1.26558979900437E-05,1.23046875,0,0
-2.11649166885763E-05,1.38505502036423E-05,1.23046875,0,0
-2.01304592337692E-05,1.55192028614692E-05,1.23046875,0,0
-2.20426518353634E-05,1.54655881487997E-05,1.23046875,0,0
-2.27356322284322E-05,1.1654921763693E-05,1.23046875,0,0
-2.45133905991679E-05,1.02597923614667E-05,1.23046875,0,0
-2.41390098381089E-05,1.09273232737905E-05,1.23046875,0,0
-2.43513968598563E-05,1.26481736515416E-05,1.23046875,0,0
-2.17216529563302E-05,1.25616606965195E-05,1.23046875,0,0
-2.09359568543732E-05,1.38992481879541E-05,1.23046875,0,0
-2.01758775801864E-05,1.33771200125921E-05,1.23046875,0,0
-2.21869213419268E-05,1.10786440927768E-05,1.23046875,0,0
-2.33541759371292E-05,8.62392244016519E-06,1.23046875,0,0
-2.42696005443577E-05,9.55044743022881E-06,1.23046875,0,0
-2.29939851124072E-05,1.14720915007638E-05,1.23046875,0,0
-2.23238530452363E-05,1.27087696455419E-05,1.23046875,0,0
-2.24052328121616E-05,1.19374535643146E-05,1.23046875,0,0
-2.29696270253044E-05,1.0390381248726E-05,1.23046875,0,0
-1.94670355995186E-05,7.22366939953645E-06,1.23046875,0,0
-2.7937665436184E-05,9.45977171795676E-06,1.23046875,0,0
-2.10911421163473E-05,5.41328518011142E-06,1.23046875,0,0
-2.53805101237958E-05,5.72370572626824E-06,1.23046875,0,0
-2.0832210793742E-05,4.1573239286663E-06,1.23046875,0,0
-2.290797601745E-05,6.49548564979341E-06,1.23046875,0,0
-2.07766188395908E-05,6.85361510477378E-06,1.23046875,0,0
-2.21313457586803E-05,9.30023998080287E-06,1.23046875,0,0
-2.15573018067516E-05,1.2141133993282E-05,1.23046875,0,0
-2.18815075641032E-05,1.3656695955433E-05,1.23046875,0,0
-2.16883363464149E-05,1.33647845359519E-05,1.23046875,0,0
-1.97973731701495E-05,1.25801971080364E-05,1.23046875,0,0
-1.93622690858319E-05,1.22440378618194E-05,1.23046875,0,0
-1.76106077560689E-05,1.11022964119911E-05,1.23046875,0,0
-1.776671706466E-05,1.08861931948923E-05,1.23046875,0,0
-1.6223226339207E-05,1.20526146929478E-05,1.23046875,0,0
-1.79433827725006E-05,1.52694192365743E-05,1.23046875,0,0
-1.82300973392557E-05,1.63387830980355E-05,1.23046875,0,0
-2.01195107365493E-05,1.644114672672E-05,1.23046875,0,0
-2.02805895241909E-05,1.51531921801507E-05,1.23046875,0,0
-2.26346601266414E-05,1.46429802043713E-05,1.23046875,0,0
-2.39265500567853E-05,1.50427940752706E-05,1.23046875,0,0
-2.59422449744307E-05,1.706266994006E-05,1.23046875,0,0
-2.65368817053968E-05,1.7446489437134E-05,1.23046875,0,0
-2.71336321020499E-05,1.59626506501809E-05,1.23046875,0,0
-2.72213346761419E-05,1.54325498442631E-05,1.23046875,0,0
-2.65348189714132E-05,1.70712919498328E-05,1.23046875,0,0
-2.11148435482755E-05,1.18325324365287E-05,1.23046875,0,0
-2.97185797535349E-05,1.31668120957329E-05,1.23046875,0,0
-2.17338638321962E-05,6.71454336043098E-06,1.23046875,0,0
-2.67666928266408E-05,1.2845318451582E-05,1.23046875,0,0
-2.20997590076877E-05,1.30280495795887E-05,1.23046875,0,0
-2.40725639741868E-05,1.68103033502121E-05,1.23046875,0,0
-2.12038357858546E-05,1.37188526423415E-05,1.23046875,0,0
-2.1651181668858E-05,1.00182032838347E-05,1.23046875,0,0
-2.07034699997166E-05,6.10731785855023E-06,1.23046875,0,0
-2.17669421544997E-05,6.03899479756365E-06,1.23046875,0,0
-2.3809077902115E-05,9.5428995336988E-06,1.23046875,0,0
-2.53551588684786E-05,1.26736740639899E-05,1.23046875,0,0
-2.7522833988769E-05,1.457894086343E-05,1.23046875,0,0
-2.59034022747073E-05,1.37754250317812E-05,1.23046875,0,0
-2.60774977505207E-05,1.39748281071661E-05,1.23046875,0,0
-2.45381743297912E-05,1.23145737234154E-05,1.23046875,0,0
-2.61849891103338E-05,1.22482206279528E-05,1.23046875,0,0
-2.66959868895356E-05,1.14498361654114E-05,1.23046875,0,0
-2.87295297312085E-05,1.2177309145045E-05,1.23046875,0,0
-2.7699330530595E-05,1.13727237476269E-05,1.23046875,0,0
-2.88877799903275E-05,1.15056827780791E-05,1.23046875,0,0
-2.9682019885513E-05,1.07320020106272E-05,1.23046875,0,0
-3.0570437957067E-05,9.76380488282302E-06,1.23046875,0,0
-2.95438767352607E-05,8.64346839080099E-06,1.23046875,0,0
-2.94532328553032E-05,1.02426001831191E-05,1.23046875,0,0
-2.89819290628657E-05,1.03149322967511E-05,1.23046875,0,0
-2.81403190456331E-05,6.72655642119935E-06,1.23046875,0,0
-2.19306639337447E-05,2.8951385502296E-06,1.23046875,0,0
-3.00928404612932E-05,7.31884074411937E-06,1.23046875,0,0
-2.27359541895567E-05,1.38454188345349E-05,1.23046875,0,0
-3.03168653772445E-05,1.82621788553661E-05,1.23046875,0,0
-2.58147465501679E-05,1.71847477759002E-05,1.23046875,0,0
-2.73433215625118E-05,1.62411197379697E-05,1.23046875,0,0
-2.38161719607888E-05,1.44267332871095E-05,1.23046875,0,0
-2.46164217969636E-05,1.47655482578557E-05,1.23046875,0,0
-2.34144972637296E-05,1.53265136759728E-05,1.23046875,0,0
-2.35293027799344E-05,1.56057121785125E-05,1.23046875,0,0
-2.45427418121835E-05,1.513146526122E-05,1.23046875,0,0
-2.48503110924503E-05,1.4839468349237E-05,1.23046875,0,0
-2.53652506216895E-05,1.62154428835493E-05,1.23046875,0,0
-2.2609519874095E-05,1.77919100678992E-05,1.23046875,0,0
-2.37501881201752E-05,1.95792945305584E-05,1.23046875,0,0
-2.44405709963758E-05,1.99487913050689E-05,1.23046875,0,0
-2.74859448836651E-05,1.91038707271218E-05,1.23046875,0,0
-2.68922285613371E-05,1.65936016855994E-05,1.23046875,0,0
-2.71969111054204E-05,1.34470992634306E-05,1.23046875,0,0
-2.51586461672559E-05,9.81702760327607E-06,1.23046875,0,0
-2.64268710452598E-05,7.29424573364668E-06,1.23046875,0,0
-2.76003684120951E-05,5.54516327611054E-06,1.23046875,0,0
-2.98167815344641E-05,5.23255812368006E-06,1.23046875,0,0
-2.92797703878023E-05,5.51981975149829E-06,1.23046875,0,0
-2.81036882370245E-05,5.54858297618921E-06,1.23046875,0,0
-2.78033603535732E-05,5.54841881239554E-06,1.23046875,0,0
-2.92005715891719E-05,5.6727226365183E-06,1.23046875,0,0
-2.46533691097284E-05,5.85731459068484E-06,1.23046875,0,0
-3.4225158742629E-05,8.44781516207149E-06,1.23046875,0,0
-2.54367914749309E-05,6.28616498943302E-06,1.23046875,0,0
-3.22488740494009E-05,7.53766380512388E-06,1.23046875,0,0
-2.65171784121776E-05,5.9471180975379E-06,1.23046875,0,0
-2.93470566248288E-05,6.36182176094735E-06,1.23046875,0,0
-2.71470689767739E-05,5.76177717448445E-06,1.23046875,0,0
-2.92565819108859E-05,6.15129692960181E-06,1.23046875,0,0
-2.85858095594449E-05,7.86027430876857E-06,1.23046875,0,0
-2.85966489173006E-05,1.03256688817055E-05,1.23046875,0,0
-2.85093483398668E-05,1.20080394481192E-05,1.23046875,0,0
-2.71056469500763E-05,1.36476237457828E-05,1.23046875,0,0
-2.86683534795884E-05,1.54543031385401E-05,1.23046875,0,0
-2.87396360363346E-05,1.506284752395E-05,1.23046875,0,0
-3.11899348162115E-05,1.38815903483192E-05,1.23046875,0,0
-2.97886399494018E-05,1.24666730698664E-05,1.23046875,0,0
-3.07279115077108E-05,1.2876666005468E-05,1.23046875,0,0
-2.95642548735486E-05,1.29521722556092E-05,1.23046875,0,0
-3.09490205836482E-05,1.2808307474188E-05,1.23046875,0,0
-2.93705670628697E-05,1.13006180981756E-05,1.23046875,0,0
-2.94890724035213E-05,1.04034388641594E-05,1.23046875,0,0
-2.84930156340124E-05,9.83857262326637E-06,1.23046875,0,0
-2.79373252851656E-05,9.75350758380955E-06,1.23046875,0,0
-2.44900147663429E-05,9.39624897000613E-06,1.23046875,0,0
-2.12662234844174E-05,8.13426504464587E-06,1.23046875,0,0
-1.97046629182296E-05,5.50443928659661E-06,1.23046875,0,0
-1.96802629943704E-05,4.80061999041936E-06,1.23046875,0,0
-1.65176898008212E-05,6.40322923572967E-06,1.23046875,0,0
-2.28439930651803E-05,1.00092338470859E-05,1.23046875,0,0
-1.68752048921306E-05,8.14979648566805E-06,1.23046875,0,0
-2.20426845771726E-05,8.99293627298903E-06,1.23046875,0,0
-1.99071582756005E-05,8.41951077745762E-06,1.23046875,0,0
-2.25762523768935E-05,1.14688182293321E-05,1.23046875,0,0
-1.99723799596541E-05,1.26918212117744E-05,1.23046875,0,0
-1.95740831259172E-05,1.27580697153462E-05,1.23046875,0,0
-1.9477220121189E-05,1.06248089650762E-05,1.23046875,0,0
-2.0555205992423E-05,8.44548048917204E-06,1.23046875,0,0
-2.13929397432366E-05,6.8536510298145E-06,1.23046875,0,0
-2.10533125937218E-05,5.63432558919885E-06,1.23046875,0,0
-2.25160147238057E-05,6.10308052273467E-06,1.23046875,0,0
-2.24303839786444E-05,7.17184320819797E-06,1.23046875,0,0
-2.36774230870651E-05,1.03490747278556E-05,1.23046875,0,0
-2.24588056880748E-05,1.17940726340748E-05,1.23046875,0,0
-2.24584764509927E-05,1.11890358311939E-05,1.23046875,0,0
-2.10967846214771E-05,9.077564754989E-06,1.23046875,0,0
-2.10389844141901E-05,7.68235895520775E-06,1.23046875,0,0
-1.85779772436945E-05,6.32207002126961E-06,1.23046875,0,0
-1.74404922290705E-05,6.59928127788589E-06,1.23046875,0,0
-1.69596114574233E-05,7.28568602426094E-06,1.23046875,0,0
-1.89254496945068E-05,8.24782546260394E-06,1.23046875,0,0
-2.08802830456989E-05,8.51045115268789E-06,1.23046875,0,0
-2.08724031836027E-05,8.23629670776427E-06,1.23046875,0,0
-1.92703664652072E-05,7.99855297373142E-06,1.23046875,0,0
-1.94321073649917E-05,8.97862719284603E-06,1.23046875,0,0
-1.54010376718361E-05,7.06887749402085E-06,1.23046875,0,0
-2.07994708034676E-05,8.23352002043976E-06,1.23046875,0,0
-1.46479069371708E-05,4.09910626331111E-06,1.23046875,0,0
-2.07221037271665E-05,6.50567289994797E-06,1.23046875,0,0
-1.9625751519925E-05,5.87621843806119E-06,1.23046875,0,0
-2.09138797799824E-05,7.45398438084521E-06,1.23046875,0,0
-1.84394484676886E-05,7.55888231651625E-06,1.40625,0,0
-2.04640691663371E-05,9.72487578110304E-06,1.40625,0,0
-2.16393254959257E-05,9.40325753617799E-06,1.40625,0,0
-2.24635841732379E-05,9.11459028429817E-06,1.40625,0,0
-2.33680693781935E-05,9.50439698499395E-06,1.40625,0,0
-2.4211067284341E-05,1.05689241536311E-05,1.40625,0,0
-2.60093584074639E-05,1.32485392896342E-05,1.40625,0,0
-2.55454706348246E-05,1.43729066621745E-05,1.40625,0,0
-2.59407297562575E-05,1.3925170605944E-05,1.40625,0,0
-2.44275761360768E-05,1.17010276881047E-05,1.40625,0,0
-2.51903638854856E-05,1.1973923392361E-05,1.40625,0,0
-2.51786132139387E-05,1.2618944310816E-05,1.40625,0,0
-2.64623176917667E-05,1.34413548948942E-05,1.40625,0,0
-2.56244129559491E-05,1.2541732758109E-05,1.40625,0,0
-2.5608243959141E-05,1.1799906133092E-05,1.40625,0,0
-2.4385792130488E-05,1.09227066786843E-05,1.40625,0,0
-2.39266501012025E-05,1.05784292827593E-05,1.40625,0,0
-2.30067707889248E-05,8.89380498847459E-06,1.40625,0,0
-2.25798175961245E-05,7.68657719163457E-06,1.40625,0,0
-2.34490580623969E-05,7.07109848008258E-06,1.40625,0,0
-2.47006937570404E-05,8.05154741101433E-06,1.40625,0,0
-1.93325431609992E-05,8.18287480797153E-06,1.40625,0,0
-2.84017623926047E-05,1.17269491965999E-05,1.40625,0,0
-2.32883539865725E-05,9.30967053136555E-06,1.40625,0,0
-2.89954405161552E-05,1.17681738629472E-05,1.40625,0,0
-2.57887149928138E-05,1.18714906420792E-05,1.40625,0,0
-2.92835266009206E-05,1.50741298057255E-05,1.40625,0,0
-2.7091235097032E-05,1.29037434817292E-05,1.40625,0,0
-2.84082889265846E-05,1.07175010271021E-05,1.40625,0,0
-2.82831115328008E-05,9.57813062996138E-06,1.40625,0,0
-2.74487410933943E-05,9.70730343397008E-06,1.40625,0,0
-2.49735367106041E-05,1.03730708360672E-05,1.40625,0,0
-2.12923769140616E-05,1.02545327536063E-05,1.40625,0,0
-1.96934124687687E-05,9.51861875364557E-06,1.40625,0,0
-1.73193675436778E-05,8.15182102087419E-06,1.40625,0,0
-1.86742217920255E-05,9.76578849076759E-06,1.40625,0,0
-1.82907588168746E-05,1.1587996596063E-05,1.40625,0,0
-1.9284316294943E-05,1.34400652314071E-05,1.40625,0,0
-1.84502332558623E-05,1.22804158309009E-05,1.40625,0,0
-1.94289150385885E-05,9.71087956713745E-06,1.40625,0,0
-1.84449691005284E-05,5.33273259861744E-06,1.40625,0,0
-1.8452567019267E-05,2.82061978396086E-06,1.40625,0,0
-1.65569636010332E-05,3.4768936529872E-06,1.40625,0,0
-1.72514883161057E-05,6.57370856060879E-06,1.40625,0,0
-1.86924899026053E-05,7.54293432692066E-06,1.40625,0,0
-2.08411911444273E-05,7.75884382164804E-06,1.40625,0,0
-2.14196352317231E-05,9.8805003290181E-06,1.40625,0,0
-2.08989276870852E-05,1.43702973218751E-05,1.40625,0,0
-1.67530633916613E-05,1.38747427627095E-05,1.40625,0,0
-2.36644864344271E-05,1.85667322512018E-05,1.40625,0,0
-1.85887911356986E-05,1.15434886538424E-05,1.40625,0,0
-2.39761284319684E-05,1.57186241267482E-05,1.40625,0,0
-2.10653433896368E-05,1.48127901411499E-05,1.40625,0,0
-2.3392953153234E-05,1.84445179911563E-05,1.40625,0,0
-2.10937396332156E-05,1.771438473952E-05,1.40625,0,0
-2.10308244277257E-05,1.84108575922437E-05,1.40625,0,0
-1.9921480998164E-05,1.68649021361489E-05,1.40625,0,0
-2.11681726796087E-05,1.14938402475673E-05,1.40625,0,0
-2.22745329665486E-05,6.83127473166678E-06,1.40625,0,0
-2.20197089220164E-05,5.99036684434395E-06,1.40625,0,0
-2.24121831706725E-05,1.03941956695053E-05,1.40625,0,0
-2.04962616408011E-05,1.39463418236119E-05,1.40625,0,0
-2.03385843633441E-05,1.61373427545186E-05,1.40625,0,0
-1.93903433682863E-05,1.45081139635295E-05,1.40625,0,0
-2.0984398361179E-05,1.3697372196475E-05,1.40625,0,0
-2.08242618100485E-05,1.31682636492769E-05,1.40625,0,0
-2.26174670387991E-05,1.4871014172968E-05,1.40625,0,0
-2.27651798923034E-05,1.48269100463949E-05,1.40625,0,0
-2.41895068029407E-05,1.44635660035419E-05,1.40625,0,0
-2.45917890424607E-05,1.28520423459122E-05,1.40625,0,0
-2.55052727879956E-05,1.16903756861575E-05,1.40625,0,0
-2.50220200541662E-05,1.06270526885055E-05,1.40625,0,0
-2.60460346908076E-05,1.15680195449386E-05,1.40625,0,0
-2.71625813184073E-05,1.25596206999035E-05,1.40625,0,0
-2.79233408946311E-05,1.27336143123102E-05,1.40625,0,0
-2.31401390919928E-05,9.40173231356312E-06,1.40625,0,0
-3.30334369209595E-05,1.18993275464163E-05,1.40625,0,0
-2.4121327442117E-05,7.70334008848295E-06,1.40625,0,0
-2.78423995041521E-05,1.06915131254937E-05,1.40625,0,0
-2.30206169362646E-05,8.46375405672006E-06,1.40625,0,0
-2.81509965134319E-05,9.14573683985509E-06,1.40625,0,0
-2.57650790445041E-05,6.70015697323834E-06,1.40625,0,0
-2.55680315603968E-05,6.48857849228079E-06,1.40625,0,0
-2.34234394156374E-05,7.03876912666601E-06,1.40625,0,0
-2.2704529328621E-05,8.09153334557777E-06,1.40625,0,0
-2.28488079301314E-05,7.90760623203823E-06,1.40625,0,0
-2.23999213631032E-05,6.59844954498112E-06,1.40625,0,0
-2.34540184465004E-05,6.39333848084789E-06,1.40625,0,0
-2.22973612835631E-05,4.89748754262109E-06,1.40625,0,0
-2.42180230998201E-05,5.21999118063832E-06,1.40625,0,0
-2.47462321567582E-05,6.48977629680303E-06,1.40625,0,0
-2.735192720138E-05,8.68859660840826E-06,1.40625,0,0
-2.51546680374304E-05,8.48289619170828E-06,1.40625,0,0
-2.42347377934493E-05,8.15801195130916E-06,1.40625,0,0
-2.25634030357469E-05,6.4524401750532E-06,1.40625,0,0
-2.45621813519392E-05,7.12424161974923E-06,1.40625,0,0
-2.52279387495946E-05,8.8391770987073E-06,1.40625,0,0
-2.62059984379448E-05,1.00225151982158E-05,1.40625,0,0
-2.64623758994276E-05,8.17276850284543E-06,1.40625,0,0
-2.696071533137E-05,6.34563866697135E-06,1.40625,0,0
-2.50103712460259E-05,6.50923811917892E-06,1.40625,0,0
-2.33161808864679E-05,7.7473805504269E-06,1.40625,0,0
-1.89439215318998E-05,6.95506196279894E-06,1.40625,0,0
-2.68787716777297E-05,8.93620381248184E-06,1.40625,0,0
-1.97614463104401E-05,5.94593757341499E-06,1.40625,0,0
-2.38812699535629E-05,6.46554326522164E-06,1.40625,0,0
-1.98287361854455E-05,2.18344257518766E-06,1.40625,0,0
-2.26309766730992E-05,3.42150838150701E-06,1.40625,0,0
-2.24640680244192E-05,5.34717946720775E-06,1.40625,0,0
-2.64634782070061E-05,7.88504348747665E-06,1.40625,0,0
-2.88769861072069E-05,8.88425074663246E-06,1.40625,0,0
-3.03086526400875E-05,9.00882241694489E-06,1.40625,0,0
-2.97023379971506E-05,8.64333105710102E-06,1.40625,0,0
-2.78591287496965E-05,8.22925721877255E-06,1.40625,0,0
-2.90339467028389E-05,8.97888912732014E-06,1.40625,0,0
-2.92267541226465E-05,8.64501726027811E-06,1.40625,0,0
-2.96949619951192E-05,8.77864022186259E-06,1.40625,0,0
-2.81255743175279E-05,8.10248457128182E-06,1.40625,0,0
-2.97655151371146E-05,8.34099864732707E-06,1.40625,0,0
-2.92561580863548E-05,8.21654793980997E-06,1.40625,0,0
-2.97408951155376E-05,8.36714480101364E-06,1.40625,0,0
-2.84988873318071E-05,8.16091142041842E-06,1.40625,0,0
-2.84617108263774E-05,1.01075902421144E-05,1.40625,0,0
-2.66667102550855E-05,1.14765589387389E-05,1.40625,0,0
-2.62594421656104E-05,1.19317055577994E-05,1.40625,0,0
-2.56584698945517E-05,1.14545146061573E-05,1.40625,0,0
-2.4809431124595E-05,1.18262214527931E-05,1.40625,0,0
-2.4123233743012E-05,1.30689513753168E-05,1.40625,0,0
-2.41679335886147E-05,1.29499912873143E-05,1.40625,0,0
-1.88060857908567E-05,8.30316184874391E-06,1.40625,0,0
-2.55029062827816E-05,1.06243078334955E-05,1.40625,0,0
-1.81485320354113E-05,7.90705507824896E-06,1.40625,0,0
-2.38201628235402E-05,1.27426301332889E-05,1.40625,0,0
-2.01373040908948E-05,1.23239751701476E-05,1.40625,0,0
-2.1621932319249E-05,1.4460943020822E-05,1.40625,0,0
-1.90290975297103E-05,1.32631839733222E-05,1.40625,0,0
-2.05803480639588E-05,1.16122073450242E-05,1.40625,0,0
-2.09276968234917E-05,8.83386928762775E-06,1.40625,0,0
-2.2376860215445E-05,7.21689184501884E-06,1.40625,0,0
-2.36673040490132E-05,7.12577002559556E-06,1.40625,0,0
-2.34859689953737E-05,7.4875765676552E-06,1.40625,0,0
-2.38972024817485E-05,9.49064542510314E-06,1.40625,0,0
-2.23528750211699E-05,9.7496877060621E-06,1.40625,0,0
-2.33236878557364E-05,9.62577178142965E-06,1.40625,0,0
-2.23305105464533E-05,8.35593800729839E-06,1.40625,0,0
-2.34195304074092E-05,9.14195697987452E-06,1.40625,0,0
-2.30501827900298E-05,9.90745138551574E-06,1.40625,0,0
-2.42791447817581E-05,1.12872712634271E-05,1.40625,0,0
-2.24236882786499E-05,1.10853870864958E-05,1.40625,0,0
-2.23817696678452E-05,1.04659311546129E-05,1.40625,0,0
-2.25054318434559E-05,8.86359339347109E-06,1.40625,0,0
-2.3448594220099E-05,7.28370878277929E-06,1.40625,0,0
-2.31239700951846E-05,6.35398009762866E-06,1.40625,0,0
-2.33737973758252E-05,7.71160739532206E-06,1.40625,0,0
-2.23660954361549E-05,9.76047977019334E-06,1.40625,0,0
-2.16482130781515E-05,1.19314399853465E-05,1.40625,0,0
-1.81278992386069E-05,9.38218272494851E-06,1.40625,0,0
-2.80851199931931E-05,1.17884419523762E-05,1.40625,0,0
-2.3576089006383E-05,6.60555861031753E-06,1.40625,0,0
-2.73649638984352E-05,7.29876410332508E-06,1.40625,0,0
-2.2742482542526E-05,3.51686458088807E-06,1.40625,0,0
-2.37415442825295E-05,5.07786398884491E-06,1.40625,0,0
-2.14259489439428E-05,4.33848072134424E-06,1.40625,0,0
-2.24311897909502E-05,5.62494960831827E-06,1.40625,0,0
-2.34217550314497E-05,6.14090595263406E-06,1.93359375,0,0
-2.43272243096726E-05,7.34473042030004E-06,1.93359375,0,0
-2.4327951905434E-05,9.51890069700312E-06,1.93359375,0,0
-2.32336860790383E-05,1.23529862321448E-05,1.93359375,0,0
-2.31907743000193E-05,1.54027948155999E-05,1.93359375,0,0
-2.24726936721709E-05,1.49241423059721E-05,1.93359375,0,0
-2.39121873164549E-05,1.46794081956614E-05,1.93359375,0,0
-2.33729751926148E-05,1.3845921785105E-05,1.93359375,0,0
-2.38398060901091E-05,1.45073199746548E-05,1.93359375,0,0
-2.2707121388521E-05,1.49114021041896E-05,1.93359375,0,0
-2.34197887039045E-05,1.65114197443472E-05,1.93359375,0,0
-2.2655996872345E-05,1.60313866217621E-05,1.93359375,0,0
-2.30194491450675E-05,1.56413043441717E-05,1.93359375,0,0
-2.32064485317096E-05,1.53755663632182E-05,1.93359375,0,0
-2.50637895078398E-05,1.69752620422514E-05,1.93359375,0,0
-2.61354725807905E-05,1.79493872565217E-05,1.93359375,0,0
-2.70988875854528E-05,1.66416866704822E-05,1.93359375,0,0
-2.64524696831359E-05,1.34957990667317E-05,1.93359375,0,0
-2.53426678682445E-05,1.27466009871569E-05,1.93359375,0,0
-1.98844027181622E-05,1.11663075585966E-05,1.93359375,0,0
-2.77197650575545E-05,1.6523936210433E-05,1.93359375,0,0
-2.03980398509884E-05,1.44418982017669E-05,1.93359375,0,0
-2.50227549258852E-05,1.78763366420753E-05,1.93359375,0,0
-2.04534317163052E-05,1.45638396134018E-05,1.93359375,0,0
-2.44083330471767E-05,1.55891175381839E-05,1.93359375,0,0
-2.42564892687369E-05,1.526687083242E-05,1.93359375,0,0
-2.58819454757031E-05,1.80689312401228E-05,1.93359375,0,0
-2.29243978537852E-05,2.03282215807121E-05,1.93359375,0,0
-2.00050526473206E-05,2.25362218770897E-05,1.93359375,0,0
-1.96390683413483E-05,2.26803695113631E-05,1.93359375,0,0
-2.05853666557232E-05,2.12708964681951E-05,1.93359375,0,0
-2.3017269995762E-05,2.09469890251057E-05,1.93359375,0,0
-2.24617342610145E-05,1.95805223484058E-05,1.93359375,0,0
-2.34213021030882E-05,1.9635122953332E-05,1.93359375,0,0
-2.18681852857117E-05,1.89699858310632E-05,1.93359375,0,0
-2.27649416046916E-05,1.91782110050553E-05,1.93359375,0,0
-2.29218658205355E-05,1.73722764884587E-05,1.93359375,0,0
-2.64893042185577E-05,1.64824559760746E-05,1.93359375,0,0
-2.82160217466298E-05,1.4430589544645E-05,1.93359375,0,0
-3.02123935398413E-05,1.45208723552059E-05,1.93359375,0,0
-2.99090770568E-05,1.46575657709036E-05,1.93359375,0,0
-3.09877505060285E-05,1.41379969136324E-05,1.93359375,0,0
-3.15261204377748E-05,1.19818960229168E-05,1.93359375,0,0
-3.18204838549718E-05,1.03022930488805E-05,1.93359375,0,0
-3.13037089654244E-05,9.47070384427207E-06,1.93359375,0,0
-3.03676915791584E-05,9.91603792499518E-06,1.93359375,0,0
-2.41038997046417E-05,9.67915730143432E-06,1.93359375,0,0
-3.52987553924322E-05,1.46459869938553E-05,1.93359375,0,0
-2.82702440017601E-05,1.15697393994196E-05,1.93359375,0,0
-3.5481592931319E-05,1.1503676432767E-05,1.93359375,0,0
-3.13854034175165E-05,6.7304576987226E-06,1.93359375,0,0
-3.46725137205794E-05,8.23266418592539E-06,1.93359375,0,0
-3.14710596285295E-05,9.54553070187103E-06,1.93359375,0,0
-3.08822745864745E-05,1.01894165709382E-05,1.93359375,0,0
-2.79487394436728E-05,8.45613249111921E-06,1.93359375,0,0
-2.76826540357433E-05,7.10433187123272E-06,1.93359375,0,0
-2.9862307201256E-05,7.48852426113444E-06,1.93359375,0,0
-3.03430679196026E-05,9.4120368885342E-06,1.93359375,0,0
-3.09963288600557E-05,1.15664479380939E-05,1.93359375,0,0
-2.85349087789655E-05,1.12618772618589E-05,1.93359375,0,0
-2.87488710455364E-05,1.07748419395648E-05,1.93359375,0,0
-2.68300173047464E-05,9.7869278761209E-06,1.93359375,0,0
-2.7088237402495E-05,1.0572099199635E-05,1.93359375,0,0
-2.44493567151949E-05,1.0244179975416E-05,1.93359375,0,0
-2.45320588874165E-05,1.06517527456162E-05,1.93359375,0,0
-2.38668490055716E-05,1.11431372715742E-05,1.93359375,0,0
-2.56133444054285E-05,1.30691951198969E-05,1.93359375,0,0
-2.48886899498757E-05,1.3315650903678E-05,1.93359375,0,0
-2.39295186474919E-05,1.32907571241958E-05,1.93359375,0,0
-2.12515733437613E-05,1.27870653159334E-05,1.93359375,0,0
-1.90405426110374E-05,1.19640808406984E-05,1.93359375,0,0
-1.8602549971547E-05,1.10957626020536E-05,1.93359375,0,0
-2.02435767278075E-05,1.26788127090549E-05,1.93359375,0,0
-1.7587268303032E-05,1.29295704027754E-05,1.93359375,0,0
-2.46756790147629E-05,1.78598547790898E-05,1.93359375,0,0
-1.87955756700831E-05,1.17297613542178E-05,1.93359375,0,0
-2.46404742938466E-05,1.42111784953158E-05,1.93359375,0,0
-2.26765841944143E-05,1.12625311885495E-05,1.93359375,0,0
-2.50521115958691E-05,9.51230776990997E-06,1.93359375,0,0
-2.13840376090957E-05,2.98064514936414E-06,1.93359375,0,0
-2.09967183764093E-05,2.59439275396289E-06,1.93359375,0,0
-2.12502854992636E-05,4.75586739412392E-06,1.93359375,0,0
-2.33515820582397E-05,6.56620431982446E-06,1.93359375,0,0
-2.50979537668172E-05,7.6559681474464E-06,1.93359375,0,0
-2.46926992986118E-05,8.62877368490445E-06,1.93359375,0,0
-2.47719508479349E-05,1.07489413494477E-05,1.93359375,0,0
-2.36895029956941E-05,1.10906466943561E-05,1.93359375,0,0
-2.48134419962298E-05,1.2260220501048E-05,1.93359375,0,0
-2.31310878007207E-05,1.0786945495056E-05,1.93359375,0,0
-2.19708927033935E-05,9.58627424552105E-06,1.93359375,0,0
-1.92761290236376E-05,7.66815901442897E-06,1.93359375,0,0
-2.03824220079696E-05,7.68242989579448E-06,1.93359375,0,0
-2.10233993129805E-05,6.14723740000045E-06,1.93359375,0,0
-2.24953819270013E-05,5.54638972971588E-06,1.93359375,0,0
-2.16132066270802E-05,4.57650503449258E-06,1.93359375,0,0
-2.08879082492786E-05,5.38436006536358E-06,1.93359375,0,0
-1.96404707821785E-05,6.45133377474849E-06,1.93359375,0,0
-2.01443635887699E-05,6.80598895996809E-06,1.93359375,0,0
-2.20714518945897E-05,5.57236171516706E-06,1.93359375,0,0
-2.29372653848259E-05,3.25294240610674E-06,1.93359375,0,0
-1.70258645084687E-05,1.52917505147343E-06,1.93359375,0,0
-2.2604372134083E-05,1.834131353462E-06,1.93359375,0,0
-1.64052744366927E-05,2.59058992924111E-07,1.93359375,0,0
-2.26146930799587E-05,6.67533981868473E-07,1.93359375,0,0
-1.955577681656E-05,4.29019746661652E-06,1.93359375,0,0
-2.20084348256933E-05,8.45803242555121E-06,1.93359375,0,0
-2.02941337192897E-05,9.11993083718698E-06,1.93359375,0,0
-2.18877412407892E-05,8.33056492410833E-06,1.93359375,0,0
-2.0939620299032E-05,8.81329287949484E-06,1.93359375,0,0
-1.90672617463861E-05,1.07567229861161E-05,1.93359375,0,0
-1.73535736394115E-05,1.19434234875371E-05,1.93359375,0,0
-1.60308118211105E-05,1.28870688058669E-05,1.93359375,0,0
