biceps_emg, triceps_emg, subject_position, position_estimate, brace_position
-3.16336117975879E-05,2.29197303269757E-05,3.1640625,0,0
-3.05887224385515E-05,2.02250248548808E-05,3.1640625,0,0
-2.96176713163732E-05,1.70612347574206E-05,3.1640625,0,0
-2.69663978542667E-05,1.23019490274601E-05,3.1640625,0,0
-2.59279076999519E-05,8.7547923612874E-06,3.1640625,0,0
-2.73917812592117E-05,6.75673982186709E-06,3.1640625,0,0
-2.80440581263974E-05,9.3388853201759E-06,3.1640625,0,0
-2.19319917960092E-05,1.04741584436852E-05,3.1640625,0,0
-3.11436342599336E-05,1.49088691614452E-05,3.1640625,0,0
-2.42639907810371E-05,1.24884527394897E-05,3.1640625,0,0
-3.05426001432352E-05,1.94838139577769E-05,3.1640625,0,0
-2.55429113167338E-05,1.92096849787049E-05,3.1640625,0,0
-2.801212031045E-05,1.5370016626548E-05,3.1640625,0,0
-2.51155470323283E-05,1.20837457870948E-05,3.1640625,0,0
-2.61047443927964E-05,1.28758656501304E-05,3.1640625,0,0
-2.55582399404375E-05,8.13124279375188E-06,3.1640625,0,0
-2.46538565988885E-05,9.26922257349361E-06,3.1640625,0,0
-2.40671488427324E-05,1.52829197759274E-05,3.1640625,0,0
-2.35961124417372E-05,1.63443546625786E-05,3.1640625,0,0
-2.45393348450307E-05,1.67387752298964E-05,3.1640625,0,0
-2.28178050747374E-05,1.93716168723768E-05,3.1640625,0,0
-2.4057068003458E-05,2.11992737604305E-05,3.1640625,0,0
-2.3722412151983E-05,1.73306943906937E-05,3.1640625,0,0
-2.49805179919349E-05,1.4669735719508E-05,3.1640625,0,0
-2.33310565818101E-05,1.42953495014808E-05,3.1640625,0,0
-2.4338305593119E-05,1.64924622367835E-05,3.1640625,0,0
-2.40730405494105E-05,1.66469453688478E-05,3.1640625,0,0
-2.65474027401069E-05,1.804689054552E-05,3.1640625,0,0
-2.72950564976782E-05,1.80621591425734E-05,3.1640625,0,0
-2.74352823907975E-05,1.73659882420907E-05,3.1640625,0,0
-2.66224906226853E-05,1.6607433281024E-05,3.1640625,0,0
-2.64353639067849E-05,1.56909991346765E-05,3.1640625,0,0
-2.54570986726321E-05,1.3155165106582E-05,3.1640625,0,0
-2.61011609836714E-05,1.16770152089885E-05,3.1640625,0,0
-2.1926753106527E-05,9.12128143681912E-06,3.1640625,0,0
-3.1412360840477E-05,1.21767825476127E-05,3.1640625,0,0
-2.51459314313252E-05,5.69944086237228E-06,3.1640625,0,0
-3.08737544401083E-05,7.96797667135252E-06,3.1640625,0,0
-2.43400754698087E-05,5.66147491554148E-06,3.1640625,0,0
-2.6361823984189E-05,-1.08595713754767E-06,3.1640625,0,0
-2.41907364397775E-05,1.87214027391747E-07,3.1640625,0,0
-2.64890077232849E-05,1.0224939615E-05,3.1640625,0,0
-2.69030388153624E-05,9.26935717870947E-06,3.1640625,0,0
-2.63517395069357E-05,7.05212141838274E-06,3.1640625,0,0
-2.43569302256219E-05,8.12062444310868E-06,3.1640625,0,0
-2.1880681742914E-05,6.72596752337995E-06,3.1640625,0,0
-2.33592381846393E-05,6.99913016433129E-06,3.1640625,0,0
-2.35272182180779E-05,9.63177444646135E-06,3.1640625,0,0
-2.5048568204511E-05,1.13017476905952E-05,3.1640625,0,0
-2.32483725994825E-05,9.88190731732175E-06,3.1640625,0,0
-2.30706846195972E-05,9.43584836932132E-06,3.1640625,0,0
-2.03598756343126E-05,8.7757198343752E-06,3.1640625,0,0
-2.04475873033516E-05,9.48986871662783E-06,3.1640625,0,0
-1.98413181351498E-05,1.05419831015752E-05,3.1640625,0,0
-2.17196575249545E-05,1.32561908685602E-05,3.1640625,0,0
-2.27592972805724E-05,1.44750119943637E-05,3.1640625,0,0
-2.51246256084414E-05,1.3539063729695E-05,3.1640625,0,0
-2.47429252340226E-05,1.03700785984984E-05,3.1640625,0,0
-2.3453214453184E-05,1.10168002720457E-05,3.1640625,0,0
-2.20151941903168E-05,1.50738878801349E-05,3.1640625,0,0
-2.16178996197414E-05,1.84007112693507E-05,3.1640625,0,0
-1.85437711479608E-05,1.31805918499595E-05,3.1640625,0,0
-2.69468437181786E-05,1.77480651473161E-05,3.1640625,0,0
-2.19276480493136E-05,1.2115339814045E-05,3.1640625,0,0
-2.64005757344421E-05,1.77639540197561E-05,3.1640625,0,0
-2.1713971364079E-05,1.50218520502676E-05,3.1640625,0,0
-2.52953686867841E-05,1.04488108263467E-05,3.1640625,0,0
-2.49226923187962E-05,6.6616894400795E-06,3.1640625,0,0
-2.56076345976908E-05,9.40809695748612E-06,3.1640625,0,0
-2.34941089729546E-05,4.0762429307506E-06,3.1640625,0,0
-2.217083965661E-05,-8.05121317171142E-07,3.1640625,0,0
-2.19437497435138E-05,-1.16849412279407E-06,3.1640625,0,0
-2.10853631870123E-05,-2.29136844609457E-06,3.1640625,0,0
-2.07846878765849E-05,-3.9482750935349E-07,3.1640625,0,0
-2.00172780751018E-05,2.75598335974792E-06,3.1640625,0,0
-2.29176548600663E-05,3.63762819688418E-06,3.1640625,0,0
-2.32555412367219E-05,-5.70835254620761E-07,3.1640625,0,0
-2.43913655140204E-05,-1.41090936267574E-06,3.1640625,0,0
-2.29121887969086E-05,3.05586638660316E-07,3.1640625,0,0
-2.2676033040625E-05,5.90612216910813E-06,3.1640625,0,0
-2.09383797482587E-05,1.11590652522864E-05,3.1640625,0,0
-2.25698058784474E-05,1.54405461216811E-05,3.1640625,0,0
-2.39190776483156E-05,1.47489672599477E-05,3.1640625,0,0
-2.54999631579267E-05,1.38843051900039E-05,3.1640625,0,0
-2.54542301263427E-05,1.61355128511786E-05,3.1640625,0,0
-2.48378637479618E-05,2.17740489460994E-05,3.1640625,0,0
-2.43468530243263E-05,2.70277669187635E-05,3.1640625,0,0
-2.54821352427825E-05,3.01316995319212E-05,3.1640625,0,0
-2.12405193451559E-05,2.46237650571857E-05,3.1640625,0,0
-3.04501481878106E-05,3.39920261467341E-05,3.1640625,0,0
-2.45299052039627E-05,2.03433355636662E-05,3.1640625,0,0
-3.01492364087608E-05,2.25700423470698E-05,3.1640625,0,0
-2.38232605624944E-05,1.73647877090843E-05,3.1640625,0,0
-2.54038750426844E-05,1.78027985384688E-05,3.1640625,0,0
-2.22158687392948E-05,1.4287047633843E-05,3.1640625,0,0
-2.24800951400539E-05,1.68213191500399E-05,3.1640625,0,0
-2.10550733754644E-05,1.18353000289062E-05,3.1640625,0,0
-2.15606869460316E-05,8.82152835401939E-06,3.1640625,0,0
-2.17484339373186E-05,7.8817320172675E-06,3.1640625,0,0
-2.08618293981999E-05,2.02553769668157E-06,3.1640625,0,0
-2.28025328397052E-05,-6.08288473813445E-07,3.1640625,0,0
-2.22596609091852E-05,-3.45436546922429E-07,3.1640625,0,0
-2.2358897695085E-05,1.19731600989326E-06,3.1640625,0,0
-1.97518729692092E-05,-6.12264273058827E-07,3.1640625,0,0
-2.12405884667533E-05,3.93778464058414E-06,3.1640625,0,0
-2.11726201087004E-05,8.55393955134787E-06,3.1640625,0,0
-2.30070836551022E-05,1.30536645883694E-05,3.1640625,0,0
-2.28233748202911E-05,1.05812123365467E-05,3.1640625,0,0
-2.38682914641686E-05,9.59104454523185E-06,3.1640625,0,0
-2.26952379307477E-05,1.15238708531251E-05,3.1640625,0,0
-2.26764914259547E-05,1.42478202178609E-05,3.1640625,0,0
-2.23626066144789E-05,1.03789898275863E-05,3.1640625,0,0
-2.36550149566028E-05,7.42902602723916E-06,3.1640625,0,0
-2.47624066105345E-05,5.29881936017773E-06,3.1640625,0,0
-2.42654605244752E-05,3.88116586691467E-06,3.1640625,0,0
-1.82567800948163E-05,7.56990175432293E-06,3.1640625,0,0
-2.53931393672246E-05,1.7397014744347E-05,3.1640625,0,0
-1.93903324543498E-05,1.76156445377273E-05,3.1640625,0,0
-2.5043231289601E-05,1.46205275086686E-05,3.1640625,0,0
-2.14021711144596E-05,1.26046134028002E-05,3.1640625,0,0
-2.45673418248771E-05,7.18147748557385E-06,3.1640625,0,0
-2.28854150918778E-05,3.37199639943719E-06,3.1640625,0,0
-2.39492965192767E-05,4.0695531424717E-06,3.1640625,0,0
-2.30026853387244E-05,2.01451643988548E-06,3.1640625,0,0
-2.1862209905521E-05,3.26846065945574E-06,3.1640625,0,0
-2.08788915188052E-05,7.47635158404591E-06,3.1640625,0,0
-1.93188898265362E-05,8.32621390145505E-06,3.1640625,0,0
-2.05615106096957E-05,1.00692732303287E-05,3.1640625,0,0
-2.05678916245233E-05,1.56598398461938E-05,3.1640625,0,0
-2.26812717301073E-05,1.86148590728408E-05,3.1640625,0,0
-2.28922253882047E-05,1.55791567522101E-05,3.1640625,0,0
-2.47930965997512E-05,1.26180939332698E-05,3.1640625,0,0
-2.40244589804206E-05,1.10084738480509E-05,3.1640625,0,0
-2.38505945162615E-05,1.03801212389953E-05,3.1640625,0,0
-2.16449552681297E-05,9.16694352781633E-06,3.1640625,0,0
-2.24387731577735E-05,7.28994200471789E-06,3.1640625,0,0
-2.31880130741047E-05,3.74453520635143E-06,3.1640625,0,0
-2.41789130086545E-05,-9.36397100304021E-07,3.1640625,0,0
-2.42577280005207E-05,-6.43072644379572E-06,3.1640625,0,0
-2.47875432251021E-05,-9.66331663221354E-06,3.1640625,0,0
-2.55984832620015E-05,-9.24588221096201E-06,3.1640625,0,0
-2.64530717686284E-05,-8.03113471192773E-06,3.1640625,0,0
-2.11015048989793E-05,-3.9202204789035E-06,3.1640625,0,0
-3.02605058095651E-05,1.47131686389912E-07,3.1640625,0,0
-2.38715438172221E-05,9.2084274001536E-06,3.1640625,0,0
-2.97025235340698E-05,1.41336931847036E-05,3.1640625,0,0
-2.53140569839161E-05,1.62445066962391E-05,3.1640625,0,0
-2.85273345070891E-05,4.34762068834971E-06,3.1640625,0,0
-2.53566759056412E-05,-4.16109685374977E-07,3.1640625,0,0
-2.54591323027853E-05,3.12536963065213E-06,3.1640625,0,0
-2.5472725610598E-05,4.22297443947173E-06,3.1640625,0,0
-2.67222258116817E-05,6.11394125371589E-06,3.1640625,0,0
-2.63019901467487E-05,9.32452803681372E-06,3.1640625,0,0
-2.40304143517278E-05,7.29465909898863E-06,3.1640625,0,0
-2.42334263020894E-05,5.85422412768821E-06,3.1640625,0,0
-2.36369724007091E-05,9.07668436411768E-06,3.1640625,0,0
-2.53765119850868E-05,9.58431701292284E-06,3.1640625,0,0
-2.43047725234646E-05,9.90622993413126E-06,3.1640625,0,0
-2.54732894973131E-05,1.24543885249295E-05,3.1640625,0,0
-2.47734133154154E-05,1.56085079652257E-05,3.1640625,0,0
-2.56779239862226E-05,1.6052188584581E-05,3.1640625,0,0
-2.39501878240844E-05,1.64590292115463E-05,3.1640625,0,0
-2.36090800171951E-05,1.41027667268645E-05,3.1640625,0,0
-2.20546226046281E-05,1.19243413791992E-05,3.1640625,0,0
-2.1912090232945E-05,1.26529575936729E-05,3.1640625,0,0
-2.12347476917785E-05,1.58970633492572E-05,3.1640625,0,0
-2.20627080125269E-05,1.95624324987875E-05,3.1640625,0,0
-2.11917176784482E-05,2.27412710955832E-05,3.1640625,0,0
-1.88334233826026E-05,2.24701379920589E-05,3.1640625,0,0
-1.45980493471143E-05,1.61428470164537E-05,3.1640625,0,0
-2.22547205339652E-05,2.24301111302339E-05,3.1640625,0,0
-1.93652358575491E-05,1.57790364028187E-05,3.1640625,0,0
-2.30580244533485E-05,2.33023311011493E-05,3.1640625,0,0
-1.94686854229076E-05,1.97625486180186E-05,3.1640625,0,0
-2.14052397495834E-05,1.07958512671757E-05,3.1640625,0,0
-2.04532880161423E-05,3.36804100697918E-06,3.1640625,0,0
-2.06499298656126E-05,6.66062805976253E-06,3.1640625,0,0
-1.92293209693162E-05,2.49481263381313E-06,3.1640625,0,0
-1.95696684386348E-05,6.00917076098995E-07,3.1640625,0,0
-2.05882515729172E-05,5.0931175792357E-06,3.1640625,0,0
-2.07215907721547E-05,7.24201754565001E-06,3.1640625,0,0
-2.20058664126555E-05,1.05144372355426E-05,3.1640625,0,0
-2.23828719754238E-05,1.51054009620566E-05,3.1640625,0,0
-2.39033361140173E-05,1.83566935447743E-05,3.1640625,0,0
-2.35039060498821E-05,1.53225428221049E-05,3.1640625,0,0
-2.47090338234557E-05,1.38601490107249E-05,3.1640625,0,0
-2.47115112870233E-05,1.36754370032577E-05,3.1640625,0,0
-2.56370803981554E-05,1.55654051923193E-05,3.1640625,0,0
-2.49760614678962E-05,1.24518210213864E-05,3.1640625,0,0
-2.57578249147628E-05,1.04926866697497E-05,3.1640625,0,0
-2.53737634920981E-05,1.08257727333694E-05,3.1640625,0,0
-2.49472595896805E-05,1.11316476250067E-05,3.1640625,0,0
-2.31124649872072E-05,9.32647890294902E-06,3.1640625,0,0
-2.2258947865339E-05,1.04361124613206E-05,3.1640625,0,0
-2.26355514314491E-05,1.36191347337444E-05,3.1640625,0,0
-2.36918112932472E-05,1.56437163241208E-05,3.1640625,0,0
-2.05542855837848E-05,1.07645173557103E-05,3.1640625,0,0
-3.02759399346542E-05,1.39653520818683E-05,3.1640625,0,0
-2.2656542569166E-05,9.62222384259803E-06,3.1640625,0,0
-2.5522993382765E-05,1.60919844347518E-05,3.1640625,0,0
-2.02327501028776E-05,1.44732885019039E-05,3.1640625,0,0
-2.32523598242551E-05,7.91802358435234E-06,3.1640625,0,0
-2.29074339586077E-05,5.32963758814731E-06,3.1640625,0,0
-2.5363242457388E-05,1.1827633898065E-05,3.1640625,0,0
-2.56802231888287E-05,1.06038314697798E-05,3.1640625,0,0
-2.64462796621956E-05,8.4074445112492E-06,3.1640625,0,0
-2.67981613433221E-05,5.53678455617046E-06,3.1640625,0,0
-2.62793837464415E-05,-1.13188093564531E-06,3.1640625,0,0
-2.62623034359422E-05,-3.45316152561281E-06,3.1640625,0,0
-2.324386696273E-05,-1.60426566253591E-06,3.1640625,0,0
-2.19557095988421E-05,-1.03376169136027E-06,3.1640625,0,0
-2.00734539248515E-05,-3.43398869517841E-06,3.1640625,0,0
-2.17045744648203E-05,-7.69359246532986E-07,3.1640625,0,0
-2.17585456994129E-05,2.55612553701212E-06,3.1640625,0,0
-2.35985735344002E-05,6.44735837340704E-06,3.1640625,0,0
-2.3323731511482E-05,7.92809805716388E-06,3.1640625,0,0
-2.40862118516816E-05,7.94132847659057E-06,3.1640625,0,0
-2.19739158637822E-05,5.91723119214294E-06,3.1640625,0,0
-1.90074879355961E-05,4.37185281043639E-06,3.1640625,0,0
-1.55634807015304E-05,4.5955980567669E-06,3.1640625,0,0
-1.52934626385104E-05,8.15359817352146E-06,3.1640625,0,0
-1.5336061551352E-05,8.45819613459753E-06,3.1640625,0,0
-1.57793092512293E-05,8.0088029790204E-06,3.1640625,0,0
-1.37744673338602E-05,1.05102972156601E-05,3.1640625,0,0
-2.10998878173996E-05,1.80265433300519E-05,3.1640625,0,0
-1.92338757187827E-05,1.26795584947104E-05,3.1640625,0,0
-2.49154600169277E-05,1.2551811778394E-05,3.1640625,0,0
-2.22357284656027E-05,1.41887194331503E-05,3.1640625,0,0
-2.16164080484305E-05,1.2983151464141E-05,3.1640625,0,0
-1.89023194252513E-05,1.21342545753578E-05,3.1640625,0,0
-2.07553457585163E-05,1.54982517415192E-05,3.1640625,0,0
-2.23740989895305E-05,1.32150607896619E-05,3.1640625,0,0
-2.32399615924805E-05,1.28578212752473E-05,3.1640625,0,0
-2.31976973736892E-05,1.51785761772771E-05,3.1640625,0,0
-2.37461590586463E-05,1.35732425405877E-05,3.1640625,0,0
-2.56259663728997E-05,1.30856797113665E-05,3.1640625,0,0
-2.56172370427521E-05,1.69250633916818E-05,3.1640625,0,0
-2.72336310445098E-05,1.9328868802404E-05,3.1640625,0,0
-2.75492802757071E-05,1.67655580298742E-05,3.1640625,0,0
-2.8267313609831E-05,1.6274823792628E-05,3.1640625,0,0
-2.59575936070178E-05,1.65744731930317E-05,3.1640625,0,0
-2.45137598540168E-05,1.69322174770059E-05,3.1640625,0,0
-2.33363407460274E-05,1.60531508299755E-05,3.1640625,0,0
-2.41609704971779E-05,1.45129415614065E-05,3.1640625,0,0
-2.36658615904162E-05,1.16217952381703E-05,3.1640625,0,0
-2.39901073655346E-05,1.14008516902686E-05,3.1640625,0,0
-2.50046523433411E-05,1.23847339636995E-05,3.1640625,0,0
-2.70484615612077E-05,1.19486003313796E-05,3.1640625,0,0
-2.82928176602582E-05,1.03523898360436E-05,3.1640625,0,0
-2.86940448859241E-05,1.01324594652397E-05,3.1640625,0,0
-2.32659949688241E-05,8.30200769996736E-06,3.1640625,0,0
-3.32377021550201E-05,1.07547220977722E-05,3.1640625,0,0
-2.50171833613422E-05,6.07620722803404E-06,3.1640625,0,0
-3.0140245144139E-05,1.09636548586423E-05,3.1640625,0,0
-2.39388245972805E-05,1.26937948152772E-05,3.1640625,0,0
-2.65026610577479E-05,1.01340074252221E-05,3.1640625,0,0
-2.38984339375747E-05,8.47214869281743E-06,3.1640625,0,0
-2.47435273195151E-05,1.23506415548036E-05,3.1640625,0,0
-2.30365876632277E-05,8.56572751217755E-06,3.1640625,0,0
-2.2708121832693E-05,5.89453065913403E-06,3.1640625,0,0
-2.41040506807622E-05,9.2756799858762E-06,3.1640625,0,0
-2.43986014538677E-05,1.15263210318517E-05,3.1640625,0,0
-2.48824871960096E-05,1.48482777149184E-05,3.1640625,0,0
-2.23778897634475E-05,1.82698331627762E-05,3.1640625,0,0
-2.38480388361495E-05,1.93423766177148E-05,3.1640625,0,0
-2.46361469180556E-05,1.73200678545982E-05,3.1640625,0,0
-2.82885739579797E-05,1.61489751917543E-05,3.1640625,0,0
-2.87407583527965E-05,1.32380218929029E-05,3.1640625,0,0
-2.98649119940819E-05,1.19746564450907E-05,3.1640625,0,0
-2.73256137006683E-05,1.1504496796988E-05,3.1640625,0,0
-2.55630784522509E-05,1.06446268546279E-05,3.1640625,0,0
-2.30774239753373E-05,7.81728340371046E-06,3.1640625,0,0
-2.40367717196932E-05,4.33570221503032E-06,3.1640625,0,0
-2.45764495048206E-05,2.36654318541696E-06,3.1640625,0,0
-2.51006858889014E-05,4.39642326455214E-06,3.1640625,0,0
-2.57203064393252E-05,5.9513281485124E-06,3.1640625,0,0
-2.73895402642665E-05,6.54065797789372E-06,3.1640625,0,0
-2.2465901565738E-05,7.77360855863662E-06,3.1640625,0,0
-3.10087452817243E-05,1.18037260108395E-05,3.1640625,0,0
-2.33792707149405E-05,7.03856676409487E-06,3.1640625,0,0
-2.98087888950249E-05,7.81569724495057E-06,3.1640625,0,0
-2.44762632064521E-05,9.20790989766829E-06,3.1640625,0,0
-2.64299160335213E-05,9.2922500698478E-06,3.1640625,0,0
-2.32429993047845E-05,9.70296696323203E-06,3.1640625,0,0
-2.54901078733383E-05,1.31749175125151E-05,3.1640625,0,0
-2.60096676356625E-05,1.12874358819681E-05,3.1640625,0,0
-2.74219601124059E-05,1.19898613775149E-05,3.1640625,0,0
-2.7755444534705E-05,1.69779395946534E-05,3.1640625,0,0
-2.6700194212026E-05,1.93114974536002E-05,3.1640625,0,0
-2.7008296456188E-05,2.17922788579017E-05,3.1640625,0,0
-2.58299787674332E-05,2.38822212850209E-05,3.1640625,0,0
-2.79267878795508E-05,2.10779780900339E-05,3.1640625,0,0
-2.69070205831667E-05,1.43304832818103E-05,3.1640625,0,0
-2.7964651962975E-05,1.30823354993481E-05,3.1640625,0,0
-2.69340325758094E-05,1.62611686391756E-05,3.1640625,0,0
-2.87142811430385E-05,1.93789273907896E-05,3.1640625,0,0
-2.72658871836029E-05,1.74717843037797E-05,3.1640625,0,0
-2.70472155534662E-05,1.33193507281248E-05,3.1640625,0,0
-2.4869637854863E-05,1.06728648461285E-05,3.1640625,0,0
-2.46485615207348E-05,1.22305773402331E-05,3.1640625,0,0
-2.48599662882043E-05,1.49546740431106E-05,3.1640625,0,0
-2.57280262303539E-05,1.58755610755179E-05,3.1640625,0,0
-2.54684600804467E-05,1.42710423460812E-05,3.1640625,0,0
-2.46078161580954E-05,1.14195763671887E-05,3.1640625,0,0
-1.88076337508392E-05,6.8065814957663E-06,3.1640625,0,0
-2.68179137492552E-05,7.44078897696454E-06,3.1640625,0,0
-2.19541307160398E-05,5.85996872359829E-07,3.1640625,0,0
-2.71777462330647E-05,1.8377359083388E-06,3.1640625,0,0
-1.99392343347427E-05,2.26466045205598E-06,3.1640625,0,0
-1.96935343410587E-05,1.35471191242686E-06,3.1640625,0,0
-1.78415230038809E-05,2.81714960692625E-06,3.1640625,0,0
-2.04739080800209E-05,1.05639483081177E-05,3.1640625,0,0
-2.006479735428E-05,1.21503144328017E-05,3.1640625,0,0
-1.90184728126042E-05,1.32689365273109E-05,3.1640625,0,0
-1.87150781130185E-05,1.64418979693437E-05,3.1640625,0,0
-1.83985739568016E-05,1.38134009830537E-05,3.1640625,0,0
-2.00043341465062E-05,1.09592547232751E-05,3.1640625,0,0
-1.90774535440141E-05,1.16768951556878E-05,3.1640625,0,0
-2.01705388462869E-05,1.20424692795496E-05,3.1640625,0,0
-1.97099616343621E-05,9.09626123757334E-06,3.1640625,0,0
-2.08242108783452E-05,7.10828680894338E-06,3.1640625,0,0
-1.95243082998786E-05,6.85635086483671E-06,3.1640625,0,0
-2.03789950319333E-05,1.17407080324483E-05,3.1640625,0,0
-1.97025638044579E-05,1.83004631253425E-05,3.1640625,0,0
-2.07176526600961E-05,2.17166561924387E-05,3.1640625,0,0
-2.07630237127887E-05,2.03606068680529E-05,3.1640625,0,0
-2.14401843550149E-05,1.59597602760186E-05,3.1640625,0,0
-2.0926530851284E-05,9.2069431048003E-06,3.1640625,0,0
-2.1078993086121E-05,5.65568643651204E-06,3.1640625,0,0
-2.03857598535251E-05,5.31154501004494E-06,3.1640625,0,0
-1.90166065294761E-05,7.48185539123369E-06,3.1640625,0,0
-1.56766800500918E-05,8.16997635411099E-06,3.1640625,0,0
-2.31548910960555E-05,1.14775175461546E-05,3.1640625,0,0
-1.95823395188199E-05,5.37074402018334E-06,3.1640625,0,0
-2.43923204834573E-05,1.00893048511352E-05,3.1640625,0,0
-2.16677235584939E-05,1.69403883774066E-05,3.1640625,0,0
-2.49406657530926E-05,1.58655147970421E-05,3.1640625,0,0
-2.39970213442575E-05,1.30178905237699E-05,3.1640625,0,0
-2.43833928834647E-05,1.54373283294262E-05,3.1640625,0,0
-2.34095186897321E-05,1.31133820104878E-05,3.1640625,0,0
-2.40106528508477E-05,1.41006539706723E-05,3.1640625,0,0
-2.48937176365871E-05,1.73730750248069E-05,3.1640625,0,0
-2.46993495238712E-05,1.63337354024407E-05,3.1640625,0,0
-2.49465338129085E-05,1.52145830725203E-05,3.1640625,0,0
-2.33476785069797E-05,1.57111735461513E-05,3.1640625,0,0
-2.48893666139338E-05,1.34443153001484E-05,3.1640625,0,0
-2.56875355262309E-05,6.12612075201469E-06,3.1640625,0,0
-2.72043362201657E-05,2.12745317185181E-06,3.1640625,0,0
-2.55047416430898E-05,2.90588218376797E-06,3.1640625,0,0
-2.46776980930008E-05,7.53522590457578E-06,3.1640625,0,0
-2.26359334192239E-05,1.09337643152685E-05,3.1640625,0,0
-2.24369068746455E-05,1.12337629616377E-05,3.1640625,0,0
-2.25295334530529E-05,8.6421405285364E-06,3.1640625,0,0
-2.39459641306894E-05,6.07490437687375E-06,3.1640625,0,0
-2.44275834120344E-05,3.92828178519267E-06,3.1640625,0,0
-2.45821174758021E-05,4.61913396065938E-06,3.1640625,0,0
-2.48781962000066E-05,6.32901856079116E-06,3.1640625,0,0
-2.62661469605519E-05,6.5546541918593E-06,3.1640625,0,0
-2.32882593991235E-05,3.14150906888244E-06,3.1640625,0,0
-3.38709651259705E-05,3.91691401091521E-06,3.1640625,0,0
-2.63765869021881E-05,3.90007153328042E-06,3.1640625,0,0
-3.20367180393077E-05,9.39275651035132E-06,3.1640625,0,0
-2.67255945800571E-05,1.02358371805167E-05,3.1640625,0,0
-2.81982192973373E-05,6.93635138304671E-06,3.1640625,0,0
-2.45373103098245E-05,8.45595423015766E-06,3.1640625,0,0
-2.61949953710428E-05,1.26578097479069E-05,3.1640625,0,0
-2.63669517153176E-05,8.22038964543026E-06,3.1640625,0,0
-2.62313715211349E-05,5.16409090778325E-06,3.1640625,0,0
-2.57468509516912E-05,8.0995487223845E-06,3.1640625,0,0
-2.4274271709146E-05,9.95391474134522E-06,3.1640625,0,0
-2.4150012905011E-05,1.24056750792079E-05,3.1640625,0,0
-2.21306163439294E-05,1.48694753079326E-05,3.1640625,0,0
-2.28811841225252E-05,1.3276789104566E-05,3.1640625,0,0
-2.10474645427894E-05,8.65548736328492E-06,3.1640625,0,0
-2.09657991945278E-05,6.55127769277897E-06,3.1640625,0,0
-1.932702070917E-05,6.98930489306804E-06,3.1640625,0,0
-2.22952221520245E-05,8.51367076393217E-06,3.1640625,0,0
-2.33328883041395E-05,8.58445218909765E-06,3.1640625,0,0
-2.37570347962901E-05,7.88314537203405E-06,3.1640625,0,0
-2.23031292989617E-05,7.92148239270318E-06,3.1640625,0,0
-2.42184269154677E-05,8.80421248439234E-06,3.1640625,0,0
-2.572797711764E-05,9.33622595766792E-06,3.1640625,0,0
-2.60022825386841E-05,1.04317832665402E-05,3.1640625,0,0
-2.37992881011451E-05,1.05748385976767E-05,3.1640625,0,0
-2.20201618503779E-05,8.78111677593552E-06,3.1640625,0,0
-1.78600785147864E-05,8.44476653583115E-06,3.1640625,0,0
-2.63780366367428E-05,1.51487583934795E-05,3.1640625,0,0
-2.16309508687118E-05,1.37316583277425E-05,3.1640625,0,0
-2.66000297415303E-05,1.58207931235665E-05,3.1640625,0,0
-2.23924162128242E-05,1.69796239788411E-05,3.1640625,0,0
-2.40835870499723E-05,1.47954651765758E-05,3.1640625,0,0
-2.2051484847907E-05,1.05795415947796E-05,3.1640625,0,0
-2.34992130572209E-05,8.9192581071984E-06,3.1640625,0,0
-2.46283179876627E-05,2.84394081973005E-06,3.1640625,0,0
-2.48112864937866E-05,2.44415127781394E-06,3.1640625,0,0
-2.45227765844902E-05,6.28253383183619E-06,3.1640625,0,0
-2.47525294980733E-05,5.48284288015566E-06,3.1640625,0,0
-2.72581182798604E-05,5.91891330259386E-06,3.1640625,0,0
-2.74182257271605E-05,1.0293764717062E-05,3.1640625,0,0
-2.7469906854094E-05,1.30868656924576E-05,3.1640625,0,0
-2.49108179559698E-05,1.06433990367805E-05,3.1640625,0,0
-2.49949098360958E-05,8.69797349878354E-06,3.1640625,0,0
-2.36491123359883E-05,8.10541860118974E-06,3.1640625,0,0
-2.33773062063847E-05,9.86863415164407E-06,3.1640625,0,0
-2.1287551135174E-05,1.06042289189645E-05,3.1640625,0,0
-2.01631337404251E-05,9.0988523879787E-06,3.1640625,0,0
-1.82976600626716E-05,5.92834794588271E-06,3.1640625,0,0
-1.85624576261034E-05,6.69913197270944E-06,3.1640625,0,0
-1.91055987670552E-05,9.24626237974735E-06,3.1640625,0,0
-1.93431224033702E-05,9.06197965377942E-06,3.1640625,0,0
-1.83529864443699E-05,6.29603755442076E-06,3.1640625,0,0
-1.79130911419634E-05,5.97105054112035E-06,3.1640625,0,0
-1.45816820804612E-05,8.3175718827988E-06,3.1640625,0,0
-2.14821957342792E-05,1.62618071044562E-05,3.1640625,0,0
-1.71914252860006E-05,1.49944980876171E-05,3.1640625,0,0
-2.11519218282774E-05,1.56450150825549E-05,3.1640625,0,0
-1.73147564055398E-05,1.35429290821776E-05,3.1640625,0,0
-1.74982906173682E-05,7.64482683734968E-06,3.1640625,0,0
-1.61595471581677E-05,6.0682632465614E-06,3.1640625,0,0
-1.75126424437622E-05,9.74208160187118E-06,3.1640625,0,0
-1.72546770045301E-05,7.52507548895665E-06,3.1640625,0,0
-1.77074525709031E-05,7.66949597164057E-06,3.1640625,0,0
-1.85571643669391E-05,1.30433500089566E-05,3.1640625,0,0
-1.86445795407053E-05,1.41271975735435E-05,3.1640625,0,0
-1.92717343452387E-05,1.48009867189103E-05,3.1640625,0,0
-1.79117014340591E-05,1.93074902199442E-05,3.1640625,0,0
-1.72821946762269E-05,2.21241716644727E-05,3.1640625,0,0
-1.62805899890373E-05,2.18324257730274E-05,3.1640625,0,0
-1.84425298357382E-05,2.1482992451638E-05,3.1640625,0,0
-2.00346548808739E-05,1.94079948414583E-05,3.1640625,0,0
-2.2692101993016E-05,1.89220772881527E-05,3.1640625,0,0
-2.34002545766998E-05,1.99005826289067E-05,3.1640625,0,0
-2.43370850512292E-05,2.10049875022378E-05,3.1640625,0,0
-2.41514371737139E-05,2.0050747480127E-05,3.1640625,0,0
-2.47015159402508E-05,1.69056365848519E-05,3.1640625,0,0
-2.37291515077231E-05,1.38623954626382E-05,3.1640625,0,0
-2.3121276171878E-05,1.08300591818988E-05,3.1640625,0,0
-2.32100737775909E-05,8.16140709503088E-06,3.1640625,0,0
-2.30999739869731E-05,7.6681244536303E-06,3.1640625,0,0
-1.76966314029414E-05,4.08119421990705E-06,3.1640625,0,0
-2.59499483945547E-05,5.15320425620303E-06,3.1640625,0,0
-2.24649720621528E-05,4.09615222451976E-06,3.1640625,0,0
-2.90701409539906E-05,1.03260135801975E-05,3.1640625,0,0
-2.55190207099076E-05,1.10306464193854E-05,3.1640625,0,0
-2.74431968136923E-05,4.29774308940978E-06,3.1640625,0,0
-2.4794448108878E-05,1.59039996106003E-06,3.1640625,0,0
-2.52524278039346E-05,4.22079619966098E-06,3.1640625,0,0
-2.46872714342317E-05,2.19251569433254E-06,3.1640625,0,0
-2.52840964094503E-05,2.34051390179957E-06,3.1640625,0,0
-2.48273572651669E-05,4.13275074606645E-06,3.1640625,0,0
-2.35031293414067E-05,3.14208637064439E-06,3.1640625,0,0
-2.43894246523269E-05,6.96415145284845E-06,3.1640625,0,0
-2.44312286667991E-05,1.45281219374738E-05,3.1640625,0,0
-2.70214895863319E-05,1.51376398207503E-05,3.1640625,0,0
-2.7135336495121E-05,8.48866056912811E-06,3.1640625,0,0
-2.73457135335775E-05,5.35570916326833E-06,3.1640625,0,0
-2.54623882938176E-05,8.42951067170361E-06,3.1640625,0,0
-2.70615837507648E-05,1.42797489388613E-05,3.1640625,0,0
-2.74484300462063E-05,1.65575511346105E-05,3.1640625,0,0
-2.85842106677592E-05,1.54370263771852E-05,3.1640625,0,0
-2.76461905741598E-05,1.37341567096883E-05,3.1640625,0,0
-2.72906781901838E-05,1.2926570889249E-05,3.1640625,0,0
-2.69886877504177E-05,1.29551572172204E-05,3.1640625,0,0
-2.84362322418019E-05,1.3259604202176E-05,3.1640625,0,0
-2.95756908599287E-05,1.36759390443331E-05,3.1640625,0,0
-2.96295675070724E-05,1.51653448483557E-05,3.1640625,0,0
-2.45084756897995E-05,1.37366578201181E-05,3.1640625,0,0
-3.64079933206085E-05,1.86358938663034E-05,3.1640625,0,0
-2.94746096187737E-05,7.85704287409317E-06,3.1640625,0,0
-3.52958450093865E-05,8.76955436979188E-06,3.1640625,0,0
-2.90150728687877E-05,9.38740686251549E-06,3.1640625,0,0
-3.16352343361359E-05,8.04129558673594E-06,3.1640625,0,0
-3.0515220714733E-05,7.06012860973715E-06,3.1640625,0,0
-3.42853963957168E-05,1.42555281854584E-05,3.1640625,0,0
-3.40820879500825E-05,1.41253522087936E-05,3.1640625,0,0
-3.25265173160005E-05,1.38795485327137E-05,3.1640625,0,0
-3.18625752697699E-05,1.48824192365282E-05,3.1640625,0,0
-3.06644433294423E-05,1.19015521704569E-05,3.1640625,0,0
-3.13133750751149E-05,1.29586160255712E-05,3.1640625,0,0
-2.89816089207307E-05,1.58746315719327E-05,3.1640625,0,0
-2.86715549009386E-05,1.43537918120273E-05,3.1640625,0,0
-2.66299830400385E-05,8.72327473189216E-06,3.1640625,0,0
-2.81177926808596E-05,7.31910495233024E-06,3.1640625,0,0
-2.76421287708217E-05,5.66170092497487E-06,3.1640625,0,0
-2.91169999400154E-05,4.36993650509976E-06,3.1640625,0,0
-2.70816362899495E-05,2.53304074249172E-06,3.1640625,0,0
-2.66099123109598E-05,4.90199545311043E-06,3.1640625,0,0
-2.53319121839013E-05,1.011455697153E-05,3.1640625,0,0
-2.46382533077849E-05,1.36546541398275E-05,3.1640625,0,0
-2.41311427089386E-05,1.17311456051539E-05,3.1640625,0,0
-2.66491806542035E-05,1.21257344289916E-05,3.1640625,0,0
-2.74408375844359E-05,1.55270208779257E-05,3.1640625,0,0
-2.59077132795937E-05,1.670244273555E-05,3.1640625,0,0
-1.94775802810909E-05,1.34971305669751E-05,3.1640625,0,0
-2.7534535547602E-05,1.96638065972365E-05,3.1640625,0,0
-2.07783741643652E-05,1.19692840598873E-05,3.1640625,0,0
-2.44528800976695E-05,1.40249348987709E-05,3.1640625,0,0
-1.85901881195605E-05,1.28981409943663E-05,3.1640625,0,0
-2.11690112337237E-05,9.56766052695457E-06,3.1640625,0,0
-1.94086314877495E-05,4.77465891890461E-06,3.1640625,0,0
-2.0766365196323E-05,4.96983057018952E-06,3.1640625,0,0
-1.99488094949629E-05,1.23713391531055E-06,3.1640625,0,0
-1.97142871911637E-05,3.25671885548218E-06,3.1640625,0,0
-2.03931867872598E-05,1.05012959465967E-05,3.1640625,0,0
-2.10296821023803E-05,9.49660352489445E-06,3.1640625,0,0
-2.26926767936675E-05,7.66255470807664E-06,3.1640625,0,0
-2.07448701985413E-05,9.57659449341008E-06,3.1640625,0,0
-1.95245756913209E-05,9.29227189772064E-06,3.1640625,0,0
-1.72878681041766E-05,1.7717060245559E-06,3.1640625,0,0
-1.85586504812818E-05,-1.80520385129057E-06,3.1640625,0,0
-1.7103187929024E-05,-4.70098797222818E-07,3.1640625,0,0
-1.73873850144446E-05,2.60648994299117E-06,3.1640625,0,0
-1.77631845872384E-05,4.0132781577995E-06,3.1640625,0,0
-2.08582241612021E-05,5.83086830374668E-06,3.1640625,0,0
-2.14829487958923E-05,4.89291551275528E-06,3.1640625,0,0
-2.10902453545714E-05,3.80763844987086E-06,3.1640625,0,0
-1.93624800886028E-05,4.3865015868505E-06,3.1640625,0,0
-2.01894290512428E-05,7.46086561775883E-06,3.1640625,0,0
-2.04346506507136E-05,9.68187760008732E-06,3.1640625,0,0
-2.00198410311714E-05,7.97236225480447E-06,3.1640625,0,0
-1.67599264386809E-05,4.92824892717181E-06,3.1640625,0,0
-2.36565774685005E-05,1.02298072306439E-05,3.1640625,0,0
-1.78381505975267E-05,1.08619788079523E-05,3.1640625,0,0
-2.25925195991294E-05,1.42619219332119E-05,3.1640625,0,0
-1.88597550732084E-05,1.67711259564385E-05,3.1640625,0,0
-2.00763897737488E-05,1.27546536532464E-05,3.1640625,0,0
-1.75015884451568E-05,1.10981482066563E-05,3.1640625,0,0
-1.75799377757357E-05,1.72396830748767E-05,3.1640625,0,0
-1.6634419807815E-05,1.86453871720005E-05,3.1640625,0,0
-1.69048926181858E-05,1.68035367096309E-05,3.1640625,0,0
-1.79595408553723E-05,1.69819286384154E-05,3.1640625,0,0
-1.79736471181968E-05,1.6335332475137E-05,3.1640625,0,0
-1.9005472495337E-05,1.69904014910571E-05,3.1640625,0,0
-1.90059654414654E-05,1.85562221304281E-05,3.1640625,0,0
-2.12660033866996E-05,1.49820607475704E-05,3.1640625,0,0
-2.11895821848884E-05,9.29393536353018E-06,3.1640625,0,0
-2.18718014366459E-05,9.54667302721646E-06,3.1640625,0,0
-2.06055428861873E-05,1.27748071463429E-05,3.1640625,0,0
-2.09562385862228E-05,1.20885488286149E-05,3.1640625,0,0
-1.90366790775443E-05,7.46148270991398E-06,3.1640625,0,0
-1.83446409209864E-05,4.37974767919513E-06,3.1640625,0,0
-1.83432166522834E-05,4.2864439819823E-06,3.1640625,0,0
-2.02068149519619E-05,5.86776604905026E-06,3.1640625,0,0
-2.03432464331854E-05,8.34932143334299E-06,3.1640625,0,0
-1.96936434804229E-05,1.37463321152609E-05,3.1640625,0,0
-1.89120310096769E-05,1.83481806743657E-05,3.1640625,0,0
-1.76362136699026E-05,1.76674238900887E-05,3.1640625,0,0
-1.36316175485263E-05,1.23671461551567E-05,3.1640625,0,0
-2.06504773814231E-05,1.92115530808223E-05,3.1640625,0,0
-1.80645893124165E-05,1.49283041537274E-05,3.1640625,0,0
-2.33751452469733E-05,1.71537376445485E-05,3.1640625,0,0
-2.2743321096641E-05,1.25161523101269E-05,3.1640625,0,0
-2.58864401985193E-05,7.82753977546236E-06,3.1640625,0,0
-2.50591729127336E-05,7.66085940995254E-06,3.1640625,0,0
-2.52705067396164E-05,1.50469395521213E-05,3.1640625,0,0
-2.35549377975985E-05,1.584996789461E-05,3.1640625,0,0
-2.35664283536607E-05,1.67621692526154E-05,3.1640625,0,0
-2.49751828960143E-05,1.56166915985523E-05,3.1640625,0,0
-2.5842175091384E-05,8.13916085462552E-06,3.1640625,0,0
-2.69259235210484E-05,7.80245682108216E-06,3.1640625,0,0
-2.58186428254703E-05,1.48554672705359E-05,3.1640625,0,0
-2.59211665252224E-05,1.81073901330819E-05,3.1640625,0,0
-2.49842196353711E-05,1.2834168956033E-05,3.1640625,0,0
-2.53024591074791E-05,9.00163195183268E-06,3.1640625,0,0
-2.36526793742087E-05,6.06257162871771E-06,3.1640625,0,0
-2.35806637647329E-05,3.22533037433459E-06,3.1640625,0,0
-2.28774806600995E-05,-2.60339106716856E-07,3.1640625,0,0
-2.31812609854387E-05,2.70310096084359E-07,3.1640625,0,0
-2.27569635171676E-05,1.27360488022532E-06,3.1640625,0,0
-2.34726558119291E-05,1.64855475759396E-06,3.1640625,0,0
-2.37142012338154E-05,1.3173826118873E-06,3.1640625,0,0
-2.39172059082193E-05,2.91920400741219E-06,3.1640625,0,0
-2.52064492087811E-05,2.60249839811877E-06,3.1640625,0,0
-2.58791205851594E-05,-5.4790564263385E-07,3.1640625,0,0
-1.97365443455055E-05,-1.19090702810354E-06,3.1640625,0,0
-2.75386719295057E-05,1.38141183469997E-06,3.1640625,0,0
-2.11236256291159E-05,3.53753421222791E-06,3.1640625,0,0
-2.76299033430405E-05,4.96480015499401E-06,3.1640625,0,0
-2.40508852584753E-05,6.80235461913981E-06,3.1640625,0,0
-2.71910830633715E-05,-1.79996732185828E-06,3.1640625,0,0
-2.62901394307846E-05,-5.2193422561686E-06,3.1640625,0,0
-2.89661147689912E-05,-2.00594013222144E-06,3.1640625,0,0
-2.84071356873028E-05,-1.07074004063179E-06,3.1640625,0,0
-2.78246370726265E-05,1.56685791807831E-06,3.1640625,0,0
-2.68123349087546E-05,6.27878716841224E-06,3.1640625,0,0
-2.4942177333287E-05,7.55196606405661E-06,3.1640625,0,0
-2.56514649663586E-05,1.13542164399405E-05,3.1640625,0,0
-2.49447675741976E-05,1.90687915164744E-05,3.1640625,0,0
-2.63079127762467E-05,2.08275851036888E-05,3.1640625,0,0
-2.51022902375553E-05,1.75375262188027E-05,3.1640625,0,0
-2.56281800830038E-05,1.41318578243954E-05,3.1640625,0,0
-2.4026800019783E-05,1.41110467666294E-05,3.1640625,0,0
-2.50772736762883E-05,1.76232952071587E-05,3.1640625,0,0
-2.46718609560048E-05,2.19736230064882E-05,3.1640625,0,0
-2.59875159827061E-05,2.26261745410739E-05,3.1640625,0,0
-2.63543224718887E-05,2.2321435608319E-05,3.1640625,0,0
-2.63723813986871E-05,2.07506509468658E-05,3.1640625,0,0
-2.37946187553462E-05,2.01697730517481E-05,3.1640625,0,0
-2.22838079935173E-05,2.22295675484929E-05,3.1640625,0,0
-2.1339383238228E-05,2.3946886358317E-05,3.1640625,0,0
-2.15488780668238E-05,2.40549652517075E-05,3.1640625,0,0
-1.79905073309783E-05,2.05063970497577E-05,3.1640625,0,0
-2.53932448686101E-05,2.71643584710546E-05,3.1640625,0,0
-1.81577561306767E-05,1.25936740005272E-05,3.1640625,0,0
-2.16385324165458E-05,1.79844519152539E-05,3.1640625,0,0
-1.86565193871502E-05,2.11330570891732E-05,3.1640625,0,0
-2.33176651818212E-05,2.24059676838806E-05,3.1640625,0,0
-2.33956925512757E-05,1.76891207956942E-05,3.1640625,0,0
-2.5401015591342E-05,1.87328023457667E-05,3.1640625,0,0
-2.5837158318609E-05,1.43426323120366E-05,3.1640625,0,0
-2.63901365542552E-05,1.04200953501277E-05,3.1640625,0,0
-2.57890260400018E-05,6.00669773120899E-06,3.1640625,0,0
-2.38134653045563E-05,-1.7156185094791E-06,3.1640625,0,0
-2.40186436712975E-05,-2.3178704395832E-06,3.1640625,0,0
-2.28171920753084E-05,1.50514188135276E-06,3.1640625,0,0
-2.35527568293037E-05,3.69673466593667E-06,3.1640625,0,0
-2.31581961998018E-05,2.81176568250885E-07,3.1640625,0,0
-2.57043702731607E-05,2.40868394030258E-06,3.1640625,0,0
-2.6448215066921E-05,8.23974369268399E-06,3.1640625,0,0
-2.70295877271565E-05,1.63530730787897E-05,3.1640625,0,0
-2.46792824327713E-05,1.59902392624645E-05,3.1640625,0,0
-2.51165802183095E-05,9.20526690606494E-06,3.1640625,0,0
-2.61143868556246E-05,2.44722718889534E-06,3.1640625,0,0
-2.71511253231438E-05,2.43247109210643E-06,3.1640625,0,0
-2.63196270680055E-05,4.5998535824765E-06,3.1640625,0,0
-2.55775903497124E-05,7.37191203370458E-06,3.1640625,0,0
-2.43098329519853E-05,4.9759028115659E-06,3.1640625,0,0
-2.28303906624205E-05,2.49249364969728E-06,3.1640625,0,0
-1.67549096659059E-05,3.5980083339382E-06,3.1640625,0,0
-2.43219601543387E-05,5.62900140721467E-06,3.1640625,0,0
-2.09335794352228E-05,2.06504591915291E-06,3.1640625,0,0
-2.55878530879272E-05,-8.72265047746623E-07,3.1640625,0,0
-1.8978702428285E-05,-3.30252578351065E-06,3.1640625,0,0
-1.92043153219856E-05,-6.99140491633443E-06,3.1640625,0,0
-1.79457019839901E-05,-4.3100658331241E-06,3.1640625,0,0
-2.13702878681943E-05,4.96562415719382E-06,3.1640625,0,0
-2.23876522795763E-05,7.1649310484645E-06,3.1640625,0,0
-2.29644265345996E-05,6.6634106588026E-06,3.1640625,0,0
-2.27597429329762E-05,7.32407488612807E-06,3.1640625,0,0
-2.15759719139896E-05,4.19964862885536E-06,3.1640625,0,0
-2.26704687520396E-05,1.750689648361E-06,3.1640625,0,0
-2.2746517061023E-05,1.11880638087314E-06,3.1640625,0,0
-2.3322279957938E-05,-1.39967744416936E-06,3.1640625,0,0
-2.04046646103961E-05,-4.28751582148834E-06,3.1640625,0,0
-1.94478470803006E-05,-2.81751454167534E-06,3.1640625,0,0
-1.86085053428542E-05,1.77249523858336E-06,3.1640625,0,0
-2.09987156267744E-05,7.21989408702939E-06,3.1640625,0,0
-2.09087229450233E-05,1.04139580798801E-05,3.1640625,0,0
-2.17502765735844E-05,1.23789541248698E-05,3.1640625,0,0
-2.3029255316942E-05,1.32872191898059E-05,3.1640625,0,0
-2.49951935984427E-05,1.14755493996199E-05,3.1640625,0,0
-2.37890981225064E-05,7.82515780883841E-06,3.1640625,0,0
-2.3091346520232E-05,5.77995206185733E-06,3.1640625,0,0
-2.20869023905834E-05,8.09033554105554E-06,3.1640625,0,0
-2.06809036171762E-05,1.22037445180467E-05,3.1640625,0,0
-1.73030803125585E-05,1.29155050672125E-05,3.1640625,0,0
-2.57468836935004E-05,2.15582895179978E-05,3.1640625,0,0
-2.09685022127815E-05,1.8827682652045E-05,3.1640625,0,0
-2.52829031524016E-05,2.4345707061002E-05,3.1640625,0,0
-2.24758477997966E-05,2.55818904406624E-05,3.1640625,0,0
-2.62727771769278E-05,2.21512709686067E-05,3.1640625,0,0
-2.51906803896418E-05,1.99861042347038E-05,3.1640625,0,0
-2.56709354289342E-05,2.56983566941926E-05,3.1640625,0,0
-2.44754937739344E-05,2.38960365095409E-05,3.1640625,0,0
-2.42591195274144E-05,2.12216455111047E-05,3.1640625,0,0
-2.48182041104883E-05,1.87907808140153E-05,3.1640625,0,0
-2.54182286880678E-05,1.19668484330759E-05,3.1640625,0,0
-2.73277601081645E-05,6.66162759443978E-06,3.1640625,0,0
-2.66705046669813E-05,5.70351585338358E-06,3.1640625,0,0
-2.68334879365284E-05,5.64370338906883E-06,3.1640625,0,0
-2.41338530031499E-05,2.44986813413561E-06,3.1640625,0,0
-2.3485114070354E-05,2.50358152698027E-06,3.1640625,0,0
-2.22869148274185E-05,4.28982048106263E-06,3.1640625,0,0
-2.33325808949303E-05,5.70492420592927E-06,3.1640625,0,0
-2.30548521358287E-05,3.557933951015E-06,3.1640625,0,0
-2.41123998421244E-05,4.41079691881896E-06,3.1640625,0,0
-2.43609465542249E-05,7.30328065401409E-06,3.1640625,0,0
-2.555390165071E-05,1.02759249784867E-05,3.1640625,0,0
-2.57628271356225E-05,1.01359401014633E-05,3.1640625,0,0
-2.63724614342209E-05,9.61843397817574E-06,3.1640625,0,0
-2.62902885879157E-05,9.24958658288233E-06,3.1640625,0,0
-2.51719538937323E-05,1.14264685180387E-05,3.1640625,0,0
-1.94737458514282E-05,1.23906156659359E-05,3.1640625,0,0
-2.81949178315699E-05,1.98432371689705E-05,3.1640625,0,0
-2.23634706344455E-05,1.76816574821714E-05,3.1640625,0,0
-2.73609930445673E-05,2.67108462139731E-05,3.1640625,0,0
-2.24705072469078E-05,3.09096831188072E-05,3.1640625,0,0
-2.40542594838189E-05,2.54802725976333E-05,3.1640625,0,0
-2.16588705370668E-05,1.65793571795803E-05,3.1640625,0,0
-2.30727746384218E-05,1.55343095684657E-05,3.1640625,0,0
-2.30561036005383E-05,1.26337545225397E-05,3.1640625,0,0
-2.3850971047068E-05,1.45843105201493E-05,3.1640625,0,0
-2.43737868004246E-05,1.82800486072665E-05,3.1640625,0,0
-2.40897443291033E-05,1.6579928342253E-05,3.1640625,0,0
-2.51648853009101E-05,1.61541465786286E-05,3.1640625,0,0
-2.43734666582895E-05,1.82243202289101E-05,3.1640625,0,0
-2.49426666414365E-05,1.84166146937059E-05,3.1640625,0,0
-2.32366437558085E-05,1.39431131174206E-05,3.1640625,0,0
-2.40904937527375E-05,1.21718112495728E-05,3.1640625,0,0
-2.39708570006769E-05,1.08519116110983E-05,3.1640625,0,0
-2.58360050793272E-05,1.0024652510765E-05,3.1640625,0,0
-2.37919321079971E-05,7.32551552573568E-06,3.1640625,0,0
-2.20320198422996E-05,6.26461996944272E-06,3.1640625,0,0
-2.09555037145037E-05,7.12470864527859E-06,3.1640625,0,0
-2.29274974117288E-05,1.09380061985576E-05,3.1640625,0,0
-2.3016620616545E-05,1.10788114398019E-05,3.1640625,0,0
-2.377710188739E-05,7.93868912296603E-06,3.1640625,0,0
-2.55343402386643E-05,7.16161594027653E-06,3.1640625,0,0
-2.6654159228201E-05,8.28899283078499E-06,3.1640625,0,0
-2.16513690247666E-05,8.0450727182324E-06,3.1640625,0,0
-2.99748444376746E-05,1.44297646329505E-05,3.1640625,0,0
-2.18053046410205E-05,1.36097478389274E-05,3.1640625,0,0
-2.65578746621031E-05,1.68428396136733E-05,3.1640625,0,0
-2.21063965000212E-05,1.72667496372014E-05,3.1640625,0,0
-2.62926532741403E-05,1.39878975460306E-05,3.1640625,0,0
-2.34285380429355E-05,1.21947787192767E-05,3.1640625,0,0
-2.35500920098275E-05,1.48759509102092E-05,3.1640625,0,0
-2.17762080865214E-05,1.2287457138882E-05,3.1640625,0,0
-2.12074355658842E-05,1.22841129268636E-05,3.1640625,0,0
-2.16697990254033E-05,1.48060307765263E-05,3.1640625,0,0
-2.19936882785987E-05,1.12264006020268E-05,3.1640625,0,0
-2.41251927945996E-05,7.46309797250433E-06,3.1640625,0,0
-2.4314582333318E-05,6.60813748254441E-06,3.1640625,0,0
-2.63557103608036E-05,5.30456918568234E-06,3.1640625,0,0
-2.50461798714241E-05,4.12300914831576E-06,3.1640625,0,0
-2.6301022444386E-05,8.88137037691195E-06,3.1640625,0,0
-2.60239830822684E-05,1.57804151967866E-05,3.1640625,0,0
-2.74562789854826E-05,1.95180418813834E-05,3.1640625,0,0
-2.53932030318538E-05,1.73694188561058E-05,3.1640625,0,0
-2.60312135651475E-05,1.35634354592185E-05,3.1640625,0,0
-2.67078903561924E-05,8.35762966744369E-06,3.1640625,0,0
-2.79116775345756E-05,4.81923370898585E-06,3.1640625,0,0
-2.71294684353052E-05,2.40188842326461E-06,3.1640625,0,0
-2.67122122750152E-05,4.8398879926026E-07,3.1640625,0,0
-2.51407600444509E-05,2.87667944576242E-06,3.1640625,0,0
-2.45560295297764E-05,5.97017196923844E-06,3.1640625,0,0
-1.97554400074296E-05,3.80719529857743E-06,3.1640625,0,0
-2.75199290626915E-05,3.97743406210793E-06,3.1640625,0,0
-2.07621887966525E-05,1.26494740015914E-06,3.1640625,0,0
-2.7046786271967E-05,4.67505651613465E-06,3.1640625,0,0
-2.3844728275435E-05,5.11790040036431E-06,3.1640625,0,0
-2.74507219728548E-05,-2.35899733525002E-07,3.1640625,0,0
-2.58023483183933E-05,-2.44433613261208E-06,3.1640625,0,0
-2.79160431091441E-05,5.32409694642411E-06,3.1640625,0,0
-2.8478936656029E-05,1.11002318590181E-05,3.1640625,0,0
-2.77245180768659E-05,1.51071462823893E-05,3.1640625,0,0
-2.70130749413511E-05,1.56207115651341E-05,3.1640625,0,0
-2.62818448391045E-05,1.16293949758983E-05,3.1640625,0,0
-2.72004144790117E-05,1.14984313768218E-05,3.1640625,0,0
-2.52625504799653E-05,1.45588965096977E-05,3.1640625,0,0
-2.62218054558616E-05,1.30883281599381E-05,3.1640625,0,0
-2.68297953880392E-05,7.68321842770092E-06,3.1640625,0,0
-2.88474966509966E-05,7.57558291297755E-06,3.1640625,0,0
-2.6691783205024E-05,1.14688737085089E-05,3.1640625,0,0
-2.616618439788E-05,1.52859938680194E-05,3.1640625,0,0
-2.55059512710432E-05,1.61055231728824E-05,3.1640625,0,0
-2.68773437710479E-05,1.57039230543887E-05,3.1640625,0,0
-2.58152849710314E-05,1.45217127283104E-05,3.1640625,0,0
-2.46109593717847E-05,1.56095047714189E-05,3.1640625,0,0
-2.37008698604768E-05,1.8597231246531E-05,3.1640625,0,0
-2.44221391767496E-05,2.05015330720926E-05,3.1640625,0,0
-2.45816518145148E-05,1.98466295842081E-05,3.1640625,0,0
-2.41062734858133E-05,1.96138953469926E-05,3.1640625,0,0
-1.85298777068965E-05,1.67125326697715E-05,3.1640625,0,0
-2.69635620497866E-05,2.31770300160861E-05,3.1640625,0,0
-2.10229809454177E-05,1.42460439747083E-05,3.1640625,0,0
-2.4250291971839E-05,1.82505900738761E-05,3.1640625,0,0
-1.89758993656142E-05,1.68298320204485E-05,3.1640625,0,0
-2.10936577786924E-05,1.43695879160077E-05,3.1640625,0,0
-1.95643715414917E-05,1.01068299045437E-05,3.1640625,0,0
-2.14522606256651E-05,1.3949083040643E-05,3.1640625,0,0
-2.05781980184838E-05,1.10781802504789E-05,3.1640625,0,0
-2.05910782824503E-05,9.78349453362171E-06,3.1640625,0,0
-2.21770242205821E-05,1.16129231173545E-05,3.1640625,0,0
-2.33341452258173E-05,9.09502341528423E-06,3.1640625,0,0
-2.46072650043061E-05,8.71142856340157E-06,3.1640625,0,0
-2.33841165027115E-05,1.09789052658016E-05,3.1640625,0,0
-2.4700862923055E-05,1.17811268864898E-05,3.1640625,0,0
-2.48298092628829E-05,6.12876374361804E-06,3.1640625,0,0
-2.65023336396553E-05,3.83082488042419E-06,3.1640625,0,0
-2.54591177508701E-05,4.54128894489259E-06,3.1640625,0,0
-2.58434920397121E-05,8.8465676526539E-06,3.1640625,0,0
-2.40828776441049E-05,9.99925850919681E-06,3.1640625,0,0
-2.39347573369741E-05,9.99428448267281E-06,3.1640625,0,0
-2.35955703828949E-05,8.11519112176029E-06,3.1640625,0,0
-2.45379924308509E-05,8.34089314594166E-06,3.1640625,0,0
-2.41578782151919E-05,9.55944688030286E-06,3.1640625,0,0
-2.40399058384355E-05,1.24126372611499E-05,3.1640625,0,0
-2.30578389164293E-05,1.35491527544218E-05,3.1640625,0,0
-2.26055417442694E-05,1.16666315079783E-05,3.1640625,0,0
-1.82529474841431E-05,6.15649105384364E-06,3.1640625,0,0
-2.48692267632578E-05,5.12735732627334E-06,3.1640625,0,0
-1.7867045244202E-05,-3.92804713555961E-06,3.1640625,0,0
-2.24611376324901E-05,-1.12815200736804E-06,3.1640625,0,0
-1.92770003195619E-05,6.31931652605999E-06,3.1640625,0,0
-2.38500360865146E-05,9.57339216256514E-06,3.1640625,0,0
-2.26652409764938E-05,7.98132805357454E-06,3.1640625,0,0
-2.44120401475811E-05,8.30311546451412E-06,3.1640625,0,0
-2.48328851739643E-05,7.13080271452782E-06,3.1640625,0,0
-2.55459726759E-05,1.01902915048413E-05,3.1640625,0,0
-2.57641750067705E-05,1.31894548758282E-05,3.1640625,0,0
-2.45389201154467E-05,8.61336684465641E-06,3.1640625,0,0
-2.58233503700467E-05,5.43983514944557E-06,3.1640625,0,0
-2.65925064013572E-05,8.80598054209258E-06,3.1640625,0,0
-2.88742103293771E-05,1.27233706734842E-05,3.1640625,0,0
-2.73722052952508E-05,1.17132622108329E-05,3.1640625,0,0
-2.64502959907986E-05,1.06308061731397E-05,3.1640625,0,0
-2.25753992708633E-05,1.03975035017356E-05,3.1640625,0,0
-2.22072249016492E-05,1.31727329062414E-05,3.1640625,0,0
-2.34930466831429E-05,1.66811169037828E-05,3.1640625,0,0
-2.63484962488292E-05,1.75456498254789E-05,3.1640625,0,0
-2.49459262704477E-05,1.34047513711266E-05,3.1640625,0,0
-2.3591815988766E-05,8.39284530229634E-06,3.1640625,0,0
-2.24610030272743E-05,5.08187849845854E-06,3.1640625,0,0
-2.27388482016977E-05,4.02967043555691E-06,3.1640625,0,0
-2.3643093300052E-05,2.77887716038094E-06,3.1640625,0,0
-2.48379201366333E-05,2.14865031011868E-06,3.1640625,0,0
-2.01506627490744E-05,4.77790172226378E-06,3.1640625,0,0
-2.74559351964854E-05,1.03096363091026E-05,3.1640625,0,0
-1.89723778021289E-05,1.22284736789879E-05,3.1640625,0,0
-2.27874934353167E-05,1.64430548466044E-05,3.1640625,0,0
-1.78213667823002E-05,1.92523239093134E-05,3.1640625,0,0
-2.09758582059294E-05,1.5524732589256E-05,3.1640625,0,0
-1.8119731976185E-05,1.3830014722771E-05,3.1640625,0,0
-1.82475614565192E-05,1.98409725271631E-05,3.1640625,0,0
-1.7457239664509E-05,2.00674803636502E-05,3.1640625,0,0
-1.88677004189231E-05,1.93373398360563E-05,3.1640625,0,0
-2.04239313461585E-05,2.1252852093312E-05,3.1640625,0,0
-2.05879587156232E-05,1.87076493602945E-05,3.1640625,0,0
-2.15799136640271E-05,1.59705050464254E-05,3.1640625,0,0
-1.9907611203962E-05,1.62412870849948E-05,3.1640625,0,0
-2.04324041988002E-05,1.47711425597663E-05,3.1640625,0,0
-1.94202912098262E-05,8.18840362626361E-06,3.1640625,0,0
-2.17836513911607E-05,2.75339903055283E-06,3.1640625,0,0
-2.23094466491602E-05,1.98843849830155E-06,3.1640625,0,0
-2.42331334447954E-05,3.77240780835564E-06,3.1640625,0,0
-2.32472393690841E-05,1.81734128545941E-06,3.1640625,0,0
-2.38710981648183E-05,-3.11047915602103E-06,3.1640625,0,0
-2.32249440159649E-05,-5.66162725590402E-06,3.1640625,0,0
-2.32445636356715E-05,-2.20117681237753E-06,3.1640625,0,0
-2.3467840946978E-05,4.39762698078994E-06,3.1640625,0,0
-2.58995860349387E-05,7.92606260802131E-06,3.1640625,0,0
-2.74323792837095E-05,8.30451426736545E-06,3.1640625,0,0
-2.80038839264307E-05,6.07689980824944E-06,3.1640625,0,0
-2.21990176214604E-05,-2.72867964667967E-07,3.1640625,0,0
-3.15368124574889E-05,-1.43388979267911E-06,3.1640625,0,0
-2.3792914362275E-05,1.33270339119917E-06,3.1640625,0,0
-2.82060409517726E-05,1.09364536911016E-05,3.1640625,0,0
-2.22798844333738E-05,1.63958629855188E-05,3.1640625,0,0
-2.52633162745042E-05,1.11325871330337E-05,3.1640625,0,0
-2.34553299378604E-05,1.18223924800986E-05,3.1640625,0,0
-2.51466753979912E-05,1.99493297259323E-05,3.1640625,0,0
-2.39728979067877E-05,1.98372727027163E-05,3.1640625,0,0
-2.34012259170413E-05,1.97139725059969E-05,3.1640625,0,0
-2.25312523980392E-05,2.02348874154268E-05,3.1640625,0,0
-2.07461289392086E-05,1.57855611178093E-05,3.1640625,0,0
-2.04762509383727E-05,1.25457563626696E-05,3.1640625,0,0
-1.7487922377768E-05,1.4636134437751E-05,3.1640625,0,0
-1.71993779076729E-05,1.52512211570865E-05,3.1640625,0,0
-1.62897849804722E-05,1.27237026390503E-05,3.1640625,0,0
-1.89228048839141E-05,1.19277829071507E-05,3.1640625,0,0
-1.89460370165762E-05,1.23006821013405E-05,3.1640625,0,0
-2.08508554351283E-05,1.36614462462603E-05,3.1640625,0,0
-2.13219464058056E-05,1.44431905937381E-05,3.1640625,0,0
-2.32762395171449E-05,1.24959742606734E-05,3.1640625,0,0
-2.26446463784669E-05,8.10620986158028E-06,3.1640625,0,0
-2.32891052291961E-05,4.71185467176838E-06,3.1640625,0,0
-2.29735942411935E-05,4.06730941904243E-06,3.1640625,0,0
-2.35910465562483E-05,4.53810798717313E-06,3.1640625,0,0
-2.47905027208617E-05,4.94098412673338E-06,3.1640625,0,0
-2.61748227785574E-05,4.51581308880122E-06,3.1640625,0,0
-2.09884110518033E-05,3.41485315402679E-06,3.1640625,0,0
-2.91220221697586E-05,6.40370035398519E-06,3.1640625,0,0
-2.10210691875545E-05,4.72497913506231E-06,3.1640625,0,0
-2.57631454587681E-05,7.16117438059882E-06,3.1640625,0,0
-2.18920977204107E-05,1.17071767817833E-05,3.1640625,0,0
-2.60666438407497E-05,9.7612255558488E-06,3.1640625,0,0
-2.48127580562141E-05,8.43384350446286E-06,3.1640625,0,0
-2.67535215243697E-05,1.1051791261707E-05,3.1640625,0,0
-2.56802159128711E-05,7.67673373047728E-06,3.1640625,0,0
-2.4408072931692E-05,6.17899149801815E-06,3.1640625,0,0
-2.33700666285586E-05,9.72910493146628E-06,3.1640625,0,0
-2.26670690608444E-05,9.08384208742063E-06,3.1640625,0,0
-2.36277846852317E-05,7.64354354032548E-06,3.1640625,0,0
-2.14545652852394E-05,9.37091317609884E-06,3.1640625,0,0
-2.23529641516507E-05,9.84734379017027E-06,3.1640625,0,0
-2.2984617316979E-05,5.1557544793468E-06,3.1640625,0,0
-2.64752234215848E-05,-2.63919304188676E-07,3.1640625,0,0
-2.67632694885833E-05,-6.77363857448654E-07,3.1640625,0,0
-2.82303826679708E-05,2.75997399512562E-06,3.1640625,0,0
-2.68151434283936E-05,4.48008950115764E-06,3.1640625,0,0
-2.5579964130884E-05,4.63477681478253E-06,3.1640625,0,0
-2.32670354307629E-05,5.6791623137542E-06,3.1640625,0,0
-2.34765029745176E-05,6.98641770213726E-06,3.1640625,0,0
-2.322849650227E-05,6.88194950271281E-06,3.1640625,0,0
-2.44331640715245E-05,5.46802539247437E-06,3.1640625,0,0
-2.53105263254838E-05,5.7256124819105E-06,3.1640625,0,0
-2.63639049080666E-05,7.62654235586524E-06,3.1640625,0,0
-2.19339217437664E-05,9.94386027741712E-06,3.1640625,0,0
-2.95627232844708E-05,1.97749359358568E-05,3.1640625,0,0
-1.99524765776005E-05,1.96138662431622E-05,3.1640625,0,0
-2.37792319239816E-05,2.02932387765031E-05,3.1640625,0,0
-1.73749722307548E-05,1.37510969580035E-05,3.1640625,0,0
-1.99685073312139E-05,2.79566143035481E-06,3.1640625,0,0
-1.76638532138895E-05,-1.05270748917974E-06,3.1640625,0,0
-1.99569149117451E-05,5.02553211845225E-06,3.1640625,0,0
-2.04491789190797E-05,8.98454891284928E-06,3.1640625,0,0
-2.15266845771112E-05,1.29282352645532E-05,3.1640625,0,0
-2.34368326346157E-05,1.54082918015774E-05,3.1640625,0,0
-2.30927325901575E-05,9.94437596091302E-06,3.1640625,0,0
-2.29027100431267E-05,5.25863015354844E-06,3.1640625,0,0
-2.14954816328827E-05,7.69005055190064E-06,3.1640625,0,0
-2.43132071773289E-05,1.12430252556805E-05,3.1640625,0,0
-2.48562355409376E-05,1.12356028694194E-05,3.1640625,0,0
-2.61937020695768E-05,1.11007429950405E-05,3.1640625,0,0
-2.39650835283101E-05,1.08875683508813E-05,3.1640625,0,0
-2.39240707742283E-05,1.16435321615427E-05,3.1640625,0,0
-2.30191926675616E-05,1.2762605365424E-05,3.1640625,0,0
-2.46704221353866E-05,1.2330799108895E-05,3.1640625,0,0
-2.45480478042737E-05,9.08586662262678E-06,3.1640625,0,0
-2.53344132943312E-05,9.09381287783617E-06,3.1640625,0,0
-2.44956409005681E-05,1.14887088784599E-05,3.1640625,0,0
-2.40582794504007E-05,1.44551149787731E-05,3.1640625,0,0
-2.32980146392947E-05,1.67305988725275E-05,3.1640625,0,0
-2.40463523368817E-05,1.86079760169378E-05,3.1640625,0,0
-2.19393914449029E-05,1.95816828636453E-05,3.1640625,0,0
-3.13971904688515E-05,3.01208019664045E-05,3.1640625,0,0
-2.3391303329845E-05,2.06720251298975E-05,3.1640625,0,0
-2.73647910944419E-05,2.38216380239464E-05,3.1640625,0,0
-2.23261613427894E-05,2.24522846110631E-05,3.1640625,0,0
-2.74131307378411E-05,2.08136571018258E-05,3.1640625,0,0
-2.78775896731531E-05,1.74962260643952E-05,3.1640625,0,0
-2.97479400614975E-05,1.83441916306037E-05,3.1640625,0,0
-2.82593537122011E-05,1.30542339320527E-05,3.1640625,0,0
-2.74522153631551E-05,1.11192048279918E-05,3.1640625,0,0
-2.81698921753559E-05,1.36387998281862E-05,3.1640625,0,0
-2.82889104710193E-05,1.27195971799665E-05,3.1640625,0,0
-2.81775901385117E-05,1.230847556144E-05,3.1640625,0,0
-2.43914073507767E-05,1.13289570435882E-05,3.1640625,0,0
-2.43760150624439E-05,9.65152867138386E-06,3.1640625,0,0
-2.36078922171146E-05,6.37247376289451E-06,3.1640625,0,0
-2.44237162405625E-05,7.39337929189787E-06,3.1640625,0,0
-2.21074260480236E-05,9.88325245998567E-06,3.1640625,0,0
-2.22819689952303E-05,1.56777714437339E-05,3.1640625,0,0
-2.11554979614448E-05,1.77746114786714E-05,3.1640625,0,0
-2.25664352910826E-05,1.76359535544179E-05,3.1640625,0,0
-2.24832620006055E-05,1.55675934365718E-05,3.1640625,0,0
-2.16764583456097E-05,1.50334362842841E-05,3.1640625,0,0
-1.92992665688507E-05,1.56031219376018E-05,3.1640625,0,0
-1.81213017640403E-05,1.7019907318172E-05,3.1640625,0,0
-1.79319049493643E-05,1.536345371278E-05,3.1640625,0,0
-1.88285266631283E-05,1.27856765175238E-05,3.1640625,0,0
-1.54082026710967E-05,1.14669746835716E-05,3.1640625,0,0
-2.15813324757619E-05,1.75369023054373E-05,3.1640625,0,0
-1.58001075760694E-05,1.02833118944545E-05,3.1640625,0,0
-2.03994550247444E-05,9.99810072244145E-06,3.1640625,0,0
-1.96711644093739E-05,9.268861504097E-06,3.1640625,0,0
-2.45080118475016E-05,5.45993816558621E-06,3.1640625,0,0
-2.47016287175938E-05,8.98487542144721E-07,3.1640625,0,0
-2.52149529842427E-05,1.83918348284351E-06,3.1640625,0,0
-2.3457279894501E-05,-1.43444810873916E-06,3.1640625,0,0
-2.30277400987688E-05,-2.20429768660324E-07,3.1640625,0,0
-2.34289454965619E-05,7.39534925742191E-06,3.1640625,0,0
-2.37996864598244E-05,1.18776306408108E-05,3.1640625,0,0
-2.51811925409129E-05,1.5441086361534E-05,3.1640625,0,0
-2.47533371293684E-05,1.79865310201421E-05,3.1640625,0,0
-2.60223278019112E-05,1.54705940076383E-05,3.1640625,0,0
-2.55846334766829E-05,7.97465963842114E-06,3.1640625,0,0
-2.60980013990775E-05,5.90913850828656E-06,3.1640625,0,0
-2.41158431890653E-05,7.67438996263081E-06,3.1640625,0,0
-2.29024772124831E-05,9.23509378480958E-06,3.1640625,0,0
-1.99813712242758E-05,7.72862222220283E-06,3.1640625,0,0
-1.88889007404214E-05,6.51584969091346E-06,3.1640625,0,0
-1.81236191565404E-05,6.2074368543108E-06,3.1640625,0,0
-1.90248392755166E-05,7.21384913049405E-06,3.1640625,0,0
-2.01283419301035E-05,5.1473193707352E-06,3.1640625,0,0
-2.12919785553822E-05,3.56791110789345E-06,3.1640625,0,0
-2.03750132641289E-05,4.43667158833705E-06,3.1640625,0,0
-2.12587201531278E-05,4.59112061435007E-06,3.1640625,0,0
-1.97411645785905E-05,6.70202234687167E-06,3.1640625,0,0
-2.91111136903055E-05,1.32623590616276E-05,3.1640625,0,0
-2.36734576901654E-05,9.88652027444914E-06,3.1640625,0,0
-2.89477029582486E-05,7.02349461789709E-06,3.1640625,0,0
-2.40701556322165E-05,6.00943849349278E-06,3.1640625,0,0
-2.5295341401943E-05,5.17834678248619E-06,3.1640625,0,0
-2.22037015191745E-05,9.28482313611312E-06,3.1640625,0,0
-2.28567114390899E-05,1.32691511680605E-05,3.1640625,0,0
-2.17887300095754E-05,7.94288553152001E-06,3.1640625,0,0
-2.09128629649058E-05,5.77333139517577E-06,3.1640625,0,0
-2.10414327739272E-05,1.00949337138445E-05,3.1640625,0,0
-2.22747003135737E-05,1.12360357888974E-05,3.1640625,0,0
-2.4709612262086E-05,1.27794228319544E-05,3.1640625,0,0
-2.32606562349247E-05,1.6553789464524E-05,3.1640625,0,0
-2.37401145568583E-05,1.6052603314165E-05,3.1640625,0,0
-2.32469283218961E-05,1.22010678751394E-05,3.1640625,0,0
-2.51720684900647E-05,1.32755121740047E-05,3.1640625,0,0
-2.49303338932805E-05,1.75095392478397E-05,3.1640625,0,0
-2.584904905234E-05,2.00666145246942E-05,3.1640625,0,0
-2.46477702603443E-05,1.98368034034502E-05,3.1640625,0,0
-2.62569810729474E-05,1.83271804417018E-05,3.1640625,0,0
-2.68393869191641E-05,1.671311656537E-05,3.1640625,0,0
-2.75598449661629E-05,1.52717984747142E-05,3.1640625,0,0
-2.75936599791748E-05,1.22203109640395E-05,3.1640625,0,0
-2.80408166872803E-05,8.23377195047215E-06,3.1640625,0,0
-2.76967275567586E-05,3.48369121638825E-06,3.1640625,0,0
-2.69099418801488E-05,-4.81218137338146E-07,3.1640625,0,0
-2.12404775083996E-05,1.50702248902235E-07,3.1640625,0,0
-3.11083458655048E-05,2.94046412818716E-06,3.1640625,0,0
-2.45971623371588E-05,5.81513131692191E-06,3.1640625,0,0
-2.90939715341665E-05,8.68349707161542E-06,3.1640625,0,0
-2.4201326596085E-05,1.08959320641588E-05,3.1640625,0,0
-2.76876926363911E-05,6.6745401454682E-06,3.1640625,0,0
-2.52572644967586E-05,8.06575917522423E-06,3.1640625,0,0
-2.51538222073577E-05,1.13326905193389E-05,3.1640625,0,0
-2.29901561397128E-05,4.14280611948925E-06,3.1640625,0,0
-2.23059723793995E-05,-9.74310296442127E-07,3.1640625,0,0
-2.22296148422174E-05,1.25885514989932E-06,3.1640625,0,0
-2.17500819417182E-05,1.90611456218903E-06,3.1640625,0,0
-2.35210864047986E-05,3.67483949048619E-06,3.1640625,0,0
-2.3538135792478E-05,8.44113856146578E-06,3.1640625,0,0
-2.49788154178532E-05,1.00022407423239E-05,3.1640625,0,0
-2.28414683078881E-05,9.54909501160728E-06,3.1640625,0,0
-2.27006858040113E-05,9.81367338681594E-06,3.1640625,0,0
-2.16366188396933E-05,1.00798770290567E-05,3.1640625,0,0
-2.42459082073765E-05,1.05655144579941E-05,3.1640625,0,0
-2.48667329287855E-05,1.17449199024122E-05,3.1640625,0,0
-2.57127467193641E-05,1.24371481433627E-05,3.1640625,0,0
-2.50807534030173E-05,1.4559984265361E-05,3.1640625,0,0
-2.64575537585188E-05,1.73351381818065E-05,3.1640625,0,0
-2.63729943981161E-05,1.81608302227687E-05,3.1640625,0,0
-2.68575477093691E-05,1.64896136993775E-05,3.1640625,0,0
-2.6193802113994E-05,1.4670876225864E-05,3.1640625,0,0
-2.47907846642192E-05,1.21702687465586E-05,3.1640625,0,0
-1.94720323634101E-05,6.93460788170341E-06,3.1640625,0,0
-2.80655112874229E-05,1.17216168291634E-05,3.1640625,0,0
-2.09047721000388E-05,1.25853030112921E-05,3.1640625,0,0
-2.41128909692634E-05,1.87026180356042E-05,3.1640625,0,0
-1.83217925950885E-05,1.81513369170716E-05,3.1640625,0,0
-1.98661491594976E-05,1.07016376205138E-05,3.1640625,0,0
-1.83304873644374E-05,7.54079792386619E-06,3.1640625,0,0
-2.05881660804152E-05,1.30807793539134E-05,3.1640625,0,0
-2.08012879738817E-05,1.40077199830557E-05,3.1640625,0,0
-2.09325935429661E-05,1.66745921887923E-05,3.1640625,0,0
-2.06471431738464E-05,1.86800625670003E-05,3.1640625,0,0
-2.02308929146966E-05,1.63557415362448E-05,3.1640625,0,0
-2.13900621020002E-05,1.47175205711392E-05,3.1640625,0,0
-2.10184243769618E-05,1.40472338898689E-05,3.1640625,0,0
-2.31518188229529E-05,1.06576299003791E-05,3.1640625,0,0
-2.31121612159768E-05,5.1955380513391E-06,3.1640625,0,0
-2.39238943322562E-05,5.75150625081733E-06,3.1640625,0,0
-2.27225191338221E-05,1.06632678580354E-05,3.1640625,0,0
-2.46688086917857E-05,1.65103210747475E-05,3.1640625,0,0
-2.45748360612197E-05,1.79498692887137E-05,3.1640625,0,0
-2.44685743382433E-05,1.69995710166404E-05,3.1640625,0,0
-2.29119686991908E-05,1.63584663823713E-05,3.1640625,0,0
-2.3899476218503E-05,1.64090379257686E-05,3.1640625,0,0
-2.46244144364027E-05,1.57153335749172E-05,3.1640625,0,0
-2.5670145987533E-05,1.60559575306252E-05,3.1640625,0,0
-2.57970950769959E-05,1.5175368389464E-05,3.1640625,0,0
-2.46614581556059E-05,1.41383379741455E-05,3.1640625,0,0
-1.79747130459873E-05,1.18561110866722E-05,3.1640625,0,0
-2.40948374994332E-05,1.78749523911392E-05,3.1640625,0,0
-1.69914255820913E-05,1.22211458801758E-05,3.1640625,0,0
-2.17746146518039E-05,1.4800054486841E-05,3.1640625,0,0
-1.8132046534447E-05,1.2145003893238E-05,3.1640625,0,0
-2.23372644541087E-05,6.88508680468658E-06,3.1640625,0,0
-2.15028630918823E-05,3.3139806419058E-06,3.1640625,0,0
-2.25109833991155E-05,4.48554828835768E-06,3.1640625,0,0
-2.08592209673952E-05,1.66526410794177E-06,3.1640625,0,0
-1.98286179511342E-05,1.87302623544383E-06,3.1640625,0,0
-2.09869649552275E-05,5.72293265577173E-06,3.1640625,0,0
-2.33172977459617E-05,6.5043559516198E-06,3.1640625,0,0
-2.64655682258308E-05,7.21066862752195E-06,3.1640625,0,0
-2.58675845543621E-05,7.20595789971412E-06,3.1640625,0,0
-2.60850556514924E-05,3.80316350856447E-06,3.1640625,0,0
-2.45109622483142E-05,-3.3782064292609E-06,3.1640625,0,0
-2.4606822989881E-05,-5.29584667674499E-06,3.1640625,0,0
-2.24671857722569E-05,-4.01668785343645E-06,3.1640625,0,0
-2.29646830121055E-05,-1.79063511041022E-06,3.1640625,0,0
-2.28664284804836E-05,-4.85730595300993E-07,3.1640625,0,0
-2.48167943937005E-05,1.18698926598881E-06,3.1640625,0,0
-2.52415029535769E-05,2.00565295926936E-06,3.1640625,0,0
-2.64067857642658E-05,4.45040586782852E-06,3.1640625,0,0
-2.49429722316563E-05,8.46198781800922E-06,3.1640625,0,0
-2.36597734328825E-05,1.39497078635031E-05,3.1640625,0,0
-2.43488793785218E-05,1.7230908269994E-05,3.1640625,0,0
-2.68244784820126E-05,1.79102898982819E-05,3.1640625,0,0
-2.34122817346361E-05,1.37391543830745E-05,3.1640625,0,0
-3.28939640894532E-05,1.7452872270951E-05,3.1640625,0,0
-2.45397350226995E-05,1.08184030978009E-05,3.1640625,0,0
-3.0143724870868E-05,1.87778296094621E-05,3.1640625,0,0
-2.47209718509112E-05,1.98424258996965E-05,3.1640625,0,0
-2.78127918136306E-05,1.71031570062041E-05,3.1640625,0,0
-2.48694686888484E-05,1.21144630611525E-05,3.1640625,0,0
-2.75250513368519E-05,1.52102393258247E-05,3.1640625,0,0
-2.94478631985839E-05,1.41654272738378E-05,3.1640625,0,0
-3.01190884783864E-05,1.35809486891958E-05,3.1640625,0,0
-2.83914541796548E-05,1.32567201944767E-05,3.1640625,0,0
-2.56445091508795E-05,9.24840423977003E-06,3.1640625,0,0
-2.52404988714261E-05,8.50310971145518E-06,3.1640625,0,0
-2.24017858272418E-05,8.2596052379813E-06,3.1640625,0,0
-2.36185933317756E-05,5.62669447390363E-06,3.1640625,0,0
-2.37544481933583E-05,1.84289419280503E-08,3.1640625,0,0
-2.57751853496302E-05,8.37457719171653E-07,3.1640625,0,0
-2.50244174822001E-05,4.24344898419804E-06,3.1640625,0,0
-2.70335822278867E-05,8.34945967653766E-06,3.1640625,0,0
-2.68595103989355E-05,7.95142568676965E-06,3.1640625,0,0
-2.85193182207877E-05,4.60733463114593E-06,3.1640625,0,0
-2.73423302132869E-05,-1.00633678812301E-06,3.1640625,0,0
-2.68226485786727E-05,-3.53698510480172E-06,3.1640625,0,0
-2.57927931670565E-05,-4.39461473433767E-06,3.1640625,0,0
-2.50784760282841E-05,-2.18602258428291E-06,3.1640625,0,0
-2.51793408097001E-05,3.17358058055106E-06,3.1640625,0,0
-2.57261945080245E-05,8.83969732967671E-06,3.1640625,0,0
-2.00331960513722E-05,1.14700596896E-05,3.1640625,0,0
-2.68487419816665E-05,1.68752121680882E-05,3.1640625,0,0
-1.80183469637996E-05,9.58710188569967E-06,3.1640625,0,0
-2.29734268941684E-05,1.18072730401764E-05,3.1640625,0,0
-1.93986925296485E-05,1.29593254314386E-05,3.1640625,0,0
-2.41489487962099E-05,1.01513851404889E-05,3.1640625,0,0
-2.39947439695243E-05,1.10487590063713E-05,3.1640625,0,0
-2.52943009400042E-05,2.1306324924808E-05,3.1640625,0,0
-2.45066294155549E-05,2.45348455791827E-05,3.1640625,0,0
-2.47901043621823E-05,2.46419513132423E-05,3.1640625,0,0
-2.48375017690705E-05,2.38674474530853E-05,3.1640625,0,0
-2.36808336921968E-05,1.71153114933986E-05,3.1640625,0,0
-2.47198422584916E-05,1.29437894429429E-05,3.1640625,0,0
-2.36122796195559E-05,1.50435162140639E-05,3.1640625,0,0
-2.37115982599789E-05,1.756806159392E-05,3.1640625,0,0
-2.16076023207279E-05,1.45280537253711E-05,3.1640625,0,0
-2.18535751628224E-05,1.27555804283475E-05,3.1640625,0,0
-1.96349392354023E-05,1.27309367599082E-05,3.1640625,0,0
-2.03639465325978E-05,1.38071145556751E-05,3.1640625,0,0
-2.11678652703995E-05,1.2017680091958E-05,3.1640625,0,0
-2.38132852246054E-05,9.25894710235298E-06,3.1640625,0,0
-2.40207282331539E-05,6.78330525261117E-06,3.1640625,0,0
-2.36647883866681E-05,6.24311951469281E-06,3.1640625,0,0
-2.22786766244099E-05,7.17287775842124E-06,3.1640625,0,0
-2.2869806343806E-05,8.98890630196547E-06,3.1640625,0,0
-2.35362604144029E-05,7.44690578358131E-06,3.1640625,0,0
-2.46152631007135E-05,4.92479830427328E-06,3.1640625,0,0
-2.08386245503789E-05,2.60010733654781E-06,3.1640625,0,0
-2.89417930616764E-05,2.61291143033304E-06,3.1640625,0,0
-1.97219887922984E-05,-9.92191189652658E-07,3.1640625,0,0
-2.3772567146807E-05,3.43954241088795E-07,3.1640625,0,0
-1.95909233298153E-05,1.49354980294447E-06,3.1640625,0,0
-2.19800440390827E-05,-3.25940163747873E-06,3.1640625,0,0
-1.95053507923149E-05,-3.94160724681569E-06,3.1640625,0,0
-2.00837948796107E-05,3.73164107259072E-06,3.1640625,0,0
-1.98414327314822E-05,9.10348080651602E-06,3.1640625,0,0
-2.20792953768978E-05,1.43333554660785E-05,3.1640625,0,0
-2.33865775953745E-05,1.70097318914486E-05,3.1640625,0,0
-2.29736469918862E-05,1.49427387441392E-05,3.1640625,0,0
-2.36417381529463E-05,1.72973686858313E-05,3.1640625,0,0
-2.18988479900872E-05,2.43745744228363E-05,3.1640625,0,0
-2.18381610466167E-05,2.57257051998749E-05,3.1640625,0,0
-1.96592900465475E-05,2.02877054107375E-05,3.1640625,0,0
-1.99509686353849E-05,1.59948285727296E-05,3.1640625,0,0
-1.8952197933686E-05,1.47525879583554E-05,3.1640625,0,0
-2.09078134503216E-05,1.48310718941502E-05,3.1640625,0,0
-2.06408185476903E-05,1.36210801429115E-05,3.1640625,0,0
-2.17182587221032E-05,1.33160119730746E-05,3.1640625,0,0
-2.14699575735722E-05,1.31710057758028E-05,3.1640625,0,0
-2.26117608690402E-05,1.05685958260437E-05,3.1640625,0,0
-2.31727426580619E-05,8.02353679318912E-06,3.1640625,0,0
-2.49909626290901E-05,7.6980340963928E-06,3.1640625,0,0
-2.59826010733377E-05,7.11222901372821E-06,3.1640625,0,0
-2.58540403592633E-05,6.84607584844343E-06,3.1640625,0,0
-2.05655378522351E-05,8.03408511274029E-06,3.1640625,0,0
-2.88186474790564E-05,1.50963596752263E-05,3.1640625,0,0
-2.10732996492879E-05,1.26586437545484E-05,3.1640625,0,0
-2.52274257945828E-05,1.33106959765428E-05,3.1640625,0,0
-2.00166032300331E-05,1.4122124412097E-05,3.1640625,0,0
-2.40318695432507E-05,1.07548976302496E-05,3.1640625,0,0
-2.3608308765688E-05,8.47138107928913E-06,3.1640625,0,0
-2.47935986408265E-05,1.22392521006986E-05,3.1640625,0,0
-2.24420273298165E-05,1.25696415125276E-05,3.1640625,0,0
-2.00448957912158E-05,1.39705462061102E-05,3.1640625,0,0
-1.9181630705134E-05,1.50206424223143E-05,3.1640625,0,0
-1.90941700566327E-05,9.83893642114708E-06,3.1640625,0,0
-2.09017307497561E-05,6.24884523858782E-06,3.1640625,0,0
-2.07327175303362E-05,9.73119040281745E-06,3.1640625,0,0
-2.26011325139552E-05,1.35268273879774E-05,3.1640625,0,0
-2.23797997023212E-05,1.26530421766802E-05,3.1640625,0,0
-2.37524745898554E-05,1.4154438758851E-05,3.1640625,0,0
-2.18973109440412E-05,1.83456959348405E-05,3.1640625,0,0
-2.23184233618667E-05,2.18707737076329E-05,3.1640625,0,0
-2.22950347961159E-05,2.10530743061099E-05,3.1640625,0,0
-2.46582021645736E-05,2.03228537429823E-05,3.1640625,0,0
-2.49430559051689E-05,2.17516535485629E-05,3.1640625,0,0
-2.49861914198846E-05,2.18742206925526E-05,3.1640625,0,0
-2.37631120398873E-05,1.88201429409673E-05,3.1640625,0,0
-2.41273064602865E-05,1.61811822181335E-05,3.1640625,0,0
-2.5016583094839E-05,1.72973068401916E-05,3.1640625,0,0
-2.51137116720201E-05,1.98119669221342E-05,3.1640625,0,0
-2.05763499252498E-05,1.53635137394303E-05,3.1640625,0,0
-2.84115394606488E-05,2.21524132939521E-05,3.1640625,0,0
-2.114730887115E-05,1.44944124258473E-05,3.1640625,0,0
-2.85004498437047E-05,1.75381410372211E-05,3.1640625,0,0
-2.72132165264338E-05,1.50874093378661E-05,3.1640625,0,0
-3.19901155307889E-05,1.2016780601698E-05,3.1640625,0,0
-2.89729287032969E-05,8.60068576002959E-06,3.1640625,0,0
-2.8517530154204E-05,1.10325800051214E-05,3.1640625,0,0
-2.7585001589614E-05,5.8546770560497E-06,3.1640625,0,0
-2.75798411166761E-05,3.35817412633332E-06,3.1640625,0,0
-2.78108436759794E-05,5.40064456799882E-06,3.1640625,0,0
-2.61275290540652E-05,4.23986375608365E-06,3.1640625,0,0
-2.47986699832836E-05,5.50043932889821E-06,3.1640625,0,0
-2.16950957110384E-05,9.31544491322711E-06,3.1640625,0,0
-2.27511227421928E-05,1.11297858893522E-05,3.1640625,0,0
-2.25163930736016E-05,6.62948059471091E-06,3.1640625,0,0
-2.37223121075658E-05,5.38295262231259E-06,3.1640625,0,0
-2.21847622015048E-05,6.64471144773415E-06,3.1640625,0,0
-2.26145912165521E-05,1.01417244877666E-05,3.1640625,0,0
-2.11308688449208E-05,1.01534060377162E-05,3.1640625,0,0
-2.13408620766131E-05,1.13309988591936E-05,3.1640625,0,0
-2.07544508157298E-05,1.35297095766873E-05,3.1640625,0,0
-2.15713880606927E-05,1.53286164277233E-05,3.1640625,0,0
-2.16609805647749E-05,1.37963452289114E-05,3.1640625,0,0
-2.19685571209993E-05,1.21777738968376E-05,3.1640625,0,0
-2.09101744985674E-05,1.26596796690137E-05,3.1640625,0,0
-1.99435162357986E-05,1.31100396174588E-05,3.1640625,0,0
-1.73165772139328E-05,5.31223577127093E-06,3.1640625,0,0
-2.50753018917749E-05,2.81446295957721E-06,3.1640625,0,0
-2.02815062948503E-05,-4.28772136729094E-06,3.1640625,0,0
-2.46539457293693E-05,9.62298472018119E-08,3.1640625,0,0
-2.03479103220161E-05,5.06931019117474E-06,3.1640625,0,0
-2.28997832891764E-05,3.90271861760993E-06,3.1640625,0,0
-2.19950634345878E-05,1.00731779184571E-06,3.1640625,0,0
-2.26967604248784E-05,7.19510489943787E-06,3.1640625,0,0
-2.10179787245579E-05,7.37870595912682E-06,3.1640625,0,0
-2.04936022782931E-05,8.20308105176082E-06,3.1640625,0,0
-1.99820879061008E-05,1.16363271445152E-05,3.1640625,0,0
-1.84794644155772E-05,1.04450737126172E-05,3.1640625,0,0
-1.92318184417672E-05,9.09438858798239E-06,3.1640625,0,0
-2.02174433070468E-05,9.15677628654521E-06,3.1640625,0,0
-2.37607073358959E-05,7.31262798581156E-06,3.1640625,0,0
-2.48685009864857E-05,3.80103483621497E-06,3.1640625,0,0
-2.6906864150078E-05,3.10539053316461E-06,3.1640625,0,0
-2.62533176282886E-05,1.67740643064462E-06,3.1640625,0,0
-2.70830387307797E-05,3.33472530655854E-06,3.1640625,0,0
-2.64217887888663E-05,7.00481996318558E-06,3.1640625,0,0
-2.75368329312187E-05,1.02846988738747E-05,3.1640625,0,0
-2.81710490526166E-05,1.00130828286638E-05,3.1640625,0,0
-3.0099105060799E-05,9.05184970179107E-06,3.1640625,0,0
-3.04603618133115E-05,6.89868102199398E-06,3.1640625,0,0
-2.888905328291E-05,4.91179116579588E-06,3.1640625,0,0
-2.6465762857697E-05,6.20477521806606E-06,3.1640625,0,0
-2.69628999376437E-05,1.03756046883063E-05,3.1640625,0,0
-2.28714598051738E-05,1.02111580417841E-05,3.1640625,0,0
-3.11954026983585E-05,1.45123449328821E-05,3.1640625,0,0
-2.14788451557979E-05,9.41888083616504E-06,3.1640625,0,0
-2.72667166427709E-05,1.39865305754938E-05,3.1640625,0,0
-2.35607967624674E-05,1.74522210727446E-05,3.1640625,0,0
-2.78819152299548E-05,1.68427231983515E-05,3.1640625,0,0
-2.44073689827928E-05,1.62979449669365E-05,3.1640625,0,0
-2.36246833082987E-05,2.25556141231209E-05,3.1640625,0,0
-2.2325226382236E-05,2.01134371309308E-05,3.1640625,0,0
-2.30377172556473E-05,1.61508141900413E-05,3.1640625,0,0
-2.43453396251425E-05,1.48057069964125E-05,3.1640625,0,0
-2.3965678337845E-05,1.12255656858906E-05,3.1640625,0,0
-2.49814329436049E-05,8.48679337650537E-06,3.1640625,0,0
-2.32343008974567E-05,9.07107005332364E-06,3.1640625,0,0
-2.38749362324597E-05,9.57586144068046E-06,3.1640625,0,0
-2.31109988817479E-05,5.18743718203041E-06,3.1640625,0,0
-2.50243010668783E-05,1.81892664841143E-06,3.1640625,0,0
-2.31011435971595E-05,1.44688999625942E-06,3.1640625,0,0
-2.17017004615627E-05,5.96743302594405E-06,3.1640625,0,0
-1.79376020241762E-05,9.48741853790125E-06,3.1640625,0,0
-1.74156484717969E-05,1.26938857647474E-05,3.1640625,0,0
-1.69089380506193E-05,1.46072834468214E-05,3.1640625,0,0
-1.76086268766085E-05,1.41548280225834E-05,3.1640625,0,0
-1.84183372766711E-05,8.89959119376726E-06,3.1640625,0,0
-2.09962818189524E-05,5.20530647918349E-06,3.1640625,0,0
-2.08140027098125E-05,8.21786579763284E-06,3.1640625,0,0
-1.98634861590108E-05,1.40296206154744E-05,3.1640625,0,0
-1.73186599567998E-05,1.14419772216934E-05,3.1640625,0,0
-2.53368034464074E-05,1.45399917528266E-05,3.1640625,0,0
-1.92721799976425E-05,8.14189206721494E-06,3.1640625,0,0
-2.27571254072245E-05,1.32570776258945E-05,3.1640625,0,0
-1.96703658730257E-05,1.38783261718345E-05,3.1640625,0,0
-2.34878061746713E-05,1.13435080493218E-05,3.1640625,0,0
-2.34288763749646E-05,9.96367725747405E-06,3.1640625,0,0
-2.42480982706184E-05,1.83209358510794E-05,3.1640625,0,0
-2.33402461162768E-05,1.95035372598795E-05,3.1640625,0,0
-2.3080663595465E-05,1.79897415364394E-05,3.1640625,0,0
-2.38786724366946E-05,1.64774883160135E-05,3.1640625,0,0
-2.44759121414972E-05,1.09167895061546E-05,3.1640625,0,0
-2.48531196120894E-05,1.043754764396E-05,3.1640625,0,0
-2.30467048822902E-05,1.54032604768872E-05,3.1640625,0,0
-2.41907600866398E-05,1.69878530869028E-05,3.1640625,0,0
-2.41391189774731E-05,9.86255781754153E-06,3.1640625,0,0
-2.47984698944492E-05,5.4467736845254E-06,3.1640625,0,0
-2.32983020396205E-05,5.67220422453829E-06,3.1640625,0,0
-2.36016803683015E-05,9.02105057321023E-06,3.1640625,0,0
-2.32497695833445E-05,1.02214580692817E-05,3.1640625,0,0
-2.36599280469818E-05,1.13117275759578E-05,3.1640625,0,0
-2.17548276850721E-05,1.12224306576536E-05,3.1640625,0,0
-2.16206171899103E-05,1.30921725940425E-05,3.1640625,0,0
-2.21782374865143E-05,1.43505558298784E-05,3.1640625,0,0
-2.31043177336687E-05,1.46109759953106E-05,3.1640625,0,0
-2.33973987633362E-05,1.28845167637337E-05,3.1640625,0,0
-2.3392754883389E-05,1.20287904792349E-05,3.1640625,0,0
-1.94799376913579E-05,8.57212035043631E-06,3.1640625,0,0
-2.68707899522269E-05,7.98847213445697E-06,3.1640625,0,0
-1.89476759260288E-05,-2.89512786366686E-06,3.1640625,0,0
-2.45583196374355E-05,-6.97096822932508E-07,3.1640625,0,0
-2.34843155340059E-05,3.35422828356968E-06,3.1640625,0,0
-2.85121677734423E-05,4.15305657952558E-06,3.1640625,0,0
-2.65961589320796E-05,3.50308459928783E-06,3.1640625,0,0
-2.66754668700742E-05,6.90055185259553E-06,3.1640625,0,0
-2.58520740317181E-05,3.65319192496827E-06,3.1640625,0,0
-2.67235336650629E-05,2.86179351860483E-06,3.1640625,0,0
-2.65477065113373E-05,5.29667386217625E-06,3.1640625,0,0
-2.58630516327685E-05,5.35029630555073E-06,3.1640625,0,0
-2.90899570245529E-05,7.53155154598062E-06,3.1640625,0,0
-3.08878697978798E-05,1.11097042463371E-05,3.1640625,0,0
-3.24109605571721E-05,1.1398868082324E-05,3.1640625,0,0
-3.00542287732242E-05,6.96789993526181E-06,3.1640625,0,0
-2.99244693451328E-05,5.21905258210609E-06,3.1640625,0,0
-2.84937941614771E-05,5.10308836965123E-06,3.1640625,0,0
-3.0183611670509E-05,7.58347232476808E-06,3.1640625,0,0
-2.98617815133184E-05,1.13735368358903E-05,3.1640625,0,0
-2.94627407129155E-05,1.54691988427658E-05,3.1640625,0,0
-2.75021575362189E-05,1.33206322061596E-05,3.1640625,0,0
-2.79647447314346E-05,9.35830576054286E-06,3.1640625,0,0
-2.82968339888612E-05,8.03606326371664E-06,3.1640625,0,0
-2.83725912595401E-05,9.90798707789509E-06,3.1640625,0,0
-2.81882730632788E-05,1.22465835374896E-05,3.1640625,0,0
-2.95027748506982E-05,1.46272759593558E-05,3.1640625,0,0
-2.46415820583934E-05,1.63392378453864E-05,3.1640625,0,0
-3.5027271223953E-05,2.59775642916793E-05,3.1640625,0,0
-2.66945862676948E-05,1.88057183549972E-05,3.1640625,0,0
-3.32293020619545E-05,2.08262335945619E-05,3.1640625,0,0
-2.8488610041677E-05,1.77899182745023E-05,3.1640625,0,0
-3.21446423185989E-05,1.22584788186941E-05,3.1640625,0,0
-2.92050845018821E-05,9.76730643742485E-06,3.1640625,0,0
-3.03861015709117E-05,1.63336335390341E-05,3.1640625,0,0
-2.87293369183317E-05,1.50219329952961E-05,3.1640625,0,0
-2.74954145424999E-05,1.27475432236679E-05,3.1640625,0,0
-2.63750771409832E-05,1.18629377539037E-05,3.1640625,0,0
-2.45903829636518E-05,6.0049078456359E-06,3.1640625,0,0
-2.56895364145748E-05,3.52313008988858E-06,3.1640625,0,0
-2.45846858888399E-05,5.10818927068613E-06,3.1640625,0,0
-2.53732705459697E-05,6.10652659815969E-06,3.1640625,0,0
-2.20549900404876E-05,1.94469203051995E-06,3.1640625,0,0
-2.10309281101217E-05,2.1388885329543E-07,3.1640625,0,0
-1.85080752999056E-05,5.97367147747718E-07,3.1640625,0,0
-1.98803481907817E-05,4.60729188489495E-06,3.1640625,0,0
-1.93482428585412E-05,7.18741557648173E-06,3.1640625,0,0
-2.07385255635018E-05,8.31318084237864E-06,3.1640625,0,0
-2.04133721126709E-05,6.96828101354185E-06,3.1640625,0,0
-2.04983880394138E-05,8.96366145752836E-06,3.1640625,0,0
-1.96172240976011E-05,1.28493538795738E-05,3.1640625,0,0
-2.05290780286305E-05,1.3601057617052E-05,3.1640625,0,0
-2.16190055652987E-05,1.03535285234102E-05,3.1640625,0,0
-2.23733768507373E-05,5.65434038435342E-06,3.1640625,0,0
-1.81305877049454E-05,5.07538425154053E-06,3.1640625,0,0
-2.51888886850793E-05,1.23820263979724E-05,3.1640625,0,0
-1.83681859198259E-05,1.49008892549318E-05,3.1640625,0,0
-2.27992859436199E-05,1.78195186890662E-05,3.1640625,0,0
-1.90759637916926E-05,1.9857559891534E-05,3.1640625,0,0
-2.11982678592904E-05,1.47423015732784E-05,3.1640625,0,0
-1.85865119419759E-05,1.25274127640296E-05,3.1640625,0,0
-1.95411485037766E-05,1.74756387423258E-05,3.1640625,0,0
-1.98590041691205E-05,1.49423112816294E-05,3.1640625,0,0
-2.1470705178217E-05,1.05772960523609E-05,3.1640625,0,0
-2.32476832024986E-05,1.10589271571371E-05,3.1640625,0,0
-2.47386797127547E-05,1.03051343103289E-05,3.1640625,0,0
-2.76238133665174E-05,9.9319004220888E-06,3.1640625,0,0
-2.72868710453622E-05,9.6414441941306E-06,3.1640625,0,0
-2.67950890702195E-05,6.22480683887261E-06,3.1640625,0,0
-2.43135855271248E-05,7.15695989583764E-07,3.1640625,0,0
-2.53049729508348E-05,-2.56450016422605E-06,3.1640625,0,0
-2.47147199843312E-05,-2.39375231103622E-06,3.1640625,0,0
-2.55971317528747E-05,1.51650851876184E-06,3.1640625,0,0
-2.4930277504609E-05,6.25320353719871E-06,3.1640625,0,0
-2.60556880675722E-05,7.67245091992663E-06,3.1640625,0,0
-2.58561631198972E-05,6.68432312522782E-06,3.1640625,0,0
-2.59399548667716E-05,6.06784578849329E-06,3.1640625,0,0
-2.47303760261275E-05,6.59399302094243E-06,3.1640625,0,0
-2.4281560399686E-05,9.50765206653159E-06,3.1640625,0,0
-2.28705903282389E-05,1.35724940264481E-05,3.1640625,0,0
-2.05192936846288E-05,1.51050817294163E-05,3.1640625,0,0
-1.62206088134553E-05,9.64665377978235E-06,3.1640625,0,0
-2.18235672946321E-05,1.3105251127854E-05,3.1640625,0,0
-1.52232842083322E-05,8.35280843602959E-06,3.1640625,0,0
-2.08679830393521E-05,1.46242218761472E-05,3.1640625,0,0
-1.95406719285529E-05,1.92453335330356E-05,3.1640625,0,0
-2.30045607167995E-05,1.78923601197312E-05,3.1640625,0,0
-2.20651709241793E-05,1.46144002428628E-05,3.1640625,0,0
-2.27628515858669E-05,1.80486022145487E-05,3.1640625,0,0
-2.21019836317282E-05,1.47604650919675E-05,3.1640625,0,0
-2.2744650777895E-05,1.50504301927867E-05,3.1640625,0,0
-2.32945312745869E-05,1.83722095243866E-05,3.1640625,0,0
-2.20214260480134E-05,1.65095098054735E-05,3.1640625,0,0
-2.18045879591955E-05,1.67909238371067E-05,3.1640625,0,0
-2.06508775590919E-05,2.07229786610696E-05,3.1640625,0,0
-2.16955377254635E-05,2.04280731850304E-05,3.1640625,0,0
-2.15480922634015E-05,1.24106336443219E-05,3.1640625,0,0
-2.32955972023774E-05,7.77429158915766E-06,3.1640625,0,0
-2.27069067477714E-05,7.47592093830463E-06,3.1640625,0,0
-2.30816876864992E-05,9.0296525740996E-06,3.1640625,0,0
-2.22933776967693E-05,5.8833534239966E-06,3.1640625,0,0
-2.27541513595497E-05,1.75176569428004E-06,3.1640625,0,0
-2.12626619031653E-05,-1.59468572746846E-06,3.1640625,0,0
-2.06926633836702E-05,-3.06868855659559E-06,3.1640625,0,0
-2.12430422834586E-05,-2.7485882583278E-06,3.1640625,0,0
-2.42001478909515E-05,2.40399890572007E-06,3.1640625,0,0
-2.52736372203799E-05,8.80721472640289E-06,3.1640625,0,0
-2.32812799367821E-05,9.41497637541033E-06,3.1640625,0,0
-1.55223988258513E-05,2.59830108007009E-06,3.1640625,0,0
-2.17996239371132E-05,5.11216796894587E-07,3.1640625,0,0
-1.7819125787355E-05,-4.80811695524608E-06,3.1640625,0,0
-2.29537090490339E-05,-2.93872108159121E-06,3.1640625,0,0
-1.77201236510882E-05,-2.18457444134401E-06,3.1640625,0,0
-1.80730803549523E-05,-5.03091132486588E-06,3.1640625,0,0
-1.57184149429668E-05,-1.25160988773132E-06,3.1640625,0,0
-1.78659847733798E-05,8.69635823619319E-06,3.1640625,0,0
-1.97252575162565E-05,1.01879104477121E-05,3.1640625,0,0
-2.15233994822484E-05,1.12100888145505E-05,3.1640625,0,0
-2.18563745875144E-05,1.51690710481489E-05,3.1640625,0,0
-2.10527687158901E-05,1.35502941702725E-05,3.1640625,0,0
-2.22095968638314E-05,1.10239707282744E-05,3.1640625,0,0
-2.19763333006995E-05,1.29585087051964E-05,3.1640625,0,0
-2.4352044420084E-05,1.49267716551549E-05,3.1640625,0,0
-2.51001765718684E-05,1.41751752380515E-05,3.1640625,0,0
-2.58940381172579E-05,1.38666528073372E-05,3.1640625,0,0
-2.40222980210092E-05,1.22911151265725E-05,3.1640625,0,0
-2.51268647843972E-05,8.96218443813268E-06,3.1640625,0,0
-2.62807807303034E-05,5.06142805534182E-06,3.1640625,0,0
-2.83831304841442E-05,4.25760526923114E-06,3.1640625,0,0
-2.80201657005819E-05,5.90683157497551E-06,3.1640625,0,0
-2.71915232588071E-05,7.37032905817614E-06,3.1640625,0,0
-2.55004833888961E-05,9.26753727981122E-06,3.1640625,0,0
-2.41574871324701E-05,1.29555173771223E-05,3.1640625,0,0
-2.36881587625248E-05,1.6584652257734E-05,3.1640625,0,0
-2.49552194873104E-05,1.85801691259258E-05,3.1640625,0,0
-2.17797569348477E-05,1.34447900563828E-05,3.1640625,0,0
-3.17547091981396E-05,1.78785467142006E-05,3.1640625,0,0
-2.48673040914582E-05,1.05051231003017E-05,3.1640625,0,0
-2.94910114462255E-05,1.77585425262805E-05,3.1640625,0,0
-2.33282735280227E-05,2.08130295504816E-05,3.1640625,0,0
-2.66546176135307E-05,1.83573283720762E-05,3.1640625,0,0
-2.60297401837306E-05,1.28140472952509E-05,3.1640625,0,0
-2.70195996563416E-05,1.50114647112787E-05,3.1640625,0,0
-2.54990591201931E-05,1.35928376039374E-05,3.1640625,0,0
-2.54430033237441E-05,1.79958187800366E-05,3.1640625,0,0
-2.61317545664497E-05,2.50615739787463E-05,3.1640625,0,0
-2.49674303631764E-05,2.28096814680612E-05,3.1640625,0,0
-2.41633370023919E-05,1.98719790205359E-05,3.1640625,0,0
-2.12455743167084E-05,2.03438248718157E-05,3.1640625,0,0
-2.08060464501614E-05,2.14431875065202E-05,3.1640625,0,0
-1.87561236089095E-05,1.81635477929376E-05,3.1640625,0,0
-2.04455463972408E-05,1.63837958098156E-05,3.1640625,0,0
-2.09649097087095E-05,1.40575284603983E-05,3.1640625,0,0
-2.3345466615865E-05,1.25435153677245E-05,3.1640625,0,0
-2.38650136452634E-05,8.30564658826916E-06,3.1640625,0,0
-2.59443095274037E-05,4.98626332046115E-06,3.1640625,0,0
-2.57030751527054E-05,4.05876744480338E-06,3.1640625,0,0
-2.55430368270027E-05,7.78601315687411E-06,3.1640625,0,0
-2.52368990913965E-05,1.09558295662282E-05,3.1640625,0,0
-2.67629911832046E-05,1.14796866910183E-05,3.1640625,0,0
-2.7356209102436E-05,9.94598485704046E-06,3.1640625,0,0
-2.6275649361196E-05,9.09726077225059E-06,3.1640625,0,0
-1.85294848051853E-05,1.02287876870832E-05,3.1640625,0,0
-2.51231704169186E-05,1.50177620525938E-05,3.1640625,0,0
-1.86030920303892E-05,9.44578550843289E-06,3.1640625,0,0
-2.42317564698169E-05,1.11219742393587E-05,3.1640625,0,0
-1.96971996047068E-05,8.16048395790858E-06,3.1640625,0,0
-2.21676091314293E-05,2.04149660021358E-06,3.1640625,0,0
-2.1193163775024E-05,8.22425533897331E-07,3.1640625,0,0
-2.37221483985195E-05,7.23104903954663E-06,3.1640625,0,0
-2.28429817070719E-05,7.62660192776821E-06,3.1640625,0,0
-2.14512110687792E-05,7.69354664953426E-06,3.1640625,0,0
-2.15540876524756E-05,8.44335136207519E-06,3.1640625,0,0
-2.26247211685404E-05,4.77959474665113E-06,3.1640625,0,0
-2.44736838794779E-05,2.98828626910108E-06,3.1640625,0,0
-2.21936388697941E-05,4.09038921134197E-06,3.1640625,0,0
-2.1515203115996E-05,5.30714441993041E-06,3.1640625,0,0
-2.02192859433126E-05,6.88403633830603E-06,3.1640625,0,0
-2.16625685425242E-05,1.38016330311075E-05,3.1640625,0,0
-2.09286245080875E-05,1.87714431376662E-05,3.1640625,0,0
-2.15093332371907E-05,1.81315972440643E-05,3.1640625,0,0
-1.9857126972056E-05,1.38301247716299E-05,3.1640625,0,0
-2.05560208996758E-05,1.2173664799775E-05,3.1640625,0,0
-2.17835568037117E-05,1.19804790301714E-05,3.1640625,0,0
-2.4572746042395E-05,1.2558072739921E-05,3.1640625,0,0
-2.61026652879082E-05,1.15447155621951E-05,3.1640625,0,0
-2.79010782833211E-05,1.00394854598562E-05,3.1640625,0,0
-2.71843291557161E-05,1.04864257082227E-05,3.1640625,0,0
-2.59574535448337E-05,1.3601307728095E-05,3.1640625,0,0
-2.15168074646499E-05,1.1704542885127E-05,3.1640625,0,0
-3.08324524667114E-05,1.71742067323066E-05,3.1640625,0,0
-2.35646621149499E-05,1.36933213070733E-05,3.1640625,0,0
-2.93538087134948E-05,2.00530867005E-05,3.1640625,0,0
-2.49071872531204E-05,1.97149674932007E-05,3.1640625,0,0
-2.58247637248132E-05,1.54275858221808E-05,3.1640625,0,0
-2.13736275327392E-05,1.18572697829222E-05,3.1640625,0,0
-2.16041898966068E-05,1.49815841723466E-05,3.1640625,0,0
-2.03173058253014E-05,1.36756498250179E-05,3.8671875,0,0
-2.02397895918693E-05,1.49907364175306E-05,3.8671875,0,0
-2.09136633202434E-05,1.71462870639516E-05,3.8671875,0,0
-2.04357183974935E-05,1.30773078126367E-05,3.8671875,0,0
-2.12782470043749E-05,9.5091954790405E-06,3.8671875,0,0
-2.14273295569001E-05,8.46952571009751E-06,3.8671875,0,0
-2.49991953751305E-05,7.02717898093397E-06,3.8671875,0,0
-2.56167168117827E-05,1.65829931120243E-06,3.8671875,0,0
-2.63931087829405E-05,-1.87664022632816E-06,3.8671875,0,0
-2.38456941588083E-05,-2.19218804886623E-06,3.8671875,0,0
-2.45538267336087E-05,2.86919566860888E-06,3.8671875,0,0
-2.53629896178609E-05,5.5330879149551E-06,3.8671875,0,0
-2.74856793112122E-05,5.68693212699145E-06,3.8671875,0,0
-2.58141189988237E-05,4.96538405059255E-06,3.8671875,0,0
-2.48416508839E-05,6.01573856329196E-06,3.8671875,0,0
-2.50616903940681E-05,8.02462636784185E-06,3.8671875,0,0
-2.62690282397671E-05,9.77798299572896E-06,3.8671875,0,0
-2.52243007707875E-05,9.29739962884923E-06,3.8671875,0,0
-2.30074492719723E-05,9.74993326963158E-06,3.8671875,0,0
-1.70484763657441E-05,7.76828710513655E-06,3.8671875,0,0
-2.33699411182897E-05,1.06287579910713E-05,3.8671875,0,0
-1.68148180819117E-05,7.33434217181639E-06,3.8671875,0,0
-2.2723321308149E-05,1.52078209794126E-05,3.8671875,0,0
-2.18299446714809E-05,2.01504390133778E-05,3.8671875,0,0
-2.44902366830502E-05,1.55108009494143E-05,3.8671875,0,0
-2.11044298339402E-05,1.09230231828406E-05,3.8671875,0,0
-2.09509307751432E-05,1.48189128594822E-05,3.8671875,0,0
-2.07588018383831E-05,1.34054571390152E-05,3.8671875,0,0
-2.14813899219735E-05,1.34887977765175E-05,3.8671875,0,0
-2.12426821235567E-05,1.72445161297219E-05,3.8671875,0,0
-2.00574540940579E-05,1.61962743732147E-05,3.8671875,0,0
-2.1480116629391E-05,1.52949542098213E-05,3.8671875,0,0
-2.28784738283139E-05,1.64762695931131E-05,3.8671875,0,0
-2.68662388407392E-05,1.56747901201015E-05,3.8671875,0,0
-2.80268814094597E-05,1.19298601930495E-05,3.8671875,0,0
-2.89582276309375E-05,1.13657406473067E-05,3.8671875,0,0
-2.73610239673872E-05,1.00161842055968E-05,3.8671875,0,0
-2.83395984297385E-05,7.29772636987036E-06,3.8671875,0,0
-2.79890518868342E-05,5.29120052306098E-06,3.8671875,0,0
-2.83200533885974E-05,5.19883496963303E-06,3.8671875,0,0
-2.73843379545724E-05,3.47588343174721E-06,3.8671875,0,0
-2.84456709778169E-05,2.7698526992026E-06,3.8671875,0,0
-2.8743446819135E-05,4.19788466388127E-06,3.8671875,0,0
-2.82414566754596E-05,5.84458939556498E-06,3.8671875,0,0
-2.75838356174063E-05,6.41722772343201E-06,3.8671875,0,0
-2.75961647275835E-05,6.92996354700881E-06,3.8671875,0,0
-2.27288674068404E-05,6.40198413748294E-06,3.8671875,0,0
-3.28508322127163E-05,1.02760805020807E-05,3.8671875,0,0
-2.42475780396489E-05,9.41132566367742E-06,3.8671875,0,0
-2.78667921520537E-05,1.42651379064773E-05,3.8671875,0,0
-2.29297838814091E-05,1.62459218699951E-05,3.8671875,0,0
-2.79233372566523E-05,1.23764839372598E-05,3.8671875,0,0
-2.69387983280467E-05,9.29954967432423E-06,3.8671875,0,0
-2.83070348814363E-05,1.14280819616397E-05,3.8671875,0,0
-2.6931993488688E-05,8.02733939053724E-06,3.8671875,0,0
-2.62056109932018E-05,8.978764526546E-06,3.8671875,0,0
-2.68106523435563E-05,1.26636568893446E-05,3.8671875,0,0
-2.69532520178473E-05,1.00144516181899E-05,3.8671875,0,0
-2.83539538941113E-05,9.27037581277546E-06,3.8671875,0,0
-2.70360487775179E-05,1.29524878502707E-05,3.8671875,0,0
-2.70440305030206E-05,1.43119914355339E-05,3.8671875,0,0
-2.49969871219946E-05,1.06867400972988E-05,3.8671875,0,0
-2.5735378585523E-05,7.82894312578719E-06,3.8671875,0,0
-2.29625748033868E-05,7.28947225070442E-06,3.8671875,0,0
-2.24065188376699E-05,8.49686693982221E-06,3.8671875,0,0
-2.20994352275738E-05,6.55530993753928E-06,3.8671875,0,0
-2.38695956795709E-05,4.62507023257785E-06,3.8671875,0,0
-2.26312531594886E-05,5.40873998033931E-06,3.8671875,0,0
-2.24840150622185E-05,8.1197595136473E-06,3.8671875,0,0
-2.25392050197115E-05,9.69758821156574E-06,3.8671875,0,0
-2.36601808865089E-05,9.80890490609454E-06,3.8671875,0,0
-2.33838127314812E-05,8.73683438840089E-06,3.8671875,0,0
-2.29437737289118E-05,8.40810389490798E-06,3.8671875,0,0
-1.86694942385657E-05,8.31502620712854E-06,3.8671875,0,0
-2.67574414465344E-05,1.28441506603849E-05,3.8671875,0,0
-2.18698423850583E-05,7.75370608607773E-06,3.8671875,0,0
-2.71991048066411E-05,9.44784460443771E-06,3.8671875,0,0
-2.22811941057444E-05,1.3825592759531E-05,3.8671875,0,0
-2.45697392529109E-05,1.29403897517477E-05,3.8671875,0,0
-2.25753155973507E-05,7.77368404669687E-06,3.8671875,0,0
-2.3344213332166E-05,8.36934304970782E-06,3.8671875,0,0
-2.24751165660564E-05,7.53524454921717E-06,3.8671875,0,0
-2.29801426030463E-05,1.16210485430202E-05,3.8671875,0,0
-2.37488202401437E-05,1.72424824995687E-05,3.8671875,0,0
-2.34663712035399E-05,1.5478462955798E-05,3.8671875,0,0
-2.43811409745831E-05,1.39778021548409E-05,3.8671875,0,0
-2.26894135266775E-05,1.71992651303299E-05,3.8671875,0,0
-2.2545080355485E-05,2.04002662940184E-05,3.8671875,0,0
-2.07139528356493E-05,1.84589189302642E-05,3.8671875,0,0
-2.14039719139691E-05,1.46553866215982E-05,3.8671875,0,0
-2.10321559279691E-05,9.15237251319923E-06,3.8671875,0,0
-2.37151853070827E-05,5.31518844582024E-06,3.8671875,0,0
-2.42663463723147E-05,6.10793767918949E-06,3.8671875,0,0
-2.4763246983639E-05,1.26598233691766E-05,3.8671875,0,0
-2.39038545259973E-05,1.73028074641479E-05,3.8671875,0,0
-2.41540346905822E-05,1.61375028255861E-05,3.8671875,0,0
-2.37439253396587E-05,1.03671818578732E-05,3.8671875,0,0
-2.49558179348242E-05,8.22447418613592E-06,3.8671875,0,0
-2.44985076278681E-05,1.1488046766317E-05,3.8671875,0,0
-2.25293297262397E-05,1.4181114238454E-05,3.8671875,0,0
-1.7857673810795E-05,1.17142635644996E-05,3.8671875,0,0
-2.61170025623869E-05,1.67672806128394E-05,3.8671875,0,0
-2.09945628739661E-05,8.83257234818302E-06,3.8671875,0,0
-2.49524910032051E-05,1.06243787740823E-05,3.8671875,0,0
-2.04657608264824E-05,1.2323330338404E-05,3.8671875,0,0
-2.32184702326776E-05,9.32471357373288E-06,3.8671875,0,0
-2.2102365619503E-05,2.41264660871821E-06,3.8671875,0,0
-2.25818494072882E-05,3.46308024745667E-06,3.8671875,0,0
-2.06592230824754E-05,1.84394991720183E-06,3.8671875,0,0
-2.04268890229287E-05,1.03943000340223E-06,3.8671875,0,0
-2.07082775887102E-05,2.65843254965148E-06,3.8671875,0,0
-1.95487355085788E-05,1.83140070930676E-06,3.8671875,0,0
-1.9663448256324E-05,4.36581512985867E-06,3.8671875,0,0
-1.8994383935933E-05,8.43281668494456E-06,3.8671875,0,0
-2.02876926778117E-05,9.7214178822469E-06,3.8671875,0,0
-1.79372673301259E-05,7.46744763091556E-06,3.8671875,0,0
-1.7374441085849E-05,8.75404839462135E-06,3.8671875,0,0
-1.74670494743623E-05,1.04887585621327E-05,3.8671875,0,0
-2.11828555620741E-05,1.23413501569303E-05,3.8671875,0,0
-2.21907284867484E-05,1.43038614623947E-05,3.8671875,0,0
-2.25364656216698E-05,1.73115422512637E-05,3.8671875,0,0
-2.14952142414404E-05,1.75992972799577E-05,3.8671875,0,0
-2.23667229874991E-05,1.76707144419197E-05,3.8671875,0,0
-2.37038329942152E-05,1.88305002666311E-05,3.8671875,0,0
-2.64004702330567E-05,2.01056427613366E-05,3.8671875,0,0
-2.86232916550944E-05,1.79960807145108E-05,3.8671875,0,0
-3.02162661682814E-05,1.70020957739325E-05,3.8671875,0,0
-2.43593822233379E-05,1.66046756930882E-05,3.8671875,0,0
-3.29405884258449E-05,2.76911832770566E-05,3.8671875,0,0
-2.15042982745217E-05,2.36514297284884E-05,3.8671875,0,0
-2.70974269369617E-05,2.88572937279241E-05,3.8671875,0,0
-2.41816687776009E-05,2.87690236291382E-05,3.8671875,0,0
-3.00517476716777E-05,2.47744173975661E-05,3.8671875,0,0
-2.87183902401011E-05,1.88335034181364E-05,3.8671875,0,0
-3.01432628475595E-05,2.08409546758048E-05,3.8671875,0,0
-2.72803445113823E-05,1.82550393219572E-05,3.8671875,0,0
-2.51951423706487E-05,1.6994335965137E-05,3.8671875,0,0
-2.47096322709695E-05,1.66292320500361E-05,3.8671875,0,0
-2.41218695009593E-05,1.20228423838853E-05,3.8671875,0,0
-2.56487473961897E-05,1.05323615571251E-05,3.8671875,0,0
-2.4626615413581E-05,1.01057530628168E-05,3.8671875,0,0
-2.59915050264681E-05,9.11725783225847E-06,3.8671875,0,0
-2.45166665990837E-05,6.3847764977254E-06,3.8671875,0,0
-2.4705284886295E-05,7.42647989682155E-06,3.8671875,0,0
-2.19067733269185E-05,7.99807003204478E-06,3.8671875,0,0
-2.23522783926455E-05,7.49290757084964E-06,3.8671875,0,0
-2.05620508495485E-05,5.10668087372324E-06,3.8671875,0,0
-2.05998658202589E-05,8.28931661089882E-06,3.8671875,0,0
-2.02764585992554E-05,1.30113703562529E-05,3.8671875,0,0
-2.14249612326967E-05,1.47055161505705E-05,3.8671875,0,0
-2.07472294277977E-05,1.13196274469374E-05,3.8671875,0,0
-2.07764842343749E-05,6.96597589922021E-06,3.8671875,0,0
-2.03396502911346E-05,6.76000490784645E-06,3.8671875,0,0
-2.1123310943949E-05,1.02300655271392E-05,3.8671875,0,0
-1.95051434275229E-05,1.13183632493019E-05,3.8671875,0,0
-3.01342970487894E-05,1.80149345396785E-05,3.8671875,0,0
-2.589317773527E-05,1.24670877994504E-05,3.8671875,0,0
-2.85736259684199E-05,1.27752973639872E-05,3.8671875,0,0
-2.1371151888161E-05,1.25588067021454E-05,3.8671875,0,0
-2.15864456549753E-05,1.16667733891518E-05,3.8671875,0,0
-1.73860134964343E-05,1.00909801403759E-05,3.8671875,0,0
-1.73755306605017E-05,1.05723438537098E-05,3.8671875,0,0
-1.80390543391695E-05,4.34868388765608E-06,3.8671875,0,0
-1.93030446098419E-05,1.93599953490775E-06,3.8671875,0,0
-1.99506612261757E-05,3.34821243086481E-06,3.8671875,0,0
-1.92998395505128E-05,9.43178633860953E-07,3.8671875,0,0
-1.95165557670407E-05,1.04945115708688E-06,3.8671875,0,0
-1.81518280442106E-05,5.21958736499073E-06,3.8671875,0,0
-1.9398297808948E-05,5.61012302568997E-06,3.8671875,0,0
-1.8902439478552E-05,-8.78905836998456E-07,3.8671875,0,0
-2.00717640836956E-05,-4.96551820106106E-06,3.8671875,0,0
-1.98323414224433E-05,-6.06259845881141E-06,3.8671875,0,0
-2.31696649279911E-05,-4.57523765362566E-06,3.8671875,0,0
-2.49020104092779E-05,-4.26528913521906E-06,3.8671875,0,0
-2.6811308998731E-05,-2.41905513576057E-06,3.8671875,0,0
-2.74555695796153E-05,2.03933282705293E-07,3.8671875,0,0
-2.99584280583076E-05,2.39377482103009E-06,3.8671875,0,0
-3.2255491532851E-05,1.16942419481347E-06,3.8671875,0,0
-3.38250029017217E-05,-7.26019152352819E-07,3.8671875,0,0
-3.28192581946496E-05,-3.46145441199042E-07,3.8671875,0,0
-3.11301228066441E-05,3.37740789291274E-06,3.8671875,0,0
-2.35423849517247E-05,9.15170403459342E-06,3.8671875,0,0
-3.11222320306115E-05,1.7138878320111E-05,3.8671875,0,0
-2.09301542781759E-05,1.24843900266569E-05,3.8671875,0,0
-2.71331482508685E-05,1.06800534922513E-05,3.8671875,0,0
-2.1292878955137E-05,1.09649927253486E-05,3.8671875,0,0
-2.39430810324848E-05,1.12065245048143E-05,3.8671875,0,0
-2.19818994082743E-05,1.65648925758433E-05,3.8671875,0,0
-2.52928275585873E-05,2.17700453504222E-05,3.8671875,0,0
-2.61261684499914E-05,1.57892300194362E-05,3.8671875,0,0
-2.60939941654215E-05,1.1546856512723E-05,3.8671875,0,0
-2.41626294155139E-05,1.4173169802234E-05,3.8671875,0,0
-2.16389598790556E-05,1.50561081682099E-05,3.8671875,0,0
-2.16648895730032E-05,1.65637084137416E-05,3.8671875,0,0
-2.04304833459901E-05,2.04068692255532E-05,3.8671875,0,0
-2.27808795898454E-05,2.19946887227707E-05,3.8671875,0,0
-2.26077245315537E-05,1.6751673683757E-05,3.8671875,0,0
-2.5750550776138E-05,9.75063812802546E-06,3.8671875,0,0
-2.65864346147282E-05,6.6584043452167E-06,3.8671875,0,0
-2.82687706203433E-05,9.85894166660728E-06,3.8671875,0,0
-2.62594730884302E-05,1.53398232214386E-05,3.8671875,0,0
-2.70192449534079E-05,1.88986196008045E-05,3.8671875,0,0
-2.58427717199083E-05,1.78945610969095E-05,3.8671875,0,0
-2.47468087763991E-05,1.70850235008402E-05,3.8671875,0,0
-2.36586110986536E-05,1.73316639120458E-05,3.8671875,0,0
-2.36441737797577E-05,1.50629657582613E-05,3.8671875,0,0
-2.08010715141427E-05,1.26314607769018E-05,3.8671875,0,0
-1.83774973265827E-05,1.19490214274265E-05,3.8671875,0,0
-1.39249978019507E-05,8.97254176379647E-06,3.8671875,0,0
-1.86486067832448E-05,1.21281191240996E-05,3.8671875,0,0
-1.24150474221096E-05,6.48836748950998E-06,3.8671875,0,0
-1.45792682815227E-05,1.10233331724885E-05,3.8671875,0,0
-1.04586342786206E-05,1.2129346941947E-05,3.8671875,0,0
-1.22313304018462E-05,7.3910318860726E-06,3.8671875,0,0
-1.20608410725254E-05,6.00050316279521E-06,3.8671875,0,0
-1.38771574711427E-05,1.26030736282701E-05,3.8671875,0,0
-1.34319097924163E-05,1.28491346913506E-05,3.8671875,0,0
-1.36714315885911E-05,1.37580864247866E-05,3.8671875,0,0
-1.4182599443302E-05,1.67228554346366E-05,3.8671875,0,0
-1.482669631514E-05,1.43408460644423E-05,3.8671875,0,0
-1.76577887032181E-05,1.05623885247041E-05,3.8671875,0,0
-1.97146910068113E-05,1.02726253317087E-05,3.8671875,0,0
-2.25545500143198E-05,1.30180342239328E-05,3.8671875,0,0
-2.31873364100466E-05,1.50499117808067E-05,3.8671875,0,0
-2.55693430517567E-05,1.75919685716508E-05,3.8671875,0,0
-2.62498633674113E-05,1.68731530720834E-05,3.8671875,0,0
-2.76622522505932E-05,1.39077219500905E-05,3.8671875,0,0
-2.73348559858277E-05,1.02090207292349E-05,3.8671875,0,0
-2.90380048681982E-05,9.39040455705253E-06,3.8671875,0,0
-3.07638656522613E-05,8.55246616993099E-06,3.8671875,0,0
-3.23378008033615E-05,6.2481453824148E-06,3.8671875,0,0
-3.17447011184413E-05,3.8312914512062E-06,3.8671875,0,0
-3.01407690130873E-05,6.23891673967591E-06,3.8671875,0,0
-2.79065552604152E-05,1.01555015135091E-05,3.8671875,0,0
-2.86813465208979E-05,9.70497694652295E-06,3.8671875,0,0
-2.4487459086231E-05,3.68436349162948E-06,3.8671875,0,0
-3.41938502970152E-05,2.85125906884787E-06,3.8671875,0,0
-2.50697012234014E-05,-2.73876298706455E-06,3.8671875,0,0
-3.18010424962267E-05,-1.18887214739516E-06,3.8671875,0,0
-2.70599084615242E-05,1.10486917037633E-06,3.8671875,0,0
-3.08173657685984E-05,-1.64780760769645E-06,3.8671875,0,0
-2.71315730060451E-05,-1.84680857273634E-06,3.8671875,0,0
-2.65333219431341E-05,4.7400280891452E-06,3.8671875,0,0
-2.47623775067041E-05,3.53144719156262E-06,3.8671875,0,0
-2.5016555809998E-05,2.77141452897922E-06,3.8671875,0,0
-2.62938792729983E-05,6.47377100904123E-06,3.8671875,0,0
-2.57164283539169E-05,5.20944877280272E-06,3.8671875,0,0
-2.67413197434507E-05,4.13968564316747E-06,3.8671875,0,0
-2.61412824329454E-05,8.8027582023642E-06,3.8671875,0,0
-2.78803017863538E-05,1.3332030903257E-05,3.8671875,0,0
-2.60753040493E-05,1.31019151012879E-05,3.8671875,0,0
-2.64486843661871E-05,1.22609608297353E-05,3.8671875,0,0
-2.36501145991497E-05,1.16625578812091E-05,7.20703125,0,0
-2.22615944949212E-05,1.25332499010256E-05,7.20703125,0,0
-1.91005692613544E-05,1.38491486723069E-05,7.20703125,0,0
-1.92733186850091E-05,1.50446394400205E-05,7.20703125,0,0
-1.85120861715404E-05,1.443964720238E-05,7.20703125,0,0
-1.98339130292879E-05,1.43744373417576E-05,7.20703125,0,0
-2.09394529520068E-05,1.37929282573168E-05,7.20703125,0,0
-2.17659398913383E-05,1.13114383566426E-05,7.20703125,0,0
-2.15659783862066E-05,9.64101946010487E-06,7.20703125,0,0
-2.10747621167684E-05,9.50575213209959E-06,7.20703125,0,0
-1.59582905325806E-05,9.11278675630456E-06,7.20703125,0,0
-2.31398771575186E-05,1.7183336240123E-05,7.20703125,0,0
-2.03229028556962E-05,1.76245594047941E-05,7.20703125,0,0
-2.56931089097634E-05,2.13784824154573E-05,7.20703125,0,0
-2.09518257179298E-05,2.05635078600608E-05,7.20703125,0,0
-2.29270845011342E-05,1.73152257048059E-05,7.20703125,0,0
-2.27703148993896E-05,1.65324254339794E-05,7.20703125,0,0
-2.52585450652987E-05,1.72781783476239E-05,7.20703125,0,0
-2.41584657487692E-05,1.16164092105464E-05,7.20703125,0,0
-2.32741149375215E-05,1.0300568646926E-05,7.20703125,0,0
-2.34849048865726E-05,1.2786200386472E-05,7.20703125,0,0
-2.30780460697133E-05,1.14561216832954E-05,7.20703125,0,0
-2.32979873544537E-05,9.77420313574839E-06,7.20703125,0,0
-2.14960491575766E-05,1.06144434539601E-05,7.20703125,0,0
-2.22527869482292E-05,9.3733533503837E-06,7.20703125,0,0
-2.20024230657145E-05,5.80290270590922E-06,7.20703125,0,0
-2.41759844357148E-05,7.64748710935237E-06,7.20703125,0,0
-2.45374903897755E-05,1.1872290087922E-05,7.20703125,0,0
-2.61928926192923E-05,1.39281955853221E-05,7.20703125,0,0
-2.61767418123782E-05,1.28305637190351E-05,7.20703125,0,0
-2.72469496849226E-05,1.21925813800772E-05,7.20703125,0,0
-2.66948154603597E-05,1.0144617590413E-05,7.20703125,0,0
-2.66360311798053E-05,1.10129712993512E-05,7.20703125,0,0
-2.7611704354058E-05,1.4886533790559E-05,7.20703125,0,0
-2.98449958791025E-05,1.97175013454398E-05,7.20703125,0,0
-2.99433831969509E-05,2.1835006918991E-05,7.20703125,0,0
-2.78526567853987E-05,1.89805396075826E-05,7.20703125,0,0
-2.15173567994498E-05,1.14148342618137E-05,7.20703125,0,0
-3.09636416204739E-05,1.56205587700242E-05,7.20703125,0,0
-2.46414383582305E-05,1.21706862046267E-05,7.20703125,0,0
-3.00950086966623E-05,1.87423120223684E-05,7.20703125,0,0
-2.44493185164174E-05,1.45429239637451E-05,7.20703125,0,0
-2.57344599958742E-05,5.86616897635395E-06,7.20703125,0,0
-2.22121961996891E-05,2.35114475799492E-06,7.20703125,0,0
-2.43643207795685E-05,9.72866564552533E-06,7.20703125,0,0
-2.45798510150053E-05,1.01644627648056E-05,7.20703125,0,0
-2.45743831328582E-05,8.55171037983382E-06,7.20703125,0,0
-2.33771170314867E-05,6.34355410511489E-06,7.20703125,0,0
-2.02382725547068E-05,2.05881337933533E-06,7.20703125,0,0
-1.9359136786079E-05,5.0877824833151E-06,7.20703125,0,0
-1.82859876076691E-05,1.2666449038079E-05,7.20703125,0,0
-2.08198762265965E-05,1.53335549839539E-05,7.20703125,0,0
-2.05794949579285E-05,8.63569130160613E-06,7.20703125,0,0
-2.13594794331584E-05,2.20284664464998E-06,7.20703125,0,0
-1.90111823030747E-05,-2.81983898275939E-06,7.20703125,0,0
-2.00122831301996E-05,-2.21861182581051E-06,7.20703125,0,0
-2.06883105420275E-05,-3.73256085595131E-07,7.20703125,0,0
-2.35153493122198E-05,6.85146574141982E-07,7.20703125,0,0
-2.40749923250405E-05,-1.58040307951524E-07,7.20703125,0,0
-2.46828985837055E-05,-6.69949429266126E-07,7.20703125,0,0
-2.32703168876469E-05,-2.26937413572159E-06,7.20703125,0,0
-2.2807544155512E-05,-2.69304405264847E-06,7.20703125,0,0
-2.38579777942505E-05,-6.60863861412508E-07,7.20703125,0,0
-2.66012739302823E-05,1.68714723258745E-06,7.20703125,0,0
-2.2600694137509E-05,1.67156201769103E-06,7.20703125,0,0
-3.04132372548338E-05,3.99481359636411E-06,7.20703125,0,0
-1.93456216948107E-05,4.0333102333534E-06,7.20703125,0,0
-2.35931165661896E-05,7.14211637387052E-06,7.20703125,0,0
-1.91109502338804E-05,1.12781553980312E-05,7.20703125,0,0
-2.39999699260807E-05,6.71685529596289E-06,7.20703125,0,0
-2.366371518292E-05,6.82277914165752E-06,7.20703125,0,0
-2.6112220439245E-05,1.28361771203345E-05,7.20703125,0,0
-2.59997050306993E-05,1.04020282378769E-05,7.20703125,0,0
-2.54279912041966E-05,7.08802917870344E-06,7.20703125,0,0
-2.49264576268615E-05,9.30247279029572E-06,7.20703125,0,0
-2.39134787989315E-05,1.29984464365407E-05,7.20703125,0,0
-2.48601681960281E-05,1.7563468645676E-05,7.20703125,0,0
-2.41821835516021E-05,2.28550288738916E-05,7.20703125,0,0
-2.71249427896691E-05,2.30236819334095E-05,7.20703125,0,0
-2.83028093690518E-05,1.83967404154828E-05,7.20703125,0,0
-3.06770925817546E-05,1.5298825019272E-05,7.20703125,0,0
-2.93624834739603E-05,1.58496204676339E-05,7.20703125,0,0
-2.97165734082228E-05,1.90086848306237E-05,7.20703125,0,0
-2.85675123450346E-05,2.27818309213035E-05,7.20703125,0,0
-2.90783973468933E-05,2.41091456700815E-05,7.20703125,0,0
-2.69654865405755E-05,2.21734389924677E-05,7.20703125,0,0
-2.65765211224789E-05,1.77457804966252E-05,7.20703125,0,0
-2.78835686913226E-05,9.05015622265637E-06,7.20703125,0,0
-3.04018158203689E-05,8.97138704658573E-07,7.20703125,0,0
-3.06798719975632E-05,-5.36482616553258E-07,7.20703125,0,0
-3.00991832773434E-05,2.64957770923502E-06,7.20703125,0,0
-2.42448495555436E-05,5.17085845785914E-06,7.20703125,0,0
-3.45664557244163E-05,7.35341791369137E-06,7.20703125,0,0
-2.59483476838795E-05,1.68430290159449E-06,7.20703125,0,0
-3.03621200146154E-05,-1.54774647853628E-06,7.20703125,0,0
-2.45283736148849E-05,-3.79963739760569E-06,7.20703125,0,0
-2.94959772872971E-05,-4.18720128436689E-06,7.20703125,0,0
-2.80750446108868E-05,-8.28215831916168E-07,7.20703125,0,0
-3.00318806694122E-05,4.96018265039311E-06,7.20703125,0,0
-2.87948496406898E-05,3.71852593161748E-06,7.20703125,0,0
-2.54438964475412E-05,3.81696099793771E-06,7.20703125,0,0
-2.19747635128442E-05,8.81063169799745E-06,7.20703125,0,0
-2.06685817829566E-05,8.9494214989827E-06,7.20703125,0,0
-2.3330077965511E-05,8.8556989794597E-06,7.20703125,0,0
-2.21722239075461E-05,1.35730742840678E-05,7.20703125,0,0
-2.0771485651494E-05,1.77248020918341E-05,7.20703125,0,0
-1.70290895766811E-05,1.47820137499366E-05,7.20703125,0,0
-1.89306392712751E-05,8.95684843271738E-06,7.20703125,0,0
-1.91986564459512E-05,5.37892765350989E-06,7.20703125,0,0
-2.03264589799801E-05,6.9795664785488E-06,7.20703125,0,0
-1.83273896254832E-05,1.04940572782652E-05,7.20703125,0,0
-1.82003950612852E-05,1.15085103971069E-05,7.20703125,0,0
-1.78529026015894E-05,1.09940538095543E-05,7.20703125,0,0
-2.01418733922765E-05,1.47640666909865E-05,7.20703125,0,0
-2.09060908673564E-05,2.24741779675242E-05,7.20703125,0,0
-2.13499915844295E-05,2.67841533059254E-05,7.20703125,0,0
-2.15021755138878E-05,2.6074871129822E-05,7.20703125,0,0
-2.17167271330254E-05,2.29809902521083E-05,7.20703125,0,0
-1.81465802597813E-05,1.42796607178752E-05,7.20703125,0,0
-2.63553120021243E-05,2.03382551262621E-05,7.20703125,0,0
-2.0483288608375E-05,1.15416496555554E-05,7.20703125,0,0
-2.39668352151057E-05,1.40607971843565E-05,7.20703125,0,0
-2.00632730411598E-05,1.44587893373682E-05,7.20703125,0,0
-2.27790769713465E-05,1.17623167170677E-05,7.20703125,0,0
-2.04910447791917E-05,5.2111081458861E-06,7.20703125,0,0
-2.1748652216047E-05,3.21811876347056E-06,7.20703125,0,0
-2.23533279495314E-05,-1.84662587798812E-06,7.20703125,0,0
-2.24844061449403E-05,-2.10033931580256E-07,7.20703125,0,0
-2.14808969758451E-05,3.83801034331555E-06,7.20703125,0,0
-2.02053524844814E-05,3.29896738548996E-06,7.20703125,0,0
-2.19891699089203E-05,3.69215536011325E-06,7.20703125,0,0
-2.28899862122489E-05,4.66930077891448E-06,7.20703125,0,0
-2.43572103499901E-05,3.85629255106323E-06,7.20703125,0,0
-2.23466449824627E-05,8.79448052160114E-08,7.20703125,0,0
-2.25777075684164E-05,-3.44358852544246E-07,7.20703125,0,0
-2.15526397369104E-05,-2.34231521289985E-07,7.20703125,0,0
-2.27003365580458E-05,3.75715444533853E-06,7.20703125,0,0
-2.29350789595628E-05,6.52708877169061E-06,7.20703125,0,0
-2.45015780819813E-05,7.62241188567714E-06,7.20703125,0,0
-2.47415755438851E-05,8.62720207805978E-06,7.20703125,0,0
-2.54834867519094E-05,1.30201278807363E-05,7.20703125,0,0
-2.46948857238749E-05,1.64328484970611E-05,7.20703125,0,0
-2.45804621954449E-05,1.81023642653599E-05,7.20703125,0,0
-2.57291376328794E-05,1.83864995051408E-05,7.20703125,0,0
-2.81357151834527E-05,1.73118478414835E-05,7.20703125,0,0
-2.21858826989774E-05,1.11721947178012E-05,7.20703125,0,0
-2.95779209409375E-05,1.52039174281526E-05,7.20703125,0,0
-2.09161244129064E-05,9.24706819205312E-06,7.20703125,0,0
-2.56078274105676E-05,1.29293803183828E-05,7.20703125,0,0
-1.80527640623041E-05,1.09273305497481E-05,7.20703125,0,0
-2.09717145480681E-05,4.97269684274215E-06,7.20703125,0,0
-1.98984762391774E-05,5.67111044347257E-07,7.20703125,0,0
-2.28512599278474E-05,4.69411361336824E-06,7.20703125,0,0
-2.12718459806638E-05,3.15269471684587E-06,7.20703125,0,0
-1.89625861821696E-05,1.49597735799034E-06,7.20703125,0,0
-1.68022033903981E-05,1.25407791529142E-06,7.20703125,0,0
-1.54902918438893E-05,-4.38907818534062E-06,7.20703125,0,0
-1.7153983208118E-05,-8.76935428095749E-06,7.20703125,0,0
-1.58171897055581E-05,-7.50700110074831E-06,7.20703125,0,0
-1.50849755300442E-05,-2.88412502413848E-06,7.20703125,0,0
-1.06771312857745E-05,-1.29854822716879E-06,7.20703125,0,0
-9.70485416473821E-06,2.63520490761948E-07,7.20703125,0,0
-7.32563876226777E-06,-1.56449698351935E-06,7.20703125,0,0
-8.49591833684826E-06,-4.05051696361625E-06,7.20703125,0,0
-7.90501781011699E-06,-3.25618429997121E-06,7.20703125,0,0
-9.56625535764033E-06,5.19529703524313E-06,7.20703125,0,0
-1.04259270301554E-05,1.18402713269461E-05,7.20703125,0,0
-1.32874338305555E-05,1.1681417163345E-05,7.20703125,0,0
-1.49912684719311E-05,8.33102149044862E-06,7.20703125,0,0
-1.78061691258335E-05,7.51473407945014E-06,7.20703125,0,0
-2.14066058106255E-05,9.51549191086087E-06,7.20703125,0,0
-2.41851521423087E-05,1.25710485008312E-05,7.20703125,0,0
-1.989828524529E-05,1.17047793537495E-05,7.20703125,0,0
-2.86274480458815E-05,1.71722931554541E-05,7.20703125,0,0
-2.31377853197046E-05,1.07860741991317E-05,7.20703125,0,0
-2.81356496998342E-05,1.64398588822223E-05,7.20703125,0,0
-2.23545321205165E-05,2.247223892482E-05,7.20703125,0,0
-2.51571727858391E-05,2.27681339310948E-05,7.20703125,0,0
-2.43219328694977E-05,1.81938739842735E-05,7.20703125,0,0
-2.61806217167759E-05,1.72176496562315E-05,7.20703125,0,0
-2.58901400229661E-05,1.0966982699756E-05,7.20703125,0,0
-2.65788185060956E-05,1.01365130831255E-05,7.20703125,0,0
-2.74683243333129E-05,1.53429300553398E-05,7.20703125,0,0
-2.74557878583437E-05,1.35930722535704E-05,7.20703125,0,0
-2.97672086162493E-05,9.92631157714641E-06,7.20703125,0,0
-2.96295656880829E-05,1.02332078313339E-05,7.20703125,0,0
-2.97212627629051E-05,1.13235983008053E-05,7.20703125,0,0
-2.72678607871057E-05,7.83052564656828E-06,7.20703125,0,0
-2.79448522633174E-05,7.41614167054649E-06,7.20703125,0,0
-2.6923686164082E-05,1.07646446849685E-05,7.20703125,0,0
-2.77567178272875E-05,1.67198886629194E-05,7.20703125,0,0
-2.76159662462305E-05,2.00430149561726E-05,7.20703125,0,0
-3.03831238852581E-05,1.92530224012444E-05,7.20703125,0,0
-3.15325414703693E-05,1.50958157973946E-05,7.20703125,0,0
-3.12240954372101E-05,1.34689971673652E-05,7.20703125,0,0
-2.84862235275796E-05,1.23501476991805E-05,7.20703125,0,0
-2.69818265223876E-05,1.23323015941423E-05,7.20703125,0,0
-2.74193080258556E-05,1.55273664859124E-05,7.20703125,0,0
-2.98009108519182E-05,1.90892878890736E-05,7.20703125,0,0
-2.53257676376961E-05,1.64619268616661E-05,7.20703125,0,0
-3.63860053766984E-05,2.38218035519822E-05,7.20703125,0,0
-2.91467422357528E-05,1.82804960786598E-05,7.20703125,0,0
-3.58051111106761E-05,2.32145739573753E-05,7.20703125,0,0
-2.89225372398505E-05,1.82954099727795E-05,7.20703125,0,0
-3.22164596582297E-05,1.55453581101028E-05,7.20703125,0,0
-2.9959750463604E-05,1.47166738315718E-05,7.20703125,0,0
-3.14033022732474E-05,1.95690481632482E-05,7.20703125,0,0
-3.16604782710783E-05,1.69012473634211E-05,7.20703125,0,0
-3.3929758501472E-05,1.59311730385525E-05,7.20703125,0,0
-3.53164250554983E-05,1.88633421203122E-05,7.20703125,0,0
-3.47603490808979E-05,1.66250883921748E-05,7.20703125,0,0
-3.58681027137209E-05,1.38710902319872E-05,7.20703125,0,0
-3.35553668264765E-05,1.39997637234046E-05,7.20703125,0,0
-3.35353688569739E-05,1.60752842930378E-05,7.20703125,0,0
-3.1680719985161E-05,1.58567454491276E-05,7.20703125,0,0
-3.25275213981513E-05,1.99175265152007E-05,7.20703125,0,0
-2.93457105726702E-05,2.30655150517123E-05,7.20703125,0,0
-2.78465286100982E-05,2.42254936893005E-05,7.20703125,0,0
-2.3960625185282E-05,1.91498493222753E-05,7.20703125,0,0
-2.27994878514437E-05,1.3836958714819E-05,7.20703125,0,0
-2.07463417609688E-05,1.09807151602581E-05,7.20703125,0,0
-2.11559108720394E-05,1.38426421472104E-05,7.20703125,0,0
-2.10089401662117E-05,1.52986431203317E-05,7.20703125,0,0
-2.22480866796104E-05,1.23497493405011E-05,7.20703125,0,0
-2.41029101744061E-05,7.97998927737353E-06,7.20703125,0,0
-2.38817028730409E-05,7.03406203683699E-06,7.20703125,0,0
-1.84110631380463E-05,1.10701148514636E-05,7.20703125,0,0
-2.53033340413822E-05,1.95720331248594E-05,7.20703125,0,0
-1.79123708221596E-05,1.56994628923712E-05,7.20703125,0,0
-2.20468391489703E-05,1.61721782205859E-05,7.20703125,0,0
-1.79755334102083E-05,1.62299456860637E-05,7.20703125,0,0
-2.02305964194238E-05,1.31291290017543E-05,7.20703125,0,0
-1.75803652382456E-05,1.07995510916226E-05,7.20703125,0,0
-1.66819281730568E-05,1.26549630294903E-05,7.20703125,0,0
-1.45391632031533E-05,1.20499689728604E-05,7.20703125,0,0
-1.62307296704967E-05,1.64775319717592E-05,7.20703125,0,0
-2.00986069103237E-05,2.15358577406732E-05,7.20703125,0,0
-2.06722634175094E-05,1.80733240995323E-05,7.20703125,0,0
-1.88944231922505E-05,1.43290772030014E-05,7.20703125,0,0
-1.52454404087621E-05,1.71730243891943E-05,7.20703125,0,0
-1.63063778018113E-05,1.98620255105197E-05,7.20703125,0,0
-1.73420266946778E-05,1.71582960319938E-05,7.20703125,0,0
-1.97084082174115E-05,1.60643412527861E-05,7.20703125,0,0
-1.88599460670957E-05,1.6738538761274E-05,7.20703125,0,0
-2.00423255591886E-05,1.8590866602608E-05,7.20703125,0,0
-1.95971279026708E-05,1.93517698789947E-05,7.20703125,0,0
-2.05473243113374E-05,1.9174522094545E-05,7.20703125,0,0
-2.01471739273984E-05,1.57736430992372E-05,7.20703125,0,0
-2.06301865546266E-05,1.28149140437017E-05,13.7109375,0,0
-2.06625245482428E-05,1.0862534509215E-05,13.7109375,0,0
-2.16488297155593E-05,8.695593351149E-06,13.7109375,0,0
-2.24939321924467E-05,7.22977119949064E-06,13.7109375,0,0
-2.29013112402754E-05,9.41960934142116E-06,13.7109375,0,0
-1.75629338627914E-05,1.06312181742396E-05,13.7109375,0,0
-2.28597473324044E-05,1.73165208252613E-05,13.7109375,0,0
-1.64778957696399E-05,1.13462947410881E-05,13.7109375,0,0
-2.44697257585358E-05,1.06663719634525E-05,13.7109375,0,0
-2.32004404097097E-05,9.96797280095052E-06,13.7109375,0,0
-2.76833761745365E-05,6.78910555507173E-06,13.7109375,0,0
-2.7211071937927E-05,3.29846898239339E-06,13.7109375,0,0
-2.84107572952053E-05,6.5710187300283E-06,13.7109375,0,0
-2.70973432634491E-05,9.11397637537448E-06,13.7109375,0,0
-2.68812982540112E-05,1.5082078789419E-05,13.7109375,0,0
-2.71588214673102E-05,1.90116534213303E-05,13.7109375,0,0
-2.62770990957506E-05,1.52453449118184E-05,13.7109375,0,0
-2.58475538430503E-05,1.49076904563117E-05,13.7109375,0,0
-2.40233966906089E-05,1.99361220438732E-05,13.7109375,0,0
-2.57407955359668E-05,2.2920421542949E-05,13.7109375,0,0
-2.63378296949668E-05,1.96141136257211E-05,13.7109375,0,0
-2.84014404314803E-05,1.64662451425102E-05,13.7109375,0,0
-2.70612254098523E-05,1.47074770211475E-05,13.7109375,0,0
-2.65594499069266E-05,1.4936023944756E-05,13.7109375,0,0
-2.49296426773071E-05,1.18834022941883E-05,13.7109375,0,0
-2.58083218795946E-05,6.9381171670102E-06,13.7109375,0,0
-2.47364641836612E-05,3.78426375391427E-06,13.7109375,0,0
-2.47779698838713E-05,4.63728292743326E-06,13.7109375,0,0
-2.59002717939438E-05,6.28839188721031E-06,13.7109375,0,0
-2.78410134342266E-05,6.14740656601498E-06,13.7109375,0,0
-2.77018825727282E-05,3.50469258592057E-06,13.7109375,0,0
-2.67550403805217E-05,3.21481479659269E-06,13.7109375,0,0
-2.20633974095108E-05,5.73355646338314E-06,13.7109375,0,0
-3.19983591907658E-05,9.29340330912964E-06,13.7109375,0,0
-2.40976551140193E-05,8.05835406936239E-06,13.7109375,0,0
-2.94696201308398E-05,1.37219494718011E-05,13.7109375,0,0
-2.65319249592721E-05,1.66613936016802E-05,13.7109375,0,0
-3.01638719975017E-05,1.14107178887934E-05,13.7109375,0,0
-2.67191499006003E-05,7.78953744884348E-06,13.7109375,0,0
-2.61898003373062E-05,9.04679382074391E-06,13.7109375,0,0
-2.50029261223972E-05,6.05500781603041E-06,13.7109375,0,0
-2.50189332291484E-05,5.37802498001838E-06,13.7109375,0,0
-2.52573681791546E-05,5.95718620388652E-06,13.7109375,0,0
-2.49461063503986E-05,1.83494694283581E-06,13.7109375,0,0
-2.51102774200263E-05,-9.22741435260832E-07,13.7109375,0,0
-2.19316607399378E-05,-9.02502605981681E-08,13.7109375,0,0
-2.16501757677179E-05,-3.94301196138258E-07,13.7109375,0,0
-2.07384891837137E-05,-3.96447512684972E-06,13.7109375,0,0
-2.34767412621295E-05,-4.73113459520391E-06,13.7109375,0,0
-2.38250740949297E-05,-2.42347118728503E-06,13.7109375,0,0
-2.57191659329692E-05,-5.02972454796691E-07,13.7109375,0,0
-2.48008618655149E-05,-5.69245628412318E-07,13.7109375,0,0
-2.37484164244961E-05,1.2824160648961E-06,13.7109375,0,0
-2.14740357478149E-05,5.13321720063686E-06,13.7109375,0,0
-2.21317495743278E-05,1.01105169960647E-05,13.7109375,0,0
-2.2706462914357E-05,1.41235341288848E-05,13.7109375,0,0
-2.25735839194385E-05,1.54243189172121E-05,13.7109375,0,0
-2.11127244256204E-05,1.32880350065534E-05,13.7109375,0,0
-2.14225365198217E-05,1.26211407405208E-05,13.7109375,0,0
-1.85335611604387E-05,1.49687039083801E-05,13.7109375,0,0
-2.73531077255029E-05,2.54992155532818E-05,13.7109375,0,0
-2.08422789000906E-05,2.01785333047155E-05,13.7109375,0,0
-2.39259188674623E-05,2.05667602131143E-05,13.7109375,0,0
-2.0690422388725E-05,1.73756416188553E-05,13.7109375,0,0
-2.48969754466088E-05,1.15300981633482E-05,13.7109375,0,0
-2.37136064242804E-05,5.56415761820972E-06,13.7109375,0,0
-2.38594511756673E-05,8.27547864901135E-06,13.7109375,0,0
-2.233854138467E-05,8.54672634886811E-06,13.7109375,0,0
-2.19002067751717E-05,1.01921632449375E-05,13.7109375,0,0
-2.27213458856568E-05,9.49039349507075E-06,13.7109375,0,0
-2.43271515500965E-05,1.87163982445782E-06,13.7109375,0,0
-2.6982987037627E-05,-1.40555059147118E-07,13.7109375,0,0
-2.61359982687281E-05,5.24806637258735E-06,13.7109375,0,0
-2.63799011008814E-05,8.6040236055851E-06,13.7109375,0,0
-2.5196861315635E-05,4.9389923333365E-06,13.7109375,0,0
-2.61465938820038E-05,3.88405851481366E-06,13.7109375,0,0
-2.53485231951345E-05,4.47247384727234E-06,13.7109375,0,0
-2.66605547949439E-05,6.00276916884468E-06,13.7109375,0,0
-2.71907847491093E-05,5.93329559706035E-06,13.7109375,0,0
-2.98946742987027E-05,8.26141967991134E-06,13.7109375,0,0
-3.08410672005266E-05,9.25612130231457E-06,13.7109375,0,0
-3.08428097923752E-05,7.2164107223216E-06,13.7109375,0,0
-2.95084300887538E-05,4.58130625702324E-06,13.7109375,0,0
-2.87227248918498E-05,5.86205442232313E-06,13.7109375,0,0
-2.70577584160492E-05,6.9308812271629E-06,13.7109375,0,0
-2.53181096923072E-05,6.08008167546359E-06,13.7109375,0,0
-1.97464032680728E-05,6.14780765317846E-06,13.7109375,0,0
-2.81864213320659E-05,1.02632639027433E-05,13.7109375,0,0
-2.25936200877186E-05,7.30628835299285E-06,13.7109375,0,0
-2.85169517155737E-05,1.03772217698861E-05,13.7109375,0,0
-2.38263892242685E-05,1.56197675096337E-05,13.7109375,0,0
-2.58551426668419E-05,1.42131229949882E-05,13.7109375,0,0
-2.31700178119354E-05,1.11786166598904E-05,13.7109375,0,0
-2.3572740246891E-05,1.51443828144693E-05,13.7109375,0,0
-2.26222855417291E-05,1.58567836479051E-05,13.7109375,0,0
-2.27205800911179E-05,1.54072895384161E-05,13.7109375,0,0
-2.12083723454271E-05,1.63114509632578E-05,13.7109375,0,0
-1.76168650796171E-05,1.51301619553124E-05,13.7109375,0,0
-1.55159323185217E-05,1.64641623996431E-05,13.7109375,0,0
-1.19453252409585E-05,1.83709216798889E-05,13.7109375,0,0
-1.07677824416896E-05,1.49250718095573E-05,13.7109375,0,0
-8.04000592324883E-06,6.41290262137773E-06,13.7109375,0,0
-7.79572746978374E-06,6.92739732244263E-08,13.7109375,0,0
