biceps_emg, triceps_emg, subject_position, position_estimate, brace_position
1.4891032833475E-06,-1.4659510270576E-05,0.52734375,0,0
1.45124545269937E-06,-1.1556432582438E-05,0.52734375,0,0
1.5655173228879E-06,-8.26119048724649E-06,0.52734375,0,0
2.59035732597113E-06,-8.50882861413993E-06,0.52734375,0,0
2.51719666266581E-06,-8.56832502904581E-06,0.52734375,0,0
3.09243409901683E-06,-9.93722460407298E-06,0.52734375,0,0
4.15142039855709E-06,-1.09636102934019E-05,0.52734375,0,0
4.27662553192931E-06,-1.27018111015786E-05,0.52734375,0,0
3.17102831104421E-06,-1.51877848111326E-05,0.52734375,0,0
2.59386979450937E-06,-1.79970302269794E-05,0.52734375,0,0
2.33147238759557E-06,-1.53826076711994E-05,0.52734375,0,0
3.53487826032506E-06,-2.05538181035081E-05,0.52734375,0,0
3.41352210853074E-06,-1.52625761984382E-05,0.52734375,0,0
4.15671047448996E-06,-2.12166487472132E-05,0.52734375,0,0
3.05954313262191E-06,-1.99270052689826E-05,0.52734375,0,0
3.20274762088957E-06,-2.24957602767972E-05,0.52734375,0,0
3.59525733983901E-06,-1.86180568562122E-05,0.52734375,0,0
3.80200640393014E-06,-1.89884667634033E-05,0.52734375,0,0
3.19047171615239E-06,-1.88047870324226E-05,0.52734375,0,0
2.16816670217668E-06,-1.99021487787832E-05,0.52734375,0,0
1.26322981941485E-06,-2.15106156247202E-05,0.52734375,0,0
1.10978942302609E-06,-2.10814923775615E-05,0.52734375,0,0
1.42733438224241E-06,-2.03928102564532E-05,0.52734375,0,0
7.51604261495231E-07,-1.89895527000772E-05,0.52734375,0,0
2.81033067039971E-07,-2.11528767977143E-05,0.52734375,0,0
3.01218449294538E-07,-2.02353476197459E-05,0.52734375,0,0
9.71525423665298E-07,-1.92643929040059E-05,0.52734375,0,0
4.22977677771996E-07,-1.67134548973991E-05,0.52734375,0,0
-7.28240650005318E-07,-1.81269733730005E-05,0.52734375,0,0
-1.83036479484144E-06,-1.93389005289646E-05,0.52734375,0,0
-2.26582983486878E-06,-2.14375195355387E-05,0.52734375,0,0
-2.17505726141098E-06,-2.12443355849246E-05,0.52734375,0,0
-1.71743090504606E-06,-2.04521129489876E-05,0.52734375,0,0
-1.20932543268282E-06,-1.82448220584774E-05,0.52734375,0,0
-1.65634617133037E-06,-1.64544326253235E-05,0.52734375,0,0
-1.91040385288943E-06,-1.56042824528413E-05,0.52734375,0,0
-6.13860549947276E-07,-1.63210443133721E-05,0.52734375,0,0
5.58387284854689E-07,-1.43148245115299E-05,0.52734375,0,0
2.33253317105664E-07,-2.06935746973613E-05,0.52734375,0,0
-1.55021655245946E-06,-1.56994774442865E-05,0.52734375,0,0
-2.80527888207871E-06,-1.81681662070332E-05,0.52734375,0,0
-2.47918524109991E-06,-1.58231996465474E-05,0.52734375,0,0
-5.131441866979E-07,-1.98139841813827E-05,0.52734375,0,0
1.5664205648136E-06,-1.94917192857247E-05,0.52734375,0,0
2.83717258753313E-06,-2.04386287805391E-05,0.52734375,0,0
3.98824022340705E-06,-1.97359440790024E-05,0.52734375,0,0
5.2084155868215E-06,-1.93120577023365E-05,0.52734375,0,0
5.29492945133825E-06,-1.88477279152721E-05,0.52734375,0,0
3.20883577842324E-06,-1.90978698810795E-05,0.52734375,0,0
8.18897490262316E-07,-2.13428957067663E-05,0.52734375,0,0
5.67548795515904E-07,-2.16462030948605E-05,0.52734375,0,0
1.52649056417431E-06,-2.2327678379952E-05,0.52734375,0,0
1.72208683579811E-06,-2.08213605219498E-05,0.52734375,0,0
1.63847084877489E-06,-2.11901242437307E-05,0.52734375,0,0
2.11846281672479E-06,-2.01004622795153E-05,0.52734375,0,0
3.04557465824473E-06,-2.08000419661403E-05,0.52734375,0,0
3.45655621458718E-06,-2.09036970773013E-05,0.52734375,0,0
2.24522887037892E-06,-2.23472252400825E-05,0.52734375,0,0
-8.59098520322732E-07,-2.25677649723366E-05,0.52734375,0,0
-3.94405878978432E-06,-2.25001240323763E-05,0.52734375,0,0
-5.26631538377842E-06,-2.01775455934694E-05,0.52734375,0,0
-3.934171218134E-06,-1.81955256266519E-05,0.52734375,0,0
-1.4782627886234E-06,-1.84369255293859E-05,0.52734375,0,0
7.01040391959395E-07,-1.90537648450118E-05,0.52734375,0,0
1.20263095482187E-07,-1.21158891488449E-05,0.52734375,0,0
-1.23536187857098E-06,-1.52551601786399E-05,0.52734375,0,0
-8.3189223687441E-07,-1.19007381726988E-05,0.52734375,0,0
2.3174177385954E-06,-1.75254845089512E-05,0.52734375,0,0
3.95694405597169E-06,-1.27605935631436E-05,0.52734375,0,0
4.04577031076769E-06,-1.23806166811846E-05,0.52734375,0,0
2.45452997660323E-06,-9.96739527181489E-06,0.52734375,0,0
2.34185927183717E-06,-1.04294122138526E-05,0.52734375,0,0
2.13871089727036E-06,-9.94220681604929E-06,0.52734375,0,0
1.72162094713713E-06,-1.24250764201861E-05,0.52734375,0,0
1.17991771730885E-06,-1.73066237039166E-05,0.52734375,0,0
7.95194296188129E-07,-2.00682079594117E-05,0.52734375,0,0
2.1798089164804E-06,-1.9317780243E-05,0.52734375,0,0
4.41891734226374E-06,-1.42075286930776E-05,0.52734375,0,0
5.83778046348016E-06,-1.11935250970419E-05,0.52734375,0,0
5.72857061342802E-06,-9.78018033492845E-06,0.52734375,0,0
4.41165639131214E-06,-1.35671480165911E-05,0.52734375,0,0
2.56749603977369E-06,-1.64693847182207E-05,0.52734375,0,0
1.85460498869361E-06,-1.77686106326291E-05,0.52734375,0,0
1.76349249159102E-06,-1.48262697621249E-05,0.52734375,0,0
2.52590712079837E-06,-1.24164498629398E-05,0.52734375,0,0
3.94323342334246E-06,-8.82356380316196E-06,0.52734375,0,0
5.33628735865932E-06,-5.44204067409737E-06,0.52734375,0,0
6.30449403615785E-06,-4.17076989833731E-06,0.52734375,0,0
7.7760596468579E-06,-7.85296651883982E-06,0.52734375,0,0
8.24255221232306E-06,-1.20798713396653E-05,0.52734375,0,0
7.46352952774032E-06,-1.38552786665969E-05,0.52734375,0,0
5.57169505555066E-06,-1.21313833005843E-05,0.52734375,0,0
9.65531489782734E-06,-1.82602616405347E-05,0.52734375,0,0
9.65471099334536E-06,-1.61866246344289E-05,0.52734375,0,0
1.06989891719422E-05,-2.02722476387862E-05,0.52734375,0,0
8.90140199771849E-06,-1.71119227161398E-05,0.52734375,0,0
9.44525254453765E-06,-1.70748480741167E-05,0.52734375,0,0
8.51359345688252E-06,-1.39395997393876E-05,0.52734375,0,0
8.25588176667225E-06,-1.31366914501996E-05,0.52734375,0,0
7.23811763236881E-06,-1.16359560706769E-05,0.52734375,0,0
5.65724621992558E-06,-1.22520623335731E-05,0.52734375,0,0
4.35331548942486E-06,-1.46353258969611E-05,0.52734375,0,0
5.18072147315252E-06,-1.50275345731643E-05,0.52734375,0,0
7.27842416381463E-06,-1.60826602950692E-05,0.52734375,0,0
6.83144253343926E-06,-1.63684180733981E-05,0.52734375,0,0
5.35036497240071E-06,-1.67197813425446E-05,0.52734375,0,0
4.77625644634827E-06,-1.57787126227049E-05,0.52734375,0,0
6.45187947156955E-06,-1.74357883224729E-05,0.52734375,0,0
7.13030613042065E-06,-1.78628797584679E-05,0.52734375,0,0
6.93603396939579E-06,-1.80025781446602E-05,0.52734375,0,0
5.77604168938706E-06,-1.65936107805464E-05,0.52734375,0,0
5.04936042489135E-06,-1.67178695846815E-05,0.52734375,0,0
3.7657443954231E-06,-1.74345132109011E-05,0.52734375,0,0
3.3165315471706E-06,-1.96176952158567E-05,0.52734375,0,0
3.67325287697895E-06,-1.96162418433232E-05,0.52734375,0,0
4.45387331637903E-06,-1.81657578650629E-05,0.52734375,0,0
5.3961707635608E-06,-1.78571299329633E-05,0.52734375,0,0
5.79301240577479E-06,-1.86107354238629E-05,0.52734375,0,0
3.13284158437455E-06,-1.49766319736955E-05,0.52734375,0,0
2.60886622527323E-06,-2.0628556740121E-05,0.52734375,0,0
4.67501791945324E-07,-1.40047231980134E-05,0.52734375,0,0
3.08396920445375E-06,-1.61003990797326E-05,0.52734375,0,0
4.07762217946583E-06,-1.32086497615092E-05,0.52734375,0,0
5.42083353138878E-06,-1.7947968444787E-05,0.52734375,0,0
4.6878576540621E-06,-1.73935168277239E-05,0.52734375,0,0
4.57544047094416E-06,-1.81277409865288E-05,0.52734375,0,0
4.61154559161514E-06,-1.77164984052069E-05,0.52734375,0,0
5.33848242412205E-06,-1.76127050508512E-05,0.52734375,0,0
5.76785396333435E-06,-1.81757350219414E-05,0.52734375,0,0
3.91867069993168E-06,-1.72017334989505E-05,0.52734375,0,0
1.86465115348255E-06,-1.58853727043606E-05,0.52734375,0,0
3.02698595078255E-06,-1.38876357596018E-05,0.52734375,0,0
6.11582072451711E-06,-1.57210415636655E-05,0.52734375,0,0
5.69197754884954E-06,-1.81831401278032E-05,0.52734375,0,0
3.34772744281508E-06,-2.33173541346332E-05,0.52734375,0,0
1.64760808729625E-06,-2.55240847764071E-05,0.52734375,0,0
2.18730269807565E-06,-2.63801885012072E-05,0.52734375,0,0
2.91785340778006E-06,-2.48499181907391E-05,0.52734375,0,0
3.73696479982755E-06,-2.54498863796471E-05,0.52734375,0,0
3.80727669835323E-06,-2.44149359787116E-05,0.52734375,0,0
4.51805635748315E-06,-2.21461086766794E-05,0.52734375,0,0
4.69878159492509E-06,-1.84747495950432E-05,0.52734375,0,0
3.44206932822999E-06,-1.58793391165091E-05,0.52734375,0,0
2.11693350138376E-06,-1.30917742353631E-05,0.52734375,0,0
8.85155941432458E-07,-1.06731658888748E-05,0.52734375,0,0
-5.30656222963444E-07,-7.78059802541975E-06,0.52734375,0,0
-1.31395700009307E-06,-1.20636432257015E-05,0.52734375,0,0
-1.97263489098987E-06,-1.21021812446998E-05,0.52734375,0,0
-1.31759281885024E-06,-1.70404055097606E-05,0.52734375,0,0
1.25765552638768E-06,-1.81635696208104E-05,0.52734375,0,0
2.15377167478437E-06,-2.06212152988883E-05,0.52734375,0,0
1.71495901213348E-06,-2.16794596781256E-05,0.52734375,0,0
1.90204832506424E-06,-2.46991476160474E-05,0.52734375,0,0
3.09626830130583E-06,-2.39325418078806E-05,0.52734375,0,0
4.46252579422435E-06,-2.23249789996771E-05,0.52734375,0,0
4.2751294131449E-06,-2.27085729420651E-05,0.52734375,0,0
1.61832747380686E-06,-2.36903379118303E-05,0.52734375,0,0
-1.11481028852722E-06,-2.40657554968493E-05,0.52734375,0,0
-1.14629222025542E-06,-2.28399130719481E-05,0.52734375,0,0
1.470661914027E-06,-2.18334171222523E-05,0.52734375,0,0
3.80483675144205E-06,-1.94499934877967E-05,0.52734375,0,0
3.23693507198186E-06,-1.93881933228113E-05,0.52734375,0,0
1.40512872803811E-06,-2.00261638383381E-05,0.52734375,0,0
-5.67504514492612E-08,-2.18152126763016E-05,0.52734375,0,0
-8.43322936816548E-07,-2.13278999581235E-05,0.52734375,0,0
-8.10978235676885E-07,-1.95691518456442E-05,0.52734375,0,0
1.26969709413061E-07,-1.83809024747461E-05,0.52734375,0,0
1.2390116808092E-06,-2.08986584766535E-05,0.52734375,0,0
1.92138782040274E-06,-2.38602860918036E-05,0.52734375,0,0
1.76584114797151E-06,-2.44398852373706E-05,0.52734375,0,0
1.70053624515276E-06,-2.28698227147106E-05,0.52734375,0,0
2.99918110613362E-06,-2.05432315851795E-05,0.52734375,0,0
3.25958603752952E-06,-1.56428795889951E-05,0.52734375,0,0
3.99435566578177E-06,-2.10834205063293E-05,0.52734375,0,0
2.70500800070295E-06,-1.43464048960595E-05,0.52734375,0,0
3.85175371775404E-06,-1.99109272216447E-05,0.52734375,0,0
2.17021033677156E-06,-1.93499272427289E-05,0.52734375,0,0
2.10959206015104E-06,-2.15972249861807E-05,0.52734375,0,0
1.6236913324974E-06,-1.60391537065152E-05,0.52734375,0,0
8.12932853477832E-07,-1.40297152029234E-05,0.52734375,0,0
-4.07469627816681E-07,-1.53413075167919E-05,0.52734375,0,0
9.64856212704035E-07,-2.02918035938637E-05,0.52734375,0,0
3.27509383168945E-06,-2.46148829319282E-05,0.52734375,0,0
3.10102655021183E-06,-2.60691431321902E-05,0.52734375,0,0
2.00998010768672E-06,-2.82307792076608E-05,0.52734375,0,0
1.21163463973062E-06,-2.67204759438755E-05,0.52734375,0,0
1.67610119206074E-06,-2.4351864340133E-05,0.52734375,0,0
1.15365298825054E-06,-2.05859196285019E-05,0.52734375,0,0
3.05464595840022E-07,-2.15376603591722E-05,0.52734375,0,0
-6.74137311307277E-07,-2.32503589359112E-05,0.52734375,0,0
-1.12186933165503E-06,-2.60442539001815E-05,0.52734375,0,0
-2.35321908803598E-06,-2.51570472755702E-05,0.52734375,0,0
-3.08063317788765E-06,-2.40562676481204E-05,0.52734375,0,0
-3.84545728593366E-06,-2.10225534829078E-05,0.52734375,0,0
-5.10350218974054E-06,-1.81014529516688E-05,0.52734375,0,0
-4.63460128230508E-06,-1.61732823471539E-05,0.52734375,0,0
-1.42409794534615E-06,-1.49966508615762E-05,0.52734375,0,0
-1.75151697590081E-07,-1.28863475765684E-05,0.52734375,0,0
-2.25403891818132E-06,-1.23175977932988E-05,0.52734375,0,0
-2.02033311325067E-06,-9.82031633611768E-06,0.52734375,0,0
-2.13639486901229E-06,-1.43115139508154E-05,0.52734375,0,0
-5.38075312306319E-07,-1.24715943456977E-05,0.52734375,0,0
3.34902381382562E-07,-1.5783896742505E-05,0.52734375,0,0
3.59349905920681E-06,-1.29870950331679E-05,0.52734375,0,0
5.76200409341254E-06,-1.39261455842643E-05,0.52734375,0,0
7.17709144737455E-06,-1.30914067995036E-05,0.52734375,0,0
5.3827266128792E-06,-1.42340823003906E-05,0.52734375,0,0
4.17717183154309E-06,-1.44139530675602E-05,0.52734375,0,0
5.26631720276782E-06,-1.52872053149622E-05,0.52734375,0,0
7.08446668795659E-06,-1.60393865371589E-05,0.52734375,0,0
8.43212910695001E-06,-1.53818236867664E-05,0.52734375,0,0
8.99172937351977E-06,-1.65381716215052E-05,0.52734375,0,0
9.2278705778881E-06,-1.80733459274052E-05,0.52734375,0,0
8.53235178510658E-06,-1.95990578504279E-05,0.52734375,0,0
7.62702347856248E-06,-1.73155676748138E-05,0.52734375,0,0
6.71029147270019E-06,-1.53813434735639E-05,0.52734375,0,0
6.7741098064289E-06,-1.36184344228241E-05,0.52734375,0,0
6.85708528180839E-06,-1.35787349790917E-05,0.52734375,0,0
6.38192068436183E-06,-1.24352800412453E-05,0.52734375,0,0
4.68443204226787E-06,-1.15931970867678E-05,0.52734375,0,0
3.75758418158512E-06,-9.23881361813983E-06,0.52734375,0,0
3.61457864528347E-06,-7.41858002584195E-06,0.52734375,0,0
3.46521846950054E-06,-7.49680384615203E-06,0.52734375,0,0
2.60829210674274E-06,-9.52830851019826E-06,0.52734375,0,0
2.58223258242651E-06,-1.12301659100922E-05,0.52734375,0,0
4.5551450966741E-06,-1.2133052223362E-05,0.52734375,0,0
5.28936152477399E-06,-9.9386707006488E-06,0.52734375,0,0
6.77737352816621E-06,-1.43906290759332E-05,0.52734375,0,0
3.70313659914245E-06,-1.19059241114883E-05,0.52734375,0,0
5.19988498126622E-06,-1.67789476108737E-05,0.52734375,0,0
3.24776942761673E-06,-1.75138429767685E-05,0.52734375,0,0
2.87753869088192E-06,-1.94413878489286E-05,0.52734375,0,0
2.8192787340231E-06,-1.83442516572541E-05,0.52734375,0,0
3.49629749507585E-06,-1.92955594684463E-05,0.52734375,0,0
3.79632979274902E-06,-1.86128672794439E-05,0.52734375,0,0
3.93062327930238E-06,-1.93707328435266E-05,0.52734375,0,0
3.12964539261884E-06,-1.90822320291772E-05,0.52734375,0,0
1.99237319975509E-06,-1.62476862897165E-05,0.52734375,0,0
2.72778993348766E-06,-1.52620505105006E-05,0.52734375,0,0
3.67697293768288E-06,-1.46898109960603E-05,0.52734375,0,0
3.79808147954463E-06,-1.32856821437599E-05,0.52734375,0,0
2.15079444387811E-06,-9.39209985517664E-06,0.52734375,0,0
1.94579456547217E-06,-9.53657036006916E-06,0.52734375,0,0
3.59512796421768E-06,-1.18709031085018E-05,0.52734375,0,0
5.92626520301565E-06,-1.52987468027277E-05,0.52734375,0,0
6.08989739703247E-06,-1.52604497998254E-05,0.52734375,0,0
5.33027514393325E-06,-1.39828189276159E-05,0.52734375,0,0
3.75727768187062E-06,-1.31065344248782E-05,0.52734375,0,0
3.07223831441661E-06,-1.39773637783946E-05,0.52734375,0,0
3.00496617455792E-06,-1.51988297147909E-05,0.52734375,0,0
3.325816578581E-06,-1.71361571119633E-05,0.52734375,0,0
4.47328056907281E-06,-1.76282701431774E-05,0.52734375,0,0
4.72307965537766E-06,-1.80416118382709E-05,0.52734375,0,0
3.14244311994116E-06,-1.45627363963285E-05,0.52734375,0,0
3.64995321433526E-06,-2.17648139368976E-05,0.52734375,0,0
3.01866452900867E-06,-2.00843678612728E-05,0.52734375,0,0
4.80703602079302E-06,-2.96163107122993E-05,0.52734375,0,0
3.16859564009064E-06,-3.26475164911244E-05,0.52734375,0,0
3.34154924530594E-06,-3.69222980225459E-05,0.52734375,0,0
2.99848898066557E-06,-3.34818978444673E-05,0.52734375,0,0
2.73397290584398E-06,-2.99154307867866E-05,0.52734375,0,0
2.51157212005637E-06,-2.51524470513687E-05,0.52734375,0,0
3.03165620607615E-06,-2.3052969481796E-05,0.52734375,0,0
2.9357545372477E-06,-2.15721611311892E-05,0.52734375,0,0
5.80372329750389E-07,-1.95714164874516E-05,0.52734375,0,0
-6.59988813822565E-07,-1.80663591891062E-05,0.52734375,0,0
2.11980960784786E-07,-1.47821938298875E-05,0.52734375,0,0
2.74565945801442E-06,-1.29656364151742E-05,0.52734375,0,0
3.99359487346374E-06,-1.04306018329225E-05,0.52734375,0,0
3.55084284819895E-06,-1.1498504136398E-05,0.52734375,0,0
2.15464046959823E-06,-1.22260435091448E-05,0.52734375,0,0
2.61894479081093E-06,-1.37188262669952E-05,0.52734375,0,0
3.43460283147579E-06,-1.27027342387009E-05,0.52734375,0,0
3.13138707497274E-06,-1.31875294755446E-05,0.52734375,0,0
2.2201452338777E-06,-1.31895567392348E-05,0.52734375,0,0
2.54326255344495E-06,-1.44113500937237E-05,0.52734375,0,0
2.7988762667519E-06,-1.63584118126892E-05,0.52734375,0,0
2.52126346822479E-06,-1.73485059349332E-05,0.52734375,0,0
2.14971942114062E-06,-1.3216884326539E-05,0.52734375,0,0
3.2358411772293E-06,-8.04026785772294E-06,0.52734375,0,0
4.08464848078438E-06,-5.33926231582882E-06,0.52734375,0,0
5.41015788257937E-06,-9.62265949056018E-06,0.52734375,0,0
2.84095676761353E-06,-9.59215321927331E-06,0.52734375,0,0
2.81870484286628E-06,-1.09064667412895E-05,0.52734375,0,0
2.94240038556381E-07,-1.11141062006936E-05,0.52734375,0,0
-9.50566857227386E-07,-1.35018908622442E-05,0.52734375,0,0
-1.22619144349301E-06,-1.41267664730549E-05,0.52734375,0,0
9.8284992589015E-08,-1.35616046463838E-05,0.52734375,0,0
6.17680939285492E-07,-1.25715205285815E-05,0.52734375,0,0
7.21781134416233E-07,-1.18429024951183E-05,0.52734375,0,0
1.0832221732926E-06,-1.14542144729057E-05,0.52734375,0,0
1.25734766243113E-06,-1.2304071788094E-05,0.52734375,0,0
2.06195181817748E-06,-1.62948763318127E-05,0.52734375,0,0
3.26720123666746E-06,-2.16672906390158E-05,0.52734375,0,0
5.1362353588047E-06,-2.62095345533453E-05,0.52734375,0,0
6.00619796387036E-06,-2.74615304078907E-05,0.52734375,0,0
6.06791627433267E-06,-2.73642817774089E-05,0.52734375,0,0
4.5237770791573E-06,-2.62280755123356E-05,0.52734375,0,0
3.89889692087309E-06,-2.41212637774879E-05,0.52734375,0,0
4.09845370086259E-06,-2.14849515032256E-05,0.52734375,0,0
3.92257607018109E-06,-2.06992845050991E-05,0.52734375,0,0
2.49860977419303E-06,-2.17400265682954E-05,0.52734375,0,0
1.88589183380827E-06,-2.31358317250852E-05,0.52734375,0,0
2.25381563723204E-06,-2.21227510337485E-05,0.52734375,0,0
3.06322044707485E-06,-2.04697153094457E-05,0.52734375,0,0
4.38862298324239E-06,-1.95918946701568E-05,0.52734375,0,0
4.64208005723776E-06,-1.98103316506604E-05,0.52734375,0,0
2.3136130948842E-06,-1.58948532771319E-05,0.52734375,0,0
2.23950519284699E-06,-2.01765033125412E-05,0.52734375,0,0
1.73717421603214E-06,-1.24583575598081E-05,0.52734375,0,0
3.42139060194313E-06,-1.78161753865425E-05,0.52734375,0,0
2.55167219620489E-06,-1.53099099406973E-05,0.52734375,0,0
2.42272221839812E-06,-1.60090748977382E-05,0.52734375,0,0
2.02723140318994E-06,-1.09526772575919E-05,0.52734375,0,0
2.62378603110847E-06,-1.1204445399926E-05,0.52734375,0,0
1.83099791684072E-06,-1.11883764475351E-05,0.52734375,0,0
2.16424882637511E-06,-1.18028265205794E-05,0.52734375,0,0
3.25592918670736E-06,-1.33442099468084E-05,0.52734375,0,0
4.21900858782465E-06,-1.42975341077545E-05,0.52734375,0,0
5.01425483889761E-06,-1.42816470543039E-05,0.52734375,0,0
4.24876043325639E-06,-1.14811100502266E-05,0.52734375,0,0
2.86883778244373E-06,-1.25171927720658E-05,0.52734375,0,0
1.77904064457834E-06,-1.4185362488206E-05,0.52734375,0,0
2.25168992074032E-06,-1.86492543434724E-05,0.52734375,0,0
3.38882432515675E-06,-1.96106957446318E-05,0.52734375,0,0
4.69416909254505E-06,-1.93966698134318E-05,0.52734375,0,0
3.91562844015425E-06,-1.60824092745315E-05,0.52734375,0,0
3.5324890177435E-06,-1.43381184898317E-05,0.52734375,0,0
3.48626599588897E-06,-1.24096768558957E-05,0.52734375,0,0
4.45172463514609E-06,-1.31528613565024E-05,0.52734375,0,0
6.2685867305845E-06,-1.54451608977979E-05,0.52734375,0,0
7.08938159732497E-06,-1.90521350305062E-05,0.52734375,0,0
5.28237433172762E-06,-2.0097120795981E-05,0.52734375,0,0
2.45199589699041E-06,-1.90976970770862E-05,0.52734375,0,0
-1.30292718836245E-07,-1.48563749462483E-05,0.52734375,0,0
-4.61311600474801E-07,-2.10767539101653E-05,0.52734375,0,0
8.66566892909759E-07,-1.60924155352404E-05,0.52734375,0,0
2.6818588594324E-06,-1.99950372916646E-05,0.52734375,0,0
2.48117044066021E-06,-1.77294459717814E-05,0.52734375,0,0
8.65764945956471E-07,-2.2300106138573E-05,0.52734375,0,0
-1.1570621154533E-06,-2.36285450228024E-05,0.52734375,0,0
-1.29444958929525E-06,-2.41703382926062E-05,0.52734375,0,0
1.15362666974761E-07,-2.09869012905983E-05,0.52734375,0,0
1.87674299922946E-06,-1.94394033314893E-05,0.52734375,0,0
2.8185750124976E-06,-1.86214947461849E-05,0.52734375,0,0
2.73563182418002E-06,-1.6349184079445E-05,0.52734375,0,0
2.63972447100969E-06,-1.62388332682895E-05,0.52734375,0,0
2.20817037188681E-06,-1.76924550032709E-05,0.52734375,0,0
1.28442104596616E-06,-2.06721397262299E-05,0.52734375,0,0
-7.74895809740883E-08,-1.90885511983652E-05,0.52734375,0,0
-5.28116174791649E-07,-1.84664222615538E-05,0.52734375,0,0
1.34679297048024E-07,-1.82095318450592E-05,0.52734375,0,0
1.00306158401509E-06,-2.02186492970213E-05,0.52734375,0,0
1.83145220944425E-06,-1.97033568838378E-05,0.52734375,0,0
2.12223881135287E-06,-1.92163934116252E-05,0.52734375,0,0
1.57265719735733E-06,-1.83773991011549E-05,0.52734375,0,0
1.14134252271469E-06,-1.94666772586061E-05,0.52734375,0,0
1.44559658110666E-06,-1.98128782358253E-05,0.52734375,0,0
1.789714019651E-06,-2.09567260753829E-05,0.52734375,0,0
1.0279318303219E-06,-2.3152053472586E-05,0.52734375,0,0
1.57548254264839E-06,-2.68637031695107E-05,0.52734375,0,0
3.12901579491154E-06,-2.57225019595353E-05,0.52734375,0,0
4.58386057289317E-06,-3.52639544871636E-05,0.52734375,0,0
1.30453156543808E-06,-2.11576079891529E-05,0.52734375,0,0
-6.01711860781506E-07,-2.16555235965643E-05,0.52734375,0,0
-1.84894372523559E-06,-1.33532703330275E-05,0.52734375,0,0
-1.6506362499058E-06,-1.72881063917885E-05,0.52734375,0,0
-3.32634812139077E-07,-1.71582032635342E-05,0.52734375,0,0
2.09413792617852E-06,-1.8978787920787E-05,0.52734375,0,0
4.13245652453043E-06,-1.68823953572428E-05,0.52734375,0,0
5.19236982654547E-06,-1.72747932083439E-05,0.52734375,0,0
4.8349052121921E-06,-1.85667049663607E-05,0.52734375,0,0
3.94598100683652E-06,-1.74039269040804E-05,0.52734375,0,0
2.69435736299783E-06,-1.78006030182587E-05,0.52734375,0,0
1.24260873235471E-06,-1.73116404766915E-05,0.52734375,0,0
1.22427536553005E-06,-2.01972270588158E-05,0.52734375,0,0
2.31651188187243E-06,-1.98703219211893E-05,0.52734375,0,0
2.82039945886936E-06,-2.21675254579168E-05,0.52734375,0,0
2.66154575001565E-06,-2.09596273634816E-05,0.52734375,0,0
3.75086733583885E-06,-2.12475351872854E-05,0.52734375,0,0
5.72299813939026E-06,-1.99682999664219E-05,0.52734375,0,0
8.37651077745249E-06,-2.08446363103576E-05,0.52734375,0,0
9.80254299065564E-06,-1.89232978300424E-05,0.52734375,0,0
8.96595793165034E-06,-1.78295340447221E-05,0.52734375,0,0
6.04755996391759E-06,-1.54523168021115E-05,0.52734375,0,0
3.27403176925145E-06,-1.44661180456751E-05,0.52734375,0,0
2.93140055873664E-06,-1.47553673741641E-05,0.52734375,0,0
4.72583178634522E-06,-1.47326327351038E-05,0.52734375,0,0
4.76409650218557E-06,-1.24442831292981E-05,0.52734375,0,0
5.72044564250973E-06,-1.82113035407383E-05,0.52734375,0,0
3.3840683499875E-06,-1.40520733111771E-05,0.52734375,0,0
5.57536714040907E-06,-1.62275464390405E-05,0.52734375,0,0
5.76279853703454E-06,-1.21480743473512E-05,0.52734375,0,0
6.48833247396396E-06,-1.11018407551455E-05,0.52734375,0,0
4.06897152060992E-06,-1.10449300336768E-05,0.52734375,0,0
3.24435791299038E-06,-1.6626423530397E-05,0.52734375,0,0
3.41042618856591E-06,-2.03825820790371E-05,0.52734375,0,0
4.1244429667131E-06,-1.98002453544177E-05,0.52734375,0,0
4.6342734094651E-06,-1.46947659231955E-05,0.52734375,0,0
3.99759028368862E-06,-9.8145292213303E-06,0.52734375,0,0
3.6771236864297E-06,-1.04134196590167E-05,0.52734375,0,0
2.85416854239884E-06,-1.22454384836601E-05,0.52734375,0,0
2.48336618824396E-06,-1.42430963023799E-05,0.52734375,0,0
1.50226367168216E-06,-1.43484512591385E-05,0.52734375,0,0
9.63136358222982E-07,-1.70061666722177E-05,0.52734375,0,0
3.58694705937523E-07,-1.78178834175924E-05,0.52734375,0,0
1.51608901433065E-06,-1.75026925717248E-05,0.52734375,0,0
3.43172655448143E-06,-1.70296079886612E-05,0.52734375,0,0
5.63388493901584E-06,-2.14211759157479E-05,0.52734375,0,0
5.28453210790758E-06,-2.6254347176291E-05,0.52734375,0,0
4.00415501644602E-06,-2.82043965853518E-05,0.52734375,0,0
3.8108482840471E-06,-2.5897194063873E-05,0.52734375,0,0
4.36031086792354E-06,-2.1524547264562E-05,0.52734375,0,0
4.08180085287313E-06,-1.76805533556035E-05,0.52734375,0,0
2.19006392399024E-06,-1.63546046678675E-05,0.52734375,0,0
1.55553109948414E-07,-1.23969684864278E-05,0.52734375,0,0
7.00995656188752E-07,-1.70771072589559E-05,0.52734375,0,0
2.19376579480013E-06,-1.30435901155579E-05,0.52734375,0,0
4.3537224883039E-06,-1.65460078278556E-05,0.52734375,0,0
5.72360295336694E-06,-1.3752949598711E-05,0.52734375,0,0
5.62595687370049E-06,-1.60057625180343E-05,0.52734375,0,0
4.14857549912995E-06,-1.58100101543823E-05,0.52734375,0,0
1.88618423635489E-06,-1.76750145328697E-05,0.52734375,0,0
1.96947425479266E-07,-1.79609960468952E-05,0.52734375,0,0
-7.52688833927095E-07,-2.03289891942404E-05,0.52734375,0,0
9.1662604972953E-07,-2.32291349675506E-05,0.52734375,0,0
3.79395351046696E-06,-2.32311322179157E-05,0.52734375,0,0
5.54778898731456E-06,-2.0861054508714E-05,0.52734375,0,0
6.37160883343313E-06,-1.57759131980129E-05,0.52734375,0,0
6.65595962345833E-06,-1.22560086310841E-05,0.52734375,0,0
6.52853350402438E-06,-9.2620884970529E-06,0.52734375,0,0
6.51459731670911E-06,-9.0975709099439E-06,0.52734375,0,0
8.06276329967659E-06,-7.85914016887546E-06,0.52734375,0,0
9.50448520598002E-06,-8.60533691593446E-06,0.52734375,0,0
1.04084638223867E-05,-8.16442297946196E-06,0.52734375,0,0
1.12169745989377E-05,-9.4930364866741E-06,0.52734375,0,0
1.10280425360543E-05,-1.10193359432742E-05,0.52734375,0,0
9.98069936031243E-06,-1.24328271340346E-05,0.52734375,0,0
9.60795750870602E-06,-1.08691447167075E-05,0.52734375,0,0
1.03081874840427E-05,-9.73294299910776E-06,0.52734375,0,0
1.01482482932624E-05,-1.18485077109654E-05,0.52734375,0,0
9.56020721787354E-06,-1.34469073600485E-05,0.52734375,0,0
6.51170876153628E-06,-9.95782465906814E-06,0.52734375,0,0
8.39307631395059E-06,-1.62130781973246E-05,0.52734375,0,0
3.94611743104178E-06,-1.54815552377841E-05,0.52734375,0,0
3.81227255275007E-06,-1.81149098352762E-05,0.52734375,0,0
1.90510320408066E-06,-1.58661532623228E-05,0.52734375,0,0
3.98637348553166E-06,-1.60798881552182E-05,0.52734375,0,0
4.9057225623983E-06,-1.3246444723336E-05,0.52734375,0,0
5.61738488613628E-06,-1.23688405437861E-05,0.52734375,0,0
4.29504143539816E-06,-1.18169500638032E-05,0.52734375,0,0
2.7462901925901E-06,-1.40402717079269E-05,0.52734375,0,0
1.16251624149299E-06,-1.61273146659369E-05,0.52734375,0,0
7.97786370299036E-08,-1.58483890118077E-05,0.52734375,0,0
-3.89243659526528E-08,-1.6291731299134E-05,0.52734375,0,0
-3.95326765101345E-07,-1.75679069798207E-05,0.52734375,0,0
3.6978011763722E-08,-2.00981230591424E-05,0.52734375,0,0
4.5905275669611E-07,-1.97894914890639E-05,0.52734375,0,0
1.98669613382663E-06,-1.89324473467423E-05,0.52734375,0,0
1.87077080227027E-06,-1.71143237821525E-05,0.52734375,0,0
5.93656920955254E-07,-1.8180371625931E-05,0.52734375,0,0
-1.88137914847175E-06,-1.97088847926352E-05,0.52734375,0,0
-2.30127898248611E-06,-2.0639550712076E-05,0.52734375,0,0
-8.70110341111285E-07,-2.08290184673388E-05,0.52734375,0,0
1.68863402905117E-06,-2.29707893595332E-05,0.52734375,0,0
2.67347127191897E-06,-2.3080843675416E-05,0.52734375,0,0
2.72713532467606E-06,-2.10154121305095E-05,0.52734375,0,0
2.98307440971257E-06,-1.8450191419106E-05,0.52734375,0,0
3.33753746417642E-06,-1.75518889591331E-05,0.52734375,0,0
1.78984578269592E-06,-1.60644340212457E-05,0.52734375,0,0
1.96986388800724E-06,-2.45437568082707E-05,0.52734375,0,0
6.66966627704824E-07,-2.06461627385579E-05,0.52734375,0,0
4.07159859605599E-07,-2.52249410550576E-05,0.52734375,0,0
-2.19138669876884E-07,-2.15103518712567E-05,0.52734375,0,0
9.35946673052968E-07,-2.00467729882803E-05,0.52734375,0,0
2.55486725109222E-06,-1.62021024152637E-05,0.52734375,0,0
3.90497461921768E-06,-1.72610634763259E-05,0.52734375,0,0
3.11426924781699E-06,-1.71582105394918E-05,0.52734375,0,0
2.18461673284764E-06,-1.8102986359736E-05,0.52734375,0,0
2.06380104827986E-06,-1.89707570825703E-05,0.52734375,0,0
1.22636822652566E-06,-1.8473981981515E-05,0.52734375,0,0
5.49340370525897E-07,-1.83188512892229E-05,0.52734375,0,0
6.6203187998326E-07,-1.66742138389964E-05,0.52734375,0,0
7.96220206211729E-07,-1.57898793986533E-05,0.52734375,0,0
-5.5245519270386E-09,-1.39170342663419E-05,0.52734375,0,0
-3.21670825087494E-07,-1.57800241140649E-05,0.52734375,0,0
-4.67837502071689E-08,-1.60938507178798E-05,0.52734375,0,0
4.42232163777589E-07,-1.693247941148E-05,0.52734375,0,0
2.87317647007512E-07,-1.62220203492325E-05,0.52734375,0,0
7.36880679141905E-07,-1.71271167346276E-05,0.52734375,0,0
1.03637614756735E-06,-1.70435323525453E-05,0.52734375,0,0
3.89412690537938E-07,-1.75821242009988E-05,0.52734375,0,0
-9.65315166467917E-07,-1.79788639798062E-05,0.52734375,0,0
-2.4997100354085E-06,-1.9933786461479E-05,0.52734375,0,0
-2.59597345575457E-06,-2.07398352358723E-05,0.52734375,0,0
-1.26917359466461E-06,-1.9798759240075E-05,0.52734375,0,0
6.95474000167451E-07,-1.45739504660014E-05,0.52734375,0,0
1.08216647731751E-06,-1.99111254914897E-05,0.52734375,0,0
-1.92188451819675E-07,-1.35028803924797E-05,0.52734375,0,0
5.65951665976172E-07,-1.64343637152342E-05,0.52734375,0,0
2.06336790142814E-06,-1.3670782209374E-05,0.52734375,0,0
1.2989481774639E-06,-1.6733454685891E-05,0.52734375,0,0
1.01025364074303E-06,-1.57797967403894E-05,0.52734375,0,0
1.39013945954503E-06,-1.74781398527557E-05,0.52734375,0,0
2.33023934015364E-06,-1.79710204974981E-05,0.52734375,0,0
2.300516143805E-06,-1.86722845683107E-05,0.52734375,0,0
2.01436773750174E-06,-1.96247910935199E-05,0.52734375,0,0
2.41223756347608E-06,-1.90136724995682E-05,0.52734375,0,0
3.55684642272536E-06,-1.9924149455619E-05,0.52734375,0,0
4.20558717451058E-06,-2.04907646548236E-05,0.52734375,0,0
4.57312353319139E-06,-2.10518628591672E-05,0.52734375,0,0
4.89865487907082E-06,-1.83850224857451E-05,0.52734375,0,0
4.22154062107438E-06,-1.82124913408188E-05,0.52734375,0,0
4.07433390137157E-06,-1.76550511241658E-05,0.52734375,0,0
4.29273131885566E-06,-1.96124510694062E-05,0.52734375,0,0
3.35476943291724E-06,-2.09037061722483E-05,0.52734375,0,0
1.04948264834093E-06,-2.24625382543309E-05,0.52734375,0,0
-3.02673413443699E-07,-2.2206011635717E-05,0.52734375,0,0
8.94301479092974E-07,-2.12223603739403E-05,0.52734375,0,0
2.8054409995093E-06,-1.86095167009626E-05,0.52734375,0,0
2.78799393527152E-06,-1.76561497937655E-05,0.52734375,0,0
1.71704493823199E-06,-1.76663543243194E-05,0.52734375,0,0
1.6019184556626E-07,-1.8155431462219E-05,0.52734375,0,0
-1.35841915493984E-07,-1.62085088959429E-05,0.52734375,0,0
8.5845744024482E-07,-2.32827969739446E-05,0.52734375,0,0
1.37926053866977E-06,-1.87019068107475E-05,0.52734375,0,0
1.50133996612567E-06,-2.43604190472979E-05,0.52734375,0,0
2.9730742880929E-06,-2.16569715121295E-05,0.52734375,0,0
2.73122600447095E-06,-2.36905507335905E-05,0.52734375,0,0
6.52225878639001E-07,-2.20410420297412E-05,0.52734375,0,0
-1.40297208872653E-06,-2.23919942072826E-05,0.52734375,0,0
-1.15548141366162E-06,-2.03235431399662E-05,0.52734375,0,0
-4.32716348086615E-07,-1.88809608516749E-05,0.52734375,0,0
-5.50382878827804E-07,-1.89251131814672E-05,0.52734375,0,0
2.54374242558697E-07,-1.8672646547202E-05,0.52734375,0,0
2.52788436228002E-06,-1.96393084479496E-05,0.52734375,0,0
5.06767901242711E-06,-1.86567031050799E-05,0.52734375,0,0
5.7688071137818E-06,-1.81578470801469E-05,0.52734375,0,0
4.54366772828507E-06,-1.70956282090629E-05,0.52734375,0,0
2.97933934234607E-06,-1.95222019101493E-05,0.52734375,0,0
2.69510042016918E-06,-1.90364862646675E-05,0.52734375,0,0
3.19459491038288E-06,-1.772441828507E-05,0.52734375,0,0
3.47957825397316E-06,-1.44917657962651E-05,0.52734375,0,0
1.99785131371755E-06,-1.39738885991392E-05,0.52734375,0,0
2.38107745076377E-07,-1.33205421661842E-05,0.52734375,0,0
8.8079724491763E-07,-1.33401326820604E-05,0.52734375,0,0
3.15532952299691E-06,-1.3060872333881E-05,0.52734375,0,0
4.2722062971734E-06,-1.21117964226869E-05,0.52734375,0,0
3.60054355041939E-06,-1.03955408121692E-05,0.52734375,0,0
2.57218357546662E-06,-1.03775073512224E-05,0.52734375,0,0
1.35150366986636E-06,-7.65055938245496E-06,0.52734375,0,0
1.4195267112882E-06,-9.36443757382222E-06,0.52734375,0,0
1.71329668319231E-06,-7.0706178121327E-06,0.52734375,0,0
3.36306629833416E-06,-1.19944552352536E-05,0.52734375,0,0
2.27290206566977E-06,-1.16986084321979E-05,0.52734375,0,0
2.68485314336431E-06,-1.38622044687509E-05,0.52734375,0,0
3.94617973142886E-06,-1.39753428811673E-05,0.52734375,0,0
4.8186452659138E-06,-1.4776047464693E-05,0.52734375,0,0
5.03259116158006E-06,-1.46681004480342E-05,0.52734375,0,0
6.58938051856239E-06,-1.52473157868371E-05,0.52734375,0,0
8.42050849314546E-06,-1.60539129865356E-05,0.52734375,0,0
7.86148757470073E-06,-1.49016141222091E-05,0.52734375,0,0
5.85797533858567E-06,-1.51936346810544E-05,0.52734375,0,0
4.20224841946037E-06,-1.62235082825646E-05,0.52734375,0,0
4.17896126236883E-06,-1.81003015313763E-05,0.52734375,0,0
4.64415370515781E-06,-1.83142692549154E-05,0.52734375,0,0
4.69113228973583E-06,-1.92629195225891E-05,0.52734375,0,0
3.57330645783804E-06,-1.94206259038765E-05,0.52734375,0,0
2.99638372780464E-06,-2.09117024496663E-05,0.52734375,0,0
3.24124039252638E-06,-2.22147446038434E-05,0.52734375,0,0
3.52894176103291E-06,-2.32704023801489E-05,0.52734375,0,0
2.6835050448426E-06,-2.25747025979217E-05,0.52734375,0,0
1.47343496337271E-06,-2.19957510125823E-05,0.52734375,0,0
6.84423469010653E-07,-2.0734523786814E-05,0.52734375,0,0
5.7275786957689E-07,-1.90280534297926E-05,0.52734375,0,0
1.21615642001416E-06,-1.82711301022209E-05,0.52734375,0,0
1.29216527966491E-06,-1.77023011929123E-05,0.52734375,0,0
5.50689264855464E-07,-1.44235837069573E-05,0.52734375,0,0
1.4260622265283E-06,-2.17044162127422E-05,0.52734375,0,0
3.95356801163871E-06,-1.83557131094858E-05,0.52734375,0,0
6.52032395009883E-06,-2.23250572162215E-05,0.52734375,0,0
5.84186136620701E-06,-1.83401025424246E-05,0.52734375,0,0
5.01430758959032E-06,-1.89909642358543E-05,0.52734375,0,0
4.5604801925947E-06,-1.70940147654619E-05,0.52734375,0,0
3.80462461180286E-06,-1.75470577232772E-05,0.52734375,0,0
3.90522291127127E-06,-1.63053737196606E-05,0.52734375,0,0
5.50281356481719E-06,-1.66136560437735E-05,0.52734375,0,0
7.13124290996348E-06,-1.75862987816799E-05,0.52734375,0,0
7.35882895241957E-06,-1.75089080585167E-05,0.52734375,0,0
7.24193569112686E-06,-1.85277258424321E-05,0.52734375,0,0
6.69958581056562E-06,-1.71682422660524E-05,0.52734375,0,0
6.01058400206966E-06,-1.57761369337095E-05,0.52734375,0,0
6.33510353509337E-06,-1.40639440360246E-05,0.52734375,0,0
7.41225039746496E-06,-1.69050399563275E-05,0.52734375,0,0
7.92934952187352E-06,-1.9630182578112E-05,0.52734375,0,0
8.28244537842693E-06,-2.22014314203989E-05,0.52734375,0,0
9.0786425062106E-06,-2.07532812055433E-05,0.52734375,0,0
9.72238740359899E-06,-1.77941165020457E-05,0.52734375,0,0
8.99710630619666E-06,-1.31785636767745E-05,0.52734375,0,0
7.33280239728629E-06,-1.12699817691464E-05,0.52734375,0,0
6.33668696536915E-06,-1.16548526420956E-05,0.52734375,0,0
6.84337828715798E-06,-1.33152316266205E-05,0.52734375,0,0
7.9454966908088E-06,-1.38452842293191E-05,0.52734375,0,0
9.3335465862765E-06,-1.36705775730661E-05,0.52734375,0,0
6.09431344855693E-06,-1.02274298114935E-05,0.52734375,0,0
4.79642949358094E-06,-1.4761515558348E-05,0.52734375,0,0
-1.02064745988173E-06,-1.34818674268899E-05,0.52734375,0,0
1.69931070104212E-06,-1.90174814633792E-05,0.52734375,0,0
1.20557399441168E-06,-1.77268830157118E-05,0.52734375,0,0
3.40062138093344E-06,-1.83308566192864E-05,0.52734375,0,0
2.90587786366814E-06,-1.42433573273593E-05,0.52734375,0,0
2.53181792686519E-06,-1.14306185423629E-05,0.52734375,0,0
4.67118297819979E-07,-9.96389917418128E-06,0.52734375,0,0
-4.1877908074639E-07,-1.11275940071209E-05,0.52734375,0,0
-7.98912367372395E-07,-1.29934569486068E-05,0.52734375,0,0
-1.71872329701728E-06,-1.28578021758585E-05,0.52734375,0,0
4.61897002423939E-07,-1.3798719010083E-05,0.52734375,0,0
3.32055628859962E-06,-1.419606996933E-05,0.52734375,0,0
5.20861522090854E-06,-1.45930453072651E-05,0.52734375,0,0
4.02507794206031E-06,-1.31651086121565E-05,0.52734375,0,0
3.64490028914588E-06,-1.29596573970048E-05,0.52734375,0,0
3.30482748722716E-06,-1.12834086394287E-05,0.52734375,0,0
3.53718814949389E-06,-1.10733190012979E-05,0.52734375,0,0
2.49326967605157E-06,-1.21524763017078E-05,0.52734375,0,0
2.03192007575126E-06,-1.43354473038926E-05,0.52734375,0,0
1.91026560969476E-06,-1.43383958857157E-05,0.52734375,0,0
3.10495488520246E-06,-1.52491238623043E-05,0.52734375,0,0
3.41168356499111E-06,-1.73293919942807E-05,0.52734375,0,0
1.96502924154629E-06,-1.95277443708619E-05,0.52734375,0,0
7.06820770801642E-08,-2.00077975023305E-05,0.52734375,0,0
7.16461627803255E-08,-1.91813323908718E-05,0.52734375,0,0
5.67450058497343E-07,-1.46929141919827E-05,0.52734375,0,0
1.54101576299581E-06,-1.99904716282617E-05,0.52734375,0,0
1.37636254748941E-06,-1.50875521285343E-05,0.52734375,0,0
-4.51780870491802E-08,-2.10015277843922E-05,0.52734375,0,0
-6.35518460967432E-07,-1.88895755854901E-05,0.52734375,0,0
-1.43212866987596E-06,-1.97813860722817E-05,0.52734375,0,0
-1.64256084644876E-06,-1.61700263561215E-05,0.52734375,0,0
1.99460430394538E-07,-1.66241679835366E-05,0.52734375,0,0
1.82874248366716E-06,-1.63532367878361E-05,0.52734375,0,0
2.09754807656282E-06,-1.71236933965702E-05,0.52734375,0,0
9.55579253059113E-07,-1.81004143087193E-05,0.52734375,0,0
-5.03312492128316E-07,-1.7826932889875E-05,0.52734375,0,0
-2.30860246119846E-06,-1.85725330084097E-05,0.52734375,0,0
-5.89809587836498E-06,-1.85939152288483E-05,0.52734375,0,0
-1.02057210824569E-05,-2.0711373508675E-05,0.52734375,0,0
-1.2216058166814E-05,-2.02608789550141E-05,0.52734375,0,0
-1.07836758616031E-05,-2.13498205994256E-05,0.52734375,0,0
-8.08384356787428E-06,-2.17119868466398E-05,0.52734375,0,0
-7.17220063961577E-06,-2.34250746871112E-05,0.52734375,0,0
-7.87122371548321E-06,-2.30910718528321E-05,0.52734375,0,0
-7.61393084758311E-06,-2.37300191656686E-05,0.52734375,0,0
-7.71905979490839E-06,-2.23834122152766E-05,0.52734375,0,0
-9.52436130319256E-06,-2.09618574444903E-05,0.52734375,0,0
-1.04459359135944E-05,-1.90046139323385E-05,0.52734375,0,0
-9.10073140403256E-06,-1.88962367246859E-05,0.52734375,0,0
-6.17561818216927E-06,-1.88668691407656E-05,0.52734375,0,0
-2.8084141376894E-06,-1.82670391950523E-05,0.52734375,0,0
1.44461452578071E-07,-1.45724752655951E-05,0.52734375,0,0
1.76249352534796E-06,-2.12281938729575E-05,0.52734375,0,0
4.47215370513732E-06,-1.57887006935198E-05,0.52734375,0,0
6.9330358201114E-06,-1.68003916769521E-05,0.52734375,0,0
9.3861281129648E-06,-1.21628881970537E-05,0.52734375,0,0
1.08677613752661E-05,-1.53091314132325E-05,0.52734375,0,0
1.25777669381932E-05,-1.61664611368906E-05,0.52734375,0,0
1.39747617140529E-05,-1.80650386027992E-05,0.52734375,0,0
1.41482751132571E-05,-1.78975824383087E-05,0.52734375,0,0
1.51112171806744E-05,-1.99823261937127E-05,0.52734375,0,0
1.75554414454382E-05,-2.1774470951641E-05,0.52734375,0,0
1.93198538909201E-05,-2.09906029340345E-05,0.52734375,0,0
1.91693015949568E-05,-2.04185762413545E-05,0.52734375,0,0
1.89249767572619E-05,-1.9125791368424E-05,0.52734375,0,0
2.00749782379717E-05,-1.95716947928304E-05,0.52734375,0,0
2.16466232814128E-05,-1.80828465090599E-05,0.52734375,0,0
2.23712740989868E-05,-1.8286329577677E-05,0.52734375,0,0
2.17312353925081E-05,-1.8055188775179E-05,0.52734375,0,0
1.92655643331818E-05,-1.9323400920257E-05,0.52734375,0,0
1.62866908794967E-05,-1.86532979569165E-05,0.52734375,0,0
1.44308869494125E-05,-1.89501570275752E-05,0.52734375,0,0
1.43150737130782E-05,-1.72057134477654E-05,0.52734375,0,0
1.42007929753163E-05,-1.57406357175205E-05,0.52734375,0,0
1.20860504466691E-05,-1.3873374882678E-05,0.52734375,0,0
9.46496857068269E-06,-1.44408559208387E-05,0.52734375,0,0
8.94206459634006E-06,-1.72143645613687E-05,0.52734375,0,0
9.9007584140054E-06,-1.73297430592356E-05,0.52734375,0,0
6.92648427502718E-06,-1.15881939564133E-05,0.52734375,0,0
7.65112235967536E-06,-1.66975460160756E-05,0.52734375,0,0
2.36166010836314E-06,-1.52088487084256E-05,0.52734375,0,0
2.78887773674796E-06,-1.91663129953668E-05,0.52734375,0,0
2.5259672042921E-07,-1.40911379276076E-05,0.52734375,0,0
1.45620276725822E-06,-1.4491470210487E-05,0.52734375,0,0
3.68947354445481E-07,-1.4208048924047E-05,0.52734375,0,0
2.40703201370707E-07,-1.58414168254239E-05,0.52734375,0,0
3.31246553741948E-07,-1.50810747072683E-05,0.52734375,0,0
2.14902843254094E-06,-1.49853785842424E-05,0.52734375,0,0
3.84279519494157E-06,-1.58720395120326E-05,0.52734375,0,0
3.55528277395933E-06,-1.60654290084494E-05,0.52734375,0,0
3.06275751427165E-06,-1.70168768818257E-05,0.52734375,0,0
3.1656229566579E-06,-1.79597864189418E-05,0.52734375,0,0
5.24766664966592E-06,-2.0610319552361E-05,0.52734375,0,0
5.40496012035874E-06,-2.10746402444784E-05,0.52734375,0,0
5.55754104425432E-06,-2.12122777156765E-05,0.52734375,0,0
5.60243506697589E-06,-1.8189273760072E-05,0.52734375,0,0
6.15096723777242E-06,-1.61164716701023E-05,0.52734375,0,0
3.49463994098187E-06,-1.39643188958871E-05,0.52734375,0,0
4.31544755485902E-08,-1.41414875542978E-05,0.52734375,0,0
-2.43359272644739E-06,-1.4476935575658E-05,0.52734375,0,0
-3.12773909172392E-06,-1.53426044562366E-05,0.52734375,0,0
-3.89898332286975E-06,-1.4938442291168E-05,0.52734375,0,0
-3.75228410121053E-06,-1.54850949911634E-05,0.52734375,0,0
-2.90948878500785E-06,-1.77309739228804E-05,0.52734375,0,0
-1.48628487295355E-06,-1.99049809452845E-05,0.52734375,0,0
-1.20214576782018E-06,-1.40139682116569E-05,0.52734375,0,0
-2.81638449450838E-06,-1.83659994945629E-05,0.52734375,0,0
-3.46526257999358E-06,-1.32665109049412E-05,0.52734375,0,0
-3.0853798307362E-06,-1.91503895621281E-05,0.52734375,0,0
-2.01234479391132E-06,-1.80914830707479E-05,0.52734375,0,0
-2.88689557237376E-06,-2.14912633964559E-05,0.52734375,0,0
-4.28719158662716E-06,-1.94508611457422E-05,0.52734375,0,0
-7.18467072147178E-06,-1.98238903976744E-05,0.52734375,0,0
-1.04574392025825E-05,-2.02224855456734E-05,0.52734375,0,0
-1.20505874292576E-05,-2.22025719267549E-05,0.52734375,0,0
-1.17593599497923E-05,-2.32582660828484E-05,0.52734375,0,0
-1.0046570423583E-05,-2.21575210161973E-05,0.52734375,0,0
-9.01291514310287E-06,-2.21364116441691E-05,0.52734375,0,0
-9.01342991710408E-06,-2.19578669202747E-05,0.52734375,0,0
-9.57946940616239E-06,-2.28357312153094E-05,0.52734375,0,0
-1.00326651590876E-05,-2.11295318877092E-05,0.52734375,0,0
-9.26941083889687E-06,-2.15625605051173E-05,0.52734375,0,0
-7.04161766407196E-06,-2.1119096345501E-05,0.52734375,0,0
-5.58596411792678E-06,-2.14739102375461E-05,0.52734375,0,0
-5.25653604199761E-06,-1.8774502677843E-05,0.52734375,0,0
-4.36849586549215E-06,-1.74721881194273E-05,0.52734375,0,0
-3.16450586979045E-06,-1.80884817382321E-05,0.52734375,0,0
-2.80950257547374E-06,-2.01786624529632E-05,0.52734375,0,0
-2.33252785619698E-06,-1.76726625795709E-05,0.52734375,0,0
-6.93936442530685E-07,-1.48002109199297E-05,0.52734375,0,0
1.49320158016053E-06,-1.4519905562338E-05,0.52734375,0,0
3.46499086845142E-06,-1.538312426419E-05,0.52734375,0,0
3.79810921913304E-06,-1.2948903531651E-05,0.52734375,0,0
5.56381201022305E-06,-1.87630594155053E-05,0.52734375,0,0
5.06640799358138E-06,-1.54853751155315E-05,0.52734375,0,0
6.92036246618954E-06,-1.9437729861238E-05,0.52734375,0,0
6.19738602836151E-06,-1.6941607100307E-05,0.52734375,0,0
7.12859082341311E-06,-1.81671948666917E-05,0.52734375,0,0
7.1423351073463E-06,-1.56783225975232E-05,0.52734375,0,0
7.2668635766604E-06,-1.50337054947158E-05,0.52734375,0,0
7.00007831255789E-06,-1.33147286760504E-05,0.52734375,0,0
7.77930836193264E-06,-1.4003211617819E-05,0.52734375,0,0
9.25408221519319E-06,-1.58080638357205E-05,0.52734375,0,0
1.0889795703406E-05,-1.8023374650511E-05,0.52734375,0,0
1.33368621391128E-05,-2.13677030842518E-05,0.52734375,0,0
1.42025000968715E-05,-2.16736498259706E-05,0.703125,0,0
1.32045061036479E-05,-2.00730228243629E-05,0.703125,0,0
1.076627177099E-05,-1.50711266542203E-05,0.703125,0,0
9.06553304957924E-06,-1.36103008117061E-05,0.703125,0,0
7.97209122538334E-06,-1.33382081912714E-05,0.703125,0,0
7.57002453610767E-06,-1.47708224176313E-05,0.703125,0,0
6.35957121630781E-06,-1.44155492307618E-05,0.703125,0,0
5.62123750569299E-06,-1.48177969094831E-05,0.703125,0,0
5.40436030860292E-06,-1.32349814521149E-05,0.703125,0,0
4.16063585362281E-06,-1.24582256830763E-05,0.703125,0,0
1.60387878622714E-06,-1.19012493087212E-05,0.703125,0,0
-4.10191034916352E-07,-1.17901690828148E-05,0.703125,0,0
-2.52852942139725E-06,-1.07503792605712E-05,0.703125,0,0
-4.01505121772061E-06,-9.66367497312604E-06,0.703125,0,0
-3.09870779346966E-06,-8.31969737191685E-06,0.703125,0,0
-4.74787657367415E-06,-1.23153604363324E-05,0.703125,0,0
-3.99267446482554E-06,-1.10408627733705E-05,0.703125,0,0
-4.2042361201311E-06,-1.5005333807494E-05,0.703125,0,0
-2.52326685767912E-06,-1.35993996082107E-05,0.703125,0,0
-2.80452695733402E-06,-1.4148193258734E-05,0.703125,0,0
-3.30192870023893E-06,-1.50192236105795E-05,0.703125,0,0
-4.55231065643602E-06,-1.71311694430187E-05,0.703125,0,0
-3.55649558514415E-06,-1.67901853274088E-05,0.703125,0,0
-1.81358132067544E-06,-1.77960882865591E-05,0.703125,0,0
2.21587001192347E-07,-1.89470629265998E-05,0.703125,0,0
2.12935151466809E-06,-1.82995245268103E-05,0.703125,0,0
4.10031543651712E-06,-1.83892661880236E-05,0.703125,0,0
6.32744331596768E-06,-1.87351397471502E-05,0.703125,0,0
7.23889934306499E-06,-1.93325067812111E-05,0.703125,0,0
7.5971006481268E-06,-1.87142650247552E-05,0.703125,0,0
7.89970272307983E-06,-2.02651262952713E-05,0.703125,0,0
1.02478979897569E-05,-1.98719408217585E-05,0.703125,0,0
1.30037942653871E-05,-1.92007173609454E-05,0.703125,0,0
1.48737999552395E-05,-1.92510451597627E-05,0.703125,0,0
1.41173741212697E-05,-2.14003084693104E-05,0.703125,0,0
1.21772245620377E-05,-2.29837896768004E-05,0.703125,0,0
1.0474613191036E-05,-2.41433444898576E-05,0.703125,0,0
1.00638972071465E-05,-2.45279170485446E-05,0.703125,0,0
1.03921056506806E-05,-2.43647064053221E-05,0.703125,0,0
1.02226103990688E-05,-2.33014343393734E-05,0.703125,0,0
7.57983252697159E-06,-2.18457516893977E-05,0.703125,0,0
3.51562493960955E-06,-1.64592875080416E-05,0.703125,0,0
4.66270876131603E-06,-2.30355763051193E-05,0.703125,0,0
3.99474765799823E-06,-1.66262416314567E-05,0.703125,0,0
5.48199750483036E-06,-2.08352121262578E-05,0.703125,0,0
4.28208795710816E-06,-1.803868690331E-05,0.703125,0,0
6.47481738269562E-06,-2.04704811039846E-05,0.703125,0,0
9.60988381848438E-06,-1.9001334294444E-05,0.703125,0,0
1.48012968566036E-05,-2.05472915695282E-05,0.703125,0,0
1.97232966456795E-05,-2.00371487153461E-05,0.703125,0,0
2.40356948779663E-05,-2.07675711862976E-05,0.703125,0,0
2.62890080193756E-05,-2.14272495213663E-05,0.703125,0,0
2.65213475358905E-05,-2.05280066438718E-05,0.703125,0,0
2.63184901996283E-05,-1.94668700714828E-05,0.703125,0,0
2.43175654759398E-05,-1.61341122293379E-05,0.703125,0,0
2.03492581931641E-05,-1.55241395987105E-05,0.703125,0,0
1.57559989020228E-05,-1.5004745364422E-05,0.703125,0,0
1.40448510137503E-05,-1.72476829902735E-05,0.703125,0,0
1.23946338135283E-05,-1.73795378941577E-05,0.703125,0,0
1.00676943475264E-05,-1.89781949302414E-05,0.703125,0,0
7.04979674992501E-06,-1.92632141988724E-05,0.703125,0,0
4.13246834796155E-06,-2.05833603104111E-05,0.703125,0,0
1.91275353245146E-06,-2.01475177163957E-05,0.703125,0,0
2.18687955566566E-06,-2.1083162209834E-05,0.703125,0,0
2.23465235649201E-06,-2.22993257921189E-05,0.703125,0,0
3.30082087884875E-07,-2.27330692723626E-05,0.703125,0,0
-1.52635391259537E-06,-2.1991287212586E-05,0.703125,0,0
-1.8081614143739E-06,-2.18003387999488E-05,0.703125,0,0
-1.75120021594921E-06,-1.6487889297423E-05,0.703125,0,0
-2.66562346951105E-06,-2.07699722523103E-05,0.703125,0,0
-2.97632027468353E-06,-1.31590641103685E-05,0.703125,0,0
-3.99474629375618E-06,-1.77590845851228E-05,0.703125,0,0
-4.84134534417535E-06,-1.42592734846403E-05,0.703125,0,0
-8.87231453816639E-06,-1.73215739778243E-05,0.703125,0,0
-1.20057475214708E-05,-1.6193476767512E-05,0.703125,0,0
-1.40519041451626E-05,-1.90803875739221E-05,0.703125,0,0
-1.42316157507594E-05,-1.89300935744541E-05,0.703125,0,0
-1.30649759739754E-05,-1.70893927133875E-05,0.703125,0,0
-1.1372848348401E-05,-1.59024402819341E-05,0.703125,0,0
-1.06857896753354E-05,-1.48320141306613E-05,0.703125,0,0
-1.18871121230768E-05,-1.52402171806898E-05,0.703125,0,0
-1.31364286062308E-05,-1.34540832732455E-05,0.703125,0,0
-1.38613886520034E-05,-1.38451223392622E-05,0.703125,0,0
-1.45629601320252E-05,-1.36978060254478E-05,0.703125,0,0
-1.56900296133244E-05,-1.60820218297886E-05,0.703125,0,0
-1.5284747860278E-05,-1.51225231093122E-05,0.703125,0,0
-1.35334330479964E-05,-1.60859308380168E-05,0.703125,0,0
-1.05946519397548E-05,-1.77887377503794E-05,0.703125,0,0
-8.68124971020734E-06,-2.12768700293964E-05,0.703125,0,0
-8.82370022736723E-06,-2.2206011635717E-05,0.703125,0,0
-1.04574228316778E-05,-2.22884591494221E-05,0.703125,0,0
-1.0493411537027E-05,-2.06336226256099E-05,0.703125,0,0
-8.17035197542282E-06,-2.00866033992497E-05,0.703125,0,0
-7.48471711631282E-06,-1.95529337361222E-05,0.703125,0,0
-9.53904600464739E-06,-1.87675304914592E-05,0.703125,0,0
-9.65722938417457E-06,-1.48670269481954E-05,0.703125,0,0
-1.42729713843437E-05,-2.26454303628998E-05,0.703125,0,0
-9.0782823463087E-06,-1.90235441550612E-05,0.703125,0,0
-5.81504355068319E-06,-2.12714494409738E-05,0.703125,0,0
2.39977066485153E-06,-1.64544126164401E-05,0.703125,0,0
5.16731506650103E-06,-1.84442451427458E-05,0.703125,0,0
8.34099409985356E-06,-1.65629226103192E-05,0.703125,0,0
9.75940565695055E-06,-1.57697177201044E-05,0.703125,0,0
1.14391668830649E-05,-1.44538216773071E-05,0.703125,0,0
1.29051104522659E-05,-1.43602328535053E-05,0.703125,0,0
1.4719838873134E-05,-1.44722034747247E-05,0.703125,0,0
1.72002546605654E-05,-1.28944921016227E-05,0.703125,0,0
1.83793999894988E-05,-1.25298447528621E-05,0.703125,0,0
1.95755346794613E-05,-1.19741844173404E-05,0.703125,0,0
2.03153285838198E-05,-1.3554693396145E-05,0.703125,0,0
2.29018824029481E-05,-1.35799318741192E-05,0.703125,0,0
2.363233397773E-05,-1.47599030242418E-05,0.703125,0,0
2.33137307077413E-05,-1.4176814147504E-05,0.703125,0,0
2.08225173992105E-05,-1.60904473887058E-05,0.703125,0,0
1.84094369615195E-05,-1.75321947608609E-05,0.703125,0,0
1.49733014040976E-05,-1.88221765711205E-05,0.703125,0,0
1.2818124559999E-05,-1.8419215848553E-05,0.703125,0,0
1.09742859422113E-05,-1.87734713108512E-05,0.703125,0,0
9.44579824135872E-06,-2.0367779143271E-05,0.703125,0,0
9.19306148716714E-06,-2.25478088395903E-05,0.703125,0,0
1.05572553366073E-05,-2.17388278542785E-05,0.703125,0,0
1.1651786735456E-05,-1.9911627532565E-05,0.703125,0,0
8.52105222293176E-06,-1.51149388329941E-05,0.703125,0,0
1.22496776384651E-05,-1.93730156752281E-05,0.703125,0,0
8.72698183229659E-06,-1.10430901258951E-05,0.703125,0,0
8.43926682136953E-06,-1.40961192300892E-05,0.703125,0,0
3.5796947486233E-06,-1.25804872368462E-05,0.703125,0,0
3.07606023852713E-06,-1.64223001775099E-05,0.703125,0,0
4.5451102437255E-07,-1.42838225656305E-05,0.703125,0,0
-4.63572433773152E-07,-1.43153147291741E-05,0.703125,0,0
-2.51385768024193E-06,-1.3917561773269E-05,0.703125,0,0
-3.64679044650984E-06,-1.54462359205354E-05,0.703125,0,0
-4.95223684993107E-06,-1.72737236425746E-05,0.703125,0,0
-6.48007062409306E-06,-1.78335358214099E-05,0.703125,0,0
-6.97312088959734E-06,-1.87579134944826E-05,0.703125,0,0
-7.54817028791877E-06,-1.78065965883434E-05,0.703125,0,0
-7.92839182395255E-06,-1.84392683877377E-05,0.703125,0,0
-8.77025377121754E-06,-1.85089411388617E-05,0.703125,0,0
-6.79014510751585E-06,-2.22887138079386E-05,0.703125,0,0
-5.04092759001651E-06,-2.39585715462454E-05,0.703125,0,0
-3.36077687279612E-06,-2.55743652814999E-05,0.703125,0,0
-3.71248347619257E-06,-2.44265083892969E-05,0.703125,0,0
-2.80951007880503E-06,-2.37926960835466E-05,0.703125,0,0
-2.32835941460507E-06,-2.26359225052875E-05,0.703125,0,0
-7.06070636624645E-07,-2.37404765357496E-05,0.703125,0,0
-1.24645524124389E-07,-2.47214575210819E-05,0.703125,0,0
1.19998765057971E-06,-2.52021836786298E-05,0.703125,0,0
3.74736532648967E-06,-2.33008777286159E-05,0.703125,0,0
3.50253321812488E-06,-2.04878251679474E-05,0.703125,0,0
-1.22930657653342E-07,-1.70298135344638E-05,0.703125,0,0
-3.36355697072577E-06,-2.61495315498905E-05,0.703125,0,0
-6.99179645380354E-06,-2.08059627766488E-05,0.703125,0,0
-7.43134387448663E-06,-2.23622992052697E-05,0.703125,0,0
-6.4389996623504E-06,-1.54456647578627E-05,0.703125,0,0
-3.89865635952447E-06,-1.40268175528035E-05,0.703125,0,0
-1.18259731607395E-06,-1.13686437543947E-05,0.703125,0,0
1.58921125148481E-06,-1.30920770970988E-05,0.703125,0,0
3.26410599882365E-06,-1.36838352773339E-05,0.703125,0,0
4.13517727793078E-06,-1.35825121105881E-05,0.703125,0,0
6.13550946582109E-06,-1.33361836560653E-05,0.703125,0,0
9.67911455518333E-06,-1.41168629852473E-05,0.703125,0,0
1.34115643959376E-05,-1.81282866833499E-05,0.703125,0,0
1.45623725984478E-05,-2.06522490771022E-05,0.703125,0,0
1.39942985697417E-05,-2.19375106098596E-05,0.703125,0,0
1.43573743116576E-05,-1.89820257219253E-05,0.703125,0,0
1.58370094140992E-05,-1.75178611243609E-05,0.703125,0,0
1.70627481566044E-05,-1.55123179865768E-05,0.703125,0,0
1.7024094631779E-05,-1.5934492694214E-05,0.703125,0,0
1.49305169543368E-05,-1.52034735947382E-05,0.703125,0,0
1.31784663608414E-05,-1.57101567310747E-05,0.703125,0,0
1.24532216432272E-05,-1.61763146024896E-05,0.703125,0,0
1.13491505544516E-05,-1.65144592756405E-05,0.703125,0,0
8.44527949084295E-06,-1.54033750732196E-05,0.703125,0,0
4.8911579142441E-06,-1.53488253999967E-05,0.703125,0,0
2.66516144620255E-06,-1.44232171805925E-05,0.703125,0,0
2.24938844439748E-06,-1.36599901452428E-05,0.703125,0,0
3.95705598066343E-07,-1.18741145342938E-05,0.703125,0,0
-1.77263052592025E-06,-1.66733098012628E-05,0.703125,0,0
-4.77934008813463E-06,-1.22928331620642E-05,0.703125,0,0
-5.2575314839487E-06,-1.44954474308179E-05,0.703125,0,0
-5.80076084588654E-06,-1.16240798888612E-05,0.703125,0,0
-5.5052319112292E-06,-1.30876223920495E-05,0.703125,0,0
-5.37314917892218E-06,-1.28212977870135E-05,0.703125,0,0
-4.9503050831845E-06,-1.49391826198553E-05,0.703125,0,0
-4.2012102312583E-06,-1.40380680022645E-05,0.703125,0,0
-3.55067686541588E-06,-1.33265521071735E-05,0.703125,0,0
-3.71678197552683E-06,-1.2317560504016E-05,0.703125,0,0
-3.30053512698214E-06,-1.08525382529479E-05,0.703125,0,0
-1.89278978268703E-06,-1.30341368276277E-05,0.703125,0,0
-6.90592628416198E-07,-1.42843809953774E-05,0.703125,0,0
3.24787379213376E-07,-1.42489343488705E-05,0.703125,0,0
1.24630355458066E-06,-1.16602514026454E-05,0.703125,0,0
1.93232654055464E-06,-1.2393295946822E-05,0.703125,0,0
1.72137515619397E-06,-1.35971558847814E-05,0.703125,0,0
5.35928904810135E-07,-1.55446687131189E-05,0.703125,0,0
-1.75275454239454E-06,-1.51536323755863E-05,0.703125,0,0
-2.98701525025535E-06,-1.56618971232092E-05,0.703125,0,0
-3.20394906339061E-06,-1.68243514053756E-05,0.703125,0,0
-4.19567913922947E-06,-1.8977269064635E-05,0.703125,0,0
-6.78761216477142E-06,-1.95986995095154E-05,0.703125,0,0
-8.37938114273129E-06,-1.92894567589974E-05,0.703125,0,0
-8.07471587904729E-06,-1.89342608791776E-05,0.703125,0,0
-7.74259024183266E-06,-1.97052140720189E-05,0.703125,0,0
-5.56457143829903E-06,-1.6475818483741E-05,0.703125,0,0
-7.42646489015897E-06,-2.23606402869336E-05,0.703125,0,0
-5.26486428498174E-06,-1.54366171045695E-05,0.703125,0,0
-7.31067621018155E-06,-1.92052484635497E-05,0.703125,0,0
-6.4487726376683E-06,-1.57494123413926E-05,0.703125,0,0
-8.66258596943226E-06,-1.74697761394782E-05,0.703125,0,0
-9.85937731456943E-06,-1.54446915985318E-05,0.703125,0,0
-1.07275782283978E-05,-1.81883297045715E-05,0.703125,0,0
-9.44886051001959E-06,-1.90184327948373E-05,0.703125,0,0
-6.90499246047693E-06,-2.03463205252774E-05,0.703125,0,0
-4.59800185126369E-06,-2.10454636544455E-05,0.703125,0,0
-3.1046442927618E-06,-1.99657006305642E-05,0.703125,0,0
-1.51007714066509E-06,-2.05472661036765E-05,0.703125,0,0
1.57838769609953E-06,-2.01251641556155E-05,0.703125,0,0
3.20704589285015E-06,-2.11989681702107E-05,0.703125,0,0
4.58573322248412E-06,-1.95412703760667E-05,0.703125,0,0
7.08873494659201E-06,-1.97848385141697E-05,0.703125,0,0
1.21623888844624E-05,-1.8696428014664E-05,0.703125,0,0
1.6264470104943E-05,-1.95486609300133E-05,0.703125,0,0
1.81474188138964E-05,-1.80258848558879E-05,0.703125,0,0
1.67282432812499E-05,-1.78282389242668E-05,0.703125,0,0
1.45298481584177E-05,-1.72199543158058E-05,0.703125,0,0
1.27285793496412E-05,-1.80542047019117E-05,0.703125,0,0
1.26044169519446E-05,-1.79680246219505E-05,0.703125,0,0
1.249386514246E-05,-1.73497101059183E-05,0.703125,0,0
1.16022247311776E-05,-1.64934572239872E-05,0.703125,0,0
9.78966636466794E-06,-1.63786535267718E-05,0.703125,0,0
7.86808141128859E-06,-1.2536999747681E-05,0.703125,0,0
1.19085607366287E-05,-1.63457607413875E-05,0.703125,0,0
9.10363905859413E-06,-1.1480041393952E-05,0.703125,0,0
1.02470148704015E-05,-1.60820618475555E-05,0.703125,0,0
1.02999138107407E-05,-1.3098041563353E-05,0.703125,0,0
1.50467358253081E-05,-1.33890562210581E-05,0.703125,0,0
1.59575738507556E-05,-1.01159639598336E-05,0.703125,0,0
1.53727451106533E-05,-9.0692556113936E-06,0.703125,0,0
1.25423493955168E-05,-8.01086662249872E-06,0.703125,0,0
9.58525470196037E-06,-8.74143279361306E-06,0.703125,0,0
6.96420420354116E-06,-9.61005753197242E-06,0.703125,0,0
5.14386783834198E-06,-9.27759447222343E-06,0.703125,0,0
4.59111288364511E-06,-1.02996218629414E-05,0.703125,0,0
2.95086010737577E-06,-9.87638031801907E-06,0.703125,0,0
2.01841749003506E-06,-1.06099969343632E-05,0.703125,0,0
9.70489395513141E-07,-1.08455778899952E-05,0.703125,0,0
1.81934183274279E-06,-1.42850049087428E-05,0.703125,0,0
2.36509163187293E-06,-1.67388443514938E-05,0.703125,0,0
2.46592298935866E-06,-1.9494334992487E-05,2.98828125,0,0
8.86832225432954E-08,-1.9800683730864E-05,2.98828125,0,0
-1.49175707520044E-06,-2.11368078453233E-05,2.98828125,0,0
-1.67715325005702E-06,-2.23807255679276E-05,2.98828125,0,0
4.98069923082767E-08,-2.35928546317155E-05,2.98828125,0,0
9.67557411968301E-07,-2.42423229792621E-05,2.98828125,0,0
2.16810599340533E-06,-2.51239653152879E-05,2.98828125,0,0
3.83727592634386E-06,-2.43201702687657E-05,2.98828125,0,0
5.05900197822484E-06,-2.20885467570042E-05,2.98828125,0,0
7.09518462826964E-06,-1.46971824506181E-05,2.98828125,0,0
1.10955606942298E-05,-1.90675382327754E-05,2.98828125,0,0
1.06104898804915E-05,-1.40053080031066E-05,2.98828125,0,0
1.49820552906021E-05,-1.9480312403175E-05,2.98828125,0,0
1.69503091456136E-05,-1.59160808834713E-05,2.98828125,0,0
2.06089516723296E-05,-1.69702743733069E-05,2.98828125,0,0
2.24482064368203E-05,-1.42200915433932E-05,2.98828125,0,0
2.59496264334302E-05,-1.62336800713092E-05,2.98828125,0,0
2.93308276013704E-05,-1.58573402586626E-05,2.98828125,0,0
3.20986946462654E-05,-1.59670562425163E-05,2.98828125,0,0
3.31217779603321E-05,-1.63564618560486E-05,2.98828125,0,0
3.12488446070347E-05,-1.49409052028204E-05,2.98828125,0,0
2.79331034107599E-05,-1.51614804053679E-05,2.98828125,0,0
2.26326083065942E-05,-1.39208641485311E-05,2.98828125,0,0
1.84037889994215E-05,-1.35569362100796E-05,2.98828125,0,0
1.36633780130069E-05,-1.24689540825784E-05,2.98828125,0,0
9.26823668123689E-06,-1.5304134649341E-05,2.98828125,0,0
4.6673358156113E-06,-1.62396827363409E-05,2.98828125,0,0
1.54032170485152E-06,-1.69964150700253E-05,2.98828125,0,0
-1.94846415979555E-06,-1.50297628351836E-05,2.98828125,0,0
-3.96605855712551E-06,-1.43548040796304E-05,2.98828125,0,0
-5.81179074288229E-06,-1.26630948216189E-05,2.98828125,0,0
-7.71278155298205E-06,-1.18911566460156E-05,2.98828125,0,0
-9.46687760006171E-06,-1.14974709504168E-05,2.98828125,0,0
-1.00576762633864E-05,-1.17335312097566E-05,2.98828125,0,0
-1.05641438494786E-05,-1.13659934868338E-05,2.98828125,0,0
-1.11936615212471E-05,-1.37903016366181E-05,2.98828125,0,0
-8.54412792250514E-06,-1.5135713510972E-05,2.98828125,0,0
-1.18296293294406E-05,-2.22430135181639E-05,2.98828125,0,0
-8.18148237158312E-06,-1.70383809745545E-05,2.98828125,0,0
-9.66278184932889E-06,-2.1222074792604E-05,2.98828125,0,0
-7.53683934817673E-06,-1.87263667612569E-05,2.98828125,0,0
-9.78952539298916E-06,-1.98594680114184E-05,2.98828125,0,0
-1.18046846182551E-05,-1.88180383702274E-05,2.98828125,0,0
-1.6998343198793E-05,-1.96496057469631E-05,2.98828125,0,0
-1.96392757061403E-05,-1.82409658009419E-05,2.98828125,0,0
-1.96519049495691E-05,-1.69409031514078E-05,2.98828125,0,0
-1.71104093169561E-05,-1.80192091647768E-05,2.98828125,0,0
-1.45815583891817E-05,-1.90723767445888E-05,2.98828125,0,0
-1.47986984302406E-05,-2.02375922526699E-05,2.98828125,0,0
-1.52546863319003E-05,-2.08233741432196E-05,2.98828125,0,0
-1.61973021022277E-05,-2.2262247512117E-05,2.98828125,0,0
-1.50953983393265E-05,-1.99700079974718E-05,2.98828125,0,0
-1.49495963341906E-05,-1.83227402885677E-05,2.98828125,0,0
-1.30625785459415E-05,-1.66377849382116E-05,2.98828125,0,0
-1.05113513200195E-05,-1.77123802131973E-05,2.98828125,0,0
-5.6938074521895E-06,-1.76139983523171E-05,2.98828125,0,0
-2.70539953817206E-06,-1.7664495317149E-05,2.98828125,0,0
-2.30665455092094E-06,-1.64517896337202E-05,2.98828125,0,0
-4.24468407800305E-06,-1.6546406186535E-05,2.98828125,0,0
-6.58857743474073E-06,-1.72897816810291E-05,2.98828125,0,0
-8.1940952441073E-06,-1.88187786989147E-05,2.98828125,0,0
-7.41347366783884E-06,-1.84109649126185E-05,2.98828125,0,0
-4.21979257225757E-06,-1.69836548593594E-05,2.98828125,0,0
9.31819727156835E-07,-1.40291076604626E-05,2.98828125,0,0
4.92547360408935E-06,-1.91354774869978E-05,2.98828125,0,0
1.05959816210088E-05,-1.29160916912952E-05,2.98828125,0,0
1.57145295816008E-05,-1.5574067219859E-05,2.98828125,0,0
1.85849276022054E-05,-1.26324839584413E-05,2.98828125,0,0
1.95172578969505E-05,-1.52775155584095E-05,2.98828125,0,0
1.94534550246317E-05,-1.44961004480137E-05,2.98828125,0,0
1.79206326720305E-05,-1.52061529661296E-05,2.98828125,0,0
1.63799832080258E-05,-1.42429807965527E-05,2.98828125,0,0
1.65639703482157E-05,-1.4058151464269E-05,2.98828125,0,0
1.81375198735623E-05,-1.39080593726248E-05,2.98828125,0,0
1.83830179594224E-05,-1.31738661366398E-05,2.98828125,0,0
1.70383027580101E-05,-1.39657167892437E-05,2.98828125,0,0
1.51819558595889E-05,-1.37986644404009E-05,2.98828125,0,0
1.35737454911578E-05,-1.42660810524831E-05,2.98828125,0,0
1.23700565382023E-05,-1.34934962261468E-05,2.98828125,0,0
1.14759050120483E-05,-1.58559287228854E-05,2.98828125,0,0
1.1161222573719E-05,-1.69035283761332E-05,2.98828125,0,0
1.10046294139465E-05,-1.87107652891427E-05,2.98828125,0,0
1.1383305718482E-05,-1.81584509846289E-05,2.98828125,0,0
1.14512758955243E-05,-1.83865831786534E-05,2.98828125,0,0
9.46981072047492E-06,-1.82163566933014E-05,2.98828125,0,0
6.12796793575399E-06,-1.91498602362117E-05,2.98828125,0,0
4.26547330789617E-06,-1.97456301975762E-05,2.98828125,0,0
4.21631511926535E-06,-2.15289292100351E-05,2.98828125,0,0
4.87343504573801E-06,-2.23865390580613E-05,2.98828125,0,0
3.97596795664867E-06,-2.20995607378427E-05,2.98828125,0,0
2.61977703530647E-07,-1.71437222888926E-05,2.98828125,0,0
-1.83677013865235E-06,-2.32102993322769E-05,2.98828125,0,0
-3.08904100165819E-06,-1.60958406922873E-05,2.98828125,0,0
-1.74767774296924E-06,-2.06616969080642E-05,2.98828125,0,0
-1.30805892695207E-06,-1.69999948411714E-05,2.98828125,0,0
3.77416085939331E-07,-2.00776885321829E-05,2.98828125,0,0
1.39270582621975E-06,-1.93239138752688E-05,2.98828125,0,0
2.54185806625173E-06,-1.94965341506759E-05,2.98828125,0,0
1.903134375425E-06,-1.68681326613296E-05,2.98828125,0,0
-1.66867471307341E-06,-1.64066696015652E-05,2.98828125,0,0
-4.97743531013839E-06,-1.70155599334976E-05,2.98828125,0,0
-4.50126344730961E-06,-1.74314409377985E-05,2.98828125,0,0
-1.3713682847083E-06,-1.99743262783159E-05,2.98828125,0,0
4.46856915914395E-07,-2.03834151761839E-05,2.98828125,0,0
3.01338133112949E-07,-2.19011617446085E-05,2.98828125,0,0
1.50818806332609E-07,-2.10113703360548E-05,2.98828125,0,0
2.18542868424265E-06,-2.09964000532636E-05,2.98828125,0,0
5.46197634321288E-06,-1.87644072866533E-05,2.98828125,0,0
7.43338978281827E-06,-1.86651705007534E-05,2.98828125,0,0
7.19122817827156E-06,-1.78384416358313E-05,2.98828125,0,0
7.85002885095309E-06,-2.03070321731502E-05,2.98828125,0,0
9.11007464310387E-06,-2.12858103623148E-05,2.98828125,0,0
9.30600799620152E-06,-2.03523304662667E-05,2.98828125,0,0
8.94458844413748E-06,-1.79339040187187E-05,2.98828125,0,0
8.59715692058671E-06,-1.67897105711745E-05,2.98828125,0,0
7.93172694102395E-06,-1.63960685313214E-05,2.98828125,0,0
1.00779025160591E-05,-1.70491603057599E-05,2.98828125,0,0
1.15537113742903E-05,-1.32212444441393E-05,2.98828125,0,0
1.72546697285725E-05,-1.84942728083115E-05,2.98828125,0,0
1.40466618177015E-05,-1.44431851367699E-05,2.98828125,0,0
1.86611232493306E-05,-1.81299765245058E-05,2.98828125,0,0
2.02554310817504E-05,-1.4627427844971E-05,2.98828125,0,0
2.57089268416166E-05,-1.66318914125441E-05,2.98828125,0,0
2.5689843823784E-05,-1.68405022122897E-05,2.98828125,0,0
2.49590048042592E-05,-2.00668982870411E-05,2.98828125,0,0
2.28963072004262E-05,-2.07953125936911E-05,2.98828125,0,0
2.17013966903323E-05,-2.18089880945627E-05,2.98828125,0,0
2.09265144803794E-05,-2.30894784181146E-05,2.98828125,0,0
1.9276112652733E-05,-2.15459203900537E-05,2.98828125,0,0
1.84229720616713E-05,-1.99892219825415E-05,2.98828125,0,0
1.69188788277097E-05,-1.7320693586953E-05,2.98828125,0,0
1.63982313097222E-05,-1.63552213052753E-05,2.98828125,0,0
1.44530167744961E-05,-1.48344588524196E-05,2.98828125,0,0
1.3030863556196E-05,-1.5918481949484E-05,2.98828125,0,0
9.11579536477802E-06,-1.48147855725256E-05,2.98828125,0,0
5.93819368077675E-06,-1.42059607242118E-05,2.98828125,0,0
3.12317138195795E-06,-1.36315320560243E-05,2.98828125,0,0
1.69831423590949E-06,-1.5273744793376E-05,2.98828125,0,0
-1.39609517191275E-06,-1.59327046276303E-05,2.98828125,0,0
-4.37593962487881E-06,-1.68356637004763E-05,2.98828125,0,0
-7.71365648688516E-06,-1.60192776093027E-05,2.98828125,0,0
-1.01587738754461E-05,-1.56640253408113E-05,2.98828125,0,0
-1.17915587907191E-05,-1.67899688676698E-05,2.98828125,0,0
-1.33778230519965E-05,-1.64625198522117E-05,2.98828125,0,0
-1.23291711133788E-05,-1.07581154225045E-05,2.98828125,0,0
-1.87216301128501E-05,-1.3709098311665E-05,2.98828125,0,0
-1.57763552124379E-05,-1.06256084109191E-05,2.98828125,0,0
-2.08590718102641E-05,-1.70233270182507E-05,2.98828125,0,0
-1.90942919289228E-05,-1.63298100233078E-05,2.98828125,0,0
-1.97036952158669E-05,-1.92607403732836E-05,2.98828125,0,0
-1.73695498233428E-05,-2.07203011086676E-05,2.98828125,0,0
-1.70706443896052E-05,-2.43781196331838E-05,2.98828125,0,0
-1.62207925313851E-05,-2.47575298999436E-05,2.98828125,0,0
-1.55407960846787E-05,-2.3949234673637E-05,2.98828125,0,0
-1.43163415486924E-05,-2.23469178308733E-05,2.98828125,0,0
-1.30007974803448E-05,-1.90804294106783E-05,2.98828125,0,0
-1.32212589960545E-05,-1.6915621017688E-05,2.98828125,0,0
-1.35494474307052E-05,-1.53424625750631E-05,2.98828125,0,0
-1.44266014103778E-05,-1.69882241607411E-05,2.98828125,0,0
-1.28593364934204E-05,-1.78534883161774E-05,2.98828125,0,0
-1.27193206935772E-05,-1.89893926290097E-05,2.98828125,0,0
-1.21304074127693E-05,-1.71294814208522E-05,2.98828125,0,0
-1.34985202748794E-05,-1.54385998030193E-05,2.98828125,0,0
-1.42697081173537E-05,-1.34651045300416E-05,2.98828125,0,0
-1.67017151397886E-05,-1.41770960908616E-05,2.98828125,0,0
-1.83369775186293E-05,-1.50822206705925E-05,2.98828125,0,0
-1.9753584638238E-05,-1.6536156181246E-05,2.98828125,0,0
-2.02208448172314E-05,-1.73899261426413E-05,2.98828125,0,0
-2.02654791792156E-05,-1.73342396010412E-05,2.98828125,0,0
-1.92633888218552E-05,-1.58501952682855E-05,8.61328125,0,0
-1.88655540114269E-05,-1.52436641656095E-05,8.61328125,0,0
-1.56431524374057E-05,-1.29422232930665E-05,8.61328125,0,0
-2.1477475456777E-05,-1.94278163689887E-05,8.61328125,0,0
-1.44134364745696E-05,-1.69383183674654E-05,8.61328125,0,0
-1.6082154616015E-05,-1.96125820366433E-05,8.61328125,0,0
-9.92118384601781E-06,-1.44177156471414E-05,8.61328125,0,0
-1.00744000519626E-05,-1.49726320159971E-05,8.61328125,0,0
-6.26393421043758E-06,-1.27627299661981E-05,8.61328125,0,0
-3.52926349478366E-06,-1.14260319605819E-05,8.61328125,0,0
1.86836712146032E-06,-8.78749415278435E-06,8.61328125,0,0
5.13967461301945E-06,-8.81840878719231E-06,8.61328125,0,0
6.85720578985638E-06,-9.69116717897123E-06,8.61328125,0,0
1.03836218841025E-05,-8.80376774148317E-06,8.61328125,0,0
1.31295419123489E-05,-9.40922745940043E-06,8.61328125,0,0
1.62902597367065E-05,-1.01629366326961E-05,8.61328125,0,0
1.66591053130105E-05,-1.29800546346814E-05,8.61328125,0,0
1.94996318896301E-05,-1.46420952660264E-05,8.61328125,0,0
2.12745308090234E-05,-1.72629988810513E-05,8.61328125,0,0
2.51819856202928E-05,-1.77916099346476E-05,8.61328125,0,0
2.76257760560839E-05,-1.87848545465386E-05,8.61328125,0,0
2.97759434033651E-05,-1.76273879333166E-05,8.61328125,0,0
2.93074444925878E-05,-1.69555769389262E-05,8.61328125,0,0
2.90345342364162E-05,-1.53900873556267E-05,8.61328125,0,0
2.6146175514441E-05,-1.53372657223372E-05,8.61328125,0,0
2.24351497308817E-05,-1.64482680702349E-05,8.61328125,0,0
1.74030847119866E-05,-1.78456084540812E-05,8.61328125,0,0
1.39173198476783E-05,-1.77233541762689E-05,8.61328125,0,0
1.18907701107673E-05,-1.90022419701563E-05,8.61328125,0,0
7.01187673257664E-06,-1.74277811311185E-05,8.61328125,0,0
7.236852979986E-06,-2.50307730311761E-05,8.61328125,0,0
1.76022581399593E-06,-1.92635707207955E-05,8.61328125,0,0
3.98165775550297E-06,-2.47660318564158E-05,8.61328125,0,0
5.19126569997752E-06,-2.41708967223531E-05,8.61328125,0,0
1.10597693492309E-05,-2.90009356831433E-05,8.61328125,0,0
1.30901298689423E-05,-2.64038535533473E-05,8.61328125,0,0
1.44981249832199E-05,-2.5471395929344E-05,8.61328125,0,0
1.29300515254727E-05,-2.62009216385195E-05,8.61328125,0,0
1.15183438538224E-05,-2.9065382477711E-05,8.61328125,0,0
8.42387089505792E-06,-2.90211792162154E-05,8.61328125,0,0
4.80376365885604E-06,-2.62007160927169E-05,8.61328125,0,0
2.59076114161871E-06,-2.49874083237955E-05,8.61328125,0,0
-3.69020625612393E-07,-2.24355499085505E-05,8.61328125,0,0
-2.04264756575867E-06,-2.14613792195451E-05,8.61328125,0,0
-4.03703415940981E-06,-1.93192154256394E-05,8.61328125,0,0
-4.34621324529871E-06,-2.12821814784547E-05,8.61328125,0,0
-5.43401074537542E-06,-2.23347142309649E-05,8.61328125,0,0
-6.25393931841245E-06,-2.32576785492711E-05,8.61328125,0,0
-8.43149518914288E-06,-2.12905943044461E-05,8.61328125,0,0
-7.84471740189474E-06,-2.20160563912941E-05,8.61328125,0,0
-6.64538629280287E-06,-2.22880644287216E-05,8.61328125,0,0
-5.12989254275453E-06,-2.2668915335089E-05,8.61328125,0,0
-4.75477554573445E-06,-2.14429564948659E-05,8.61328125,0,0
-4.52751191915013E-06,-1.99459227587795E-05,8.61328125,0,0
-3.24783832184039E-06,-1.89889869943727E-05,8.61328125,0,0
-4.76394689030712E-07,-1.95086340681883E-05,8.61328125,0,0
3.02361354442837E-06,-1.64838929777034E-05,8.61328125,0,0
7.51491279515903E-06,-2.36679643421667E-05,8.61328125,0,0
1.07046735138283E-05,-1.83648917300161E-05,8.61328125,0,0
1.4022354662302E-05,-2.20840665861033E-05,8.61328125,0,0
1.63631084433291E-05,-1.81325194716919E-05,8.61328125,0,0
1.79604030563496E-05,-2.12621798709733E-05,8.61328125,0,0
1.918356429087E-05,-2.07248831429752E-05,8.61328125,0,0
2.05050037038745E-05,-2.14087904168991E-05,8.61328125,0,0
2.12255417864071E-05,-2.05515025299974E-05,8.61328125,0,0
2.15535164898029E-05,-2.03538875211962E-05,8.61328125,0,0
2.13627463381272E-05,-1.98480265680701E-05,8.61328125,0,0
2.04903572011972E-05,-1.8874970919569E-05,8.61328125,0,0
2.06759541470092E-05,-1.86183660844108E-05,8.61328125,0,0
2.09984355024062E-05,-1.66474255820503E-05,8.61328125,0,0
2.03371600946411E-05,-1.54224107973278E-05,8.61328125,0,0
1.6798601791379E-05,-1.15719867608277E-05,8.61328125,0,0
1.10157616290962E-05,-1.06089719338343E-05,8.61328125,0,0
5.17446824233048E-06,-9.92519017017912E-06,8.61328125,0,0
6.9621205511794E-07,-1.23069557957933E-05,8.61328125,0,0
-2.74590001936303E-06,-1.33643079607282E-05,8.61328125,0,0
-5.63823323318502E-06,-1.49772440636298E-05,8.61328125,0,0
-8.86778798303567E-06,-1.53747769218171E-05,8.61328125,0,0
-1.16459204946295E-05,-1.63341173902154E-05,8.61328125,0,0
-1.31496681206045E-05,-1.52127331602969E-05,8.61328125,0,0
-1.52790471474873E-05,-1.5111127140699E-05,8.61328125,0,0
-1.8108359654434E-05,-1.63286986207822E-05,8.61328125,0,0
-1.91979906958295E-05,-1.79993367055431E-05,8.61328125,0,0
-1.34307856569649E-05,-1.43065417432808E-05,8.61328125,0,0
-1.81554951268481E-05,-1.95195971173234E-05,8.61328125,0,0
-1.25184142234502E-05,-1.42243379741558E-05,8.61328125,0,0
-1.44484793054289E-05,-1.90301925613312E-05,8.61328125,0,0
-8.33903777675005E-06,-1.71629599208245E-05,8.61328125,0,0
-6.57900636724662E-06,-2.08801739063347E-05,8.61328125,0,0
2.3546100180738E-07,-2.02213977900101E-05,8.61328125,0,0
3.48664821103739E-06,-2.00381764443591E-05,8.61328125,0,0
5.92945116295596E-06,-1.91958406503545E-05,8.61328125,0,0
6.21704703007708E-06,-1.9796270862571E-05,8.61328125,0,0
7.88887427916052E-06,-2.02650280698435E-05,8.61328125,0,0
1.31220604089322E-05,-1.76364173967158E-05,8.61328125,0,0
1.90266437130049E-05,-1.49654997585458E-05,8.61328125,0,0
2.51913807005621E-05,-1.32338891489781E-05,8.61328125,0,0
2.71218414127361E-05,-1.50855375977699E-05,8.61328125,0,0
2.78635852737352E-05,-1.52960928971879E-05,8.61328125,0,0
2.60938249994069E-05,-1.6127265553223E-05,8.61328125,0,0
2.60005581367295E-05,-1.41731552503188E-05,8.61328125,0,0
2.34439303312683E-05,-1.30395010273787E-05,8.61328125,0,0
2.15386844502063E-05,-1.16172359412303E-05,8.61328125,0,0
2.06125805561896E-05,-1.20172971946886E-05,8.61328125,0,0
2.29602374020033E-05,-1.12892930701491E-05,8.61328125,0,0
2.4595923605375E-05,-9.42613496590639E-06,8.61328125,0,0
2.51253422902664E-05,-5.77235005039256E-06,8.61328125,0,0
2.31466365221422E-05,-3.91913454222959E-06,8.61328125,0,0
2.14229494304163E-05,-3.15774764203525E-06,8.61328125,0,0
1.88852809515083E-05,-4.21928007199313E-06,8.61328125,0,0
1.38038176373811E-05,-4.79314303447609E-06,8.61328125,0,0
2.03483632503776E-05,-7.53492304284009E-06,8.61328125,0,0
1.33205257952795E-05,-7.34546028979821E-06,8.61328125,0,0
1.08398626252892E-05,-9.29503403312992E-06,8.61328125,0,0
6.89373052864539E-07,-9.00070517673157E-06,8.61328125,0,0
-4.08777532356908E-06,-1.0775469490909E-05,8.61328125,0,0
-1.0626081348164E-05,-1.18795496746316E-05,8.61328125,0,0
-1.16815563160344E-05,-1.29465252030059E-05,8.61328125,0,0
-1.31405031424947E-05,-1.24836305985809E-05,8.61328125,0,0
-1.60623130796012E-05,-1.16709761641687E-05,8.61328125,0,0
-1.93001087609446E-05,-1.08508384073502E-05,8.61328125,0,0
-2.11863734875806E-05,-1.11246354208561E-05,8.61328125,0,0
-2.1573003323283E-05,-1.3584253792942E-05,8.61328125,0,0
-2.40888675762108E-05,-1.57483464136021E-05,8.61328125,0,0
-2.56560488196556E-05,-1.66762092703721E-05,8.61328125,0,0
-2.76962236966938E-05,-1.58525490405736E-05,8.61328125,0,0
-2.77431718131993E-05,-1.6371897800127E-05,8.61328125,0,0
-2.78070219792426E-05,-1.7422973542125E-05,8.61328125,0,0
-2.53820362559054E-05,-1.9509196135914E-05,8.61328125,0,0
-2.45426490437239E-05,-2.13166513276519E-05,8.61328125,0,0
-2.27320051635616E-05,-2.31218746193917E-05,8.61328125,0,0
-2.12384547921829E-05,-2.37635849771323E-05,8.61328125,0,0
-1.84441068995511E-05,-2.37660187849542E-05,8.61328125,0,0
-1.58469283633167E-05,-2.38861375692068E-05,8.61328125,0,0
-1.42261133078136E-05,-2.3705675630481E-05,8.61328125,0,0
-1.66371955856448E-05,-2.29534834943479E-05,8.61328125,0,0
-1.96125547518022E-05,-2.19748853851343E-05,8.61328125,0,0
-1.6395593775087E-05,-1.69931699929293E-05,8.61328125,0,0
-2.21779991989024E-05,-2.47411426244071E-05,8.61328125,0,0
-1.37107444970752E-05,-2.01864058908541E-05,8.61328125,0,0
-1.61231491802027E-05,-2.41088255279465E-05,8.61328125,0,0
-1.04433711385354E-05,-1.9239903849666E-05,8.61328125,0,0
-1.01278219517553E-05,-2.16692042158684E-05,8.61328125,0,0
-4.31010948886978E-06,-1.91802610061131E-05,8.61328125,0,0
4.42482843254766E-07,-2.12337126868078E-05,8.61328125,0,0
7.31054569769185E-06,-2.27045238716528E-05,8.61328125,0,0
1.32969653350301E-05,-2.32437178055989E-05,8.61328125,0,0
1.75086424860638E-05,-2.39768451137934E-05,8.61328125,0,0
1.99893001990858E-05,-2.42033856920898E-05,8.61328125,0,0
2.01094098883914E-05,-2.50619541475317E-05,8.61328125,0,0
2.06277290999424E-05,-2.43021750065964E-05,8.61328125,0,0
1.86875149665866E-05,-2.60337619693019E-05,8.61328125,0,0
1.88235899258871E-05,-2.677560041775E-05,8.61328125,0,0
1.83924730663421E-05,-2.88045393972425E-05,8.61328125,0,0
2.07220073207282E-05,-2.7141380996909E-05,8.61328125,0,0
2.19048743019812E-05,-2.55904906225624E-05,8.61328125,0,0
2.33717037190218E-05,-2.29916349780979E-05,8.61328125,0,0
2.15389554796275E-05,-2.33983464568155E-05,8.61328125,0,0
2.20224628719734E-05,-2.23960887524299E-05,8.61328125,0,0
2.26417269004742E-05,-2.08843903237721E-05,8.61328125,0,0
2.15484851651127E-05,-1.83536794793326E-05,8.61328125,0,0
1.96226537809707E-05,-1.70586699823616E-05,8.61328125,0,0
1.91894796444103E-05,-1.81332452484639E-05,8.61328125,0,0
1.94187177839922E-05,-2.06234562938334E-05,8.61328125,0,0
1.5970823369571E-05,-1.59447408805136E-05,8.61328125,0,0
2.27987238758942E-05,-2.1574409402092E-05,8.61328125,0,0
1.62329833983677E-05,-1.47308282976155E-05,8.61328125,0,0
1.96759829123039E-05,-1.75442146428395E-05,18.45703125,0,0
1.59267201524926E-05,-1.26975501189008E-05,18.45703125,0,0
1.65318397193914E-05,-1.37030174300889E-05,18.45703125,0,0
1.1344480299158E-05,-1.23673416965175E-05,18.45703125,0,0
9.80347886070376E-06,-1.44265104609076E-05,18.45703125,0,0
9.3774597189622E-06,-1.29170693980996E-05,18.45703125,0,0
1.23550971693476E-05,-1.27086623251671E-05,18.45703125,0,0
1.48064200402587E-05,-1.48036733662593E-05,18.45703125,0,0
1.49472380144289E-05,-1.77712627191795E-05,18.45703125,0,0
1.45148187584709E-05,-2.16424195969012E-05,18.45703125,0,0
1.18708039735793E-05,-2.16511434700806E-05,18.45703125,0,0
1.01854138847557E-05,-2.09227491723141E-05,18.45703125,0,0
6.9485558924498E-06,-1.71733736351598E-05,18.45703125,0,0
7.55439123167889E-06,-1.65199835464591E-05,18.45703125,0,0
8.88268641574541E-06,-1.56206115207169E-05,18.45703125,0,0
1.19499100037501E-05,-1.71354222402442E-05,18.45703125,0,0
1.1260559404036E-05,-1.59115661517717E-05,18.45703125,0,0
9.31997237785254E-06,-1.48599538078997E-05,18.45703125,0,0
4.95192489324836E-06,-1.41586288009421E-05,18.45703125,0,0
1.09450786567322E-06,-1.60556446644478E-05,18.45703125,0,0
-3.34431524606771E-06,-1.75368422787869E-05,18.45703125,0,0
-4.81151164422045E-06,-1.86675824807025E-05,18.45703125,0,0
-3.07541904476238E-06,-1.8984454072779E-05,18.45703125,0,0
8.64386549892515E-07,-1.95134634850547E-05,18.45703125,0,0
2.08638039111975E-06,-1.68925926118391E-05,18.45703125,0,0
9.4461306332505E-08,-2.37211352214217E-05,18.45703125,0,0
-3.64619927495369E-06,-1.75400018633809E-05,18.45703125,0,0
-2.29734177992214E-06,-2.13995735975914E-05,18.45703125,0,0
-1.50939024479158E-06,-1.81564737431472E-05,18.45703125,0,0
-1.86268721336091E-06,-2.12498089240398E-05,18.45703125,0,0
-3.87652562494623E-06,-2.03667932510143E-05,18.45703125,0,0
-6.02836371399462E-06,-2.30671612371225E-05,18.45703125,0,0
-8.85840017872397E-06,-2.26681022468256E-05,18.45703125,0,0
-1.19419728434877E-05,-2.1078258214402E-05,18.45703125,0,0
-1.34817200887483E-05,-2.00035392481368E-05,18.45703125,0,0
-1.3604122614197E-05,-1.77391339093447E-05,18.45703125,0,0
-1.17089530249359E-05,-1.6946840332821E-05,18.45703125,0,0
-9.90359967545373E-06,-1.62639553309418E-05,18.45703125,0,0
-9.94516540231416E-06,-1.72176914929878E-05,18.45703125,0,0
-1.13901996883214E-05,-1.52758166223066E-05,18.45703125,0,0
-1.09320999399642E-05,-1.57177564688027E-05,18.45703125,0,0
-9.81049197434913E-06,-1.51617987285135E-05,18.45703125,0,0
-9.51822858041851E-06,-1.68703609233489E-05,18.45703125,0,0
-9.71841927821515E-06,-1.68512760865269E-05,18.45703125,0,0
-9.20229649636894E-06,-1.70706680364674E-05,18.45703125,0,0
-8.1083726399811E-06,-1.57169288286241E-05,18.45703125,0,0
-5.19804598297924E-06,-1.55195029947208E-05,18.45703125,0,0
-1.5444472865056E-06,-1.36626749736024E-05,18.45703125,0,0
6.89241687723552E-07,-1.11583631223766E-05,18.45703125,0,0
2.94657547783572E-06,-1.02213034551824E-05,18.45703125,0,0
4.86367071061977E-06,-1.17049066830077E-05,18.45703125,0,0
5.04716217619716E-06,-1.13287469503121E-05,18.45703125,0,0
7.80692062107846E-06,-1.69527265825309E-05,18.45703125,0,0
7.6881324275746E-06,-1.42401977427653E-05,18.45703125,0,0
1.05095195976901E-05,-1.74427259480581E-05,18.45703125,0,0
1.07062041934114E-05,-1.45731455631903E-05,18.45703125,0,0
1.28812534967437E-05,-1.50592250065529E-05,18.45703125,0,0
1.31080369101255E-05,-1.4308947356767E-05,18.45703125,0,0
1.26903123600641E-05,-1.64065149874659E-05,18.45703125,0,0
1.01881860246067E-05,-1.7943348211702E-05,18.45703125,0,0
4.98891677125357E-06,-1.88625508599216E-05,18.45703125,0,0
-4.54014212891707E-07,-1.92009683814831E-05,18.45703125,0,0
-2.98034660772828E-06,-1.79383059730753E-05,18.45703125,0,0
-2.10905591302435E-06,-1.68440365087008E-05,18.45703125,0,0
-1.79291885160637E-06,-1.52963420987362E-05,18.45703125,0,0
-1.89901493286015E-06,-1.46401116580819E-05,18.45703125,0,0
-1.86939962532051E-06,-1.28186138681485E-05,18.45703125,0,0
-2.24584553620844E-07,-1.43626211865922E-05,18.45703125,0,0
2.86939780380635E-07,-1.63192307809368E-05,18.45703125,0,0
3.81435370400141E-07,-1.80344195541693E-05,18.45703125,0,0
6.989873782004E-07,-1.59141745825764E-05,18.45703125,0,0
2.11793440030306E-06,-1.28077117551584E-05,18.45703125,0,0
3.06862330035074E-06,-9.36528431338957E-06,18.45703125,0,0
2.87675197796489E-06,-7.9355459092767E-06,18.45703125,0,0
5.87171712140844E-07,-7.56737654228345E-06,18.45703125,0,0
-9.64058813224256E-07,-8.0470208558836E-06,18.45703125,0,0
-4.23997590814906E-07,-9.94770744000562E-06,18.45703125,0,0
-4.21943667561209E-07,-1.2384314686642E-05,18.45703125,0,0
-1.485152438363E-06,-1.04845039459178E-05,18.45703125,0,0
-3.19239984492015E-06,-1.49001607496757E-05,18.45703125,0,0
-3.13853047373414E-06,-1.31282686197665E-05,18.45703125,0,0
-2.74177682513255E-06,-1.85989829333266E-05,18.45703125,0,0
-1.71637645962619E-06,-1.65925321198301E-05,18.45703125,0,0
-4.85935970573337E-07,-1.7387414118275E-05,18.45703125,0,0
3.21161508054502E-07,-1.71755345945712E-05,18.45703125,0,0
-6.29953092357027E-07,-2.03794261324219E-05,18.45703125,0,0
-1.42514488743473E-06,-2.18403747567208E-05,18.45703125,0,0
-6.55389612802537E-07,-2.1059146092739E-05,18.45703125,0,0
1.48540630107163E-06,-2.00714202946983E-05,18.45703125,0,0
4.28985140388249E-06,-1.97657082026126E-05,18.45703125,0,0
5.91970137975295E-06,-2.13214807445183E-05,18.45703125,0,0
4.81095867144177E-06,-2.19926096178824E-05,18.45703125,0,0
1.95527331925405E-06,-2.28784410865046E-05,18.45703125,0,0
1.45380261074024E-06,-2.19062549149385E-05,18.45703125,0,0
4.84258998767473E-06,-2.15115051105386E-05,18.45703125,0,0
9.82465644483455E-06,-1.9790762962657E-05,18.45703125,0,0
1.2375107871776E-05,-1.92449515452608E-05,18.45703125,0,0
1.15788816401619E-05,-1.82303901965497E-05,18.45703125,0,0
9.20765614864649E-06,-1.96998134924797E-05,18.45703125,0,0
7.03530349710491E-06,-2.14965584746096E-05,18.45703125,0,0
5.374932243285E-06,-2.2190537492861E-05,18.45703125,0,0
3.65118603440351E-06,-2.04995867534308E-05,18.45703125,0,0
1.21209370718134E-06,-1.96982618945185E-05,18.45703125,0,0
1.25736391964892E-07,-2.01671664399328E-05,18.45703125,0,0
1.09358938971127E-06,-1.95108277694089E-05,18.45703125,0,0
1.29999364162359E-07,-1.4562515389116E-05,18.45703125,0,0
-1.77241611254431E-06,-2.15013242268469E-05,18.45703125,0,0
-1.4568931874237E-06,-1.89444399438798E-05,18.45703125,0,0
2.2587862531509E-06,-2.28381159104174E-05,18.45703125,0,0
5.58449710297282E-06,-1.82796138687991E-05,18.45703125,0,0
1.06332026916789E-05,-2.04726347874384E-05,18.45703125,0,0
1.48124136103434E-05,-1.81709074240644E-05,18.45703125,0,0
1.90130704140756E-05,-1.7856033082353E-05,18.45703125,0,0
2.18514705920825E-05,-1.68664191733114E-05,18.45703125,0,0
2.33793434745166E-05,-1.76658686541487E-05,18.45703125,0,0
2.61445748037659E-05,-1.71134106494719E-05,18.45703125,0,0
3.04820787278004E-05,-1.35624786707922E-05,18.45703125,0,0
3.44227082678117E-05,-1.25069282148615E-05,18.45703125,0,0
3.72015783796087E-05,-1.23658910524682E-05,18.45703125,0,0
4.104312392883E-05,-1.35514965222683E-05,18.45703125,0,0
4.44955221610144E-05,-1.22011033454328E-05,18.45703125,0,0
4.45493242295925E-05,-1.19688102131477E-05,18.45703125,0,0
3.93054287997074E-05,-9.42028964345809E-06,18.45703125,0,0
3.17619269480929E-05,-8.3912855188828E-06,18.45703125,0,0
2.58393592957873E-05,-6.82845211485983E-06,18.45703125,0,0
2.20215079025365E-05,-7.74000909586903E-06,18.45703125,0,0
1.76782577909762E-05,-9.45887859415961E-06,18.45703125,0,0
1.2602674360096E-05,-1.19289770736941E-05,18.45703125,0,0
7.75875741965137E-06,-1.17927611427149E-05,18.45703125,0,0
4.5163928916736E-06,-1.2111573596485E-05,18.45703125,0,0
1.96784094441682E-06,-1.32173618112574E-05,18.45703125,0,0
2.50287769176794E-07,-1.59377541422145E-05,18.45703125,0,0
-1.35723860239523E-06,-1.44451532833045E-05,18.45703125,0,0
-3.38464974447561E-06,-2.06305685424013E-05,18.45703125,0,0
-4.58502336186939E-06,-1.68503411259735E-05,18.45703125,0,0
-6.69412474962883E-06,-2.28064382099546E-05,18.45703125,0,0
-8.54765221447451E-06,-2.19636222027475E-05,18.45703125,0,0
-1.00422394098132E-05,-2.42868700297549E-05,18.45703125,0,0
-1.05896351669799E-05,-2.21696609514765E-05,18.45703125,0,0
-1.05008766695391E-05,-2.32205675274599E-05,18.45703125,0,0
-1.13269625217072E-05,-2.21079080802156E-05,18.45703125,0,0
-1.20015511129168E-05,-2.1260564608383E-05,18.45703125,0,0
-1.32491732074413E-05,-2.11062342714285E-05,18.45703125,0,0
-1.50671558003523E-05,-2.0491785107879E-05,18.45703125,0,0
-1.85050612344639E-05,-2.10529560717987E-05,18.45703125,0,0
-2.24158029595856E-05,-1.9195491404389E-05,18.45703125,0,0
-2.32825204875553E-05,-1.85403932846384E-05,18.45703125,0,0
-2.17098404391436E-05,-1.67133166542044E-05,18.45703125,0,0
-2.09418376471149E-05,-1.66779136634432E-05,18.45703125,0,0
-2.13213788811117E-05,-1.47334358189255E-05,18.45703125,0,0
-2.2530322894454E-05,-1.51591921166983E-05,18.45703125,0,0
-2.48919404839398E-05,-1.63709628395736E-05,18.45703125,0,0
-2.69720949290786E-05,-1.96839646378066E-05,18.45703125,0,0
-2.73640107479878E-05,-2.05846972676227E-05,18.45703125,0,0
-2.57893898378825E-05,-1.98474190256093E-05,18.45703125,0,0
-2.31173016800312E-05,-1.84053242264781E-05,18.45703125,0,0
-2.14225201489171E-05,-1.92406841961201E-05,18.45703125,0,0
-2.25615694944281E-05,-2.01700040634023E-05,18.45703125,0,0
-2.21529335249215E-05,-1.83070442290045E-05,18.45703125,0,0
-1.60243871505372E-05,-1.29457603179617E-05,18.45703125,0,0
-2.16917887883028E-05,-1.86361521627987E-05,18.45703125,0,0
-1.36219559863093E-05,-1.44028954309761E-05,18.45703125,0,0
-1.39323974508443E-05,-1.82174389919965E-05,18.45703125,0,0
-6.07583024248015E-06,-1.76935118361143E-05,18.45703125,0,0
-6.20411310592317E-06,-2.0537234377116E-05,31.46484375,0,0
-3.87209865948535E-06,-1.75174700416392E-05,31.46484375,0,0
-4.12806957683642E-06,-1.61768002726603E-05,31.46484375,0,0
-2.07997345569311E-06,-1.5608766261721E-05,31.46484375,0,0
-1.72268437381717E-06,-1.87148780241841E-05,31.46484375,0,0
-2.13687894756731E-06,-2.18311433854979E-05,31.46484375,0,0
-6.49973571853479E-07,-2.18257537198951E-05,31.46484375,0,0
2.08270284929313E-06,-2.21870504901744E-05,31.46484375,0,0
8.03310285846237E-06,-2.18123532249592E-05,31.46484375,0,0
1.18425386972376E-05,-2.17283450183459E-05,31.46484375,0,0
1.61776133609237E-05,-1.89781057997607E-05,31.46484375,0,0
1.85395292646717E-05,-1.77430356416153E-05,31.46484375,0,0
2.28645239985781E-05,-1.59473820531275E-05,31.46484375,0,0
2.36547148233512E-05,-1.5683050150983E-05,31.46484375,0,0
2.21686950681033E-05,-1.37395409183227E-05,31.46484375,0,0
1.77081310539506E-05,-1.27101366160787E-05,31.46484375,0,0
1.6192101611523E-05,-1.12043908302439E-05,31.46484375,0,0
1.54579229274532E-05,-1.16988803711138E-05,31.46484375,0,0
1.60294293891639E-05,-1.30332655317034E-05,31.46484375,0,0
1.56362293637358E-05,-1.44578189065214E-05,31.46484375,0,0
1.46329175549909E-05,-1.49866937135812E-05,31.46484375,0,0
1.2529073501355E-05,-1.60653198690852E-05,31.46484375,0,0
8.50667129270732E-06,-1.34780511871213E-05,31.46484375,0,0
1.26574877867824E-05,-1.92906227312051E-05,31.46484375,0,0
1.09326392703224E-05,-1.55499892571243E-05,31.46484375,0,0
1.42668077387498E-05,-2.05513733817497E-05,31.46484375,0,0
1.12624811663409E-05,-1.84564505616436E-05,31.46484375,0,0
1.12414054456167E-05,-1.9984441678389E-05,31.46484375,0,0
9.49081913859118E-06,-1.77572710526874E-05,31.46484375,0,0
7.71109353081556E-06,-1.80108163476689E-05,31.46484375,0,0
4.79306481793174E-06,-1.64741268235957E-05,31.46484375,0,0
4.40339908891474E-06,-1.53563141793711E-05,31.46484375,0,0
4.52131098427344E-06,-1.46360289363656E-05,31.46484375,0,0
4.30140426033176E-06,-1.27760977193248E-05,31.46484375,0,0
5.17833586854977E-06,-1.27927660287241E-05,31.46484375,0,0
4.61035278931377E-06,-1.145235637523E-05,31.46484375,0,0
3.19777655022335E-06,-1.16362989501795E-05,31.46484375,0,0
1.0633299325491E-06,-1.18396292236866E-05,31.46484375,0,0
2.29693569053779E-06,-1.48546623677248E-05,31.46484375,0,0
4.93506513521424E-06,-1.57065333041828E-05,31.46484375,0,0
6.22514471615432E-06,-1.66064073710004E-05,31.46484375,0,0
1.74912645434233E-06,-1.62375836225692E-05,31.46484375,0,0
-2.89606009573617E-06,-1.71291594597278E-05,31.46484375,0,0
-6.99022484695888E-06,-1.79785856744275E-05,31.46484375,0,0
-9.76448245637584E-06,-1.90533992281416E-05,31.46484375,0,0
-1.17144454634399E-05,-1.8501590602682E-05,31.46484375,0,0
-1.28933907035389E-05,-1.80347942659864E-05,31.46484375,0,0
-1.42413764478988E-05,-1.76589455804788E-05,31.46484375,0,0
-1.51950107465382E-05,-1.81594950845465E-05,31.46484375,0,0
-1.15168941192678E-05,-1.53880428115372E-05,31.46484375,0,0
-1.34797328428249E-05,-2.29168908845168E-05,31.46484375,0,0
-5.94118273511413E-06,-1.71821793628624E-05,31.46484375,0,0
-9.1257352323737E-06,-1.84904656634899E-05,31.46484375,0,0
-7.23494304111227E-06,-1.37303704832448E-05,31.46484375,0,0
-8.95827361091506E-06,-1.65468663908541E-05,31.46484375,0,0
-5.56580380361993E-06,-1.63142249220982E-05,31.46484375,0,0
-2.54543897426629E-06,-1.63751246873289E-05,31.46484375,0,0
2.40315193877905E-06,-1.52831817104016E-05,31.46484375,0,0
5.86554142500972E-06,-1.52299480760121E-05,31.46484375,0,0
9.71192002907628E-06,-1.59565643116366E-05,31.46484375,0,0
1.5400482880068E-05,-1.63742697623093E-05,31.46484375,0,0
1.76952016772702E-05,-1.79443450178951E-05,31.46484375,0,0
1.67711277754279E-05,-1.83263964572689E-05,31.46484375,0,0
1.48185581565485E-05,-1.91356175491819E-05,31.46484375,0,0
1.72060917975614E-05,-1.78008049260825E-05,31.46484375,0,0
1.76839239429682E-05,-1.75614386535017E-05,31.46484375,0,0
1.60332820087206E-05,-1.6394773410866E-05,31.46484375,0,0
1.11647304947837E-05,-1.81757204700261E-05,31.46484375,0,0
7.92413356975885E-06,-1.85717490239767E-05,31.46484375,0,0
4.32500064562191E-06,-1.86001016118098E-05,31.46484375,0,0
1.10898076854937E-06,-1.77212532435078E-05,31.46484375,0,0
-3.55470410795533E-06,-1.88958129001549E-05,31.46484375,0,0
-6.52597282169154E-06,-2.13208277273225E-05,31.46484375,0,0
-7.32125272406847E-06,-2.16475473280298E-05,31.46484375,0,0
-4.00648832510342E-06,-1.7399701391696E-05,31.46484375,0,0
1.34747585889272E-06,-1.34393903863383E-05,31.46484375,0,0
2.40212079916091E-06,-1.09215543488972E-05,31.46484375,0,0
3.40184510605468E-06,-1.70280218299013E-05,31.46484375,0,0
3.17293188345502E-06,-1.5766434444231E-05,31.46484375,0,0
7.49417722545331E-06,-2.03624877030961E-05,31.46484375,0,0
1.31143588077975E-05,-1.82102812686935E-05,31.46484375,0,0
2.0698351363535E-05,-1.76960711542051E-05,31.46484375,0,0
2.46780255110934E-05,-1.66361369338119E-05,31.46484375,0,0
2.3619293642696E-05,-1.91859417100204E-05,31.46484375,0,0
1.88493540917989E-05,-2.1557596483035E-05,31.46484375,0,0
1.50180230775732E-05,-2.41191428358434E-05,31.46484375,0,0
1.41312075356836E-05,-2.50222165050218E-05,31.46484375,0,0
1.48846529555158E-05,-2.34259387070779E-05,31.46484375,0,0
1.52873417391675E-05,-2.36446030612569E-05,31.46484375,0,0
1.40746997203678E-05,-2.29136821872089E-05,31.46484375,0,0
1.25457627291325E-05,-2.10488342418103E-05,31.46484375,0,0
1.00104625744279E-05,-1.76763460331131E-05,31.46484375,0,0
7.14541056368034E-06,-1.76331668626517E-05,31.46484375,0,0
4.90610045744688E-06,-1.79052003659308E-05,31.46484375,0,0
5.0764483603416E-06,-1.86334164027357E-05,31.46484375,0,0
8.60159798321547E-06,-1.75680488609942E-05,31.46484375,0,0
1.53220480569871E-05,-1.67638208949938E-05,31.46484375,0,0
2.23609094973654E-05,-1.56050082296133E-05,31.46484375,0,0
2.84649759123567E-05,-1.50612686411478E-05,31.46484375,0,0
3.31191367877182E-05,-1.41313812491717E-05,31.46484375,0,0
3.50634545611683E-05,-1.39860358103761E-05,31.46484375,0,0
3.31939918396529E-05,-1.47561549965758E-05,31.46484375,0,0
3.01281652355101E-05,-1.38730065373238E-05,31.46484375,0,0
2.1317224309314E-05,-1.03566289908485E-05,31.46484375,0,0
2.62314024439547E-05,-1.6539910575375E-05,31.46484375,0,0
1.38283303385833E-05,-1.47742093759007E-05,31.46484375,0,0
1.65725123224547E-05,-1.67566849995637E-05,31.46484375,0,0
7.88976922194706E-06,-1.31432516354835E-05,31.46484375,0,0
7.48761704016943E-06,-1.27617013276904E-05,31.46484375,0,0
1.78019305963062E-07,-1.1327786523907E-05,31.46484375,0,0
-2.77143726634677E-06,-1.27056910059764E-05,31.46484375,0,0
-7.1215076786757E-06,-1.35650789161446E-05,31.46484375,0,0
-9.82085293799173E-06,-1.46395977935754E-05,31.46484375,0,0
-1.38577224788605E-05,-1.56683036038885E-05,31.46484375,0,0
-2.0514264178928E-05,-1.60214622155763E-05,31.46484375,0,0
-2.34931121667614E-05,-1.78052432602271E-05,31.46484375,0,0
-2.61176955973497E-05,-1.92203915503342E-05,31.46484375,0,0
-2.52820500463713E-05,-2.0056291759829E-05,31.46484375,0,0
-2.77250564977294E-05,-1.93186897377018E-05,31.46484375,0,0
-2.7558533474803E-05,-2.08416095119901E-05,31.46484375,0,0
-2.79315881925868E-05,-2.25560215767473E-05,31.46484375,0,0
-2.42124497162877E-05,-2.58829695667373E-05,31.46484375,0,0
-2.24618197535165E-05,-2.82644432445522E-05,31.46484375,0,0
-1.97494664462283E-05,-2.91140131594148E-05,31.46484375,0,0
-1.95004249690101E-05,-2.67893901764182E-05,31.46484375,0,0
-1.77109614014626E-05,-2.49057902692584E-05,31.46484375,0,0
-1.52903794514714E-05,-2.45361716224579E-05,31.46484375,0,0
-9.01718249224359E-06,-2.4819077225402E-05,31.46484375,0,0
-1.17569368285331E-06,-2.22686867346056E-05,31.46484375,0,0
5.63924322705134E-06,-1.99540663743392E-05,31.46484375,0,0
9.18056684895419E-06,-1.59133596753236E-05,31.46484375,0,0
1.51404819916934E-05,-2.23941460717469E-05,31.46484375,0,0
1.54652298078872E-05,-1.36952921820921E-05,31.46484375,0,0
2.21910140680848E-05,-1.3077944458928E-05,31.46484375,0,0
2.76119426416699E-05,-7.24253413864062E-06,31.46484375,0,0
3.24084212479647E-05,-8.26509949547471E-06,31.46484375,0,0
3.118570020888E-05,-7.13828876541811E-06,31.46484375,0,0
2.90286116069183E-05,-1.07160667539574E-05,31.46484375,0,0
2.45225855906028E-05,-1.27222019727924E-05,31.46484375,0,0
2.01334023586242E-05,-1.34683559736004E-05,31.46484375,0,0
1.65311630553333E-05,-1.35091977426782E-05,31.46484375,0,0
1.14923932414968E-05,-1.41189593705349E-05,31.46484375,0,0
3.91105822927784E-06,-1.69721279235091E-05,31.46484375,0,0
-5.2953687372792E-06,-1.75234999915119E-05,31.46484375,0,0
-1.00626866696985E-05,-1.84851123776753E-05,31.46484375,0,0
-1.24241005323711E-05,-1.7784625015338E-05,31.46484375,0,0
-1.45870262713288E-05,-1.9621875253506E-05,31.46484375,0,0
-1.95642205653712E-05,-2.03848394448869E-05,31.46484375,0,0
-2.33704395213863E-05,-2.20695910684299E-05,31.46484375,0,0
-2.58911422861274E-05,-2.16366552194813E-05,31.46484375,0,0
-2.54415372182848E-05,-2.21327627514256E-05,31.46484375,0,0
-2.59600910794688E-05,-2.19300782191567E-05,31.46484375,0,0
-2.73952391580679E-05,-2.3194013920147E-05,31.46484375,0,0
-2.79562336800154E-05,-2.36092910199659E-05,31.46484375,0,0
-2.89386571239447E-05,-2.33777882385766E-05,31.46484375,0,0
-3.07544141833205E-05,-2.34213512158021E-05,31.46484375,0,0
-3.21958141284995E-05,-2.48667201958597E-05,31.46484375,0,0
-2.79564847005531E-05,-2.23306287807645E-05,31.46484375,0,0
-4.4426073145587E-05,-3.10729774355423E-05,31.46484375,0,0
-4.00728094973601E-05,-2.0964975192328E-05,31.46484375,0,0
-4.77804496767931E-05,-2.58309773926158E-05,31.46484375,0,0
-4.01457255065907E-05,-2.22559065150563E-05,31.46484375,0,0
-4.17497722082771E-05,-2.40968402067665E-05,31.46484375,0,0
-3.6340094084153E-05,-1.96769724425394E-05,31.46484375,0,0
-3.28562273352873E-05,-1.88969243026804E-05,31.46484375,0,0
-2.30036712309811E-05,-1.69934137375094E-05,31.46484375,0,0
-1.15070133688278E-05,-1.77199308382114E-05,31.46484375,0,0
1.12159952436741E-07,-1.90288919839077E-05,31.46484375,0,0
1.09759102997486E-05,-1.85388671525288E-05,31.46484375,0,0
1.92803872778313E-05,-1.96406654140446E-05,45.3515625,0,0
2.98162340186536E-05,-1.89370020962087E-05,45.3515625,0,0
3.65085143130273E-05,-1.99427213374292E-05,45.3515625,0,0
4.48941646027379E-05,-1.70922721736133E-05,45.3515625,0,0
5.00401292811148E-05,-1.58153070515255E-05,45.3515625,0,0
5.74718542338815E-05,-1.33178136820788E-05,45.3515625,0,0
6.158363976283E-05,-1.49822026287438E-05,45.3515625,0,0
6.83295074850321E-05,-1.45581834658515E-05,45.3515625,0,0
7.21533069736324E-05,-1.32750928969472E-05,45.3515625,0,0
7.32798725948669E-05,-8.84070595930098E-06,45.3515625,0,0
6.74994444125332E-05,-5.84069630349404E-06,45.3515625,0,0
5.99124978180043E-05,-3.75555237042136E-06,45.3515625,0,0
5.18926644872408E-05,-4.91717628392507E-06,45.3515625,0,0
4.51407358923461E-05,-6.73126078254427E-06,45.3515625,0,0
3.62726459570695E-05,-6.95738117428846E-06,45.3515625,0,0
2.04105253942544E-05,-4.81563074572477E-06,45.3515625,0,0
2.20060137507971E-05,-7.25010568203288E-06,45.3515625,0,0
4.34820003647474E-06,-6.22515699433279E-06,45.3515625,0,0
2.59482908404607E-06,-6.38672872810275E-06,45.3515625,0,0
-7.36857555239112E-06,-4.92447816213826E-06,45.3515625,0,0
-2.59387979895109E-06,-6.49027242616285E-06,45.3515625,0,0
-3.18408046950935E-06,-7.69961479818448E-06,45.3515625,0,0
-4.32275754747025E-07,-1.00749675766565E-05,45.3515625,0,0
-1.19645915219735E-06,-1.24060079542687E-05,45.3515625,0,0
-8.61431317389361E-07,-1.43940105772344E-05,45.3515625,0,0
-3.98263324541404E-07,-1.51563863255433E-05,45.3515625,0,0
3.48150706486194E-07,-1.55229499796405E-05,45.3515625,0,0
5.67501001569326E-06,-1.68172664416488E-05,45.3515625,0,0
1.09272568806773E-05,-1.96925902855583E-05,45.3515625,0,0
1.90429236681666E-05,-2.40198623941978E-05,45.3515625,0,0
2.28906428674236E-05,-2.55278373515466E-05,45.3515625,0,0
2.70044620265253E-05,-2.56034018093487E-05,45.3515625,0,0
2.75259899353841E-05,-2.39983019127976E-05,45.3515625,0,0
3.17115955112968E-05,-2.1173655113671E-05,45.3515625,0,0
3.31367737089749E-05,-1.76620742422529E-05,45.3515625,0,0
3.3348365832353E-05,-1.62076994456584E-05,45.3515625,0,0
3.01286072499352E-05,-1.48143935803091E-05,45.3515625,0,0
2.68285111815203E-05,-1.36167000164278E-05,45.3515625,0,0
1.92618481378304E-05,-1.23651852845796E-05,45.3515625,0,0
1.1506811461004E-05,-1.09008997242199E-05,45.3515625,0,0
4.6904983719287E-06,-9.83891459327424E-06,45.3515625,0,0
1.5185454458333E-06,-9.64296668826137E-06,45.3515625,0,0
1.42385204071616E-06,-9.52724531089189E-06,45.3515625,0,0
1.4771530914004E-06,-1.49942134157754E-05,45.3515625,0,0
-2.57801320913131E-06,-1.31827537188656E-05,45.3515625,0,0
-9.30078749661334E-06,-1.66014178830665E-05,45.3515625,0,0
-1.51061649376061E-05,-1.83562824531691E-05,45.3515625,0,0
-1.91279614227824E-05,-2.22815742745297E-05,45.3515625,0,0
-2.43341673922259E-05,-2.08943165489472E-05,45.3515625,0,0
-2.92921067739371E-05,-2.0369730918901E-05,45.3515625,0,0
-3.20804938382935E-05,-1.92977313417941E-05,45.3515625,0,0
-3.45445914717857E-05,-1.97644494619453E-05,45.3515625,0,0
-3.72188624169212E-05,-2.12078193726484E-05,45.3515625,0,0
-3.88580629078206E-05,-2.20130496018101E-05,45.3515625,0,0
-3.78706390620209E-05,-2.23697279579937E-05,45.3515625,0,0
-3.67656357411761E-05,-2.16835032915697E-05,45.3515625,0,0
-3.59293662768323E-05,-2.11551014217548E-05,45.3515625,0,0
-3.35389231622685E-05,-1.85982480616076E-05,45.3515625,0,0
-2.90202788164606E-05,-1.85695171239786E-05,45.3515625,0,0
-2.49871027335757E-05,-1.99359383259434E-05,45.3515625,0,0
-2.19153916987125E-05,-2.16858952626353E-05,45.3515625,0,0
-1.85087446880061E-05,-1.99999103642767E-05,45.3515625,0,0
-1.3955005670141E-05,-1.87139175977791E-05,45.3515625,0,0
-8.15851853985805E-06,-1.90376595128328E-05,45.3515625,0,0
-2.5099070626311E-06,-2.1040164938313E-05,45.3515625,0,0
2.17867113860848E-06,-2.13201838050736E-05,45.3515625,0,0
5.59375166631071E-06,-2.16374519368401E-05,45.3515625,0,0
7.65146069170441E-06,-2.17866599996341E-05,45.3515625,0,0
9.55750329012517E-06,-2.10834550671279E-05,45.3515625,0,0
1.07380483314046E-05,-1.56416208483279E-05,45.3515625,0,0
1.84614091267576E-05,-2.14812007470755E-05,45.3515625,0,0
1.88726517080795E-05,-1.60529762069928E-05,45.3515625,0,0
2.31691683438839E-05,-1.939133835549E-05,45.3515625,0,0
2.10737089219037E-05,-1.34239580802387E-05,45.3515625,0,0
2.05834348889766E-05,-1.50903015310178E-05,45.3515625,0,0
1.78306054294808E-05,-1.44418818308623E-05,45.3515625,0,0
1.68879505508812E-05,-1.6864880308276E-05,45.3515625,0,0
1.38327741296962E-05,-1.72301770362537E-05,45.3515625,0,0
1.0565054253675E-05,-1.84910222742474E-05,45.3515625,0,0
7.90491412772099E-06,-1.96452929230873E-05,45.3515625,0,0
5.80178493692074E-06,-1.96082328329794E-05,45.3515625,0,0
4.65114271719358E-06,-2.13589755730936E-05,45.3515625,0,0
2.86050408249139E-06,-2.08124820346711E-05,45.3515625,0,0
2.38936399910017E-06,-2.1196625311859E-05,45.3515625,0,0
2.95651915394046E-07,-1.99152364075417E-05,45.3515625,0,0
-1.56003659412818E-06,-2.10740654438268E-05,45.3515625,0,0
-4.01373108616099E-06,-2.07599332497921E-05,45.3515625,0,0
-4.58729209640296E-06,-2.2172480385052E-05,45.3515625,0,0
-4.86814224132104E-06,-2.22219041461358E-05,45.3515625,0,0
-3.70739144273102E-06,-2.37802851188462E-05,45.3515625,0,0
-4.07840161642525E-06,-2.39253822655883E-05,45.3515625,0,0
-5.50576078239828E-06,-2.2771298972657E-05,45.3515625,0,0
-8.91712534212274E-06,-1.98996331164381E-05,45.3515625,0,0
-1.10914379547467E-05,-1.99836886167759E-05,45.3515625,0,0
-1.06740208138945E-05,-2.1108508008183E-05,45.3515625,0,0
-9.61930527410004E-06,-1.95127740880707E-05,45.3515625,0,0
-8.94559434527764E-06,-1.32215145640657E-05,45.3515625,0,0
-1.49152656376828E-05,-1.71782648976659E-05,45.3515625,0,0
-1.26240574900294E-05,-1.0511322216189E-05,45.3515625,0,0
-1.35098553073476E-05,-1.38552213684306E-05,45.3515625,0,0
-1.09034044726286E-05,-1.2273157153686E-05,45.3515625,0,0
-9.8560303740669E-06,-1.54325261974009E-05,45.3515625,0,0
-6.26793234914658E-06,-1.44521773108863E-05,45.3515625,0,0
-6.01457077209488E-06,-1.45900648931274E-05,45.3515625,0,0
-7.10729000275023E-06,-1.45645381053328E-05,45.3515625,0,0
-8.63484183355467E-06,-1.64093289640732E-05,45.3515625,0,0
-9.16530279937433E-06,-1.71177980519133E-05,45.3515625,0,0
-8.41513883642619E-06,-1.59345436259173E-05,45.3515625,0,0
-8.62813976709731E-06,-1.64803386724088E-05,45.3515625,0,0
-1.01638815976912E-05,-1.66831887327135E-05,45.3515625,0,0
-1.56389996845974E-05,-1.76590419869171E-05,45.3515625,0,0
-2.16962380363839E-05,-1.63189106388018E-05,45.3515625,0,0
-2.611592572066E-05,-1.67970774782589E-05,45.3515625,0,0
-2.64331229118397E-05,-1.60731542564463E-05,45.3515625,0,0
-2.70616201305529E-05,-1.64043522090651E-05,45.3515625,0,0
-2.84377583739115E-05,-1.51501981235924E-05,45.3515625,0,0
-3.00253250316018E-05,-1.4626461052103E-05,45.3515625,0,0
-2.98161776299821E-05,-1.33553094201488E-05,45.3515625,0,0
-2.96570469799917E-05,-1.3676671187568E-05,45.3515625,0,0
-2.99910261674086E-05,-1.37129291033489E-05,45.3515625,0,0
-3.00595565931872E-05,-1.38454770421959E-05,45.3515625,0,0
-2.64789414359257E-05,-1.44939658639487E-05,45.3515625,0,0
-1.77495621755952E-05,-1.6594902263023E-05,45.3515625,0,0
-3.80809069611132E-06,-1.53850651258836E-05,45.3515625,0,0
2.20175184040272E-06,-2.02864430320915E-05,45.3515625,0,0
1.37835932036978E-05,-1.38744144351222E-05,45.3515625,0,0
1.93103496712865E-05,-1.85506578418426E-05,45.3515625,0,0
2.78342013189103E-05,-1.60047511599259E-05,45.3515625,0,0
3.39639009325765E-05,-1.75526220118627E-05,45.3515625,0,0
4.31277730967849E-05,-1.40540814754786E-05,45.3515625,0,0
5.05634961882606E-05,-1.40325455504353E-05,45.3515625,0,0
5.97105063206982E-05,-1.39340800160426E-05,45.3515625,0,0
7.20542666385882E-05,-1.57395734277088E-05,45.3515625,0,0
8.44424212118611E-05,-1.72361633303808E-05,45.3515625,0,0
9.22627732506953E-05,-1.70236344274599E-05,45.3515625,0,0
9.5254072220996E-05,-1.64787215908291E-05,45.3515625,0,0
9.69796310528181E-05,-1.35484742713743E-05,45.3515625,0,0
9.62578415055759E-05,-1.16604151116917E-05,45.3515625,0,0
9.30378082557581E-05,-8.57192389958072E-06,45.3515625,0,0
8.42488298076205E-05,-8.72267537488369E-06,45.3515625,0,0
7.13803528924473E-05,-6.98901430951082E-06,45.3515625,0,0
5.37683699803893E-05,-7.33502292860067E-06,45.3515625,0,0
3.57454046024941E-05,-8.14283521322068E-06,45.3515625,0,0
1.96283926925389E-05,-1.14038957690354E-05,45.3515625,0,0
7.29614612282603E-06,-1.18816378744668E-05,45.3515625,0,0
-5.20590447194991E-07,-1.02663398138247E-05,45.3515625,0,0
-3.09648498841852E-06,-7.19917534297565E-06,45.3515625,0,0
-6.11857376497937E-06,-7.22496952221263E-06,45.3515625,0,0
-1.0428721907374E-05,-8.99535007192753E-06,45.3515625,0,0
-1.42517810672871E-05,-1.19116602945724E-05,45.3515625,0,0
-1.56561272888212E-05,-1.17344980026246E-05,45.3515625,0,0
-2.58036779996473E-05,-1.80627848749282E-05,45.3515625,0,0
-2.35095067182556E-05,-1.62012875080109E-05,45.3515625,0,0
-2.60126398643479E-05,-2.00933554879157E-05,45.3515625,0,0
-2.12668091990054E-05,-1.81641407834832E-05,45.3515625,0,0
-2.41962534346385E-05,-1.92395782505628E-05,45.3515625,0,0
-2.61067179962993E-05,-1.79022808879381E-05,45.3515625,0,0
-2.90792249870719E-05,-2.09916706808144E-05,45.3515625,0,0
-2.89296003757045E-05,-2.52397294389084E-05,45.3515625,0,0
-2.55786635534605E-05,-2.81566244666465E-05,45.3515625,0,0
-1.80133210960776E-05,-2.63987240032293E-05,45.3515625,0,0
-8.73809221957345E-06,-2.17547349166125E-05,45.3515625,0,0
-4.72123110739631E-06,-2.03309245989658E-05,45.3515625,0,0
-5.84966983296908E-06,-2.0755380319315E-05,45.3515625,0,0
-1.24618209156324E-05,-2.24836658162531E-05,45.3515625,0,0
-1.80332535819616E-05,-2.10982816497562E-05,45.3515625,0,0
-2.34506860579131E-05,-1.96424825844588E-05,45.3515625,0,0
-2.56132552749477E-05,-1.68289716384606E-05,59.765625,0,0
-2.80579970421968E-05,-1.63094191520941E-05,59.765625,0,0
-2.80607582681114E-05,-1.5232665646181E-05,59.765625,0,0
-2.65636535914382E-05,-1.51590056702844E-05,59.765625,0,0
-2.17830438486999E-05,-1.65602377819596E-05,59.765625,0,0
-1.77650526893558E-05,-2.00526410480961E-05,59.765625,0,0
-1.58492621267214E-05,-2.28770786634414E-05,59.765625,0,0
-1.55760699271923E-05,-2.36675550695509E-05,59.765625,0,0
-1.12986581370933E-05,-2.30681343964534E-05,59.765625,0,0
-1.93993287211924E-06,-2.30606347031426E-05,59.765625,0,0
6.90499564370839E-06,-1.83750798896654E-05,59.765625,0,0
1.6349711586372E-05,-2.44186139752856E-05,59.765625,0,0
2.30407986236969E-05,-1.43901406772784E-05,59.765625,0,0
3.15650104312226E-05,-1.55170255311532E-05,59.765625,0,0
3.75005402020179E-05,-9.85183396551292E-06,59.765625,0,0
4.15553658967838E-05,-1.30762073240476E-05,59.765625,0,0
4.05302234867122E-05,-1.25366295833373E-05,59.765625,0,0
3.91013054468203E-05,-1.46393040267867E-05,59.765625,0,0
3.8565180147998E-05,-1.52489146785229E-05,59.765625,0,0
3.86195060855243E-05,-1.67668677022448E-05,59.765625,0,0
3.82701582566369E-05,-1.8277003619005E-05,59.765625,0,0
3.8212128856685E-05,-1.87362693395698E-05,59.765625,0,0
3.89754750358406E-05,-2.03981599042891E-05,59.765625,0,0
3.90613422496244E-05,-2.09758964047069E-05,59.765625,0,0
3.66559434041847E-05,-2.29473334911745E-05,59.765625,0,0
2.87703696812969E-05,-2.17834895011038E-05,59.765625,0,0
1.75322802533628E-05,-2.18571531149792E-05,59.765625,0,0
6.98985832059407E-06,-2.01395741896704E-05,59.765625,0,0
1.06705613234226E-06,-2.14077335840557E-05,59.765625,0,0
-3.45557123182516E-06,-2.21298578253482E-05,59.765625,0,0
-9.60344914346933E-06,-2.35271090787137E-05,59.765625,0,0
-1.84392483788542E-05,-2.1104744519107E-05,59.765625,0,0
-2.76197824859992E-05,-1.97203298739623E-05,59.765625,0,0
-3.5757664591074E-05,-1.84225609700661E-05,59.765625,0,0
-3.97268158849329E-05,-1.74375909409719E-05,59.765625,0,0
-3.93597947550006E-05,-1.68061887961812E-05,59.765625,0,0
-3.71322530554608E-05,-1.77717138285516E-05,59.765625,0,0
-2.68671428784728E-05,-1.48550798257929E-05,59.765625,0,0
-3.70936613762751E-05,-1.98937177628977E-05,59.765625,0,0
-2.4037568437052E-05,-1.45014164445456E-05,59.765625,0,0
-2.4031523935264E-05,-2.05351079785032E-05,59.765625,0,0
-8.60035925143166E-06,-1.90928712981986E-05,59.765625,0,0
-6.91715513312374E-06,-2.11232891160762E-05,59.765625,0,0
-3.47122818311618E-06,-2.00613158085616E-05,59.765625,0,0
-5.7874754020304E-06,-2.16103380807908E-05,59.765625,0,0
-2.79796586255543E-06,-1.94959229702363E-05,59.765625,0,0
5.26601297679008E-07,-1.78782247530762E-05,59.765625,0,0
1.89272645911842E-06,-1.77412111952435E-05,59.765625,0,0
2.36576534007327E-06,-1.74074120877776E-05,59.765625,0,0
8.13236322727562E-09,-1.80879815161461E-05,59.765625,0,0
4.23172281216466E-07,-1.72087566170376E-05,59.765625,0,0
-2.85492319562763E-07,-1.84541640919633E-05,59.765625,0,0
5.39769916940713E-06,-1.84137916221516E-05,59.765625,0,0
1.11020453914534E-05,-1.89392139873235E-05,59.765625,0,0
2.0066712750122E-05,-1.56683272507507E-05,59.765625,0,0
2.48882588493871E-05,-1.38320365294931E-05,59.765625,0,0
3.08390335703734E-05,-1.24186180983088E-05,59.765625,0,0
3.40856495313346E-05,-1.30050257212133E-05,59.765625,0,0
3.76649259123951E-05,-1.21338962344453E-05,59.765625,0,0
3.69267545465846E-05,-1.13531268652878E-05,59.765625,0,0
3.54501862602774E-05,-9.79890955932206E-06,59.765625,0,0
3.3565880585229E-05,-9.6970543381758E-06,59.765625,0,0
3.26800327457022E-05,-1.01166224339977E-05,59.765625,0,0
3.16308723995462E-05,-1.0299568202754E-05,59.765625,0,0
2.64148802671116E-05,-8.88469094206812E-06,59.765625,0,0
3.79981684091035E-05,-1.25421802295023E-05,59.765625,0,0
2.6167825126322E-05,-9.74985869106604E-06,59.765625,0,0
2.70039890892804E-05,-1.40293886943255E-05,59.765625,0,0
1.22761939564953E-05,-1.50641026266385E-05,59.765625,0,0
7.60779448683024E-06,-1.60396557475906E-05,59.765625,0,0
6.32885246432124E-07,-1.28463880173513E-05,59.765625,0,0
8.17935017494165E-07,-1.21141911222367E-05,59.765625,0,0
-1.41339342007996E-06,-1.36609523906372E-05,59.765625,0,0
-3.31873775394342E-06,-1.7000069419737E-05,59.765625,0,0
-4.73430009151343E-06,-1.94087315321667E-05,59.765625,0,0
-4.52867334388429E-06,-1.90549599210499E-05,59.765625,0,0
-9.96846438283683E-07,-1.88322319445433E-05,59.765625,0,0
-2.03172271540097E-06,-1.82666299224366E-05,59.765625,0,0
-3.03057186101796E-06,-1.78739992406918E-05,59.765625,0,0
-7.52027835915214E-06,-1.63022759807063E-05,59.765625,0,0
-9.0772055045818E-06,-1.70402890944388E-05,59.765625,0,0
-1.33822477437207E-05,-1.81429386429954E-05,59.765625,0,0
-1.58501825353596E-05,-1.96619312191615E-05,59.765625,0,0
-2.15626205317676E-05,-1.94572749023791E-05,59.765625,0,0
-2.50652374234051E-05,-1.96381824935088E-05,59.765625,0,0
-2.95899080811068E-05,-1.93950454558944E-05,59.765625,0,0
-3.12114389089402E-05,-1.91333874681732E-05,59.765625,0,0
-3.30447182932403E-05,-1.89657403097954E-05,59.765625,0,0
-3.53700525010936E-05,-1.97676145035075E-05,59.765625,0,0
-3.85319362976588E-05,-1.86489523912314E-05,59.765625,0,0
-4.10970533266664E-05,-1.85878234333359E-05,59.765625,0,0
-3.45556873071473E-05,-1.76815665327013E-05,59.765625,0,0
-5.04293493577279E-05,-2.6225390683976E-05,59.765625,0,0
-3.90396126022097E-05,-2.18244895222597E-05,59.765625,0,0
-4.88782752654515E-05,-2.6896483177552E-05,59.765625,0,0
-4.24512982135639E-05,-2.22397575271316E-05,59.765625,0,0
-4.78714537166525E-05,-2.40650588239077E-05,59.765625,0,0
-4.34281173511408E-05,-2.28859353228472E-05,59.765625,0,0
-4.27314480475616E-05,-2.41438519879011E-05,59.765625,0,0
-3.58791257895064E-05,-2.16712378460215E-05,59.765625,0,0
-2.87918428512057E-05,-1.79151338670636E-05,59.765625,0,0
-2.2006986910128E-05,-1.50612577272113E-05,59.765625,0,0
-1.68714395840652E-05,-1.38323193823453E-05,59.765625,0,0
-1.60513027367415E-05,-1.51748981807032E-05,59.765625,0,0
-9.54698589339387E-06,-1.41231384986895E-05,59.765625,0,0
-1.53341568420728E-06,-1.44565474329283E-05,59.765625,0,0
1.09949251054786E-05,-1.39552521432051E-05,59.765625,0,0
1.78264381247573E-05,-1.66667814482935E-05,59.765625,0,0
2.82810269709444E-05,-1.73586449818686E-05,59.765625,0,0
3.4780921851052E-05,-1.89914790098555E-05,59.765625,0,0
4.10868815379217E-05,-1.9175275156158E-05,59.765625,0,0
4.28367529821116E-05,-1.99951027752832E-05,59.765625,0,0
4.97790351801086E-05,-1.79431226570159E-05,59.765625,0,0
5.73805446038023E-05,-1.55966172314947E-05,59.765625,0,0
6.59004072076641E-05,-1.38198383865529E-05,59.765625,0,0
7.01848039170727E-05,-1.62386295414763E-05,59.765625,0,0
7.26448561181314E-05,-1.92138304555556E-05,59.765625,0,0
7.39615861675702E-05,-2.03814834094374E-05,59.765625,0,0
5.92570395383518E-05,-1.63439181051217E-05,59.765625,0,0
8.20427449070849E-05,-2.33481423492776E-05,59.765625,0,0
5.67959978070576E-05,-1.80202496267157E-05,59.765625,0,0
6.88065629219636E-05,-2.22437047341373E-05,59.765625,0,0
5.09253331983928E-05,-1.72526088135783E-05,59.765625,0,0
5.17526423209347E-05,-1.58458187797805E-05,59.765625,0,0
3.43965621141251E-05,-1.03950342236203E-05,59.765625,0,0
2.87549355562078E-05,-8.5408246377483E-06,59.765625,0,0
1.7258440493606E-05,-7.96510266809491E-06,59.765625,0,0
7.91024649515748E-06,-1.02645753941033E-05,59.765625,0,0
-5.4980176855679E-07,-1.15913016998093E-05,59.765625,0,0
-1.02652002169634E-05,-1.24355601656134E-05,59.765625,0,0
-1.45544536280795E-05,-1.63730856002076E-05,59.765625,0,0
-2.2692507627653E-05,-1.96580185729545E-05,59.765625,0,0
-2.32836209761444E-05,-2.3263695766218E-05,59.765625,0,0
-2.89589388557943E-05,-2.33934697462246E-05,59.765625,0,0
-2.57899373536929E-05,-2.42035930568818E-05,59.765625,0,0
-2.82744167634519E-05,-2.22497619688511E-05,59.765625,0,0
-2.59885327977827E-05,-2.18242548726266E-05,59.765625,0,0
-3.04188197333133E-05,-2.02819228434237E-05,59.765625,0,0
-2.97094411507715E-05,-1.99635196622694E-05,59.765625,0,0
-3.20894687320106E-05,-1.85950666491408E-05,59.765625,0,0
-3.04861168842763E-05,-1.85458648047643E-05,59.765625,0,0
-3.14658718707506E-05,-2.03496238100342E-05,59.765625,0,0
-3.05592730001081E-05,-2.55745071626734E-05,59.765625,0,0
-2.83340232272167E-05,-2.89136987703387E-05,59.765625,0,0
-1.85441786015872E-05,-2.92528875434073E-05,59.765625,0,0
-3.86377450922737E-06,-2.27263608394424E-05,59.765625,0,0
-2.45304590862361E-07,-3.25914406857919E-05,59.765625,0,0
7.74231466493802E-06,-2.65188446064712E-05,59.765625,0,0
8.9395734903519E-06,-3.29905778926332E-05,59.765625,0,0
1.27511802929803E-05,-2.62393514276482E-05,59.765625,0,0
1.2029692697979E-05,-2.7459553166409E-05,59.765625,0,0
1.67111793416552E-05,-2.40777117141988E-05,59.765625,0,0
1.84773252840387E-05,-2.46905910898931E-05,59.765625,0,0
1.81198192876764E-05,-2.09543486562325E-05,59.765625,0,0
1.49565894389525E-05,-1.73803855432197E-05,59.765625,0,0
1.19825599540491E-05,-1.46985976243741E-05,59.765625,0,0
8.6814370661159E-06,-1.28107458294835E-05,59.765625,0,0
4.25421558247763E-06,-1.45767326102941E-05,59.765625,0,0
1.33681749048264E-06,-1.32514405777329E-05,59.765625,0,0
6.85593875004997E-07,-1.21233515528729E-05,59.765625,0,0
2.31354692914465E-06,-9.27489418245386E-06,59.765625,0,0
2.9248622013256E-06,-1.06285588117316E-05,59.765625,0,0
6.7140904320695E-06,-8.88312570168637E-06,59.765625,0,0
1.27622870422783E-05,-7.73736337578157E-06,59.765625,0,0
2.11192127608228E-05,-4.70257919005235E-06,73.828125,0,0
2.91430114884861E-05,-5.18446313435561E-06,73.828125,0,0
3.71741043636575E-05,-4.2188062252535E-06,73.828125,0,0
4.15887625422329E-05,-4.59901548310881E-06,73.828125,0,0
4.11474611610174E-05,-4.50270181318047E-06,73.828125,0,0
3.6444154829951E-05,-6.91022933096974E-06,73.828125,0,0
3.33780735672917E-05,-9.93637604551623E-06,73.828125,0,0
3.2085368729895E-05,-1.34061419885256E-05,73.828125,0,0
2.10041434911545E-05,-1.26894647110021E-05,73.828125,0,0
1.93107352970401E-05,-1.74429460457759E-05,73.828125,0,0
-6.04845672569354E-06,-1.39929270517314E-05,73.828125,0,0
-1.62278975039953E-05,-1.86849938472733E-05,73.828125,0,0
-4.12298759329133E-05,-1.68490096257301E-05,73.828125,0,0
-5.8394783991389E-05,-2.11998340091668E-05,73.828125,0,0
-7.59798131184652E-05,-2.30049954552669E-05,73.828125,0,0
-7.99832487246022E-05,-2.56882176472573E-05,73.828125,0,0
-7.97934553702362E-05,-2.41357884078752E-05,73.828125,0,0
-7.5670046498999E-05,-2.09606096177595E-05,73.828125,0,0
-6.95611961418763E-05,-1.87745063158218E-05,73.828125,0,0
-6.14279779256321E-05,-1.63481872732518E-05,73.828125,0,0
-5.01762624480762E-05,-1.57067679538159E-05,73.828125,0,0
-4.02597615902778E-05,-1.4253592780733E-05,73.828125,0,0
-2.6153387807426E-05,-1.37888027893496E-05,73.828125,0,0
-1.40678694151575E-05,-1.28504843814881E-05,73.828125,0,0
1.27974476527015E-06,-1.55956531671109E-05,73.828125,0,0
1.56857349793427E-05,-1.74448832694907E-05,73.828125,0,0
3.379701229278E-05,-1.93105406651739E-05,73.828125,0,0
4.96562715852633E-05,-1.93298074009363E-05,73.828125,0,0
6.65260085952468E-05,-1.96109358512331E-05,73.828125,0,0
7.84940784797072E-05,-1.80126280611148E-05,73.828125,0,0
8.67225608089939E-05,-1.744842302287E-05,73.828125,0,0
8.80613879417069E-05,-1.78988811967429E-05,73.828125,0,0
8.43027737573721E-05,-1.81910909304861E-05,73.828125,0,0
7.53409040044062E-05,-1.55200395965949E-05,73.828125,0,0
6.66773485136218E-05,-1.16216124297353E-05,73.828125,0,0
4.71816856588703E-05,-6.69316978019197E-06,73.828125,0,0
5.90568488405552E-05,-9.06782497622771E-06,73.828125,0,0
2.67589111899724E-05,-7.55786186346086E-06,73.828125,0,0
1.96403107111109E-05,-9.85094266070519E-06,73.828125,0,0
-1.15155971798231E-05,-8.8784718172974E-06,73.828125,0,0
-1.71206993400119E-05,-1.3075785318506E-05,73.828125,0,0
-2.70735417871038E-05,-1.59134087880375E-05,73.828125,0,0
-2.74590784101747E-05,-1.84566342795733E-05,73.828125,0,0
-3.57774115400389E-05,-1.84752134373412E-05,73.828125,0,0
-4.41598131146748E-05,-1.87713394552702E-05,73.828125,0,0
-5.34434184373822E-05,-2.0327432139311E-05,73.828125,0,0
-6.47679626126774E-05,-2.12326503969962E-05,73.828125,0,0
-6.82459867675789E-05,-2.26207484956831E-05,73.828125,0,0
-6.84665865264833E-05,-2.25316143769305E-05,73.828125,0,0
-5.65286354685668E-05,-2.08670335268835E-05,73.828125,0,0
-4.6547305828426E-05,-1.78069785761181E-05,73.828125,0,0
-2.93295288429363E-05,-1.86222805496072E-05,73.828125,0,0
-1.63675358635373E-05,-2.12937593460083E-05,73.828125,0,0
3.21784023071814E-06,-2.36617106565973E-05,73.828125,0,0
1.79929538717261E-05,-2.37541935348418E-05,73.828125,0,0
3.20900726364926E-05,-2.47768075496424E-05,73.828125,0,0
3.92638939956669E-05,-2.58215550275054E-05,73.828125,0,0
5.03135270264465E-05,-2.71501412498765E-05,73.828125,0,0
6.10356364632025E-05,-2.70170676230919E-05,73.828125,0,0
7.26123835192993E-05,-2.41197576542618E-05,73.828125,0,0
7.99813788034953E-05,-1.94926342373947E-05,73.828125,0,0
8.30146091175266E-05,-1.57062149810372E-05,73.828125,0,0
6.65594780002721E-05,-9.65347499004565E-06,73.828125,0,0
8.95133634912781E-05,-1.13869527922361E-05,73.828125,0,0
5.59369327675086E-05,-5.62874674869818E-06,73.828125,0,0
6.21754297753796E-05,-7.30695865058806E-06,73.828125,0,0
3.81386780645698E-05,-4.17360024584923E-06,73.828125,0,0
3.95268398278859E-05,-6.73950307827909E-06,73.828125,0,0
2.39723831327865E-05,-8.65847687236965E-06,73.828125,0,0
