biceps_emg, triceps_emg, subject_position, position_estimate, brace_position
2.81369329968584E-06,-2.1805370124639E-05,-0.17578125,0,0
3.23338326779776E-06,-1.90741884580348E-05,-0.17578125,0,0
4.35001675214153E-06,-1.61992684297729E-05,-0.17578125,0,0
5.16071168021881E-06,-1.55681700562127E-05,-0.17578125,0,0
5.22845084560686E-06,-1.70895327755716E-05,-0.17578125,0,0
2.03559534384112E-06,-1.56848582264502E-05,-0.17578125,0,0
8.07708886441105E-07,-2.26191241381457E-05,-0.17578125,0,0
-3.4627475997695E-07,-1.74377692019334E-05,-0.17578125,0,0
2.82409359897429E-06,-2.04919706447981E-05,-0.17578125,0,0
3.22404275721055E-06,-1.46252286867821E-05,-0.17578125,0,0
3.58531292476982E-06,-1.41300270115607E-05,-0.17578125,0,0
1.39988151204307E-06,-1.37865945362137E-05,-0.17578125,0,0
-1.01966804777476E-07,-1.88032845471753E-05,-0.17578125,0,0
1.78800533490175E-07,-2.09594963962445E-05,-0.17578125,0,0
1.32961986309965E-06,-2.00696977117332E-05,-0.17578125,0,0
1.73253283719532E-06,-1.83718893822515E-05,-0.17578125,0,0
1.18516288694082E-06,-1.65402834682027E-05,-0.17578125,0,0
1.69882844147651E-06,-1.69231698237127E-05,-0.17578125,0,0
2.47248840423708E-06,-1.55420239025261E-05,-0.17578125,0,0
3.20382014251663E-06,-1.55112629727228E-05,-0.17578125,0,0
3.23861672768544E-06,-1.52693628479028E-05,-0.17578125,0,0
2.97153314932075E-06,-1.84214441105723E-05,-0.17578125,0,0
2.33507398661459E-06,-1.93485975614749E-05,-0.17578125,0,0
2.18540594687511E-06,-1.932506893354E-05,-0.17578125,0,0
1.46578815929388E-06,-1.66674635693198E-05,-0.17578125,0,0
5.26312874171708E-07,-1.56843962031417E-05,-0.17578125,0,0
1.30130246134286E-07,-1.42990402309806E-05,-0.17578125,0,0
2.1277301129885E-06,-1.47539331010194E-05,-0.17578125,0,0
4.76002696814248E-06,-1.56502992467722E-05,-0.17578125,0,0
5.7658812693262E-06,-1.54396693687886E-05,-0.17578125,0,0
4.31764829045278E-06,-1.28630963445175E-05,-0.17578125,0,0
2.60080128100526E-06,-8.61970147525426E-06,-0.17578125,0,0
1.36513949655637E-06,-5.47623358215787E-06,-0.17578125,0,0
7.4771128311113E-07,-9.02609917829977E-06,-0.17578125,0,0
-1.12310331701337E-07,-8.46913007990224E-06,-0.17578125,0,0
1.15787213417207E-06,-9.63670299825026E-06,-0.17578125,0,0
2.46971183059941E-07,-9.4711313067819E-06,-0.17578125,0,0
6.53550046081364E-07,-1.24232883536024E-05,-0.17578125,0,0
1.94727726920974E-06,-1.41575819725404E-05,-0.17578125,0,0
2.588601091702E-06,-1.37602874019649E-05,-0.17578125,0,0
1.51929066305456E-06,-1.26566874314449E-05,-0.17578125,0,0
3.0998543820715E-07,-1.52225547935814E-05,-0.17578125,0,0
2.16289066656827E-07,-1.88742051250301E-05,-0.17578125,0,0
2.92823159497857E-07,-2.0022403987241E-05,-0.17578125,0,0
-1.46842481285603E-07,-1.80452734639402E-05,-0.17578125,0,0
-1.17459228476946E-06,-1.4847241800453E-05,-0.17578125,0,0
-1.58322177412629E-06,-1.3218439562479E-05,-0.17578125,0,0
-2.25789199248538E-06,-1.27413231894025E-05,-0.17578125,0,0
-2.77243952950812E-06,-1.50480418596999E-05,-0.17578125,0,0
-3.02475473290542E-06,-1.78077298187418E-05,-0.17578125,0,0
-3.51921789842891E-06,-2.03799681912642E-05,-0.17578125,0,0
-5.05768684888608E-06,-2.05369942705147E-05,-0.17578125,0,0
-6.09507969784318E-06,-1.92824663827196E-05,-0.17578125,0,0
-5.40258133696625E-06,-1.75504865183029E-05,-0.17578125,0,0
-3.71393525711028E-06,-1.73376811289927E-05,-0.17578125,0,0
-2.3494560537074E-06,-1.81422037712764E-05,-0.17578125,0,0
-1.4327390829294E-07,-1.85583849088289E-05,-0.17578125,0,0
2.50714356297976E-06,-1.82830153789837E-05,-0.17578125,0,0
3.56847431248752E-06,-1.8888200429501E-05,-0.17578125,0,0
9.49044078879524E-07,-1.61832358571701E-05,-0.17578125,0,0
-4.80496510135708E-07,-2.38349384744652E-05,-0.17578125,0,0
-2.53306097874884E-06,-1.91859799087979E-05,-0.17578125,0,0
-7.87508497523959E-07,-2.27860800805502E-05,-0.17578125,0,0
9.28240524444846E-07,-1.84421296580695E-05,-0.17578125,0,0
2.56455223279772E-06,-2.0616571418941E-05,-0.17578125,0,0
3.80854135073605E-06,-1.89989987120498E-05,-0.17578125,0,0
3.9596188798896E-06,-1.84773143701022E-05,-0.17578125,0,0
1.86745580776915E-06,-1.5010445167718E-05,-0.17578125,0,0
-1.27075651334962E-07,-1.41101600092952E-05,-0.17578125,0,0
-6.72045814553712E-07,-1.61464231496211E-05,-0.17578125,0,0
-1.012359476249E-07,-1.97695699171163E-05,-0.17578125,0,0
3.62832054179307E-07,-2.60018932749517E-05,-0.17578125,0,0
2.30679091828279E-07,-2.96644557238324E-05,-0.17578125,0,0
3.40069561843848E-07,-3.11072762997355E-05,-0.17578125,0,0
5.74140187836747E-07,-2.55794438999146E-05,-0.17578125,0,0
1.21053938073601E-06,-2.02560695470311E-05,-0.17578125,0,0
2.21522100218863E-06,-1.60838408191921E-05,-0.17578125,0,0
3.84040367862326E-06,-1.73282805917552E-05,-0.17578125,0,0
5.23915969097288E-06,-1.77798319782596E-05,-0.17578125,0,0
6.3466382016486E-06,-1.7554530131747E-05,-0.17578125,0,0
8.07619471743237E-06,-1.570507811266E-05,-0.17578125,0,0
1.03702786873328E-05,-1.69941049534827E-05,-0.17578125,0,0
1.15982347779209E-05,-1.96028122445568E-05,-0.17578125,0,0
1.23950630950276E-05,-2.27587770496029E-05,-0.17578125,0,0
1.1232517863391E-05,-2.33630889852066E-05,-0.17578125,0,0
9.16194403544068E-06,-2.08930832741316E-05,-0.17578125,0,0
7.88720717537217E-06,-1.59346745931543E-05,-0.17578125,0,0
1.18895095511107E-05,-2.26352694880916E-05,-0.17578125,0,0
9.50184221437667E-06,-1.59971259563463E-05,-0.17578125,0,0
1.0066164577438E-05,-2.03156068891985E-05,-0.17578125,0,0
6.15986937191337E-06,-1.892135333037E-05,-0.17578125,0,0
6.66805772198131E-06,-2.04951375053497E-05,-0.17578125,0,0
7.56452345740399E-06,-1.69367467606207E-05,-0.17578125,0,0
9.41617145144846E-06,-1.67289817909477E-05,-0.17578125,0,0
8.92924708750797E-06,-1.66791869560257E-05,-0.17578125,0,0
8.30311273603002E-06,-1.77210531546734E-05,-0.17578125,0,0
8.34187903819839E-06,-1.83384199772263E-05,-0.17578125,0,0
7.41723260944127E-06,-1.68383339769207E-05,-0.17578125,0,0
6.29368878435344E-06,-1.51871972775552E-05,-0.17578125,0,0
4.44386387243867E-06,-1.23499758046819E-05,-0.17578125,0,0
3.6170811199554E-06,-1.32568247863674E-05,-0.17578125,0,0
2.43917838815833E-06,-1.38658615469467E-05,-0.17578125,0,0
2.92728259410069E-06,-1.5193028957583E-05,-0.17578125,0,0
3.58849524673133E-06,-1.35575292006251E-05,-0.17578125,0,0
5.53740937903058E-06,-1.36856306198752E-05,-0.17578125,0,0
5.59070895178593E-06,-1.24109164971742E-05,-0.17578125,0,0
3.98864176531788E-06,-1.19307142085745E-05,-0.17578125,0,0
1.66339236784552E-06,-1.19632550195092E-05,-0.17578125,0,0
1.04747152818163E-06,-1.37081497086911E-05,-0.17578125,0,0
1.55232680754125E-06,-1.40713464134024E-05,-0.17578125,0,0
3.01672685054655E-06,-1.35107466121553E-05,-0.17578125,0,0
2.70291798187827E-06,-1.40537049446721E-05,-0.17578125,0,0
2.05561400434817E-06,-1.69333106896374E-05,-0.17578125,0,0
3.69405802302936E-06,-1.64840585057391E-05,-0.17578125,0,0
8.23114805825753E-06,-2.66931147052674E-05,-0.17578125,0,0
9.65574417932658E-06,-2.37659551203251E-05,-0.17578125,0,0
1.01495597846224E-05,-2.4246370230685E-05,-0.17578125,0,0
1.02036146927276E-05,-1.58534003276145E-05,-0.17578125,0,0
1.09791344584664E-05,-1.61230836965842E-05,-0.17578125,0,0
1.01761870610062E-05,-1.42619874168304E-05,-0.17578125,0,0
8.1629050328047E-06,-1.42350972964778E-05,-0.17578125,0,0
6.0430506891862E-06,-1.34871652335278E-05,-0.17578125,0,0
5.82576012675418E-06,-1.47219116115593E-05,-0.17578125,0,0
6.93374659022084E-06,-1.68199239851674E-05,-0.17578125,0,0
8.12203597888583E-06,-1.69837894645752E-05,-0.17578125,0,0
7.53286803956144E-06,-1.62082669703523E-05,-0.17578125,0,0
5.59619138584821E-06,-1.15071015898138E-05,-0.17578125,0,0
5.33056163476431E-06,-9.49594686971977E-06,-0.17578125,0,0
6.0248121371842E-06,-1.08944968815194E-05,-0.17578125,0,0
6.32923820376163E-06,-1.6381092791562E-05,-0.17578125,0,0
5.23515882377978E-06,-1.84274722414557E-05,-0.17578125,0,0
3.89819388146861E-06,-1.98399920918746E-05,-0.17578125,0,0
2.66252823166724E-06,-1.80406022991519E-05,-0.17578125,0,0
2.73210230261611E-06,-1.71324263646966E-05,-0.17578125,0,0
3.36237599185552E-06,-1.75503846548963E-05,-0.17578125,0,0
3.08022094941407E-06,-1.83218144229613E-05,-0.17578125,0,0
1.50953974298318E-06,-1.71406791196205E-05,-0.17578125,0,0
-3.62919934104866E-07,-1.73320640897145E-05,-0.17578125,0,0
-1.39740677695954E-06,-1.81313134817174E-05,-0.17578125,0,0
-1.45598176004569E-06,-1.72051259141881E-05,-0.17578125,0,0
-2.03047670765955E-06,-1.24027510537417E-05,-0.17578125,0,0
-4.75568549518357E-06,-1.82554722414352E-05,-0.17578125,0,0
-6.64433491692762E-06,-1.5651718058507E-05,-0.17578125,0,0
-7.01702720107278E-06,-2.01826351258205E-05,-0.17578125,0,0
-4.62074967799708E-06,-1.71292285813252E-05,-0.17578125,0,0
-2.07071639124479E-06,-1.77289985003881E-05,-0.17578125,0,0
7.37209404633177E-07,-1.62141313921893E-05,-0.17578125,0,0
1.73642058598489E-06,-1.84810560313053E-05,-0.17578125,0,0
1.47023638419341E-06,-2.15064646909013E-05,-0.17578125,0,0
-2.3502315116275E-07,-2.39990404224955E-05,-0.17578125,0,0
-2.86503245661152E-06,-2.37295607803389E-05,-0.17578125,0,0
-5.75898957322352E-06,-1.99922942556441E-05,-0.17578125,0,0
-6.65105244479491E-06,-1.73473345057573E-05,-0.17578125,0,0
-5.11860434926348E-06,-1.57510057761101E-05,-0.17578125,0,0
-3.87148065783549E-06,-1.80749393621227E-05,-0.17578125,0,0
-2.96405551125645E-06,-2.03286726900842E-05,-0.17578125,0,0
-2.46861281993915E-06,-2.27030941459816E-05,-0.17578125,0,0
-1.32533284613601E-06,-2.21910977415973E-05,-0.17578125,0,0
2.1285718787567E-07,-2.20402907871176E-05,-0.17578125,0,0
1.52095344674308E-06,-2.01210368686588E-05,-0.17578125,0,0
8.92522507456306E-07,-1.71211067936383E-05,-0.17578125,0,0
-4.55422537015693E-07,-1.29956497403327E-05,-0.17578125,0,0
-9.40905692914384E-07,-1.22421006381046E-05,-0.17578125,0,0
-1.0531772431932E-06,-1.31354172481224E-05,-0.17578125,0,0
-8.71661370638321E-07,-1.5437115507666E-05,-0.17578125,0,0
-1.17887095640867E-08,-1.68910119100474E-05,-0.17578125,0,0
4.62463901840238E-07,-1.51937802002067E-05,-0.17578125,0,0
3.99268600403957E-07,-1.07599607872544E-05,-0.17578125,0,0
9.84750954557967E-07,-1.50209680214175E-05,-0.17578125,0,0
3.1564527489536E-06,-1.34243455249816E-05,-0.17578125,0,0
5.55251153855352E-06,-1.87432451639324E-05,-0.17578125,0,0
5.28525470144814E-06,-1.52059419633588E-05,-0.17578125,0,0
4.64744152850471E-06,-1.53535675053718E-05,-0.17578125,0,0
3.55356814907282E-06,-1.45489193528192E-05,-0.17578125,0,0
3.14635235554306E-06,-1.75851673702709E-05,-0.17578125,0,0
4.09585163652082E-06,-2.22826602112036E-05,-0.17578125,0,0
5.55541873836773E-06,-2.6151426936849E-05,-0.17578125,0,0
6.16005354459048E-06,-2.67734794761054E-05,-0.17578125,0,0
5.27543215866899E-06,-2.57503124885261E-05,-0.17578125,0,0
4.62434354631114E-06,-2.55292688962072E-05,-0.17578125,0,0
5.1765587159025E-06,-2.35919760598335E-05,-0.17578125,0,0
6.27598228675197E-06,-2.10168018384138E-05,-0.17578125,0,0
6.48385866952594E-06,-1.77093170350417E-05,-0.17578125,0,0
5.55347423869534E-06,-1.84969503607135E-05,-0.17578125,0,0
4.24320342062856E-06,-1.94313615793362E-05,-0.17578125,0,0
3.01204136121669E-06,-2.02229348360561E-05,-0.17578125,0,0
1.89363026947831E-06,-1.81442646862706E-05,-0.17578125,0,0
1.43204158575827E-06,-1.71043084264966E-05,-0.17578125,0,0
2.70773739430297E-06,-1.64969806064619E-05,-0.17578125,0,0
4.84395468447474E-06,-1.69598952197703E-05,-0.17578125,0,0
4.92288472742075E-06,-1.71764077094849E-05,-0.17578125,0,0
2.91457672574325E-06,-1.73426687979372E-05,-0.17578125,0,0
1.6869819319254E-06,-1.5645569874323E-05,-0.17578125,0,0
3.30124271386012E-06,-1.43622519317432E-05,-0.17578125,0,0
2.99067232845118E-06,-1.1571406503208E-05,-0.17578125,0,0
1.76277717400808E-06,-1.77661368070403E-05,-0.17578125,0,0
-2.66297752204991E-06,-1.6719801351428E-05,-0.17578125,0,0
-3.05004482470395E-06,-2.01370039576432E-05,-0.17578125,0,0
-2.88963701677858E-06,-1.48072313095327E-05,-0.17578125,0,0
5.25127916262136E-07,-1.37934393933392E-05,-0.17578125,0,0
2.85319288195751E-06,-1.28418078020331E-05,-0.17578125,0,0
4.84960446556215E-06,-1.63834174600197E-05,-0.17578125,0,0
4.80133394376026E-06,-1.75636796484469E-05,-0.17578125,0,0
4.74470925837522E-06,-1.60718118422665E-05,-0.17578125,0,0
5.22685286341584E-06,-1.3544114153774E-05,-0.17578125,0,0
4.68393000119249E-06,-1.27578468891443E-05,-0.17578125,0,0
4.32440128861344E-06,-1.58825532707851E-05,-0.17578125,0,0
3.98118936573155E-06,-1.86724973900709E-05,-0.17578125,0,0
3.91757112083724E-06,-2.12139348150231E-05,-0.17578125,0,0
2.85882424577721E-06,-2.01400107471272E-05,-0.17578125,0,0
3.07215987049858E-06,-1.82013427547645E-05,-0.17578125,0,0
4.35333686255035E-06,-1.44381210702704E-05,-0.17578125,0,0
5.82079974265071E-06,-1.30168000396225E-05,-0.17578125,0,0
4.57003579867887E-06,-1.25061105791247E-05,-0.17578125,0,0
2.30522732636018E-06,-1.41062346301624E-05,-0.17578125,0,0
1.55270481627667E-06,-1.45751118907356E-05,-0.17578125,0,0
3.39789698955428E-06,-1.71016254171263E-05,-0.17578125,0,0
4.16107423006906E-06,-2.04298012249637E-05,-0.17578125,0,0
2.9852953957743E-06,-1.96653090824839E-05,-0.17578125,0,0
1.9277631508885E-06,-1.48443677971954E-05,-0.17578125,0,0
1.17999400117696E-06,-1.22934188766521E-05,-0.17578125,0,0
1.50498567563773E-06,-1.07713540273835E-05,-0.17578125,0,0
2.64660980064946E-06,-1.55332745634951E-05,-0.17578125,0,0
2.64745312961168E-06,-1.0533334716456E-05,-0.17578125,0,0
2.50123162004456E-06,-1.34923966470524E-05,-0.17578125,0,0
1.77665538103611E-06,-1.34341871671495E-05,-0.17578125,0,0
2.2725350845576E-06,-1.63897911988897E-05,-0.17578125,0,0
2.75908041658113E-06,-1.79708949872293E-05,-0.17578125,0,0
3.27247994391655E-06,-1.97738463612041E-05,-0.17578125,0,0
2.87296597889508E-06,-1.95784887182526E-05,-0.17578125,0,0
1.6443364074803E-06,-1.81012073880993E-05,-0.17578125,0,0
9.1993427986381E-07,-1.62601008923957E-05,-0.17578125,0,0
6.60545993014239E-07,-1.48232757055666E-05,-0.17578125,0,0
-8.22474106598747E-08,-1.5544006600976E-05,-0.17578125,0,0
-1.78944731032971E-06,-1.5396890375996E-05,-0.17578125,0,0
-3.29139243149257E-06,-1.52942848217208E-05,-0.17578125,0,0
-3.1682154713053E-06,-1.47659129652311E-05,-0.17578125,0,0
-8.82478900621209E-07,-1.67634461831767E-05,-0.17578125,0,0
1.45716285260278E-06,-1.84255095518893E-05,-0.17578125,0,0
2.4936684894783E-06,-2.09695044759428E-05,-0.17578125,0,0
2.54512929132034E-06,-2.21454502025153E-05,-0.17578125,0,0
3.72577460439061E-06,-2.1721241864725E-05,-0.17578125,0,0
6.02500222157687E-06,-1.93247888091719E-05,-0.17578125,0,0
7.07013805367751E-06,-1.77987622009823E-05,-0.17578125,0,0
5.87823024034151E-06,-1.75757868419169E-05,-0.17578125,0,0
4.85476857647882E-06,-1.80796359927626E-05,-0.17578125,0,0
4.40540861745831E-06,-1.61044245032826E-05,-0.17578125,0,0
4.17843921241001E-06,-1.26701525005046E-05,-0.17578125,0,0
2.85243436337623E-06,-8.16825104266172E-06,-0.17578125,0,0
3.67666689271573E-06,-1.09554266600753E-05,-0.17578125,0,0
2.1372300125222E-06,-8.14486247691093E-06,-0.17578125,0,0
4.54879909739248E-06,-1.10117180156521E-05,-0.17578125,0,0
5.34745095137623E-06,-9.08427227841457E-06,-0.17578125,0,0
4.68798316433094E-06,-9.68055519479094E-06,-0.17578125,0,0
2.78891138805193E-06,-1.01991190604167E-05,-0.17578125,0,0
2.52348399953917E-06,-1.40395259222714E-05,-0.17578125,0,0
3.53896825799893E-06,-1.62391825142549E-05,-0.17578125,0,0
3.0814937872492E-06,-1.80809183802921E-05,-0.17578125,0,0
1.83253882823919E-06,-1.88930171134416E-05,-0.17578125,0,0
9.63483671512222E-07,-1.92237403098261E-05,-0.17578125,0,0
1.18892899081402E-06,-2.08494275284465E-05,-0.17578125,0,0
1.1808223234766E-06,-2.14154424611479E-05,-0.17578125,0,0
4.98922418046277E-07,-2.08543551707407E-05,-0.17578125,0,0
-1.34087230208024E-07,-1.8774087948259E-05,-0.17578125,0,0
1.87772172921541E-07,-1.94984168047085E-05,-0.17578125,0,0
4.07366258059483E-07,-1.97313074750127E-05,-0.17578125,0,0
4.31579934456749E-07,-2.0150566342636E-05,-0.17578125,0,0
9.34533886720601E-07,-1.98647594515933E-05,-0.17578125,0,0
2.52959830504551E-06,-2.08845813176595E-05,-0.17578125,0,0
2.86401427729288E-06,-2.04492625925923E-05,-0.17578125,0,0
1.41859288760315E-06,-1.9419230739004E-05,-0.17578125,0,0
1.33388471112994E-06,-1.95305565284798E-05,-0.17578125,0,0
1.68945439327217E-06,-2.17887172766496E-05,-0.17578125,0,0
3.74269149006068E-07,-2.31044305110117E-05,-0.17578125,0,0
-5.96799168306461E-07,-2.31923131650547E-05,-0.17578125,0,0
2.86479433952991E-07,-1.6037318346207E-05,-0.17578125,0,0
2.60852289102331E-06,-1.79974540515104E-05,-0.17578125,0,0
6.08427626502817E-06,-5.63159619559883E-06,-0.17578125,0,0
6.79458389640786E-06,-8.07473679742543E-06,-0.17578125,0,0
6.51517939331825E-06,-5.43420946996775E-06,-0.17578125,0,0
7.03890782460803E-06,-8.92476691660704E-06,-0.17578125,0,0
6.49627327220514E-06,-8.82681888469961E-06,-0.17578125,0,0
5.02450029671309E-06,-1.28332158055855E-05,-0.17578125,0,0
4.90727643409627E-06,-1.36744829433155E-05,-0.17578125,0,0
6.06400135438889E-06,-1.53607088577701E-05,-0.17578125,0,0
6.30844760962646E-06,-1.90277769434033E-05,-0.17578125,0,0
4.78251513413852E-06,-2.26049050979782E-05,-0.17578125,0,0
3.84619625037885E-06,-2.49208278546575E-05,-0.17578125,0,0
4.59395050711464E-06,-2.35956085816724E-05,-0.17578125,0,0
5.94811945120455E-06,-2.39023065660149E-05,-0.17578125,0,0
7.10108497514739E-06,-2.10485632123891E-05,-0.17578125,0,0
7.3250098466815E-06,-1.80924944288563E-05,-0.17578125,0,0
6.6164975578431E-06,-1.42339604281005E-05,-0.17578125,0,0
6.1328760239121E-06,-1.56042005983181E-05,-0.17578125,0,0
6.99152042216156E-06,-1.59059454745147E-05,-0.17578125,0,0
7.95087180449627E-06,-1.6533045709366E-05,-0.17578125,0,0
7.12536439095857E-06,-1.55913166963728E-05,-0.17578125,0,0
5.77552782488056E-06,-1.58852035383461E-05,-0.17578125,0,0
4.87333727505757E-06,-1.74258220795309E-05,-0.17578125,0,0
3.04936384054599E-06,-2.01676102733472E-05,-0.17578125,0,0
1.05500555491744E-06,-2.13657622225583E-05,-0.17578125,0,0
-2.23874749849529E-07,-2.12452086998383E-05,-0.17578125,0,0
8.25005827209679E-07,-1.58152761287056E-05,-0.17578125,0,0
2.598013907118E-06,-2.25574385694927E-05,-0.17578125,0,0
3.50134587279172E-06,-1.68144124472747E-05,-0.17578125,0,0
3.49254105458385E-06,-1.96993714780547E-05,-0.17578125,0,0
2.73729006039503E-06,-1.67919788509607E-05,-0.17578125,0,0
1.43126931106963E-06,-2.12227896554396E-05,-0.17578125,0,0
1.18208004096232E-06,-2.06859185709618E-05,-0.17578125,0,0
1.3735005950366E-06,-2.09891641134163E-05,-0.17578125,0,0
1.9172744032403E-06,-1.96012078959029E-05,-0.17578125,0,0
3.1115284855332E-06,-1.82924122782424E-05,-0.17578125,0,0
4.42255259258673E-06,-1.65839883266017E-05,-0.17578125,0,0
5.18450997333275E-06,-1.49435409184662E-05,-0.17578125,0,0
5.39756410944392E-06,-1.64241610036697E-05,-0.17578125,0,0
4.77452522318345E-06,-1.63861259352416E-05,-0.17578125,0,0
4.00906856157235E-06,-1.64030934683979E-05,-0.17578125,0,0
3.82214375349577E-06,-1.51477124745725E-05,-0.17578125,0,0
3.72677322957315E-06,-1.71069241332589E-05,-0.17578125,0,0
2.79819141724147E-06,-1.67369871633127E-05,-0.17578125,0,0
1.94351514437585E-06,-1.73576918314211E-05,-0.17578125,0,0
2.91347737402248E-06,-1.72313430084614E-05,-0.17578125,0,0
4.53399934485788E-06,-1.83186748472508E-05,-0.17578125,0,0
4.73911495646462E-06,-1.73158823599806E-05,-0.17578125,0,0
3.31213755089266E-06,-1.65755664056633E-05,-0.17578125,0,0
2.85773467112449E-06,-1.69729919434758E-05,-0.17578125,0,0
3.6377687138156E-06,-1.88788999366807E-05,-0.17578125,0,0
3.58592092197796E-06,-1.94078966160305E-05,-0.17578125,0,0
3.47247942045215E-06,-1.96339187823469E-05,-0.17578125,0,0
1.62205651577096E-06,-1.72940763150109E-05,-0.17578125,0,0
1.2838280554206E-06,-2.75986403721618E-05,-0.17578125,0,0
2.27859032975175E-07,-2.50206885539228E-05,-0.17578125,0,0
1.870772393886E-06,-2.7645442969515E-05,-0.17578125,0,0
2.87452417069289E-06,-1.98007273866097E-05,-0.17578125,0,0
3.89662727684481E-06,-1.77108559000771E-05,-0.17578125,0,0
3.62557398148056E-06,-1.42777325891075E-05,-0.17578125,0,0
4.29192914452869E-06,-1.78479403984966E-05,-0.17578125,0,0
3.64563857147004E-06,-2.21714308281662E-05,-0.17578125,0,0
2.23033089241653E-06,-2.55993545579258E-05,-0.17578125,0,0
9.07440153241623E-07,-2.46162708208431E-05,-0.17578125,0,0
1.20871433750835E-07,-1.95380471268436E-05,-0.17578125,0,0
7.42765166705794E-07,-1.61719417519635E-05,-0.17578125,0,0
1.86835541171604E-06,-1.41619066198473E-05,-0.17578125,0,0
2.84225234281621E-06,-1.44843561429298E-05,-0.17578125,0,0
2.80369272331882E-06,-1.16765795610263E-05,-0.17578125,0,0
2.18268132812227E-06,-1.07205996755511E-05,-0.17578125,0,0
1.34921924654918E-06,-9.27231940295314E-06,-0.17578125,0,0
1.43498141369491E-06,-1.00162178569008E-05,-0.17578125,0,0
1.97022836800897E-06,-8.82390304468572E-06,-0.17578125,0,0
2.68913981926744E-06,-9.236080586561E-06,-0.17578125,0,0
1.84292264293617E-06,-8.8937631517183E-06,-0.17578125,0,0
7.37857703825284E-07,-1.02404692370328E-05,-0.17578125,0,0
5.31756484178914E-07,-1.27669200082892E-05,-0.17578125,0,0
1.10829410004953E-06,-1.5132984117372E-05,-0.17578125,0,0
1.01641808214481E-06,-1.64980010595173E-05,-0.17578125,0,0
1.02269410717781E-07,-1.66831032402115E-05,-0.17578125,0,0
-8.11259440069989E-07,-1.21388657134958E-05,-0.17578125,0,0
-9.02852605122462E-07,-1.74647684616502E-05,-0.17578125,0,0
3.86546020081369E-07,-1.47937671499676E-05,-0.17578125,0,0
1.4870987570248E-06,-1.97206481971079E-05,-0.17578125,0,0
7.02294528309722E-07,-1.76566427398939E-05,-0.17578125,0,0
-2.06673644242983E-06,-1.84220079972874E-05,-0.17578125,0,0
-3.02235366689274E-06,-1.70560324477265E-05,-0.17578125,0,0
-2.99864154840179E-06,-1.96687378775096E-05,-0.17578125,0,0
-2.93093853542814E-06,-2.24200011871289E-05,-0.17578125,0,0
-2.2123092549009E-06,-2.40688859776128E-05,-0.17578125,0,0
-6.83820985614148E-07,-2.19204575842014E-05,-0.17578125,0,0
-1.51746718302093E-07,-1.78295358637115E-05,-0.17578125,0,0
9.52910284013342E-08,-1.63327604241204E-05,-0.17578125,0,0
3.47431011959998E-07,-1.60959625645773E-05,-0.17578125,0,0
-5.18780609581881E-07,-1.82673356903251E-05,-0.17578125,0,0
-4.16303407746454E-07,-1.85990629688604E-05,-0.17578125,0,0
9.62991066444374E-07,-1.81514587893616E-05,-0.17578125,0,0
1.92976222024299E-06,-1.4629431461799E-05,-0.17578125,0,0
9.36436322263035E-07,-1.41416694532381E-05,-0.17578125,0,0
3.17419932116536E-07,-1.55512807396008E-05,-0.17578125,0,0
1.9162382614013E-06,-1.78188493009657E-05,-0.17578125,0,0
2.81020152215206E-06,-1.75254845089512E-05,-0.17578125,0,0
1.85063299795729E-06,-1.72544441738864E-05,-0.17578125,0,0
1.89741308531666E-06,-1.67121215781663E-05,-0.17578125,0,0
2.28032376980991E-06,-1.71515694091795E-05,-0.17578125,0,0
2.2136564439279E-06,-1.85542630788404E-05,-0.17578125,0,0
1.71740293808398E-06,-1.94141703104833E-05,-0.17578125,0,0
2.17106435229653E-06,-1.4434456716117E-05,-0.17578125,0,0
2.44340003519028E-06,-1.82737931027077E-05,-0.17578125,0,0
-6.21528386091086E-07,-1.1506847840792E-05,-0.17578125,0,0
-8.29172847716109E-07,-1.54673889483092E-05,-0.17578125,0,0
4.44803021082407E-07,-1.15184384412714E-05,-0.17578125,0,0
2.40047870647686E-06,-1.1907291082025E-05,-0.17578125,0,0
3.53200653080421E-06,-9.89952422969509E-06,-0.17578125,0,0
2.97796782433579E-06,-1.22257251859992E-05,-0.17578125,0,0
2.15232330447179E-06,-1.15178982014186E-05,-0.17578125,0,0
2.78360471384076E-06,-1.17073896035436E-05,-0.17578125,0,0
3.02880630442814E-06,-1.32878412841819E-05,-0.17578125,0,0
2.81928146250721E-06,-1.51495696627535E-05,-0.17578125,0,0
3.35113350047322E-06,-1.87045534403296E-05,-0.17578125,0,0
3.38812606059946E-06,-1.99341175175505E-05,-0.17578125,0,0
1.93010828297702E-06,-2.35409752349369E-05,-0.17578125,0,0
3.34266445634057E-07,-2.51827768806834E-05,-0.17578125,0,0
1.21792851359714E-07,-2.58055824815528E-05,-0.17578125,0,0
-1.27784210235404E-06,-2.20510482904501E-05,-0.17578125,0,0
-3.70240013580769E-06,-1.98838897631504E-05,-0.17578125,0,0
-4.43861745225149E-06,-1.78811442310689E-05,-0.17578125,0,0
-2.55509326052561E-06,-1.89163147297222E-05,-0.17578125,0,0
-9.66979200711648E-07,-1.88501926459139E-05,-0.17578125,0,0
-8.83589279965236E-07,-1.78659120138036E-05,-0.17578125,0,0
-6.14100656548544E-07,-1.60827657964546E-05,-0.17578125,0,0
1.83020767963171E-06,-1.51841313709156E-05,-0.17578125,0,0
4.71615976493922E-06,-1.53636083268793E-05,-0.17578125,0,0
5.88143620916526E-06,-1.53227374539711E-05,-0.17578125,0,0
4.21281765738968E-06,-1.16001938295085E-05,-0.17578125,0,0
4.69140013592551E-06,-1.53683995449683E-05,-0.17578125,0,0
2.27682585318689E-06,-9.89903128356673E-06,-0.17578125,0,0
3.02610578728491E-06,-1.2316550964897E-05,-0.17578125,0,0
1.51406732129544E-06,-1.17812396638328E-05,-0.17578125,0,0
1.8395122651782E-06,-1.86784272955265E-05,-0.17578125,0,0
6.33540992112103E-07,-2.48979231400881E-05,-0.17578125,0,0
1.7300909576079E-06,-2.92297972919187E-05,-0.17578125,0,0
2.86499016510788E-06,-2.55813210969791E-05,-0.17578125,0,0
3.73697298527986E-06,-2.03150957531761E-05,-0.17578125,0,0
2.87381249108876E-06,-1.66365935001522E-05,-0.17578125,0,0
1.21967252653121E-06,-1.5046690350573E-05,-0.17578125,0,0
1.74581612100155E-06,-1.69290560734225E-05,-0.17578125,0,0
3.20658296004694E-06,-1.78984792000847E-05,-0.17578125,0,0
4.67661402581143E-06,-1.74920878635021E-05,-0.17578125,0,0
4.01987426812411E-06,-1.53154760482721E-05,-0.17578125,0,0
3.81813015337684E-06,-1.5905234249658E-05,-0.17578125,0,0
3.97998974221991E-06,-1.54272729560034E-05,-0.17578125,0,0
5.01459089718992E-06,-1.5778059605509E-05,-0.17578125,0,0
4.97274368171929E-06,-1.42884364322526E-05,-0.17578125,0,0
5.20587173014064E-06,-1.49467268784065E-05,-0.17578125,0,0
4.78034644402214E-06,-1.67425259860465E-05,-0.17578125,0,0
4.6892428144929E-06,-1.78618829522748E-05,-0.17578125,0,0
5.36368179382407E-06,-1.68493497767486E-05,-0.17578125,0,0
7.30896226741606E-06,-1.66554764291504E-05,-0.17578125,0,0
7.52392861613771E-06,-1.75770910573192E-05,-0.17578125,0,0
6.07401534580276E-06,-1.83845313586062E-05,-0.17578125,0,0
3.67203415407857E-06,-1.48477283801185E-05,-0.17578125,0,0
3.91440835301182E-06,-1.96368237084243E-05,-0.17578125,0,0
1.56243368110154E-06,-1.46209731610725E-05,-0.17578125,0,0
4.41006068285787E-06,-2.12365430343198E-05,-0.17578125,0,0
5.79584047954995E-06,-1.9124989194097E-05,-0.17578125,0,0
6.48941386316437E-06,-2.03567251446657E-05,-0.17578125,0,0
4.64254071630421E-06,-1.75303011928918E-05,-0.17578125,0,0
2.68630310529261E-06,-1.77994152181782E-05,-0.17578125,0,0
1.07232165191817E-06,-1.57240720000118E-05,-0.17578125,0,0
1.585701284057E-06,-1.50417890836252E-05,-0.17578125,0,0
2.34337903748383E-06,-1.69682516570902E-05,-0.17578125,0,0
1.61051798386325E-06,-1.63066524692113E-05,-0.17578125,0,0
1.17222339213185E-06,-1.46961556310998E-05,-0.17578125,0,0
1.92273682841915E-06,-1.24117323139217E-05,-0.17578125,0,0
3.47127729583008E-06,-1.36132066472783E-05,-0.17578125,0,0
3.89508068110445E-06,-1.3402048352873E-05,-0.17578125,0,0
5.93617414779146E-06,-1.46008333103964E-05,-0.17578125,0,0
9.20383808988845E-06,-1.34437323140446E-05,-0.17578125,0,0
1.17140316433506E-05,-1.29237923829351E-05,-0.17578125,0,0
1.16513692773879E-05,-1.11867602754501E-05,-0.17578125,0,0
1.10984919956536E-05,-1.32192899400252E-05,-0.17578125,0,0
1.04004966487992E-05,-1.68803417182062E-05,-0.17578125,0,0
9.713467079564E-06,-2.06123804673553E-05,-0.17578125,0,0
7.76839897298487E-06,-2.08659239433473E-05,-0.17578125,0,0
5.6749272516754E-06,-1.97442823264282E-05,-0.17578125,0,0
5.08282846567454E-06,-1.94966360140825E-05,-0.17578125,0,0
6.62577849652735E-06,-2.04599418793805E-05,-0.17578125,0,0
6.39369682176039E-06,-1.63345921464497E-05,-0.17578125,0,0
6.46832404527231E-06,-2.12525301321875E-05,-0.17578125,0,0
1.84790235380206E-06,-1.50854857565719E-05,-0.17578125,0,0
3.01666796076461E-06,-2.21067839447642E-05,-0.17578125,0,0
1.30483317661856E-06,-2.03428990062093E-05,-0.17578125,0,0
3.32496279042971E-06,-2.32487200264586E-05,-0.17578125,0,0
2.17100773625134E-06,-2.06957029149635E-05,-0.17578125,0,0
1.88777926268813E-06,-2.02850878849858E-05,-0.17578125,0,0
1.65525807460654E-06,-1.85409280675231E-05,-0.17578125,0,0
2.63894457930292E-06,-1.73998869286152E-05,-0.17578125,0,0
4.20309788751183E-06,-1.66980516951298E-05,-0.17578125,0,0
4.12931012760964E-06,-1.52431530295871E-05,-0.17578125,0,0
3.89893784813466E-06,-1.53746041178238E-05,-0.17578125,0,0
2.24724772124318E-06,-1.57593385665677E-05,-0.17578125,0,0
2.11622406709466E-07,-1.71743340615649E-05,-0.17578125,0,0
-2.41405996348476E-06,-1.39268167913542E-05,-0.17578125,0,0
-2.22051767195808E-06,-1.1843577340187E-05,-0.17578125,0,0
-5.83533903864009E-07,-9.70722794590984E-06,-0.17578125,0,0
1.37537801947474E-06,-1.21479797599022E-05,-0.17578125,0,0
2.51935801998115E-07,-1.47665532495012E-05,-0.17578125,0,0
-1.81625765094395E-07,-1.82327567017637E-05,-0.17578125,0,0
-2.51644962645514E-07,-1.86083343578503E-05,-0.17578125,0,0
7.00869975389651E-08,-1.94353106053313E-05,-0.17578125,0,0
1.20896546107474E-08,-1.88498306670226E-05,-0.17578125,0,0
5.38637152658339E-07,-1.7537180610816E-05,-0.17578125,0,0
1.37636527597351E-06,-1.53661148942774E-05,-0.17578125,0,0
2.93867833534023E-06,-1.24886892081122E-05,-0.17578125,0,0
3.55241718352772E-06,-7.50621575207333E-06,-0.17578125,0,0
5.01842532685259E-06,-1.02325948319049E-05,-0.17578125,0,0
3.34154856318492E-06,-7.55354085413273E-06,-0.17578125,0,0
3.03411229651829E-06,-7.9345736594405E-06,-0.17578125,0,0
2.08858864425565E-06,-4.15990189139848E-06,-0.17578125,0,0
3.25189034811046E-06,-6.25632264927845E-06,-0.17578125,0,0
2.83901022157806E-06,-7.70241786085535E-06,-0.17578125,0,0
2.09168570108886E-06,-1.0475631825102E-05,-0.17578125,0,0
1.61854723046417E-06,-1.31271544887568E-05,-0.17578125,0,0
3.07583127323596E-06,-1.51108943100553E-05,-0.17578125,0,0
4.19842308474472E-06,-1.58734710566932E-05,-0.17578125,0,0
3.5325510907569E-06,-1.75900549947983E-05,-0.17578125,0,0
3.34272499458166E-06,-2.24424311454641E-05,-0.17578125,0,0
3.27911038766615E-06,-2.5678953534225E-05,-0.17578125,0,0
2.57878173215431E-06,-2.7044929083786E-05,-0.17578125,0,0
1.15377451948007E-06,-2.69721476797713E-05,-0.17578125,0,0
1.81364180207311E-06,-2.76773880614201E-05,-0.17578125,0,0
3.05195771943545E-06,-2.70731907221489E-05,-0.17578125,0,0
3.60025114787277E-06,-2.74868034466635E-05,-0.17578125,0,0
3.70076736544434E-06,-2.81138800346525E-05,-0.17578125,0,0
4.25500320488936E-06,-2.95643494609976E-05,-0.17578125,0,0
3.43347005582473E-06,-3.00938791042427E-05,-0.17578125,0,0
3.25402902490168E-06,-3.15059514832683E-05,-0.17578125,0,0
5.12327051183092E-06,-3.07117916236166E-05,-0.17578125,0,0
7.04348713043146E-06,-2.67584964603884E-05,-0.17578125,0,0
5.67706274523516E-06,-2.27878972509643E-05,-0.17578125,0,0
3.33053731083055E-06,-2.06030745175667E-05,-0.17578125,0,0
1.91404001270712E-06,-1.70054354384774E-05,-0.17578125,0,0
1.78044444965053E-06,-2.49900713242823E-05,-0.17578125,0,0
9.90175294646178E-07,-1.83056326932274E-05,-0.17578125,0,0
2.862316023311E-06,-1.90539303730475E-05,-0.17578125,0,0
1.55398527112993E-06,-1.25067990666139E-05,-0.17578125,0,0
5.39527434284537E-07,-1.37282886498724E-05,-0.17578125,0,0
1.40692611694249E-06,-1.17324061648105E-05,-0.17578125,0,0
3.12629185827973E-06,-1.34976444314816E-05,-0.17578125,0,0
2.96815073852486E-06,-1.45197655001539E-05,-0.17578125,0,0
5.8979605910281E-07,-1.4025282325747E-05,-0.17578125,0,0
-1.62029618877568E-06,-1.25462029245682E-05,-0.17578125,0,0
-3.06372203340288E-06,-1.16814708235324E-05,-0.17578125,0,0
-3.17341596201004E-06,-1.33393969008466E-05,-0.17578125,0,0
-2.33648324865499E-06,-1.30973003251711E-05,-0.17578125,0,0
-9.50082778672368E-07,-1.36794324134826E-05,-0.17578125,0,0
-2.96405119115661E-07,-1.32175118778832E-05,-0.17578125,0,0
-6.01952251599869E-07,-1.57300655700965E-05,-0.17578125,0,0
-1.09941811388126E-06,-1.56810820044484E-05,-0.17578125,0,0
-1.81057160375531E-07,-1.52828415593831E-05,-0.17578125,0,0
9.34480624437128E-07,-1.23695690490422E-05,-0.17578125,0,0
1.6843644061737E-06,-1.13109017547686E-05,-0.17578125,0,0
2.42216947299312E-06,-1.0234067303827E-05,-0.17578125,0,0
3.15824354402139E-06,-1.09543489088537E-05,-0.17578125,0,0
3.05504909192678E-06,-1.10371156551992E-05,-0.17578125,0,0
2.07972789212363E-06,-1.08989361251588E-05,-0.17578125,0,0
2.47823891186272E-06,-1.06338839032105E-05,-0.17578125,0,0
3.44164391208324E-06,-1.04984310382861E-05,-0.17578125,0,0
1.90911305253394E-06,-8.04883347882424E-06,-0.17578125,0,0
2.83894087260705E-06,-1.00861352620996E-05,-0.17578125,0,0
3.64834409083414E-06,-6.30296881354298E-06,-0.17578125,0,0
5.76681895836373E-06,-9.04932676348835E-06,-0.17578125,0,0
4.24632435169769E-06,-9.52816662902478E-06,-0.17578125,0,0
3.24719485433889E-06,-1.2944353329658E-05,-0.17578125,0,0
3.43448937201174E-06,-1.24914113257546E-05,-0.17578125,0,0
4.14100304624299E-06,-1.3751144251728E-05,-0.17578125,0,0
3.23377071254072E-06,-1.50654068420408E-05,-0.17578125,0,0
1.94266499420337E-06,-1.58796501636971E-05,-0.17578125,0,0
2.80536733043846E-06,-1.51539306898485E-05,-0.17578125,0,0
4.28906241722871E-06,-1.36966164063779E-05,-0.17578125,0,0
5.04156969327596E-06,-1.37649449243327E-05,-0.17578125,0,0
4.57162650491227E-06,-1.46192960528424E-05,-0.17578125,0,0
5.10825384480995E-06,-1.62721244123532E-05,-0.17578125,0,0
5.67926599615021E-06,-1.59607407113072E-05,-0.17578125,0,0
5.05495654579136E-06,-1.75972854776774E-05,-0.17578125,0,0
3.58221723217866E-06,-1.87067489605397E-05,-0.17578125,0,0
3.11959024656971E-06,-1.95832399185747E-05,-0.17578125,0,0
4.20980131821125E-06,-1.96872933884151E-05,-0.17578125,0,0
6.13204201727058E-06,-2.02286664716667E-05,-0.17578125,0,0
5.97063035456813E-06,-1.83695537998574E-05,-0.17578125,0,0
2.73124260274926E-06,-1.76136109075742E-05,-0.17578125,0,0
6.2401731781847E-08,-1.76514604390832E-05,-0.17578125,0,0
9.41618338856642E-07,-1.99984824575949E-05,-0.17578125,0,0
4.21497406932758E-06,-2.32152560784016E-05,-0.17578125,0,0
5.37918049303698E-06,-2.53441976383328E-05,-0.17578125,0,0
2.03693980438402E-06,-2.32508409681031E-05,-0.17578125,0,0
8.05487957222795E-07,-3.32498748321086E-05,-0.17578125,0,0
-7.22988716006512E-07,-2.39955497818301E-05,-0.17578125,0,0
1.76890239345084E-06,-2.75445945590036E-05,-0.17578125,0,0
1.32808440866938E-06,-1.97617937374162E-05,-0.17578125,0,0
1.43261036100739E-06,-1.98735197045607E-05,-0.17578125,0,0
1.48369031194306E-06,-1.60755225806497E-05,-0.17578125,0,0
1.95876964426134E-06,-1.77219353645341E-05,-0.17578125,0,0
8.27404278425092E-07,-1.86443194252206E-05,-0.17578125,0,0
-1.75784563793968E-07,-2.04629832296632E-05,-0.17578125,0,0
5.05480329593411E-07,-2.00259892153554E-05,-0.17578125,0,0
1.45523597439023E-06,-1.78415211848915E-05,-0.17578125,0,0
1.99300302483607E-06,-2.0258985387045E-05,-0.17578125,0,0
2.50053176387155E-06,-2.24123705265811E-05,-0.17578125,0,0
4.41306337961578E-06,-2.51515994023066E-05,-0.17578125,0,0
6.10501547271269E-06,-2.28804383368697E-05,-0.17578125,0,0
7.07980643710471E-06,-2.12192899198271E-05,-0.17578125,0,0
7.32232365407981E-06,-1.68573897099122E-05,-0.17578125,0,0
7.29661223886069E-06,-1.72293748619268E-05,-0.17578125,0,0
5.06482592754764E-06,-1.77741931111086E-05,-0.17578125,0,0
3.1695099096396E-06,-2.09600912057795E-05,-0.17578125,0,0
3.5040422972088E-06,-2.19672765524592E-05,-0.17578125,0,0
5.41632061867858E-06,-2.19621269934578E-05,-0.17578125,0,0
5.65134632779518E-06,-2.10239868465578E-05,-0.17578125,0,0
3.29062845594308E-06,-2.20370584429475E-05,-0.17578125,0,0
1.29842885598919E-06,-2.21470018004766E-05,-0.17578125,0,0
1.81494363005186E-06,-2.2115189494798E-05,-0.17578125,0,0
2.45073169935495E-06,-1.71735791809624E-05,-0.17578125,0,0
3.351118948558E-06,-2.37070908042369E-05,-0.17578125,0,0
2.21199229599733E-06,-1.68872920767171E-05,-0.17578125,0,0
3.38334052685241E-06,-2.26925840252079E-05,-0.17578125,0,0
4.19090065406635E-06,-2.11526439670706E-05,-0.17578125,0,0
3.89121260013781E-06,-2.30361965805059E-05,-0.17578125,0,0
2.18099171434005E-06,-2.11222923098831E-05,-0.17578125,0,0
3.22439655064954E-06,-2.35585030168295E-05,-0.17578125,0,0
4.11756491303095E-06,-2.41367852140684E-05,-0.17578125,0,0
3.40781184604566E-06,-2.28912776947254E-05,-0.17578125,0,0
2.35800257541996E-06,-1.96943838091102E-05,-0.17578125,0,0
1.78142124696024E-06,-1.76881130755646E-05,-0.17578125,0,0
1.84225893917755E-06,-1.98716315935599E-05,-0.17578125,0,0
1.95784969037049E-06,-1.93358227988938E-05,-0.17578125,0,0
2.97676888294518E-06,-1.80804017873015E-05,-0.17578125,0,0
3.01228510579676E-06,-1.60013114509638E-05,-0.17578125,0,0
1.52689301557984E-06,-1.79911985469516E-05,-0.17578125,0,0
-4.18793604239909E-07,-1.71853207575623E-05,-0.17578125,0,0
1.7554843623202E-07,-1.62734395416919E-05,-0.17578125,0,0
1.6770432011981E-06,-1.51287495100405E-05,-0.17578125,0,0
2.31018657359527E-06,-1.658957444306E-05,-0.17578125,0,0
2.59116177403484E-06,-1.60904564836528E-05,-0.17578125,0,0
2.99486555377371E-06,-1.52937027451117E-05,-0.17578125,0,0
1.27391751902906E-06,-1.47948658195673E-05,-0.17578125,0,0
-5.0639050641621E-07,-1.60215404321207E-05,-0.17578125,0,0
-2.74265630650916E-07,-1.6233070709859E-05,-0.17578125,0,0
6.56345150673587E-07,-1.6278010662063E-05,-0.17578125,0,0
1.22343840303074E-06,-1.39130706884316E-05,-0.17578125,0,0
1.8751524066829E-06,-2.08960209420184E-05,-0.17578125,0,0
1.13656028588593E-06,-1.61544012371451E-05,-0.17578125,0,0
1.23834433907177E-06,-1.97139925148804E-05,-0.17578125,0,0
1.82790961389401E-06,-1.8103297406924E-05,-0.17578125,0,0
2.98022769129602E-06,-1.82307903742185E-05,-0.17578125,0,0
4.45695150119718E-06,-1.54218796524219E-05,-0.17578125,0,0
4.23675146521418E-06,-1.54926583491033E-05,-0.17578125,0,0
2.17666297430696E-06,-1.44050854942179E-05,-0.17578125,0,0
1.93372807189007E-06,-1.4411763913813E-05,-0.17578125,0,0
2.93304287879437E-06,-1.61409334396012E-05,-0.17578125,0,0
4.88194382342044E-06,-1.87341993296286E-05,-0.17578125,0,0
6.33646004644106E-06,-2.14642568607815E-05,-0.17578125,0,0
7.00094551575603E-06,-2.10028829314979E-05,-0.17578125,0,0
7.3152887125616E-06,-2.04725929506822E-05,-0.17578125,0,0
7.40017185307806E-06,-1.89820366358617E-05,-0.17578125,0,0
7.041713615763E-06,-1.95044467545813E-05,-0.17578125,0,0
5.25099903825321E-06,-1.82835610758048E-05,-0.17578125,0,0
3.58180545845244E-06,-1.77349684236106E-05,-0.17578125,0,0
2.933240693892E-06,-1.71608426171588E-05,-0.17578125,0,0
3.45986882166471E-06,-1.94222047866788E-05,-0.17578125,0,0
3.74777414435812E-06,-1.95911143237026E-05,-0.17578125,0,0
3.48148410012072E-06,-1.81406794581562E-05,-0.17578125,0,0
2.74071203421045E-06,-1.65797046065563E-05,-0.17578125,0,0
2.81790130429727E-06,-1.618637725187E-05,-0.17578125,0,0
2.96631355922727E-06,-1.51369249579147E-05,-0.17578125,0,0
2.0225911612215E-06,-1.47566570376512E-05,-0.17578125,0,0
9.5579696335335E-07,-1.14299618871883E-05,-0.17578125,0,0
2.53571920438844E-06,-1.54738409037236E-05,-0.17578125,0,0
2.87882289740082E-06,-1.16151231850381E-05,-0.17578125,0,0
8.76607771260751E-07,-1.50966789078666E-05,-0.17578125,0,0
-1.73443652329297E-06,-1.28196661535185E-05,-0.17578125,0,0
-2.42580858866859E-06,-1.37280176204513E-05,-0.17578125,0,0
-1.46234924613964E-06,-1.06724264696823E-05,-0.17578125,0,0
6.02339696342824E-07,-1.20780223369366E-05,-0.17578125,0,0
1.48211142914079E-06,-1.30456837723614E-05,-0.17578125,0,0
1.02318608696805E-06,-1.44061896207859E-05,-0.17578125,0,0
4.12813818684299E-07,-1.57934409799054E-05,-0.17578125,0,0
6.35756691735878E-07,-1.64679058798356E-05,-0.17578125,0,0
1.73792773239256E-06,-1.74930682987906E-05,-0.17578125,0,0
2.67646100837737E-06,-1.68807873706101E-05,-0.17578125,0,0
3.13853320221824E-06,-1.74800989043433E-05,-0.17578125,0,0
2.76881996796874E-06,-1.68182941706618E-05,-0.17578125,0,0
2.43894692175672E-06,-1.75237673829542E-05,-0.17578125,0,0
2.43091881202417E-06,-1.64909743034514E-05,-0.17578125,0,0
2.57206352216599E-06,-1.68559490703046E-05,-0.17578125,0,0
3.22291225529625E-06,-1.60771705850493E-05,-0.17578125,0,0
4.37204334957642E-06,-1.54023746290477E-05,-0.17578125,0,0
5.50000322618871E-06,-1.43867264341679E-05,-0.17578125,0,0
7.27333417671616E-06,-1.52423745021224E-05,-0.17578125,0,0
8.58106886880705E-06,-1.54873287101509E-05,-0.17578125,0,0
7.90268040873343E-06,-1.53219407366123E-05,-0.17578125,0,0
6.45324689685367E-06,-1.336442437605E-05,-0.17578125,0,0
5.86784381084726E-06,-1.2545066056191E-05,-0.17578125,0,0
4.20903825215646E-06,-1.10484807009925E-05,-0.17578125,0,0
4.95868016514578E-06,-1.51266049215337E-05,-0.17578125,0,0
2.907040197897E-06,-1.06999395939056E-05,-0.17578125,0,0
4.07220295528532E-06,-1.34933352455846E-05,-0.17578125,0,0
2.85171631730918E-06,-1.15677557914751E-05,-0.17578125,0,0
3.27592670146259E-06,-1.39333960760268E-05,-0.17578125,0,0
2.06370759769925E-06,-1.36701928568073E-05,-0.17578125,0,0
1.92963443623739E-06,-1.46922111525782E-05,-0.17578125,0,0
1.112965151151E-06,-1.4941040717531E-05,-0.17578125,0,0
1.93358374644959E-07,-1.4871395251248E-05,-0.17578125,0,0
-1.97284180103452E-06,-1.40261290653143E-05,-0.17578125,0,0
-3.7200006772764E-06,-1.4251778338803E-05,-0.17578125,0,0
-2.96445819003566E-06,-1.81277337105712E-05,-0.17578125,0,0
-1.83860049673967E-06,-2.15518721233821E-05,-0.17578125,0,0
-1.05669926142582E-06,-2.44140501308721E-05,-0.17578125,0,0
-2.13540920412925E-06,-2.40499921346782E-05,-0.17578125,0,0
-2.498349886082E-06,-2.38903430727078E-05,-0.17578125,0,0
-1.99180567506119E-06,-2.104694431182E-05,-0.17578125,0,0
-4.41215604496392E-07,-1.8849323168979E-05,-0.17578125,0,0
-7.25405186585704E-07,-1.73279677255778E-05,-0.17578125,0,0
-1.2042437447235E-06,-1.8120033928426E-05,-0.17578125,0,0
-1.78189395683148E-06,-1.76251633092761E-05,-0.17578125,0,0
-1.04979778825509E-06,-1.71771971508861E-05,-0.17578125,0,0
8.85184874732659E-07,-1.77425263245823E-05,-0.17578125,0,0
3.11522308038548E-06,-1.88284830073826E-05,-0.17578125,0,0
3.86863848689245E-06,-1.92621155292727E-05,-0.17578125,0,0
3.69564850188908E-06,-1.93118630704703E-05,-0.17578125,0,0
2.04569823836209E-06,-1.67456055351067E-05,-0.17578125,0,0
2.50581206273637E-06,-2.39323235291522E-05,-0.17578125,0,0
1.00841145922459E-06,-1.71964165929239E-05,-0.17578125,0,0
8.74845795806323E-07,-2.00564863916952E-05,-0.17578125,0,0
1.22347466913197E-06,-1.60659747052705E-05,-0.17578125,0,0
4.02519708586624E-06,-1.72332474903669E-05,-0.17578125,0,0
5.48446905668243E-06,-1.40786150950589E-05,-0.17578125,0,0
4.99910356666078E-06,-1.40836064019823E-05,-0.17578125,0,0
3.49350057149422E-06,-1.42415829031961E-05,-0.17578125,0,0
2.73906880465802E-06,-1.59656174218981E-05,-0.17578125,0,0
2.35538800552604E-06,-1.6544116078876E-05,-0.17578125,0,0
2.54988071901607E-06,-1.58837847266113E-05,-0.17578125,0,0
3.76369280274957E-06,-1.69734539667843E-05,-0.17578125,0,0
4.18515082856175E-06,-1.68019159900723E-05,-0.17578125,0,0
4.33054037785041E-06,-1.8072452803608E-05,-0.17578125,0,0
5.61796650799806E-06,-1.71735391631955E-05,-0.17578125,0,0
7.44644466976752E-06,-1.80602746695513E-05,-0.17578125,0,0
7.48831416785833E-06,-1.70640832948266E-05,-0.17578125,0,0
6.14785949437646E-06,-1.69298236869508E-05,-0.17578125,0,0
4.0806548895489E-06,-1.41025311677367E-05,-0.17578125,0,0
3.32632066601946E-06,-1.21182447401225E-05,-0.17578125,0,0
2.95661016025406E-06,-9.44988551054848E-06,-0.17578125,0,0
1.93832147488138E-06,-8.94269214768428E-06,-0.17578125,0,0
1.5382589708679E-06,-9.9325643532211E-06,-0.17578125,0,0
2.42911073655705E-06,-1.25566693895962E-05,-0.17578125,0,0
3.75684999198711E-06,-1.38165114549338E-05,-0.17578125,0,0
4.9823925110104E-06,-1.29473219203646E-05,-0.17578125,0,0
4.08072946811444E-06,-9.55665927904192E-06,-0.17578125,0,0
6.99380871083122E-06,-1.22036944958381E-05,-0.17578125,0,0
6.89604166836943E-06,-7.8104285421432E-06,-0.17578125,0,0
7.75083117332542E-06,-1.11113231469062E-05,-0.17578125,0,0
5.45077000424499E-06,-1.15947696031071E-05,-0.17578125,0,0
4.82725727124489E-06,-1.58504171849927E-05,-0.17578125,0,0
5.40203154741903E-06,-1.80744700628566E-05,-0.17578125,0,0
7.20731941328268E-06,-2.19651465158677E-05,-0.17578125,0,0
7.0622336352244E-06,-2.35583975154441E-05,-0.17578125,0,0
6.17322712059831E-06,-2.48199048655806E-05,-0.17578125,0,0
6.3016982494446E-06,-2.4175300495699E-05,-0.17578125,0,0
6.13089468970429E-06,-2.08049095817842E-05,-0.17578125,0,0
6.12859730608761E-06,-1.7228852811968E-05,-0.17578125,0,0
5.88337070439593E-06,-1.33376079247682E-05,-0.17578125,0,0
5.70087013329612E-06,-1.28320580188301E-05,-0.17578125,0,0
5.07391814608127E-06,-1.38090745167574E-05,-0.17578125,0,0
5.32941885467153E-06,-1.73617281689076E-05,-0.17578125,0,0
5.55827773496276E-06,-1.9254566723248E-05,-0.17578125,0,0
5.31479781784583E-06,-2.17333563341526E-05,-0.17578125,0,0
4.25107782575651E-06,-2.28160097321961E-05,-0.17578125,0,0
4.00320550397737E-06,-2.25216608669143E-05,-0.17578125,0,0
4.10397569794441E-06,-1.86610959644895E-05,-0.17578125,0,0
3.25078917740029E-06,-1.43270835906151E-05,-0.17578125,0,0
1.42335022701445E-06,-1.17943991426728E-05,-0.17578125,0,0
7.63243122037238E-08,-1.36287017085124E-05,-0.17578125,0,0
-5.19455227276922E-07,-1.67959005921148E-05,-0.17578125,0,0
-4.99935310926958E-07,-1.8545597413322E-05,-0.17578125,0,0
-1.48981018810446E-06,-1.44241712405346E-05,-0.17578125,0,0
-2.26582733375835E-06,-1.93371924979147E-05,-0.17578125,0,0
-2.91036457156224E-07,-1.42871922435006E-05,-0.17578125,0,0
1.91437561625207E-06,-1.94146759895375E-05,-0.17578125,0,0
3.65128698831541E-06,-1.70620260178111E-05,-0.17578125,0,0
3.72976501239464E-06,-2.04229654627852E-05,-0.17578125,0,0
4.10985603593872E-06,-1.89186375791905E-05,-0.17578125,0,0
4.12523877457716E-06,-1.93699834198924E-05,-0.17578125,0,0
3.67464394912531E-06,-2.00347658392275E-05,-0.17578125,0,0
4.21607774114818E-06,-2.22760136239231E-05,-0.17578125,0,0
3.90329341826146E-06,-2.44110597122926E-05,-0.17578125,0,0
2.70456507678318E-06,-2.49010136030847E-05,-0.17578125,0,0
1.46499485254026E-06,-2.49344357143855E-05,-0.17578125,0,0
4.30674617746263E-07,-2.29899105761433E-05,-0.17578125,0,0
-5.01178362810606E-07,-2.32191232498735E-05,-0.17578125,0,0
-9.2046718691563E-07,-2.20223519136198E-05,-0.17578125,0,0
-3.11727035295917E-07,-2.25028397835558E-05,-0.17578125,0,0
1.48985941450519E-06,-2.11083406611579E-05,-0.17578125,0,0
3.77395804207481E-06,-2.14259052881971E-05,-0.17578125,0,0
5.47912850379362E-06,-2.09017816814594E-05,-0.17578125,0,0
4.94397500006016E-06,-2.07597768167034E-05,-0.17578125,0,0
3.28319083564566E-06,-1.79464896064019E-05,-0.17578125,0,0
2.49595132117975E-06,-1.57665508595528E-05,-0.17578125,0,0
1.97834083337511E-06,-1.44951291076723E-05,-0.17578125,0,0
5.25597329215088E-07,-1.48169619933469E-05,-0.17578125,0,0
-1.29485897559789E-07,-1.61129064508714E-05,-0.17578125,0,0
2.03176523427828E-06,-1.78719037648989E-05,-0.17578125,0,0
3.67125994671369E-06,-1.485208485974E-05,-0.17578125,0,0
4.96537040817202E-06,-2.1607562302961E-05,-0.17578125,0,0
2.33269861382723E-06,-1.78631289600162E-05,-0.17578125,0,0
2.28645308197883E-06,-2.38091852224898E-05,-0.17578125,0,0
6.56880786209513E-07,-2.18096411117585E-05,-0.17578125,0,0
-6.73236570492008E-07,-2.08861110877479E-05,-0.17578125,0,0
-1.40939221182634E-06,-1.54138524521841E-05,-0.17578125,0,0
-6.49043670364335E-07,-1.42094177135732E-05,-0.17578125,0,0
-4.61646756377831E-08,-1.3364363439905E-05,-0.17578125,0,0
1.73166733929975E-06,-1.49722436617594E-05,-0.17578125,0,0
4.67587187813479E-06,-1.69268678291701E-05,-0.17578125,0,0
6.34823982181842E-06,-1.66271511261584E-05,-0.17578125,0,0
6.4464124989172E-06,-1.53877299453598E-05,-0.17578125,0,0
5.64667288927012E-06,-1.40741431096103E-05,-0.17578125,0,0
4.8639694796293E-06,-1.65064393513603E-05,-0.17578125,0,0
3.98201700591017E-06,-1.63001241162419E-05,-0.17578125,0,0
3.63626759281033E-06,-1.66462305060122E-05,-0.17578125,0,0
3.62273294740589E-06,-1.66933368745958E-05,-0.17578125,0,0
4.34123649029061E-06,-2.07250977837248E-05,-0.17578125,0,0
4.45602563559078E-06,-2.4079979993985E-05,-0.17578125,0,0
4.45651721747709E-06,-2.64505561062833E-05,-0.17578125,0,0
3.8711768866051E-06,-2.53696507570567E-05,-0.17578125,0,0
3.95324559576693E-06,-2.36868982028682E-05,-0.17578125,0,0
4.61869876744458E-06,-2.06723725568736E-05,-0.17578125,0,0
5.74999967284384E-06,-1.85686876648106E-05,-0.17578125,0,0
5.93841468798928E-06,-1.75794011738617E-05,-0.17578125,0,0
5.22472464581369E-06,-1.68832521012519E-05,-0.17578125,0,0
4.07988409278914E-06,-1.33560997710447E-05,-0.17578125,0,0
5.94127732256311E-06,-2.07930370379472E-05,-0.17578125,0,0
4.35842639490147E-06,-1.82761723408476E-05,-0.17578125,0,0
4.79782465845346E-06,-2.1047264453955E-05,-0.17578125,0,0
3.69575059266936E-06,-1.61162879521726E-05,-0.17578125,0,0
4.84468864669907E-06,-1.60296713147545E-05,-0.17578125,0,0
5.19359218742466E-06,-1.38131617859472E-05,-0.17578125,0,0
4.82160248793662E-06,-1.30150556287845E-05,-0.17578125,0,0
2.92376375909953E-06,-1.15478633233579E-05,-0.17578125,0,0
2.40923804994964E-06,-1.13813139250851E-05,-0.17578125,0,0
3.38075687977835E-06,-1.16424844236462E-05,-0.17578125,0,0
3.29556110045814E-06,-1.1685378922266E-05,-0.17578125,0,0
1.87379748695093E-06,-1.34502661239821E-05,-0.17578125,0,0
5.2023057861561E-08,-1.47979753819527E-05,-0.17578125,0,0
-2.23860865844472E-07,-1.65940746228443E-05,-0.17578125,0,0
-4.4629234707827E-07,-1.55995621753391E-05,-0.17578125,0,0
-2.85704203406567E-07,-1.57880695041968E-05,-0.17578125,0,0
-5.42477891940507E-07,-1.55825255205855E-05,-0.17578125,0,0
-4.92803167162492E-07,-1.64700613822788E-05,-0.17578125,0,0
-1.57995259542076E-06,-1.57257109094644E-05,-0.17578125,0,0
-2.84719249066256E-06,-1.6096790204756E-05,-0.17578125,0,0
-3.24442271448788E-06,-1.58257225848502E-05,-0.17578125,0,0
-1.31230081024114E-06,-1.66980098583736E-05,-0.17578125,0,0
1.52709458234312E-06,-1.62036194524262E-05,-0.17578125,0,0
1.75554953329993E-06,-1.48702893056907E-05,-0.17578125,0,0
-1.24040255400359E-07,-1.33364655994228E-05,-0.17578125,0,0
1.11980659767141E-06,-1.33208341139834E-05,-0.17578125,0,0
2.86345994027215E-06,-1.2662682820519E-05,-0.17578125,0,0
4.0590348362457E-06,-1.66780737345107E-05,-0.17578125,0,0
2.46957733907038E-06,-8.39725817058934E-06,-0.17578125,0,0
3.15009128826205E-06,-8.28801239549648E-06,-0.17578125,0,0
3.01428076454613E-06,-7.58725036575925E-06,-0.17578125,0,0
3.73145849152934E-06,-1.4315476619231E-05,-0.17578125,0,0
3.64867764801602E-06,-1.57779340952402E-05,-0.17578125,0,0
2.16396824725962E-06,-1.79735598067055E-05,-0.17578125,0,0
-3.73350530935568E-07,-1.82951371243689E-05,-0.17578125,0,0
-1.15197030936542E-06,-1.7442878743168E-05,-0.17578125,0,0
1.43159650178859E-06,-1.67763573699631E-05,-0.17578125,0,0
4.14585520047694E-06,-1.56937185238348E-05,-0.17578125,0,0
4.79988557344768E-06,-1.59910814545583E-05,-0.17578125,0,0
3.71891223949206E-06,-1.51576623466099E-05,-0.17578125,0,0
3.44795080309268E-06,-1.52676875586621E-05,-0.17578125,0,0
4.17093087889953E-06,-1.48664812513744E-05,-0.17578125,0,0
5.65276013730909E-06,-1.65498495334759E-05,-0.17578125,0,0
6.67706763124443E-06,-1.63288023031782E-05,-0.17578125,0,0
7.09868390913471E-06,-1.81905379577074E-05,-0.17578125,0,0
6.25152233624249E-06,-1.96975488506723E-05,-0.17578125,0,0
4.60598266727175E-06,-2.00125214178115E-05,-0.17578125,0,0
3.39694861395401E-06,-1.71871888596797E-05,-0.17578125,0,0
3.00519991469628E-06,-1.48606050061062E-05,-0.17578125,0,0
3.38004133482173E-06,-1.32223267428344E-05,-0.17578125,0,0
4.46106787421741E-06,-1.58666043716948E-05,-0.17578125,0,0
4.49542767455569E-06,-2.05787564482307E-05,-0.17578125,0,0
3.06480296785594E-06,-2.17286833503749E-05,-0.17578125,0,0
1.22971152904938E-06,-1.65988731168909E-05,-0.17578125,0,0
6.85349789364409E-07,-2.11200604098849E-05,-0.17578125,0,0
-9.5476809747197E-07,-1.23340951176942E-05,-0.17578125,0,0
4.72684327235129E-08,-1.59324408741668E-05,-0.17578125,0,0
1.3290124343257E-06,-1.25800297610112E-05,-0.17578125,0,0
2.22710536945669E-06,-1.69630911841523E-05,-0.17578125,0,0
1.0359854059061E-06,-1.77718429767992E-05,-0.17578125,0,0
3.28965967355543E-07,-2.0885079720756E-05,-0.17578125,0,0
4.92329093049193E-07,-2.08714445761871E-05,-0.17578125,0,0
1.7935792584467E-07,-1.9143893950968E-05,-0.17578125,0,0
-5.44536149504893E-08,-1.72551572177326E-05,-0.17578125,0,0
-5.30298734702228E-07,-1.60361832968192E-05,-0.17578125,0,0
-9.60936631599907E-07,-1.67818343470572E-05,-0.17578125,0,0
-6.39548261460732E-07,-1.5823981811991E-05,-0.17578125,0,0
7.08439699792507E-07,-1.70904113474535E-05,-0.17578125,0,0
1.40257452585502E-06,-1.64364937518258E-05,-0.17578125,0,0
9.4500603609049E-07,-1.6783997125458E-05,-0.17578125,0,0
-6.31917032478668E-07,-1.49929201143095E-05,-0.17578125,0,0
-2.06801951208035E-06,-1.48106282722438E-05,-0.17578125,0,0
-1.78894981672784E-06,-1.23845993584837E-05,-0.17578125,0,0
8.54028954222485E-08,-1.17430945465458E-05,-0.17578125,0,0
1.48977835578989E-06,-1.03657412182656E-05,-0.17578125,0,0
2.10029679692525E-06,-9.05401611817069E-06,-0.17578125,0,0
3.27378234032949E-06,-7.6093087955087E-06,-0.17578125,0,0
4.20490505348425E-06,-8.95240282261511E-06,-0.17578125,0,0
2.6276902644895E-06,-1.08670437839464E-05,-0.17578125,0,0
1.97112171917979E-06,-1.26962095237104E-05,-0.17578125,0,0
2.44577745434071E-06,-1.18692123578512E-05,-0.17578125,0,0
2.04071670850681E-06,-1.7336627934128E-05,-0.17578125,0,0
5.52185781543812E-07,-1.43796596603352E-05,-0.17578125,0,0
3.1164940992312E-06,-1.81635696208104E-05,-0.17578125,0,0
4.09767380915582E-06,-1.66869740496622E-05,-0.17578125,0,0
3.93316759073059E-06,-1.94036747416249E-05,-0.17578125,0,0
2.15639511225163E-06,-1.91812850971473E-05,-0.17578125,0,0
2.12109148378659E-06,-2.08791188924806E-05,-0.17578125,0,0
2.44698844653612E-06,-2.07332268473692E-05,-0.17578125,0,0
2.62228581959789E-06,-2.07378525374224E-05,-0.17578125,0,0
1.38953168971057E-06,-2.18661789403996E-05,-0.17578125,0,0
-2.17174914496354E-07,-2.2419406377594E-05,-0.17578125,0,0
-1.1438919500506E-06,-2.28280914598145E-05,-0.17578125,0,0
-1.69976419783779E-06,-2.09631798497867E-05,-0.17578125,0,0
-1.54311680944375E-06,-2.01304246729705E-05,-0.17578125,0,0
-2.18384980144037E-06,-1.78086302184965E-05,-0.17578125,0,0
-2.00799763661053E-06,-1.71120082086418E-05,-0.17578125,0,0
-8.55494931784051E-07,-1.73474090843229E-05,-0.17578125,0,0
1.44645707678137E-06,-2.00452486751601E-05,-0.17578125,0,0
3.00218130178109E-06,-2.05600572371623E-05,-0.17578125,0,0
3.96291761717293E-06,-2.05833930522203E-05,-0.17578125,0,0
4.58556633020635E-06,-2.06684853765182E-05,-0.17578125,0,0
5.72703811485553E-06,-2.39159417105839E-05,-0.17578125,0,0
5.86385431233794E-06,-2.73811347142328E-05,-0.17578125,0,0
5.96758081883308E-06,-2.8849526643171E-05,-0.17578125,0,0
6.79969070915831E-06,-2.66760507656727E-05,-0.17578125,0,0
7.83204632170964E-06,-2.32391303143231E-05,-0.17578125,0,0
6.80568382449565E-06,-1.75554250745336E-05,-0.17578125,0,0
9.94018046185374E-06,-2.49713521043304E-05,-0.17578125,0,0
7.50193976273295E-06,-1.91446524695493E-05,-0.17578125,0,0
8.25209281174466E-06,-2.32712118304335E-05,-0.17578125,0,0
6.44258170723333E-06,-1.96994296857156E-05,-0.17578125,0,0
6.61576359561877E-06,-2.32561196753522E-05,-0.17578125,0,0
4.54252358395024E-06,-2.13746880035615E-05,-0.17578125,0,0
5.11609778186539E-06,-2.17711858567782E-05,-0.17578125,0,0
5.94207585891127E-06,-2.01121019927086E-05,-0.17578125,0,0
6.38488154436345E-06,-1.93605574168032E-05,-0.17578125,0,0
5.56281111130374E-06,-1.94334534171503E-05,-0.17578125,0,0
4.57242595075513E-06,-1.86489633051679E-05,-0.17578125,0,0
5.45436250831699E-06,-1.91142044059234E-05,-0.17578125,0,0
6.87478177496814E-06,-1.91154158528661E-05,-0.17578125,0,0
8.13637416285928E-06,-2.11800615943503E-05,-0.17578125,0,0
6.65970992486109E-06,-2.02723058464471E-05,-0.17578125,0,0
5.55659335077507E-06,-2.07855046028271E-05,-0.17578125,0,0
3.9706465031486E-06,-1.90908958757063E-05,-0.17578125,0,0
2.74397689281614E-06,-1.94850035768468E-05,-0.17578125,0,0
2.17953584069619E-06,-1.83058145921677E-05,-0.17578125,0,0
3.55395491169475E-06,-1.74615524883848E-05,-0.17578125,0,0
4.00236103814677E-06,-1.46933780342806E-05,-0.17578125,0,0
3.52909864886897E-06,-1.42366025102092E-05,-0.17578125,0,0
1.85797318863479E-06,-1.4707609807374E-05,-0.17578125,0,0
1.91174808605865E-06,-1.50992964336183E-05,-0.17578125,0,0
2.7828923521156E-06,-1.49031857290538E-05,-0.17578125,0,0
3.48651269632683E-06,-1.58216043928405E-05,-0.17578125,0,0
2.46679178417253E-06,-1.22700239444384E-05,-0.17578125,0,0
2.81026723314426E-06,-1.59535939019406E-05,-0.17578125,0,0
3.23361541632039E-06,-1.08102685771883E-05,-0.17578125,0,0
6.50584661343601E-06,-1.49016696013859E-05,-0.17578125,0,0
5.88080592933693E-06,-1.34751353471074E-05,-0.17578125,0,0
5.04892705066595E-06,-1.68114893313032E-05,-0.17578125,0,0
3.86086185244494E-06,-1.58972961799009E-05,-0.17578125,0,0
3.60905869456474E-06,-1.57907670654822E-05,-0.17578125,0,0
3.91581943404162E-06,-1.46987986227032E-05,-0.17578125,0,0
4.19439447796321E-06,-1.43625584314577E-05,-0.17578125,0,0
4.05528226110619E-06,-1.39943240355933E-05,-0.17578125,0,0
3.3134565455839E-06,-1.30837916003657E-05,-0.17578125,0,0
2.4595042305009E-06,-1.35742102429504E-05,-0.17578125,0,0
9.22796346003452E-07,-1.3764574759989E-05,-0.17578125,0,0
6.69962929578105E-08,-1.69242084666621E-05,-0.17578125,0,0
1.18200041754335E-07,-1.83356169145554E-05,-0.17578125,0,0
4.43639009972685E-08,-1.89012080227258E-05,-0.17578125,0,0
-1.175940496978E-06,-1.63809527293779E-05,-0.17578125,0,0
-1.38513223646441E-06,-1.47513283081935E-05,-0.17578125,0,0
-3.23048453765296E-07,-1.41917953442317E-05,-0.17578125,0,0
1.16962280571897E-06,-1.68714141182136E-05,-0.17578125,0,0
1.32270736230566E-06,-1.7820144421421E-05,-0.17578125,0,0
2.48388261070431E-07,-1.7338015823043E-05,-0.17578125,0,0
-9.37154368330084E-07,-1.41593773150817E-05,-0.17578125,0,0
-1.03122840755532E-06,-1.15181892397231E-05,-0.17578125,0,0
-5.68283724078356E-07,-1.20731510833139E-05,-0.17578125,0,0
8.76416947903635E-07,-1.37082788569387E-05,-0.17578125,0,0
8.26582834179135E-07,-1.22712308439077E-05,-0.17578125,0,0
-5.58386602733663E-07,-1.80550014192704E-05,-0.17578125,0,0
-2.09260088013252E-06,-1.50068763105082E-05,-0.17578125,0,0
9.05635602066468E-08,-1.83840056706686E-05,-0.17578125,0,0
1.28868146020977E-06,-1.68182195920963E-05,-0.17578125,0,0
1.08456924863276E-06,-2.11867500183871E-05,-0.17578125,0,0
9.90029093372868E-07,-2.16223143070238E-05,-0.17578125,0,0
2.34972253565502E-06,-2.21413029066753E-05,-0.17578125,0,0
3.96618816012051E-06,-2.09775225812336E-05,-0.17578125,0,0
4.35037509305403E-06,-1.80017377715558E-05,-0.17578125,0,0
3.33444313582731E-06,-1.23466670629568E-05,-0.17578125,0,0
2.30388150157523E-06,-7.29794010112528E-06,-0.17578125,0,0
2.98642476082023E-06,-7.50306389818434E-06,-0.17578125,0,0
4.10095253755571E-06,-8.97919017006643E-06,-0.17578125,0,0
4.30269346907153E-06,-1.15543198262458E-05,-0.17578125,0,0
3.90529748983681E-06,-1.24953548947815E-05,-0.17578125,0,0
3.98254360334249E-06,-1.43284087243956E-05,-0.17578125,0,0
3.45388116329559E-06,-1.4436271158047E-05,-0.17578125,0,0
2.23907568397408E-06,-1.67184425663436E-05,-0.17578125,0,0
1.0828698577825E-06,-1.84296841325704E-05,-0.17578125,0,0
8.32093462577177E-07,-1.94058757188031E-05,-0.17578125,0,0
1.62638923484337E-06,-1.83795909833862E-05,-0.17578125,0,0
3.32243098455365E-06,-1.83077572728507E-05,-0.17578125,0,0
4.02244177166722E-06,-1.91302024177276E-05,-0.17578125,0,0
2.66145934801898E-06,-2.12439263123088E-05,-0.17578125,0,0
1.80353379164444E-06,-2.1632286006934E-05,-0.17578125,0,0
2.1742812350567E-06,-2.04485386348097E-05,-0.17578125,0,0
2.45444448410126E-06,-1.64766097441316E-05,-0.17578125,0,0
5.45256898476509E-06,-2.38064312725328E-05,-0.17578125,0,0
6.78596461511916E-06,-1.5385508959298E-05,-0.17578125,0,0
6.70671488478547E-06,-1.75251698237844E-05,-0.17578125,0,0
5.23443486599717E-06,-1.69600061781239E-05,-0.17578125,0,0
5.31087607669178E-06,-2.04654534172732E-05,-0.17578125,0,0
4.49556955572916E-06,-1.74976066773525E-05,-0.17578125,0,0
3.75540162167454E-06,-1.53682431118796E-05,-0.17578125,0,0
3.14270823764673E-06,-1.09263537524384E-05,-0.17578125,0,0
2.52930658461992E-06,-8.50690321385628E-06,-0.17578125,0,0
2.47134607889166E-06,-9.84121015790151E-06,-0.17578125,0,0
3.20963681588182E-06,-1.23585687106242E-05,-0.17578125,0,0
4.01228226110106E-06,-1.57875620061532E-05,-0.17578125,0,0
2.95459608423698E-06,-1.60801992024062E-05,-0.17578125,0,0
1.65845312949386E-06,-1.59042483574012E-05,-0.17578125,0,0
1.48884930695203E-06,-1.37874358188128E-05,-0.17578125,0,0
2.13338194043899E-06,-1.43473989737686E-05,-0.17578125,0,0
1.50938342358131E-06,-1.37041597554344E-05,-0.17578125,0,0
2.56799438602684E-07,-1.46170141306357E-05,-0.17578125,0,0
-2.48306378125562E-07,-1.55428515427047E-05,-0.17578125,0,0
8.31518676136511E-09,-1.76880494109355E-05,-0.17578125,0,0
-1.02738874829811E-06,-1.57155682245502E-05,-0.17578125,0,0
-3.70827410733909E-06,-1.26050381368259E-05,-0.17578125,0,0
-4.72212832391961E-06,-1.07008399936603E-05,-0.17578125,0,0
-2.74302851721586E-06,-1.15710463433061E-05,-0.17578125,0,0
-1.09059965325287E-06,-1.32465838760254E-05,-0.17578125,0,0
-1.09455697838712E-06,-1.44369705594727E-05,-0.17578125,0,0
-1.21443667921994E-06,-1.2396068086673E-05,-0.17578125,0,0
-1.62055380314996E-06,-1.78661794052459E-05,-0.17578125,0,0
-4.94035532483394E-07,-1.31771130327252E-05,-0.17578125,0,0
1.253881350749E-06,-1.60563249664847E-05,-0.17578125,0,0
2.69020551968424E-06,-1.73094722413225E-05,-0.17578125,0,0
1.20547258575243E-06,-2.64316349785076E-05,-0.17578125,0,0
-1.38416984540868E-08,-3.01565833069617E-05,-0.17578125,0,0
-4.84619192775426E-07,-2.98672803182853E-05,-0.17578125,0,0
3.95987683532439E-07,-2.61751883954275E-05,-0.17578125,0,0
1.68934150224231E-06,-2.44794500758871E-05,-0.17578125,0,0
3.48375760950148E-06,-2.40554036281537E-05,-0.17578125,0,0
4.26789256380289E-06,-2.31875037570717E-05,-0.17578125,0,0
3.18323645842611E-06,-2.32180173043162E-05,-0.17578125,0,0
2.23026199819287E-06,-2.21307363972301E-05,-0.17578125,0,0
1.22972494409623E-06,-2.07169614441227E-05,-0.17578125,0,0
5.04419006119861E-07,-1.6549385691178E-05,-0.17578125,0,0
4.02270416088868E-07,-1.59242990775965E-05,-0.17578125,0,0
1.46704314829549E-06,-1.60889139806386E-05,-0.17578125,0,0
1.19788580832392E-06,-1.66960235219449E-05,-0.17578125,0,0
-8.04503542894963E-07,-1.50997375385487E-05,-0.17578125,0,0
-2.49374170380179E-06,-1.48667159010074E-05,-0.17578125,0,0
-2.2962078674027E-06,-1.43850556924008E-05,-0.17578125,0,0
-6.47015781396476E-07,-1.29904265122605E-05,-0.17578125,0,0
3.2162961360882E-06,-1.11191557152779E-05,-0.17578125,0,0
6.94120080879657E-06,-1.31104361571488E-05,-0.17578125,0,0
7.6668438850902E-06,-1.75950881384779E-05,-0.17578125,0,0
6.42581608190085E-06,-2.03125964617357E-05,-0.17578125,0,0
4.48236687589088E-06,-1.55180350702722E-05,-0.17578125,0,0
5.86964779358823E-06,-2.25916228373535E-05,-0.17578125,0,0
3.33567504640087E-06,-1.83298707270296E-05,-0.17578125,0,0
3.24170173371385E-06,-2.23028400796466E-05,-0.17578125,0,0
1.82990356734081E-06,-1.7700636817608E-05,-0.17578125,0,0
3.06155811813369E-06,-1.9499699192238E-05,-0.17578125,0,0
2.64033315033885E-06,-2.14740975934546E-05,-0.17578125,0,0
2.57027659245068E-06,-2.73345158348093E-05,-0.17578125,0,0
1.13178759875154E-06,-2.79486575891497E-05,-0.17578125,0,0
6.21882577434008E-07,-2.56898692896357E-05,-0.17578125,0,0
1.81079474259604E-06,-2.02855189854745E-05,-0.17578125,0,0
3.07465643345495E-06,-1.33152407215675E-05,-0.17578125,0,0
4.14394708059262E-06,-1.06318166217534E-05,-0.17578125,0,0
3.13377063321241E-06,-1.06971720015281E-05,-0.17578125,0,0
1.85708847766364E-06,-1.50640516949352E-05,-0.17578125,0,0
1.57510089593416E-06,-1.7339863916277E-05,-0.17578125,0,0
3.5492905681167E-06,-1.78796908585355E-05,-0.17578125,0,0
4.88576461066259E-06,-1.51510821524425E-05,-0.17578125,0,0
5.32259991814499E-06,-1.59258506755577E-05,-0.17578125,0,0
4.4615030674322E-06,-1.6734247765271E-05,-0.17578125,0,0
3.17274111694132E-06,-1.79677317646565E-05,-0.17578125,0,0
1.82532778580935E-06,-1.70178354892414E-05,-0.17578125,0,0
2.40678218688117E-06,-1.67496727954131E-05,-0.17578125,0,0
3.43051647178072E-06,-1.52418488141848E-05,-0.17578125,0,0
4.2499946175667E-06,-1.46923739521299E-05,-0.17578125,0,0
4.29214696850977E-06,-1.52191551023861E-05,-0.17578125,0,0
3.9591041058884E-06,-1.58830880536698E-05,-0.17578125,0,0
3.0099959076324E-06,-1.17161962407408E-05,-0.17578125,0,0
3.18963020617957E-06,-1.53208820847794E-05,-0.17578125,0,0
9.74665454123169E-07,-1.14134127215948E-05,-0.17578125,0,0
2.78593120128789E-06,-1.64434986800188E-05,-0.17578125,0,0
2.99896669275768E-06,-1.37716506287688E-05,-0.17578125,0,0
3.0444832646026E-06,-1.45969970617443E-05,-0.17578125,0,0
2.78823972621467E-06,-1.37288507175981E-05,-0.17578125,0,0
2.97955807582184E-06,-1.55674806592288E-05,-0.17578125,0,0
3.32735203301127E-06,-1.45516578413663E-05,-0.17578125,0,0
4.51214327767957E-06,-1.22517949421308E-05,-0.17578125,0,0
5.04625222674804E-06,-9.98983705358114E-06,-0.17578125,0,0
2.78751303994795E-06,-8.70525218488183E-06,-0.17578125,0,0
1.40043300689285E-06,-9.78035404841648E-06,-0.17578125,0,0
2.35558900385513E-06,-9.45929059525952E-06,-0.17578125,0,0
4.46546027887962E-06,-1.09153206722112E-05,-0.17578125,0,0
5.50544700672617E-06,-1.30127527881996E-05,-0.17578125,0,0
5.50715367353405E-06,-1.84684286068659E-05,-0.17578125,0,0
4.13129919252242E-06,-2.16769421967911E-05,-0.17578125,0,0
2.5973602078011E-06,-2.2854823328089E-05,-0.17578125,0,0
2.35038692153466E-06,-2.03313120437087E-05,-0.17578125,0,0
3.31112073581608E-06,-1.89783495443407E-05,-0.17578125,0,0
2.76279388344847E-06,-1.88938520295778E-05,-0.17578125,0,0
8.73081830832234E-07,-2.01088369067293E-05,-0.17578125,0,0
3.21324876040308E-07,-2.02173323486932E-05,-0.17578125,0,0
1.67926566518872E-06,-2.01953480427619E-05,-0.17578125,0,0
3.66969766218972E-06,-1.85595108632697E-05,-0.17578125,0,0
5.64013816983788E-06,-1.59745632117847E-05,-0.17578125,0,0
5.17847820447059E-06,-1.1989095582976E-05,-0.17578125,0,0
6.16418992649415E-06,-1.63633885676973E-05,-0.17578125,0,0
3.64026300303522E-06,-1.22863129945472E-05,-0.17578125,0,0
7.43027521821205E-06,-1.7232792743016E-05,-0.17578125,0,0
9.10582548385719E-06,-1.60785275511444E-05,-0.17578125,0,0
8.5405181380338E-06,-1.89037509699119E-05,-0.17578125,0,0
4.28512248618063E-06,-1.90218743227888E-05,-0.17578125,0,0
3.50177583641198E-06,-2.09730333153857E-05,-0.17578125,0,0
4.90352385895676E-06,-2.19969588215463E-05,-0.17578125,0,0
6.73026352160377E-06,-2.3797110770829E-05,-0.17578125,0,0
6.26458540864405E-06,-2.60370761679951E-05,-0.17578125,0,0
4.29243709731963E-06,-2.61748591583455E-05,-0.17578125,0,0
4.33317109127529E-06,-2.63497822743375E-05,-0.17578125,0,0
3.86204192182049E-06,-2.45790597546147E-05,-0.17578125,0,0
2.82073665403004E-06,-2.38557440752629E-05,-0.17578125,0,0
9.51674451243889E-07,-2.27972523134667E-05,-0.17578125,0,0
5.63212722681783E-07,-2.36770956689725E-05,-0.17578125,0,0
2.89815517362513E-07,-2.32733891607495E-05,-0.17578125,0,0
4.42910504716565E-07,-2.44490183831658E-05,-0.17578125,0,0
2.94379191245753E-07,-2.52467161772074E-05,-0.17578125,0,0
1.25320468669088E-06,-2.48850810748991E-05,-0.17578125,0,0
1.53545374814712E-06,-2.16136813833145E-05,-0.17578125,0,0
1.90832838597998E-06,-2.11316055356292E-05,-0.17578125,0,0
2.44818647843204E-06,-2.28706321649952E-05,-0.17578125,0,0
3.32979630002228E-06,-2.38317461480619E-05,-0.17578125,0,0
2.98072677651362E-06,-2.17903580050915E-05,-0.17578125,0,0
1.40107408697077E-06,-1.85362641786924E-05,-0.17578125,0,0
-4.02816851874377E-07,-1.40242254929035E-05,-0.17578125,0,0
-1.50510481944366E-06,-2.04574498638976E-05,-0.17578125,0,0
-3.83934178671552E-07,-1.62081760208821E-05,-0.17578125,0,0
1.32414925246849E-06,-2.01285783987259E-05,-0.17578125,0,0
2.2834969968244E-06,-1.74818942468846E-05,-0.17578125,0,0
4.08245432481635E-06,-1.88874473678879E-05,-0.17578125,0,0
5.07097001900547E-06,-1.68712849699659E-05,-0.17578125,0,0
6.25034090262488E-06,-1.69933100551134E-05,-0.17578125,0,0
6.15629005551455E-06,-1.54315057443455E-05,-0.17578125,0,0
5.102175691718E-06,-1.57816793944221E-05,-0.17578125,0,0
4.18561467085965E-06,-1.6758980564191E-05,-0.17578125,0,0
4.074733624293E-06,-1.56733731273562E-05,-0.17578125,0,0
4.936708137393E-06,-1.59088849613909E-05,-0.17578125,0,0
5.77957098357729E-06,-1.57216145453276E-05,-0.17578125,0,0
5.39117127118516E-06,-1.57377926370827E-05,-0.17578125,0,0
3.19556056638248E-06,-1.33695839394932E-05,-0.17578125,0,0
1.69975169228564E-06,-1.38214763865108E-05,-0.17578125,0,0
1.55284408265288E-06,-1.40865849971306E-05,-0.17578125,0,0
2.60533488471992E-06,-1.63684890139848E-05,-0.17578125,0,0
4.79233676742297E-06,-1.73243279277813E-05,-0.17578125,0,0
6.66093956169789E-06,-1.79210310307099E-05,-0.17578125,0,0
6.90456181473564E-06,-1.71814808709314E-05,-0.17578125,0,0
6.54111818221281E-06,-1.8328317310079E-05,-0.17578125,0,0
5.84456802243949E-06,-1.84781220013974E-05,-0.17578125,0,0
5.53988047613529E-06,-1.73022526723798E-05,-0.17578125,0,0
5.23450853506802E-06,-1.44711339089554E-05,-0.17578125,0,0
5.17142325406894E-06,-1.3326703083294E-05,-0.17578125,0,0
4.21640606873552E-06,-1.28032106658793E-05,-0.17578125,0,0
5.3454577937373E-06,-1.96308446902549E-05,-0.17578125,0,0
3.74060346075566E-06,-1.59701612574281E-05,-0.17578125,0,0
5.25551467944751E-06,-1.79259459400782E-05,-0.17578125,0,0
2.98623376693286E-06,-1.39059284265386E-05,-0.17578125,0,0
2.31094099945039E-06,-1.40314086820581E-05,-0.17578125,0,0
2.33546325034695E-06,-1.19937049021246E-05,-0.17578125,0,0
2.80238214145356E-06,-1.26964341689018E-05,-0.17578125,0,0
1.07471316823649E-06,-1.31095503093093E-05,-0.17578125,0,0
-8.28590430046461E-07,-1.33940493469709E-05,-0.17578125,0,0
-2.15179829865519E-06,-1.33752228066442E-05,-0.17578125,0,0
-3.37014944307157E-06,-1.33853918669047E-05,-0.17578125,0,0
-2.89484432869358E-06,-1.47287246363703E-05,-0.17578125,0,0
-1.31433830574679E-06,-1.48766521306243E-05,-0.17578125,0,0
5.97745668073912E-07,-1.44071918839472E-05,-0.17578125,0,0
7.61257354042755E-07,-1.12173493107548E-05,-0.17578125,0,0
8.03200691734673E-07,-1.09017028080416E-05,-0.17578125,0,0
8.03235423063597E-07,-1.16040655484539E-05,-0.17578125,0,0
1.47586160892388E-06,-1.35910868266365E-05,-0.17578125,0,0
4.19534927686982E-07,-1.41371810968849E-05,-0.17578125,0,0
-2.05594938051945E-06,-1.48003782669548E-05,-0.17578125,0,0
-4.01319039156078E-06,-1.42663730002823E-05,-0.17578125,0,0
-3.10424638882978E-06,-1.55034285853617E-05,-0.17578125,0,0
-1.79049163762102E-06,-1.66873178386595E-05,-0.17578125,0,0
-1.0055655366159E-06,-1.89928159670671E-05,-0.17578125,0,0
-1.48352296491794E-06,-2.40838617173722E-05,-0.17578125,0,0
-1.99104738385358E-06,-3.10700743284542E-05,-0.17578125,0,0
-1.62673075010389E-06,-2.8970720450161E-05,-0.17578125,0,0
-2.32818729273276E-06,-3.83498518203851E-05,-0.17578125,0,0
-1.25869757994224E-06,-2.2134508981253E-05,-0.17578125,0,0
-3.59236537406105E-07,-2.46340623561991E-05,-0.17578125,0,0
5.31680427684478E-07,-1.66508161782986E-05,-0.17578125,0,0
-5.42713465279121E-08,-2.24533287109807E-05,-0.17578125,0,0
1.25693543395755E-06,-2.21096033783397E-05,-0.17578125,0,0
2.84259613181348E-06,-2.4280636353069E-05,-0.17578125,0,0
2.88639193968265E-06,-2.13021594390739E-05,-0.17578125,0,0
1.5732722431494E-06,-1.95612828974845E-05,-0.17578125,0,0
8.72374869231862E-07,-1.96169912669575E-05,-0.17578125,0,0
1.55339216689754E-06,-1.82254589162767E-05,-0.17578125,0,0
2.8774509246432E-06,-1.81757677637506E-05,-0.17578125,0,0
4.71603470941773E-06,-1.46562279041973E-05,-0.17578125,0,0
5.73648912904901E-06,-1.47680120790028E-05,-0.17578125,0,0
6.01089095653151E-06,-1.25041624414735E-05,-0.17578125,0,0
5.13478289576597E-06,-1.4487929547613E-05,-0.17578125,0,0
3.8795906220912E-06,-1.42208655233844E-05,-0.17578125,0,0
2.52611835094285E-06,-1.58926377480384E-05,-0.17578125,0,0
2.48025230575877E-06,-1.46725851664087E-05,-0.17578125,0,0
3.27242378261872E-06,-1.69071863638237E-05,-0.17578125,0,0
4.10472739531542E-06,-1.71899064298486E-05,-0.17578125,0,0
3.80773190045147E-06,-1.83678057510406E-05,-0.17578125,0,0
4.0879390326154E-06,-1.71260835486464E-05,-0.17578125,0,0
5.15792680744198E-06,-1.60615654749563E-05,-0.17578125,0,0
4.21237700720667E-06,-1.42671879075351E-05,-0.17578125,0,0
2.68937742475828E-06,-1.27118237287505E-05,-0.17578125,0,0
2.86403769678145E-06,-1.02658086689189E-05,-0.17578125,0,0
5.10948802912026E-06,-1.44593313962105E-05,-0.17578125,0,0
3.9988849493966E-06,-1.21267630674993E-05,-0.17578125,0,0
3.73824968846748E-06,-1.54703138832701E-05,-0.17578125,0,0
3.88673925044714E-06,-1.31092238007113E-05,-0.17578125,0,0
4.33180230174912E-06,-1.47702667163685E-05,-0.17578125,0,0
3.46667684425483E-06,-1.34793699544389E-05,-0.17578125,0,0
3.47343802786781E-06,-1.27175353554776E-05,-0.17578125,0,0
4.04435331802233E-06,-9.98503401206108E-06,-0.17578125,0,0
3.97398525819881E-06,-7.7276845331653E-06,-0.17578125,0,0
3.54956341652723E-06,-7.31655109120766E-06,-0.17578125,0,0
3.05220873997314E-06,-6.72533042234136E-06,-0.17578125,0,0
3.07415530187427E-06,-7.38424660085002E-06,-0.17578125,0,0
2.61595141637372E-06,-7.87271892477293E-06,-0.17578125,0,0
1.5164954447755E-06,-1.04263099274249E-05,-0.17578125,0,0
2.4726052316737E-08,-1.2470074580051E-05,-0.17578125,0,0
3.15386529337047E-07,-1.46711927300203E-05,-0.17578125,0,0
2.50561470238608E-06,-1.23794316095882E-05,-0.17578125,0,0
5.12739279656671E-06,-1.0322529305995E-05,-0.17578125,0,0
7.26928328731447E-06,-1.03017237051972E-05,-0.17578125,0,0
9.23384868656285E-06,-1.21473394756322E-05,-0.17578125,0,0
1.01282075775089E-05,-1.29645995912142E-05,-0.17578125,0,0
9.9270791906747E-06,-1.37291963255848E-05,-0.17578125,0,0
9.59352382778889E-06,-1.36538728838786E-05,-0.17578125,0,0
9.83322479441995E-06,-1.37136257762904E-05,-0.17578125,0,0
9.62430658546509E-06,-1.41443715619971E-05,-0.17578125,0,0
9.06979948922526E-06,-1.62684991664719E-05,-0.17578125,0,0
6.24601852905471E-06,-1.45650337799452E-05,-0.17578125,0,0
7.20955131328083E-06,-2.05779288080521E-05,-0.17578125,0,0
2.00782301362779E-06,-1.52070815602201E-05,-0.17578125,0,0
2.39082191910711E-06,-1.68665264936863E-05,-0.17578125,0,0
1.41989028179523E-06,-1.20774348033592E-05,-0.17578125,0,0
2.4226353616541E-06,-1.50376290548593E-05,-0.17578125,0,0
1.07867560927843E-06,-1.48322023960645E-05,-0.17578125,0,0
1.74062665792007E-06,-1.68659225892043E-05,-0.17578125,0,0
1.34341894408863E-06,-1.867777609732E-05,-0.17578125,0,0
6.46331898224162E-07,-2.28941171371844E-05,-0.17578125,0,0
1.13064925244544E-06,-2.54938549915096E-05,-0.17578125,0,0
2.03858121494704E-06,-2.48989636020269E-05,-0.17578125,0,0
3.01891304843593E-06,-2.38127449847525E-05,-0.17578125,0,0
2.46296781369892E-06,-2.05246760742739E-05,-0.17578125,0,0
2.60375190919149E-06,-2.05141641345108E-05,-0.17578125,0,0
2.57214173871034E-06,-2.16483949770918E-05,-0.17578125,0,0
3.23136987390171E-06,-2.47936968662543E-05,-0.17578125,0,0
2.42291389440652E-06,-2.36252981267171E-05,-0.17578125,0,0
2.20703759623575E-06,-2.11973820114508E-05,-0.17578125,0,0
3.00295982924581E-06,-1.69560098584043E-05,-0.17578125,0,0
5.53957806914696E-06,-1.42107637657318E-05,-0.17578125,0,0
5.94916900809039E-06,-1.04205691968673E-05,-0.17578125,0,0
3.56997179551399E-06,-9.79762080532964E-06,-0.17578125,0,0
1.50041296365089E-06,-1.05244189398945E-05,-0.17578125,0,0
2.82154951491975E-06,-1.16512328531826E-05,-0.17578125,0,0
4.6501295400958E-06,-1.27073535622912E-05,-0.17578125,0,0
5.47117224414251E-06,-1.57387858052971E-05,-0.17578125,0,0
4.49889648734825E-06,-1.59349419845967E-05,-0.17578125,0,0
7.17010198059143E-06,-2.25020394282183E-05,-0.17578125,0,0
7.53473750592093E-06,-1.74543620232726E-05,-0.17578125,0,0
1.00678871604032E-05,-2.17630458791973E-05,-0.17578125,0,0
8.67067774379393E-06,-1.68503247550689E-05,-0.17578125,0,0
8.32954810903175E-06,-1.70943549164804E-05,-0.17578125,0,0
7.62053559810738E-06,-1.41909840749577E-05,-0.17578125,0,0
6.07692254561698E-06,-1.48318376886891E-05,-0.17578125,0,0
3.32446711581724E-06,-1.56902387971058E-05,-0.17578125,0,0
2.69458200818917E-06,-1.76150606421288E-05,-0.17578125,0,0
3.42931230079557E-06,-1.91204617294716E-05,-0.17578125,0,0
2.98782811114506E-06,-1.95654210983776E-05,-0.17578125,0,0
1.18731668408145E-06,-1.98811740119709E-05,-0.17578125,0,0
-5.43606972769339E-07,-1.68739843502408E-05,-0.17578125,0,0
-2.65792522213815E-07,-1.6417225197074E-05,-0.17578125,0,0
3.10141558657051E-07,-1.58466755237896E-05,-0.17578125,0,0
8.5695251073048E-07,-1.69103313965024E-05,-0.17578125,0,0
1.21376581319055E-06,-1.46437623698148E-05,-0.17578125,0,0
2.89850322587881E-06,-1.37548104248708E-05,-0.17578125,0,0
3.53618611370621E-06,-1.3040890735283E-05,-0.17578125,0,0
2.38416532738484E-06,-1.43024462886387E-05,-0.17578125,0,0
-1.14960641894868E-06,-1.32492814373109E-05,-0.17578125,0,0
-3.66500557902327E-06,-1.2427449291863E-05,-0.17578125,0,0
-3.39929260917415E-06,-1.26851773529779E-05,-0.17578125,0,0
-1.22021970128117E-06,-1.32976165332366E-05,-0.17578125,0,0
3.89033573355846E-07,-1.35272130137309E-05,-0.17578125,0,0
1.42824916338213E-07,-1.51014264702098E-05,-0.17578125,0,0
-8.03981208719051E-07,-1.34997571876738E-05,-0.17578125,0,0
-3.84012025733682E-07,-1.75568256963743E-05,-0.17578125,0,0
-4.88201408188615E-07,-1.09433403849835E-05,-0.17578125,0,0
-1.95112943401909E-06,-1.50063870023587E-05,-0.17578125,0,0
-1.2164449572083E-06,-1.44977357194875E-05,-0.17578125,0,0
-8.91391437107814E-07,-1.90113460121211E-05,-0.17578125,0,0
-1.77209201979167E-07,-1.92076768144034E-05,-0.17578125,0,0
4.1615243162596E-07,-2.02334267669357E-05,-0.17578125,0,0
9.7675911092665E-07,-1.87488840310834E-05,-0.17578125,0,0
1.02050353234517E-06,-1.65070396178635E-05,-0.17578125,0,0
1.21993537050002E-06,-1.66505578818033E-05,-0.17578125,0,0
1.75189279616461E-06,-1.90092887351057E-05,-0.17578125,0,0
1.30606440507108E-06,-2.20372712647077E-05,-0.17578125,0,0
4.32438952202574E-07,-2.16466141864657E-05,-0.17578125,0,0
-1.06888307982445E-06,-2.22678791033104E-05,-0.17578125,0,0
-1.47478510825749E-06,-2.14870378840715E-05,-0.17578125,0,0
-3.72573566664869E-07,-2.15801392187132E-05,-0.17578125,0,0
1.6979414567686E-06,-1.98318120965268E-05,-0.17578125,0,0
3.07193568005459E-06,-2.01117727556266E-05,-0.17578125,0,0
3.31353021465475E-06,-2.01701241167029E-05,-0.17578125,0,0
2.22744984057499E-06,-2.10308917303337E-05,-0.17578125,0,0
8.89970692696807E-07,-2.004344969464E-05,-0.17578125,0,0
6.31058583167032E-07,-1.92939587577712E-05,-0.17578125,0,0
1.64935624979989E-06,-1.79322578333085E-05,-0.17578125,0,0
2.33704508900701E-06,-1.65484725584975E-05,-0.17578125,0,0
2.24157474804088E-06,-1.68048463820014E-05,-0.17578125,0,0
2.73420027951943E-06,-1.83798711077543E-05,-0.17578125,0,0
2.84654515780858E-06,-1.64856865012553E-05,-0.17578125,0,0
3.28616033584694E-06,-2.41911366174463E-05,-0.17578125,0,0
1.30928719954682E-06,-1.93851228686981E-05,-0.17578125,0,0
3.35834215547948E-06,-2.35421975958161E-05,-0.17578125,0,0
3.5913028568757E-06,-1.90979408216663E-05,-0.17578125,0,0
1.27992848319991E-06,-1.99007081391755E-05,-0.17578125,0,0
-9.6676706107246E-07,-1.82158382813213E-05,-0.17578125,0,0
-8.47780825097288E-07,-1.94420754269231E-05,-0.17578125,0,0
-1.96906898963789E-06,-1.85235203389311E-05,-0.17578125,0,0
-2.00094359570357E-06,-1.68344922713004E-05,-0.17578125,0,0
3.87117040645535E-07,-1.58244783960981E-05,-0.17578125,0,0
2.48860760621028E-06,-1.60826512001222E-05,-0.17578125,0,0
2.84443808595825E-06,-1.86180986929685E-05,-0.17578125,0,0
2.16774651562446E-06,-2.02945720957359E-05,-0.17578125,0,0
2.06213394449151E-06,-2.28879307542229E-05,-0.17578125,0,0
1.90332843885699E-06,-2.22589587792754E-05,-0.17578125,0,0
1.34714946398162E-06,-2.21632326429244E-05,-0.17578125,0,0
1.94343826365184E-07,-1.99006990442285E-05,-0.17578125,0,0
6.10078018326021E-07,-1.91358485608362E-05,-0.17578125,0,0
2.3720770059299E-06,-1.78929585672449E-05,-0.17578125,0,0
4.01615989176207E-06,-1.9639008314698E-05,-0.17578125,0,0
2.56969087786274E-06,-2.11530223168666E-05,-0.17578125,0,0
4.78288598060317E-07,-2.25302228500368E-05,-0.17578125,0,0
5.23443191013939E-07,-2.15001637116075E-05,-0.17578125,0,0
2.662444330781E-06,-2.04235711862566E-05,-0.17578125,0,0
3.55026531906333E-06,-1.84535729204072E-05,-0.17578125,0,0
2.31136118600261E-06,-1.69424656633055E-05,-0.17578125,0,0
9.53868720898754E-07,-1.56762198457727E-05,-0.17578125,0,0
1.22237179311924E-06,-2.40737408603309E-05,-0.17578125,0,0
2.23422352974012E-06,-1.94033291336382E-05,-0.17578125,0,0
4.78851779917022E-06,-2.08647397812456E-05,-0.17578125,0,0
5.93694130657241E-06,-1.69979757629335E-05,-0.17578125,0,0
5.52141091247904E-06,-1.85953231266467E-05,-0.17578125,0,0
2.93482162305736E-06,-1.61383013619343E-05,-0.17578125,0,0
2.04695220418216E-06,-1.73015341715654E-05,-0.17578125,0,0
1.85564942967176E-06,-1.82511557795806E-05,-0.17578125,0,0
2.07417929232179E-06,-1.95360225916374E-05,-0.17578125,0,0
2.78306447398791E-06,-1.89011934708105E-05,-0.17578125,0,0
1.72334398484963E-06,-1.63797794812126E-05,-0.17578125,0,0
1.84274597359035E-07,-1.53720247908495E-05,-0.17578125,0,0
-4.08184092748343E-07,-1.53091077663703E-05,-0.17578125,0,0
-6.15638100498472E-08,-1.7405227481504E-05,-0.17578125,0,0
3.22372727623588E-07,-1.67785456142155E-05,-0.17578125,0,0
1.6200210666284E-06,-1.89038928510854E-05,-0.17578125,0,0
3.31661908603564E-06,-2.10338876058813E-05,-0.17578125,0,0
4.79978098155698E-06,-2.33625778491842E-05,-0.17578125,0,0
4.95325048177619E-06,-2.21051195694599E-05,-0.17578125,0,0
4.07606239605229E-06,-2.04862099053571E-05,-0.17578125,0,0
3.18521142617101E-06,-1.75960176420631E-05,-0.17578125,0,0
3.24355664815812E-06,-1.82617895916337E-05,-0.17578125,0,0
4.39268251284375E-06,-1.9515380699886E-05,-0.17578125,0,0
4.87186434838804E-06,-1.94724270841107E-05,-0.17578125,0,0
3.82838288714993E-06,-1.86271245183889E-05,-0.17578125,0,0
2.24054474529112E-06,-1.93422547454247E-05,-0.17578125,0,0
1.37106417241739E-06,-1.62109954544576E-05,-0.17578125,0,0
2.45135947807285E-06,-2.22289781959262E-05,-0.17578125,0,0
2.12155964618432E-06,-1.4771704627492E-05,-0.17578125,0,0
1.02220565167954E-06,-1.66623922268627E-05,-0.17578125,0,0
1.09435154627135E-06,-1.04003975138767E-05,-0.17578125,0,0
3.07586969938711E-06,-9.78424668574007E-06,-0.17578125,0,0
4.8874385356612E-06,-6.27603731118143E-06,-0.17578125,0,0
6.4999699134205E-06,-6.77231764711905E-06,-0.17578125,0,0
5.66568724025274E-06,-9.36600008571986E-06,-0.17578125,0,0
4.83661506223143E-06,-1.43685401781113E-05,-0.17578125,0,0
4.35950187238632E-06,-1.62437736435095E-05,-0.17578125,0,0
3.67938764611608E-06,-1.46165320984437E-05,-0.17578125,0,0
3.67818961422017E-06,-1.58734947035555E-05,-0.17578125,0,0
4.28997509516194E-06,-1.85039734788006E-05,-0.17578125,0,0
4.45527939518797E-06,-2.45492938120151E-05,-0.17578125,0,0
3.89957676816266E-06,-2.8866659704363E-05,-0.17578125,0,0
3.88648732041474E-06,-3.13843884214293E-05,-0.17578125,0,0
4.49512890554615E-06,-2.64447717199801E-05,-0.17578125,0,0
5.21529727848247E-06,-2.04174175451044E-05,-0.17578125,0,0
4.91318496642634E-06,-1.67453417816432E-05,-0.17578125,0,0
4.8735878408479E-06,-1.89587080967613E-05,-0.17578125,0,0
5.27799284100183E-06,-2.00437370949658E-05,-0.17578125,0,0
5.98336828261381E-06,-2.06407275982201E-05,-0.17578125,0,0
4.89323974761646E-06,-2.0575751477736E-05,-0.17578125,0,0
3.60061449100613E-06,-1.85016378964065E-05,-0.17578125,0,0
3.94995277019916E-06,-1.3268551811052E-05,-0.17578125,0,0
4.38742699770955E-06,-1.14121157821501E-05,-0.17578125,0,0
2.30779505727696E-06,-9.96400831354549E-06,-0.17578125,0,0
2.24525206249382E-06,-1.54176996147726E-05,-0.17578125,0,0
1.3519857020583E-06,-1.3709988706978E-05,-0.17578125,0,0
2.73936188932566E-06,-1.52948905451922E-05,-0.17578125,0,0
3.91603578009381E-07,-1.11349927465199E-05,-0.17578125,0,0
-7.75188198076648E-07,-1.19005953820306E-05,-0.17578125,0,0
-1.36198127620446E-06,-1.24928164950688E-05,-0.17578125,0,0
-1.92462903214619E-06,-1.45159483508905E-05,-0.17578125,0,0
-2.98309441859601E-06,-1.47047594509786E-05,-0.17578125,0,0
-3.02536500385031E-06,-1.52047932715504E-05,-0.17578125,0,0
-1.49023810536164E-06,-1.55601246660808E-05,-0.17578125,0,0
-6.95618552981614E-07,-1.56650548888138E-05,-0.17578125,0,0
-9.4721104915152E-07,-1.6973384845187E-05,-0.17578125,0,0
-9.49084892454266E-07,-1.71701049112016E-05,-0.17578125,0,0
-5.12819582354496E-08,-1.77595866261981E-05,-0.17578125,0,0
5.98473661739263E-07,-1.6665801013005E-05,-0.17578125,0,0
1.40742849907838E-06,-1.63454897119664E-05,-0.17578125,0,0
2.20329684452736E-06,-1.53793571371352E-05,-0.17578125,0,0
3.37958294949203E-06,-1.59551491378807E-05,-0.17578125,0,0
4.31436637882143E-06,-1.60153376782546E-05,-0.17578125,0,0
5.43333135283319E-06,-1.64381726790452E-05,-0.17578125,0,0
6.33868830846041E-06,-1.4931696568965E-05,-0.17578125,0,0
7.74843920225976E-06,-1.38226969284005E-05,-0.17578125,0,0
8.95196535566356E-06,-1.24059160953038E-05,-0.17578125,0,0
8.27301846584305E-06,-1.04642685982981E-05,-0.17578125,0,0
5.92989363212837E-06,-1.02349949884228E-05,-0.17578125,0,0
4.47954334958922E-06,-1.26045188153512E-05,-0.17578125,0,0
1.76897026449296E-06,-1.2254227840458E-05,-0.17578125,0,0
8.0821411074794E-07,-1.70191888173576E-05,-0.17578125,0,0
5.72046985780617E-07,-1.20727900139173E-05,-0.17578125,0,0
3.35476556756475E-06,-1.42743256219546E-05,-0.17578125,0,0
1.26604663819307E-06,-1.24952966871206E-05,-0.17578125,0,0
-7.74394877112172E-08,-1.71771062014159E-05,-0.17578125,0,0
7.02237969107955E-07,-1.86145607585786E-05,-0.17578125,0,0
3.1053341444931E-06,-2.06542190426262E-05,-0.17578125,0,0
4.37705693911994E-06,-1.87987898243591E-05,-0.17578125,0,0
4.41062911704648E-06,-1.68218411999987E-05,-0.17578125,0,0
4.04670799980522E-06,-1.78428235813044E-05,-0.17578125,0,0
4.29235842602793E-06,-2.00664344447432E-05,-0.17578125,0,0
5.02434841109789E-06,-2.20285473915283E-05,-0.17578125,0,0
5.16251611770713E-06,-2.21937098103808E-05,-0.17578125,0,0
6.08000527790864E-06,-2.50800294452347E-05,-0.17578125,0,0
5.69488565815846E-06,-2.69436386588495E-05,-0.17578125,0,0
3.10882546727953E-06,-2.89673134830082E-05,-0.17578125,0,0
-1.96900458604432E-07,-2.81467437162064E-05,-0.17578125,0,0
-1.27490125123586E-06,-2.67591894953512E-05,-0.17578125,0,0
-1.08794199604745E-06,-2.25139756366843E-05,-0.17578125,0,0
-7.54616507947503E-07,-2.05616488528904E-05,-0.17578125,0,0
-6.62814954921487E-07,-2.07847642741399E-05,-0.17578125,0,0
7.5777120400744E-07,-2.03639665414812E-05,-0.17578125,0,0
2.77016488325899E-06,-1.69947215908905E-05,-0.17578125,0,0
3.82165808332502E-06,-1.52456477735541E-05,-0.17578125,0,0
3.25997007166734E-06,-1.49685938595212E-05,-0.17578125,0,0
2.82491714642674E-06,-1.63714703376172E-05,-0.17578125,0,0
2.04500588552037E-06,-1.45740823427332E-05,-0.17578125,0,0
1.32144600684114E-06,-2.17523102037376E-05,-0.17578125,0,0
-1.21342236525379E-06,-1.63011573022231E-05,-0.17578125,0,0
5.9111533801115E-07,-1.87211189768277E-05,-0.17578125,0,0
2.71588942268863E-06,-1.6596060959273E-05,-0.17578125,0,0
2.87179136648774E-06,-1.88255671673687E-05,-0.17578125,0,0
6.22788377313555E-07,-1.63230779435253E-05,-0.17578125,0,0
2.16569787880871E-07,-1.48679509948124E-05,-0.17578125,0,0
1.40676365845138E-06,-1.30088292280561E-05,-0.17578125,0,0
3.7150118714635E-06,-1.3649425454787E-05,-0.17578125,0,0
4.83186795463553E-06,-1.39319145091577E-05,-0.17578125,0,0
4.80888047604822E-06,-1.29714489958133E-05,-0.17578125,0,0
4.55911776953144E-06,-1.41299078677548E-05,-0.17578125,0,0
3.8791035876784E-06,-1.44228533827118E-05,-0.17578125,0,0
4.46934154751943E-06,-1.56418755068444E-05,-0.17578125,0,0
5.69649364479119E-06,-1.44238238135586E-05,-0.17578125,0,0
6.98020267009269E-06,-1.42190610858961E-05,-0.17578125,0,0
6.29010719421785E-06,-1.33485473270412E-05,-0.17578125,0,0
4.30037562182406E-06,-1.43129709613277E-05,-0.17578125,0,0
2.31685248763824E-06,-1.38279137900099E-05,-0.17578125,0,0
1.64396965374181E-06,-1.36728822326404E-05,-0.17578125,0,0
1.35003529067035E-06,-1.25173974083737E-05,-0.17578125,0,0
2.12317968362186E-06,-1.29572026708047E-05,-0.17578125,0,0
2.56818702837336E-06,-1.26058730529621E-05,-0.17578125,0,0
2.53464509114565E-06,-1.17120680442895E-05,-0.17578125,0,0
3.1480806228501E-06,-1.13974792839144E-05,-0.17578125,0,0
3.51655125996331E-06,-1.21418179332977E-05,-0.17578125,0,0
2.31201238420908E-06,-9.95167010842124E-06,-0.17578125,0,0
2.37189078688971E-06,-1.41144555527717E-05,-0.17578125,0,0
4.09236037057781E-07,-1.02717194749857E-05,-0.17578125,0,0
1.7937167058335E-06,-1.22725896289921E-05,-0.17578125,0,0
2.47422508437012E-06,-1.11700983325136E-05,-0.17578125,0,0
2.54731344284664E-06,-1.45959138535545E-05,-0.17578125,0,0
1.92618335859152E-06,-1.55761772475671E-05,-0.17578125,0,0
2.19951357394166E-06,-1.83317333721789E-05,-0.17578125,0,0
1.4761308193556E-06,-2.07050234166672E-05,-0.17578125,0,0
8.59930025853828E-07,-2.31301764870295E-05,-0.17578125,0,0
2.01775037567131E-06,-2.37046297115739E-05,-0.17578125,0,0
4.06043591283378E-06,-2.16521184484009E-05,-0.17578125,0,0
5.26246185472701E-06,-2.01652328541968E-05,-0.17578125,0,0
4.36030040873447E-06,-1.89101756404852E-05,-0.17578125,0,0
2.8526337700896E-06,-1.93680498341564E-05,-0.17578125,0,0
1.31326487462502E-06,-1.92053939827019E-05,-0.17578125,0,0
4.89628405375697E-07,-2.03355830308283E-05,-0.17578125,0,0
1.98462871026095E-07,-1.98612360691186E-05,-0.17578125,0,0
7.73217891492095E-07,-1.85006920219166E-05,-0.17578125,0,0
1.44573607485654E-06,-1.55440193339018E-05,-0.17578125,0,0
2.12054646908655E-06,-1.44692112371558E-05,-0.17578125,0,0
1.56901751324767E-06,-1.29096515593119E-05,-0.17578125,0,0
4.07966751936328E-07,-1.22172159535694E-05,-0.17578125,0,0
7.62593003855727E-07,-1.23986455946579E-05,-0.17578125,0,0
2.8807712624257E-06,-1.3981119991513E-05,-0.17578125,0,0
3.42200951308769E-06,-1.35870377562242E-05,-0.17578125,0,0
2.85185979009839E-06,-1.10496985143982E-05,-0.17578125,0,0
2.04231309908209E-06,-9.12826089916052E-06,-0.17578125,0,0
3.42959697263723E-06,-1.5326275388361E-05,-0.17578125,0,0
3.48031244357117E-06,-1.48420222103596E-05,-0.17578125,0,0
3.8667899389111E-06,-1.67682464962127E-05,-0.17578125,0,0
2.60032766163931E-06,-1.41088967211545E-05,-0.17578125,0,0
2.0269753804314E-06,-1.56364094436867E-05,-0.17578125,0,0
1.35609684548399E-06,-1.57384438352892E-05,-0.17578125,0,0
1.08383596852946E-06,-1.72650616150349E-05,-0.17578125,0,0
9.8320049346512E-07,-1.822447302402E-05,-0.17578125,0,0
2.48625065069064E-06,-1.82220373972086E-05,-0.17578125,0,0
4.29175725003006E-06,-1.74425877048634E-05,-0.17578125,0,0
4.01280749429134E-06,-1.69410759554012E-05,-0.17578125,0,0
3.22003506880719E-06,-1.95601624000119E-05,-0.17578125,0,0
3.85639759770129E-06,-2.199926530011E-05,-0.17578125,0,0
5.02645207234309E-06,-2.27483105845749E-05,-0.17578125,0,0
4.79788513985113E-06,-2.13307757803705E-05,-0.17578125,0,0
3.49680294675636E-06,-2.05278574867407E-05,-0.17578125,0,0
1.78838240572077E-06,-1.80565311893588E-05,-0.17578125,0,0
2.32123852583754E-06,-1.62282540259184E-05,-0.17578125,0,0
4.71531893708743E-06,-1.52083248394774E-05,-0.17578125,0,0
6.10642973697395E-06,-1.61813914019149E-05,-0.17578125,0,0
5.39261964149773E-06,-1.57522936206078E-05,-0.17578125,0,0
4.56367752121878E-06,-1.39267804115661E-05,-0.17578125,0,0
4.35513038610225E-06,-1.34981437440729E-05,-0.17578125,0,0
5.6381713875453E-06,-1.49505995068466E-05,-0.17578125,0,0
7.05713273418951E-06,-1.49075331137283E-05,-0.17578125,0,0
7.78665707912296E-06,-1.43468687383574E-05,-0.17578125,0,0
5.01759177495842E-06,-1.26672757687629E-05,-0.17578125,0,0
6.39309655525722E-06,-1.93049527297262E-05,-0.17578125,0,0
4.6680802370247E-06,-1.8164171706303E-05,-0.17578125,0,0
6.48352897769655E-06,-2.3792274078005E-05,-0.17578125,0,0
4.30305453846813E-06,-2.16160806303378E-05,-0.17578125,0,0
3.50689811057237E-06,-2.27244581765262E-05,-0.17578125,0,0
1.50529831444146E-06,-2.23697297769831E-05,-0.17578125,0,0
1.27378370962106E-06,-2.37325548368972E-05,-0.17578125,0,0
5.29622184330947E-07,-2.04032112378627E-05,-0.17578125,0,0
7.93496553797013E-07,-1.82198746188078E-05,-0.17578125,0,0
1.1577953955566E-06,-1.85658864211291E-05,-0.17578125,0,0
1.47645528159046E-06,-1.83320826181443E-05,-0.17578125,0,0
2.76684522759751E-06,-1.8035887478618E-05,-0.17578125,0,0
3.05285220747464E-06,-1.73080879903864E-05,-0.17578125,0,0
2.67164818978927E-06,-1.8673466911423E-05,-0.17578125,0,0
2.26209658649168E-06,-1.83239826583304E-05,-0.17578125,0,0
4.37570679423516E-06,-1.92072748177452E-05,-0.17578125,0,0
5.1671690926014E-06,-1.86259185284143E-05,-0.17578125,0,0
4.56267662229948E-06,-1.9368944776943E-05,-0.17578125,0,0
2.5827641820797E-06,-1.87198602361605E-05,-0.17578125,0,0
1.13194414552709E-06,-1.84127602551598E-05,-0.17578125,0,0
-8.62903391407599E-07,-1.81737850653008E-05,-0.17578125,0,0
-2.49789036388393E-06,-2.16534463106655E-05,-0.17578125,0,0
-2.81826260106754E-06,-2.45984520006459E-05,-0.17578125,0,0
-1.36292169372609E-06,-2.49523945967667E-05,-0.17578125,0,0
-4.98801227877266E-07,-2.25621606659843E-05,-0.17578125,0,0
7.64113607942818E-08,-1.95750581042375E-05,-0.17578125,0,0
1.50100348150772E-07,-1.37535298563307E-05,-0.17578125,0,0
9.69654706750589E-07,-2.0859828509856E-05,-0.17578125,0,0
1.30433318190626E-06,-1.84482960321475E-05,-0.17578125,0,0
1.07222217593517E-06,-2.21310128836194E-05,-0.17578125,0,0
2.18562854570337E-06,-1.78264363057679E-05,-0.17578125,0,0
3.59380669578968E-06,-1.93016949197045E-05,-0.17578125,0,0
4.94809000883834E-06,-1.91131985047832E-05,-0.17578125,0,0
5.92630794926663E-06,-2.09355530387256E-05,-0.17578125,0,0
6.41266569800791E-06,-1.96950040844968E-05,-0.17578125,0,0
7.28751820133766E-06,-2.05195447051665E-05,-0.17578125,0,0
7.92537593952147E-06,-2.29502002184745E-05,-0.17578125,0,0
7.46035766496789E-06,-2.24944178626174E-05,-0.17578125,0,0
6.97640371072339E-06,-2.03881827474106E-05,-0.17578125,0,0
6.60090381643386E-06,-1.73935459315544E-05,-0.17578125,0,0
5.4223842198553E-06,-1.75008135556709E-05,-0.17578125,0,0
3.76259981749172E-06,-1.47487653521239E-05,-0.17578125,0,0
2.74430749414023E-06,-1.1912030458916E-05,-0.17578125,0,0
2.13085763789422E-06,-9.56079384195618E-06,-0.17578125,0,0
7.84889607530204E-07,-1.17211420729291E-05,-0.17578125,0,0
-2.6771729721986E-07,-1.30092485051136E-05,-0.17578125,0,0
5.4302762464431E-07,-1.32767045215587E-05,-0.17578125,0,0
2.71817748398462E-06,-1.06741372292163E-05,-0.17578125,0,0
4.26609312853543E-06,-9.48091928876238E-06,-0.17578125,0,0
4.30244472227059E-06,-1.01249752333388E-05,-0.17578125,0,0
3.23965196002973E-06,-1.19582937259111E-05,-0.17578125,0,0
2.69191036750271E-06,-1.24380421766546E-05,-0.17578125,0,0
2.82989321931382E-06,-1.31213955683052E-05,-0.17578125,0,0
1.62380410984042E-06,-1.21208631753689E-05,-0.17578125,0,0
6.22658717475133E-07,-1.72184973052936E-05,-0.17578125,0,0
-9.74316549218202E-07,-1.414372218278E-05,-0.17578125,0,0
4.94964069730486E-07,-1.78424670593813E-05,-0.17578125,0,0
7.15715316346177E-07,-1.46475722431205E-05,-0.17578125,0,0
2.17834190152644E-06,-1.65982146427268E-05,-0.17578125,0,0
3.04203990708629E-06,-1.49467487062793E-05,-0.17578125,0,0
4.3367413127271E-06,-1.37763427119353E-05,-0.17578125,0,0
4.52545145890326E-06,-1.17334338938235E-05,-0.17578125,0,0
3.30479701915465E-06,-1.16470819193637E-05,-0.17578125,0,0
1.40033569095976E-06,-1.31227970996406E-05,-0.17578125,0,0
-6.35354808764532E-07,-1.37283714138903E-05,-0.17578125,0,0
-1.44907551202778E-06,-1.37471324705984E-05,-0.17578125,0,0
-1.43873955948948E-06,-1.28925585158868E-05,-0.17578125,0,0
-1.10514270090789E-06,-1.44513769555488E-05,-0.17578125,0,0
-1.24584119021165E-06,-1.52987322508125E-05,-0.17578125,0,0
-1.1057560413974E-06,-1.79022299562348E-05,-0.17578125,0,0
-9.36475373691792E-07,-1.8494838514016E-05,-0.17578125,0,0
1.93738813436539E-07,-1.88944068213459E-05,-0.17578125,0,0
1.39728535941686E-06,-1.80935167009011E-05,-0.17578125,0,0
2.27387658924272E-06,-1.84867931238841E-05,-0.17578125,0,0
1.39231599405321E-06,-1.69795112014981E-05,-0.17578125,0,0
6.50165432602989E-08,-1.72999443748267E-05,-0.17578125,0,0
-9.16294311537058E-07,-1.83884549187496E-05,-0.17578125,0,0
-2.09877362067346E-06,-1.92345469258726E-05,-0.17578125,0,0
-2.5784697754716E-06,-2.14774499909254E-05,-0.17578125,0,0
-2.76999548987078E-06,-2.50449811574072E-05,-0.17578125,0,0
-3.120081146335E-06,-2.28621884161839E-05,-0.17578125,0,0
-5.11937969349674E-06,-3.27814886986744E-05,-0.17578125,0,0
-4.08296955356491E-06,-2.32562451856211E-05,-0.17578125,0,0
-3.51080461769016E-06,-2.63720139628276E-05,-0.17578125,0,0
-1.57576937453996E-06,-2.01645270863082E-05,-0.17578125,0,0
-1.96772339222662E-06,-2.31363974307897E-05,-0.17578125,0,0
-2.08826418202079E-06,-2.24803425226128E-05,-0.17578125,0,0
-1.38769826207863E-06,-2.49745771725429E-05,-0.17578125,0,0
2.91203662072803E-07,-2.38066422753036E-05,-0.17578125,0,0
1.5209523098747E-06,-2.23768365685828E-05,-0.17578125,0,0
1.29303498397348E-06,-2.11134647543076E-05,-0.17578125,0,0
-5.92685523770342E-07,-2.02033916139044E-05,-0.17578125,0,0
-2.86830891127465E-06,-2.25171988859074E-05,-0.17578125,0,0
-2.66774577539763E-06,-2.18409422814148E-05,-0.17578125,0,0
-5.27349357071216E-07,-2.13612929655937E-05,-0.17578125,0,0
1.64629568644159E-06,-1.84298387466697E-05,-0.17578125,0,0
1.59268802235601E-06,-1.92152037925553E-05,-0.17578125,0,0
1.54280019160069E-06,-1.83959691639757E-05,-0.17578125,0,0
2.01754551198974E-06,-1.93905598280253E-05,-0.17578125,0,0
1.92340780813538E-06,-1.83280899364036E-05,-0.17578125,0,0
1.65314997957466E-06,-1.93436826521065E-05,-0.17578125,0,0
3.94200969822123E-06,-1.84264972631354E-05,-0.17578125,0,0
7.01475801179186E-06,-1.87331315828487E-05,-0.17578125,0,0
7.96515996626113E-06,-1.8095639461535E-05,-0.17578125,0,0
5.96751169723575E-06,-1.73870084836381E-05,-0.17578125,0,0
3.52271854353603E-06,-1.79058697540313E-05,-0.17578125,0,0
2.03857189262635E-06,-1.87070345418761E-05,-0.17578125,0,0
1.3590652088169E-06,-1.43245470098918E-05,-0.17578125,0,0
3.91077219319413E-06,-1.80534207174787E-05,-0.17578125,0,0
6.61214289721102E-06,-1.0500319149287E-05,-0.17578125,0,0
7.48182083043503E-06,-1.40590227601933E-05,-0.17578125,0,0
4.91559694637544E-06,-1.27236744447146E-05,-0.17578125,0,0
2.93993025479722E-06,-1.61104017024627E-05,-0.17578125,0,0
3.34135370394506E-06,-1.40938946060487E-05,-0.17578125,0,0
5.69646363146603E-06,-1.48405169966281E-05,-0.17578125,0,0
7.96168933447916E-06,-1.40440388349816E-05,-0.17578125,0,0
8.20146851765458E-06,-1.33583289425587E-05,-0.17578125,0,0
6.90043270878959E-06,-1.38364021040616E-05,-0.17578125,0,0
5.63420780963497E-06,-1.47599021147471E-05,-0.17578125,0,0
5.11103644385003E-06,-1.70597159012686E-05,-0.17578125,0,0
4.91205582875409E-06,-1.71894953382434E-05,-0.17578125,0,0
4.09385438615573E-06,-1.89802685781615E-05,-0.17578125,0,0
3.05616958939936E-06,-1.90218179341173E-05,-0.17578125,0,0
3.10935979541682E-06,-2.0778747057193E-05,-0.17578125,0,0
4.68606185677345E-06,-2.00436588784214E-05,0.17578125,0,0
6.41458836980746E-06,-1.96687087736791E-05,0.17578125,0,0
6.51731352263596E-06,-1.81909126695246E-05,0.17578125,0,0
4.64844197267666E-06,-2.02402407012414E-05,0.17578125,0,0
2.38006987274275E-06,-2.23048064071918E-05,0.17578125,0,0
2.92171671389951E-06,-2.27482669288293E-05,0.17578125,0,0
5.27028760188841E-06,-2.01293278223602E-05,0.17578125,0,0
7.29250405129278E-06,-1.71135434356984E-05,0.17578125,0,0
7.94704737927532E-06,-1.6040685295593E-05,0.17578125,0,0
8.14015129435575E-06,-1.76244429894723E-05,0.17578125,0,0
6.10637971476535E-06,-1.5659430573578E-05,0.17578125,0,0
7.67671099310974E-06,-2.08041237783618E-05,0.17578125,0,0
4.58355270893662E-06,-1.347418219666E-05,0.17578125,0,0
7.0568448791164E-06,-1.83561405719956E-05,0.17578125,0,0
6.76486342854332E-06,-1.62504766194616E-05,0.17578125,0,0
7.76608976593707E-06,-1.73883836396271E-05,0.17578125,0,0
6.25878328719409E-06,-1.40680513140978E-05,0.17578125,0,0
5.41890767635778E-06,-1.31620545289479E-05,0.17578125,0,0
3.90067862099386E-06,-1.17960353236413E-05,0.17578125,0,0
3.41048939844768E-06,-1.22718165584956E-05,0.17578125,0,0
3.43204737873748E-06,-1.25148744700709E-05,0.17578125,0,0
2.6703442017606E-06,-1.14589902295847E-05,0.17578125,0,0
2.01497437046783E-06,-1.18534881039523E-05,0.17578125,0,0
1.63290746968414E-06,-1.14559179564822E-05,0.17578125,0,0
2.94001597467286E-06,-1.26756576719345E-05,0.17578125,0,0
4.03116200686782E-06,-1.15237953650649E-05,0.17578125,0,0
5.40308838026249E-06,-1.12447105493629E-05,0.17578125,0,0
4.96940856464789E-06,-8.74072065926157E-06,0.17578125,0,0
4.35794891018304E-06,-8.83603024703916E-06,0.17578125,0,0
3.0005330700078E-06,-9.89034379017539E-06,0.17578125,0,0
2.8965969249839E-06,-1.2512294233602E-05,0.17578125,0,0
3.17323861054319E-06,-1.33884377646609E-05,0.17578125,0,0
3.97117355532828E-06,-1.46200936796959E-05,0.17578125,0,0
4.27912937084329E-06,-1.4104747606325E-05,0.17578125,0,0
4.54584096587496E-06,-1.3074803064228E-05,0.17578125,0,0
5.54076768821687E-06,-1.27511866594432E-05,0.17578125,0,0
6.86909561409266E-06,-1.39151852636132E-05,0.17578125,0,0
3.94973494621809E-06,-1.05083299786202E-05,0.17578125,0,0
3.63919048140815E-06,-1.35615118779242E-05,0.17578125,0,0
-1.05284719609244E-07,-8.96461733645992E-06,0.17578125,0,0
2.07855393341561E-07,-1.2105114365113E-05,0.17578125,0,0
-4.8613043190926E-07,-1.16204846563051E-05,0.17578125,0,0
7.78008541146846E-07,-1.54746048792731E-05,0.17578125,0,0
-5.8269756664231E-07,-1.44279656524304E-05,0.17578125,0,0
-1.60874424182111E-06,-1.42716198752169E-05,0.17578125,0,0
-2.63440983871988E-06,-1.39733692776645E-05,0.17578125,0,0
-2.33496484725038E-06,-1.43334445965593E-05,0.17578125,0,0
-1.05149035789509E-06,-1.4140535313345E-05,0.17578125,0,0
3.74434677041791E-07,-1.32014392875135E-05,0.17578125,0,0
2.48570199801179E-06,-1.45981239256798E-05,0.17578125,0,0
3.28321834786038E-06,-1.67940379469655E-05,0.17578125,0,0
3.40581368618587E-06,-1.98054603970377E-05,0.17578125,0,0
2.54720112025097E-06,-1.83176362043014E-05,0.17578125,0,0
2.48736841967911E-06,-1.43368724820903E-05,0.17578125,0,0
2.02185492526041E-06,-9.03063664736692E-06,0.17578125,0,0
2.05927835850162E-06,-8.7224216258619E-06,0.17578125,0,0
2.81161010207143E-06,-1.08098629425513E-05,0.17578125,0,0
4.4787611841457E-06,-1.32984578158357E-05,0.17578125,0,0
4.00318594984128E-06,-1.33574694700656E-05,0.17578125,0,0
2.06445520234411E-06,-1.60537765623303E-05,0.17578125,0,0
4.51614674545908E-08,-2.02772189368261E-05,0.17578125,0,0
-4.08304345000943E-07,-2.31460253417026E-05,0.17578125,0,0
8.22009951662039E-07,-2.55180166277569E-05,0.17578125,0,0
3.0770577268413E-06,-2.78747957054293E-05,0.17578125,0,0
3.81603376808926E-06,-2.38051616179291E-05,0.17578125,0,0
6.33566378382966E-06,-3.49372239725199E-05,0.17578125,0,0
5.59496629648493E-06,-2.89635718218051E-05,0.17578125,0,0
6.25413349553128E-06,-3.65239357051905E-05,0.17578125,0,0
5.14293878950411E-06,-3.17311423714273E-05,0.17578125,0,0
3.98947895519086E-06,-3.35117911163252E-05,0.17578125,0,0
2.30481305152352E-06,-2.8038381060469E-05,0.17578125,0,0
3.48785329151724E-06,-2.66682563960785E-05,0.17578125,0,0
5.04914032717352E-06,-2.33447772188811E-05,0.17578125,0,0
4.96420716444845E-06,-2.21021618926898E-05,0.17578125,0,0
4.11473365602433E-06,-2.03798845177516E-05,0.17578125,0,0
2.66182405539439E-06,-1.65610072144773E-05,0.17578125,0,0
8.14417091987707E-07,-1.72541294887196E-05,0.17578125,0,0
-1.85873460623043E-07,-1.77403799170861E-05,0.17578125,0,0
8.894990060071E-07,-1.88412032002816E-05,0.17578125,0,0
1.85893986781593E-06,-1.58502680278616E-05,0.17578125,0,0
2.32809634326259E-06,-1.60951658472186E-05,0.17578125,0,0
2.00421322915645E-06,-1.43701126944507E-05,0.17578125,0,0
9.62459239417512E-07,-1.51657677633921E-05,0.17578125,0,0
-1.17776880870224E-06,-1.39473677336355E-05,0.17578125,0,0
-1.48747335515509E-06,-1.3840618521499E-05,0.17578125,0,0
5.3219275741867E-07,-1.07312353065936E-05,0.17578125,0,0
2.73061959887855E-06,-9.66807692748262E-06,0.17578125,0,0
2.41964858105348E-06,-1.05650042314664E-05,0.17578125,0,0
8.73141743795713E-07,-1.2088560652046E-05,0.17578125,0,0
-1.98535275330869E-07,-1.15284783532843E-05,0.17578125,0,0
5.90256320265325E-07,-1.17166428026394E-05,0.17578125,0,0
1.9090948626399E-06,-9.44526436796878E-06,0.17578125,0,0
2.57381543633528E-06,-1.44864588946803E-05,0.17578125,0,0
3.14403541779029E-06,-1.25744645629311E-05,0.17578125,0,0
6.00197336098063E-06,-1.41857044582139E-05,0.17578125,0,0
5.43948362974334E-06,-1.25510550788022E-05,0.17578125,0,0
4.47485990662244E-06,-1.53716864588205E-05,0.17578125,0,0
3.96140649172594E-06,-1.39139719976811E-05,0.17578125,0,0
2.82347059510357E-06,-1.16954852273921E-05,0.17578125,0,0
7.68148879615183E-07,-1.07594050859916E-05,0.17578125,0,0
-2.48861169893644E-07,-1.30302469187882E-05,0.17578125,0,0
1.63217339377297E-06,-1.41700966196368E-05,0.17578125,0,0
4.65435505248024E-06,-1.30394018924562E-05,0.17578125,0,0
6.71309180688695E-06,-1.36279704747722E-05,0.17578125,0,0
6.74458124194643E-06,-1.35994896481861E-05,0.17578125,0,0
5.74458090341068E-06,-1.350319962512E-05,0.17578125,0,0
4.96452912557288E-06,-1.21349085020483E-05,0.17578125,0,0
5.77305445403908E-06,-1.24739908642368E-05,0.17578125,0,0
7.03724572304054E-06,-1.24549478641711E-05,0.17578125,0,0
7.66079483582871E-06,-1.41939544846537E-05,0.17578125,0,0
7.34361856302712E-06,-1.52587563206907E-05,0.17578125,0,0
7.37480695534032E-06,-1.56375390361063E-05,0.17578125,0,0
7.5068169280712E-06,-1.47205082612345E-05,0.17578125,0,0
6.13017300565843E-06,-1.41608697958873E-05,0.17578125,0,0
4.18273430113913E-06,-1.35811324071256E-05,0.17578125,0,0
4.55765302831423E-06,-1.39334124469315E-05,0.17578125,0,0
4.91428500026814E-06,-1.5721174349892E-05,0.17578125,0,0
3.93245136365294E-06,-1.89291840797523E-05,0.17578125,0,0
1.6271255844913E-06,-1.76883841049857E-05,0.17578125,0,0
1.146644194705E-06,-2.50349348789314E-05,0.17578125,0,0
5.49281594430795E-07,-1.9480803530314E-05,0.17578125,0,0
2.22601170207781E-06,-2.41125562752131E-05,0.17578125,0,0
1.07051266695635E-06,-2.00387949007563E-05,0.17578125,0,0
7.49018852275185E-07,-2.41596480918815E-05,0.17578125,0,0
5.26669737155316E-07,-2.43458944169106E-05,0.17578125,0,0
8.28664667551493E-07,-2.51209839916555E-05,0.17578125,0,0
6.36272375231783E-07,-2.1987563741277E-05,0.17578125,0,0
3.80952030809567E-07,-2.02358241949696E-05,0.17578125,0,0
6.34675586752564E-07,-1.95937973330729E-05,0.17578125,0,0
6.36422385014157E-07,-1.88479898497462E-05,0.17578125,0,0
-1.31556930682564E-07,-2.02224400709383E-05,0.17578125,0,0
-1.41816769883008E-06,-1.99307378352387E-05,0.17578125,0,0
-1.64496213983512E-06,-2.08597211894812E-05,0.17578125,0,0
-1.34477829760726E-06,-1.84324671863578E-05,0.17578125,0,0
-7.35903540771687E-07,-1.74933520611376E-05,0.17578125,0,0
-8.77406591826002E-07,-1.5315741620725E-05,0.17578125,0,0
-8.66701896029554E-07,-1.59219416673295E-05,0.17578125,0,0
-2.14371134177327E-08,-1.38339037221158E-05,0.17578125,0,0
1.81249492925417E-06,-1.22429491966614E-05,0.17578125,0,0
3.12709175886994E-06,-1.04330056274193E-05,0.17578125,0,0
3.30652596858272E-06,-1.13950809463859E-05,0.17578125,0,0
1.47799289607065E-06,-1.21284010674572E-05,0.17578125,0,0
-1.35076481910801E-06,-1.21528255476733E-05,0.17578125,0,0
-2.86602880805731E-06,-1.1966512829531E-05,0.17578125,0,0
-2.70217037723341E-06,-1.27364264699281E-05,0.17578125,0,0
-3.87542002044938E-07,-1.10488936115871E-05,0.17578125,0,0
1.23819813779846E-06,-1.61799835041165E-05,0.17578125,0,0
2.12611644201388E-06,-1.27302109831362E-05,0.17578125,0,0
-1.22715476891244E-07,-1.47214432217879E-05,0.17578125,0,0
-6.43401506295049E-07,-1.34343090394395E-05,0.17578125,0,0
-9.13462770313345E-07,-1.62544802151388E-05,0.17578125,0,0
-1.42832345773058E-06,-1.4225715858629E-05,0.17578125,0,0
-3.36566245096037E-06,-1.46844495247933E-05,0.17578125,0,0
-5.13972963744891E-06,-1.55273628479335E-05,0.17578125,0,0
-4.88862542624702E-06,-1.66467361850664E-05,0.17578125,0,0
-3.46258843819669E-06,-1.70875428011641E-05,0.17578125,0,0
-2.35602692555403E-06,-1.71462907019304E-05,0.17578125,0,0
-1.55174359406374E-06,-1.92817024071701E-05,0.17578125,0,0
-1.65060055223876E-06,-2.15195323107764E-05,0.17578125,0,0
-2.2312117380352E-06,-2.35533771046903E-05,0.17578125,0,0
-1.6391938970628E-06,-2.22157104872167E-05,0.17578125,0,0
-6.14801763276773E-07,-2.23778206418501E-05,0.17578125,0,0
2.17879019714928E-07,-2.17352808249416E-05,0.17578125,0,0
2.95568547414859E-08,-2.23104179895017E-05,0.17578125,0,0
-1.0087094182154E-07,-2.20142792386469E-05,0.17578125,0,0
-5.0682660912571E-07,-2.16080152313225E-05,0.17578125,0,0
-1.24277880786394E-06,-1.91167982848128E-05,0.17578125,0,0
-9.49281911744038E-07,-1.86752658919431E-05,0.52734375,0,0
9.37673632961378E-07,-1.97693152585998E-05,0.52734375,0,0
3.00220767712744E-06,-1.98329744307557E-05,0.52734375,0,0
3.07475397676171E-06,-1.98010202439036E-05,0.52734375,0,0
1.34094671011553E-06,-1.99402165890206E-05,0.52734375,0,0
-4.46127756958958E-09,-1.538284959679E-05,0.52734375,0,0
2.68573671746708E-07,-2.18691093323287E-05,0.52734375,0,0
1.00805414149363E-06,-1.69174290931551E-05,0.52734375,0,0
2.34299864132481E-06,-2.18528693949338E-05,0.52734375,0,0
3.14227850140014E-06,-1.99928690562956E-05,0.52734375,0,0
2.9340360470087E-06,-2.26645061047748E-05,0.52734375,0,0
4.33448849435081E-06,-2.01312759600114E-05,0.52734375,0,0
5.58917190573993E-06,-2.02933260879945E-05,0.52734375,0,0
4.93443167215446E-06,-2.05627511604689E-05,0.52734375,0,0
3.56843770532578E-06,-2.12361501326086E-05,0.52734375,0,0
2.22702851715439E-06,-2.12838785955682E-05,0.52734375,0,0
3.47379977938544E-06,-2.16276621358702E-05,0.52734375,0,0
5.21132824360393E-06,-2.30863897741074E-05,0.52734375,0,0
5.52876781512168E-06,-2.22879971261136E-05,0.52734375,0,0
4.71963903692085E-06,-2.31805624935078E-05,0.52734375,0,0
4.25687585448031E-06,-2.32641978072934E-05,0.52734375,0,0
5.09047413288499E-06,-2.57161955232732E-05,0.52734375,0,0
7.59191425458994E-06,-2.61310415226035E-05,0.52734375,0,0
1.07731239040731E-05,-2.61443292401964E-05,0.52734375,0,0
1.18145526357694E-05,-2.33178870985284E-05,0.52734375,0,0
1.03996208054014E-05,-2.19100402318873E-05,0.52734375,0,0
9.03312957234448E-06,-1.96787641471019E-05,0.52734375,0,0
9.43228224059567E-06,-1.8886938050855E-05,0.52734375,0,0
9.23739116842626E-06,-1.80133265530458E-05,0.52734375,0,0
8.3027453001705E-06,-1.74095257534646E-05,0.52734375,0,0
7.08792322257068E-06,-1.45500680446276E-05,0.52734375,0,0
5.08622451889096E-06,-1.14767572085839E-05,0.52734375,0,0
2.02901128432131E-06,-8.04728006187361E-06,0.52734375,0,0
2.52251697929751E-06,-1.24570333355223E-05,0.52734375,0,0
3.0168448574841E-06,-1.13779133243952E-05,0.52734375,0,0
6.70210920361569E-06,-1.32332806970226E-05,0.52734375,0,0
8.27574694994837E-06,-1.14050271804444E-05,0.52734375,0,0
8.32605746836634E-06,-1.41796981552034E-05,0.52734375,0,0
7.15476835466689E-06,-1.50000041685416E-05,0.52734375,0,0
7.55315295464243E-06,-1.58916645887075E-05,0.52734375,0,0
6.91964942234335E-06,-1.65656911121914E-05,0.52734375,0,0
5.78306571696885E-06,-1.94619733520085E-05,0.52734375,0,0
4.86407543576206E-06,-2.18085242522648E-05,0.52734375,0,0
4.64523191112676E-06,-2.15251184272347E-05,0.52734375,0,0
4.93615880259313E-06,-1.96357141248882E-05,0.52734375,0,0
4.3649279177771E-06,-1.69258364621783E-05,0.52734375,0,0
4.21844288212014E-06,-1.70062430697726E-05,0.52734375,0,0
4.66363644591183E-06,-1.71613010024885E-05,0.52734375,0,0
4.72713054477936E-06,-1.77931797225028E-05,0.52734375,0,0
2.41759266828012E-06,-1.66986974363681E-05,0.52734375,0,0
-3.91742219107982E-07,-1.52686079673003E-05,0.52734375,0,0
-1.79533083155548E-06,-1.31415090436349E-05,0.52734375,0,0
-1.36202334033442E-06,-1.38476943902788E-05,0.52734375,0,0
-1.87213936442276E-06,-1.62330488819862E-05,0.52734375,0,0
-3.30345915244834E-06,-1.7972530258703E-05,0.52734375,0,0
-3.45801549883618E-06,-1.64084431162337E-05,0.52734375,0,0
-1.71024169048906E-06,-1.50604009832023E-05,0.52734375,0,0
-2.00235422198602E-06,-1.52311158672092E-05,0.52734375,0,0
-2.92934782919474E-06,-1.42518683787785E-05,0.52734375,0,0
-9.37631511988002E-07,-9.39729670790257E-06,0.52734375,0,0
-1.87533544249163E-07,-1.38773166327155E-05,0.52734375,0,0
9.55476366470975E-07,-1.19521419037483E-05,0.52734375,0,0
-3.05500208241938E-07,-1.6113517631311E-05,0.52734375,0,0
9.14985349709241E-08,-1.56917103595333E-05,0.52734375,0,0
1.27826706375345E-06,-1.82845578819979E-05,0.52734375,0,0
1.87865521183994E-06,-1.96452838281402E-05,0.52734375,0,0
4.96740923949801E-08,-2.11369242606452E-05,0.52734375,0,0
-1.78729430899693E-06,-1.86998950084671E-05,0.52734375,0,0
-1.34529022943752E-06,-1.71866013261024E-05,0.52734375,0,0
1.615701648916E-06,-1.71607989614131E-05,0.52734375,0,0
3.75819945475087E-06,-1.70241546584293E-05,0.52734375,0,0
2.12890086004336E-06,-1.78897262230748E-05,0.52734375,0,0
-6.25938127996051E-07,-1.75973600562429E-05,0.52734375,0,0
-1.41726582114643E-06,-1.73295720742317E-05,0.52734375,0,0
3.64168272426468E-07,-1.66310292115668E-05,0.52734375,0,0
2.62595244748809E-06,-1.81523428182118E-05,0.52734375,0,0
3.36837456416106E-06,-1.81907944352133E-05,0.52734375,0,0
1.63432252975326E-06,-1.8217720935354E-05,0.52734375,0,0
1.62034883288698E-08,-1.78975697053829E-05,0.52734375,0,0
6.20033347331628E-07,-1.83367446879856E-05,0.52734375,0,0
3.01437626148982E-06,-1.6042627976276E-05,0.52734375,0,0
4.40721123595722E-06,-1.32049899548292E-05,0.52734375,0,0
3.2261839351122E-06,-1.26746981550241E-05,0.52734375,0,0
1.50246341945603E-06,-1.506039279775E-05,0.52734375,0,0
1.04734147043928E-06,-1.65791607287247E-05,0.52734375,0,0
9.79200422079884E-07,-1.69260547409067E-05,0.52734375,0,0
2.311880734851E-06,-1.25144742924022E-05,0.52734375,0,0
4.6058312364039E-06,-1.7421747543267E-05,0.52734375,0,0
4.92253775519202E-06,-1.3361920537136E-05,0.52734375,0,0
5.73637180423248E-06,-1.78711998159997E-05,0.52734375,0,0
5.17272883371334E-06,-1.53305572894169E-05,0.52734375,0,0
5.01246540807188E-06,-1.61026709974976E-05,0.52734375,0,0
5.80841060582316E-06,-1.45755020639626E-05,0.52734375,0,0
6.97333553034696E-06,-1.47274786286289E-05,0.52734375,0,0
7.04146214047796E-06,-1.22552200991777E-05,0.52734375,0,0
6.00097791902954E-06,-1.23697773233289E-05,0.52734375,0,0
5.30447368873865E-06,-1.44166915561073E-05,0.52734375,0,0
5.23960443388205E-06,-1.62633932632161E-05,0.52734375,0,0
5.80978530706489E-06,-1.94032818399137E-05,0.52734375,0,0
5.65003256269847E-06,-2.04360985662788E-05,0.52734375,0,0
4.98458030051552E-06,-2.04233310796553E-05,0.52734375,0,0
4.26653241447639E-06,-1.79610160557786E-05,0.52734375,0,0
3.23680160363438E-06,-1.76853736775229E-05,0.52734375,0,0
1.45369540405227E-06,-1.64574485097546E-05,0.52734375,0,0
2.40548416741149E-07,-1.73382959474111E-05,0.52734375,0,0
2.41067937167827E-07,-1.84615364560159E-05,0.52734375,0,0
1.43158081300498E-06,-2.07326684176223E-05,0.52734375,0,0
1.54074757574563E-06,-2.08992350962944E-05,0.52734375,0,0
-3.41221323196805E-07,-2.04691623366671E-05,0.52734375,0,0
-1.38283712658449E-06,-1.83345564437332E-05,0.52734375,0,0
-3.13085052994211E-07,-1.73690914380131E-05,0.52734375,0,0
2.88843739326694E-06,-1.81945124495542E-05,0.52734375,0,0
5.36653897142969E-06,-1.86517445399659E-05,0.52734375,0,0
3.9417377593054E-06,-1.56584937940352E-05,0.52734375,0,0
5.2244718062866E-06,-2.27775199164171E-05,0.52734375,0,0
3.3176102078869E-06,-1.70956973306602E-05,0.52734375,0,0
5.04499303133343E-06,-1.96704604604747E-05,0.52734375,0,0
5.22132222613436E-06,-1.58976781676756E-05,0.52734375,0,0
5.38812855666038E-06,-1.83860975084826E-05,0.52734375,0,0
3.99935242967331E-06,-1.72722684510518E-05,0.52734375,0,0
3.93301388612599E-06,-1.78855243575526E-05,0.52734375,0,0
4.12827921536518E-06,-1.57862723426661E-05,0.52734375,0,0
4.82424184156116E-06,-1.38852910822607E-05,0.52734375,0,0
5.52547999177477E-06,-1.38834593599313E-05,0.52734375,0,0
5.71580767427804E-06,-1.43162205858971E-05,0.52734375,0,0
6.19348838881706E-06,-1.50042869790923E-05,0.52734375,0,0
6.34842126601143E-06,-1.39177191158524E-05,0.52734375,0,0
6.78138303555897E-06,-1.47447117342381E-05,0.52734375,0,0
6.40482448943658E-06,-1.32399472931866E-05,0.52734375,0,0
5.35211165697547E-06,-1.4333756553242E-05,0.52734375,0,0
3.17061403620755E-06,-1.58171787916217E-05,0.52734375,0,0
2.07600055546209E-06,-1.87107634701533E-05,0.52734375,0,0
2.87782336272358E-06,-1.96600431081606E-05,0.52734375,0,0
4.86957424072898E-06,-2.15960335481213E-05,0.52734375,0,0
5.07766708324198E-06,-2.09961708605988E-05,0.52734375,0,0
5.37509413334192E-06,-1.81190644070739E-05,0.52734375,0,0
6.57007694826461E-06,-1.36066946652136E-05,0.52734375,0,0
7.79722267907346E-06,-1.24187818073551E-05,0.52734375,0,0
7.75385615270352E-06,-1.38035256895819E-05,0.52734375,0,0
6.79426693750429E-06,-1.54886820382671E-05,0.52734375,0,0
3.39444090968755E-06,-1.36327744257869E-05,0.52734375,0,0
3.40242036145355E-06,-1.93326904991409E-05,0.52734375,0,0
9.42539486459282E-07,-1.43883507917053E-05,0.52734375,0,0
6.75500189117884E-07,-1.77736328623723E-05,0.52734375,0,0
-1.26744851058902E-06,-1.58728653332219E-05,0.52734375,0,0
-6.81706353589107E-07,-1.97255194507306E-05,0.52734375,0,0
-2.52850804827176E-06,-1.90501850738656E-05,0.52734375,0,0
-3.29968838741479E-06,-1.75274617504328E-05,0.52734375,0,0
-4.03381773139699E-06,-1.47714654303854E-05,0.52734375,0,0
-4.40940402768319E-06,-1.41098698804853E-05,0.52734375,0,0
-4.55973349744454E-06,-1.48921990330564E-05,0.52734375,0,0
-5.19931836606702E-06,-1.50983614730649E-05,0.52734375,0,0
-5.05373964188038E-06,-1.53928594954778E-05,0.52734375,0,0
-4.11342443840113E-06,-1.45136436913162E-05,0.52734375,0,0
-2.58071304415353E-06,-1.59851697389968E-05,0.52734375,0,0
-2.19828052649973E-06,-1.53471301018726E-05,0.52734375,0,0
-1.39030532864126E-06,-1.58608982019359E-05,0.52734375,0,0
-9.46887155350851E-08,-1.60849649546435E-05,0.52734375,0,0
2.87248644781357E-06,-1.75252789631486E-05,0.52734375,0,0
4.48857826995663E-06,-1.56960431922926E-05,0.52734375,0,0
4.10883285439922E-06,-1.47247856148169E-05,0.52734375,0,0
3.09015513266786E-06,-1.71977299032733E-05,0.52734375,0,0
2.39751489061746E-06,-2.19718003791058E-05,0.52734375,0,0
6.3175428977047E-07,-2.17339693335816E-05,0.52734375,0,0
7.49260721022438E-07,-1.86004726856481E-05,1.58203125,0,0
2.73597152045113E-06,-1.63652275659842E-05,1.58203125,0,0
4.42768805442029E-06,-1.42510079967906E-05,1.58203125,0,0
3.95287042920245E-06,-9.6842813945841E-06,1.58203125,0,0
4.81776987726334E-06,-1.45126241477556E-05,1.58203125,0,0
3.13751252178918E-06,-1.21370885608485E-05,1.58203125,0,0
5.3911144277663E-06,-1.56476817210205E-05,1.58203125,0,0
4.23739493271569E-06,-1.50970681715989E-05,1.58203125,0,0
3.60811395694327E-06,-1.67968664754881E-05,1.58203125,0,0
3.92318816011539E-06,-1.58123020810308E-05,1.58203125,0,0
5.90205172557035E-06,-1.70140192494728E-05,1.58203125,0,0
5.81762560614152E-06,-1.83533938979963E-05,1.58203125,0,0
3.97395433537895E-06,-1.93179766938556E-05,1.58203125,0,0
4.02966861656751E-06,-1.87059667950962E-05,1.58203125,0,0
6.19118691247422E-06,-1.68658280017553E-05,1.58203125,0,0
7.69356665841769E-06,-1.72498876054306E-05,1.58203125,0,0
5.54882717551664E-06,-1.82946241693571E-05,1.58203125,0,0
3.21629818245128E-06,-1.90699192899046E-05,1.58203125,0,0
2.5413287403353E-06,-1.78049194801133E-05,1.58203125,0,0
3.42850921697391E-06,-1.86161305464339E-05,1.58203125,0,0
3.95516008211416E-06,-1.98531761270715E-05,1.58203125,0,0
4.60142609881586E-06,-2.17436354432721E-05,1.58203125,0,0
3.23915764965932E-06,-2.21125337702688E-05,1.58203125,0,0
8.46253271902242E-07,-2.25719704758376E-05,1.58203125,0,0
-6.30618444574793E-07,-2.23015358642442E-05,1.58203125,0,0
-3.32253847545871E-07,-2.16726257349364E-05,1.58203125,0,0
1.00676618330908E-06,-2.01614657271421E-05,1.58203125,0,0
3.22395567309286E-06,-2.02699866349576E-05,1.58203125,0,0
4.54734936283785E-06,-2.04017487703823E-05,1.58203125,0,0
4.3651343730744E-06,-2.08110559469787E-05,1.58203125,0,0
3.12970269078505E-06,-1.69987033586949E-05,1.58203125,0,0
5.24290771863889E-06,-2.30255118367495E-05,1.58203125,0,0
5.9253193285258E-06,-1.60664840223035E-05,1.58203125,0,0
7.07938897903659E-06,-2.15250802284572E-05,1.58203125,0,0
5.80749701839522E-06,-1.84102264029207E-05,1.58203125,0,0
6.61208741803421E-06,-2.09008794627152E-05,1.58203125,0,0
6.53787310511689E-06,-2.06288041226799E-05,1.58203125,0,0
7.09002051735297E-06,-2.29789948207326E-05,1.58203125,0,0
6.74266357236775E-06,-2.16037915379275E-05,1.58203125,0,0
6.11826544627547E-06,-1.97602166736033E-05,1.58203125,0,0
