biceps_emg, triceps_emg, subject_position, position_estimate, brace_position
-3.24852735502645E-05,8.22859874460846E-06,1.0546875,0,0
-2.58732834481634E-05,4.2299116103095E-06,1.0546875,0,0
-3.49210313288495E-05,5.20176536156214E-06,1.0546875,0,0
-2.29525321628898E-05,4.95252743348829E-06,1.0546875,0,0
-2.79787855106406E-05,8.26429550215835E-06,1.0546875,0,0
-2.26109459617874E-05,7.44086764825624E-06,1.0546875,0,0
-2.70056771114469E-05,9.42856240726542E-06,1.0546875,0,0
-2.52090067078825E-05,1.13933110696962E-05,1.0546875,0,0
-2.78650768450461E-05,1.31122269522166E-05,1.0546875,0,0
-2.75955335382605E-05,1.25436199596152E-05,1.0546875,0,0
-2.84249217656907E-05,1.18276357170544E-05,1.0546875,0,0
-2.89472445729189E-05,1.21891071103164E-05,1.0546875,0,0
-2.74414451268967E-05,1.23164754768368E-05,1.0546875,0,0
-2.77728686342016E-05,1.12550624180585E-05,1.0546875,0,0
-2.61315180978272E-05,8.93477863428416E-06,1.0546875,0,0
-2.86056601908058E-05,9.07034973351983E-06,1.0546875,0,0
-2.91536380245816E-05,9.86017494142288E-06,1.0546875,0,0
-3.18918282573577E-05,1.04286546047661E-05,1.0546875,0,0
-3.07416667055804E-05,9.80854474619264E-06,1.0546875,0,0
-3.24921165884007E-05,1.04611926872167E-05,1.0546875,0,0
-3.21855586662423E-05,1.06618135760073E-05,1.0546875,0,0
-3.34538017341401E-05,1.00138358902768E-05,1.0546875,0,0
-3.22181767842267E-05,8.74565193953458E-06,1.0546875,0,0
-3.28185487887822E-05,9.09992832021089E-06,1.0546875,0,0
-3.19680802931543E-05,9.26292159419972E-06,1.0546875,0,0
-2.94846231554402E-05,8.63182322063949E-06,1.0546875,0,0
-2.75068632618058E-05,9.35465959628345E-06,1.0546875,0,0
-2.79336163657717E-05,1.04716691566864E-05,1.0546875,0,0
-2.37140557146631E-05,8.42882582219318E-06,1.0546875,0,0
-3.32508607243653E-05,1.20109234558186E-05,1.0546875,0,0
-2.41054367506877E-05,8.75141176948091E-06,1.0546875,0,0
-2.80138010566588E-05,1.02221256383928E-05,1.0546875,0,0
-2.0119685359532E-05,8.97695099411067E-06,1.0546875,0,0
-2.16801763599506E-05,1.28504179883748E-05,1.0546875,0,0
-1.97067129192874E-05,1.3932648471382E-05,1.0546875,0,0
-2.2359785361914E-05,1.35524760480621E-05,1.0546875,0,0
-2.25745079660555E-05,1.12592788354959E-05,1.0546875,0,0
-2.29017659876263E-05,1.0166413630941E-05,1.0546875,0,0
-2.32968686759705E-05,9.64830633165548E-06,1.0546875,0,0
-2.20548463403247E-05,8.66266691446071E-06,1.0546875,0,0
-2.1928150090389E-05,7.67148594604805E-06,1.0546875,0,0
-1.96760302060284E-05,6.23371170149767E-06,1.0546875,0,0
-2.05935320991557E-05,7.69039615988731E-06,1.0546875,0,0
-1.98423713300144E-05,9.40423433348769E-06,1.0546875,0,0
-2.18616787606152E-05,1.15398934212863E-05,1.0546875,0,0
-2.07524299185025E-05,1.21058537843055E-05,1.0546875,0,0
-2.14464380405843E-05,1.41005139084882E-05,1.0546875,0,0
-2.01852344616782E-05,1.60488325491315E-05,1.0546875,0,0
-2.12459526665043E-05,1.76585854205769E-05,1.0546875,0,0
-2.12403174373321E-05,1.71768206200795E-05,1.0546875,0,0
-2.2070777049521E-05,1.67727212101454E-05,1.0546875,0,0
-2.21767295442987E-05,1.52299226101604E-05,1.0546875,0,0
-2.37524272961309E-05,1.392814101564E-05,1.0546875,0,0
-2.42082369368291E-05,1.60455601871945E-05,1.0546875,0,0
-2.34927520068595E-05,1.97313820535783E-05,1.0546875,0,0
-1.86863562703365E-05,1.72754753293702E-05,1.0546875,0,0
-2.58189502346795E-05,2.45909450313775E-05,1.0546875,0,0
-1.76416851900285E-05,1.84644650289556E-05,1.0546875,0,0
-2.11867773032282E-05,2.12494069273816E-05,1.0546875,0,0
-1.81194900505943E-05,1.38735776999965E-05,1.0546875,0,0
-2.2275666196947E-05,1.32987534016138E-05,1.0546875,0,0
-2.16553198697511E-05,9.14918291528011E-06,1.0546875,0,0
-2.09375939448364E-05,6.88928639647202E-06,1.0546875,0,0
-1.73356693267124E-05,4.19462139689131E-06,1.0546875,0,0
-1.71341180248419E-05,5.27344354850356E-06,1.0546875,0,0
-1.90719038073439E-05,8.65186848386656E-06,1.0546875,0,0
-2.02343107957859E-05,1.11464214569423E-05,1.0546875,0,0
-2.11896167456871E-05,1.38741879709414E-05,1.0546875,0,0
-1.93345385923749E-05,1.4137165635475E-05,1.0546875,0,0
-1.95912834897172E-05,1.67883754329523E-05,1.0546875,0,0
-1.90532773558516E-05,1.85265271284152E-05,1.0546875,0,0
-2.15890195249813E-05,2.12563827517442E-05,1.0546875,0,0
-2.17106462514494E-05,1.95876382349525E-05,1.0546875,0,0
-2.24430204980308E-05,1.8488446585252E-05,1.0546875,0,0
-2.0406827388797E-05,1.70418861671351E-05,1.0546875,0,0
-1.94334606931079E-05,1.76579287654022E-05,1.0546875,0,0
-1.76959201780846E-05,1.60331182996742E-05,1.0546875,0,0
-1.78394475369714E-05,1.38941368277301E-05,1.0546875,0,0
-1.77200872713001E-05,1.12198840724886E-05,1.0546875,0,0
-1.84808086487465E-05,1.07458008642425E-05,1.0546875,0,0
-1.86407178262016E-05,1.20800204967964E-05,1.0546875,0,0
-1.85834414878627E-05,1.32500144900405E-05,1.0546875,0,0
-1.5403651559609E-05,1.13275855255779E-05,1.0546875,0,0
-2.36902542383177E-05,1.48489652929129E-05,1.0546875,0,0
-2.07471475732746E-05,8.65586025611265E-06,1.0546875,0,0
-2.47801654040813E-05,1.04221826404682E-05,1.0546875,0,0
-2.15620711969677E-05,9.54191364144208E-06,1.0546875,0,0
-2.34131930483272E-05,1.41467089633807E-05,1.0546875,0,0
-2.13591429201188E-05,1.42678345582681E-05,1.0546875,0,0
-2.20540314330719E-05,1.35089194372995E-05,1.0546875,0,0
-2.07529992621858E-05,1.20937020255951E-05,1.0546875,0,0
-2.05644391826354E-05,1.16778619485558E-05,1.0546875,0,0
-2.20943675230956E-05,1.13779415187309E-05,1.0546875,0,0
-2.23691076826071E-05,1.0842083611351E-05,1.0546875,0,0
-2.21779464482097E-05,1.16774417620036E-05,1.0546875,0,0
-2.01389175344957E-05,1.04264900073758E-05,1.0546875,0,0
-2.11468268389581E-05,9.18307705433108E-06,1.0546875,0,0
-2.18141994992038E-05,7.85844076744979E-06,1.0546875,0,0
-2.40245008171769E-05,9.90982334769797E-06,1.0546875,0,0
-2.44587154156761E-05,1.17162253445713E-05,1.0546875,0,0
-2.69401898549404E-05,1.40193833431113E-05,1.0546875,0,0
-2.82556757156271E-05,1.32902705445304E-05,1.0546875,0,0
-2.90785719698761E-05,1.2478226381063E-05,1.0546875,0,0
-2.76884529739618E-05,1.24357429740485E-05,1.0546875,0,0
-2.75935326499166E-05,1.44093255585176E-05,1.0546875,0,0
-2.69756292254897E-05,1.54505851241993E-05,1.0546875,0,0
-2.57830124610337E-05,1.40080765049788E-05,1.0546875,0,0
-2.44712664425606E-05,1.14394561023801E-05,1.0546875,0,0
-2.34568396990653E-05,1.15106358862249E-05,1.0546875,0,0
-1.81084069481585E-05,9.53306516748853E-06,1.0546875,0,0
-2.52109293796821E-05,1.1965424164373E-05,1.0546875,0,0
-1.80936531251064E-05,7.90972080721986E-06,1.0546875,0,0
-2.15921318158507E-05,1.09835618786747E-05,1.0546875,0,0
-1.70985331351403E-05,7.50560093365493E-06,1.0546875,0,0
-1.97856916201999E-05,8.15722978586564E-06,1.0546875,0,0
-1.85114295163658E-05,6.26765404376783E-06,1.0546875,0,0
-2.05455671675736E-05,5.18420574735501E-06,1.0546875,0,0
-1.98470988834742E-05,5.35838398718624E-06,1.0546875,0,0
-1.94622025446733E-05,6.68974462314509E-06,1.0546875,0,0
-2.00353460968472E-05,7.86550026532495E-06,1.0546875,0,0
-2.07210832741112E-05,8.86540874489583E-06,1.0546875,0,0
-2.25546718866099E-05,9.83826976153068E-06,1.0546875,0,0
-2.09440640901448E-05,8.18920034362236E-06,1.0546875,0,0
-1.95961201825412E-05,7.74618547438877E-06,1.0546875,0,0
-1.70170424098615E-05,7.865985026001E-06,1.0546875,0,0
-1.79436392500065E-05,1.04515693237772E-05,1.0546875,0,0
-1.75601762748556E-05,1.23016425277456E-05,1.0546875,0,0
-1.94749700312968E-05,1.39155463330098E-05,1.0546875,0,0
-2.01641851163004E-05,1.38301284096087E-05,1.0546875,0,0
-2.18258555833017E-05,1.46829052027897E-05,1.0546875,0,0
-2.08803048735717E-05,1.43513598231948E-05,1.0546875,0,0
-2.08352539630141E-05,1.24672342280974E-05,1.0546875,0,0
-2.0572046196321E-05,9.25026870390866E-06,1.0546875,0,0
-2.12067643587943E-05,8.48032777867047E-06,1.0546875,0,0
-2.17433662328403E-05,9.38594985200325E-06,1.0546875,0,0
-2.36269206652651E-05,1.10247365228133E-05,1.0546875,0,0
-2.24704999709502E-05,9.39878009376116E-06,1.0546875,0,0
-3.3236232411582E-05,1.20328886623611E-05,1.0546875,0,0
-2.60021824942669E-05,7.00714599588537E-06,1.0546875,0,0
-3.13996752083767E-05,8.30680619401392E-06,1.0546875,0,0
-2.76334976661019E-05,6.9988541326893E-06,1.0546875,0,0
-3.04917466564802E-05,1.13223068183288E-05,1.0546875,0,0
-2.77335166174453E-05,1.17272684292402E-05,1.0546875,0,0
-2.83071603917051E-05,1.14164658953086E-05,1.0546875,0,0
-2.68485582637368E-05,9.85307633527555E-06,1.0546875,0,0
-2.55909253610298E-05,9.53090238908771E-06,1.0546875,0,0
-2.41921825363534E-05,9.35018306336133E-06,1.0546875,0,0
-2.30009518418228E-05,9.00970007933211E-06,1.0546875,0,0
-2.47819298238028E-05,1.11941008071881E-05,1.0546875,0,0
-2.51533238042612E-05,1.3157159628463E-05,1.0546875,0,0
-2.78517709375592E-05,1.50033711179276E-05,1.0546875,0,0
-2.79512642009649E-05,1.47205673783901E-05,1.0546875,0,0
-3.0034147130209E-05,1.52018919834518E-05,1.0546875,0,0
-2.93868433800526E-05,1.3572464013123E-05,1.0546875,0,0
-2.9594006264233E-05,1.16933942990727E-05,1.0546875,0,0
-2.61075256275944E-05,9.54303322941996E-06,1.0546875,0,0
-2.3141483325162E-05,9.78112257143948E-06,1.0546875,0,0
-1.94053609448019E-05,9.84646067081485E-06,1.0546875,0,0
-1.94710919458885E-05,1.04375531009282E-05,1.0546875,0,0
-2.11316073546186E-05,1.04088003354263E-05,1.0546875,0,0
-2.29392790060956E-05,1.17196777864592E-05,1.0546875,0,0
-2.18764707824448E-05,1.37136885314249E-05,1.0546875,0,0
-1.99400019482709E-05,1.4679415471619E-05,1.0546875,0,0
-1.55476554937195E-05,1.22503906823113E-05,1.0546875,0,0
-2.24286923184991E-05,1.63661297847284E-05,1.0546875,0,0
-1.93102478078799E-05,9.84808229986811E-06,1.0546875,0,0
-2.47898697125493E-05,1.16444616651279E-05,1.0546875,0,0
-2.04084917641012E-05,8.90070259629283E-06,1.0546875,0,0
-2.17126271309098E-05,9.74230715655722E-06,1.0546875,0,0
-2.01653019757941E-05,5.84354620514205E-06,1.0546875,0,0
-2.13429757423E-05,4.09180802307674E-06,1.0546875,0,0
-2.13546227314509E-05,3.29204431182006E-06,1.0546875,0,0
-2.20434540096903E-05,3.12962401949335E-06,1.0546875,0,0
-2.30696150538279E-05,3.31299565914378E-06,1.0546875,0,0
-2.28526550927199E-05,5.12036285726936E-06,1.0546875,0,0
-2.28575627261307E-05,7.81895596446702E-06,1.0546875,0,0
-2.05263440875569E-05,6.07486754233832E-06,1.0546875,0,0
-2.0690526071121E-05,4.48288028565003E-06,1.0546875,0,0
-2.06062777579064E-05,4.36595519204275E-06,1.0546875,0,0
-2.21622904064134E-05,7.28505619917996E-06,1.0546875,0,0
-2.14929859794211E-05,7.39641927793855E-06,1.0546875,0,0
-2.33383070735727E-05,6.6850288931164E-06,1.0546875,0,0
-2.52062109211693E-05,4.39117820860702E-06,1.0546875,0,0
-2.78720272035571E-05,3.56015652869246E-06,1.0546875,0,0
-2.74014273600187E-05,2.32543015954434E-06,1.0546875,0,0
-2.616200617922E-05,2.57496458289097E-06,1.0546875,0,0
-2.48326814471511E-05,4.86738599647651E-06,1.0546875,0,0
-2.44187631324166E-05,8.57899976836052E-06,1.0546875,0,0
-2.36956129811006E-05,1.05552462628111E-05,1.0546875,0,0
-2.37551266764058E-05,1.23494273793767E-05,1.0546875,0,0
-2.08364581339993E-05,1.13106580101885E-05,1.0546875,0,0
-3.24950851791073E-05,1.61824245878961E-05,1.0546875,0,0
-2.75297406915342E-05,1.15575785457622E-05,1.0546875,0,0
-3.12957417918369E-05,1.33273306346382E-05,1.0546875,0,0
-2.65799499175046E-05,1.14337935883668E-05,1.0546875,0,0
-3.0752009479329E-05,1.44415434988332E-05,1.0546875,0,0
-3.1287461752072E-05,1.38149016493117E-05,1.0546875,0,0
-3.43280189554207E-05,1.31458100440796E-05,1.0546875,0,0
-3.52403585566208E-05,1.17316567411763E-05,1.0546875,0,0
-3.6360121157486E-05,1.10034616227495E-05,1.0546875,0,0
-3.62791433872189E-05,1.04076525531127E-05,1.0546875,0,0
-3.53021605405957E-05,1.01289897429524E-05,1.0546875,0,0
-3.59759760613088E-05,1.09718193925801E-05,1.0546875,0,0
-3.33265234075952E-05,1.07031009974889E-05,1.0546875,0,0
-3.094785643043E-05,1.11729505078983E-05,1.0546875,0,0
-2.66492243099492E-05,1.01705363704241E-05,1.0546875,0,0
-2.53449088631896E-05,1.08610465758829E-05,1.0546875,0,0
-2.21649788727518E-05,1.18876014312264E-05,1.0546875,0,0
-2.07973280339502E-05,1.51613430716679E-05,1.0546875,0,0
-1.84484306373633E-05,1.65228193509392E-05,1.0546875,0,0
-1.90165537787834E-05,1.64395332831191E-05,1.0546875,0,0
-1.86156230483903E-05,1.35476129798917E-05,1.0546875,0,0
-1.79769813257735E-05,1.07909236248815E-05,1.0546875,0,0
-1.65729379659751E-05,9.90155331237474E-06,1.0546875,0,0
-1.74028336914489E-05,1.12992638605647E-05,1.0546875,0,0
-1.87012719834456E-05,1.24855505418964E-05,1.0546875,0,0
-1.98783600353636E-05,1.2946207789355E-05,1.0546875,0,0
-1.60817598953145E-05,1.17223708002712E-05,1.0546875,0,0
-2.17662091017701E-05,1.82053936441662E-05,1.0546875,0,0
-1.50072983160499E-05,1.53697965288302E-05,1.0546875,0,0
-1.90067439689301E-05,1.64349767146632E-05,1.0546875,0,0
-1.71324081748025E-05,1.06698844319908E-05,1.0546875,0,0
-2.20929850911489E-05,1.0327677046007E-05,1.0546875,0,0
-2.20092206291156E-05,1.06210673038731E-05,1.0546875,0,0
-2.417639552732E-05,1.41979708132567E-05,1.0546875,0,0
-2.53476700891042E-05,1.57266658789013E-05,1.0546875,0,0
-2.69727388513274E-05,1.38193163365941E-05,1.0546875,0,0
-2.78490479104221E-05,1.07613850559574E-05,1.0546875,0,0
-2.66172810370335E-05,9.01495786820306E-06,1.0546875,0,0
-2.59113348874962E-05,9.33762203203514E-06,1.0546875,0,0
-2.37148778978735E-05,8.47296996653313E-06,1.0546875,0,0
-2.43930517171975E-05,8.59093506733188E-06,1.0546875,0,0
-2.42272617470007E-05,6.15802719039493E-06,1.0546875,0,0
-2.59274729614845E-05,3.04738841805374E-06,1.0546875,0,0
-2.51838882832089E-05,1.86004911029158E-07,1.0546875,0,0
-2.54309470619773E-05,1.55936982082494E-06,1.0546875,0,0
-2.49703789449995E-05,2.62191088040709E-06,1.0546875,0,0
-2.66797105723526E-05,2.47308094003529E-06,1.0546875,0,0
-2.65981416305294E-05,7.55429539367469E-07,1.0546875,0,0
-2.5987357730628E-05,-4.40191847417282E-08,1.0546875,0,0
-2.47534626396373E-05,-1.2694454198936E-06,1.0546875,0,0
-2.48680189542938E-05,-9.71232680058165E-07,1.0546875,0,0
-2.47607804340078E-05,1.85196688562428E-06,1.0546875,0,0
-2.54594688158249E-05,5.39871962246252E-06,1.0546875,0,0
-2.13702915061731E-05,4.7789922064112E-06,1.0546875,0,0
-2.92025652015582E-05,6.23467985860771E-06,1.0546875,0,0
-2.05486066988669E-05,6.43417251922074E-06,1.0546875,0,0
-2.53064081334742E-05,1.10211849460029E-05,1.0546875,0,0
-1.91088420251617E-05,1.09960546978982E-05,1.0546875,0,0
-2.02448554773582E-05,1.32424956973409E-05,1.0546875,0,0
-1.69047871168004E-05,1.41999335028231E-05,1.0546875,0,0
-1.75264030986E-05,1.46543643495534E-05,1.0546875,0,0
-1.50196174217854E-05,1.51897183968686E-05,1.0546875,0,0
-1.35850123115233E-05,1.6149046132341E-05,1.0546875,0,0
-1.45732919918373E-05,1.62791129696416E-05,1.0546875,0,0
-1.6682564819348E-05,1.49912793858675E-05,1.0546875,0,0
-2.07881621463457E-05,1.2517759387265E-05,1.0546875,0,0
-2.16587195609463E-05,7.49422542867251E-06,1.0546875,0,0
-2.35620500461664E-05,4.47216461907374E-06,1.0546875,0,0
-2.29748784477124E-05,4.47794218416675E-06,1.0546875,0,0
-2.48864762397716E-05,6.28534144198056E-06,1.0546875,0,0
-2.37202293646988E-05,6.04446722718421E-06,1.0546875,0,0
-2.45397459366359E-05,5.64521451451583E-06,1.0546875,0,0
-2.38877983065322E-05,6.68379061607993E-06,1.0546875,0,0
-2.50532320933416E-05,9.80460208666045E-06,1.0546875,0,0
-2.40089048020309E-05,1.29716336232377E-05,1.0546875,0,0
-2.39477776631247E-05,1.48874223668827E-05,1.0546875,0,0
-2.37573931372026E-05,1.4327410099213E-05,1.0546875,0,0
-2.3692662580288E-05,1.32333188958E-05,1.0546875,0,0
-2.20853180508129E-05,1.32085824589012E-05,1.0546875,0,0
-2.11179321922828E-05,1.4178790479491E-05,1.0546875,0,0
-1.64927096193423E-05,1.06054239950026E-05,1.0546875,0,0
-2.36607284023194E-05,1.35315794977942E-05,1.0546875,0,0
-1.91298640856985E-05,8.81782671058318E-06,1.0546875,0,0
-2.44262755586533E-05,1.25798824228696E-05,1.0546875,0,0
-2.24244104174431E-05,1.26711793200229E-05,1.0546875,0,0
-2.6717241780716E-05,1.75985423993552E-05,1.0546875,0,0
-2.62119938270189E-05,1.67756115843076E-05,1.0546875,0,0
-2.79977575701196E-05,1.71288756973809E-05,1.0546875,0,0
-2.84242087218445E-05,1.82722851604922E-05,1.0546875,0,0
-2.92022796202218E-05,1.85990757017862E-05,1.0546875,0,0
-2.83576209767489E-05,1.66256686497945E-05,1.0546875,0,0
-2.58523123193299E-05,1.43351917358814E-05,1.0546875,0,0
-2.59781954810023E-05,1.38597288241726E-05,1.0546875,0,0
-2.61087425315054E-05,1.28548745124135E-05,1.0546875,0,0
-2.84352863673121E-05,1.35375621539424E-05,1.0546875,0,0
-2.81640350294765E-05,1.4244007616071E-05,1.0546875,0,0
-2.86081503872992E-05,1.59978280862561E-05,1.0546875,0,0
-2.67350897047436E-05,1.53016353579005E-05,1.0546875,0,0
-2.70926229859469E-05,1.53744185809046E-05,1.0546875,0,0
-2.70042783085955E-05,1.41290365718305E-05,1.0546875,0,0
-2.81068259937456E-05,1.46042002597824E-05,1.0546875,0,0
-2.69809734163573E-05,1.50685345943202E-05,1.0546875,0,0
-2.70313466899097E-05,1.52365419125999E-05,1.0546875,0,0
-2.78713996522129E-05,1.3730531463807E-05,1.0546875,0,0
-2.88935625576414E-05,1.21741386465146E-05,1.0546875,0,0
-2.83893459709361E-05,1.21296261568205E-05,1.0546875,0,0
-2.78633415291552E-05,1.3669166037289E-05,1.0546875,0,0
-2.21867394429864E-05,1.02130316008697E-05,1.0546875,0,0
-2.94429810310248E-05,1.24076987049193E-05,1.0546875,0,0
-1.94654039660236E-05,5.85829229748924E-06,1.0546875,0,0
-2.59944008575985E-05,6.34151365375146E-06,1.0546875,0,0
-2.28871085710125E-05,2.49676236308005E-06,1.0546875,0,0
-2.6610012355377E-05,4.96340226163738E-06,1.0546875,0,0
-2.42368969338713E-05,6.0730085351679E-06,1.0546875,0,0
-2.58097879850538E-05,8.12191319710109E-06,1.0546875,0,0
-2.52547761192545E-05,8.44727583171334E-06,1.0546875,0,0
-2.55350878433092E-05,8.60709769767709E-06,1.0546875,0,0
-2.59621538134525E-05,8.33850663184421E-06,1.0546875,0,0
-2.48438900598558E-05,8.48525814944878E-06,1.0546875,0,0
-2.45326318690786E-05,1.03045395007939E-05,1.0546875,0,0
-2.15513955481583E-05,1.01294335763669E-05,1.0546875,0,0
-2.13009516301099E-05,9.8966575023951E-06,1.0546875,0,0
-1.93321156984894E-05,7.31889576854883E-06,1.0546875,0,0
-2.02642568183364E-05,5.90158697377774E-06,1.0546875,0,0
-1.9003917259397E-05,4.99546695209574E-06,1.0546875,0,0
-1.99178484763252E-05,6.78467449688469E-06,1.0546875,0,0
-1.84457639988977E-05,7.58406713430304E-06,1.0546875,0,0
-1.83445317816222E-05,8.71497286425438E-06,1.0546875,0,0
-1.67234775290126E-05,9.72236466623144E-06,1.0546875,0,0
-1.73727403307566E-05,1.12744855869096E-05,1.0546875,0,0
-1.75876266439445E-05,1.09902266558493E-05,1.0546875,0,0
-1.89595975825796E-05,1.04233131423825E-05,1.0546875,0,0
-2.09964073292213E-05,9.78512616711669E-06,1.0546875,0,0
-2.2861828256282E-05,9.52093432715628E-06,1.0546875,0,0
-1.94924396055285E-05,9.1398424046929E-06,1.0546875,0,0
-2.81748179986607E-05,1.37351407829556E-05,1.0546875,0,0
-2.1625073713949E-05,1.07940686575603E-05,1.0546875,0,0
-2.57223891821923E-05,1.18294792628149E-05,1.0546875,0,0
-2.2115509636933E-05,8.72555483510951E-06,1.0546875,0,0
-2.7487945772009E-05,9.4843653641874E-06,1.0546875,0,0
-2.85200130747398E-05,8.80478000908624E-06,1.0546875,0,0
-2.97860096907243E-05,9.29116686165798E-06,1.0546875,0,0
-2.75693546427647E-05,9.8965556389885E-06,1.0546875,0,0
-2.61155619227793E-05,9.57113388722064E-06,1.0546875,0,0
-2.52798181463731E-05,7.03829527992639E-06,1.0546875,0,0
-2.33492864936125E-05,4.43982389697339E-06,1.0546875,0,0
-2.25452349695843E-05,5.3755961744173E-06,1.0546875,0,0
-2.15003892662935E-05,7.73675128584728E-06,1.0546875,0,0
-2.2630245439359E-05,1.02955418697093E-05,1.0546875,0,0
-1.96307410078589E-05,1.01350551631185E-05,1.0546875,0,0
-1.83256652235286E-05,1.09500315375044E-05,1.0546875,0,0
-1.76897774508689E-05,1.15295788418734E-05,1.0546875,0,0
-2.1630014089169E-05,1.23268328025006E-05,1.0546875,0,0
-2.41605321207317E-05,1.28301453514723E-05,1.0546875,0,0
-2.6648200218915E-05,1.54799017764162E-05,1.0546875,0,0
-2.63840302068274E-05,1.87907735380577E-05,1.0546875,0,0
-2.7620832042885E-05,2.18704280996462E-05,1.0546875,0,0
-2.99676285067108E-05,2.22569487959845E-05,1.0546875,0,0
-3.22463529300876E-05,2.17952456296189E-05,1.0546875,0,0
-3.29399990732782E-05,1.93875403056154E-05,1.0546875,0,0
-3.40159567713272E-05,1.48940625877003E-05,1.0546875,0,0
-2.73587247647811E-05,8.98583039088408E-06,1.0546875,0,0
-3.71930582332425E-05,1.17211311589926E-05,1.0546875,0,0
-2.55137583735632E-05,7.19272975402419E-06,1.0546875,0,0
-3.14116223307792E-05,8.19741399027407E-06,1.0546875,0,0
-2.6179102860624E-05,3.3233545764233E-06,1.0546875,0,0
-3.24903339787852E-05,6.26463759090257E-07,1.0546875,0,0
-3.00145020446507E-05,-3.22803316521458E-06,1.0546875,0,0
-2.95957543130498E-05,-1.92171955859521E-06,1.0546875,0,0
-2.73350724455668E-05,9.33117064505495E-07,1.0546875,0,0
-2.82262226392049E-05,3.18726210934983E-06,1.0546875,0,0
-2.95616046059877E-05,3.90438526665093E-06,1.0546875,0,0
-2.87804195977515E-05,4.55680719824159E-06,1.0546875,0,0
-2.92284166789614E-05,7.26493180991383E-06,1.0546875,0,0
-2.70156451733783E-05,8.20000423118472E-06,1.0546875,0,0
-2.7679830964189E-05,9.15493455977412E-06,1.0546875,0,0
-2.49423519562697E-05,1.01512214314425E-05,1.0546875,0,0
-2.51818619290134E-05,1.35802611112013E-05,1.0546875,0,0
-2.26299689529696E-05,1.58040929818526E-05,1.0546875,0,0
-2.34778090089094E-05,1.68468977790326E-05,1.0546875,0,0
-2.20130878005875E-05,1.53986493387492E-05,1.0546875,0,0
-2.24985997192562E-05,1.48564749906654E-05,1.0546875,0,0
-2.22958533413475E-05,1.44556288432796E-05,1.0546875,0,0
-2.54369242611574E-05,1.34072106448002E-05,1.0546875,0,0
-2.69360934908036E-05,1.20635086204857E-05,1.0546875,0,0
-2.77156905212905E-05,1.27734847410466E-05,1.0546875,0,0
-2.64525024249451E-05,1.32716932057519E-05,1.0546875,0,0
-2.56133953371318E-05,1.38223149406258E-05,1.0546875,0,0
-2.19555568037322E-05,1.22568499136833E-05,1.0546875,0,0
-3.17762423946988E-05,1.7806802134146E-05,1.0546875,0,0
-2.35987390624359E-05,1.37244642246515E-05,1.0546875,0,0
-2.71137141680811E-05,1.66572717716917E-05,1.0546875,0,0
-2.2240985344979E-05,1.42611434057471E-05,1.0546875,0,0
-2.5958126570913E-05,1.53228484123247E-05,1.0546875,0,0
-2.40474109887145E-05,1.3075562492304E-05,1.0546875,0,0
-2.39306209550705E-05,1.42204180519911E-05,1.0546875,0,0
-2.25286003114888E-05,1.56753158080392E-05,1.0546875,0,0
-2.360708276683E-05,1.65263390954351E-05,1.0546875,0,0
-2.60245760728139E-05,1.55248289956944E-05,1.0546875,0,0
-2.65569942712318E-05,1.41897098728805E-05,1.0546875,0,0
-2.72007819148712E-05,1.57158301590243E-05,1.0546875,0,0
-2.51732217293466E-05,1.60111994773615E-05,1.0546875,0,0
-2.47058942477452E-05,1.55016678036191E-05,1.0546875,0,0
-2.21494792640442E-05,1.36974167617154E-05,1.0546875,0,0
-2.23251608986175E-05,1.49949091792223E-05,1.0546875,0,0
-2.03154158953112E-05,1.5889250789769E-05,1.0546875,0,0
-2.11395290534711E-05,1.70749717653962E-05,1.0546875,0,0
-2.13472376344725E-05,1.60566250997363E-05,1.0546875,0,0
-2.30926525546238E-05,1.57034537551226E-05,1.0546875,0,0
-2.33879254665226E-05,1.46320762723917E-05,1.0546875,0,0
-2.44959664996713E-05,1.41623577292194E-05,1.0546875,0,0
-2.34925792028662E-05,1.40069259941811E-05,1.0546875,0,0
-2.19105004362063E-05,1.47234059113543E-05,1.0546875,0,0
-1.92926927411463E-05,1.39161629704176E-05,1.0546875,0,0
-1.67271973623428E-05,1.1831226402137E-05,1.0546875,0,0
-1.22922965601902E-05,9.0053863459616E-06,1.0546875,0,0
-1.77725705725607E-05,1.39359326567501E-05,1.0546875,0,0
-1.37568495119922E-05,1.09649672594969E-05,1.0546875,0,0
-1.62627911777236E-05,8.80476363818161E-06,1.0546875,0,0
-1.47766713780584E-05,2.11900533031439E-06,1.0546875,0,0
-1.98393317987211E-05,2.2404865376302E-06,1.0546875,0,0
-2.17650249396684E-05,2.88524643110577E-06,1.0546875,0,0
-2.28716944548069E-05,4.82571476823068E-06,1.0546875,0,0
-2.06384138436988E-05,4.7016324060678E-06,1.0546875,0,0
-1.85005119419657E-05,4.64047025161562E-06,1.0546875,0,0
-1.82016810867935E-05,5.96628433413571E-06,1.0546875,0,0
-1.86469842446968E-05,7.93999242887367E-06,1.0546875,0,0
-2.07430730370106E-05,9.64211540122051E-06,1.0546875,0,0
-2.20460206037387E-05,7.71599934523692E-06,1.0546875,0,0
-2.39039745792979E-05,5.89807086726069E-06,1.0546875,0,0
-2.36130981647875E-05,4.89283638671623E-06,1.0546875,0,0
-2.43796876020497E-05,7.16483464202611E-06,1.0546875,0,0
-2.36164305533748E-05,9.60773650149349E-06,1.0546875,0,0
-2.23421302507631E-05,1.18143561849138E-05,1.0546875,0,0
-1.95806260308018E-05,1.18504804049735E-05,1.0546875,0,0
-1.93230844161008E-05,1.2274907930987E-05,1.0546875,0,0
-1.94309195649112E-05,1.17573354145861E-05,1.0546875,0,0
-1.99444948520977E-05,1.1344221093168E-05,1.0546875,0,0
-1.96454075194197E-05,1.13193909783149E-05,1.0546875,0,0
-2.04013504117029E-05,1.23313666335889E-05,1.0546875,0,0
-2.034951467067E-05,1.29113141156267E-05,1.0546875,0,0
-1.9356251868885E-05,1.39556523208739E-05,1.0546875,0,0
-1.62041724252049E-05,1.19674896268407E-05,1.0546875,0,0
-2.56565126619535E-05,1.53329656313872E-05,1.0546875,0,0
-2.31413177971262E-05,9.72591351455776E-06,1.0546875,0,0
-2.66322458628565E-05,1.28447991301073E-05,1.0546875,0,0
-2.15132859011646E-05,9.03595082490938E-06,1.0546875,0,0
-2.20568199438276E-05,1.03021438917494E-05,1.0546875,0,0
-1.9851668184856E-05,9.76139745034743E-06,1.0546875,0,0
-2.08673664019443E-05,1.18958587336238E-05,1.0546875,0,0
-2.01262646442046E-05,1.39662824949482E-05,1.0546875,0,0
-2.0373079678393E-05,1.5953663023538E-05,1.0546875,0,0
-2.10176403925288E-05,1.66684094438097E-05,1.0546875,0,0
-2.03667950700037E-05,1.63995573529974E-05,1.0546875,0,0
-2.06619752134429E-05,1.61386233230587E-05,1.0546875,0,0
-2.02659666683758E-05,1.41215723488131E-05,1.0546875,0,0
-2.20856218220433E-05,1.40516267492785E-05,1.0546875,0,0
-2.21050140680745E-05,1.28805986605585E-05,1.0546875,0,0
-2.28613225772278E-05,1.27430357679259E-05,1.0546875,0,0
-2.17264514503768E-05,1.15506891233963E-05,1.0546875,0,0
-2.29536344704684E-05,1.21379734991933E-05,1.0546875,0,0
-2.35405332205119E-05,1.19207752504735E-05,1.0546875,0,0
-2.56927760347025E-05,1.27507719298592E-05,1.0546875,0,0
-2.65583057625918E-05,1.24292446344043E-05,1.0546875,0,0
-2.70632754109101E-05,1.35281998154824E-05,1.0546875,0,0
-2.66596180154011E-05,1.48129347508075E-05,1.0546875,0,0
-2.75779821095057E-05,1.56669284478994E-05,1.0546875,0,0
-2.69428273895755E-05,1.55272373376647E-05,1.0546875,0,0
-2.52638637903146E-05,1.47554655995918E-05,1.0546875,0,0
-1.97358513105428E-05,9.94579750113189E-06,1.0546875,0,0
-2.80654276139103E-05,1.37270053528482E-05,1.0546875,0,0
-2.18863406189485E-05,1.13363112177467E-05,1.0546875,0,0
-2.8472892154241E-05,1.50122305058176E-05,1.0546875,0,0
-2.53822563536232E-05,1.14962940642727E-05,1.0546875,0,0
-2.8276121156523E-05,1.08795675259898E-05,1.0546875,0,0
-2.60153155977605E-05,7.65865024732193E-06,1.0546875,0,0
-2.66048373305239E-05,7.03476644048351E-06,1.0546875,0,0
-2.49789864028571E-05,6.66569394525141E-06,1.0546875,0,0
-2.40320787270321E-05,7.39975075703114E-06,1.0546875,0,0
-2.29451998166041E-05,7.70555652707117E-06,1.0546875,0,0
-2.01218899746891E-05,6.81737901686574E-06,1.0546875,0,0
-1.91286362678511E-05,7.75936314312276E-06,1.0546875,0,0
-1.78331174538471E-05,8.35868468129775E-06,1.0546875,0,0
-1.94879357877653E-05,9.71632289292756E-06,1.0546875,0,0
-1.91013277799357E-05,8.95208358997479E-06,1.0546875,0,0
-2.05423348234035E-05,8.28009979159106E-06,1.0546875,0,0
-1.98052239284152E-05,6.66147298034048E-06,1.0546875,0,0
-2.13302355405176E-05,6.92740150043392E-06,1.0546875,0,0
-2.12552422453882E-05,6.88162754158839E-06,1.0546875,0,0
-2.1962330720271E-05,7.38592370908009E-06,1.0546875,0,0
-2.05350970645668E-05,6.54884752293583E-06,1.0546875,0,0
-2.055561162706E-05,7.33812430553371E-06,1.0546875,0,0
-2.07513039640617E-05,9.70305882219691E-06,1.0546875,0,0
-2.31222929869546E-05,1.13073465399793E-05,1.0546875,0,0
-2.65346370724728E-05,1.08694321170333E-05,1.0546875,0,0
-2.96023572445847E-05,1.03203619801207E-05,1.0546875,0,0
-2.49086933763465E-05,6.27200097369496E-06,1.0546875,0,0
-3.41034428856801E-05,8.23782829684205E-06,1.0546875,0,0
-2.55839204328367E-05,7.09933556208853E-06,1.0546875,0,0
-3.44341278832871E-05,9.94478432403412E-06,1.0546875,0,0
-3.04814693663502E-05,8.46598777570762E-06,1.0546875,0,0
-3.47041277564131E-05,1.06519601104083E-05,1.0546875,0,0
-3.20168801408727E-05,1.20362637971994E-05,1.0546875,0,0
-3.28209316649009E-05,1.35793279696372E-05,1.0546875,0,0
-3.20448743877932E-05,1.26022277981974E-05,1.0546875,0,0
-3.36190387315582E-05,1.25318874779623E-05,1.0546875,0,0
-3.51878952642437E-05,1.30008502310375E-05,1.0546875,0,0
-3.39312646246981E-05,1.31484521261882E-05,1.0546875,0,0
-3.31209048454184E-05,1.22043611554545E-05,1.0546875,0,0
-2.93172306555789E-05,9.32093371375231E-06,1.0546875,0,0
-2.90058014797978E-05,8.42465669848025E-06,1.0546875,0,0
-2.73907535301987E-05,9.17923443921609E-06,1.0546875,0,0
-2.9198665288277E-05,1.18222997116391E-05,1.0546875,0,0
-2.75577731372323E-05,1.16292812890606E-05,1.0546875,0,0
-2.74044814432273E-05,9.08978654479142E-06,1.0546875,0,0
-2.45014762185747E-05,4.86959197587566E-06,1.0546875,0,0
-2.44037291849963E-05,3.93786058339174E-06,1.0546875,0,0
-2.32849997701123E-05,5.26184840055066E-06,1.0546875,0,0
-2.2693053324474E-05,7.88633678894257E-06,1.0546875,0,0
-2.00338236027164E-05,1.01991190604167E-05,1.0546875,0,0
-1.8187160094385E-05,1.07752484836965E-05,1.0546875,0,0
-1.74614069692325E-05,8.07940432423493E-06,1.0546875,0,0
-1.88845442607999E-05,5.33530464963405E-06,1.0546875,0,0
-1.59636056196177E-05,5.3287117225409E-06,1.0546875,0,0
-2.31340436585015E-05,8.57789018482435E-06,1.0546875,0,0
-1.91901326616062E-05,7.5548318818619E-06,1.0546875,0,0
-2.42324549617479E-05,8.34751062939176E-06,1.0546875,0,0
-2.08968940569321E-05,6.26050859864336E-06,1.0546875,0,0
-2.27496238949243E-05,5.904823410674E-06,1.0546875,0,0
-2.12245122384047E-05,5.62386321689701E-06,1.0546875,0,0
-2.26736883632839E-05,7.17217790224822E-06,1.0546875,0,0
-2.21856844291324E-05,1.01084924608585E-05,1.0546875,0,0
-2.17985780182062E-05,1.20050754048862E-05,1.0546875,0,0
-2.13371858990286E-05,1.11561821540818E-05,1.0546875,0,0
-1.90202608791878E-05,9.14846896193922E-06,1.0546875,0,0
-1.70299263118068E-05,7.96496078692144E-06,1.0546875,0,0
-1.43431034302921E-05,7.24322262612986E-06,1.0546875,0,0
-1.55616289703175E-05,8.32669047667878E-06,1.0546875,0,0
-1.65642759384355E-05,9.80465665634256E-06,1.0546875,0,0
-1.94794101844309E-05,1.2206195606268E-05,1.0546875,0,0
-2.10678463190561E-05,1.40847587317694E-05,1.0546875,0,0
-2.30568239203421E-05,1.53883229359053E-05,1.0546875,0,0
-2.1406049199868E-05,1.54810823005391E-05,1.0546875,0,0
-2.08293404284632E-05,1.45303783938289E-05,1.0546875,0,0
-2.07081648113672E-05,1.12514680949971E-05,1.0546875,0,0
-2.29744237003615E-05,8.38693085825071E-06,1.0546875,0,0
-2.5669100068626E-05,6.44778538116952E-06,1.0546875,0,0
-2.85372825601371E-05,5.62323612030013E-06,1.0546875,0,0
-2.85585629171692E-05,5.27587326359935E-06,1.0546875,0,0
-2.81771681329701E-05,4.54153177997796E-06,1.0546875,0,0
-2.49066724791192E-05,1.49120705827954E-06,1.0546875,0,0
-3.87092004530132E-05,2.96371410968277E-07,1.0546875,0,0
-3.33990828949027E-05,-6.80681694120722E-07,1.0546875,0,0
-3.9557820855407E-05,1.34997173972806E-06,1.0546875,0,0
-3.31857991113793E-05,9.23728975976701E-07,1.0546875,0,0
-3.41573322657496E-05,3.47001650879974E-06,1.0546875,0,0
-2.93422326649306E-05,7.92311948316637E-06,1.0546875,0,0
-2.81463908322621E-05,1.25190617836779E-05,1.0546875,0,0
-2.51809324254282E-05,1.55556444951799E-05,1.0546875,0,0
-2.40131084865425E-05,1.65680703503313E-05,1.0546875,0,0
-2.48164105869364E-05,1.61766201927094E-05,1.0546875,0,0
-2.46908639383037E-05,1.56766636791872E-05,1.0546875,0,0
-2.50663379119942E-05,1.43410507007502E-05,1.0546875,0,0
-2.28541739488719E-05,1.1171448022651E-05,1.0546875,0,0
-2.34223534789635E-05,8.93850028660381E-06,1.0546875,0,0
-2.29603192565264E-05,9.5369996415684E-06,1.0546875,0,0
-2.52878562605474E-05,1.19184787763515E-05,1.0546875,0,0
-2.32415059144842E-05,1.36019643832697E-05,1.0546875,0,0
-2.10699199669762E-05,1.48244316733326E-05,1.0546875,0,0
-1.76035355252679E-05,1.39415069497772E-05,1.0546875,0,0
-1.95203720068093E-05,1.05760464066407E-05,1.0546875,0,0
-2.21993559534894E-05,7.58028090785956E-06,1.0546875,0,0
-2.49424447247293E-05,7.27557790014544E-06,1.0546875,0,0
-2.42234327743063E-05,5.82233178647584E-06,1.0546875,0,0
-2.39721739490051E-05,3.5947916785517E-06,1.0546875,0,0
-2.43964605033398E-05,2.82972632703604E-06,1.0546875,0,0
-2.46949421125464E-05,2.5704773634061E-06,1.0546875,0,0
-1.9760598661378E-05,2.04574826057069E-06,1.0546875,0,0
-2.84352572634816E-05,3.42510043083166E-06,1.0546875,0,0
-2.23564420593902E-05,5.5104114835558E-06,1.0546875,0,0
-2.7617455998552E-05,7.85018983151531E-06,1.0546875,0,0
-2.48164833465125E-05,7.10872154741082E-06,1.0546875,0,0
-2.89446325041354E-05,9.05327578948345E-06,1.0546875,0,0
-2.61758832493797E-05,1.01410041679628E-05,1.0546875,0,0
-2.59837870544288E-05,9.69980919762747E-06,1.0546875,0,0
-2.44296552409651E-05,8.89623152033892E-06,1.0546875,0,0
-2.46266426984221E-05,7.98342716734624E-06,1.0546875,0,0
-2.54586993833072E-05,6.7728828980762E-06,1.0546875,0,0
-2.55197410297114E-05,6.80968923916225E-06,1.0546875,0,0
-2.76966184173943E-05,8.39207496028394E-06,1.0546875,0,0
-2.77740309684305E-05,1.02821586551727E-05,1.0546875,0,0
-2.93866141873878E-05,1.30225907923887E-05,1.0546875,0,0
-2.82362470898079E-05,1.39957983265049E-05,1.0546875,0,0
-2.88157225440955E-05,1.26410623124684E-05,1.0546875,0,0
-2.74282210739329E-05,1.05830467873602E-05,1.0546875,0,0
-2.81667853414547E-05,1.0490459317225E-05,1.0546875,0,0
-2.72856850642711E-05,1.18224170364556E-05,1.0546875,0,0
-2.77544950222364E-05,1.27458470160491E-05,1.0546875,0,0
-2.58465061051538E-05,1.16304545372259E-05,1.0546875,0,0
-2.44342918449547E-05,1.0925366950687E-05,1.0546875,0,0
-2.29798715736251E-05,1.16194250949775E-05,1.0546875,0,0
-2.45572846324649E-05,1.32235854835017E-05,1.0546875,0,0
-2.73359419225017E-05,1.53627788677113E-05,1.0546875,0,0
-2.82361233985284E-05,1.63953282026341E-05,1.0546875,0,0
-2.19216599361971E-05,1.29188629216515E-05,1.0546875,0,0
-3.02339867630508E-05,1.82673211384099E-05,1.0546875,0,0
-2.24106515815947E-05,1.43124543683371E-05,1.0546875,0,0
-2.77785748039605E-05,1.79369490069803E-05,1.0546875,0,0
-2.2395277483156E-05,1.5057111340866E-05,1.0546875,0,0
-2.54504011536483E-05,1.69331924553262E-05,1.0546875,0,0
-2.34791696129832E-05,1.43811830639606E-05,1.0546875,0,0
-2.57901647273684E-05,1.396915922669E-05,1.0546875,0,0
-2.35559236898553E-05,1.41841464937897E-05,1.0546875,0,0
-2.08536293939687E-05,1.59906012413558E-05,1.0546875,0,0
-2.05694741453044E-05,1.65836390806362E-05,1.0546875,0,0
-2.19021840166533E-05,1.53077144204872E-05,1.0546875,0,0
-2.47310836130055E-05,1.43804327308317E-05,1.0546875,0,0
-2.28920252993703E-05,1.33439616547548E-05,1.0546875,0,0
-2.11476253753062E-05,1.56729056470795E-05,1.0546875,0,0
-1.85098651854787E-05,1.70118164533051E-05,1.0546875,0,0
-2.17455744859762E-05,1.85437911568442E-05,1.0546875,0,0
-2.37697713600937E-05,1.7130580090452E-05,1.0546875,0,0
-2.71848348347703E-05,1.60903618962038E-05,1.0546875,0,0
-2.7177580705029E-05,1.3588562978839E-05,1.0546875,0,0
-2.81347674899735E-05,1.28586716527934E-05,1.0546875,0,0
-2.72453307843534E-05,1.20147997222375E-05,1.0546875,0,0
-2.72467877948657E-05,1.33733528855373E-05,1.0546875,0,0
-2.51886885962449E-05,1.41459477163153E-05,1.0546875,0,0
-2.43208214669721E-05,1.40708034450654E-05,1.0546875,0,0
-2.42173973674653E-05,1.43573079185444E-05,1.0546875,0,0
-2.39378641708754E-05,1.52158181663253E-05,1.0546875,0,0
-1.8950593585032E-05,1.2397050340951E-05,1.0546875,0,0
-2.67405175691238E-05,1.58911534526851E-05,1.0546875,0,0
-2.0209979993524E-05,9.68512176768854E-06,1.0546875,0,0
-2.39390647038817E-05,1.24967918964103E-05,1.0546875,0,0
-1.82450403372059E-05,1.01302548500826E-05,1.0546875,0,0
-1.88938611245248E-05,1.23721501950058E-05,1.0546875,0,0
-1.52907305164263E-05,9.55200448515825E-06,1.0546875,0,0
-1.60304862220073E-05,9.0565308710211E-06,1.0546875,0,0
-1.60233321366832E-05,9.97315601125592E-06,1.0546875,0,0
-1.76253834069939E-05,1.06223405964556E-05,1.0546875,0,0
-1.77537185663823E-05,9.57825341174612E-06,1.0546875,0,0
-1.53282780956943E-05,8.6249028754537E-06,1.0546875,0,0
-1.44553096106392E-05,9.85826500254916E-06,1.0546875,0,0
-1.28841620608E-05,8.91226773092058E-06,1.0546875,0,0
-1.47930295497645E-05,7.52678897697479E-06,1.0546875,0,0
-1.4813405869063E-05,4.59882812720025E-06,1.0546875,0,0
-1.5709585568402E-05,5.63723688173923E-06,1.0546875,0,0
-1.40292941068765E-05,7.37828167984844E-06,1.0546875,0,0
-1.58005750563461E-05,9.68116546573583E-06,1.0546875,0,0
-1.64884186233394E-05,9.05322121980134E-06,1.0546875,0,0
-1.78545560629573E-05,7.28422946849605E-06,1.0546875,0,0
-1.78892714757239E-05,4.20658352595638E-06,1.0546875,0,0
-2.03886247618357E-05,4.44973238700186E-06,1.0546875,0,0
-2.27324362640502E-05,5.04326908412622E-06,1.0546875,0,0
-2.48003398155561E-05,5.41571625944925E-06,1.0546875,0,0
-2.61818913713796E-05,4.78647052659653E-06,1.0546875,0,0
-2.67443883785745E-05,3.11392318508297E-06,1.0546875,0,0
-2.04281041078502E-05,3.44003751706623E-06,1.0546875,0,0
-2.8628022846533E-05,5.32572039446677E-06,1.0546875,0,0
-2.20604961214121E-05,3.60375793206913E-06,1.0546875,0,0
-2.83258323179325E-05,5.4094030019769E-06,1.0546875,0,0
-2.51581313932547E-05,8.12463804322761E-06,1.0546875,0,0
-2.90940824925201E-05,9.49979130382417E-06,1.0546875,0,0
-2.60197175521171E-05,8.98879170563305E-06,1.0546875,0,0
-2.60363103734562E-05,9.18863679544302E-06,1.0546875,0,0
-2.49021213676315E-05,9.86695795290871E-06,1.0546875,0,0
-2.45721766987117E-05,9.18104342417791E-06,1.0546875,0,0
-2.35398947552312E-05,6.95795597493998E-06,1.0546875,0,0
-2.10862181120319E-05,4.66941673948895E-06,1.0546875,0,0
-2.08358196687186E-05,5.44844579053461E-06,1.0546875,0,0
-2.0201370716677E-05,7.88254419603618E-06,1.0546875,0,0
-2.33625287364703E-05,1.05217495729448E-05,1.0546875,0,0
-2.37791009567445E-05,1.10548144220957E-05,1.0546875,0,0
-2.45903465838637E-05,9.86771829047939E-06,1.0546875,0,0
-2.20213896682253E-05,7.62828767619794E-06,1.0546875,0,0
-2.17107972275699E-05,6.21200024397695E-06,1.0546875,0,0
-2.0592762666638E-05,6.66013147565536E-06,1.0546875,0,0
-2.22189246414928E-05,8.03017519501736E-06,1.0546875,0,0
-2.27564487431664E-05,9.13559324544622E-06,1.0546875,0,0
-2.37680142163299E-05,1.06120905911666E-05,1.0546875,0,0
-2.27989476115908E-05,1.26540462588309E-05,1.0546875,0,0
-2.19144276343286E-05,1.32405530166579E-05,1.0546875,0,0
-2.09894496947527E-05,1.23364707178553E-05,1.0546875,0,0
-2.06298700504703E-05,9.94777019514004E-06,1.0546875,0,0
-1.77250003616791E-05,5.57549810764613E-06,1.0546875,0,0
-2.71035332843894E-05,8.73250610311516E-06,1.0546875,0,0
-2.26948268391425E-05,8.95226730790455E-06,1.0546875,0,0
-2.53307498496724E-05,1.2051409612468E-05,1.0546875,0,0
-2.13047551369527E-05,9.57814518187661E-06,1.0546875,0,0
-2.55222385021625E-05,8.30925000627758E-06,1.0546875,0,0
-2.5665809516795E-05,6.47770184514229E-06,1.0546875,0,0
-2.78049628832377E-05,5.43357145943446E-06,1.0546875,0,0
-2.70632008323446E-05,4.22742050432134E-06,1.0546875,0,0
-2.6053636247525E-05,3.26688200402714E-06,1.0546875,0,0
-2.5068284230656E-05,2.20985543819552E-06,1.0546875,0,0
-2.37958429352148E-05,2.12720169656677E-06,1.0546875,0,0
-2.32899201364489E-05,3.54705161953461E-06,1.0546875,0,0
-2.14053616218735E-05,3.71266264664882E-06,1.0546875,0,0
-2.2455331418314E-05,4.40101348431199E-06,1.0546875,0,0
-2.13844614336267E-05,5.3109888540348E-06,1.0546875,0,0
-2.07468528969912E-05,7.07929848431377E-06,1.0546875,0,0
-1.87058503797743E-05,8.34756428957917E-06,1.0546875,0,0
-2.02727678697556E-05,1.05902836367022E-05,1.0546875,0,0
-2.07154134841403E-05,1.27132252600859E-05,1.0546875,0,0
-2.13020466617309E-05,1.47018690768164E-05,1.0546875,0,0
-1.97629487956874E-05,1.5904035535641E-05,1.0546875,0,0
-1.95215961866779E-05,1.70859893842135E-05,1.0546875,0,0
-2.00245394808007E-05,1.71206538652768E-05,1.0546875,0,0
-2.28130156756379E-05,1.56969344971003E-05,1.0546875,0,0
-2.46530762524344E-05,1.45438598337932E-05,1.0546875,0,0
-2.5694540454424E-05,1.55276648001745E-05,1.0546875,0,0
-2.17852157220477E-05,1.29097015815205E-05,1.0546875,0,0
-3.20127801387571E-05,1.78830432560062E-05,1.0546875,0,0
-2.62657849816605E-05,1.4741323866474E-05,1.0546875,0,0
-3.36038538080174E-05,1.96148739632918E-05,1.0546875,0,0
-2.99657040159218E-05,1.5483497918467E-05,1.0546875,0,0
-3.27170055243187E-05,1.80575334525201E-05,1.0546875,0,0
-3.03606120723998E-05,1.98712441488169E-05,1.0546875,0,0
-3.18828388117254E-05,2.37235799431801E-05,1.0546875,0,0
-3.16299592668656E-05,2.29341640078928E-05,1.0546875,0,0
-3.1049221433932E-05,1.88692065421492E-05,1.0546875,0,0
-2.99432504107244E-05,1.53278851939831E-05,1.0546875,0,0
-2.72076958935941E-05,1.33466764964396E-05,1.0546875,0,0
-2.57979045272805E-05,1.31163451442262E-05,1.0546875,0,0
-2.22263297473546E-05,1.23276804515626E-05,1.0546875,0,0
-2.21758309635334E-05,1.45363837873447E-05,1.0546875,0,0
-2.2476679077954E-05,1.53162400238216E-05,1.0546875,0,0
-2.53054986387724E-05,1.56600053742295E-05,1.0546875,0,0
-2.30810419452609E-05,1.31707556647598E-05,1.0546875,0,0
-2.11435053643072E-05,1.25939059216762E-05,1.0546875,0,0
-1.85033459274564E-05,1.22801529869321E-05,1.0546875,0,0
-1.86889355973108E-05,1.42251983561437E-05,1.0546875,0,0
-1.78955542651238E-05,1.56050955411047E-05,1.0546875,0,0
-1.93718806258403E-05,1.5782878108439E-05,1.0546875,0,0
-2.21357331611216E-05,1.30645148601616E-05,1.0546875,0,0
-2.56491057371022E-05,1.16548317237175E-05,1.0546875,0,0
-2.69485790340696E-05,1.1753532817238E-05,1.0546875,0,0
-2.64442642219365E-05,1.2462285667425E-05,1.0546875,0,0
-1.96106775547378E-05,1.14520516945049E-05,1.0546875,0,0
-2.6283880288247E-05,1.61064235726371E-05,1.0546875,0,0
-1.89511683856836E-05,1.19635524242767E-05,1.0546875,0,0
-2.45144583459478E-05,1.46320107887732E-05,1.0546875,0,0
-2.05821343115531E-05,1.32058312374284E-05,1.0546875,0,0
-2.51713590841973E-05,1.72123873198871E-05,1.0546875,0,0
-2.56823041127063E-05,1.7393129382981E-05,1.0546875,0,0
-2.92775985144544E-05,1.7546637536725E-05,1.0546875,0,0
-2.90737407340202E-05,1.6464937289129E-05,1.0546875,0,0
-2.95325753540965E-05,1.6762573068263E-05,1.0546875,0,0
-3.07232294289861E-05,1.80901461135363E-05,1.0546875,0,0
-3.13546479446813E-05,1.89609436347382E-05,1.0546875,0,0
-3.16420082526747E-05,2.10306898225099E-05,1.0546875,0,0
-2.76997216133168E-05,2.21837235585554E-05,1.0546875,0,0
-2.60527340287808E-05,2.40353128901916E-05,1.0546875,0,0
-2.38534012169112E-05,2.27405234909384E-05,1.0546875,0,0
-2.44749116973253E-05,2.09664685826283E-05,1.0546875,0,0
-2.23124952754006E-05,1.79313210537657E-05,1.0546875,0,0
-2.29454453801736E-05,1.77089332282776E-05,1.0546875,0,0
-2.27663149416912E-05,1.7744039723766E-05,1.0546875,0,0
-2.50044449785491E-05,1.83963911695173E-05,1.0546875,0,0
-2.54503029282205E-05,1.80609749804717E-05,1.0546875,0,0
-2.63533220277168E-05,1.72587097040378E-05,1.0546875,0,0
-2.58010713878321E-05,1.51578224176774E-05,1.0546875,0,0
-2.53378766501555E-05,1.41457558129332E-05,1.0546875,0,0
-2.49314925895305E-05,1.49179331856431E-05,1.0546875,0,0
-2.50268840318313E-05,1.79045691766078E-05,1.0546875,0,0
-2.11219048651401E-05,1.42846001836006E-05,1.0546875,0,0
-3.07632690237369E-05,1.62537107826211E-05,1.0546875,0,0
-2.45336905209115E-05,4.74943044537213E-06,1.0546875,0,0
-3.00868450722191E-05,4.07458583140397E-06,1.0546875,0,0
-2.61480963672511E-05,-1.28260853671236E-06,1.0546875,0,0
-3.02122371067526E-05,1.26603583794349E-06,1.0546875,0,0
-2.88598585029831E-05,1.1876167036462E-06,1.0546875,0,0
-2.96086964226561E-05,3.39479629474226E-06,1.0546875,0,0
-2.86027516267495E-05,3.10803170577856E-06,1.0546875,0,0
-2.89904619421577E-05,4.3507984628377E-06,1.0546875,0,0
-2.95710469799815E-05,5.94928769714898E-06,1.0546875,0,0
-2.88709888991434E-05,6.7182727434556E-06,1.0546875,0,0
-3.02570770145394E-05,9.04353692021687E-06,1.0546875,0,0
-2.99422354146373E-05,9.20485126698622E-06,1.0546875,0,0
-3.15833931381349E-05,9.0657667897176E-06,1.0546875,0,0
-3.05856920022052E-05,5.29011686012382E-06,1.0546875,0,0
-3.14411190629471E-05,3.85305565941962E-06,1.0546875,0,0
-2.9298700610525E-05,2.84499083136325E-06,1.0546875,0,0
-2.79920459433924E-05,4.46675812781905E-06,1.0546875,0,0
-2.48153355641989E-05,4.54105202152277E-06,1.0546875,0,0
-2.34416511375457E-05,5.50573486179928E-06,1.0546875,0,0
-2.07289194804616E-05,5.73803845327348E-06,1.0546875,0,0
-2.06250533665298E-05,7.16745398676721E-06,1.0546875,0,0
-2.12886807275936E-05,7.79861602495657E-06,1.0546875,0,0
-2.29635388677707E-05,8.81062806001864E-06,1.0546875,0,0
-2.34674680541502E-05,8.04771570983576E-06,1.0546875,0,0
-2.25853200390702E-05,7.4266858973715E-06,1.0546875,0,0
-1.78542377398117E-05,5.608085757558E-06,1.0546875,0,0
-2.61213226622203E-05,7.64672768127639E-06,1.0546875,0,0
-2.03568324650405E-05,6.44699775875779E-06,1.0546875,0,0
-2.34075596381444E-05,9.06757304619532E-06,1.0546875,0,0
-1.8885202734964E-05,7.85192514740629E-06,1.0546875,0,0
-2.18534660234582E-05,8.85713689058321E-06,1.0546875,0,0
-2.09571917366702E-05,9.54327424551593E-06,1.0546875,0,0
-2.18159420910524E-05,1.01052473837626E-05,1.0546875,0,0
-1.95921547856415E-05,9.33807950787013E-06,1.0546875,0,0
-1.86049292096868E-05,8.41400833451189E-06,1.0546875,0,0
-1.93727264559129E-05,6.77426214679144E-06,1.0546875,0,0
-1.95840784726897E-05,5.44812291991548E-06,1.0546875,0,0
-1.97603294509463E-05,5.25191080669174E-06,1.0546875,0,0
-1.66231347975554E-05,4.39312088929E-06,1.0546875,0,0
-1.45387048178236E-05,3.9673909668636E-06,1.0546875,0,0
-1.20044423965737E-05,3.4612216950336E-06,1.0546875,0,0
-1.30524013002287E-05,3.47516834153794E-06,1.0546875,0,0
-1.3379492884269E-05,2.62286312135984E-06,1.0546875,0,0
-1.59086339408532E-05,3.20605431625154E-06,1.0546875,0,0
-1.60378258442506E-05,5.06631295138504E-06,1.0546875,0,0
-1.67529833561275E-05,8.35839909996139E-06,1.0546875,0,0
-1.6890689948923E-05,1.01770383480471E-05,1.0546875,0,0
-1.86322558874963E-05,1.00364395621E-05,1.0546875,0,0
-1.89710644917795E-05,7.79603578848764E-06,1.0546875,0,0
-1.99045880435733E-05,6.94976233717171E-06,1.0546875,0,0
-2.0042309188284E-05,7.91319234849652E-06,1.0546875,0,0
-1.95858883671463E-05,8.0115187301999E-06,1.0546875,0,0
-1.59387636813335E-05,4.62943853563047E-06,1.0546875,0,0
-2.39476721617393E-05,6.44975625618827E-06,1.0546875,0,0
-1.96787459572079E-05,6.21218441665405E-06,1.0546875,0,0
-2.3482143660658E-05,9.2650116130244E-06,1.0546875,0,0
-2.07858829526231E-05,8.23483969725203E-06,1.0546875,0,0
-2.52299305429915E-05,7.49369974073488E-06,1.0546875,0,0
-2.59213247773005E-05,5.13749500896665E-06,1.0546875,0,0
-2.71560329565546E-05,6.58752833260223E-06,1.0546875,0,0
-2.63551992247812E-05,1.00949227999081E-05,1.0546875,0,0
-2.60268170677591E-05,1.26215472846525E-05,1.0546875,0,0
-2.51540768658742E-05,1.34960891955416E-05,1.0546875,0,0
-2.32939000852639E-05,1.39938474603696E-05,1.0546875,0,0
-2.35782608797308E-05,1.40441734401975E-05,1.0546875,0,0
-2.36707055591978E-05,1.23187919598422E-05,1.0546875,0,0
-2.54361439147033E-05,1.12773805085453E-05,1.0546875,0,0
-2.51162400672911E-05,9.67702362686396E-06,1.0546875,0,0
-2.6671508749132E-05,8.7409416664741E-06,1.0546875,0,0
-2.68219810095616E-05,8.39248605188914E-06,1.0546875,0,0
-2.76789687632117E-05,9.24338928598445E-06,1.0546875,0,0
-2.70894342975225E-05,8.90359842742328E-06,1.0546875,0,0
-2.83909648715053E-05,9.06238983588992E-06,1.0546875,0,0
-2.84884044958744E-05,1.06779161797022E-05,1.0546875,0,0
-2.81484044535318E-05,1.25203314382816E-05,1.0546875,0,0
-2.69087995548034E-05,1.2175659321656E-05,1.0546875,0,0
-2.6859057470574E-05,1.10704813778284E-05,1.0546875,0,0
-2.76129521807889E-05,9.96797734842403E-06,1.0546875,0,0
-2.92157346848398E-05,9.24323376239045E-06,1.0546875,0,0
-2.44948096224107E-05,6.39159679849399E-06,1.0546875,0,0
-3.44491854775697E-05,1.04205482784892E-05,1.0546875,0,0
-2.55857394222403E-05,1.04730879684212E-05,1.0546875,0,0
-3.1188264983939E-05,1.12564339360688E-05,1.0546875,0,0
-2.43899321503704E-05,7.42800921216258E-06,1.0546875,0,0
-2.77508170256624E-05,8.83609027368948E-06,1.0546875,0,0
-2.70452055701753E-05,9.81891571427695E-06,1.0546875,0,0
-3.0531100492226E-05,1.13599799078656E-05,1.0546875,0,0
-3.13622003886849E-05,1.21408729683026E-05,1.0546875,0,0
-3.27146262861788E-05,1.25008818940842E-05,1.0546875,0,0
-3.38290992658585E-05,1.15257698780624E-05,1.0546875,0,0
-3.30032016790938E-05,9.70120163401589E-06,1.0546875,0,0
-3.33044336002786E-05,8.6797426774865E-06,1.0546875,0,0
-3.04646055155899E-05,7.44031149224611E-06,1.0546875,0,0
-2.9818282200722E-05,7.06878608980333E-06,1.0546875,0,0
-2.60327960859286E-05,5.91648313275073E-06,1.0546875,0,0
-2.52782865572954E-05,5.83544851906481E-06,1.0546875,0,0
-2.33362225117162E-05,5.73811530557578E-06,1.0546875,0,0
-2.43522390519502E-05,6.15311637375271E-06,1.0546875,0,0
-2.32709771808004E-05,6.35922560832114E-06,1.0546875,0,0
-2.42313581111375E-05,8.91520721779671E-06,1.0546875,0,0
-2.29793458856875E-05,1.1268391062913E-05,1.0546875,0,0
-2.27514883590629E-05,1.15476850623963E-05,1.0546875,0,0
-2.13055573112797E-05,9.72136331256479E-06,1.0546875,0,0
-1.93375744856894E-05,9.59165936365025E-06,1.0546875,0,0
-1.76822886714945E-05,1.26933255160111E-05,1.0546875,0,0
-1.84165219252463E-05,1.57817084982526E-05,1.0546875,0,0
-1.58254733833019E-05,1.26430959426216E-05,1.0546875,0,0
-2.38632183027221E-05,1.69638478837442E-05,1.0546875,0,0
-2.03764193429379E-05,1.33096609715722E-05,1.0546875,0,0
-2.35206625802675E-05,1.77116671693511E-05,1.0546875,0,0
-1.7488882804173E-05,1.48338967846939E-05,1.0546875,0,0
-1.75876411958598E-05,1.76125067810062E-05,1.0546875,0,0
-1.6317821064149E-05,1.55234665726312E-05,1.0546875,0,0
-1.83037391252583E-05,1.61626885528676E-05,1.0546875,0,0
-1.82816220331006E-05,1.66417576110689E-05,1.0546875,0,0
-1.88637131941505E-05,1.73628013726557E-05,1.0546875,0,0
-1.93523974303389E-05,1.72711788763991E-05,1.0546875,0,0
-1.77540186996339E-05,1.66712143254699E-05,1.0546875,0,0
-1.66445079230471E-05,1.72382515302161E-05,1.0546875,0,0
-1.42358130688081E-05,1.56658152263844E-05,1.0546875,0,0
-1.38045534185949E-05,1.58239927259274E-05,1.0546875,0,0
-1.2471050467866E-05,1.44565474329283E-05,1.0546875,0,0
-1.42513581522508E-05,1.25188653328223E-05,1.0546875,0,0
-1.56792812049389E-05,7.37219943403034E-06,1.0546875,0,0
-1.84276050276821E-05,4.82134419144131E-06,1.0546875,0,0
-1.90792979992693E-05,4.15258364228066E-06,1.0546875,0,0
-2.07388839044143E-05,7.60361126594944E-06,1.0546875,0,0
-2.13154071388999E-05,1.10619812403456E-05,1.0546875,0,0
-2.20554557017749E-05,1.33219245981309E-05,1.0546875,0,0
-2.14714382309467E-05,1.32761979330098E-05,1.0546875,0,0
-2.17220458580414E-05,1.48695280586253E-05,1.0546875,0,0
-2.2739417545381E-05,1.6820620658109E-05,1.0546875,0,0
-2.52438912866637E-05,1.82163912541E-05,1.0546875,0,0
-2.32719339692267E-05,1.48491062645917E-05,1.0546875,0,0
-3.32300151058007E-05,2.01633192773443E-05,1.0546875,0,0
-2.50262401095824E-05,1.36106509671663E-05,1.0546875,0,0
-3.19524770020507E-05,1.53115124703618E-05,1.0546875,0,0
-2.86100294033531E-05,9.77450508798938E-06,1.0546875,0,0
-3.27455782098696E-05,1.21014600154012E-05,1.0546875,0,0
-3.09238930640277E-05,1.15454058686737E-05,1.0546875,0,0
-3.19464706990402E-05,1.23245463328203E-05,1.0546875,0,0
-3.18228157993872E-05,1.18256084533641E-05,1.0546875,0,0
-3.23406638926826E-05,1.11145873233909E-05,1.0546875,0,0
-3.23061176459305E-05,9.8651071311906E-06,1.0546875,0,0
-3.09783354168758E-05,8.67899962031515E-06,1.0546875,0,0
-3.04254681395832E-05,9.50259891396854E-06,1.0546875,0,0
-2.71793905994855E-05,7.84016810939647E-06,1.0546875,0,0
-2.76419832516694E-05,6.47055912850192E-06,1.0546875,0,0
-2.74912417808082E-05,4.61852778244065E-06,1.0546875,0,0
-2.95924000965897E-05,6.60505293126334E-06,1.0546875,0,0
-2.81059928965988E-05,7.44075578040793E-06,1.0546875,0,0
-2.92493405140704E-05,8.4871644503437E-06,1.0546875,0,0
-2.96731541311601E-05,7.84961594035849E-06,1.0546875,0,0
-3.15111501549836E-05,9.25845233723521E-06,1.0546875,0,0
-3.0562612664653E-05,9.92661261989269E-06,1.0546875,0,0
-3.00948286167113E-05,1.16435257950798E-05,1.0546875,0,0
-2.97585102089215E-05,1.36164353534696E-05,1.0546875,0,0
-3.00875799439382E-05,1.50435098476009E-05,1.0546875,0,0
-2.83635636151303E-05,1.40810489028809E-05,1.0546875,0,0
-2.62313860730501E-05,1.34802558022784E-05,1.0546875,0,0
-2.00337581190979E-05,1.33642333821626E-05,1.0546875,0,0
-2.86903868982336E-05,2.03868203243474E-05,1.0546875,0,0
-2.25870717258658E-05,1.65792243933538E-05,1.0546875,0,0
-2.87527254840825E-05,1.9612625692389E-05,1.0546875,0,0
-2.57515348494053E-05,1.5692659872002E-05,1.0546875,0,0
-2.93912380584516E-05,1.51682097566663E-05,1.0546875,0,0
-2.84544512396678E-05,1.31546485135914E-05,1.0546875,0,0
-3.03282540699001E-05,1.28086539916694E-05,1.0546875,0,0
-2.92883760266704E-05,1.19862052088138E-05,1.0546875,0,0
-2.92277964035748E-05,1.1847938367282E-05,1.0546875,0,0
-2.97990463877795E-05,1.27685952975298E-05,1.0546875,0,0
-2.96583766612457E-05,1.42771905302652E-05,1.0546875,0,0
-3.15387660521083E-05,1.47702749018208E-05,1.0546875,0,0
-3.15046490868554E-05,9.64150331128621E-06,1.0546875,0,0
-3.28434907714836E-05,4.69365795652266E-06,1.0546875,0,0
-3.18991660606116E-05,1.19962669486995E-06,1.0546875,0,0
-3.3483393053757E-05,1.70513112607296E-06,1.0546875,0,0
-3.29803842760157E-05,3.16327555083262E-06,1.0546875,0,0
-3.29224167217035E-05,7.0806231633469E-06,1.0546875,0,0
-2.98636623483617E-05,1.01083369372645E-05,1.0546875,0,0
-2.90779371425742E-05,1.23913159768563E-05,1.0546875,0,0
-2.74988415185362E-05,1.14569411380216E-05,1.0546875,0,0
-2.65085654973518E-05,1.05639219327713E-05,1.0546875,0,0
-2.49503264058148E-05,1.11584040496382E-05,1.0546875,0,0
-2.54372807830805E-05,1.24947209769743E-05,1.0546875,0,0
-2.62822668446461E-05,1.16991477625561E-05,1.0546875,0,0
-2.69601005129516E-05,1.05655153674888E-05,1.0546875,0,0
-2.096972639265E-05,1.0094325261889E-05,1.0546875,0,0
-2.7957637939835E-05,1.46931060953648E-05,1.0546875,0,0
-1.90310875041178E-05,1.1383122910047E-05,1.0546875,0,0
-2.40561366808834E-05,1.29720647237264E-05,1.0546875,0,0
-1.98206598724937E-05,9.61537261900958E-06,1.0546875,0,0
-2.4674611267983E-05,1.09077300294302E-05,1.0546875,0,0
-2.39832570514409E-05,1.06252309706178E-05,1.0546875,0,0
-2.57893225352746E-05,1.01223631645553E-05,1.0546875,0,0
-2.37981330428738E-05,9.08709807845298E-06,1.0546875,0,0
-2.15646468859632E-05,9.43145005294355E-06,1.0546875,0,0
-1.98410762095591E-05,9.14528391149361E-06,1.0546875,0,0
-1.79706894414267E-05,8.12687176221516E-06,1.0546875,0,0
-1.77897181856679E-05,8.20867353468202E-06,1.0546875,0,0
-1.52337652252754E-05,7.77447530708741E-06,1.0546875,0,0
-1.54323097376619E-05,8.68710867507616E-06,1.0546875,0,0
-1.36217086037504E-05,8.93545166036347E-06,1.0546875,0,0
-1.41172486110008E-05,1.09011634776834E-05,1.0546875,0,0
-1.23856734717265E-05,1.20232080007554E-05,1.0546875,0,0
-1.26942004499142E-05,1.35791633510962E-05,1.0546875,0,0
-1.1649523912638E-05,1.32409695652314E-05,1.0546875,0,0
-1.38034147312283E-05,1.259813325305E-05,1.0546875,0,0
-1.42302378662862E-05,1.19209698823397E-05,1.0546875,0,0
-1.46661113831215E-05,1.30997195810778E-05,1.0546875,0,0
-1.39800058605033E-05,1.39637495522038E-05,1.0546875,0,0
-1.46033999044448E-05,1.51630747495801E-05,1.0546875,0,0
-1.56753867486259E-05,1.51994754560292E-05,1.0546875,0,0
-1.715132384561E-05,1.45630174301914E-05,1.0546875,0,0
-1.44639016070869E-05,1.23903173516737E-05,1.0546875,0,0
-2.00855483853957E-05,1.70816583704436E-05,1.0546875,0,0
-1.44605564855738E-05,1.16489700303646E-05,1.0546875,0,0
-1.71860556292813E-05,1.32574496092275E-05,1.0546875,0,0
-1.40846459544264E-05,8.93880860530771E-06,1.0546875,0,0
-1.71638967003673E-05,1.04616101452848E-05,1.0546875,0,0
-1.5675752365496E-05,9.71969166130293E-06,1.0546875,0,0
-1.55582765728468E-05,1.0361147360527E-05,1.0546875,0,0
-1.53254313772777E-05,1.05795488707372E-05,1.0546875,0,0
-1.64797002071282E-05,1.17917434181436E-05,1.0546875,0,0
-1.77622314367909E-05,1.32023933474557E-05,1.0546875,0,0
-1.85728076758096E-05,1.36968947117566E-05,1.0546875,0,0
-2.05506858037552E-05,1.34920564960339E-05,1.0546875,0,0
-2.06745444302214E-05,1.0605224815663E-05,1.0546875,0,0
-2.31011072173715E-05,9.66437164606759E-06,1.0546875,0,0
-2.44868751906324E-05,8.19374326965772E-06,1.0546875,0,0
-2.67195446213009E-05,8.24963717604987E-06,1.0546875,0,0
-2.67328614427242E-05,8.16559531813255E-06,1.0546875,0,0
-2.7869115001522E-05,1.06195229818695E-05,1.0546875,0,0
-2.7617154046311E-05,1.14529329948709E-05,1.0546875,0,0
-2.7645424779621E-05,1.1201828783669E-05,1.0546875,0,0
-2.60019151028246E-05,9.18124806048581E-06,1.0546875,0,0
-2.69947777269408E-05,7.92962691775756E-06,1.0546875,0,0
-3.02631797239883E-05,6.45150339551037E-06,1.0546875,0,0
-3.2390726119047E-05,6.00026942265686E-06,1.0546875,0,0
-3.09863862639759E-05,6.33573290542699E-06,1.0546875,0,0
-3.00187548418762E-05,7.42577367418562E-06,1.0546875,0,0
-2.46318759309361E-05,6.42056374999811E-06,1.0546875,0,0
-3.46419619745575E-05,9.60056422627531E-06,1.0546875,0,0
-2.53541402344126E-05,7.08204061083961E-06,1.0546875,0,0
-3.10486684611533E-05,6.32323917670874E-06,1.0546875,0,0
-2.58611507888418E-05,3.4050356134685E-06,1.0546875,0,0
-3.00184801744763E-05,4.62512343801791E-06,1.0546875,0,0
-2.79605756077217E-05,5.52980964130256E-06,1.0546875,0,0
-2.91845590254525E-05,8.21374851511791E-06,1.0546875,0,0
-2.83200588455657E-05,9.88947249425109E-06,1.0546875,0,0
-2.93033790512709E-05,9.82359233603347E-06,1.0546875,0,0
-3.02737062156666E-05,9.01794192031957E-06,1.0546875,0,0
-2.87680159090087E-05,9.09358095668722E-06,1.0546875,0,0
-2.80899421341019E-05,1.05921808426501E-05,1.0546875,0,0
-2.52481040661223E-05,1.09808042907389E-05,1.0546875,0,0
-2.54346941801487E-05,1.16135288408259E-05,1.0546875,0,0
-2.31778958550422E-05,1.17515237434418E-05,1.0546875,0,0
-2.31426383834332E-05,1.2515713024186E-05,1.0546875,0,0
-2.04918360395823E-05,1.2634229278774E-05,1.0546875,0,0
-2.11896531254752E-05,1.31757360577467E-05,1.0546875,0,0
-2.0195411707391E-05,1.20260974654229E-05,1.0546875,0,0
-2.00950435100822E-05,1.02379972304334E-05,1.0546875,0,0
-1.72914824361214E-05,8.68664483277826E-06,1.0546875,0,0
-1.62047090270789E-05,9.29924499359913E-06,1.0546875,0,0
-1.66288737091236E-05,1.02298590718419E-05,1.0546875,0,0
-2.0472822143347E-05,1.03781176221673E-05,1.0546875,0,0
-2.25203148147557E-05,8.90154478838667E-06,1.0546875,0,0
-2.22689068323234E-05,8.57368468132336E-06,1.0546875,0,0
-1.73252083186526E-05,7.47328704164829E-06,1.0546875,0,0
-2.46739709837129E-05,9.34326635615435E-06,1.0546875,0,0
-1.95874363271287E-05,6.31506827630801E-06,1.0546875,0,0
-2.53487996815238E-05,9.287479770137E-06,1.0546875,0,0
-2.29857869271655E-05,6.37470247966121E-06,1.0546875,0,0
-2.57388874160824E-05,6.21903518549516E-06,1.0546875,0,0
-2.39794881053967E-05,5.99407212575898E-06,1.0546875,0,0
-2.55666927841958E-05,8.06937259767437E-06,1.0546875,0,0
-2.4563203623984E-05,1.00046027000644E-05,1.0546875,0,0
-2.2367403289536E-05,1.08499862108147E-05,1.0546875,0,0
-2.20358415390365E-05,9.91071829048451E-06,1.0546875,0,0
-2.36522828345187E-05,9.10167909751181E-06,1.0546875,0,0
-2.67061204795027E-05,1.00133556770743E-05,1.0546875,0,0
-2.56445800914662E-05,1.08672466012649E-05,1.0546875,0,0
-2.48839423875324E-05,1.26798477140255E-05,1.0546875,0,0
-2.35020052059554E-05,1.35785639940877E-05,1.0546875,0,0
-2.48698343057185E-05,1.36586741064093E-05,1.0546875,0,0
-2.32947677432094E-05,1.11022500277613E-05,1.0546875,0,0
-2.21405662159668E-05,1.01130690381979E-05,1.0546875,0,0
-1.99887890630635E-05,9.99938310997095E-06,1.0546875,0,0
-2.06408731173724E-05,1.11731387733016E-05,1.0546875,0,0
-2.10905291169183E-05,1.09950424302951E-05,1.0546875,0,0
-2.18312725337455E-05,1.03047159427661E-05,1.0546875,0,0
-2.04995121748652E-05,9.41940015763976E-06,1.0546875,0,0
-1.94130279851379E-05,8.88573413249105E-06,1.0546875,0,0
-1.89374277397292E-05,8.74920533533441E-06,1.0546875,0,0
-1.89517304534093E-05,8.69911946210777E-06,1.0546875,0,0
-1.49900006363168E-05,7.23007860869984E-06,1.0546875,0,0
-2.12737122637918E-05,1.07667647171183E-05,1.0546875,0,0
-1.57295380631695E-05,9.22944946069038E-06,1.0546875,0,0
-1.88215435628081E-05,1.283483379666E-05,1.0546875,0,0
-1.56424030137714E-05,1.2665705071413E-05,1.0546875,0,0
-1.86632805707632E-05,1.30271137095406E-05,1.0546875,0,0
-1.80437236849684E-05,1.09794536911068E-05,1.0546875,0,0
-1.89126640179893E-05,9.78090702119516E-06,1.0546875,0,0
-1.80467122845585E-05,9.19775175134419E-06,1.0546875,0,0
-1.78014015546069E-05,1.02897502074484E-05,1.0546875,0,0
-1.94418771570781E-05,1.26993872981984E-05,1.0546875,0,0
-2.20545662159566E-05,1.38862387757399E-05,1.0546875,0,0
-2.47935531660914E-05,1.38890191010432E-05,1.0546875,0,0
-2.43488502746914E-05,1.15787343020202E-05,1.0546875,0,0
-2.42843525484204E-05,9.19203193916474E-06,1.0546875,0,0
-2.26014417421538E-05,7.28695385987521E-06,1.0546875,0,0
-2.27148611884331E-05,7.3708720265131E-06,1.0546875,0,0
-2.13377516047331E-05,7.58135138312355E-06,1.0546875,0,0
-2.21248119487427E-05,9.28418012335896E-06,1.0546875,0,0
-2.22592389036436E-05,1.01130526672932E-05,1.0546875,0,0
-2.3610788048245E-05,9.84807047643699E-06,1.0546875,0,0
-2.33699483942473E-05,7.97677330410806E-06,1.0546875,0,0
-2.23360402742401E-05,7.77010245656129E-06,1.0546875,0,0
-2.01578423002502E-05,9.51388392422814E-06,1.0546875,0,0
-1.90425907931058E-05,1.05724184322753E-05,1.0546875,0,0
-1.80972128873691E-05,1.06361876532901E-05,1.0546875,0,0
-1.72262534761103E-05,1.12590914795874E-05,1.0546875,0,0
-1.40377360366983E-05,1.02031799542601E-05,1.0546875,0,0
-2.01795792236226E-05,1.26779168567737E-05,1.0546875,0,0
-1.45766816785908E-05,6.36184358882019E-06,1.0546875,0,0
-1.71979972947156E-05,8.53300571179716E-06,1.0546875,0,0
-1.62447850016179E-05,8.76582635100931E-06,1.0546875,0,0
-2.11641836358467E-05,1.35871050588321E-05,1.0546875,0,0
-2.1561716494034E-05,1.41686505230609E-05,1.0546875,0,0
-2.3417893316946E-05,1.65076526172925E-05,1.0546875,0,0
-2.39231158047915E-05,1.89899383258307E-05,1.0546875,0,0
-2.45649807766313E-05,2.0875830159639E-05,1.0546875,0,0
-2.47690477408469E-05,2.16163862205576E-05,1.0546875,0,0
-2.37321746681118E-05,2.25130788749084E-05,1.0546875,0,0
-2.3690598027315E-05,2.55493887379998E-05,1.0546875,0,0
-2.27756881940877E-05,2.75770944426768E-05,1.0546875,0,0
-2.40963181568077E-05,2.95871395792346E-05,1.0546875,0,0
-2.41880388784921E-05,2.8553671654663E-05,1.0546875,0,0
-2.51357869274216E-05,2.64048339886358E-05,1.0546875,0,0
-2.32879392569885E-05,2.1614408979076E-05,1.0546875,0,0
-2.18309123738436E-05,1.7181799194077E-05,1.0546875,0,0
-2.03869240067434E-05,1.21460489026504E-05,1.0546875,0,0
-2.22380804189015E-05,9.7770262073027E-06,1.0546875,0,0
-2.41859870584449E-05,8.44162696012063E-06,1.0546875,0,0
-2.68762196355965E-05,8.67431117512751E-06,1.0546875,0,0
-2.83297122223303E-05,8.46615330374334E-06,1.0546875,0,0
-2.92422409984283E-05,7.21237847756129E-06,1.0546875,0,0
-2.98329487122828E-05,4.55550753031275E-06,1.0546875,0,0
-3.00331557809841E-05,3.43946749126189E-06,1.0546875,0,0
-2.16178013943136E-05,3.97471922042314E-06,1.0546875,0,0
-2.8960677809664E-05,6.90014348947443E-06,1.0546875,0,0
-2.23889255721588E-05,6.21239769316162E-06,1.0546875,0,0
-3.23737694998272E-05,6.55346502753673E-06,1.0546875,0,0
-2.90892294287914E-05,5.761135071225E-06,1.0546875,0,0
-3.17335397994611E-05,3.76231423615536E-06,1.0546875,0,0
-2.84157886198955E-05,-3.88920881277954E-07,1.0546875,0,0
-2.94589553959668E-05,-1.56041596710566E-06,1.0546875,0,0
-2.78776842606021E-05,-1.90278100831165E-07,1.0546875,0,0
-2.68844960373826E-05,1.33277080749394E-06,1.0546875,0,0
-2.65036760538351E-05,1.90091327567643E-06,1.0546875,0,0
-2.61833520198707E-05,2.42431656261033E-06,1.0546875,0,0
-2.77068465948105E-05,3.28516330228013E-06,1.0546875,0,0
-2.69002666755114E-05,3.09390884467575E-06,1.0546875,0,0
-2.885325011448E-05,3.28041846842098E-06,1.0546875,0,0
-2.90351163130254E-05,3.34724177264434E-06,1.0546875,0,0
-3.19644241244532E-05,4.30186537414556E-06,1.0546875,0,0
-3.14675307890866E-05,5.48779871678562E-06,1.0546875,0,0
-3.14681201416533E-05,7.40146788302809E-06,1.0546875,0,0
-2.86529048025841E-05,9.17373563424917E-06,1.0546875,0,0
-2.82035944110248E-05,1.08140102383913E-05,1.0546875,0,0
-2.61152326856973E-05,1.1945277947234E-05,1.0546875,0,0
-2.51015844696667E-05,1.25846881928737E-05,1.0546875,0,0
-2.38592911045998E-05,1.25781934912084E-05,1.0546875,0,0
-2.44194434344536E-05,1.24743119158666E-05,1.0546875,0,0
-2.45734700001776E-05,1.28709716591402E-05,1.0546875,0,0
-2.58911568380427E-05,1.325701487076E-05,1.0546875,0,0
-2.28872031584615E-05,9.64715309237363E-06,1.0546875,0,0
-3.23628482874483E-05,1.24449088616529E-05,1.0546875,0,0
-2.34657491091639E-05,7.78295179770794E-06,1.0546875,0,0
-2.88552346319193E-05,8.84601377038052E-06,1.0546875,0,0
-2.47443422267679E-05,5.91334764976637E-06,1.0546875,0,0
-2.84620073216502E-05,8.7656180767226E-06,1.0546875,0,0
-2.78315892501269E-05,8.47929641167866E-06,1.0546875,0,0
-3.06606125377584E-05,9.54385814111447E-06,1.0546875,0,0
-2.99967668979662E-05,9.2854315880686E-06,1.0546875,0,0
-2.9392907890724E-05,9.30978967517149E-06,1.0546875,0,0
-2.9746355721727E-05,8.88433623913443E-06,1.0546875,0,0
-2.98628201562678E-05,7.81230755819706E-06,1.0546875,0,0
-3.14899371005595E-05,7.08222751200083E-06,1.0546875,0,0
-2.99683815683238E-05,6.85817713019787E-06,1.0546875,0,0
-2.99787861877121E-05,9.65021172305569E-06,1.0546875,0,0
-2.8428263249225E-05,9.95831032923888E-06,1.0546875,0,0
-3.02881107927533E-05,9.18238038138952E-06,1.0546875,0,0
-2.84068246401148E-05,8.04595219960902E-06,1.0546875,0,0
-2.77487561106682E-05,9.8068858278566E-06,1.0546875,0,0
-2.65258458966855E-05,9.36250762606505E-06,1.0546875,0,0
-2.78169372904813E-05,7.13313420419581E-06,1.0546875,0,0
-2.58274576481199E-05,3.14692988467868E-06,1.0546875,0,0
-2.40310782828601E-05,1.44370051202714E-06,1.0546875,0,0
-2.31046687986236E-05,1.6067110664153E-06,1.0546875,0,0
-2.49610093305819E-05,4.06380013373564E-06,1.0546875,0,0
-2.66601819021162E-05,6.39880272501614E-06,1.0546875,0,0
-2.69656884483993E-05,7.386828201561E-06,1.0546875,0,0
-2.20634919969598E-05,6.69362862026901E-06,1.0546875,0,0
-3.22627020068467E-05,1.20904796858667E-05,1.0546875,0,0
-2.49830281973118E-05,1.29633235701476E-05,1.0546875,0,0
-2.87048842437798E-05,1.46799593494507E-05,1.0546875,0,0
-2.22550243051955E-05,1.26891200125101E-05,1.0546875,0,0
-2.36940850300016E-05,1.35473692353116E-05,1.0546875,0,0
-2.07453067559982E-05,1.29723457575892E-05,1.0546875,0,0
-2.28121061809361E-05,1.14255626613158E-05,1.0546875,0,0
-2.2786214685766E-05,9.70958535617683E-06,1.0546875,0,0
-2.35579664149554E-05,9.75552302406868E-06,1.0546875,0,0
-2.52377521974267E-05,1.04126384030678E-05,1.0546875,0,0
-2.63583078776719E-05,1.07964033304597E-05,1.0546875,0,0
-2.85098576568998E-05,1.09244729173952E-05,1.0546875,0,0
-2.70867149083642E-05,1.03766697066021E-05,1.0546875,0,0
-2.65193448285572E-05,1.17079016490607E-05,1.0546875,0,0
-2.3981558115338E-05,1.2288500329305E-05,1.0546875,0,0
-2.50179527938599E-05,1.19852629723027E-05,1.0546875,0,0
-2.38200573221548E-05,1.10202836367534E-05,1.0546875,0,0
-2.43187569139991E-05,1.20792174129747E-05,1.0546875,0,0
-2.35701227211393E-05,1.33395578814088E-05,1.0546875,0,0
-2.47403513640165E-05,1.40658912641811E-05,1.0546875,0,0
-2.40742992900778E-05,1.32646509882761E-05,1.0546875,0,0
-2.50104658334749E-05,1.3873908756068E-05,1.0546875,0,0
-2.52863665082259E-05,1.60160307132173E-05,1.0546875,0,0
-2.56994480878348E-05,1.59688934218138E-05,1.0546875,0,0
-2.45103819906944E-05,1.39109934025328E-05,1.0546875,0,0
-2.47450388997095E-05,1.3482516806107E-05,1.0546875,0,0
-2.13878738577478E-05,1.12869593067444E-05,1.0546875,0,0
-3.06318179355003E-05,1.55487232404994E-05,1.0546875,0,0
-2.2791307856096E-05,1.02002322819317E-05,1.0546875,0,0
-2.73703699349426E-05,1.08200174508966E-05,1.0546875,0,0
-2.29256529564736E-05,5.85616317039239E-06,1.0546875,0,0
-2.59317930613179E-05,7.46370506021776E-06,1.0546875,0,0
-2.36424421018455E-05,9.70005021372344E-06,1.0546875,0,0
-2.47673870035214E-05,1.2735396012431E-05,1.0546875,0,0
-2.51620349445147E-05,1.17216013677535E-05,1.0546875,0,0
-2.66437309619505E-05,1.11927365651354E-05,1.0546875,0,0
-2.71855533355847E-05,1.20854310807772E-05,1.0546875,0,0
-2.62865960394265E-05,1.36133494379465E-05,1.0546875,0,0
-2.77121944236569E-05,1.59175378939835E-05,1.0546875,0,0
-2.79526611848269E-05,1.56908608914819E-05,1.0546875,0,0
-2.99294260912575E-05,1.58068469318096E-05,1.0546875,0,0
-2.85117293969961E-05,1.48341205203906E-05,1.0546875,0,0
-2.82699929812225E-05,1.43674205901334E-05,1.0546875,0,0
-2.48518954322208E-05,1.11779245344223E-05,1.0546875,0,0
-2.35747356782667E-05,9.39543679123744E-06,1.0546875,0,0
-2.14431674976368E-05,8.6758409452159E-06,1.0546875,0,0
-2.17053220694652E-05,1.0716711585701E-05,1.0546875,0,0
-2.01382135855965E-05,1.29731288325274E-05,1.0546875,0,0
-1.95241282199277E-05,1.56510832312051E-05,1.0546875,0,0
-1.9104687453364E-05,1.5497736967518E-05,1.0546875,0,0
-1.92003353731707E-05,1.48674762385781E-05,1.0546875,0,0
-1.98489979084115E-05,1.45609365063137E-05,1.0546875,0,0
-2.15196851058863E-05,1.2532336768345E-05,1.0546875,0,0
-1.63496206369018E-05,7.35531375539722E-06,1.0546875,0,0
-2.09753197850659E-05,9.52769278228516E-06,1.0546875,0,0
-1.37045271912939E-05,8.65316451381659E-06,1.0546875,0,0
-1.76137800735887E-05,1.43131710501621E-05,1.0546875,0,0
-1.30432545120129E-05,1.5876350516919E-05,1.0546875,0,0
-1.58618549903622E-05,2.04200441658031E-05,1.0546875,0,0
-1.51207859744318E-05,2.12079739867477E-05,1.0546875,0,0
-1.74512606463395E-05,2.15232939808629E-05,1.0546875,0,0
-1.82055246114032E-05,1.92900151887443E-05,1.0546875,0,0
-1.89572892850265E-05,1.79398830368882E-05,1.0546875,0,0
-1.98373145394726E-05,1.73904463736108E-05,1.0546875,0,0
-2.14899664570112E-05,1.66835707204882E-05,1.0546875,0,0
-2.38971206272254E-05,1.67812140716705E-05,1.0546875,0,0
-2.249111639685E-05,1.63177428476047E-05,1.0546875,0,0
-2.2962769435253E-05,1.76611411006888E-05,1.0546875,0,0
-2.32262082136003E-05,1.83378033398185E-05,1.0546875,0,0
-2.53575381066184E-05,1.98491925402777E-05,1.0546875,0,0
-2.43642225541407E-05,1.93448067875579E-05,1.0546875,0,0
-2.47379648499191E-05,1.82785752258496E-05,1.0546875,0,0
-2.37521762755932E-05,1.61314947035862E-05,1.0546875,0,0
-2.4443281290587E-05,1.63182412507012E-05,1.0546875,0,0
-2.41540838032961E-05,1.69017548614647E-05,1.0546875,0,0
-2.45045539486455E-05,1.61229581863154E-05,1.0546875,0,0
-2.33125647355337E-05,1.3492845937435E-05,1.0546875,0,0
-2.17735669139074E-05,1.28198034872185E-05,1.0546875,0,0
-1.93398682313273E-05,1.37886936499854E-05,1.0546875,0,0
-1.80364168045344E-05,1.37291644932702E-05,1.0546875,0,0
-1.30895195979974E-05,1.02135527413338E-05,1.0546875,0,0
-1.79022026713938E-05,1.5301371604437E-05,1.0546875,0,0
-1.38532659548218E-05,1.29663485495257E-05,1.0546875,0,0
-1.86542456503958E-05,1.55570105562219E-05,1.0546875,0,0
-1.7319589460385E-05,1.28677929751575E-05,1.0546875,0,0
-1.99306814465672E-05,1.44201922012144E-05,1.0546875,0,0
-1.88547055586241E-05,1.33558251036447E-05,1.0546875,0,0
-2.1966527128825E-05,1.33615549202659E-05,1.0546875,0,0
-2.40718236454995E-05,1.20732502182364E-05,1.0546875,0,0
-2.56421335507184E-05,1.09375214378815E-05,1.0546875,0,0
-2.63511883531464E-05,1.06196866909158E-05,1.0546875,0,0
-2.58575364568969E-05,1.01302439361461E-05,1.0546875,0,0
-2.61646982835373E-05,1.00163797469577E-05,1.0546875,0,0
-2.55573304457357E-05,8.69106588652357E-06,1.0546875,0,0
-2.60717952187406E-05,8.70296025823336E-06,1.0546875,0,0
-2.4869475964806E-05,7.7189615694806E-06,1.0546875,0,0
-2.56449766311562E-05,7.05031197867356E-06,1.0546875,0,0
-2.50005741690984E-05,4.45835485152202E-06,1.0546875,0,0
-2.64983991655754E-05,3.2627324344503E-06,1.0546875,0,0
-2.77886356343515E-05,1.98267002815555E-06,1.0546875,0,0
-2.99712701234967E-05,1.38779398639599E-06,1.0546875,0,0
-2.98537706839852E-05,1.57412432599813E-06,1.0546875,0,0
-2.9504617486964E-05,3.41170334650087E-06,1.0546875,0,0
-2.94965630018851E-05,3.52091660715814E-06,1.0546875,0,0
-3.11281582980882E-05,2.53244047598855E-06,1.0546875,0,0
-3.21999250445515E-05,8.13558870049746E-07,1.0546875,0,0
-3.16260557156056E-05,-1.5476458656849E-06,1.0546875,0,0
-2.32645270443754E-05,-3.09407482745883E-06,1.0546875,0,0
-3.19252867484465E-05,-5.27633756064461E-06,1.0546875,0,0
-2.25987678277306E-05,-4.24945847044E-06,1.0546875,0,0
-2.75274906016421E-05,-3.80496999241586E-06,1.0546875,0,0
-2.10685229831142E-05,-1.68999781635648E-06,1.0546875,0,0
-2.40448589465814E-05,7.55852127554135E-08,1.0546875,0,0
-2.23741699301172E-05,1.69890574852616E-06,1.0546875,0,0
-2.53901307587512E-05,2.04689081328979E-06,1.0546875,0,0
-2.56434814218665E-05,3.03668184642447E-06,1.0546875,0,0
-2.60440065176226E-05,3.51045559909835E-06,1.0546875,0,0
-2.59366624959512E-05,4.06107983508264E-06,1.0546875,0,0
-2.44124512391863E-05,4.29454348704894E-06,1.0546875,0,0
-2.41251436818857E-05,4.24597328674281E-06,1.0546875,0,0
-2.14730771403993E-05,3.8337802834576E-06,1.0546875,0,0
-2.18559089262271E-05,3.05869343719678E-06,1.0546875,0,0
-2.03769050131086E-05,3.40382030117325E-06,1.0546875,0,0
-2.18426903302316E-05,3.91278535971651E-06,1.0546875,0,0
-2.03554809559137E-05,4.55068175142515E-06,1.0546875,0,0
-2.04470998141915E-05,4.91513401357224E-06,1.0546875,0,0
-1.83481552085141E-05,6.65128163745976E-06,1.0546875,0,0
-1.85647913895082E-05,9.23464631341631E-06,1.0546875,0,0
-1.72377494891407E-05,1.12998786789831E-05,1.0546875,0,0
-1.80422757694032E-05,1.12488633021712E-05,1.0546875,0,0
-1.80577353603439E-05,1.06069792309427E-05,1.0546875,0,0
-1.773978874553E-05,9.85138922260376E-06,1.0546875,0,0
-1.55010839080205E-05,1.0934512829408E-05,1.0546875,0,0
-1.42964308906812E-05,1.40248403113219E-05,1.0546875,0,0
-1.36568351081223E-05,1.28896344904206E-05,1.0546875,0,0
-2.15437994484091E-05,1.8165483197663E-05,1.0546875,0,0
-1.89227957889671E-05,1.4471876056632E-05,1.0546875,0,0
-2.18185668927617E-05,1.87457444553729E-05,1.0546875,0,0
-1.88913982128724E-05,1.45828053064179E-05,1.0546875,0,0
-2.05091037059901E-05,1.55486068251776E-05,1.0546875,0,0
-2.09529189305613E-05,1.45096491905861E-05,1.0546875,0,0
-2.52782629104331E-05,1.53101300384151E-05,1.0546875,0,0
-2.7435649826657E-05,1.35405334731331E-05,1.0546875,0,0
-2.73974510491826E-05,1.10167811726569E-05,1.0546875,0,0
-2.71736644208431E-05,8.43210546008777E-06,1.0546875,0,0
-2.76016544376034E-05,8.11349127616268E-06,1.0546875,0,0
-2.97704373224406E-05,1.09618731585215E-05,1.0546875,0,0
-3.05402209050953E-05,1.14832519102492E-05,1.0546875,0,0
-3.235061376472E-05,1.21969787869602E-05,1.0546875,0,0
-3.20647086482495E-05,1.20173608593177E-05,1.0546875,0,0
-3.18215461447835E-05,1.35262944240822E-05,1.0546875,0,0
-3.03223914670525E-05,1.20354734463035E-05,1.0546875,0,0
-3.10473515128251E-05,1.11413846752839E-05,1.0546875,0,0
-3.06148867821321E-05,1.13171236080234E-05,1.0546875,0,0
-2.9985907531227E-05,1.40495276355068E-05,1.0546875,0,0
-2.74858175544068E-05,1.40373595058918E-05,1.0546875,0,0
-2.58236759691499E-05,1.24910675367573E-05,1.0546875,0,0
-2.49771073868033E-05,1.02477652035304E-05,1.0546875,0,0
-2.45716601057211E-05,9.68058157013729E-06,1.0546875,0,0
-2.48372762143845E-05,1.07182377178106E-05,1.0546875,0,0
-2.57126903306926E-05,1.28194551507477E-05,1.0546875,0,0
-2.09608933801064E-05,9.67993400990963E-06,1.0546875,0,0
-2.91486576315947E-05,1.21489629236748E-05,1.0546875,0,0
-2.03630679607159E-05,8.19283741293475E-06,1.0546875,0,0
-2.44792117882753E-05,1.07402374851517E-05,1.0546875,0,0
-2.05524847842753E-05,7.46998375689145E-06,1.0546875,0,0
-2.45031023951015E-05,9.10822927835397E-06,1.0546875,0,0
-2.13986404560274E-05,8.58700605022023E-06,1.0546875,0,0
-2.1208939870121E-05,1.01004525276949E-05,1.0546875,0,0
-2.06218774110312E-05,1.02029398476589E-05,1.0546875,0,0
-2.08445489988662E-05,9.97700226434972E-06,1.0546875,0,0
-1.96495529962704E-05,1.04023183666868E-05,1.0546875,0,0
-1.77159454324283E-05,1.10172586573754E-05,1.0546875,0,0
-1.86158413271187E-05,1.24922034956398E-05,1.0546875,0,0
-1.77355705091031E-05,1.2009189958917E-05,1.0546875,0,0
-1.92758616321953E-05,1.22321080198162E-05,1.0546875,0,0
-1.91176950465888E-05,1.17272948045866E-05,1.0546875,0,0
-2.1185996956774E-05,1.19813103083288E-05,1.0546875,0,0
-2.03475374291884E-05,1.00383513199631E-05,1.0546875,0,0
-2.12384020414902E-05,9.96162270894274E-06,1.0546875,0,0
-2.09232821362093E-05,1.04774499050109E-05,1.0546875,0,0
-2.33282753470121E-05,1.10586624941789E-05,1.0546875,0,0
-2.4217553800554E-05,9.00491249922197E-06,1.0546875,0,0
-2.44037873926573E-05,9.15423152036965E-06,1.0546875,0,0
-2.25292224058649E-05,1.12452526082052E-05,1.0546875,0,0
-2.31072281167144E-05,1.28764704641071E-05,1.0546875,0,0
-2.50945322477492E-05,1.32912482513348E-05,1.0546875,0,0
-2.71354256256018E-05,1.32156792460592E-05,1.0546875,0,0
-2.19217781705083E-05,1.21234970720252E-05,1.0546875,0,0
-2.98393897537608E-05,1.85300323209958E-05,1.0546875,0,0
-2.10788311960641E-05,1.61830903380178E-05,1.0546875,0,0
-2.70479158643866E-05,1.84312921192031E-05,1.0546875,0,0
-2.28279877774185E-05,1.30781963889604E-05,1.0546875,0,0
-2.67837785941083E-05,1.33524263219442E-05,1.0546875,0,0
-2.56974508374697E-05,1.47574619404622E-05,1.0546875,0,0
-2.81831034953939E-05,1.91338076547254E-05,1.0546875,0,0
-2.74897429335397E-05,1.98152774828486E-05,1.0546875,0,0
-2.70487835223321E-05,1.83622796612326E-05,1.0546875,0,0
-2.73254336207174E-05,1.80598253791686E-05,1.0546875,0,0
-2.62592529907124E-05,1.97816516447347E-05,1.0546875,0,0
-2.64237623923691E-05,2.21044865611475E-05,1.0546875,0,0
-2.4050212232396E-05,2.16974258364644E-05,1.0546875,0,0
-2.31806843657978E-05,2.03382696781773E-05,1.0546875,0,0
-1.9951325157308E-05,1.64236898854142E-05,1.0546875,0,0
-2.07715311262291E-05,1.4163892956276E-05,1.0546875,0,0
-2.00754493562272E-05,1.15958910100744E-05,1.0546875,0,0
-2.11582610063488E-05,1.07110290628043E-05,1.0546875,0,0
-2.04415318876272E-05,9.43929171626223E-06,1.0546875,0,0
-2.17282376979711E-05,9.97746792563703E-06,1.0546875,0,0
-2.00886715902016E-05,1.02845324363443E-05,1.0546875,0,0
-1.83967622433556E-05,1.14689555630321E-05,1.0546875,0,0
-1.65632318385178E-05,1.17496665552608E-05,1.0546875,0,0
-1.67472117027501E-05,1.21087005027221E-05,1.0546875,0,0
-1.78145073732594E-05,1.25235183077166E-05,1.0546875,0,0
-1.83285210368922E-05,1.23182262541377E-05,1.0546875,0,0
-1.48711460496997E-05,7.77827881393023E-06,1.0546875,0,0
-2.10617163247662E-05,9.96177186607383E-06,1.0546875,0,0
-1.68666356330505E-05,7.52772348278086E-06,1.0546875,0,0
-2.1355055650929E-05,9.3448315965361E-06,1.0546875,0,0
-1.87938385352027E-05,5.74654541196651E-06,1.0546875,0,0
-2.30821024160832E-05,7.19594299880555E-06,1.0546875,0,0
-2.42780333792325E-05,7.23052789908252E-06,1.0546875,0,0
-2.70807704509934E-05,8.10603705758695E-06,1.0546875,0,0
-2.7979589503957E-05,8.09604080131976E-06,1.0546875,0,0
-2.87590064544929E-05,8.11727204563795E-06,1.0546875,0,0
-2.9585067750304E-05,7.78951653046533E-06,1.0546875,0,0
-2.95086083497154E-05,7.72464591136668E-06,1.0546875,0,0
-3.01543786918046E-05,8.7378630269086E-06,1.0546875,0,0
-2.95978352369275E-05,8.23259597382275E-06,1.0546875,0,0
-3.12467782350723E-05,7.82595634518657E-06,1.0546875,0,0
-3.11809453705791E-05,6.74179818815901E-06,1.0546875,0,0
-3.14657809212804E-05,7.13016379449982E-06,1.0546875,0,0
-2.91751130134799E-05,6.64778235659469E-06,1.0546875,0,0
-2.95928584819194E-05,6.63976152281975E-06,1.0546875,0,0
-3.03176220768364E-05,4.81573079014197E-06,1.0546875,0,0
-3.19656501233112E-05,4.10709253628738E-06,1.0546875,0,0
-3.14361386699602E-05,4.3221239138802E-06,1.0546875,0,0
-3.05841385852546E-05,6.2070248532109E-06,1.0546875,0,0
-2.9626226023538E-05,8.18863554741256E-06,1.0546875,0,0
-3.02178486890625E-05,8.93706874194322E-06,1.0546875,0,0
-3.0025537853362E-05,7.8998955359566E-06,1.0546875,0,0
-2.91311735054478E-05,7.11360280547524E-06,1.0546875,0,0
-2.24539307964733E-05,5.18867955179303E-06,1.0546875,0,0
-3.14151693601161E-05,8.78665377967991E-06,1.0546875,0,0
-2.34340677707223E-05,8.09548055258347E-06,1.0546875,0,0
-2.79356718237977E-05,7.11477878212463E-06,1.0546875,0,0
-2.10474463528953E-05,4.6397140067711E-06,1.0546875,0,0
-2.45057435677154E-05,7.88498618931044E-06,1.0546875,0,0
-2.36455289268633E-05,1.02624453575118E-05,1.0546875,0,0
-2.68905187112978E-05,1.16795799840475E-05,1.0546875,0,0
-2.77545896096854E-05,1.27073035400826E-05,1.0546875,0,0
-2.8763031878043E-05,1.32671302708331E-05,1.0546875,0,0
-2.87980492430506E-05,1.17486542876577E-05,1.0546875,0,0
-2.68468083959306E-05,8.95969242264982E-06,1.0546875,0,0
-2.63734200416366E-05,7.70492988522165E-06,1.0546875,0,0
-2.36270116147352E-05,7.23196080798516E-06,1.0546875,0,0
-2.38188713410636E-05,7.94016978034051E-06,1.0546875,0,0
-2.23867864406202E-05,8.33079502626788E-06,1.0546875,0,0
-2.285851041961E-05,9.05367596715223E-06,1.0546875,0,0
-1.96637029148405E-05,8.70864369062474E-06,1.0546875,0,0
-1.80624720087508E-05,8.45796694193268E-06,1.0546875,0,0
-1.42684157253825E-05,8.41597557155183E-06,1.0546875,0,0
-1.33467219711747E-05,8.60656109580304E-06,1.0546875,0,0
-1.24619764392264E-05,8.19697288534371E-06,1.0546875,0,0
-1.34295933094108E-05,8.33820467960322E-06,1.0546875,0,0
-1.3840091014572E-05,7.9625806392869E-06,1.0546875,0,0
-1.65347628353629E-05,8.08742152003106E-06,1.0546875,0,0
-1.94228687178111E-05,9.24925552681088E-06,1.0546875,0,0
-2.05084561457625E-05,1.09951470221858E-05,1.0546875,0,0
-1.65037599799689E-05,1.00624083643197E-05,1.0546875,0,0
-2.25955427595181E-05,1.45957365020877E-05,1.0546875,0,0
-1.79972867044853E-05,1.14100566861453E-05,1.0546875,0,0
-2.52355730481213E-05,1.45712638186524E-05,1.0546875,0,0
-2.37981366808526E-05,1.22198416647734E-05,1.0546875,0,0
-2.76685877906857E-05,1.26771446957719E-05,1.0546875,0,0
-2.69542142632417E-05,1.12265734060202E-05,1.0546875,0,0
-2.84398811345454E-05,1.10781475086696E-05,1.0546875,0,0
-2.79972173302667E-05,1.09581269498449E-05,1.0546875,0,0
-2.82087585219415E-05,1.14410249807406E-05,1.0546875,0,0
-2.93962293653749E-05,1.13970236270688E-05,1.0546875,0,0
-3.00252540910151E-05,1.10992450572667E-05,1.0546875,0,0
-3.16280929837376E-05,1.15958964670426E-05,1.0546875,0,0
-3.08527050947305E-05,1.13496198537177E-05,1.0546875,0,0
-3.21629595418926E-05,1.18985535664251E-05,1.0546875,0,0
-3.1887881050352E-05,1.14270505946479E-05,1.0546875,0,0
-3.24867905874271E-05,1.17332692752825E-05,1.0546875,0,0
-3.06826696032658E-05,1.10645123641007E-05,1.0546875,0,0
-3.10051764245145E-05,1.14808563012048E-05,1.0546875,0,0
-2.95898444164777E-05,1.07647938420996E-05,1.0546875,0,0
-2.82653036265401E-05,1.09672264443361E-05,1.0546875,0,0
-2.5662244297564E-05,1.06219840745325E-05,1.0546875,0,0
-2.55141803791048E-05,1.12290581455454E-05,1.0546875,0,0
-2.54445440077689E-05,1.14275517262286E-05,1.0546875,0,0
-2.4814060452627E-05,1.2380920452415E-05,1.0546875,0,0
-2.39552173297852E-05,1.26148415802163E-05,1.0546875,0,0
-2.37017466133693E-05,1.03230131571763E-05,1.0546875,0,0
-1.81127397809178E-05,5.98899714532308E-06,1.0546875,0,0
-2.37600179389119E-05,9.70216569839977E-06,1.0546875,0,0
-1.51126105265575E-05,1.1238434126426E-05,1.0546875,0,0
-1.9348670321051E-05,1.49317993418663E-05,1.0546875,0,0
-1.65595793077955E-05,1.29292111523682E-05,1.0546875,0,0
-2.05873184313532E-05,1.26189670481835E-05,1.0546875,0,0
-1.84428245120216E-05,1.1174037354067E-05,1.0546875,0,0
-1.85388344107196E-05,1.22222372738179E-05,1.0546875,0,0
-1.74243541550823E-05,1.21967614177265E-05,1.0546875,0,0
-1.83231586561305E-05,1.13908808998531E-05,1.0546875,0,0
-2.06016684387578E-05,1.08020522020524E-05,1.0546875,0,0
-2.06116546905832E-05,1.07784808278666E-05,1.0546875,0,0
-1.91690160136204E-05,1.17093659355305E-05,1.0546875,0,0
-1.63018248713342E-05,1.2023889212287E-05,1.0546875,0,0
-1.70545572473202E-05,1.32921313706902E-05,1.0546875,0,0
-1.65387664310401E-05,1.42059589052224E-05,1.0546875,0,0
-1.83538650162518E-05,1.50911282617017E-05,1.0546875,0,0
-1.88086705747992E-05,1.31102306113462E-05,1.0546875,0,0
-2.10979851544835E-05,1.0551202649367E-05,1.0546875,0,0
-2.15418040170334E-05,9.17545639822492E-06,1.0546875,0,0
-2.37526110140607E-05,1.12432626337977E-05,1.0546875,0,0
-2.45464216277469E-05,1.39047069751541E-05,1.0546875,0,0
-2.62574740190757E-05,1.57408412633231E-05,1.0546875,0,0
-2.65540493273875E-05,1.69805352925323E-05,1.0546875,0,0
-2.71650842478266E-05,1.9121171135339E-05,1.0546875,0,0
-2.77526287391083E-05,2.01871334866155E-05,1.0546875,0,0
-2.83564986602869E-05,1.94981603272026E-05,1.0546875,0,0
-2.32858183153439E-05,1.46911434057984E-05,1.0546875,0,0
-3.30855473293923E-05,2.15708369069034E-05,1.0546875,0,0
-2.5606517738197E-05,1.9526478354237E-05,1.0546875,0,0
-3.19517057505436E-05,2.50367029366316E-05,1.0546875,0,0
-2.6342559067416E-05,2.04057396331336E-05,1.0546875,0,0
-2.86984250124078E-05,2.17472916119732E-05,1.0546875,0,0
-2.60778488154756E-05,1.89613183465553E-05,1.0546875,0,0
-2.64405662164791E-05,1.797607728804E-05,1.0546875,0,0
-2.3813932784833E-05,1.54519020725274E-05,1.0546875,0,0
-2.34307972277747E-05,1.2819255971408E-05,1.0546875,0,0
-2.43153681367403E-05,1.09521424747072E-05,1.0546875,0,0
-2.34126655414002E-05,9.77944637270411E-06,1.0546875,0,0
-2.2955877284403E-05,1.0809183550009E-05,1.0546875,0,0
-2.00011236302089E-05,1.03688744275132E-05,1.0546875,0,0
-2.01670209207805E-05,1.07350297184894E-05,1.23046875,0,0
-1.92571260413388E-05,9.25232779991347E-06,1.23046875,0,0
-2.23293736780761E-05,9.54102506511845E-06,1.23046875,0,0
-2.31822323257802E-05,8.62191245687427E-06,1.23046875,0,0
-2.57216161116958E-05,9.41486905503552E-06,1.23046875,0,0
-2.55205013672821E-05,8.44280020828592E-06,1.23046875,0,0
-2.69826505245874E-05,8.78455739439232E-06,1.23046875,0,0
-2.6624486054061E-05,8.25600909593049E-06,1.23046875,0,0
-2.68839721684344E-05,8.00267116574105E-06,1.23046875,0,0
-2.59473417827394E-05,7.14272255208925E-06,1.23046875,0,0
-2.67315408564173E-05,7.163959708123E-06,1.23046875,0,0
-2.86477097688476E-05,6.21572553427541E-06,1.23046875,0,0
-3.01896707242122E-05,4.08990490541328E-06,1.23046875,0,0
-2.3836308173486E-05,2.49013692155131E-06,1.23046875,0,0
-3.33292191498913E-05,4.10148868468241E-06,1.23046875,0,0
-2.48032138188137E-05,4.91286300530192E-06,1.23046875,0,0
-3.11421645164955E-05,6.63198443362489E-06,1.23046875,0,0
-2.6413985324325E-05,4.99113048135769E-06,1.23046875,0,0
-3.00161154882517E-05,3.09950451082841E-06,1.23046875,0,0
-2.73531331913546E-05,2.01477428163344E-06,1.23046875,0,0
-2.75011898338562E-05,1.63430468091974E-06,1.23046875,0,0
-2.40574227063917E-05,1.32569425659312E-06,1.23046875,0,0
-2.16519056266407E-05,1.58819409534772E-06,1.23046875,0,0
-2.09160680242348E-05,1.83861118330242E-06,1.23046875,0,0
-2.01120383280795E-05,1.17520460207743E-06,1.23046875,0,0
-2.08259170904057E-05,1.31316699025774E-06,1.23046875,0,0
-1.88236626854632E-05,1.51019787608675E-06,1.23046875,0,0
-2.01629827643046E-05,1.34554841224599E-06,1.23046875,0,0
-2.05784072022652E-05,4.60369363963764E-07,1.23046875,0,0
-2.37366530200234E-05,4.33278216860344E-07,1.23046875,0,0
-2.2626774807577E-05,1.27790247006487E-06,1.23046875,0,0
-2.28437984333141E-05,2.60352749137382E-06,1.23046875,0,0
-2.11277765629347E-05,2.78590528068889E-06,1.23046875,0,0
-2.16866610571742E-05,2.02080036615371E-06,1.23046875,0,0
-2.09287700272398E-05,1.86596867024491E-06,1.23046875,0,0
-2.19851262954762E-05,2.91421406473091E-06,1.23046875,0,0
-2.24363611778244E-05,3.9624892451684E-06,1.23046875,0,0
-2.2796775738243E-05,3.93024947697995E-06,1.23046875,0,0
-2.10706966754515E-05,3.96551195080974E-06,1.23046875,0,0
-1.90693954209564E-05,4.07206471209065E-06,1.23046875,0,0
-1.46007414514315E-05,3.40613883054175E-06,1.23046875,0,0
-2.0805355234188E-05,6.28302586846985E-06,1.23046875,0,0
-1.61296793521615E-05,6.92608955432661E-06,1.23046875,0,0
-1.99527075892547E-05,7.57097450332367E-06,1.23046875,0,0
-1.62491560331546E-05,6.35531796433497E-06,1.23046875,0,0
-1.59795727086021E-05,7.41714484320255E-06,1.23046875,0,0
-1.17408781079575E-05,8.03625971457222E-06,1.23046875,0,0
-1.11280423880089E-05,8.87183705344796E-06,1.23046875,0,0
-1.18352973004221E-05,9.6510893854429E-06,1.23046875,0,0
-1.46071597555419E-05,1.09057591544115E-05,1.23046875,0,0
-1.70250641531311E-05,1.13949527076329E-05,1.23046875,0,0
-1.81716750375926E-05,1.00942434073659E-05,1.23046875,0,0
-2.01091861526947E-05,8.39215044834418E-06,1.23046875,0,0
-2.04904390557203E-05,6.99871225151583E-06,1.23046875,0,0
-2.32223810598953E-05,8.01476744527463E-06,1.23046875,0,0
-2.52462396019837E-05,1.00319048215169E-05,1.23046875,0,0
-2.78556144621689E-05,1.10322162072407E-05,1.23046875,0,0
-2.69638567260699E-05,1.0136267519556E-05,1.23046875,0,0
-2.71141580014955E-05,9.81937046162784E-06,1.23046875,0,0
-2.67479481408373E-05,1.01299483503681E-05,1.23046875,0,0
-2.71934532065643E-05,9.83123754849657E-06,1.23046875,0,0
-2.59331063716672E-05,7.96131462266203E-06,1.23046875,0,0
-2.63263300439576E-05,7.68524478189647E-06,1.23046875,0,0
-2.76204373221844E-05,9.8606460596784E-06,1.23046875,0,0
-2.90534808300436E-05,1.14863469207194E-05,1.23046875,0,0
-2.932387542387E-05,1.10238624984049E-05,1.23046875,0,0
-2.87862203549594E-05,1.05149119917769E-05,1.23046875,0,0
-2.35446950682672E-05,1.02013773357612E-05,1.23046875,0,0
-3.36172306560911E-05,1.60999261424877E-05,1.23046875,0,0
-2.5700093829073E-05,1.53700293594738E-05,1.23046875,0,0
-3.15503384626936E-05,1.94398471649038E-05,1.23046875,0,0
-2.54613405559212E-05,1.69177674251841E-05,1.23046875,0,0
-2.69970805675257E-05,1.68426031450508E-05,1.23046875,0,0
-2.32516194955679E-05,1.45752410389832E-05,1.23046875,0,0
-2.33194368775003E-05,1.47868222484249E-05,1.23046875,0,0
-2.15979198401328E-05,1.60913914442062E-05,1.23046875,0,0
-2.23383776756236E-05,1.80031347554177E-05,1.23046875,0,0
-2.45968876697589E-05,1.77689635165734E-05,1.23046875,0,0
-2.47095886152238E-05,1.61115549417445E-05,1.23046875,0,0
-2.46503987000324E-05,1.50718251461512E-05,1.23046875,0,0
-2.29816723731346E-05,1.27567327581346E-05,1.23046875,0,0
-2.42937549046474E-05,1.29001127788797E-05,1.23046875,0,0
-2.27864748012507E-05,1.48578819789691E-05,1.23046875,0,0
-2.34755589190172E-05,1.82681942533236E-05,1.23046875,0,0
-2.21114714804571E-05,1.90155296877492E-05,1.23046875,0,0
-2.39731798501452E-05,1.89240381587297E-05,1.23046875,0,0
-2.4056369511527E-05,1.67384569067508E-05,1.23046875,0,0
-2.56330949923722E-05,1.65675392054254E-05,1.23046875,0,0
-2.46275758399861E-05,1.71284154930618E-05,1.23046875,0,0
-2.45621067733737E-05,1.83055672096089E-05,1.23046875,0,0
-2.40073331951862E-05,1.87746572919423E-05,1.23046875,0,0
-2.53310008702101E-05,1.76385929080425E-05,1.23046875,0,0
-2.61536224570591E-05,1.70849925780203E-05,1.23046875,0,0
-2.58655345533043E-05,1.83212396223098E-05,1.23046875,0,0
-1.97529188881163E-05,1.42933504321263E-05,1.23046875,0,0
-2.71281824097969E-05,2.04533880605595E-05,1.23046875,0,0
-2.04397856577998E-05,1.47880591612193E-05,1.23046875,0,0
-2.69774445769144E-05,1.6773246898083E-05,1.23046875,0,0
-2.29021370614646E-05,1.33391831695917E-05,1.23046875,0,0
-2.53422185778618E-05,1.66421395988436E-05,1.23046875,0,0
-2.29925972234923E-05,1.66629306477262E-05,1.23046875,0,0
-2.40837016463047E-05,1.68524384207558E-05,1.23046875,0,0
-2.40144818235422E-05,1.40861075124121E-05,1.23046875,0,0
-2.58219006354921E-05,1.2828368198825E-05,1.23046875,0,0
-2.82974560832372E-05,1.24080297609908E-05,1.23046875,0,0
-2.83951212622924E-05,1.18039088192745E-05,1.23046875,0,0
-2.88770279439632E-05,1.28980000226875E-05,1.23046875,0,0
-2.68618423433509E-05,1.31138431243016E-05,1.23046875,0,0
-2.63687088590814E-05,1.46445745485835E-05,1.23046875,0,0
-2.37864624068607E-05,1.27955518109957E-05,1.23046875,0,0
-2.43220765696606E-05,1.08327503767214E-05,1.23046875,0,0
-2.37336789723486E-05,8.66379559738562E-06,1.23046875,0,0
-2.5987177650677E-05,1.06423394754529E-05,1.23046875,0,0
-2.75697002507513E-05,1.19158785309992E-05,1.23046875,0,0
-3.03322376566939E-05,1.35591944854241E-05,1.23046875,0,0
-2.97225979011273E-05,1.38287450681673E-05,1.23046875,0,0
-2.89301187876845E-05,1.44012356031453E-05,1.23046875,0,0
-2.7974392651231E-05,1.33969360831543E-05,1.23046875,0,0
-2.88936007564189E-05,1.1815578545793E-05,1.23046875,0,0
-2.93376087938668E-05,1.15014336188324E-05,1.23046875,0,0
-2.90594471152872E-05,1.08762114905403E-05,1.23046875,0,0
-2.2875341528561E-05,8.8830392996897E-06,1.23046875,0,0
-3.21140869345982E-05,1.30690277728718E-05,1.23046875,0,0
-2.52193094638642E-05,1.06397692434257E-05,1.23046875,0,0
-3.33581738232169E-05,1.19010692287702E-05,1.23046875,0,0
-2.91347823804244E-05,9.02183546713786E-06,1.23046875,0,0
-3.24029060720932E-05,1.14112281153211E-05,1.23046875,0,0
-3.0603969207732E-05,1.28160718304571E-05,1.23046875,0,0
-3.26553526974749E-05,1.36552334879525E-05,1.23046875,0,0
-3.22434862027876E-05,1.31611386677832E-05,1.23046875,0,0
-3.15610086545348E-05,1.43439838211634E-05,1.23046875,0,0
-3.12185584334657E-05,1.57863742060727E-05,1.23046875,0,0
-2.99842504318804E-05,1.4617022316088E-05,1.23046875,0,0
-2.90210118691903E-05,1.19713276944822E-05,1.23046875,0,0
-2.54232236329699E-05,8.84703422343591E-06,1.23046875,0,0
-2.63365654973313E-05,9.62550620897673E-06,1.23046875,0,0
-2.70576274488121E-05,1.10918263089843E-05,1.23046875,0,0
-2.91824399027973E-05,1.2597053682839E-05,1.23046875,0,0
-2.65995677182218E-05,1.21049224617309E-05,1.23046875,0,0
-2.63471574726282E-05,1.18691423267592E-05,1.23046875,0,0
-2.54083352047019E-05,1.11872841443983E-05,1.23046875,0,0
-2.58000800386071E-05,1.18536672744085E-05,1.23046875,0,0
-2.34819926845375E-05,1.14566455522436E-05,1.23046875,0,0
-2.26206448132871E-05,1.04577402453288E-05,1.23046875,0,0
-2.19581852434203E-05,8.5101983131608E-06,1.23046875,0,0
-2.36845044128131E-05,7.29291559764533E-06,1.23046875,0,0
-2.61336317635141E-05,7.15509941073833E-06,1.23046875,0,0
-2.79669675364858E-05,6.94860273142695E-06,1.23046875,0,0
-2.37087842833716E-05,6.69267865305301E-06,1.23046875,0,0
-3.29928952851333E-05,1.05115232145181E-05,1.23046875,0,0
-2.29596789722564E-05,9.03033651411533E-06,1.23046875,0,0
-2.78018414974213E-05,1.06694906207849E-05,1.23046875,0,0
-2.32686888921307E-05,9.49815330386627E-06,1.23046875,0,0
-2.6547835659585E-05,9.9798116934835E-06,1.23046875,0,0
-2.33087084779982E-05,9.14032170840073E-06,1.23046875,0,0
-2.43856957240496E-05,8.40965913084801E-06,1.23046875,0,0
-2.40774443227565E-05,7.32591433916241E-06,1.23046875,0,0
-2.31259546126239E-05,7.58233954911702E-06,1.23046875,0,0
-2.08446290344E-05,8.91780746314907E-06,1.23046875,0,0
-1.79123926500324E-05,1.13622863864293E-05,1.23046875,0,0
-1.85847911780002E-05,1.37940096465172E-05,1.23046875,0,0
-1.71057963598287E-05,1.35800419229781E-05,1.23046875,0,0
-1.66961017384892E-05,1.32420209411066E-05,1.23046875,0,0
-1.36368544190191E-05,1.25935812320677E-05,1.23046875,0,0
-1.42161015901365E-05,1.21324274005019E-05,1.23046875,0,0
-1.31710085042869E-05,9.31685463001486E-06,1.23046875,0,0
-1.48153994814493E-05,6.85936038280488E-06,1.23046875,0,0
-1.41652117235935E-05,5.73809120396618E-06,1.23046875,0,0
-1.40283555083442E-05,6.27072677161777E-06,1.23046875,0,0
-1.23537574836519E-05,7.05659931554692E-06,2.28515625,0,0
-1.33100966195343E-05,7.6124383667775E-06,2.28515625,0,0
-1.41044465635787E-05,6.93330093781697E-06,2.28515625,0,0
-1.53415894601494E-05,6.49890262138797E-06,2.28515625,0,0
-1.53632227011258E-05,6.51367099635536E-06,2.28515625,0,0
-1.45577541843522E-05,7.44684621167835E-06,2.28515625,0,0
-1.17569752546842E-05,7.49889341022936E-06,2.28515625,0,0
-1.67251146194758E-05,1.14207787191845E-05,2.28515625,0,0
-1.25432034110418E-05,9.01598559721606E-06,2.28515625,0,0
-1.50830619531916E-05,9.14892552827951E-06,2.28515625,0,0
-1.32881932586315E-05,5.74852583667962E-06,2.28515625,0,0
-1.59389874170301E-05,7.77070272306446E-06,2.28515625,0,0
-1.5452589650522E-05,9.60324541665614E-06,2.28515625,0,0
-1.59516948770033E-05,1.04093651316362E-05,2.28515625,0,0
-1.6306299585267E-05,8.66962182044517E-06,2.28515625,0,0
-1.76019584614551E-05,5.7425409067946E-06,2.28515625,0,0
-1.88761223398615E-05,5.64351830689702E-06,2.28515625,0,0
-2.02451574295992E-05,7.77399327489547E-06,2.28515625,0,0
-2.19312787521631E-05,9.37236563913757E-06,2.28515625,0,0
-2.11338556255214E-05,8.22465517558157E-06,2.28515625,0,0
-2.21301852434408E-05,7.34056948203943E-06,2.28515625,0,0
-2.37417189055122E-05,7.59645718062529E-06,2.28515625,0,0
-2.75081911240704E-05,9.66402967605973E-06,2.28515625,0,0
-2.92160548269749E-05,1.00970164567116E-05,2.28515625,0,0
-3.0702751246281E-05,9.05624801816884E-06,2.28515625,0,0
-3.04096356558148E-05,6.65307607050636E-06,2.28515625,0,0
-3.05622525047511E-05,6.02424279350089E-06,2.28515625,0,0
-3.03607503155945E-05,6.11335281064385E-06,2.28515625,0,0
-3.20475119224284E-05,6.5132317104144E-06,2.28515625,0,0
-3.32884956151247E-05,7.74345699028345E-06,2.28515625,0,0
-3.32924537360668E-05,9.850333299255E-06,2.28515625,0,0
-3.15403995045926E-05,1.05599447124405E-05,2.28515625,0,0
-2.96012003673241E-05,1.02741842056275E-05,2.28515625,0,0
-2.4075265173451E-05,7.48526463212329E-06,2.28515625,0,0
-3.49321016983595E-05,9.33127557800617E-06,2.28515625,0,0
-2.69118318101391E-05,5.44093518328737E-06,2.28515625,0,0
-3.19815371767618E-05,6.98429721524008E-06,2.28515625,0,0
-2.51771816692781E-05,5.3443327487912E-06,2.28515625,0,0
-2.73619152721949E-05,6.12061103311135E-06,2.28515625,0,0
-2.55791492236312E-05,2.49745335167972E-06,2.28515625,0,0
-2.85707701550564E-05,4.96089683110768E-07,2.28515625,0,0
-2.92198983515846E-05,4.60940043467417E-07,2.28515625,0,0
-2.9848617487005E-05,2.49718482336903E-06,2.28515625,0,0
-2.99366838589776E-05,3.83007454729523E-06,2.28515625,0,0
-2.9147915483918E-05,3.52483334609133E-06,2.28515625,0,0
-2.94352266791975E-05,3.27375528286211E-06,2.28515625,0,0
-2.69901811407181E-05,1.86621230113815E-06,2.28515625,0,0
-2.68519161181757E-05,2.34988237934886E-06,2.28515625,0,0
-2.50331322604325E-05,3.77220453628979E-06,2.28515625,0,0
-2.61472014244646E-05,6.92456978867995E-06,2.28515625,0,0
-2.41485431615729E-05,8.62683918967377E-06,2.28515625,0,0
-2.38317206822103E-05,9.59704721026355E-06,2.28515625,0,0
-2.11632795981131E-05,8.0848258221522E-06,2.28515625,0,0
-2.05336582439486E-05,6.87683359501534E-06,2.28515625,0,0
-1.86845209100284E-05,5.92795367992949E-06,2.28515625,0,0
-1.92347451957176E-05,6.4447726799699E-06,2.28515625,0,0
-1.90687314898241E-05,6.07402580499183E-06,2.28515625,0,0
-1.92562110896688E-05,5.76503180127474E-06,2.28515625,0,0
-2.00990762095898E-05,7.95272444520378E-06,2.28515625,0,0
-2.16197986446787E-05,9.91763226920739E-06,2.28515625,0,0
-1.78663522092393E-05,7.76642900746083E-06,2.28515625,0,0
-2.57134652201785E-05,1.06297493402963E-05,2.28515625,0,0
-2.01780076167779E-05,8.21996036393102E-06,2.28515625,0,0
-2.52101708611008E-05,1.05746757981251E-05,2.28515625,0,0
-2.32842685363721E-05,8.58173370943405E-06,2.28515625,0,0
-2.78947009064723E-05,1.06246734503657E-05,2.28515625,0,0
-2.82155215245439E-05,1.03647225841996E-05,2.28515625,0,0
-3.05202738672961E-05,9.44972271099687E-06,2.28515625,0,0
-2.96349098789506E-05,7.48031243347214E-06,2.28515625,0,0
-2.83888130070409E-05,7.17728107701987E-06,2.28515625,0,0
-2.68137009697966E-05,9.42961651162477E-06,2.28515625,0,0
-2.59269199887058E-05,1.19334181363229E-05,2.28515625,0,0
-2.72643737844191E-05,1.37495871967985E-05,2.28515625,0,0
-2.59102671407163E-05,1.42914559546625E-05,2.28515625,0,0
-2.5505567464279E-05,1.66593745234422E-05,2.28515625,0,0
-2.27737291425001E-05,1.85037915798603E-05,2.28515625,0,0
-2.11043352464912E-05,1.92920997506008E-05,2.28515625,0,0
-1.7587128240848E-05,1.72900181496516E-05,2.28515625,0,0
-1.74771284946473E-05,1.65647070389241E-05,2.28515625,0,0
-1.66925274243113E-05,1.71021674759686E-05,2.28515625,0,0
-1.7974332877202E-05,1.84144300874323E-05,2.28515625,0,0
-1.91950875887414E-05,1.68528749782126E-05,2.28515625,0,0
-2.10905691346852E-05,1.4353695405589E-05,2.28515625,0,0
-2.07269476959482E-05,1.24325197248254E-05,2.28515625,0,0
-2.06317818083335E-05,1.31298820633674E-05,2.28515625,0,0
-2.01010261662304E-05,1.55033230839763E-05,2.28515625,0,0
-2.02800965780625E-05,1.71718438650714E-05,2.28515625,0,0
-1.71629872056656E-05,1.42813878483139E-05,2.28515625,0,0
-2.47691950789886E-05,2.04646712518297E-05,2.28515625,0,0
-1.84048185474239E-05,1.35121645143954E-05,2.28515625,0,0
-2.25634157686727E-05,1.21025523185381E-05,2.28515625,0,0
-1.99634960154071E-05,4.61309491583961E-06,2.28515625,0,0
-2.32557304116199E-05,5.26342682860559E-06,2.28515625,0,0
-2.31765588978305E-05,4.70916847916669E-06,2.28515625,0,0
-2.56573239312274E-05,8.20570949144894E-06,2.28515625,0,0
-2.76029495580588E-05,1.23659719974967E-05,2.28515625,0,0
-3.00084793707356E-05,1.6697209503036E-05,2.28515625,0,0
-3.08020280499477E-05,1.81505292857764E-05,2.28515625,0,0
-3.02603439195082E-05,1.61925072461599E-05,2.28515625,0,0
-3.11421863443684E-05,1.49110337588354E-05,2.28515625,0,0
-3.08500966639258E-05,1.3759393368673E-05,2.28515625,0,0
-3.17914273182396E-05,1.53617693285923E-05,2.28515625,0,0
-2.97764054266736E-05,1.52811880980153E-05,2.28515625,0,0
-2.84251073026098E-05,1.62001833814429E-05,2.28515625,0,0
-2.57015399256488E-05,1.58495367941214E-05,2.28515625,0,0
-2.56368093687342E-05,1.70471048477339E-05,2.28515625,0,0
-2.46175604843302E-05,1.65129440574674E-05,2.28515625,0,0
-2.47903226409107E-05,1.6969828720903E-05,2.28515625,0,0
-2.35878233070252E-05,1.7233405742445E-05,2.28515625,0,0
-2.33775062952191E-05,1.87717887456529E-05,2.28515625,0,0
-2.23717579501681E-05,2.0809051420656E-05,2.28515625,0,0
-2.17582874029176E-05,2.26808715524385E-05,2.28515625,0,0
-2.15858744923025E-05,2.23412771447329E-05,2.28515625,0,0
-2.15237887459807E-05,2.19797002500854E-05,2.28515625,0,0
-1.67502894328209E-05,1.70143212017138E-05,2.28515625,0,0
-2.37987660511862E-05,2.27471773541765E-05,2.28515625,0,0
-1.81441882887157E-05,1.48136259667808E-05,2.28515625,0,0
-2.19707708311034E-05,1.81906598299975E-05,2.28515625,0,0
-1.71070350916125E-05,1.33386938614422E-05,2.28515625,0,0
-1.74969900399446E-05,1.52840657392517E-05,2.28515625,0,0
-1.53000055433949E-05,1.38507202791516E-05,2.28515625,0,0
-1.76014418684645E-05,1.55743327923119E-05,2.28515625,0,0
-1.88175908988342E-05,1.65114379342413E-05,2.28515625,0,0
-2.1135512724868E-05,1.74364049598807E-05,2.28515625,0,0
-2.26085157919442E-05,1.73099724634085E-05,2.28515625,0,0
-2.32664660870796E-05,1.48200269904919E-05,2.28515625,0,0
-2.50404118560255E-05,1.18430862130481E-05,2.28515625,0,0
-2.37795975408517E-05,7.05120783095481E-06,2.28515625,0,0
-2.30709101742832E-05,6.81924348100438E-06,2.28515625,0,0
-2.1005700546084E-05,7.74429281591438E-06,2.28515625,0,0
-2.14548599615227E-05,9.44649764278438E-06,2.28515625,0,0
-2.02261253434699E-05,6.75324781695963E-06,2.28515625,0,0
-2.09383997571422E-05,5.9919821069343E-06,2.28515625,0,0
-1.98729831026867E-05,6.57198506814893E-06,2.28515625,0,0
-1.99432233785046E-05,9.68044423643732E-06,2.28515625,0,0
-1.84588516276563E-05,1.00359875432332E-05,2.28515625,0,0
-1.72313157236204E-05,9.33454975893255E-06,2.28515625,0,0
-1.54601366375573E-05,7.99363624537364E-06,2.28515625,0,0
-1.52260963659501E-05,6.81242454447784E-06,2.28515625,0,0
-1.6617927030893E-05,3.98485872210586E-06,2.28515625,0,0
-1.94130152522121E-05,2.97107499136473E-06,2.28515625,0,0
-1.79892431333428E-05,4.00184262616676E-06,2.28515625,0,0
-2.71029111900134E-05,8.45178601593943E-06,2.28515625,0,0
-2.11460755963344E-05,1.08057929537608E-05,2.28515625,0,0
-2.38529446505709E-05,1.29374111565994E-05,2.28515625,0,0
-1.97155877685873E-05,1.19752912723925E-05,2.28515625,0,0
-2.3072328986018E-05,1.22725732580875E-05,2.28515625,0,0
-2.37672757066321E-05,1.48368962982204E-05,2.28515625,0,0
-2.69134689006023E-05,1.60777781275101E-05,2.28515625,0,0
-2.83797853626311E-05,1.41324480864569E-05,2.28515625,0,0
-3.0535004043486E-05,1.09944558062125E-05,2.28515625,0,0
-3.30348811985459E-05,8.51435743243201E-06,2.28515625,0,0
-3.37462479365058E-05,7.33696924726246E-06,2.28515625,0,0
-3.38912504957989E-05,7.12097744326456E-06,2.28515625,0,0
-3.08290218526963E-05,6.82344943925273E-06,2.28515625,0,0
-2.93979865091387E-05,7.86098007665714E-06,2.28515625,0,0
-2.7032538127969E-05,1.00292581919348E-05,2.28515625,0,0
-2.77862454822753E-05,1.14776830741903E-05,2.28515625,0,0
-2.78887309832498E-05,1.06395200418774E-05,2.28515625,0,0
-2.94621331704548E-05,1.00767929325229E-05,2.28515625,0,0
-2.88973296846962E-05,1.02572867035633E-05,2.28515625,0,0
-2.89514428004622E-05,9.80052845989121E-06,2.28515625,0,0
-2.82661385426763E-05,8.52380708238343E-06,2.28515625,0,0
-2.91282376565505E-05,8.75967725733062E-06,2.28515625,0,0
-2.89264462480787E-05,1.04935252238647E-05,2.28515625,0,0
-2.86007743852679E-05,1.11905274025048E-05,2.28515625,0,0
-2.84089928754838E-05,1.02742715171189E-05,2.28515625,0,0
-2.90405769192148E-05,8.86360157892341E-06,4.04296875,0,0
-2.46329054789385E-05,5.16045884069172E-06,4.04296875,0,0
-3.58248689735774E-05,5.92165861235117E-06,4.04296875,0,0
-2.80845761153614E-05,3.74257979274262E-06,4.04296875,0,0
-3.45133048540447E-05,5.96428117205505E-06,4.04296875,0,0
-2.95247136818944E-05,2.73301770903345E-06,4.04296875,0,0
-3.27938723785337E-05,9.0720629941643E-07,4.04296875,0,0
-2.90675488940906E-05,-4.86692158574442E-07,4.04296875,0,0
-2.75647471426055E-05,8.38995219965E-07,4.04296875,0,0
-2.342886000406E-05,2.98871418635827E-06,4.04296875,0,0
-2.16350290429546E-05,5.11126290803077E-06,4.04296875,0,0
-2.18783534364775E-05,4.69764063382172E-06,4.04296875,0,0
-2.17800625250675E-05,3.25838141179702E-06,4.04296875,0,0
-2.37564454437234E-05,3.67045640814467E-06,4.04296875,0,0
-2.35591269301949E-05,4.77424282507855E-06,4.04296875,0,0
-2.49952063313685E-05,5.99356553721009E-06,4.04296875,0,0
-2.26560714509105E-05,5.38575113750994E-06,4.04296875,0,0
-2.27706132136518E-05,4.52966060038307E-06,4.04296875,0,0
-2.08108831429854E-05,3.68283076568332E-06,4.04296875,0,0
-2.14441915886709E-05,5.10728978042607E-06,4.04296875,0,0
-2.07014581974363E-05,5.72257613384863E-06,4.04296875,0,0
-2.26949123316444E-05,4.51676396551193E-06,4.04296875,0,0
-2.32769871217897E-05,3.01594104712422E-06,4.04296875,0,0
-2.41112447838532E-05,4.58494696431444E-06,4.04296875,0,0
-2.22802191274241E-05,6.32441924608429E-06,4.04296875,0,0
-2.01016428036382E-05,7.39559027351788E-06,4.04296875,0,0
-1.73461394297192E-05,7.54497705202084E-06,4.04296875,0,0
-1.58450311573688E-05,7.54569146010908E-06,4.04296875,0,0
-1.27059884107439E-05,5.85774660066818E-06,4.04296875,0,0
-1.91370236279909E-05,9.10772178031038E-06,4.04296875,0,0
-1.78803547896678E-05,8.75426030688686E-06,4.04296875,0,0
-2.30590467253933E-05,1.09211459857761E-05,4.04296875,0,0
-2.15650470636319E-05,1.06239067463321E-05,4.04296875,0,0
-2.46421623160131E-05,1.25503611343447E-05,4.04296875,0,0
-2.49749555223389E-05,1.15242064566701E-05,4.04296875,0,0
-2.84051493508741E-05,1.11056333480519E-05,4.04296875,0,0
-2.99776675092289E-05,1.12392326627742E-05,4.04296875,0,0
-3.00287938443944E-05,1.30050802908954E-05,4.04296875,0,0
-2.88220526272198E-05,1.42598437378183E-05,4.04296875,0,0
-2.72483903245302E-05,1.45101794259972E-05,4.04296875,0,0
-2.78406623692717E-05,1.4734788237547E-05,4.04296875,0,0
-2.74789454124402E-05,1.43029328683042E-05,4.04296875,0,0
-2.85266942228191E-05,1.47080800161348E-05,4.04296875,0,0
-2.77553972409805E-05,1.47386172102415E-05,4.04296875,0,0
-2.82373002846725E-05,1.51339618241764E-05,4.04296875,0,0
-2.7779658921645E-05,1.60699019033927E-05,4.04296875,0,0
-2.82301916740835E-05,1.96571181731997E-05,4.04296875,0,0
-2.7155769203091E-05,2.02782794076484E-05,4.04296875,0,0
-2.67781288130209E-05,1.83351403393317E-05,4.04296875,0,0
-2.4162165573216E-05,1.71199008036638E-05,4.04296875,0,0
-2.16449043364264E-05,1.7739523173077E-05,4.04296875,0,0
-1.95448392332764E-05,1.71541614690796E-05,4.04296875,0,0
-1.87217046914157E-05,1.59230148710776E-05,4.04296875,0,0
-1.87680634553544E-05,1.55146699398756E-05,4.04296875,0,0
-2.11716142075602E-05,1.5673998859711E-05,4.04296875,0,0
-1.85026983672287E-05,1.26528884720756E-05,4.04296875,0,0
-2.46217532549053E-05,1.8267988707521E-05,4.04296875,0,0
-1.65520596056012E-05,1.33316962092067E-05,4.04296875,0,0
-2.11584847420454E-05,1.29674917843658E-05,4.04296875,0,0
-1.68538481375435E-05,7.18354840500979E-06,4.04296875,0,0
-2.0204823158565E-05,9.60732722887769E-06,4.04296875,0,0
-1.98765519598965E-05,9.65456092671957E-06,4.04296875,0,0
-2.21469435928157E-05,1.07905752884108E-05,4.04296875,0,0
-2.11428650800372E-05,9.59890348894987E-06,4.04296875,0,0
-2.09042664209846E-05,8.14916620583972E-06,4.04296875,0,0
-2.15723975998117E-05,6.38644951322931E-06,4.04296875,0,0
-2.10535126825562E-05,4.77191406389466E-06,4.04296875,0,0
-2.07548091566423E-05,5.18631622981047E-06,4.04296875,0,0
-1.80943752638996E-05,4.94131245432072E-06,4.04296875,0,0
-1.83028259925777E-05,6.49085541226668E-06,4.04296875,0,0
-1.83757456397871E-05,5.93413415117539E-06,4.04296875,0,0
-2.18606346606975E-05,6.14165628576302E-06,4.04296875,0,0
-2.31707017519511E-05,5.81452468395582E-06,4.04296875,0,0
-2.61352470261045E-05,7.90883768786443E-06,4.04296875,0,0
-2.65983362623956E-05,8.01691294327611E-06,4.04296875,0,0
-2.75256770692067E-05,8.29525197332259E-06,4.04296875,0,0
-2.75786569545744E-05,7.8097600635374E-06,4.04296875,0,0
-2.93446464638691E-05,9.01345265447162E-06,4.04296875,0,0
-2.99242856272031E-05,1.06875959318131E-05,4.04296875,0,0
-2.98401355394162E-05,1.10274922917597E-05,4.04296875,0,0
-2.86915146716638E-05,1.03428847069154E-05,4.04296875,0,0
-2.83678964478895E-05,9.98353334580315E-06,4.04296875,0,0
-2.30136447498808E-05,6.14084729022579E-06,4.04296875,0,0
-3.32254312525038E-05,8.03871262178291E-06,4.04296875,0,0
-2.59466742136283E-05,7.33750903236796E-06,4.04296875,0,0
-3.12688498524949E-05,9.95625941868639E-06,4.04296875,0,0
-2.50168504862813E-05,7.2804846240615E-06,4.04296875,0,0
-2.77000435744412E-05,9.07373669178924E-06,4.04296875,0,0
-2.62522480625194E-05,9.73087844613474E-06,4.04296875,0,0
-2.79712749033934E-05,1.08851290860912E-05,4.04296875,0,0
-2.56954299402423E-05,1.14532876978046E-05,4.04296875,0,0
-2.36673186009284E-05,1.29231902974425E-05,4.04296875,0,0
-2.32776710618054E-05,1.45898393384414E-05,4.04296875,0,0
-2.36195173783926E-05,1.48832095874241E-05,4.04296875,0,0
-2.67966261162655E-05,1.38968671308248E-05,4.04296875,0,0
-2.73433870461304E-05,1.19178503155126E-05,4.04296875,0,0
-2.88919782178709E-05,1.28440715343459E-05,4.04296875,0,0
-2.65925282292301E-05,1.39433141157497E-05,4.04296875,0,0
-2.61094319284894E-05,1.50678815771244E-05,4.04296875,0,0
-2.4024866434047E-05,1.47599821502808E-05,4.04296875,0,0
-2.62103440036299E-05,1.51157437358052E-05,4.04296875,0,0
-2.75983238680055E-05,1.39170879265293E-05,4.04296875,0,0
-2.94388501060894E-05,1.27460152725689E-05,4.04296875,0,0
-2.81183329207124E-05,1.14809236038127E-05,4.04296875,0,0
-2.7736161428038E-05,1.16799028546666E-05,4.04296875,0,0
-2.69444608420599E-05,1.25141750686453E-05,4.04296875,0,0
-2.75035254162503E-05,1.27006587717915E-05,4.04296875,0,0
-2.71492499450687E-05,1.32015793496976E-05,4.04296875,0,0
-2.52400404860964E-05,1.4335741980176E-05,4.04296875,0,0
-1.81242685357574E-05,1.12885809357977E-05,4.04296875,0,0
-2.61180593952304E-05,1.46268448588671E-05,4.04296875,0,0
-2.05795695364941E-05,1.00042034318903E-05,4.04296875,0,0
-2.46941617660923E-05,1.38974319270346E-05,4.04296875,0,0
-1.93693085748237E-05,1.10790488179191E-05,4.04296875,0,0
-2.13796247408027E-05,1.23674763017334E-05,4.04296875,0,0
-2.07075499929488E-05,1.21848252092605E-05,4.04296875,0,0
-2.15628078876762E-05,1.36367953018635E-05,4.04296875,0,0
-1.89243619388435E-05,1.28888932522386E-05,4.04296875,0,0
-1.79744438355556E-05,1.26539653138025E-05,4.04296875,0,0
-1.82441362994723E-05,1.22619921967271E-05,4.04296875,0,0
-1.82300846063299E-05,1.13861578938668E-05,4.04296875,0,0
-1.82189705810742E-05,1.07505793494056E-05,4.04296875,0,0
-1.49488578244927E-05,8.55022426549112E-06,4.04296875,0,0
-1.43540255521657E-05,8.76693866302958E-06,4.04296875,0,0
-1.45571202665451E-05,1.00575507531175E-05,4.04296875,0,0
-1.84573709702818E-05,1.3450788173941E-05,4.04296875,0,0
-1.9658913515741E-05,1.38949772008345E-05,4.04296875,0,0
-2.04767147806706E-05,1.35206637423835E-05,4.04296875,0,0
-1.77680776687339E-05,1.0952127922792E-05,4.04296875,0,0
-1.69134527823189E-05,9.62192916631466E-06,4.04296875,0,0
-1.68537280842429E-05,8.16925967228599E-06,4.04296875,0,0
-1.85644494195003E-05,7.89480782259488E-06,4.04296875,0,0
-1.918460111483E-05,6.76939907862106E-06,4.04296875,0,0
-1.99849910131888E-05,5.98734004597645E-06,4.04296875,0,0
-1.96289493032964E-05,5.84556619287468E-06,4.04296875,0,0
-1.87132754945196E-05,6.46869739284739E-06,4.04296875,0,0
-1.56787991727469E-05,6.42427812636015E-06,4.04296875,0,0
-2.30202294915216E-05,1.01209107015166E-05,4.04296875,0,0
-1.9648568923003E-05,8.99169936019462E-06,4.04296875,0,0
-2.53439575317316E-05,1.12840452857199E-05,4.04296875,0,0
-2.26809916057391E-05,1.21708717415459E-05,4.04296875,0,0
-2.42409914790187E-05,1.51890717461356E-05,4.04296875,0,0
-2.21124319068622E-05,1.54087465489283E-05,4.04296875,0,0
-2.26121137529844E-05,1.4665072740172E-05,4.04296875,0,0
-2.16264361370122E-05,1.32538871184806E-05,4.04296875,0,0
-2.18864461203339E-05,1.2804730431526E-05,4.04296875,0,0
-2.24453997361707E-05,1.3947710613138E-05,4.04296875,0,0
-2.25889270950574E-05,1.63394233823055E-05,4.04296875,0,0
-2.44184557232074E-05,1.74113538378151E-05,4.04296875,0,0
-2.43884405790595E-05,1.52358652485418E-05,4.04296875,0,0
-2.51212568400661E-05,1.42496055559604E-05,4.04296875,0,0
-2.34479957725853E-05,1.48059252751409E-05,4.04296875,0,0
-2.37112326431088E-05,1.67192210938083E-05,4.04296875,0,0
-2.24638060899451E-05,1.72388554346981E-05,4.04296875,0,0
-2.21192512981361E-05,1.75103687070077E-05,4.04296875,0,0
-2.02815881493734E-05,1.61403568199603E-05,4.04296875,0,0
-2.15396030398551E-05,1.44475252454868E-05,4.04296875,0,0
-2.41286434174981E-05,1.41265509228106E-05,4.04296875,0,0
-2.74642043223139E-05,1.58265484060394E-05,4.04296875,0,0
-2.79867981589632E-05,1.57220620167209E-05,4.04296875,0,0
-2.83375575236278E-05,1.45223102663294E-05,4.04296875,0,0
-2.95447716780473E-05,1.445643556508E-05,4.04296875,0,0
-3.02532062050886E-05,1.55965426529292E-05,4.04296875,0,0
-2.2995394829195E-05,1.27792818602757E-05,4.04296875,0,0
-3.06140500470065E-05,1.70254843396833E-05,6.328125,0,0
-2.16045300476253E-05,1.07359855974209E-05,6.328125,0,0
-2.92369550152216E-05,1.32437980937539E-05,6.328125,0,0
-2.51194105658215E-05,1.04228402051376E-05,6.328125,0,0
-2.89751951640937E-05,1.34097317641135E-05,6.328125,0,0
-2.67680024990113E-05,1.17216513899621E-05,6.328125,0,0
-2.82297060039127E-05,1.04642822407186E-05,6.328125,0,0
-2.6811110728886E-05,1.04470946098445E-05,6.328125,0,0
-2.61384266195819E-05,1.20929289550986E-05,6.328125,0,0
-2.60389097093139E-05,1.23092631838517E-05,6.328125,0,0
-2.54784081334947E-05,1.08304657260305E-05,6.328125,0,0
-2.72817196673714E-05,1.11792478492134E-05,6.328125,0,0
-2.77166764135472E-05,1.02041994978208E-05,6.328125,0,0
-3.10731811623555E-05,8.81774758454412E-06,6.328125,0,0
-3.07418995362241E-05,5.74976684220019E-06,6.328125,0,0
-3.16209334414452E-05,5.1171032282582E-06,6.328125,0,0
-2.94860165013233E-05,4.16330340158311E-06,6.328125,0,0
-2.97000569844386E-05,5.07227559864987E-06,6.328125,0,0
-2.79582291113911E-05,5.54203916180995E-06,6.328125,0,0
-2.90425941784633E-05,6.16237548456411E-06,6.328125,0,0
-2.83862573269289E-05,5.22956679560593E-06,6.328125,0,0
-2.67935392912477E-05,6.54350969853112E-06,6.328125,0,0
-2.35958032135386E-05,8.33704416436376E-06,6.328125,0,0
-2.3657878045924E-05,9.95391292235581E-06,6.328125,0,0
-2.48557898885338E-05,9.36496053327573E-06,6.328125,0,0
-2.56747971434379E-05,8.35224363981979E-06,6.328125,0,0
-2.01722104975488E-05,5.8685036492534E-06,6.328125,0,0
-2.76976443274179E-05,7.25602012607851E-06,6.328125,0,0
-2.05136220756685E-05,5.83937980991323E-06,6.328125,0,0
-2.48864762397716E-05,8.67956623551436E-06,6.328125,0,0
-1.83575448318152E-05,7.81182643549982E-06,6.328125,0,0
-2.1057654521428E-05,1.01705363704241E-05,6.328125,0,0
-2.11506394407479E-05,8.75227487995289E-06,6.328125,0,0
-2.4820708858897E-05,7.08423749529175E-06,6.328125,0,0
-2.53402067755815E-05,6.33145600659191E-06,6.328125,0,0
-2.62557914538775E-05,7.27698306945967E-06,6.328125,0,0
-2.7220614356338E-05,7.83499399403809E-06,6.328125,0,0
-2.70358705165563E-05,6.65772859065328E-06,6.328125,0,0
-2.85008190985536E-05,5.98699398324243E-06,6.328125,0,0
-2.78777442872524E-05,5.63140201848E-06,6.328125,0,0
-2.9448070563376E-05,6.66384039504919E-06,6.328125,0,0
-2.96175858238712E-05,6.67537142362562E-06,6.328125,0,0
-3.24413886119146E-05,6.91131390340161E-06,6.328125,0,0
-3.14872231683694E-05,5.86758642384666E-06,6.328125,0,0
-3.08634189423174E-05,5.69123039895203E-06,6.328125,0,0
-2.77728504443076E-05,6.19516731603653E-06,6.328125,0,0
-2.74077956419205E-05,7.37791151550482E-06,6.328125,0,0
-2.70745185844135E-05,7.1190215749084E-06,6.328125,0,0
-2.84928864857648E-05,6.59798524793587E-06,6.328125,0,0
-2.90761818177998E-05,5.779934781458E-06,6.328125,0,0
-2.8799493520637E-05,6.49932962915045E-06,6.328125,0,0
-2.73189743893454E-05,7.24205528968014E-06,6.328125,0,0
-2.77866074611666E-05,7.47807098377962E-06,6.328125,0,0
-2.49240729317535E-05,7.77247714722762E-06,6.328125,0,0
-3.52697497874033E-05,1.28585079437471E-05,6.328125,0,0
-2.61812201642897E-05,1.09657758002868E-05,6.328125,0,0
-3.24868378811516E-05,1.19953310786514E-05,6.328125,0,0
-2.68306303041754E-05,1.07417872641236E-05,6.328125,0,0
-2.90929783659521E-05,1.10426553874277E-05,6.328125,0,0
-2.67259601969272E-05,9.04417629499221E-06,6.328125,0,0
-2.81222237390466E-05,8.2756105257431E-06,6.328125,0,0
-2.6544554202701E-05,8.14269969851011E-06,6.328125,0,0
-2.58848212979501E-05,8.29386772238649E-06,6.328125,0,0
-2.63168385572499E-05,7.93904655438382E-06,6.328125,0,0
-2.60757751675555E-05,8.08175445854431E-06,6.328125,0,0
-2.68687635980314E-05,9.05839169718092E-06,6.328125,0,0
-2.45075152633945E-05,8.43982434162172E-06,6.328125,0,0
-2.42654969042633E-05,8.27636995381908E-06,6.328125,0,0
-2.18869754462503E-05,8.14420036476804E-06,6.328125,0,0
-2.34148210438434E-05,9.79328069661278E-06,6.328125,0,0
-2.32484162552282E-05,1.07076748463442E-05,6.328125,0,0
-2.46931394940475E-05,1.09043221527827E-05,6.328125,0,0
-2.25362709898036E-05,1.01395316960406E-05,6.328125,0,0
-2.28550652536796E-05,1.06036895886064E-05,6.328125,0,0
-2.32107977353735E-05,1.18106463560252E-05,6.328125,0,0
-2.46579911618028E-05,1.38974601213704E-05,6.328125,0,0
-2.35399456869345E-05,1.43298830153071E-05,6.328125,0,0
-2.22524995479034E-05,1.31371371026034E-05,6.328125,0,0
-2.03489853447536E-05,1.0767534149636E-05,6.328125,0,0
-1.91800172615331E-05,8.61836269905325E-06,6.328125,0,0
-1.59690534928814E-05,7.62726267566904E-06,6.328125,0,0
-2.31267240451416E-05,1.1095437912445E-05,6.328125,0,0
-1.78068930836162E-05,7.25464906281559E-06,6.328125,0,0
-2.17836332012666E-05,7.40597943149623E-06,6.328125,0,0
-1.93773357750615E-05,4.94972391607007E-06,6.328125,0,0
-2.24080722546205E-05,4.63207879874972E-06,6.328125,0,0
-2.205107921327E-05,3.54857775164419E-06,6.328125,0,0
-2.38515694945818E-05,5.05630123370793E-06,6.328125,0,0
-2.49132954195375E-05,6.91098239258281E-06,6.328125,0,0
-2.5949733753805E-05,8.64845515025081E-06,6.328125,0,0
-2.5474659196334E-05,9.58146665652748E-06,6.328125,0,0
-2.42216246988392E-05,1.01804171208641E-05,6.328125,0,0
-2.43893882725388E-05,1.19899241326493E-05,6.328125,0,0
-2.24182458623545E-05,1.38739933390752E-05,6.328125,0,0
-2.1568486772594E-05,1.56380137923406E-05,6.328125,0,0
-2.02672945306404E-05,1.463389617129E-05,6.328125,0,0
-2.17849847103935E-05,1.39106477945461E-05,6.328125,0,0
-2.1146177459741E-05,1.35130921989912E-05,6.328125,0,0
-2.21404898184119E-05,1.54774570546579E-05,6.328125,0,0
-2.35012394114165E-05,1.77920901478501E-05,6.328125,0,0
-2.55629402090563E-05,1.9504584997776E-05,6.328125,0,0
-2.42726273427252E-05,1.92646239156602E-05,6.328125,0,0
-2.30975474551087E-05,1.94548902072711E-05,6.328125,0,0
-2.20080019062152E-05,2.01668080990203E-05,6.328125,0,0
-2.26364991249284E-05,2.12708000617567E-05,6.328125,0,0
