biceps_emg, triceps_emg, subject_position, position_estimate, brace_position
-2.56073326454498E-05,1.15344410005491E-05,1.58203125,0,0
-2.74534595519071E-05,1.09250950117712E-05,1.58203125,0,0
-2.78479856206104E-05,8.38403047964675E-06,1.58203125,0,0
-2.85359346889891E-05,7.60975808589137E-06,1.58203125,0,0
-2.73270579782547E-05,9.12451287149452E-06,1.58203125,0,0
-2.58553827734431E-05,1.08532358353841E-05,1.58203125,0,0
-2.53044199780561E-05,1.03390702861361E-05,1.58203125,0,0
-2.59339321928564E-05,9.83415247901576E-06,1.58203125,0,0
-2.20613146666437E-05,9.00311079021776E-06,1.58203125,0,0
-3.1210915039992E-05,1.2095010788471E-05,1.58203125,0,0
-2.24451723624952E-05,7.02915667716297E-06,1.58203125,0,0
-2.50227803917369E-05,9.19137346500065E-06,1.58203125,0,0
-1.7635074982536E-05,1.06006255009561E-05,1.58203125,0,0
-1.95784559764434E-05,1.58635994012002E-05,1.58203125,0,0
-1.67298949236283E-05,1.69295926752966E-05,1.58203125,0,0
-1.80334754986688E-05,1.65388555615209E-05,1.58203125,0,0
-1.69937702594325E-05,1.64714892889606E-05,1.58203125,0,0
-1.58241309691221E-05,1.76009561982937E-05,1.58203125,0,0
-1.63150725711603E-05,1.57466456585098E-05,1.58203125,0,0
-1.77863548742607E-05,9.57433348958148E-06,1.58203125,0,0
-2.03119416255504E-05,4.58684007753618E-06,1.58203125,0,0
-1.88262292795116E-05,2.24629911826923E-06,1.58203125,0,0
-1.89271049748641E-05,5.04107538290555E-06,1.58203125,0,0
-1.65212695719674E-05,9.62054855335737E-06,1.58203125,0,0
-1.64852499437984E-05,1.53568216774147E-05,1.58203125,0,0
-1.53796681843232E-05,1.9099039491266E-05,1.58203125,0,0
-1.76478770299582E-05,2.12158120120876E-05,1.58203125,0,0
-1.82703170139575E-05,1.99855840037344E-05,1.58203125,0,0
-2.12727154575987E-05,1.8404742149869E-05,1.58203125,0,0
-2.34940634982195E-05,1.64163520821603E-05,1.58203125,0,0
-2.59521330008283E-05,1.55332654685481E-05,1.58203125,0,0
-2.609405964904E-05,1.57165795826586E-05,1.58203125,0,0
-2.70261843979824E-05,1.31805636556237E-05,1.58203125,0,0
-2.70569635176798E-05,6.46503303869395E-06,1.58203125,0,0
-2.6798277758644E-05,6.1681532770308E-07,1.58203125,0,0
-2.19328267121455E-05,-2.42045780396438E-06,1.58203125,0,0
-3.21956285915803E-05,-2.5897788873408E-06,1.58203125,0,0
-2.50309658440528E-05,9.8273790172243E-07,1.58203125,0,0
-2.98819813906448E-05,2.57668398262467E-06,1.58203125,0,0
-2.61282093561022E-05,4.02879049943294E-06,1.58203125,0,0
-2.99013008770999E-05,4.47978663942195E-06,1.58203125,0,0
-2.76286409643944E-05,5.96197742197546E-06,1.58203125,0,0
-2.85226633423008E-05,7.92126047599595E-06,1.58203125,0,0
-2.75770744337933E-05,9.29972611629637E-06,1.58203125,0,0
-2.79940577456728E-05,8.71976317284862E-06,1.58203125,0,0
-2.86458562186453E-05,8.53378060128307E-06,1.58203125,0,0
-2.78727184195304E-05,9.77301169768907E-06,1.58203125,0,0
-2.8321137506282E-05,1.08253498183331E-05,1.58203125,0,0
-2.55260893027298E-05,1.15920111056766E-05,1.58203125,0,0
-2.4167587980628E-05,1.30917433125433E-05,1.58203125,0,0
-2.24888826778624E-05,1.63793829415226E-05,1.58203125,0,0
-2.54768692684593E-05,1.93836513062706E-05,1.58203125,0,0
-2.52476456807926E-05,2.21166374103632E-05,1.58203125,0,0
-2.48860469582723E-05,2.34735325648217E-05,1.58203125,0,0
-2.36507603403879E-05,2.16838216147153E-05,1.58203125,0,0
-2.57039682765026E-05,1.69435552379582E-05,1.58203125,0,0
-2.49078493652632E-05,1.32537788886111E-05,1.58203125,0,0
-2.39701166719897E-05,1.20023105409928E-05,1.58203125,0,0
-2.28855733439559E-05,1.28242800201406E-05,1.58203125,0,0
-2.40436511376174E-05,1.38355462695472E-05,1.58203125,0,0
-2.57449955824995E-05,1.38724390126299E-05,1.58203125,0,0
-2.63367401203141E-05,1.20489130495116E-05,1.58203125,0,0
-2.08375131478533E-05,7.32203125153319E-06,1.58203125,0,0
-2.88119081233162E-05,9.56035728449933E-06,1.58203125,0,0
-2.10476810025284E-05,6.85009672451997E-06,1.58203125,0,0
-2.67385512415785E-05,9.27275323192589E-06,1.58203125,0,0
-2.25333351409063E-05,6.26884502707981E-06,1.58203125,0,0
-2.4723671231186E-05,6.06053072260693E-06,1.58203125,0,0
-2.18358600250212E-05,3.76827802028856E-06,1.58203125,0,0
-2.31849862757372E-05,3.21720858664776E-06,1.58203125,0,0
-2.26454940275289E-05,3.77121250494383E-06,1.58203125,0,0
-2.26904267037753E-05,5.94113907936844E-06,1.58203125,0,0
-2.24479153985158E-05,8.1318657976226E-06,1.58203125,0,0
-2.14448973565595E-05,9.41225789574673E-06,1.58203125,0,0
-2.24392115342198E-05,9.97108145384118E-06,1.58203125,0,0
-2.23397364607081E-05,7.89007481216686E-06,1.58203125,0,0
-2.46316303673666E-05,6.72906435283949E-06,1.58203125,0,0
-2.44342736550607E-05,6.50248875899706E-06,1.58203125,0,0
-2.68977528321557E-05,7.29865905668703E-06,1.58203125,0,0
-2.76835453405511E-05,6.10286133451154E-06,1.58203125,0,0
-3.04149270959897E-05,5.59631462238031E-06,1.58203125,0,0
-3.01755881082499E-05,4.41700785813737E-06,1.58203125,0,0
-3.04106215480715E-05,2.77829303740873E-06,1.58203125,0,0
-2.81326520052971E-05,2.75590167575501E-07,1.58203125,0,0
-2.73313416983001E-05,-7.06791468019219E-07,1.58203125,0,0
-2.63240726781078E-05,-8.3687405094679E-07,1.58203125,0,0
-2.69941720034694E-05,5.9540820274151E-08,1.58203125,0,0
-2.84894267679192E-05,1.052925881595E-06,1.58203125,0,0
-2.88296760118101E-05,1.25657606986351E-06,1.58203125,0,0
-2.27467535296455E-05,1.38720054110308E-06,1.58203125,0,0
-3.1516799936071E-05,3.48753042089811E-06,1.58203125,0,0
-2.31177527894033E-05,4.92922254125006E-06,1.58203125,0,0
-2.95457884931238E-05,6.76501758789527E-06,1.58203125,0,0
-2.50982811849099E-05,8.76276226335904E-06,1.58203125,0,0
-2.83811223198427E-05,1.02001986306277E-05,1.58203125,0,0
-2.59325006481959E-05,1.15908251245855E-05,1.58203125,0,0
-2.6942017939291E-05,1.32599370772368E-05,1.58203125,0,0
-2.69622214545961E-05,1.49635852721985E-05,1.58203125,0,0
-2.88485043711262E-05,1.61814950843109E-05,1.58203125,0,0
-3.11492476612329E-05,1.72406216734089E-05,1.58203125,0,0
-3.13047057716176E-05,1.77211841219105E-05,1.58203125,0,0
-3.15653232974E-05,1.70098610396963E-05,1.58203125,0,0
-2.95511235890444E-05,1.55750531121157E-05,1.58203125,0,0
-3.04039294860559E-05,1.33068633658695E-05,1.58203125,0,0
-2.84029138128972E-05,1.10673299786868E-05,1.58203125,0,0
-2.86565718852216E-05,1.08799877125421E-05,1.58203125,0,0
-2.72344223049004E-05,1.11500748971594E-05,1.58203125,0,0
-2.93737502943259E-05,9.70629753282992E-06,1.58203125,0,0
-2.93605808110442E-05,7.37062237021746E-06,1.58203125,0,0
-3.04859913740074E-05,5.33872116648126E-06,1.58203125,0,0
-3.00759675155859E-05,4.43799126514932E-06,1.58203125,0,0
-2.96942725981353E-05,4.30856698585558E-06,1.58203125,0,0
-2.71393637376605E-05,4.60568026028341E-06,1.58203125,0,0
-2.53125472227111E-05,5.80427558816154E-06,1.58203125,0,0
-2.42712721956195E-05,6.3812885855441E-06,1.58203125,0,0
-2.53802445513429E-05,6.07458514423342E-06,1.58203125,0,0
-2.19313697016332E-05,5.98714996158378E-06,1.58203125,0,0
-3.1801922887098E-05,1.06217285065213E-05,1.58203125,0,0
-2.48378146352479E-05,1.06796360341832E-05,1.58203125,0,0
-3.02409043797525E-05,1.18100124382181E-05,1.58203125,0,0
-2.44334587478079E-05,8.3656404967769E-06,1.58203125,0,0
-2.54671194852563E-05,7.26619055058109E-06,1.58203125,0,0
-2.25705152843148E-05,7.22150298315682E-06,1.58203125,0,0
-2.44157454289962E-05,9.35253956413362E-06,1.58203125,0,0
-2.44210623350227E-05,1.36390872285119E-05,1.58203125,0,0
-2.38421780522913E-05,1.80713177542202E-05,1.58203125,0,0
-2.32191359827993E-05,1.97392473637592E-05,1.58203125,0,0
-2.28337885346264E-05,1.82110834430205E-05,1.58203125,0,0
-2.47172702074749E-05,1.66896861628629E-05,1.58203125,0,0
-2.43292270170059E-05,1.52696538862074E-05,1.58203125,0,0
-2.56214862019988E-05,1.53881483129226E-05,1.58203125,0,0
-2.4092483727145E-05,1.67240395967383E-05,1.58203125,0,0
-2.48481665039435E-05,1.79370472324081E-05,1.58203125,0,0
-2.33488972298801E-05,1.75575369212311E-05,1.58203125,0,0
-2.3510725441156E-05,1.80961251317058E-05,1.58203125,0,0
-2.22040362132248E-05,1.91292328963755E-05,1.58203125,0,0
-2.3366485038423E-05,1.96381042769644E-05,1.58203125,0,0
-2.31176309171133E-05,1.85022145160474E-05,1.58203125,0,0
-2.37859312619548E-05,1.76139092218364E-05,1.58203125,0,0
-2.315936035302E-05,1.70333332789596E-05,1.58203125,0,0
-2.25536914513214E-05,1.6271835193038E-05,1.58203125,0,0
-2.1645393644576E-05,1.53017463162541E-05,1.58203125,0,0
-2.07190878427355E-05,1.62811484187841E-05,1.58203125,0,0
-1.58133843797259E-05,1.44024270412046E-05,1.58203125,0,0
-2.374468385824E-05,1.98838515643729E-05,1.58203125,0,0
-2.00455579033587E-05,1.45252579386579E-05,1.58203125,0,0
-2.46536401391495E-05,2.01275088329567E-05,1.58203125,0,0
-2.10103771678405E-05,1.6026324374252E-05,1.58203125,0,0
-2.2019386960892E-05,1.24260996017256E-05,1.58203125,0,0
-2.00893791770795E-05,6.34346997685498E-06,1.58203125,0,0
-2.13885650737211E-05,6.45115915176575E-06,1.58203125,0,0
-2.23892529902514E-05,7.88873785495525E-06,1.58203125,0,0
-2.48085889325012E-05,8.79248727869708E-06,1.58203125,0,0
-2.74486828857334E-05,8.5183019109536E-06,1.58203125,0,0
-2.81111133517697E-05,8.78036189533304E-06,1.58203125,0,0
-2.8087770260754E-05,1.16230457933852E-05,1.58203125,0,0
-2.67906070803292E-05,1.34500405692961E-05,1.58203125,0,0
-2.76856426353334E-05,1.57608446897939E-05,1.58203125,0,0
-2.6436229745741E-05,1.52439142766525E-05,1.58203125,0,0
-2.64343052549521E-05,1.64093671628507E-05,1.58203125,0,0
-2.54202113865176E-05,1.645377233217E-05,1.58203125,0,0
-2.64604477706598E-05,1.69928443938261E-05,1.58203125,0,0
-2.62121830019169E-05,1.63734093803214E-05,1.58203125,0,0
-2.66382085101213E-05,1.67699636222096E-05,1.58203125,0,0
-2.56751227425411E-05,1.46400179801276E-05,1.58203125,0,0
-2.5907218514476E-05,1.35347045215894E-05,1.58203125,0,0
-2.61645400314592E-05,1.37635943247005E-05,1.58203125,0,0
-2.62283738265978E-05,1.41859163704794E-05,1.58203125,0,0
-2.50651009991998E-05,1.23565941976267E-05,1.58203125,0,0
-2.25530257011997E-05,1.00539036793634E-05,1.58203125,0,0
-1.56627411342924E-05,9.56037183641456E-06,1.58203125,0,0
-2.17235356103629E-05,1.53548189700814E-05,1.58203125,0,0
-1.62014039233327E-05,1.18909301818348E-05,1.58203125,0,0
-2.12390350498026E-05,1.10304745248868E-05,1.58203125,0,0
-1.84639993676683E-05,7.61553428674233E-06,1.58203125,0,0
-1.9395458366489E-05,8.39699623611523E-06,1.58203125,0,0
-1.64862012752565E-05,8.35848277347395E-06,1.58203125,0,0
-1.85698518180288E-05,9.26828397496138E-06,1.58203125,0,0
-1.90251812455244E-05,9.48384695220739E-06,1.58203125,0,0
-1.71052142832195E-05,8.70978874445427E-06,1.58203125,0,0
-1.4172383089317E-05,5.76290676690405E-06,1.58203125,0,0
-1.22791461762972E-05,2.44218608713709E-06,1.58203125,0,0
-1.34223246277543E-05,2.38694997278799E-06,1.58203125,0,0
-1.30345542856958E-05,3.94284279536805E-06,1.58203125,0,0
-1.35719747049734E-05,7.4749091254489E-06,1.58203125,0,0
-1.23071349662496E-05,1.05975941551151E-05,1.58203125,0,0
-1.31382375911926E-05,1.33000967252883E-05,1.58203125,0,0
-1.35186992338276E-05,1.35159243654925E-05,1.58203125,0,0
-1.63226231961744E-05,1.41205027830438E-05,1.58203125,0,0
-1.68516289704712E-05,1.35954960569507E-05,1.58203125,0,0
-1.72817653947277E-05,1.24831340144738E-05,1.58203125,0,0
-1.71726060216315E-05,1.05722474472714E-05,1.58203125,0,0
-1.98469952010782E-05,9.28797999222297E-06,1.58203125,0,0
-2.14580868487246E-05,8.23231493995991E-06,1.58203125,0,0
-2.1357327568694E-05,8.7081098172348E-06,1.58203125,0,0
-2.01669154193951E-05,1.04416658359696E-05,1.58203125,0,0
-1.91940944205271E-05,1.24495009004022E-05,1.58203125,0,0
-1.47113632920082E-05,1.0073072189698E-05,1.58203125,0,0
-1.94453059521038E-05,1.32702652990702E-05,1.58203125,0,0
-1.34575911943102E-05,8.24592007120373E-06,1.58203125,0,0
-1.77266865648562E-05,1.12992102003773E-05,1.58203125,0,0
-1.55336747411639E-05,1.14107051558676E-05,1.58203125,0,0
-1.99302394321421E-05,1.50263304021792E-05,1.58203125,0,0
-1.97584813577123E-05,1.57623890117975E-05,1.58203125,0,0
-2.07801913347794E-05,1.67976850207197E-05,1.58203125,0,0
-1.97910267161205E-05,1.5907731722109E-05,1.58203125,0,0
-2.04675125132781E-05,1.61514526553219E-05,1.58203125,0,0
-2.26267366087995E-05,1.56889273057459E-05,1.58203125,0,0
-2.33455175475683E-05,1.29499803733779E-05,1.58203125,0,0
-2.49181721301284E-05,9.40369136515073E-06,1.58203125,0,0
-2.56772891589208E-05,5.82553911954165E-06,1.58203125,0,0
-2.81648663076339E-05,6.41250699118245E-06,1.58203125,0,0
-2.81738466583192E-05,7.02132547303336E-06,1.58203125,0,0
-2.88727933366317E-05,6.78918695484754E-06,1.58203125,0,0
-2.6065112251672E-05,5.37560345037491E-06,1.58203125,0,0
-2.34695398830809E-05,7.58954547563917E-06,1.58203125,0,0
-1.97773697436787E-05,1.05814633570844E-05,1.58203125,0,0
-1.91357048606733E-05,1.46988386404701E-05,1.58203125,0,0
-1.9513645383995E-05,1.61614880198613E-05,1.58203125,0,0
-2.0053812477272E-05,1.49386778502958E-05,1.58203125,0,0
-1.89249149116222E-05,1.18260159069905E-05,1.58203125,0,0
-1.92620955203893E-05,1.02219337350107E-05,1.58203125,0,0
-2.18804707401432E-05,1.16062283268548E-05,1.58203125,0,0
-2.48738761001732E-05,1.33366384034161E-05,1.58203125,0,0
-2.09683257708093E-05,9.40056816034485E-06,1.58203125,0,0
-2.94045166810974E-05,1.33478943098453E-05,1.58203125,0,0
-2.21435675484827E-05,1.14452377601992E-05,1.58203125,0,0
-2.74545636784751E-05,1.46730981214205E-05,1.58203125,0,0
-2.35228944802657E-05,1.35236759888357E-05,1.58203125,0,0
-2.86737904389156E-05,1.82193962245947E-05,1.58203125,0,0
-2.87716557068052E-05,2.05082560569281E-05,1.58203125,0,0
-3.05411667795852E-05,2.23391598410672E-05,1.58203125,0,0
-2.78930619970197E-05,2.21975296881283E-05,1.58203125,0,0
-2.56196053669555E-05,2.38199245359283E-05,1.58203125,0,0
-2.45524042838952E-05,2.30796977120917E-05,1.58203125,0,0
-2.28798980970168E-05,1.68234855664195E-05,1.58203125,0,0
-2.26672673306894E-05,1.15006951091345E-05,1.58203125,0,0
-2.09155750781065E-05,1.0405733519292E-05,1.58203125,0,0
-2.09861118491972E-05,1.18366615424748E-05,1.58203125,0,0
-1.90862028830452E-05,8.83399025042308E-06,1.58203125,0,0
-2.1234840460238E-05,4.48424952992355E-06,1.58203125,0,0
-2.21955870074453E-05,7.24393544260238E-07,1.58203125,0,0
-2.4760493033682E-05,1.0947715054499E-06,1.58203125,0,0
-2.38390894082841E-05,1.55376346810954E-06,1.58203125,0,0
-2.43445192609215E-05,3.60468538929126E-06,1.58203125,0,0
-2.46237086685142E-05,6.53140705253463E-06,1.58203125,0,0
-2.7508576749824E-05,9.18512250791537E-06,1.58203125,0,0
-2.92564945993945E-05,8.98420603334671E-06,1.58203125,0,0
-3.04822351608891E-05,8.12333837529877E-06,1.58203125,0,0
-3.11430194415152E-05,7.65143977332627E-06,1.58203125,0,0
-3.16851946990937E-05,7.00945383869112E-06,1.58203125,0,0
-2.60050637734821E-05,4.79698201161227E-06,1.58203125,0,0
-3.66961867257487E-05,7.00387090546428E-06,1.58203125,0,0
-2.74123449344188E-05,5.82866459808429E-06,1.58203125,0,0
-3.48020985256881E-05,7.07164781488245E-06,1.58203125,0,0
-3.07517693727277E-05,6.15935823589098E-06,1.58203125,0,0
-3.45110602211207E-05,6.7035775828117E-06,1.58203125,0,0
-3.06745459965896E-05,5.76861839363119E-06,1.58203125,0,0
-3.0115994377411E-05,5.45301372767426E-06,1.58203125,0,0
-2.67695431830361E-05,4.12165945817833E-06,1.58203125,0,0
-2.598131322884E-05,3.14684439217672E-06,1.58203125,0,0
-2.69700612989254E-05,4.35171250501298E-06,1.58203125,0,0
-2.57172414421802E-05,5.35499839315889E-06,1.58203125,0,0
-2.51781293627573E-05,4.9868267524289E-06,1.58203125,0,0
-2.28551580221392E-05,3.31255091623461E-06,1.58203125,0,0
-2.4435681552859E-05,3.57991393684642E-06,1.58203125,0,0
-2.42684709519381E-05,5.35292201675475E-06,1.58203125,0,0
-2.68263611360453E-05,8.69778523338027E-06,1.58203125,0,0
-2.53763882938074E-05,1.19251262731268E-05,1.58203125,0,0
-2.6198431442026E-05,1.49036168295424E-05,1.58203125,0,0
-2.56668718066067E-05,1.45103922477574E-05,1.58203125,0,0
-2.78317584161414E-05,1.21156781460741E-05,1.58203125,0,0
-2.75748079729965E-05,1.02419835457113E-05,1.58203125,0,0
-2.76902810583124E-05,1.0549958460615E-05,1.58203125,0,0
-2.73229470622027E-05,1.10062546809786E-05,1.58203125,0,0
-2.90830048470525E-05,9.41308189794654E-06,1.58203125,0,0
-3.03020733554149E-05,9.80803815764375E-06,1.58203125,0,0
-3.05386456602719E-05,1.35430464069941E-05,1.58203125,0,0
-2.56152779911645E-05,1.34646415972384E-05,1.58203125,0,0
-3.64909719792195E-05,1.95653028640663E-05,1.58203125,0,0
-2.768821468635E-05,1.52890806930372E-05,1.58203125,0,0
-3.32913405145518E-05,1.77294550667284E-05,1.58203125,0,0
-2.65938106167596E-05,1.35329155455111E-05,1.58203125,0,0
-2.80423355434323E-05,1.50228233906091E-05,1.58203125,0,0
-2.4619854229968E-05,1.24802963910042E-05,1.58203125,0,0
-2.70486980298301E-05,1.11929402919486E-05,1.58203125,0,0
-2.60621254710713E-05,9.03997442947002E-06,1.58203125,0,0
-2.4640543415444E-05,7.39052711651311E-06,1.58203125,0,0
-2.33087048400193E-05,5.97201096752542E-06,1.58203125,0,0
-2.25933818001067E-05,5.92674541621818E-06,1.58203125,0,0
-2.42744590650545E-05,9.07219600776443E-06,1.58203125,0,0
-2.25581588892965E-05,1.16244245873531E-05,1.58203125,0,0
-2.27336731768446E-05,1.53269375005038E-05,1.58203125,0,0
-1.96206819964573E-05,1.67505277204327E-05,1.58203125,0,0
-1.95430056919577E-05,1.85764001798816E-05,1.58203125,0,0
-1.74875804077601E-05,1.7775299056666E-05,1.58203125,0,0
-1.92102797882399E-05,1.72990803548601E-05,1.58203125,0,0
-1.95687753148377E-05,1.52757875184761E-05,1.58203125,0,0
-2.14025149034569E-05,1.40956262839609E-05,1.58203125,0,0
-2.03399868041743E-05,1.16357396109379E-05,1.58203125,0,0
-2.05341220862465E-05,8.97141944733448E-06,1.58203125,0,0
-2.03337276616367E-05,7.11721713742008E-06,1.58203125,0,0
-2.16176758840447E-05,9.13147414394189E-06,1.58203125,0,0
-2.11345213756431E-05,1.14896101877093E-05,1.58203125,0,0
-2.10963025892852E-05,1.34097217596718E-05,1.58203125,0,0
-1.73208791238721E-05,1.17239305836847E-05,1.58203125,0,0
-2.32313759624958E-05,1.47846021718578E-05,1.58203125,0,0
-1.65985893545439E-05,1.01559971881215E-05,1.58203125,0,0
-2.14116953429766E-05,1.62910346261924E-05,1.58203125,0,0
-1.73843091033632E-05,1.65303135872819E-05,1.58203125,0,0
-1.90779210242908E-05,1.81574050657218E-05,1.58203125,0,0
-1.66288646141766E-05,1.48323078974499E-05,1.58203125,0,0
-1.75079821929103E-05,1.29840491354116E-05,1.58203125,0,0
-1.65861183631932E-05,9.72519865172217E-06,1.58203125,0,0
-1.66473819263047E-05,8.35872833704343E-06,1.58203125,0,0
-1.69308750628261E-05,9.43926715990528E-06,1.58203125,0,0
-1.62607611855492E-05,1.14838067020173E-05,1.58203125,0,0
-1.78141690412303E-05,1.41094678838272E-05,1.58203125,0,0
-1.85877343028551E-05,1.41566451929975E-05,1.58203125,0,0
-2.09598310902948E-05,1.42405660881195E-05,1.58203125,0,0
-2.07718203455443E-05,1.13489404611755E-05,1.58203125,0,0
-2.29516281251563E-05,1.00431989267236E-05,1.58203125,0,0
-2.32491129281698E-05,9.7932370408671E-06,1.58203125,0,0
-2.35166262427811E-05,1.15853626994067E-05,1.58203125,0,0
-2.04219213628676E-05,8.88059366843663E-06,1.58203125,0,0
-1.90041573659983E-05,5.46883393326425E-06,1.58203125,0,0
-1.81833711394574E-05,4.39173072663834E-06,1.58203125,0,0
-1.984101254493E-05,6.5750186877267E-06,1.58203125,0,0
-2.09719200938707E-05,9.38471293920884E-06,1.58203125,0,0
-2.20813544729026E-05,1.25388114611269E-05,1.58203125,0,0
-2.20982783503132E-05,1.20242566481465E-05,1.58203125,0,0
-2.20088786591077E-05,9.41766302275937E-06,1.58203125,0,0
-1.75793011294445E-05,8.06102161732269E-06,1.58203125,0,0
-2.62636913248571E-05,1.36243606903008E-05,1.58203125,0,0
-2.32257589232177E-05,1.29871195895248E-05,1.58203125,0,0
-2.81992015516153E-05,1.38881041493732E-05,1.58203125,0,0
-2.2854634153191E-05,1.00649749583681E-05,1.58203125,0,0
-2.5046945665963E-05,1.02429276012117E-05,1.58203125,0,0
-2.39658002101351E-05,1.00700153780053E-05,1.58203125,0,0
-2.55528702837182E-05,8.75654222909361E-06,1.58203125,0,0
-2.49165404966334E-05,6.82866539136739E-06,1.58203125,0,0
-2.55018003372243E-05,6.25448819846497E-06,1.58203125,0,0
-2.74740868917434E-05,5.43049964107922E-06,1.58203125,0,0
-2.7980919185211E-05,3.88314037991222E-06,1.58203125,0,0
-2.79841078736354E-05,3.16039586323313E-06,1.58203125,0,0
-2.56254425039515E-05,1.67572261489113E-06,1.58203125,0,0
-2.55116447078763E-05,2.28979047278699E-06,1.58203125,0,0
-2.51116744038882E-05,5.04137642565183E-06,1.58203125,0,0
-2.76719310932094E-05,9.38175890041748E-06,1.58203125,0,0
-2.79268442682223E-05,1.10553382910439E-05,1.58203125,0,0
-2.85568658000557E-05,1.12299694592366E-05,1.58203125,0,0
-2.65945946011925E-05,1.04837090475485E-05,1.58203125,0,0
-2.68890635197749E-05,1.08967669802951E-05,1.58203125,0,0
-2.76304308499675E-05,1.17279214464361E-05,1.58203125,0,0
-3.02931603073375E-05,1.24007292470196E-05,1.58203125,0,0
-3.17818157782312E-05,1.094007257052E-05,1.58203125,0,0
-3.37081473844592E-05,8.69668656378053E-06,1.58203125,0,0
-3.49329493474215E-05,7.9236478995881E-06,1.58203125,0,0
-3.36753255396616E-05,9.03662294149399E-06,1.58203125,0,0
-2.54475307883695E-05,7.21127162250923E-06,1.58203125,0,0
-3.59366240445524E-05,9.99950771074509E-06,1.58203125,0,0
-2.80723288597073E-05,8.8196857177536E-06,1.58203125,0,0
-3.57267999788746E-05,1.21206776384497E-05,1.58203125,0,0
-3.03240776702296E-05,9.57205611484824E-06,1.58203125,0,0
-3.32826712110545E-05,9.74464819591958E-06,1.58203125,0,0
-2.84544767055195E-05,9.06058085092809E-06,1.58203125,0,0
-2.85903406620491E-05,1.0394748642284E-05,1.58203125,0,0
-2.79754149232758E-05,1.16935170808574E-05,1.58203125,0,0
-2.91163360088831E-05,1.24571752166958E-05,1.58203125,0,0
-3.02205917250831E-05,1.19339219963877E-05,1.58203125,0,0
-2.94657547783572E-05,1.12262805487262E-05,1.58203125,0,0
-2.98073464364279E-05,1.10038999991957E-05,1.58203125,0,0
-2.71137068921234E-05,1.15208940769662E-05,1.58203125,0,0
-2.73630430456251E-05,1.43545657920185E-05,1.58203125,0,0
-2.45196169998962E-05,1.39097701321589E-05,1.58203125,0,0
-2.4265256797662E-05,9.79526703304145E-06,1.58203125,0,0
-2.24240466195624E-05,4.66014125777292E-06,1.58203125,0,0
-2.4435446903226E-05,5.20029561812407E-06,1.58203125,0,0
-2.37244512391044E-05,9.53025482886005E-06,1.58203125,0,0
-2.36506348301191E-05,1.5730744053144E-05,1.58203125,0,0
-2.14589199458715E-05,1.9484887161525E-05,1.58203125,0,0
-2.23411498154746E-05,2.04024308914086E-05,1.58203125,0,0
-2.29517627303721E-05,1.90990249393508E-05,1.58203125,0,0
-2.25224375753896E-05,1.95456123037729E-05,1.58203125,0,0
-2.11491642403416E-05,2.15639047382865E-05,1.58203125,0,0
-2.1387360902736E-05,2.15661275433376E-05,1.58203125,0,0
-1.77349156729179E-05,1.55039942910662E-05,1.58203125,0,0
-2.39367418544134E-05,2.07625016628299E-05,1.58203125,0,0
-1.59739138325676E-05,1.52683278429322E-05,1.58203125,0,0
-2.07043267437257E-05,1.95256980077829E-05,1.58203125,0,0
-1.90174396266229E-05,1.32311024572118E-05,1.58203125,0,0
-2.2561713194591E-05,1.23436539070099E-05,1.58203125,0,0
-2.01149632630404E-05,9.72321868175641E-06,1.58203125,0,0
-2.03843501367373E-05,1.1663540135487E-05,1.58203125,0,0
-2.05790656764293E-05,1.1716622793756E-05,1.58203125,0,0
-2.00874983420363E-05,1.14267168100923E-05,1.58203125,0,0
-1.80720999196637E-05,9.32653711060993E-06,1.58203125,0,0
-1.63540644280147E-05,5.5827676987974E-06,1.58203125,0,0
-1.81933155545266E-05,4.57665828434983E-06,1.58203125,0,0
-1.90680257219356E-05,4.4684502427117E-06,1.58203125,0,0
-2.09783229365712E-05,6.38524943497032E-06,1.58203125,0,0
-2.0449608200579E-05,5.58508236281341E-06,1.58203125,0,0
-2.14364736166317E-05,6.82375775795663E-06,1.58203125,0,0
-2.0600240532076E-05,7.28625172996544E-06,1.58203125,0,0
-2.28398021135945E-05,9.99968142423313E-06,1.58203125,0,0
-2.44110178755363E-05,1.015034467855E-05,1.58203125,0,0
-2.63051078945864E-05,1.05261397038703E-05,1.58203125,0,0
-2.57522679021349E-05,1.02482372312807E-05,1.58203125,0,0
-2.53312518907478E-05,1.27816574604367E-05,1.58203125,0,0
-2.50805478572147E-05,1.52160073412233E-05,1.58203125,0,0
-2.63083147729049E-05,1.69672566698864E-05,1.58203125,0,0
-2.5787936465349E-05,1.60256713570561E-05,1.58203125,0,0
-2.33244263654342E-05,1.34659740069765E-05,1.58203125,0,0
-1.51188369272859E-05,9.6877693067654E-06,1.58203125,0,0
-2.00303165911464E-05,1.21390066851745E-05,1.58203125,0,0
-1.62970281962771E-05,5.80003961658804E-06,1.58203125,0,0
-2.45432402152801E-05,3.86406509278459E-06,1.58203125,0,0
-2.29765591939213E-05,-2.06527147383895E-06,1.58203125,0,0
-2.59288553934311E-05,-2.68491191945941E-07,1.58203125,0,0
-2.46802483161446E-05,2.19657749767066E-06,1.58203125,0,0
-2.58087766269455E-05,6.76519812259357E-06,1.58203125,0,0
-2.5951158022508E-05,9.16109456738923E-06,1.58203125,0,0
-2.85430578514934E-05,1.06954366856371E-05,1.58203125,0,0
-3.13377713609952E-05,1.09725397123839E-05,1.58203125,0,0
-3.10238901874982E-05,9.59871613304131E-06,1.58203125,0,0
-2.96992147923447E-05,9.26745633478276E-06,1.58203125,0,0
-2.72308188868919E-05,8.51085769681958E-06,1.58203125,0,0
-2.78094448731281E-05,1.05069193523377E-05,1.58203125,0,0
-2.62992325588129E-05,1.33359044411918E-05,1.58203125,0,0
-2.5736500901985E-05,1.65362180268858E-05,1.58203125,0,0
-2.43976046476746E-05,1.54897097672801E-05,1.58203125,0,0
-2.6707888537203E-05,1.38161803988623E-05,1.58203125,0,0
-2.81134925899096E-05,1.22902329167118E-05,1.58203125,0,0
-3.05289577227086E-05,1.3334897630557E-05,1.58203125,0,0
-3.12414158543106E-05,1.36457119879196E-05,1.58203125,0,0
-3.14755161525682E-05,1.27045068438747E-05,1.58203125,0,0
-3.02493190247333E-05,9.22190702112857E-06,1.58203125,0,0
-2.9693937904085E-05,6.25256916464423E-06,1.58203125,0,0
-2.84814977931092E-05,4.14884107158287E-06,1.58203125,0,0
-2.77917933999561E-05,3.3120065836556E-06,1.58203125,0,0
-2.25912772293668E-05,3.1433603453479E-06,1.58203125,0,0
-3.31855153490324E-05,4.57110991192167E-06,1.58203125,0,0
-2.65058879449498E-05,2.83419853985833E-06,1.58203125,0,0
-3.1830815714784E-05,3.59574755748326E-06,1.58203125,0,0
-2.5866795112961E-05,5.87449585509603E-06,1.58203125,0,0
-2.75120637525106E-05,1.03516067611054E-05,1.58203125,0,0
-2.34421986533562E-05,1.31947053887416E-05,1.58203125,0,0
-2.32655056606745E-05,1.45153608173132E-05,1.58203125,0,0
-2.28026965487516E-05,1.47631672007265E-05,1.58203125,0,0
-2.3860806322773E-05,1.44079413075815E-05,1.58203125,0,0
-2.39788296312327E-05,1.35633408717695E-05,1.58203125,0,0
-2.21095324377529E-05,1.27497742141713E-05,1.58203125,0,0
-2.22204926103586E-05,1.17533099910361E-05,1.58203125,0,0
-2.17550423258217E-05,1.04614164229133E-05,1.58203125,0,0
-2.33145710808458E-05,9.61479690886335E-06,1.58203125,0,0
-2.15067775570787E-05,9.58795681071933E-06,1.58203125,0,0
-2.2072341380408E-05,1.16036580948276E-05,1.58203125,0,0
-2.03187792067183E-05,1.51395552165923E-05,1.58203125,0,0
-2.07771390705602E-05,1.96145319932839E-05,1.58203125,0,0
-2.00969152501784E-05,2.19576486415463E-05,1.58203125,0,0
-2.13623079616809E-05,1.96192704606801E-05,1.58203125,0,0
-2.03977706405567E-05,1.35174032038776E-05,1.58203125,0,0
-1.9851997421938E-05,8.9548057076172E-06,1.58203125,0,0
-1.90601876965957E-05,7.64602464187192E-06,1.58203125,0,0
-1.96778146346333E-05,9.98426094156457E-06,1.58203125,0,0
-1.84754280780908E-05,1.39070343720959E-05,1.58203125,0,0
-1.70613438967848E-05,1.4999469385657E-05,1.58203125,0,0
-1.31061005959054E-05,8.55391044751741E-06,1.58203125,0,0
-1.814713323256E-05,7.48133743400103E-06,1.58203125,0,0
-1.41274267662084E-05,-8.93599008122692E-07,1.58203125,0,0
-1.91104354598792E-05,2.74992908089189E-06,1.58203125,0,0
-1.75275199580938E-05,6.1109180933272E-06,1.58203125,0,0
-1.92517982213758E-05,1.32427840071614E-05,1.58203125,0,0
-1.68943679454969E-05,1.23542085930239E-05,1.58203125,0,0
-1.65551555255661E-05,1.01894529507263E-05,1.58203125,0,0
-1.60397194122197E-05,8.12305734143592E-06,1.58203125,0,0
-1.73384214576799E-05,7.9876162999426E-06,1.58203125,0,0
-2.00754966499517E-05,1.04999644463533E-05,1.58203125,0,0
-2.21432110265596E-05,1.3766645679425E-05,1.58203125,0,0
-2.40454210143071E-05,1.76009780261666E-05,1.58203125,0,0
-2.34388135140762E-05,1.85858189070132E-05,1.58203125,0,0
-2.38043103308883E-05,1.86604011105374E-05,1.58203125,0,0
-2.28451535804197E-05,1.62431151693454E-05,1.58203125,0,0
-2.32459151447983E-05,1.38774412334897E-05,1.58203125,0,0
-2.20379242819035E-05,9.90010812529363E-06,1.58203125,0,0
-2.2183550754562E-05,7.01682984072249E-06,1.58203125,0,0
-2.25003095692955E-05,4.40333406004356E-06,1.58203125,0,0
-2.47838052018778E-05,5.62869036002667E-06,1.58203125,0,0
-2.50022294494556E-05,9.38590619625757E-06,1.58203125,0,0
-2.45192222791957E-05,1.29875061247731E-05,1.58203125,0,0
-2.40364788623992E-05,1.2002947187284E-05,1.58203125,0,0
-2.53322541539092E-05,8.23494610813214E-06,1.58203125,0,0
-2.63149722741218E-05,4.77821549793589E-06,1.58203125,0,0
-2.63522415480111E-05,3.71816508959455E-06,1.58203125,0,0
-2.05447504413314E-05,3.14362000608526E-06,1.58203125,0,0
-2.85776022792561E-05,5.09752817379194E-06,1.58203125,0,0
-2.16814423765754E-05,6.25417942501372E-06,1.58203125,0,0
-2.80383083008928E-05,8.76437297847588E-06,1.58203125,0,0
-2.47836815105984E-05,9.43716077017598E-06,1.58203125,0,0
-2.93455032078782E-05,1.17204999696696E-05,1.58203125,0,0
-2.79549167316873E-05,1.23351310321596E-05,1.58203125,0,0
-2.97549631795846E-05,1.33798248498351E-05,1.58203125,0,0
-2.88099909084849E-05,1.3303802916198E-05,1.58203125,0,0
-2.75079401035327E-05,1.27600314954179E-05,1.58203125,0,0
-2.61227160081035E-05,1.25651622511214E-05,1.58203125,0,0
-2.55067589023383E-05,1.33873045342625E-05,1.58203125,0,0
-2.78874013019959E-05,1.51073290908244E-05,1.58203125,0,0
-2.76281571132131E-05,1.48951457958901E-05,1.58203125,0,0
-2.84002089756541E-05,1.40378306241473E-05,1.58203125,0,0
-2.66813312919112E-05,1.22766023196164E-05,1.58203125,0,0
-2.81846241705352E-05,1.03982165455818E-05,1.58203125,0,0
-2.75936017715139E-05,8.14588383946102E-06,1.58203125,0,0
-2.85411661025137E-05,7.40261793907848E-06,1.58203125,0,0
-2.79094456345774E-05,7.49092714613653E-06,1.58203125,0,0
-2.94906294584507E-05,7.6114679359307E-06,1.58203125,0,0
-2.81348347925814E-05,7.06601849742583E-06,1.58203125,0,0
-2.64892096311087E-05,7.51971356294234E-06,1.58203125,0,0
-2.46352956310147E-05,7.1846584432933E-06,1.58203125,0,0
-2.39162582147401E-05,5.67158758713049E-06,1.58203125,0,0
-2.28677708946634E-05,6.15494991507148E-06,1.58203125,0,0
-2.2600166630582E-05,9.6701696747914E-06,1.58203125,0,0
-1.98995348910103E-05,1.08727281258325E-05,1.58203125,0,0
-2.91497908619931E-05,1.58938728418434E-05,1.58203125,0,0
-2.26414758799365E-05,1.23548034025589E-05,1.58203125,0,0
-2.72061515715905E-05,1.66093650477706E-05,1.58203125,0,0
-2.29463967116317E-05,1.7004414985422E-05,1.58203125,0,0
-2.36151481658453E-05,1.88521789823426E-05,1.58203125,0,0
-1.94688163901446E-05,1.55158504639985E-05,1.58203125,0,0
-2.04321004275698E-05,1.39247276820242E-05,1.58203125,0,0
-1.96540386241395E-05,1.32856021082262E-05,1.58203125,0,0
-1.73059979715617E-05,1.41430100484286E-05,1.58203125,0,0
-1.56227433762979E-05,1.33614466903964E-05,1.58203125,0,0
-1.50725718413014E-05,1.00313500297489E-05,1.58203125,0,0
-1.67006819538074E-05,6.60972955301986E-06,1.58203125,0,0
-1.62581090989988E-05,1.92834227163985E-06,1.58203125,0,0
-1.78008904185845E-05,4.25562035388793E-07,1.58203125,0,0
-1.74953693203861E-05,3.59685202511173E-07,1.58203125,0,0
-1.89000038517406E-05,3.73778584616957E-06,1.58203125,0,0
-1.78950213012286E-05,8.14553914096905E-06,1.58203125,0,0
-1.87248151632957E-05,1.27192279251176E-05,1.58203125,0,0
-1.7850732547231E-05,1.22911333164666E-05,1.58203125,0,0
-1.95219836314209E-05,1.07654923340306E-05,1.58203125,0,0
-2.13990188058233E-05,1.01219311545719E-05,1.58203125,0,0
-2.42964888457209E-05,1.0571287930361E-05,1.58203125,0,0
-2.56296734733041E-05,9.71825193119003E-06,1.58203125,0,0
-2.59510052273981E-05,8.543234798708E-06,1.58203125,0,0
-2.54388614848722E-05,9.25968470255611E-06,1.58203125,0,0
-2.67175164481159E-05,1.02363483165391E-05,1.58203125,0,0
-2.36906889767852E-05,6.96031293045962E-06,1.58203125,0,0
-3.4853470424423E-05,9.06431523617357E-06,1.58203125,0,0
-2.58645577559946E-05,7.65703589422628E-06,1.58203125,0,0
-2.8353357265587E-05,1.25229717014008E-05,1.58203125,0,0
-2.06642762350384E-05,1.15262846520636E-05,1.58203125,0,0
-2.26991123781772E-05,9.54562347033061E-06,1.58203125,0,0
-2.09262543648947E-05,5.0268945415155E-06,1.58203125,0,0
-2.21752852667123E-05,5.68068116990617E-06,1.58203125,0,0
-2.11831138585694E-05,1.1232243195991E-05,1.58203125,0,0
-2.1892486984143E-05,1.72668314917246E-05,1.58203125,0,0
-2.39148230321007E-05,1.92366915143793E-05,1.58203125,0,0
-2.50968623731751E-05,1.71059218700975E-05,1.58203125,0,0
-2.62598077824805E-05,1.53601667989278E-05,1.58203125,0,0
-2.39379169215681E-05,1.53288528963458E-05,1.58203125,0,0
-2.46483723458368E-05,1.52739448822103E-05,1.58203125,0,0
-2.4318494979525E-05,1.12066027213586E-05,1.58203125,0,0
-2.67784871539334E-05,6.87249075781438E-06,1.58203125,0,0
-2.63499186985428E-05,3.87327690987149E-06,1.58203125,0,0
-2.81256689049769E-05,5.03954015584895E-06,1.58203125,0,0
-2.8012354960083E-05,7.17413558959379E-06,1.58203125,0,0
-2.87861294054892E-05,9.13658368517645E-06,1.58203125,0,0
-2.81191059912089E-05,1.04712908068905E-05,1.58203125,0,0
-2.90217649308033E-05,1.25764117910876E-05,1.58203125,0,0
-2.83383942587534E-05,1.21651401059353E-05,1.58203125,0,0
-2.77283688774332E-05,1.02724852695246E-05,1.58203125,0,0
-2.640963975864E-05,9.1057308964082E-06,1.58203125,0,0
-2.53636317211203E-05,8.5699639384984E-06,1.58203125,0,0
-1.96178189071361E-05,7.08335437593632E-06,1.58203125,0,0
-2.70653290499467E-05,9.40038171393098E-06,1.58203125,0,0
-1.97244989976753E-05,7.22714321454987E-06,1.58203125,0,0
-2.48398482654011E-05,1.1367270417395E-05,1.58203125,0,0
-2.07580469577806E-05,1.10876044345787E-05,1.58203125,0,0
-2.32747861446114E-05,1.06745137600228E-05,1.58203125,0,0
-2.04287043743534E-05,8.93350079422817E-06,1.58203125,0,0
-2.1108025975991E-05,9.46925592870684E-06,1.58203125,0,0
-2.01093971554656E-05,8.92701427801512E-06,1.58203125,0,0
-2.02488718059612E-05,9.43772283790167E-06,1.58203125,0,0
-2.10006946872454E-05,9.93407593341544E-06,1.58203125,0,0
-1.97911485884106E-05,9.16266071726568E-06,1.58203125,0,0
-1.92974221135955E-05,8.77982893143781E-06,1.58203125,0,0
-1.83497340913164E-05,7.23690027371049E-06,1.58203125,0,0
-2.12171817111084E-05,5.8939208429365E-06,1.58203125,0,0
-2.21505542867817E-05,4.58438853456755E-06,1.58203125,0,0
-2.36948108067736E-05,6.36714639767888E-06,1.58203125,0,0
-2.15387790376553E-05,9.13420626602601E-06,1.58203125,0,0
-2.0598477931344E-05,1.32723052956862E-05,1.58203125,0,0
-1.7271953765885E-05,1.62953001563437E-05,1.58203125,0,0
-1.59730570885586E-05,1.86460292752599E-05,1.58203125,0,0
-1.51975154949469E-05,1.81344075826928E-05,1.58203125,0,0
-1.68404985743109E-05,1.6148414943018E-05,1.58203125,0,0
-1.7175330867758E-05,1.54845947690774E-05,1.58203125,0,0
-1.67453927133465E-05,1.79940252564847E-05,1.58203125,0,0
-1.69605227711145E-05,1.85044264071621E-05,1.58203125,0,0
-1.85442386282375E-05,1.73686621565139E-05,1.58203125,0,0
-1.5410552805406E-05,1.50974183270591E-05,1.58203125,0,0
-2.19728553929599E-05,2.17567321669776E-05,1.58203125,0,0
-1.7008922441164E-05,1.5855192032177E-05,1.58203125,0,0
-2.08161727641709E-05,1.87601071957033E-05,1.58203125,0,0
-1.79728685907321E-05,1.55718153109774E-05,1.58203125,0,0
-2.05821452254895E-05,1.71097162819933E-05,1.58203125,0,0
-1.75068780663423E-05,1.48719927892671E-05,1.58203125,0,0
-1.64638895512326E-05,1.51972799358191E-05,1.58203125,0,0
-1.59885330504039E-05,1.44437799463049E-05,1.58203125,0,0
-1.70584971783683E-05,1.50400992424693E-05,1.58203125,0,0
-1.74942379089771E-05,1.57156009663595E-05,1.58203125,0,0
-1.63034383149352E-05,1.45215544762323E-05,1.58203125,0,0
-1.69617687788559E-05,1.35729960675235E-05,1.58203125,0,0
-1.71061819855822E-05,1.24023072203272E-05,1.58203125,0,0
-1.8839649783331E-05,1.43033921631286E-05,1.58203125,0,0
-1.80903080035932E-05,1.49924562720116E-05,1.58203125,0,0
-1.91554681805428E-05,1.68697533808881E-05,1.58203125,0,0
-1.98971520148916E-05,1.62191136041656E-05,1.58203125,0,0
-2.2559743229067E-05,1.60580966621637E-05,1.58203125,0,0
-2.26499505515676E-05,1.55977922986494E-05,1.58203125,0,0
-2.29044999286998E-05,1.84967848326778E-05,1.58203125,0,0
-2.36325122386916E-05,1.95877437363379E-05,1.58203125,0,0
-2.66337738139555E-05,1.7598244085093E-05,1.58203125,0,0
-2.82386154140113E-05,1.32196373670013E-05,1.58203125,0,0
-2.90417319774861E-05,1.12806519609876E-05,1.58203125,0,0
-2.85929872916313E-05,9.22451545193326E-06,1.58203125,0,0
-2.83013469015714E-05,6.66999403620139E-06,1.58203125,0,0
-2.39560558839003E-05,3.15379065796151E-06,1.58203125,0,0
-3.47212408087216E-05,3.37849360221298E-06,1.58203125,0,0
-2.61489039985463E-05,2.38958205045492E-06,1.58203125,0,0
-3.15670658892486E-05,6.31369175607688E-06,1.58203125,0,0
-2.72602974291658E-05,9.35306525207125E-06,1.58203125,0,0
-3.1812767701922E-05,1.22970632219221E-05,1.58203125,0,0
-2.96465968858683E-05,1.11078834379441E-05,1.58203125,0,0
-2.9379885745584E-05,8.56753649713937E-06,1.58203125,0,0
-2.88560113403946E-05,5.77081982555683E-06,1.58203125,0,0
-3.04563127428992E-05,4.39040422861581E-06,1.58203125,0,0
-3.0618244636571E-05,4.75728575111134E-06,1.58203125,0,0
-2.92667700705351E-05,4.16537250202964E-06,1.58203125,0,0
-3.06305373669602E-05,5.18721526532318E-06,1.58203125,0,0
-3.07973314193077E-05,8.14086070022313E-06,1.58203125,0,0
-3.41542909154668E-05,1.26000659292913E-05,1.58203125,0,0
-3.47755922120996E-05,1.74403685377911E-05,1.58203125,0,0
-3.65227606380358E-05,2.17620581679512E-05,1.58203125,0,0
-3.45916923834011E-05,2.22459020733368E-05,1.58203125,0,0
-3.43810679623857E-05,1.92590414371807E-05,1.58203125,0,0
-3.24749198625796E-05,1.51691674545873E-05,1.58203125,0,0
-3.2602885767119E-05,1.30300168166286E-05,1.58203125,0,0
-3.09966126224026E-05,1.2213466106914E-05,1.58203125,0,0
-3.08708513330203E-05,1.11401259346167E-05,1.58203125,0,0
-3.06297079077922E-05,9.89048203337006E-06,1.58203125,0,0
-3.09519091388211E-05,1.02081012300914E-05,1.58203125,0,0
-3.12336160277482E-05,1.15210086732986E-05,1.58203125,0,0
-3.20546641887631E-05,1.17740119094378E-05,1.58203125,0,0
-2.56037055805791E-05,9.10640937945573E-06,1.58203125,0,0
-3.5452212614473E-05,1.27184293887694E-05,1.58203125,0,0
-2.58937270700699E-05,8.59824194776593E-06,1.58203125,0,0
-3.17307567456737E-05,9.35953448788496E-06,1.58203125,0,0
-2.41240049945191E-05,6.96771166985855E-06,1.58203125,0,0
-2.55508057307452E-05,9.4456854640157E-06,1.58203125,0,0
-2.16862154047703E-05,9.85517363005783E-06,1.58203125,0,0
-2.3674312615185E-05,1.17417002911679E-05,1.58203125,0,0
-2.48993528657593E-05,1.16584824354504E-05,1.58203125,0,0
-2.61719414993422E-05,1.18907582873362E-05,1.58203125,0,0
-2.5671890398371E-05,1.32708164528594E-05,1.58203125,0,0
-2.44313941948349E-05,1.33603025460616E-05,1.58203125,0,0
-2.60177130257944E-05,1.17740810310352E-05,1.58203125,0,0
-2.47121788561344E-05,9.00776649359614E-06,1.58203125,0,0
-2.61984059761744E-05,8.88389422470937E-06,1.58203125,0,0
-2.57902083831141E-05,8.46684451971669E-06,1.58203125,0,0
-2.70479667960899E-05,9.5916830105125E-06,1.58203125,0,0
-2.35437237279257E-05,1.07553541965899E-05,1.58203125,0,0
-2.33604696404655E-05,1.25263895824901E-05,1.58203125,0,0
-2.2557074771612E-05,1.23221689136699E-05,1.58203125,0,0
-2.3821910872357E-05,1.25092501548352E-05,1.58203125,0,0
-2.2363206880982E-05,1.22844212455675E-05,1.58203125,0,0
-2.12513441510964E-05,1.21839120765799E-05,1.58203125,0,0
-1.86347479029791E-05,1.2373381650832E-05,1.58203125,0,0
-1.6980258806143E-05,1.48554045154015E-05,1.58203125,0,0
-1.68706483236747E-05,1.63525364769157E-05,1.58203125,0,0
-1.77083657035837E-05,1.54630106408149E-05,1.58203125,0,0
-1.46207339639659E-05,1.19845190056367E-05,1.58203125,0,0
-2.11786082218168E-05,1.74201395566342E-05,1.58203125,0,0
-1.67241378221661E-05,1.24164525914239E-05,1.58203125,0,0
-2.05018004635349E-05,1.13806454464793E-05,1.58203125,0,0
-1.81658633664483E-05,4.60095498056035E-06,1.58203125,0,0
-2.13260627788259E-05,4.06978642786271E-06,1.58203125,0,0
-2.22619401029078E-05,1.47283606111159E-06,1.58203125,0,0
-2.46723884629318E-05,1.11205338271247E-06,1.58203125,0,0
-2.49463319050847E-05,5.83429937250912E-07,1.58203125,0,0
-2.55084687523777E-05,1.73940088643576E-06,1.58203125,0,0
-2.59327480307547E-05,2.87534180642979E-06,1.58203125,0,0
-2.58335712715052E-05,2.85096461993817E-06,1.58203125,0,0
-2.66085844486952E-05,4.94712639920181E-06,1.58203125,0,0
-2.58833279076498E-05,6.73524527883274E-06,1.58203125,0,0
-2.6740230168798E-05,8.80201150721405E-06,1.58203125,0,0
-2.52352710958803E-05,8.32087425806094E-06,1.58203125,0,0
-2.41745783569058E-05,8.34605089039542E-06,1.58203125,0,0
-2.21221434912877E-05,6.86378189129755E-06,1.58203125,0,0
-2.29886281886138E-05,6.4146361182793E-06,1.58203125,0,0
-2.39118198805954E-05,5.5722252909618E-06,1.58203125,0,0
-2.67283339780988E-05,6.70005283609498E-06,1.58203125,0,0
-2.79642263194546E-05,7.7991926445975E-06,1.58203125,0,0
-2.76577957265545E-05,1.01635623650509E-05,1.58203125,0,0
-2.54252427112078E-05,1.21312241390115E-05,1.58203125,0,0
-2.42918613366783E-05,1.16046912808088E-05,1.58203125,0,0
-2.29379656957462E-05,7.77718014433049E-06,1.58203125,0,0
-2.16630414797692E-05,5.99860413785791E-06,1.58203125,0,0
-1.77006259036716E-05,5.74709974898724E-06,1.58203125,0,0
-2.60763335973024E-05,8.22943093226058E-06,1.58203125,0,0
-2.11432525247801E-05,7.04787589711486E-06,1.58203125,0,0
-2.63428228208795E-05,1.05964945760206E-05,1.58203125,0,0
-2.24884406634374E-05,1.12538518806105E-05,1.58203125,0,0
-2.25935764319729E-05,1.28750807562028E-05,1.58203125,0,0
-1.91514463949716E-05,1.44248397191404E-05,1.58203125,0,0
-2.04864900297252E-05,1.67668949870858E-05,1.58203125,0,0
-2.07458506338298E-05,1.63276217790553E-05,1.58203125,0,0
-2.16731023101602E-05,1.56561563926516E-05,1.58203125,0,0
-2.23590595851419E-05,1.7490005120635E-05,1.58203125,0,0
-2.20158344745869E-05,1.8846654711524E-05,1.58203125,0,0
-2.24126288230764E-05,1.88304129551398E-05,1.58203125,0,0
-2.09236677619629E-05,1.68255864991806E-05,1.58203125,0,0
-2.17237247852609E-05,1.42664939630777E-05,1.58203125,0,0
-2.18825243791798E-05,1.15021794044878E-05,1.58203125,0,0
-2.48526466748444E-05,1.12195984911523E-05,1.58203125,0,0
-2.5715058654896E-05,1.01390851341421E-05,1.58203125,0,0
-2.66432361968327E-05,8.39826043375069E-06,1.58203125,0,0
-2.43286140175769E-05,7.55485098125064E-06,1.58203125,0,0
-2.3350095943897E-05,9.26412849366898E-06,1.58203125,0,0
-2.18674722418655E-05,1.12143707156065E-05,1.58203125,0,0
-2.10914913623128E-05,1.26267805171665E-05,1.58203125,0,0
-1.94293479580665E-05,1.30741664179368E-05,1.58203125,0,0
-1.85892386070918E-05,1.19283886306221E-05,1.58203125,0,0
-1.77853671630146E-05,1.01589739642804E-05,1.58203125,0,0
-1.79069011210231E-05,1.11737290353631E-05,1.58203125,0,0
-1.62243777594995E-05,1.06031038740184E-05,1.58203125,0,0
-2.55031973210862E-05,1.20839431474451E-05,1.58203125,0,0
-2.25935309572378E-05,1.53393432356097E-06,1.58203125,0,0
-2.74729682132602E-05,-1.30205228288105E-06,1.58203125,0,0
-2.50702796620317E-05,-5.11704502059729E-06,1.58203125,0,0
-2.7322668756824E-05,-5.52508879536617E-07,1.58203125,0,0
-2.62994544755202E-05,2.81009693026135E-06,1.58203125,0,0
-2.64401223830646E-05,6.17115847489913E-06,1.58203125,0,0
-2.47265270445496E-05,7.56187455408508E-06,1.58203125,0,0
-2.46579566010041E-05,8.66674417920876E-06,1.58203125,0,0
-2.47626194322947E-05,9.89503769233124E-06,1.58203125,0,0
-2.31576777878217E-05,1.12843399620033E-05,1.58203125,0,0
-2.160829717468E-05,1.35277277877321E-05,1.58203125,0,0
-1.94288277270971E-05,1.31801616589655E-05,1.58203125,0,0
-2.13214789255289E-05,1.26386894407915E-05,1.58203125,0,0
-2.32844722631853E-05,1.18653133540647E-05,1.58203125,0,0
-2.64580412476789E-05,1.35728232635302E-05,1.58203125,0,0
-2.66416973317973E-05,1.43655061037862E-05,1.58203125,0,0
-2.70943419309333E-05,1.40621596074197E-05,1.58203125,0,0
-2.55891463893931E-05,1.07231644506101E-05,1.58203125,0,0
-2.54770711762831E-05,8.89616421773098E-06,1.58203125,0,0
-2.51759302045684E-05,7.9905375969247E-06,1.58203125,0,0
-2.58955624303781E-05,7.70570659369696E-06,1.58203125,0,0
-2.59874977928121E-05,5.44125623491709E-06,1.58203125,0,0
-2.59811895375606E-05,3.71658120457141E-06,1.58203125,0,0
-2.56274051935179E-05,5.59174668524065E-06,1.58203125,0,0
-2.58378458966035E-05,1.06915522337658E-05,1.58203125,0,0
-2.13731509575155E-05,1.22607852972578E-05,1.58203125,0,0
-2.97249789582565E-05,1.5958838048391E-05,1.58203125,0,0
-2.15693235077197E-05,9.16352291824296E-06,1.58203125,0,0
-2.73717214440694E-05,1.15980064947507E-05,1.58203125,0,0
-2.33353675866965E-05,1.10162354758359E-05,1.58203125,0,0
-2.64572827290976E-05,1.52398179125157E-05,1.58203125,0,0
-2.47710086114239E-05,1.50075020428631E-05,1.58203125,0,0
-2.79776122624753E-05,1.39350095196278E-05,1.58203125,0,0
-2.91792184725637E-05,1.05164008346037E-05,1.58203125,0,0
-3.03124852507608E-05,9.60124816629104E-06,1.58203125,0,0
-3.07137997879181E-05,1.0599957931845E-05,1.58203125,0,0
-2.70245745923603E-05,1.22302808449604E-05,1.58203125,0,0
-2.48511150857667E-05,1.59259816427948E-05,1.58203125,0,0
-2.36199521168601E-05,1.755400262482E-05,1.58203125,0,0
-2.7085578039987E-05,1.73413209267892E-05,1.58203125,0,0
-2.79813284578267E-05,1.35659938678145E-05,1.58203125,0,0
-2.91619180643465E-05,1.24202661027084E-05,1.58203125,0,0
-2.73376626864774E-05,1.22802803161903E-05,1.58203125,0,0
-2.89264644379728E-05,1.37584574986249E-05,1.58203125,0,0
-2.96772468573181E-05,1.24130938274902E-05,1.58203125,0,0
-3.11403855448589E-05,1.08001149783377E-05,1.58203125,0,0
-2.97838741971646E-05,9.73559235717403E-06,1.58203125,0,0
-2.95203644782305E-05,1.11140634544427E-05,1.58203125,0,0
-2.90111511276336E-05,1.09248658191063E-05,1.58203125,0,0
-2.83410226984415E-05,9.97454753814964E-06,1.58203125,0,0
-2.64739137492143E-05,9.04520129552111E-06,1.58203125,0,0
-2.4869241315173E-05,8.30397948448081E-06,1.58203125,0,0
-2.00246886379318E-05,6.15117596680648E-06,1.58203125,0,0
-2.81723660009447E-05,1.00002807812416E-05,1.58203125,0,0
-2.16902117244899E-05,1.04648815977271E-05,1.58203125,0,0
-2.78490260825492E-05,1.40273541546776E-05,1.58203125,0,0
-2.32855400099652E-05,1.46518314068089E-05,1.58203125,0,0
-2.46573981712572E-05,1.62837332027266E-05,1.58203125,0,0
-2.0663841496571E-05,1.48182443808764E-05,1.58203125,0,0
-1.96350574697135E-05,1.43623456096975E-05,1.58203125,0,0
-1.77986185008194E-05,1.3498466614692E-05,1.58203125,0,0
-1.82619078259449E-05,1.15463881229516E-05,1.58203125,0,0
-1.99668975255918E-05,8.70955682330532E-06,1.58203125,0,0
-2.01615403057076E-05,6.00324892729986E-06,1.58203125,0,0
-2.10668331419583E-05,5.57690009372891E-06,1.58203125,0,0
-1.97804874915164E-05,6.46998660158715E-06,1.58203125,0,0
-2.11211645364529E-05,8.41955807118211E-06,1.58203125,0,0
-2.07851189770736E-05,8.61326861922862E-06,1.58203125,0,0
-2.29309498536168E-05,8.55826147017069E-06,1.58203125,0,0
-2.31048306886805E-05,7.62788886277121E-06,1.58203125,0,0
-2.4292734451592E-05,7.72534167481354E-06,1.58203125,0,0
-2.17789838643512E-05,9.82578058028594E-06,1.58203125,0,0
-2.01930215553148E-05,1.42230110213859E-05,1.58203125,0,0
-1.84763957804535E-05,1.60360868903808E-05,1.58203125,0,0
-1.7959187971428E-05,1.51294734678231E-05,1.58203125,0,0
-1.7480151655036E-05,1.33279881993076E-05,1.58203125,0,0
-1.86178040166851E-05,1.29389827634441E-05,1.58203125,0,0
-1.95285992958816E-05,1.51086242112797E-05,1.58203125,0,0
-2.05726191779831E-05,1.77791571331909E-05,1.58203125,0,0
-1.64942412084201E-05,1.34527026602882E-05,1.58203125,0,0
-2.15535856114002E-05,1.83972297236323E-05,1.58203125,0,0
-1.49414536281256E-05,1.34265519591281E-05,1.58203125,0,0
-2.00834128918359E-05,1.8034887034446E-05,1.58203125,0,0
-1.79036796907894E-05,1.31265742311371E-05,1.58203125,0,0
-2.18857730942545E-05,1.04131058833445E-05,1.58203125,0,0
-2.08776455110637E-05,6.44138799543725E-06,1.58203125,0,0
-2.23769420699682E-05,7.4783933996514E-06,1.58203125,0,0
-2.03529234568123E-05,7.67768869991414E-06,1.58203125,0,0
-1.88810827239649E-05,7.2854577410908E-06,1.58203125,0,0
-1.85193166544195E-05,7.27197948435787E-06,1.58203125,0,0
-1.75269287865376E-05,8.06424941401929E-06,1.58203125,0,0
-1.82092753675533E-05,1.0294222192897E-05,1.58203125,0,0
-1.7900256352732E-05,1.01446121334448E-05,1.58203125,0,0
-1.97267872863449E-05,1.02763769973535E-05,1.58203125,0,0
-1.94872136489721E-05,1.0134705917153E-05,1.58203125,0,0
-2.12159102375153E-05,1.24405542010209E-05,1.58203125,0,0
-2.00265785679221E-05,1.31898850668222E-05,1.58203125,0,0
-1.94030799320899E-05,1.39961957756896E-05,1.58203125,0,0
-1.75037839653669E-05,1.17518147817464E-05,1.58203125,0,0
-1.88607009476982E-05,1.09874763438711E-05,1.58203125,0,0
-2.11078258871567E-05,1.11651770566823E-05,1.58203125,0,0
-2.47411589953117E-05,1.15062557597412E-05,1.58203125,0,0
-2.57672072621062E-05,9.609589142201E-06,1.58203125,0,0
-2.55264476436423E-05,8.28147130960133E-06,1.58203125,0,0
-2.52442114287987E-05,8.8245587903657E-06,1.58203125,0,0
-2.7462825528346E-05,1.11614290290163E-05,1.58203125,0,0
-2.51887795457151E-05,1.07699634099845E-05,1.58203125,0,0
-3.73757575289346E-05,1.63247368618613E-05,1.58203125,0,0
-2.91996948362794E-05,1.33203520817915E-05,1.58203125,0,0
-3.3611442631809E-05,1.52676748257363E-05,1.58203125,0,0
-2.72527486231411E-05,1.22040937640122E-05,1.58203125,0,0
-3.01375639537582E-05,1.27317116493941E-05,1.58203125,0,0
-2.89414292637957E-05,1.17221343316487E-05,1.58203125,0,0
-3.3146767236758E-05,1.24051412058179E-05,1.58203125,0,0
-3.27494817611296E-05,1.11076988105197E-05,1.58203125,0,0
-3.05754256260116E-05,1.03969859992503E-05,1.58203125,0,0
-2.89452036668081E-05,1.13392770799692E-05,1.58203125,0,0
-2.78941333817784E-05,1.26296290545724E-05,1.58203125,0,0
-2.97349324682727E-05,1.41651007652399E-05,1.58203125,0,0
-2.97772930935025E-05,1.30474982142914E-05,1.58203125,0,0
-3.30242546624504E-05,1.24258394862409E-05,1.58203125,0,0
-3.37384699378163E-05,1.16258906928124E-05,1.58203125,0,0
-3.55409538315143E-05,1.21956481962116E-05,1.58203125,0,0
-3.27370216837153E-05,1.18620464490959E-05,1.58203125,0,0
-3.25098153552972E-05,1.28240671983804E-05,1.58203125,0,0
-3.17384292429779E-05,1.26577406263095E-05,1.58203125,0,0
-3.23934909829404E-05,1.33210869535105E-05,1.58203125,0,0
-3.07091177091934E-05,1.35081854750752E-05,1.58203125,0,0
-3.03702327073552E-05,1.37544466269901E-05,1.58203125,0,0
-2.86149552266579E-05,1.20467957458459E-05,1.58203125,0,0
-2.7667101676343E-05,9.13633084564935E-06,1.58203125,0,0
-2.66688512056135E-05,5.46048022442847E-06,1.58203125,0,0
-2.63482561422279E-05,2.8905701583426E-06,1.58203125,0,0
-2.05793148779776E-05,4.79532764074975E-06,1.58203125,0,0
-2.92012555291876E-05,1.14760086944443E-05,1.58203125,0,0
-2.20355068449862E-05,1.43424304042128E-05,1.58203125,0,0
-2.63561432802817E-05,1.39681742439279E-05,1.58203125,0,0
-2.12090471904958E-05,1.07992436824134E-05,1.58203125,0,0
-2.39694963966031E-05,9.20539878279669E-06,1.58203125,0,0
-2.26787979045184E-05,9.81334233074449E-06,1.58203125,0,0
-2.51747242145939E-05,1.2171990420029E-05,1.58203125,0,0
-2.46358431468252E-05,1.27614457596792E-05,1.58203125,0,0
-2.36847663472872E-05,1.21594066513353E-05,1.58203125,0,0
-2.27644741244148E-05,1.12781417556107E-05,1.58203125,0,0
-2.16230528167216E-05,1.00759789347649E-05,1.58203125,0,0
-2.17568249354372E-05,9.28473127714824E-06,1.58203125,0,0
-1.99711721506901E-05,7.34693730919389E-06,1.58203125,0,0
-2.12062950595282E-05,4.53452094006934E-06,1.58203125,0,0
-2.04959451366449E-05,1.87268176432553E-06,1.58203125,0,0
-2.13919192901812E-05,2.66271626969683E-06,1.58203125,0,0
-1.97103727259673E-05,6.39449217487709E-06,1.58203125,0,0
-1.99754376808414E-05,1.06637171484181E-05,1.58203125,0,0
-1.82800522452453E-05,1.34286447064369E-05,1.58203125,0,0
-1.81295745278476E-05,1.494464231655E-05,1.58203125,0,0
-1.71003794093849E-05,1.41555547088501E-05,1.58203125,0,0
-1.82733056135476E-05,1.1403503776819E-05,1.58203125,0,0
-1.86962533916812E-05,8.61959688336356E-06,1.58203125,0,0
-1.89046822924865E-05,6.5443459789094E-06,1.58203125,0,0
-1.94012482097605E-05,4.84779820908443E-06,1.58203125,0,0
-2.20088986679912E-05,4.57254827779252E-06,1.58203125,0,0
-1.93517389561748E-05,6.13014481132268E-06,1.58203125,0,0
-2.74600151897175E-05,9.22794879443245E-06,1.58203125,0,0
-2.07093435165007E-05,6.01694182478241E-06,1.58203125,0,0
-2.56731400440913E-05,5.56089389647241E-06,1.58203125,0,0
-2.14163865166483E-05,2.4821686110954E-06,1.58203125,0,0
-2.31225185416406E-05,-4.05672778924782E-07,1.58203125,0,0
-2.06498607440153E-05,-4.13340831073583E-06,1.58203125,0,0
-2.29538927669637E-05,-4.33883542427793E-06,1.58203125,0,0
-2.43652284552809E-05,-2.59895614362904E-06,1.58203125,0,0
-2.43746308115078E-05,-3.98955847913385E-07,1.58203125,0,0
-2.35073148360243E-05,2.17902857002628E-06,1.58203125,0,0
-2.32087113545276E-05,5.22222717336263E-06,1.58203125,0,0
-2.53989765042206E-05,8.98039616004098E-06,1.58203125,0,0
-2.51797937380616E-05,1.11314193418366E-05,1.58203125,0,0
-2.64675963990157E-05,1.26460090541514E-05,1.58203125,0,0
-2.55093218584079E-05,1.20531176435179E-05,1.58203125,0,0
-2.60615452134516E-05,1.10058108475641E-05,1.58203125,0,0
-2.55127361015184E-05,1.14222984848311E-05,1.58203125,0,0
-2.75872662314214E-05,1.48212402564241E-05,1.58203125,0,0
-2.65511371253524E-05,1.76917437784141E-05,1.58203125,0,0
-2.5368060960318E-05,1.91720355360303E-05,1.58203125,0,0
-2.2986550902715E-05,1.82062849489739E-05,1.58203125,0,0
-2.26045176532352E-05,1.57858248712728E-05,1.58203125,0,0
-2.2495434677694E-05,1.33610919874627E-05,1.58203125,0,0
-2.31440917559667E-05,1.28764022520045E-05,1.58203125,0,0
-2.35852512560086E-05,1.33635558086098E-05,1.58203125,0,0
-2.44332932197722E-05,1.43594415931148E-05,1.58203125,0,0
-2.02971277758479E-05,1.31875522129121E-05,1.58203125,0,0
-2.89538329525385E-05,1.79989692696836E-05,1.58203125,0,0
-2.28108801820781E-05,1.22603078125394E-05,1.58203125,0,0
-2.81925222225254E-05,1.57229951582849E-05,1.58203125,0,0
-2.20922847802285E-05,1.29342670334154E-05,1.58203125,0,0
-2.23303923121421E-05,1.43407214636682E-05,1.58203125,0,0
-1.81208160938695E-05,1.23750551210833E-05,1.58203125,0,0
-1.88802678167121E-05,1.28176570797223E-05,1.58203125,0,0
-1.89323309314204E-05,1.11867520899978E-05,1.58203125,0,0
-1.95687753148377E-05,8.21872799861012E-06,1.58203125,0,0
-2.00113317987416E-05,6.34399611953995E-06,1.58203125,0,0
-1.81518280442106E-05,5.91946445638314E-06,1.58203125,0,0
-1.73474236362381E-05,7.82219558459474E-06,1.58203125,0,0
-1.57659178512404E-05,8.57752911542775E-06,1.58203125,0,0
-1.81838149728719E-05,1.16935516416561E-05,1.58203125,0,0
-1.87367459147936E-05,1.42589869938092E-05,1.58203125,0,0
-2.06680269911885E-05,1.66826066561043E-05,1.58203125,0,0
-1.95590473595075E-05,1.52534212247701E-05,1.58203125,0,0
-1.93587839021347E-05,1.44267596624559E-05,1.58203125,0,0
-1.75810873770388E-05,1.29178479255643E-05,1.58203125,0,0
-1.8275872207596E-05,1.25506430777023E-05,1.58203125,0,0
-1.74656579474686E-05,1.11497447505826E-05,1.58203125,0,0
-1.68523092725081E-05,1.02249223346007E-05,1.58203125,0,0
-1.57030426635174E-05,9.21357968763914E-06,1.58203125,0,0
-1.54442022903822E-05,1.02101557786227E-05,1.58203125,0,0
-1.50970872709877E-05,1.34307447297033E-05,1.58203125,0,0
-1.61066727741854E-05,1.65352830663323E-05,1.58203125,0,0
-1.37808956424124E-05,1.34739630084368E-05,1.58203125,0,0
-2.01735692826333E-05,1.79797771124868E-05,1.58203125,0,0
-1.67639664141461E-05,1.08530912257265E-05,1.58203125,0,0
-2.10716716537718E-05,1.102066016756E-05,1.58203125,0,0
-1.83899283001665E-05,5.23483504366595E-06,1.58203125,0,0
-2.01394304895075E-05,7.11333495928557E-06,1.58203125,0,0
-1.98492671188433E-05,6.62506772641791E-06,1.58203125,0,0
-2.17929373320658E-05,7.88145644037286E-06,1.58203125,0,0
-2.03520685317926E-05,7.25713334759348E-06,1.58203125,0,0
-1.81526229425799E-05,7.67549045121996E-06,1.58203125,0,0
-1.73371863638749E-05,1.04587952591828E-05,1.58203125,0,0
-1.78734462679131E-05,1.21662651508814E-05,1.58203125,0,0
-2.03459676413331E-05,1.24029256767244E-05,1.58203125,0,0
-2.11749047593912E-05,1.05156668723794E-05,1.58203125,0,0
-2.23874994844664E-05,1.09442926259362E-05,1.58203125,0,0
-2.24235664063599E-05,1.03287766251015E-05,1.58203125,0,0
-2.4436181774945E-05,1.17506797323585E-05,1.58203125,0,0
-2.48366977757541E-05,1.25865763038746E-05,1.58203125,0,0
-2.62967969320016E-05,1.47728051160811E-05,1.58203125,0,0
-2.69516986008966E-05,1.49942343341536E-05,1.58203125,0,0
-2.9084070774843E-05,1.52251550389337E-05,1.58203125,0,0
-2.97130500257481E-05,1.34820866151131E-05,1.58203125,0,0
-3.01724994642427E-05,1.21535767902969E-05,1.58203125,0,0
-2.87845905404538E-05,1.26813665701775E-05,1.58203125,0,0
-2.68777293968014E-05,1.58378934429493E-05,1.58203125,0,0
-2.72353063337505E-05,1.72218642546795E-05,1.58203125,0,0
-3.04065088130301E-05,1.61208772624377E-05,1.58203125,0,0
-2.55739996646298E-05,1.10351465991698E-05,1.58203125,0,0
-3.49551592080388E-05,1.54066710820189E-05,1.58203125,0,0
-2.39636956393952E-05,1.28334058899782E-05,1.58203125,0,0
-3.07963164232206E-05,1.62122723850189E-05,1.58203125,0,0
-2.67379873548634E-05,1.20289469123236E-05,1.58203125,0,0
-3.00296524073929E-05,1.27896901176427E-05,1.58203125,0,0
-2.59187054325594E-05,1.13418282126077E-05,1.58203125,0,0
-2.7994261472486E-05,1.29092331917491E-05,1.58203125,0,0
-2.93714674626244E-05,1.38484538183548E-05,1.58203125,0,0
-3.04128316201968E-05,1.31017422972945E-05,1.58203125,0,0
-3.02260577882407E-05,1.13129826786462E-05,1.58203125,0,0
-2.89049876300851E-05,9.84662074188236E-06,1.58203125,0,0
-2.97954811685486E-05,1.04820701380959E-05,1.58203125,0,0
-2.80444655800238E-05,1.07644964373321E-05,1.58203125,0,0
-2.79579453490442E-05,1.29768222905113E-05,1.58203125,0,0
-2.47392654273426E-05,1.46443117046147E-05,1.58203125,0,0
-2.47764128289418E-05,1.72048348758835E-05,1.58203125,0,0
-2.28210828936426E-05,1.66233039635699E-05,1.58203125,0,0
-2.42772457568208E-05,1.52283755596727E-05,1.58203125,0,0
-2.41832294705091E-05,1.30874577735085E-05,1.58203125,0,0
-2.55081977229565E-05,1.2534133020381E-05,1.58203125,0,0
-2.40981080423808E-05,1.1340430319251E-05,1.58203125,0,0
-2.43245503952494E-05,1.11695917439647E-05,1.58203125,0,0
-2.39791370404419E-05,1.05987483038916E-05,1.58203125,0,0
-2.48494779953035E-05,1.10876026155893E-05,1.58203125,0,0
-2.6913287001662E-05,1.03660104286973E-05,1.58203125,0,0
-2.95919035124825E-05,8.62138404045254E-06,1.58203125,0,0
-2.49384120252216E-05,7.64489595894702E-06,1.58203125,0,0
-3.48623871104792E-05,1.12094185169553E-05,1.58203125,0,0
-2.49871245614486E-05,8.72802047524601E-06,1.58203125,0,0
-2.93840457743499E-05,1.08833482954651E-05,1.58203125,0,0
-2.30404093599645E-05,1.13468204290257E-05,1.58203125,0,0
-2.6530080504017E-05,1.40711590574938E-05,1.58203125,0,0
-2.45531555265188E-05,1.36448825287516E-05,1.58203125,0,0
-2.736781607382E-05,1.28719348140294E-05,1.58203125,0,0
-2.73154728347436E-05,1.08787917270092E-05,1.58203125,0,0
-2.69434003712377E-05,1.04822129287641E-05,1.58203125,0,0
-2.72575271083042E-05,1.11846547952155E-05,1.58203125,0,0
-2.70519904006505E-05,1.17845947897877E-05,1.58203125,0,0
-2.78441439149901E-05,1.19692613225197E-05,1.58203125,0,0
-2.55080394708784E-05,1.06240131572122E-05,1.58203125,0,0
-2.65106955339434E-05,1.05908857221948E-05,1.58203125,0,0
-2.57978263107361E-05,1.03454094642075E-05,1.58203125,0,0
-2.83202789432835E-05,1.11286635728902E-05,1.58203125,0,0
-2.78300976788159E-05,1.18329880933743E-05,1.58203125,0,0
-2.91644282697234E-05,1.31997021526331E-05,1.58203125,0,0
-2.79079777101288E-05,1.1880881174875E-05,1.58203125,0,0
-2.87532711809035E-05,9.97746428765822E-06,1.58203125,0,0
-2.80857602774631E-05,9.15758573682979E-06,1.58203125,0,0
-2.89274776150705E-05,1.1189685210411E-05,1.58203125,0,0
-2.95809677481884E-05,1.26117201943998E-05,1.58203125,0,0
-3.10628674924374E-05,1.22114606710966E-05,1.58203125,0,0
-3.10122595692519E-05,1.05234366856166E-05,1.58203125,0,0
-2.98374816338765E-05,9.25328276935034E-06,1.58203125,0,0
-2.43926133407513E-05,6.39896916254656E-06,1.58203125,0,0
-3.51418857462704E-05,9.09679056348978E-06,1.58203125,0,0
-2.65550534095382E-05,8.4476114352583E-06,1.58203125,0,0
-3.23725398629904E-05,1.21104167192243E-05,1.58203125,0,0
-2.68167204922065E-05,1.03198208307731E-05,1.58203125,0,0
-2.85017849819269E-05,9.98111863736995E-06,1.58203125,0,0
-2.60711804003222E-05,9.2545451479964E-06,1.58203125,0,0
-2.89672843791777E-05,1.04514929262223E-05,1.58203125,0,0
-3.02679800370242E-05,1.11029148683883E-05,1.58203125,0,0
-3.07101654470898E-05,1.16950141091365E-05,1.58203125,0,0
-2.93245138891507E-05,1.17179688459146E-05,1.58203125,0,0
-2.62680423475103E-05,1.16328719741432E-05,1.58203125,0,0
-2.58920954365749E-05,1.23718882605317E-05,1.58203125,0,0
-2.50740777119063E-05,1.22739829748753E-05,1.58203125,0,0
-2.736455280683E-05,1.21136117741116E-05,1.58203125,0,0
-2.68945859716041E-05,1.06953066278948E-05,1.58203125,0,0
-2.84683374047745E-05,9.79563901637448E-06,1.58203125,0,0
-2.72453762590885E-05,8.63523291627644E-06,1.58203125,0,0
-2.81286411336623E-05,8.27302210382186E-06,1.58203125,0,0
-2.65602357103489E-05,6.45300860924181E-06,1.58203125,0,0
-2.59582175203832E-05,5.37470987183042E-06,1.58203125,0,0
-2.3356527890428E-05,4.90996217195061E-06,1.58203125,0,0
-2.17230408452451E-05,4.59507100458723E-06,1.58203125,0,0
-1.92782317753881E-05,4.43302724306704E-06,1.58203125,0,0
-1.92833631444955E-05,5.47275703866035E-06,1.58203125,0,0
-1.93126852536807E-05,7.4506169767119E-06,1.58203125,0,0
-1.85002463695128E-05,9.70702967606485E-06,1.58203125,0,0
-1.48727685882477E-05,9.40775407798355E-06,1.58203125,0,0
-2.2639607777819E-05,1.45209914990119E-05,1.58203125,0,0
-2.0041714378749E-05,1.16574810817838E-05,1.58203125,0,0
-2.4596829462098E-05,1.24071020763949E-05,1.58203125,0,0
-2.11699807550758E-05,9.90421813185094E-06,1.58203125,0,0
-2.23951192310778E-05,1.22272467706352E-05,1.58203125,0,0
-2.11620263144141E-05,1.21531338663772E-05,1.58203125,0,0
-2.23628230742179E-05,1.2111738215026E-05,1.58203125,0,0
-2.17369524762034E-05,1.08477779576788E-05,1.58203125,0,0
-2.2065241864766E-05,9.47381522564683E-06,1.58203125,0,0
-2.27631644520443E-05,8.59478677739389E-06,1.58203125,0,0
-2.22402086365037E-05,8.16815372672863E-06,1.58203125,0,0
-2.13408111449098E-05,1.01991590781836E-05,1.58203125,0,0
-1.81358809641097E-05,1.17800027510384E-05,1.58203125,0,0
-1.71764659171458E-05,1.31822544062743E-05,1.58203125,0,0
-1.61032294272445E-05,1.22466808534227E-05,1.58203125,0,0
-1.67245216289302E-05,1.25320329971146E-05,1.58203125,0,0
-1.52057837112807E-05,1.28823203340289E-05,1.58203125,0,0
-1.53283963300055E-05,1.31095230244682E-05,1.58203125,0,0
-1.5319608792197E-05,1.15143675429863E-05,1.58203125,0,0
-1.81778395926813E-05,1.04703840406728E-05,1.58203125,0,0
-2.12836512218928E-05,9.16442513698712E-06,1.58203125,0,0
-2.48381347773829E-05,9.08024503587512E-06,1.58203125,0,0
-2.79097148450091E-05,9.76515457296046E-06,1.58203125,0,0
-3.26108274748549E-05,9.84664893621812E-06,1.58203125,0,0
-3.56090931745712E-05,8.4266839621705E-06,1.58203125,0,0
-3.52414936060086E-05,8.19013439468108E-06,1.58203125,0,0
-2.59743519563926E-05,8.44881560624344E-06,1.58203125,0,0
-3.51515700458549E-05,1.31733795569744E-05,1.58203125,0,0
-2.3568327378598E-05,9.73144506133394E-06,1.58203125,0,0
-2.96834132313961E-05,1.00531251518987E-05,1.58203125,0,0
-2.32920865528286E-05,8.46306556923082E-06,1.58203125,0,0
-2.56761977652786E-05,8.26439008960733E-06,1.58203125,0,0
-2.28839580813656E-05,6.35496689938009E-06,1.58203125,0,0
-2.45356259256369E-05,6.77447542329901E-06,1.58203125,0,0
-2.1724617909058E-05,5.86077203479363E-06,1.58203125,0,0
-1.92909101315308E-05,4.86320186610101E-06,1.58203125,0,0
-1.80586193891941E-05,4.16407283410081E-06,1.58203125,0,0
-1.63162367243785E-05,3.81334598387184E-06,1.58203125,0,0
-1.6572752429056E-05,4.72797000838909E-06,1.58203125,0,0
-1.45103704198846E-05,5.86199803365162E-06,1.58203125,0,0
-1.48020872074994E-05,7.59518843551632E-06,1.58203125,0,0
-1.17129047794151E-05,6.79362574373954E-06,1.58203125,0,0
-1.08974700196995E-05,5.53067366126925E-06,1.58203125,0,0
-8.16667125036474E-06,4.33668174082413E-06,1.58203125,0,0
-1.01932591860532E-05,5.31942851011991E-06,1.58203125,0,0
-1.01711702882312E-05,5.87581780564506E-06,1.58203125,0,0
-1.05036424429272E-05,6.51218806524412E-06,1.58203125,0,0
-8.58214480103925E-06,6.74591456117923E-06,1.58203125,0,0
-9.03436466614949E-06,7.58740816309E-06,1.58203125,0,0
-7.91909951658454E-06,8.74539364303928E-06,1.58203125,0,0
-6.61272861179896E-06,1.00865918284399E-05,1.58203125,0,0
-5.92296191825881E-06,9.49114473769441E-06,1.58203125,0,0
-8.01440728537273E-06,7.81943981564837E-06,1.58203125,0,0
-9.7262936833431E-06,6.01090096097323E-06,1.58203125,0,0
-1.52560014612391E-05,1.13884279926424E-05,1.58203125,0,0
-1.26973582155188E-05,1.26046616060194E-05,1.58203125,0,0
-1.49476027218043E-05,1.49153756865417E-05,1.58203125,0,0
-1.46596921695163E-05,1.497080847912E-05,1.58203125,0,0
-1.58811872097431E-05,1.69410268426873E-05,1.58203125,0,0
-1.45041067298735E-05,1.84118562174262E-05,1.58203125,0,0
-1.52506845552125E-05,1.89890906767687E-05,1.58203125,0,0
-1.70043076650472E-05,1.83039865078172E-05,1.58203125,0,0
-2.00737213162938E-05,1.97261106222868E-05,1.58203125,0,0
-2.29577126447111E-05,2.09712579817278E-05,1.58203125,0,0
-2.40729586948873E-05,2.00104659597855E-05,1.58203125,0,0
-2.5795932742767E-05,1.76833182194969E-05,1.58203125,0,0
-2.74527374131139E-05,1.53426899487386E-05,1.58203125,0,0
-2.92436798190465E-05,1.48370572787826E-05,1.58203125,0,0
-2.85284768324345E-05,1.39863268486806E-05,1.58203125,0,0
-2.83161025436129E-05,1.31044689624105E-05,1.58203125,0,0
-2.8075617592549E-05,1.16333039841265E-05,1.58203125,0,0
-2.95215249934699E-05,1.09657048597001E-05,1.58203125,0,0
-2.94984893116634E-05,1.14223848868278E-05,1.58203125,0,0
-2.81334596365923E-05,1.28968686112785E-05,1.58203125,0,0
-2.60396827798104E-05,1.25577707876801E-05,1.58203125,0,0
-2.61914228758542E-05,1.25627857414656E-05,1.58203125,0,0
-2.722695171542E-05,1.33112916955724E-05,1.58203125,0,0
-2.74825306405546E-05,1.45167105074506E-05,1.58203125,0,0
-2.77098406513687E-05,1.48979816003703E-05,1.58203125,0,0
-2.94501369353384E-05,1.5552615877823E-05,1.58203125,0,0
-2.65196395048406E-05,1.41394539241446E-05,1.58203125,0,0
-3.82880170946009E-05,2.06704607990105E-05,1.58203125,0,0
-2.82346536550904E-05,1.62113283295184E-05,1.58203125,0,0
-3.40467413479928E-05,2.01394395844545E-05,1.58203125,0,0
-2.84215293504531E-05,1.56096739374334E-05,1.58203125,0,0
-3.24049724440556E-05,1.41625487231067E-05,1.58203125,0,0
-3.17246958729811E-05,9.55350515141618E-06,1.58203125,0,0
-3.59510304406285E-05,7.5976395237376E-06,1.58203125,0,0
-3.81708487111609E-05,6.71948191666161E-06,1.58203125,0,0
-3.9023991121212E-05,7.67728306527715E-06,1.58203125,0,0
-3.76535972463898E-05,8.57266331877327E-06,1.58203125,0,0
-3.49421206919942E-05,7.66424273024313E-06,1.58203125,0,0
-3.47228087775875E-05,6.44351302980795E-06,1.58203125,0,0
-3.24653992720414E-05,3.82973394152941E-06,1.58203125,0,0
-3.40794103976805E-05,3.62221703653631E-06,1.58203125,0,0
-3.42854546033777E-05,3.83642645829241E-06,1.58203125,0,0
-3.70025300071575E-05,6.42169334241771E-06,1.58203125,0,0
-3.63394719897769E-05,6.26757446298143E-06,1.58203125,0,0
-3.70217494491953E-05,6.20204809820279E-06,1.58203125,0,0
-3.35345721396152E-05,6.70177178108133E-06,1.58203125,0,0
-3.11161456920672E-05,8.89268994797021E-06,1.58203125,0,0
-2.82401815638877E-05,8.54539393913001E-06,1.58203125,0,0
-2.85607893601991E-05,1.08255899249343E-05,1.58203125,0,0
-2.87768707494251E-05,1.53143046190962E-05,1.58203125,0,0
-2.77826165984152E-05,1.82254771061707E-05,1.58203125,0,0
-2.31534522754373E-05,1.77491710928734E-05,1.58203125,0,0
-1.8045466276817E-05,1.54164426930947E-05,1.58203125,0,0
-1.14759195639635E-05,1.00835122793796E-05,1.58203125,0,0
-1.37175393319922E-05,1.28655365188024E-05,1.58203125,0,0
-7.28202667232836E-06,8.31586021377007E-06,1.58203125,0,0
-1.14900049084099E-05,1.0325646144338E-05,1.58203125,0,0
-1.10227683762787E-05,7.41589883546112E-06,1.58203125,0,0
-1.3505081369658E-05,1.04687314887997E-05,1.58203125,0,0
-1.20552713269717E-05,1.04112905319198E-05,1.58203125,0,0
-1.30468088173075E-05,1.02823978522792E-05,1.58203125,0,0
-1.55048237502342E-05,9.54379993345356E-06,1.58203125,0,0
-1.85366552614141E-05,1.14604317786871E-05,1.58203125,0,0
-1.89483835129067E-05,1.43590650623082E-05,1.58203125,0,0
-1.73518328665523E-05,1.4080966138863E-05,1.58203125,0,0
-1.89681813935749E-05,1.30473108583828E-05,1.58203125,0,0
-2.13923794945003E-05,1.21164412121288E-05,1.58203125,0,0
-2.58119016507408E-05,1.22873398140655E-05,1.58203125,0,0
-2.93448338197777E-05,9.84981761575909E-06,1.58203125,0,0
-3.3085118047893E-05,8.24481685413048E-06,1.58203125,0,0
-3.4305703593418E-05,7.13877898306237E-06,1.58203125,0,0
-3.62752143701073E-05,9.41277721722145E-06,1.58203125,0,0
-3.61849160981365E-05,1.15781576823792E-05,1.58203125,0,0
-3.56407799699809E-05,1.41757182063884E-05,1.58203125,0,0
-3.37417986884248E-05,1.46004913403885E-05,1.58203125,0,0
-3.23921740346123E-05,1.42441767820856E-05,1.58203125,0,0
-3.10315990645904E-05,1.54462359205354E-05,1.58203125,0,0
-3.05586181639228E-05,1.84400068974355E-05,1.58203125,0,0
-2.90993793896632E-05,1.80506540345959E-05,1.58203125,0,0
-2.77673570963088E-05,1.38453224280966E-05,1.58203125,0,0
-2.21645186684327E-05,6.95412973072962E-06,1.58203125,0,0
-2.88076280412497E-05,8.67729704623343E-06,1.58203125,0,0
-1.48195922520244E-05,5.81050062464783E-06,1.58203125,0,0
-1.44513351187925E-05,8.13141832622932E-06,1.58203125,0,0
-5.97687949266401E-06,5.46915771337808E-06,1.58203125,0,0
-8.96780875336844E-06,4.16301418226794E-06,1.58203125,0,0
-8.37866355141159E-06,1.54367762661423E-06,1.58203125,0,0
-1.05699336927501E-05,2.61278159996436E-06,1.58203125,0,0
-9.36981996346731E-06,3.52073220710736E-06,1.58203125,0,0
-9.50936555454973E-06,5.08818266098388E-06,1.58203125,0,0
-1.04689852378215E-05,7.26865937394905E-06,1.58203125,0,0
-1.13496316771489E-05,7.70879069023067E-06,1.58203125,0,0
-1.49657380461576E-05,8.69975156092551E-06,1.58203125,0,0
-1.57300019054674E-05,9.58336659095949E-06,1.58203125,0,0
-1.91214294318343E-05,1.10402224891004E-05,1.58203125,0,0
-2.14005667658057E-05,1.11512008516002E-05,1.58203125,0,0
-2.56895600614371E-05,1.20514532682137E-05,1.58203125,0,0
-2.57752453762805E-05,1.21522707559052E-05,1.58203125,0,0
-2.78453735518269E-05,1.24549187603407E-05,1.58203125,0,0
-2.92512595478911E-05,1.24456973935594E-05,1.58203125,0,0
-3.21960287692491E-05,1.37736078613671E-05,1.58203125,0,0
-3.13722048304044E-05,1.33641015054309E-05,1.58203125,0,0
-2.95637692033779E-05,1.16706005428568E-05,1.58203125,0,0
-2.63586098299129E-05,1.03118081824505E-05,1.58203125,0,0
-2.38850607274799E-05,9.21973150980193E-06,1.58203125,0,0
-2.07693865377223E-05,9.30379064811859E-06,1.58203125,0,0
-1.87065797945252E-05,1.02035373856779E-05,1.58203125,0,0
-1.59647552209208E-05,6.95388052918133E-06,1.58203125,0,0
-2.44463753915625E-05,6.96531105859322E-06,1.58203125,0,0
-2.18620662053581E-05,1.94195786207274E-06,1.58203125,0,0
-2.79506148217479E-05,4.58851718576625E-06,1.58203125,0,0
-2.53070829785429E-05,3.82415146304993E-06,1.58203125,0,0
-2.73391469818307E-05,5.76747606828576E-06,1.58203125,0,0
-2.90038169623585E-05,5.70459997106809E-06,1.58203125,0,0
-3.34155447490048E-05,7.1980202847044E-06,1.58203125,0,0
-3.38831814588048E-05,8.92273601493798E-06,1.58203125,0,0
-3.4098145988537E-05,1.05597955553094E-05,1.58203125,0,0
-3.56667260348331E-05,1.05834196801879E-05,1.58203125,0,0
-3.75377167074475E-05,9.22891103982693E-06,1.58203125,0,0
-4.04808815801516E-05,9.47880107560195E-06,1.58203125,0,0
-4.11461696785409E-05,9.08832225832157E-06,1.58203125,0,0
-4.24029167334083E-05,8.37847983348183E-06,1.58203125,0,0
-4.09145031881053E-05,8.10861092759296E-06,1.58203125,0,0
-4.08804808103014E-05,1.15482689579949E-05,1.58203125,0,0
-3.97035619243979E-05,1.35555637825746E-05,1.58203125,0,0
-3.86072388209868E-05,1.34940528369043E-05,1.58203125,0,0
-3.44565560226329E-05,1.21286875582882E-05,1.58203125,0,0
-3.24394932249561E-05,1.21447183119017E-05,1.58203125,0,0
-3.17299636662938E-05,1.1019934390788E-05,1.58203125,0,0
-3.29982685798313E-05,9.88131068879738E-06,1.58203125,0,0
-3.31976589222904E-05,8.96521396498429E-06,1.58203125,0,0
-3.22315136145335E-05,9.21092305361526E-06,1.58203125,0,0
-3.03199067275273E-05,9.87293151410995E-06,1.58203125,0,0
-2.90507905447157E-05,9.76343744696351E-06,1.58203125,0,0
-2.32673228310887E-05,7.21733158570714E-06,1.58203125,0,0
-3.17890153382905E-05,9.20278944249731E-06,1.58203125,0,0
-1.95036955119576E-05,6.92417233949527E-06,2.4609375,0,0
-2.15745621972019E-05,1.08092181108077E-05,2.4609375,0,0
-1.54003028001171E-05,8.46909188112477E-06,2.4609375,0,0
-1.86014258360956E-05,7.92424634710187E-06,2.4609375,0,0
-1.57722151925555E-05,7.28320628695656E-06,2.4609375,0,0
-1.50727573782206E-05,9.20521870284574E-06,2.4609375,0,0
-1.2936924576934E-05,1.19011219794629E-05,2.4609375,0,0
-1.37065053422702E-05,1.52106031237054E-05,2.4609375,0,0
-1.53405344462954E-05,1.8247876141686E-05,2.4609375,0,0
-1.48699928104179E-05,1.96513919945573E-05,2.4609375,0,0
-1.54514054884203E-05,2.05673441087129E-05,2.4609375,0,0
-1.50663827298558E-05,2.00680169655243E-05,2.4609375,0,0
-1.8131951946998E-05,2.01829134311993E-05,2.4609375,0,0
-1.92799161595758E-05,2.02544342755573E-05,2.4609375,0,0
-2.24647028517211E-05,2.11839669645997E-05,2.4609375,0,0
-2.1284553440637E-05,1.99250443984056E-05,2.4609375,0,0
-2.05809974431759E-05,1.88345456990646E-05,2.4609375,0,0
-1.87987152457936E-05,1.74757078639232E-05,2.4609375,0,0
-2.04933785425965E-05,1.71478495758493E-05,2.4609375,0,0
-2.0095047148061E-05,1.76015091710724E-05,2.4609375,0,0
-2.03837735170964E-05,1.79116523213452E-05,2.4609375,0,0
-2.18998739001108E-05,1.64874636539025E-05,2.4609375,0,0
-2.60671331488993E-05,1.52707289089449E-05,2.4609375,0,0
-2.79051691904897E-05,1.51249923874275E-05,2.4609375,0,0
-2.82295859506121E-05,1.50770083564566E-05,2.4609375,0,0
-2.19203429878689E-05,1.10250030047609E-05,2.4609375,0,0
-2.93150533252629E-05,1.4231192835723E-05,2.4609375,0,0
-2.13259118027054E-05,8.70516123541165E-06,2.4609375,0,0
-3.08749404211994E-05,1.03128859336721E-05,2.4609375,0,0
-2.98857667075936E-05,6.01755436946405E-06,2.4609375,0,0
-3.45946500601713E-05,6.94627988195862E-06,2.4609375,0,0
-3.24990214721765E-05,6.85036638969905E-06,2.4609375,0,0
-3.41081540682353E-05,8.03782768343808E-06,2.4609375,0,0
-3.46382767020259E-05,6.88844602336758E-06,2.4609375,0,0
-3.59425903297961E-05,7.8847087934264E-06,2.4609375,0,0
-3.52133065462112E-05,1.07378918983159E-05,2.4609375,0,0
-3.18934617098421E-05,1.24601419884129E-05,2.4609375,0,0
-3.1257513910532E-05,1.23145728139207E-05,2.4609375,0,0
-3.08075977955014E-05,9.27743803913472E-06,2.4609375,0,0
-3.34893993567675E-05,9.16485714697046E-06,2.4609375,0,0
-3.2474741601618E-05,9.89930595096666E-06,2.4609375,0,0
-3.23611238854937E-05,1.06613151729107E-05,2.4609375,0,0
-2.82649034488713E-05,7.64725336921401E-06,2.4609375,0,0
-2.54233400482917E-05,6.39519475953421E-06,2.4609375,0,0
-2.13708663068246E-05,6.17332898400491E-06,2.4609375,0,0
-2.04762563953409E-05,7.36580022930866E-06,2.4609375,0,0
-1.87360965355765E-05,7.34057130102883E-06,2.4609375,0,0
-1.91388462553732E-05,8.93103242560755E-06,2.4609375,0,0
-1.86108791240258E-05,1.1181075933564E-05,2.4609375,0,0
-1.73140888364287E-05,1.18870148071437E-05,2.4609375,0,0
-1.70757048181258E-05,1.00927163657616E-05,2.4609375,0,0
-1.83012416528072E-05,9.57549127633683E-06,2.4609375,0,0
-1.44669529618113E-05,8.31589659355814E-06,2.4609375,0,0
-1.87670520972461E-05,1.15303409984335E-05,2.4609375,0,0
-1.09105158117018E-05,7.36061065254034E-06,2.4609375,0,0
-1.2381835404085E-05,8.2734022726072E-06,2.4609375,0,0
-7.83075847721193E-06,6.99920110491803E-06,2.4609375,0,0
-9.8783930297941E-06,1.02208814496407E-05,2.4609375,0,0
-1.04590426417417E-05,1.1397010894143E-05,2.4609375,0,0
-1.49846346175764E-05,1.1826331501652E-05,2.4609375,0,0
-1.91424951481167E-05,1.1619948054431E-05,2.4609375,0,0
-2.36502437473973E-05,1.25692204164807E-05,2.4609375,0,0
-2.66476490651257E-05,1.32857694552513E-05,2.4609375,0,0
-2.51676174229942E-05,1.39998392114649E-05,2.4609375,0,0
-2.26487591135083E-05,1.59211231220979E-05,2.4609375,0,0
-2.03852123377146E-05,1.65836590895196E-05,2.4609375,0,0
-2.19929315790068E-05,1.78313384822104E-05,2.4609375,0,0
-2.14872543438105E-05,1.77141882886644E-05,2.4609375,0,0
-2.11950100492686E-05,1.73039370565675E-05,2.4609375,0,0
-1.94317144632805E-05,1.52067914314102E-05,2.4609375,0,0
-1.94219810509821E-05,1.41318932946888E-05,2.4609375,0,0
-1.75382792804157E-05,1.43368042699876E-05,2.4609375,0,0
-1.50986215885496E-05,1.72981035575503E-05,2.4609375,0,0
-1.05328081190237E-05,1.86808974831365E-05,2.4609375,0,0
-7.68014979257714E-06,1.71305782714626E-05,2.4609375,0,0
-6.19608999841148E-06,1.4329965779325E-05,2.4609375,0,0
-5.49451669940026E-06,1.35871096063056E-05,2.4609375,0,0
-3.47843410963833E-06,1.3927805412095E-05,2.4609375,0,0
-1.58541206474183E-06,1.3918616787123E-05,2.4609375,0,0
-8.59242959450057E-07,8.83455777511699E-06,2.4609375,0,0
-2.04068646780797E-06,1.15450611701817E-05,2.4609375,0,0
-4.03140438720584E-06,7.27926590116112E-06,2.4609375,0,0
-6.21245271759108E-06,7.92510854807915E-06,2.4609375,0,0
-9.16389490157599E-06,3.51923245034413E-06,2.4609375,0,0
-1.34461015477427E-05,3.84654822482844E-06,2.4609375,0,0
-1.71917017723899E-05,2.91548144559783E-06,2.4609375,0,0
-1.93337054952281E-05,4.62171738035977E-06,2.4609375,0,0
-1.99817222892307E-05,5.48895332030952E-06,2.4609375,0,0
-2.07259945455007E-05,5.59384170628618E-06,2.4609375,0,0
-2.08079982257914E-05,4.22613084083423E-06,2.4609375,0,0
-2.1109977751621E-05,2.9250168154249E-06,2.4609375,0,0
-2.2605503545492E-05,3.77702463083551E-06,2.4609375,0,0
-2.46158961090259E-05,4.51142796009663E-06,2.4609375,0,0
-2.66904262389289E-05,5.39410120836692E-06,2.4609375,0,0
-2.69062365987338E-05,3.02740409097169E-06,2.4609375,0,0
-2.49197182711214E-05,1.4207813592293E-06,2.4609375,0,0
-2.30177101911977E-05,1.85353906090313E-06,2.4609375,0,0
-2.3388747649733E-05,4.84712018078426E-06,2.4609375,0,0
-2.47300977207487E-05,5.06162996316561E-06,2.4609375,0,0
-2.58136897173245E-05,4.77979892821168E-06,2.4609375,0,0
-2.58482068602461E-05,3.8804905670986E-06,2.4609375,0,0
-2.56233870459255E-05,3.30772400047863E-06,2.4609375,0,0
-2.53739362960914E-05,3.38250947606866E-06,2.4609375,0,0
-2.51587935053976E-05,4.3002401071135E-06,2.4609375,0,0
-2.52447880484397E-05,4.42252894572448E-06,2.4609375,0,0
-2.58661275438499E-05,4.2988067434635E-06,2.4609375,0,0
-2.02303326659603E-05,1.51676647419663E-06,2.4609375,0,0
-2.67855375568615E-05,1.05950402939925E-06,2.4609375,0,0
-1.78549144038698E-05,6.1662819916819E-07,2.4609375,0,0
-2.35003772104392E-05,2.53431608143728E-06,2.4609375,0,0
-2.01409129658714E-05,3.30590819430654E-06,2.4609375,0,0
-2.47680764005054E-05,3.19785181090992E-06,2.4609375,0,0
-2.3187951228465E-05,2.03052513825241E-06,2.4609375,0,0
-2.65244398178766E-05,3.9666706470598E-06,2.4609375,0,0
-2.89711988443742E-05,6.66498726786813E-06,2.4609375,0,0
-3.16636833304074E-05,9.41536018217448E-06,2.4609375,0,0
-3.34316609951202E-05,1.10806240627426E-05,2.4609375,0,0
-3.36816010531038E-05,1.21580196719151E-05,2.4609375,0,0
-3.5815410228679E-05,1.52396723933634E-05,2.4609375,0,0
-3.6571149394149E-05,1.89442416740349E-05,2.4609375,0,0
-3.92696601920761E-05,2.01184211618965E-05,2.4609375,0,0
-3.89288979931735E-05,1.79603084689006E-05,2.4609375,0,0
-3.95535353163723E-05,1.714299833111E-05,2.4609375,0,0
-3.75885574612767E-05,1.72564577951562E-05,2.4609375,0,0
-3.98676347685978E-05,1.64804132509744E-05,2.4609375,0,0
-4.23215278715361E-05,1.49841007441864E-05,2.4609375,0,0
-4.67903009848669E-05,1.49303996295203E-05,2.4609375,0,0
-4.97767505294178E-05,1.58392831508536E-05,2.4609375,0,0
-5.31292316736653E-05,1.63501299539348E-05,2.4609375,0,0
-5.34003011125606E-05,1.60852559929481E-05,2.4609375,0,0
-5.38879648956936E-05,1.61068346642423E-05,2.4609375,0,0
-5.31824880454224E-05,1.43473553180229E-05,2.4609375,0,0
-5.1543607696658E-05,1.09162447188282E-05,2.4609375,0,0
-4.08103114750702E-05,7.48323554944363E-06,2.4609375,0,0
-5.74297118873801E-05,1.17009858513484E-05,2.4609375,0,0
-4.25022553827148E-05,9.63265210884856E-06,2.4609375,0,0
-5.12789010826964E-05,1.00873057817807E-05,2.4609375,0,0
-3.86294595955405E-05,6.53675579087576E-06,2.4609375,0,0
-3.96380128222518E-05,5.06137075717561E-06,2.4609375,0,0
-3.08156886603683E-05,3.34214473696193E-06,2.4609375,0,0
-2.981014586112E-05,4.44891702500172E-06,2.4609375,0,0
-2.54392089118483E-05,5.60867601961945E-06,2.4609375,0,0
-2.27340024139266E-05,7.54837492422666E-06,2.4609375,0,0
-2.05669020942878E-05,7.94214247434866E-06,2.4609375,0,0
-1.59507544594817E-05,6.85316263115965E-06,2.4609375,0,0
-1.42737699206918E-05,6.68358825350879E-06,2.4609375,0,0
-9.45213923841948E-06,6.95893004376558E-06,2.4609375,0,0
-8.57093073136639E-06,8.49641583045013E-06,2.4609375,0,0
-2.11820929507667E-06,1.04623541119508E-05,2.4609375,0,0
8.13563687529495E-08,1.31628012240981E-05,2.4609375,0,0
6.30439762971946E-06,1.23458694361034E-05,2.4609375,0,0
8.33898502605734E-06,1.17650324682472E-05,2.4609375,0,0
1.41263035402517E-05,1.16507135317079E-05,2.4609375,0,0
1.56299411173677E-05,1.17415138447541E-05,2.4609375,0,0
1.65654309967067E-05,1.05858534880099E-05,2.4609375,0,0
1.19082169476314E-05,1.07713531178888E-05,2.4609375,0,0
8.78785067470744E-06,1.31126944324933E-05,2.4609375,0,0
5.89202045375714E-06,1.68509541254025E-05,2.4609375,0,0
3.17816238748492E-06,1.91959807125386E-05,2.4609375,0,0
-8.89650380031526E-07,1.90821538126329E-05,2.4609375,0,0
-6.11638552072691E-06,1.50945525092538E-05,2.4609375,0,0
-1.41737355079385E-05,2.14969404623844E-05,2.4609375,0,0
-1.89358142961282E-05,1.77478814293863E-05,2.4609375,0,0
-2.25823023356497E-05,2.33164882956771E-05,2.4609375,0,0
-2.65243797912262E-05,1.97089320863597E-05,2.4609375,0,0
-3.11382609652355E-05,1.98028774320846E-05,2.4609375,0,0
-3.33797870553099E-05,1.57640570250805E-05,2.4609375,0,0
-3.46540437021758E-05,1.49981869981275E-05,2.4609375,0,0
-3.48490793840028E-05,1.36118387672468E-05,2.4609375,0,0
-3.46734414051753E-05,1.43199540616479E-05,2.4609375,0,0
-3.53515279130079E-05,1.55596189870266E-05,2.4609375,0,0
-3.73757357010618E-05,1.55969446495874E-05,2.4609375,0,0
-4.08510059060063E-05,1.51413214553031E-05,2.4609375,0,0
-4.24849858973175E-05,1.21977627713932E-05,2.4609375,0,0
-4.25835933128838E-05,1.1444524716353E-05,2.4609375,0,0
-4.18215022364166E-05,9.9438539109542E-06,2.4609375,0,0
-4.15930771850981E-05,1.06938050521421E-05,2.4609375,0,0
-4.09825479437131E-05,9.81830271484796E-06,2.4609375,0,0
-4.14947935496457E-05,9.26484517549397E-06,2.4609375,0,0
-4.23635501647368E-05,6.07028778176755E-06,2.4609375,0,0
-4.22601624450181E-05,5.1307983994775E-06,2.4609375,0,0
-4.08366540796123E-05,4.23104165747645E-06,2.4609375,0,0
-3.89569067920092E-05,4.29337796958862E-06,2.4609375,0,0
-3.70498310076073E-05,3.47957825397316E-06,2.4609375,0,0
-3.56213131453842E-05,5.01930753671331E-06,2.4609375,0,0
-3.51508861058392E-05,8.32906698633451E-06,2.4609375,0,0
-3.57559038093314E-05,1.07998739622417E-05,2.4609375,0,0
-3.00317078654189E-05,9.28369445318822E-06,2.4609375,0,0
-4.22966477344744E-05,1.28697438412928E-05,2.4609375,0,0
-2.87408529402455E-05,1.05595909190015E-05,2.4609375,0,0
-3.20951621688437E-05,1.22636620289995E-05,2.4609375,0,0
-2.11386068258435E-05,6.33063245913945E-06,2.4609375,0,0
-2.03762629098492E-05,5.71867485632538E-06,2.4609375,0,0
-1.37002289193333E-05,6.14551072430913E-06,2.4609375,0,0
-1.4534406545863E-05,8.31123634270625E-06,2.4609375,0,0
-1.39275089168223E-05,9.19039848668035E-06,2.4609375,0,0
-1.35186510306085E-05,1.01851701401756E-05,2.4609375,0,0
-1.24665129987989E-05,1.03624215626041E-05,2.4609375,0,0
-1.05191847978858E-05,9.28628196561476E-06,2.4609375,0,0
-1.2584443538799E-05,9.68361837294651E-06,2.4609375,0,0
-1.32476088765543E-05,1.03461970866192E-05,2.4609375,0,0
-1.61181669682264E-05,1.22330020531081E-05,2.4609375,0,0
-1.42289927680395E-05,1.22449973787297E-05,2.4609375,0,0
-1.50745563587407E-05,1.25862788991071E-05,2.4609375,0,0
-1.36160024339915E-05,1.189669364976E-05,2.4609375,0,0
-1.5399247786263E-05,1.26402210298693E-05,2.4609375,0,0
-1.48942826854181E-05,1.29788159028976E-05,2.4609375,0,0
-1.75510685949121E-05,1.45071971928701E-05,2.4609375,0,0
-1.82941257662605E-05,1.53294677147642E-05,2.4609375,0,0
-1.99339519895148E-05,1.53806959133362E-05,2.4609375,0,0
-2.06243566935882E-05,1.45525273183011E-05,2.4609375,0,0
-2.36239939113148E-05,1.4831109183433E-05,2.4609375,0,0
-2.77166182058863E-05,1.52808661368908E-05,2.4609375,0,0
-3.14991411869414E-05,1.62869018822676E-05,2.4609375,0,0
-2.69819629465928E-05,1.40213178383419E-05,2.4609375,0,0
-3.93428817915265E-05,1.99337373487651E-05,2.4609375,0,0
-3.06281144730747E-05,1.41775171869085E-05,2.4609375,0,0
-3.56344717147294E-05,1.61866955750156E-05,2.4609375,0,0
-2.89240633719601E-05,1.23010022434755E-05,2.4609375,0,0
-3.28008172800764E-05,1.31753658934031E-05,2.4609375,0,0
-2.97404312732397E-05,1.12784600787563E-05,2.4609375,0,0
-2.99705789075233E-05,1.17880535981385E-05,2.4609375,0,0
-2.68843923549866E-05,9.42133647185983E-06,2.4609375,0,0
-2.42021542362636E-05,9.01252496987581E-06,2.4609375,0,0
-2.18119384953752E-05,1.15345192170935E-05,2.4609375,0,0
-1.90394293895224E-05,1.30920461742789E-05,2.4609375,0,0
-1.98268116946565E-05,1.43097468026099E-05,2.4609375,0,0
-1.9193012121832E-05,1.39070225486648E-05,2.4609375,0,0
-2.08051260415232E-05,1.46487245729077E-05,2.4609375,0,0
-1.79829912667628E-05,1.37606602947926E-05,2.4609375,0,0
-1.74328397406498E-05,1.40951933644828E-05,2.4609375,0,0
-1.45809899549931E-05,1.28305673570139E-05,2.4609375,0,0
-1.52529846673133E-05,1.31092901938246E-05,2.4609375,0,0
-1.40282927532098E-05,1.25798733279225E-05,2.4609375,0,0
-1.38203704409534E-05,1.42352291732095E-05,2.4609375,0,0
-1.00266170193208E-05,1.4195249605109E-05,2.4609375,0,0
-6.78240621709847E-06,1.40089587148395E-05,2.4609375,0,0
-3.16349178319797E-06,1.5089901353349E-05,2.4609375,0,0
-9.22702213301818E-07,1.65945548360469E-05,2.4609375,0,0
5.4351414746634E-07,1.70189614436822E-05,2.4609375,0,0
2.36047952739682E-07,1.77680049091578E-05,2.4609375,0,0
-6.28872726338159E-07,1.51223812281387E-05,2.4609375,0,0
-2.13719590647088E-06,2.08106521313312E-05,2.4609375,0,0
-3.90913282899419E-06,1.37853303385782E-05,2.4609375,0,0
-4.85361942992313E-06,1.49756424434599E-05,2.4609375,0,0
-6.52786093269242E-06,9.70893688645447E-06,2.4609375,0,0
-7.47128569855704E-06,1.14368231152184E-05,2.4609375,0,0
-6.92314279149286E-06,1.03422526080976E-05,2.4609375,0,0
-5.82831989959232E-06,1.10037781269057E-05,7.20703125,0,0
-7.99216013547266E-06,9.8678774520522E-06,7.20703125,0,0
-1.19800142783788E-05,9.21747141546803E-06,7.20703125,0,0
-1.5535473721684E-05,8.8889892140287E-06,7.20703125,0,0
-1.87859404832125E-05,9.25243875826709E-06,7.20703125,0,0
-2.18502209463622E-05,1.21658722491702E-05,7.20703125,0,0
-2.43485974351643E-05,1.36263070089626E-05,7.20703125,0,0
-2.6343681383878E-05,1.51205676957034E-05,7.20703125,0,0
-2.82110522675794E-05,1.31671613416984E-05,7.20703125,0,0
-2.92290405923268E-05,1.30202524815104E-05,7.20703125,0,0
-2.99514231301146E-05,1.19868227557163E-05,7.20703125,0,0
-3.16779151035007E-05,1.22264800666017E-05,7.20703125,0,0
-3.40402111760341E-05,1.17465451694443E-05,7.20703125,0,0
-3.65077794413082E-05,1.40086049214005E-05,7.20703125,0,0
-3.8634618249489E-05,1.4609510799346E-05,7.20703125,0,0
-4.00727694795933E-05,1.35302170747309E-05,7.20703125,0,0
-4.22239136241842E-05,1.07849655250902E-05,7.20703125,0,0
-4.23575547756627E-05,9.29580346564762E-06,7.20703125,0,0
-3.92509100493044E-05,8.38375672174152E-06,7.20703125,0,0
-3.60115336661693E-05,7.62020454203594E-06,7.20703125,0,0
-2.81190623354632E-05,6.16034776612651E-06,7.20703125,0,0
-4.07785628340207E-05,9.59540011535864E-06,7.20703125,0,0
-3.18022757710423E-05,7.8787052189E-06,7.20703125,0,0
-4.05906066589523E-05,8.36202980281087E-06,7.20703125,0,0
-3.60701014869846E-05,5.88901457376778E-06,7.20703125,0,0
-4.07485240430105E-05,4.50355537395808E-06,7.20703125,0,0
-4.06609397032298E-05,2.5814197215368E-06,7.20703125,0,0
-4.68495563836768E-05,3.54399026036845E-06,7.20703125,0,0
-4.8468224122189E-05,5.52705387235619E-06,7.20703125,0,0
-4.84522024635226E-05,7.30363990442129E-06,7.20703125,0,0
-4.64863260276616E-05,8.65667698235484E-06,7.20703125,0,0
-4.11605069530196E-05,9.31581598706543E-06,7.20703125,0,0
-3.75573690689635E-05,9.75536568148527E-06,7.20703125,0,0
-3.31995615852065E-05,1.03845186458784E-05,7.20703125,0,0
-3.33593889081385E-05,1.20275881272391E-05,7.20703125,0,0
-3.16386576741934E-05,1.27037692436716E-05,7.20703125,0,0
-3.24604952766094E-05,1.44692530739121E-05,7.20703125,0,0
-2.82731016341131E-05,1.56861660798313E-05,7.20703125,0,0
-2.46992167376447E-05,1.53783294081222E-05,7.20703125,0,0
-1.80187325895531E-05,1.33516659843735E-05,7.20703125,0,0
-1.34424772113562E-05,1.27496132336091E-05,7.20703125,0,0
-7.53385666030226E-06,1.28797628349275E-05,7.20703125,0,0
-4.77573166790535E-06,1.35061045511975E-05,7.20703125,0,0
-3.14177782456682E-06,1.46517140819924E-05,7.20703125,0,0
-2.99313182949845E-06,1.64738739840686E-05,7.20703125,0,0
-1.22413769076957E-06,1.66409081430174E-05,7.20703125,0,0
-7.74074578657746E-07,1.7027678040904E-05,7.20703125,0,0
5.95392002367134E-08,1.56360911205411E-05,7.20703125,0,0
1.9790409169218E-06,2.14838746614987E-05,7.20703125,0,0
3.94705784856342E-06,1.45342964970041E-05,7.20703125,0,0
5.24772394783213E-06,1.83409629244125E-05,7.20703125,0,0
6.07784977546544E-06,1.48693834489677E-05,7.20703125,0,0
4.56186762676225E-06,1.50019495777087E-05,7.20703125,0,0
-2.75355318990478E-07,1.14303074951749E-05,7.20703125,0,0
-6.56535848975182E-06,1.26280183394556E-05,7.20703125,0,0
-1.26824343169574E-05,1.52134780364577E-05,7.20703125,0,0
-1.72125091921771E-05,1.86780343938153E-05,7.20703125,0,0
-2.06034073926276E-05,1.86888846656075E-05,7.20703125,0,0
-2.41787038248731E-05,1.5973379049683E-05,7.20703125,0,0
-2.84747748082737E-05,1.57272406795528E-05,7.20703125,0,0
-3.24471111525781E-05,1.5803161659278E-05,7.20703125,0,0
-3.65383566531818E-05,1.7636904885876E-05,7.20703125,0,0
-4.06671824748628E-05,1.54333174577914E-05,7.20703125,0,0
-4.47605270892382E-05,1.28449228213867E-05,7.20703125,0,0
-4.73447144031525E-05,9.49526474869344E-06,7.20703125,0,0
-4.73977415822446E-05,1.07094565464649E-05,7.20703125,0,0
-4.61039671790786E-05,1.11297495095641E-05,7.20703125,0,0
-4.44373908976559E-05,1.02452195278602E-05,7.20703125,0,0
-4.29325045843143E-05,7.98672317614546E-06,7.20703125,0,0
-4.15548784076236E-05,8.77407728694379E-06,7.20703125,0,0
-4.03976628149394E-05,9.25015410757624E-06,7.20703125,0,0
-3.93677873944398E-05,8.40119173517451E-06,7.20703125,0,0
-3.78507902496494E-05,7.19030913387542E-06,7.20703125,0,0
-3.60524463758338E-05,9.28195095184492E-06,7.20703125,0,0
-2.83913523162482E-05,1.07821060737479E-05,7.20703125,0,0
-3.94556846003979E-05,1.49957531903055E-05,7.20703125,0,0
-2.74653630185639E-05,8.51630829856731E-06,7.20703125,0,0
-3.28874011756852E-05,9.29438283492345E-06,7.20703125,0,0
-2.63854672084562E-05,8.82410040503601E-06,7.20703125,0,0
-3.24983011523727E-05,1.1500846085255E-05,7.20703125,0,0
-3.13886084768455E-05,1.09170978248585E-05,7.20703125,0,0
-3.30600996676367E-05,1.12125562736765E-05,7.20703125,0,0
-3.04818586300826E-05,1.04648406704655E-05,7.20703125,0,0
-2.87649763777154E-05,1.05240414995933E-05,7.20703125,0,0
-2.76174305327004E-05,1.12600573629607E-05,7.20703125,0,0
-2.57831816270482E-05,1.07059322544956E-05,7.20703125,0,0
-2.57074570981786E-05,1.04341934274998E-05,7.20703125,0,0
-2.38212960539386E-05,9.12241921469104E-06,7.20703125,0,0
-2.59424432442756E-05,8.38025516713969E-06,7.20703125,0,0
-2.48157612077193E-05,6.17857540419209E-06,7.20703125,0,0
-2.5912158889696E-05,6.52266817269265E-06,7.20703125,0,0
-2.28953831538092E-05,7.83153609518195E-06,7.20703125,0,0
-2.2058255126467E-05,9.3908492999617E-06,7.20703125,0,0
-1.95532375073526E-05,8.82087988429703E-06,7.20703125,0,0
-2.2118678316474E-05,9.27966357266996E-06,7.20703125,0,0
-2.46504678216297E-05,1.06297566162539E-05,7.20703125,0,0
-2.85813148366287E-05,1.23755071399501E-05,7.20703125,0,0
-2.97765436698683E-05,1.09667898868793E-05,7.20703125,0,0
-3.1551237043459E-05,8.71387419465464E-06,7.20703125,0,0
-3.30782713717781E-05,8.43294492369751E-06,7.20703125,0,0
-3.22630476148333E-05,1.02728608908365E-05,7.20703125,0,0
-2.31695230468176E-05,1.18578573164996E-05,7.20703125,0,0
-3.18220299959648E-05,1.78719310497399E-05,7.20703125,0,0
-2.31887406698661E-05,1.28579722513678E-05,7.20703125,0,0
-2.85738133243285E-05,1.33083485707175E-05,7.20703125,0,0
-2.25296807911946E-05,9.29541965888347E-06,7.20703125,0,0
-2.58759791904595E-05,8.79333219927503E-06,7.20703125,0,0
-2.39149940171046E-05,6.33606850897195E-06,7.20703125,0,0
-2.33162154472666E-05,6.34061279924936E-06,7.20703125,0,0
-1.80146671482362E-05,8.03346938482719E-06,7.20703125,0,0
-1.53926102939295E-05,1.03738448160584E-05,7.20703125,0,0
-1.61070092872251E-05,9.89857471722644E-06,7.20703125,0,0
-1.74900033016456E-05,6.61631656839745E-06,7.20703125,0,0
-2.10161633731332E-05,4.12832150686882E-06,7.20703125,0,0
-2.11107872019056E-05,2.11400106309156E-06,7.20703125,0,0
-2.25231087824795E-05,3.44633849636011E-06,7.20703125,0,0
-2.2319087292999E-05,5.45473130841856E-06,7.20703125,0,0
-2.5415065465495E-05,8.53890833241167E-06,7.20703125,0,0
-2.4057180780801E-05,8.87401711224811E-06,7.20703125,0,0
-2.21472655539401E-05,8.01781152404146E-06,7.20703125,0,0
-1.71163737832103E-05,6.31383818472386E-06,7.20703125,0,0
-1.54360168380663E-05,7.9560677477275E-06,7.20703125,0,0
-1.38177756525693E-05,1.09484390122816E-05,7.20703125,0,0
-1.40471493068617E-05,1.46866022987524E-05,7.20703125,0,0
-1.43804736580933E-05,1.58393468154827E-05,7.20703125,0,0
-1.69705072039505E-05,1.33754811031395E-05,7.20703125,0,0
-1.96292658074526E-05,1.11340523289982E-05,7.20703125,0,0
-2.21281570702558E-05,1.26443192129955E-05,7.20703125,0,0
-1.78612972376868E-05,1.33538887894247E-05,7.20703125,0,0
-2.42732658080058E-05,2.18451314140111E-05,7.20703125,0,0
-1.83242682396667E-05,1.8919063222711E-05,7.20703125,0,0
-2.47976840910269E-05,2.03149065782782E-05,7.20703125,0,0
-2.19566318264697E-05,1.476355282648E-05,7.20703125,0,0
-2.50108969339635E-05,1.34127385535976E-05,7.20703125,0,0
-2.34095059568062E-05,1.16371356853051E-05,7.20703125,0,0
-2.41574016399682E-05,1.16054479804006E-05,7.20703125,0,0
-2.24625382543309E-05,1.03987113106996E-05,7.20703125,0,0
-2.13193943636725E-05,9.17757279239595E-06,7.20703125,0,0
-2.12167960853549E-05,9.60975376074202E-06,7.20703125,0,0
-2.11936167033855E-05,1.11640856630402E-05,7.20703125,0,0
-2.38972152146744E-05,1.22472574730637E-05,7.20703125,0,0
-2.60734213952674E-05,1.05692151919357E-05,7.20703125,0,0
-3.00948777294252E-05,9.34642957872711E-06,7.20703125,0,0
-3.0518916901201E-05,7.82825554779265E-06,7.20703125,0,0
-3.15058205160312E-05,8.61787066241959E-06,7.20703125,0,0
-3.05727735394612E-05,9.60579654929461E-06,7.20703125,0,0
-3.22744490404148E-05,1.21913562907139E-05,7.20703125,0,0
-3.30024631693959E-05,1.31142769532744E-05,7.20703125,0,0
-3.42303537763655E-05,1.39820494950982E-05,7.20703125,0,0
-3.22092964779586E-05,1.44332252602908E-05,7.20703125,0,0
-3.07314221572597E-05,1.78985919774277E-05,7.20703125,0,0
-3.04294899251545E-05,2.13200928556034E-05,7.20703125,0,0
-3.17260455631185E-05,2.29103170568123E-05,7.20703125,0,0
-3.15251818392426E-05,2.15449636016274E-05,7.20703125,0,0
-3.03448960039532E-05,1.91803756024456E-05,7.20703125,0,0
-2.23227380047319E-05,1.48248518598848E-05,7.20703125,0,0
-2.92443637590623E-05,2.03188265004428E-05,7.20703125,0,0
-1.87829155038344E-05,1.33986659420771E-05,7.20703125,0,0
-2.43852991843596E-05,1.54034514707746E-05,7.20703125,0,0
-1.91824055946199E-05,9.99374151433585E-06,7.20703125,0,0
-2.15563850360923E-05,1.00893412309233E-05,7.20703125,0,0
-1.91460239875596E-05,6.83004645907204E-06,7.20703125,0,0
-2.07042685360648E-05,6.92175126459915E-06,7.20703125,0,0
-1.83612755790818E-05,8.61225998960435E-06,7.20703125,0,0
-1.5666219042032E-05,1.11204126369557E-05,7.20703125,0,0
-1.34405208882526E-05,1.13131627585972E-05,7.20703125,0,0
-1.19858896141523E-05,9.53636481426656E-06,7.20703125,0,0
-1.34353667817777E-05,1.01844925666228E-05,7.20703125,0,0
-1.31461638375185E-05,1.07583537101164E-05,7.20703125,0,0
-1.58529401232954E-05,1.28287547340733E-05,15.8203125,0,0
-1.57661179400748E-05,1.35075415528263E-05,15.8203125,0,0
-1.69386803463567E-05,1.54968820424983E-05,15.8203125,0,0
-1.50048463183339E-05,1.48972894749022E-05,15.8203125,0,0
-1.54212357301731E-05,1.55976995301899E-05,15.8203125,0,0
-1.47232194649405E-05,1.56982969201636E-05,15.8203125,0,0
-1.65832498169038E-05,1.70406783581711E-05,15.8203125,0,0
-1.58273287524935E-05,1.69675786310108E-05,15.8203125,0,0
-1.62075793923577E-05,1.72838008438703E-05,15.8203125,0,0
-1.59330793394474E-05,1.63483273354359E-05,15.8203125,0,0
-1.50233254316845E-05,1.54510689753806E-05,15.8203125,0,0
-1.2591570339282E-05,1.44981831908808E-05,15.8203125,0,0
-1.02993772088666E-05,1.39091453092988E-05,15.8203125,0,0
-6.85988743498456E-06,9.94477068161359E-06,15.8203125,0,0
-1.00190636658226E-05,1.22802848636638E-05,15.8203125,0,0
-9.2614200184471E-06,8.09911580290645E-06,15.8203125,0,0
-1.45059393616975E-05,1.15431666927179E-05,15.8203125,0,0
-1.95786469703307E-05,9.34727904677857E-06,15.8203125,0,0
-2.67069463006919E-05,1.09159109342727E-05,15.8203125,0,0
-2.94857854896691E-05,1.05173457995988E-05,15.8203125,0,0
-3.1857216526987E-05,1.37097031256417E-05,15.8203125,0,0
-3.46359120158013E-05,1.47907394421054E-05,15.8203125,0,0
-3.89984234061558E-05,1.4500356883218E-05,15.8203125,0,0
-4.24980426032562E-05,1.32753630168736E-05,15.8203125,0,0
-4.30117834184784E-05,1.10299824882532E-05,15.8203125,0,0
-4.25800317316316E-05,1.12704537968966E-05,15.8203125,0,0
-4.22805824200623E-05,1.17516701720888E-05,15.8203125,0,0
-4.39661889686249E-05,1.13911701191682E-05,15.8203125,0,0
-4.43596582044847E-05,8.4332496044226E-06,15.8203125,0,0
-4.37017879448831E-05,8.31011220725486E-06,15.8203125,0,0
-4.13174348068424E-05,8.32715977594489E-06,15.8203125,0,0
-3.94764974771533E-05,8.72098917170661E-06,15.8203125,0,0
-3.70221678167582E-05,6.3668462644273E-06,15.8203125,0,0
-3.42145904141944E-05,4.21205277234549E-06,15.8203125,0,0
-2.94409892376279E-05,2.95946165351779E-06,15.8203125,0,0
-2.44392595050158E-05,5.88381226407364E-06,15.8203125,0,0
-1.99507321667625E-05,8.22088168206392E-06,15.8203125,0,0
-1.56881851580692E-05,6.85812165102107E-06,15.8203125,0,0
-1.15126322270953E-05,3.42311591339239E-06,15.8203125,0,0
-8.78052196640056E-06,3.71659348274989E-06,15.8203125,0,0
-4.49781782663194E-06,6.14373948337743E-06,15.8203125,0,0
-4.80506105304812E-06,9.47841090237489E-06,15.8203125,0,0
-2.57777765000355E-06,6.78968672218616E-06,15.8203125,0,0
-4.98989220432122E-06,6.90215119902859E-06,15.8203125,0,0
-5.13810391566949E-06,6.03452781433589E-06,15.8203125,0,0
-7.95010237197857E-06,8.53454093885375E-06,15.8203125,0,0
-1.0011041922553E-05,9.50036701397039E-06,15.8203125,0,0
-1.27339753817068E-05,8.71856536832638E-06,15.8203125,0,0
-1.49563602462877E-05,7.61650926506263E-06,15.8203125,0,0
-1.85883745871251E-05,7.98825203673914E-06,15.8203125,0,0
-2.14561860047979E-05,8.33082685858244E-06,15.8203125,0,0
-2.20684742089361E-05,7.49963419366395E-06,15.8203125,0,0
-2.18061486521037E-05,7.14904854248744E-06,15.8203125,0,0
-2.17398137465352E-05,5.90707668379764E-06,15.8203125,0,0
-2.34564886341104E-05,6.50960100756492E-06,15.8203125,0,0
-2.4577744625276E-05,8.2933556768694E-06,15.8203125,0,0
-2.57586289080791E-05,9.07252615434118E-06,15.8203125,0,0
-2.57535884884419E-05,6.79738332109991E-06,15.8203125,0,0
-2.62308331002714E-05,4.58222530141938E-06,15.8203125,0,0
-2.67845007329015E-05,3.56804093826213E-06,15.8203125,0,0
-2.90381412924035E-05,4.36474465459469E-06,15.8203125,0,0
-3.05878493236378E-05,5.68379527976504E-06,15.8203125,0,0
-3.07691079797223E-05,7.25308609617059E-06,15.8203125,0,0
-3.02623648167355E-05,7.94947573012905E-06,15.8203125,0,0
-2.95044337690342E-05,8.59664669405902E-06,15.8203125,0,0
-2.63026049651671E-05,9.97531788016204E-06,15.8203125,0,0
-2.13115199585445E-05,1.26644072224735E-05,15.8203125,0,0
-1.31805973069277E-05,1.10045866676955E-05,15.8203125,0,0
-1.72203217516653E-05,1.54369354277151E-05,15.8203125,0,0
-1.12285224531661E-05,1.07793293864233E-05,15.8203125,0,0
-1.44204614116461E-05,1.273666475754E-05,15.8203125,0,0
-1.05817762232618E-05,1.08084786916152E-05,15.8203125,0,0
-1.2197671821923E-05,1.27900411825976E-05,15.8203125,0,0
-1.13066080302815E-05,1.11351919258595E-05,15.8203125,0,0
-1.38710802275455E-05,1.19041733341874E-05,15.8203125,0,0
-1.76711237145355E-05,1.10514456537203E-05,15.8203125,0,0
-2.3889564545243E-05,9.87774637906114E-06,15.8203125,0,0
-2.92224540316965E-05,7.4942477112927E-06,15.8203125,0,0
-3.40486622008029E-05,5.23161406817962E-06,15.8203125,0,0
-3.87391228287015E-05,6.29751639280585E-06,15.8203125,0,0
-3.92618276237044E-05,7.69030066294363E-06,15.8203125,0,0
-4.09001659136266E-05,8.97075096872868E-06,15.8203125,0,0
-4.23862911702599E-05,6.499326445919E-06,15.8203125,0,0
-4.38524002674967E-05,4.1623275137681E-06,15.8203125,0,0
-4.11652617913205E-05,1.72149384525255E-06,15.8203125,0,0
-4.0398197597824E-05,1.88153171620797E-06,15.8203125,0,0
-4.07410370826256E-05,1.73703585915064E-06,15.8203125,0,0
-4.3485746573424E-05,2.68946382675495E-06,15.8203125,0,0
-4.52171298093162E-05,2.07347102332278E-06,15.8203125,0,0
-4.68830221507233E-05,1.05882872958318E-06,15.8203125,0,0
-4.59560578747187E-05,5.35710114490939E-07,15.8203125,0,0
-4.37701091868803E-05,3.34749665853451E-06,15.8203125,0,0
-4.23704550485127E-05,6.37517950963229E-06,15.8203125,0,0
-4.31035805377178E-05,7.25687823432963E-06,15.8203125,0,0
-3.48149951605592E-05,6.42226268610102E-06,15.8203125,0,0
-4.68145808554254E-05,9.07047251530457E-06,15.8203125,0,0
-2.97927690553479E-05,5.69191797694657E-06,15.8203125,0,0
-3.35394252033439E-05,4.77328831038903E-06,15.8203125,0,0
-2.13781095226295E-05,3.55906990989752E-06,15.8203125,0,0
-2.35682546190219E-05,7.22522690921323E-06,15.8203125,0,0
-1.77080182766076E-05,9.40670724958181E-06,15.8203125,0,0
-1.7602656953386E-05,1.3046761523583E-05,15.8203125,0,0
-1.206906108564E-05,1.60999461513711E-05,15.8203125,0,0
-7.88557372288778E-06,1.73850658029551E-05,15.8203125,0,0
-5.83817791266483E-06,1.71779520314885E-05,15.8203125,0,0
-3.66988842870342E-06,1.64934481290402E-05,15.8203125,0,0
-5.35688968739123E-06,1.63752865773859E-05,15.8203125,0,0
-4.19436673837481E-06,1.51357708091382E-05,15.8203125,0,0
-6.5345693656127E-06,1.46994307215209E-05,15.8203125,0,0
-6.30199338047532E-06,1.44022114909603E-05,15.8203125,0,0
-1.33061457745498E-05,1.45715284816106E-05,15.8203125,0,0
-1.65773690241622E-05,1.41421896842076E-05,15.8203125,0,0
-2.0825940737268E-05,1.56660462380387E-05,15.8203125,0,0
-2.08788223972078E-05,1.67995694937417E-05,15.8203125,0,0
-2.43446502281586E-05,1.69490867847344E-05,15.8203125,0,0
-2.56040730164386E-05,1.52158090713783E-05,15.8203125,0,0
-2.83842855424155E-05,1.32897548610345E-05,15.8203125,0,0
-2.82950895780232E-05,1.19037895274232E-05,15.8203125,0,0
-2.74561898550019E-05,1.20375934784533E-05,15.8203125,0,0
-2.49021231866209E-05,1.31057677208446E-05,15.8203125,0,0
-2.29260149353649E-05,1.38151417559129E-05,15.8203125,0,0
-1.88546073331963E-05,1.04786176962079E-05,15.8203125,0,0
-2.61110235442175E-05,1.60907511599362E-05,15.8203125,0,0
-1.7506799849798E-05,1.36991793624475E-05,15.8203125,0,0
-1.90328009921359E-05,1.4249603736971E-05,15.8203125,0,0
-1.24756352306576E-05,8.48479066917207E-06,15.8203125,0,0
-1.26145569083747E-05,8.63212244439637E-06,15.8203125,0,0
-9.29519865167094E-06,7.50696744944435E-06,15.8203125,0,0
-9.8962482297793E-06,7.08532934368122E-06,15.8203125,0,0
-8.1427442637505E-06,5.36584411747754E-06,15.8203125,0,0
-3.97544135921635E-06,5.55892120246426E-06,15.8203125,0,0
1.18062894216564E-06,6.79879076415091E-06,15.8203125,0,0
5.60183252673596E-06,7.59950899009709E-06,15.8203125,0,0
5.0612143240869E-06,8.94381901161978E-06,15.8203125,0,0
4.28118210038519E-06,8.29467899166048E-06,15.8203125,0,0
1.17323554604809E-06,8.05698073236272E-06,15.8203125,0,0
-8.27149847282271E-07,7.87103817856405E-06,15.8203125,0,0
-7.14639782017912E-06,9.83796053333208E-06,15.8203125,0,0
-1.31396454889909E-05,1.00387487691478E-05,15.8203125,0,0
-1.98462839762215E-05,1.03327620308846E-05,15.8203125,0,0
-2.23351980821462E-05,1.02477943073609E-05,15.8203125,0,0
-2.42824153247057E-05,1.23629906738643E-05,15.8203125,0,0
-2.5277793611167E-05,1.46776728797704E-05,15.8203125,0,0
-2.73975165328011E-05,1.79421622306108E-05,15.8203125,0,0
-2.89970594167244E-05,2.10292218980612E-05,15.8203125,0,0
-3.21563020406757E-05,2.21428090299014E-05,15.8203125,0,0
-3.43418105330784E-05,2.00712820515037E-05,15.8203125,0,0
-3.44213658536319E-05,1.83804204425542E-05,15.8203125,0,0
-2.88569681288209E-05,1.60687595780473E-05,15.8203125,0,0
-4.22142838942818E-05,2.24336763494648E-05,15.8203125,0,0
-3.39930884365458E-05,1.41828932100907E-05,15.8203125,0,0
-4.22666271333583E-05,1.56621426867787E-05,15.8203125,0,0
-3.66865388059523E-05,1.09978755062912E-05,15.8203125,0,0
-4.19379939557984E-05,1.03827351267682E-05,15.8203125,0,0
-4.18331364926416E-05,6.43741714156931E-06,15.8203125,0,0
-4.59391048934776E-05,4.83789017380332E-06,15.8203125,0,0
-4.64707773062401E-05,2.61431978287874E-06,15.8203125,0,0
-4.84681841044221E-05,3.80613369088678E-06,15.8203125,0,0
-5.01834801980294E-05,4.83663916384103E-06,15.8203125,0,0
-4.78163601655979E-05,2.81668030766014E-06,15.8203125,0,0
-4.76356981380377E-05,1.82780547675065E-06,15.8203125,0,0
-4.84165539091919E-05,3.89165819569826E-07,15.8203125,0,0
-5.40914770681411E-05,4.08503950666272E-07,15.8203125,0,0
-5.4848707804922E-05,-4.47666906211452E-07,15.8203125,0,0
-5.51212033315096E-05,2.31712283493835E-06,15.8203125,0,0
-4.98497574881185E-05,3.82109647034667E-06,15.8203125,0,0
-4.69414007966407E-05,7.30239344193251E-06,15.8203125,0,0
-4.3347361497581E-05,9.35170191951329E-06,27.24609375,0,0
-4.38812749052886E-05,1.07202922663419E-05,27.24609375,0,0
-4.13114576076623E-05,1.03934726212174E-05,27.24609375,0,0
-3.7605033867294E-05,1.08052936411696E-05,27.24609375,0,0
-3.21465959132183E-05,9.25724816625007E-06,27.24609375,0,0
-2.76599421340507E-05,8.57220038597006E-06,27.24609375,0,0
-2.22066882997751E-05,8.91818854142912E-06,27.24609375,0,0
-1.74320830410579E-05,9.2951750048087E-06,27.24609375,0,0
-1.06621855593403E-05,6.96192137183971E-06,27.24609375,0,0
-1.22913907034672E-05,9.58929467742564E-06,27.24609375,0,0
-6.14296232015477E-06,6.90246179146925E-06,27.24609375,0,0
-6.75418277751305E-06,9.40122026804602E-06,27.24609375,0,0
-8.56104179547401E-07,1.0055981874757E-05,27.24609375,0,0
5.24779750321613E-07,1.35832615342224E-05,27.24609375,0,0
5.49483229406178E-06,1.53780474647647E-05,27.24609375,0,0
6.67424501443747E-06,1.68925580510404E-05,27.24609375,0,0
6.11324367127963E-06,1.64903995027998E-05,27.24609375,0,0
3.36796460942423E-06,1.7629021385801E-05,27.24609375,0,0
-4.576561138947E-07,2.0504221538431E-05,27.24609375,0,0
-3.59800947080657E-06,2.2213696865947E-05,27.24609375,0,0
-6.61111971567152E-06,2.21989939745981E-05,27.24609375,0,0
-7.93771778262453E-06,2.07921711989911E-05,27.24609375,0,0
-1.17057161332923E-05,2.08664641832002E-05,27.24609375,0,0
-1.44726427606656E-05,2.02903120225528E-05,27.24609375,0,0
-1.7032090909197E-05,1.83818192454055E-05,27.24609375,0,0
-1.69550785358297E-05,1.47015953189111E-05,27.24609375,0,0
-1.86701272468781E-05,1.45448757393751E-05,27.24609375,0,0
-2.02123173949076E-05,1.63678214448737E-05,27.24609375,0,0
-2.34717244893545E-05,1.77158563019475E-05,27.24609375,0,0
-2.582001616247E-05,1.67718280863483E-05,27.24609375,0,0
-2.74267622444313E-05,1.62050218932563E-05,27.24609375,0,0
-2.73415971605573E-05,1.68085589393741E-05,27.24609375,0,0
-2.77267699857475E-05,1.76031244336627E-05,27.24609375,0,0
-2.97553015116137E-05,1.79633771040244E-05,27.24609375,0,0
-3.27774723700713E-05,1.80930928763701E-05,27.24609375,0,0
-2.89748750219587E-05,1.38784753289656E-05,27.24609375,0,0
-4.25568832724821E-05,1.82996736839414E-05,27.24609375,0,0
-3.45679545716848E-05,1.04066930362023E-05,27.24609375,0,0
-4.45718651462812E-05,1.27038474602159E-05,27.24609375,0,0
-4.03206067858264E-05,1.03038155430113E-05,27.24609375,0,0
-4.37785020039883E-05,1.28691826830618E-05,27.24609375,0,0
-3.98944794142153E-05,1.17593381219194E-05,27.24609375,0,0
-4.07847001042683E-05,1.09998645712039E-05,27.24609375,0,0
-4.03009471483529E-05,7.48033698982908E-06,27.24609375,0,0
-4.1549214074621E-05,5.1765846365015E-06,27.24609375,0,0
-4.25610014644917E-05,5.38353060619556E-06,27.24609375,0,0
-4.13714369642548E-05,7.35604226065334E-06,27.24609375,0,0
-4.19444804720115E-05,1.01127470770734E-05,27.24609375,0,0
-4.08294217777438E-05,8.88179056346416E-06,27.24609375,0,0
-4.23490018874872E-05,7.5070993261761E-06,27.24609375,0,0
-3.90375498682261E-05,5.76491220272146E-06,27.24609375,0,0
-3.77927317458671E-05,7.30867986931116E-06,27.24609375,0,0
-3.42224739142694E-05,7.82616916694678E-06,27.24609375,0,0
-3.42566891049501E-05,8.75216028362047E-06,27.24609375,0,0
-3.08764829242136E-05,7.30339206711506E-06,27.24609375,0,0
-2.86783724732231E-05,7.8593147918582E-06,27.24609375,0,0
-2.51766741712345E-05,8.11014979262836E-06,27.24609375,0,0
-2.40834433498094E-05,7.3302717282786E-06,27.24609375,0,0
-2.20675083255628E-05,6.89136095388676E-06,27.24609375,0,0
-2.07617795240367E-05,8.718572644284E-06,27.24609375,0,0
-2.08031924557872E-05,9.70311793935252E-06,27.24609375,0,0
-2.16623593587428E-05,9.88186184258666E-06,27.24609375,0,0
-1.7603355445317E-05,8.05214222054929E-06,27.24609375,0,0
-2.43962094828021E-05,1.13979458546964E-05,27.24609375,0,0
-1.89364582183771E-05,8.72087002790067E-06,27.24609375,0,0
-2.3621340005775E-05,1.02057483672979E-05,27.24609375,0,0
-1.81362447619904E-05,8.64444518811069E-06,27.24609375,0,0
-1.89868442248553E-05,1.15010434456053E-05,27.24609375,0,0
-1.85134922503494E-05,1.19942224046099E-05,27.24609375,0,0
-2.27622513193637E-05,1.31682918436127E-05,27.24609375,0,0
-2.40716308326228E-05,1.38218119900557E-05,27.24609375,0,0
-2.49195563810645E-05,1.4248487786972E-05,27.24609375,0,0
-2.46941435761983E-05,1.38449895530357E-05,27.24609375,0,0
-2.33190330618527E-05,1.23564632303896E-05,27.24609375,0,0
-2.24023206101265E-05,1.15579223347595E-05,27.24609375,0,0
-1.86116249096813E-05,1.05560438896646E-05,27.24609375,0,0
-1.74152519321069E-05,1.07358046079753E-05,27.24609375,0,0
-1.3735368156631E-05,1.00015950010857E-05,27.24609375,0,0
-9.63022193900542E-06,1.03039355963119E-05,27.24609375,0,0
-2.83491431218863E-06,1.06209781733924E-05,27.24609375,0,0
-4.54322673704155E-07,1.23571262520272E-05,27.24609375,0,0
1.29656734770833E-06,1.29364925669506E-05,27.24609375,0,0
1.37637618990993E-06,1.34806177811697E-05,27.24609375,0,0
2.61231525655603E-06,1.36246180773014E-05,27.24609375,0,0
2.84418956653099E-06,1.49626057464047E-05,27.24609375,0,0
4.01665238314308E-06,1.64454304467654E-05,27.24609375,0,0
3.9858055060904E-06,1.51631138578523E-05,27.24609375,0,0
3.03607635032677E-06,1.08427466329886E-05,27.24609375,0,0
7.70054526810782E-08,9.58733471634332E-06,27.24609375,0,0
-5.92481501371367E-06,9.81499943009112E-06,27.24609375,0,0
-1.48241397255333E-05,1.73402313521365E-05,27.24609375,0,0
-2.22847247641766E-05,1.72381187439896E-05,27.24609375,0,0
-3.00900501315482E-05,1.94331842067186E-05,27.24609375,0,0
-3.60742851626128E-05,1.62420692504384E-05,27.24609375,0,0
-4.13913585362025E-05,1.50101750477916E-05,27.24609375,0,0
-4.52188905910589E-05,1.19695478133508E-05,27.24609375,0,0
-4.82594696222804E-05,1.03334823506884E-05,27.24609375,0,0
-5.00322894367855E-05,8.34371076052776E-06,27.24609375,0,0
-4.90366473968606E-05,6.70792496748618E-06,27.24609375,0,0
-4.60667615698185E-05,5.54546431885683E-06,27.24609375,0,0
-4.40825242549181E-05,3.62083687832637E-06,27.24609375,0,0
-4.36541704402771E-05,3.18805700771918E-06,27.24609375,0,0
-4.22338853240944E-05,3.13340819957375E-06,27.24609375,0,0
-3.95507922803517E-05,2.80213703263144E-06,27.24609375,0,0
-3.56291748175863E-05,1.28044757730095E-06,27.24609375,0,0
-3.16709993057884E-05,2.90464640784194E-06,27.24609375,0,0
-2.64842892647721E-05,5.51184393771109E-06,27.24609375,0,0
-2.0650215446949E-05,8.22435049485648E-06,27.24609375,0,0
-1.5569541574223E-05,7.81317794462666E-06,27.24609375,0,0
-1.25571723401663E-05,6.73580689181108E-06,27.24609375,0,0
-1.03954762380454E-05,6.93680658514495E-06,27.24609375,0,0
-7.53566700950614E-06,8.89186048880219E-06,27.24609375,0,0
-3.50328559761692E-06,1.02844805951463E-05,27.24609375,0,0
-8.59411045439629E-07,9.22003255254822E-06,27.24609375,0,0
2.61100183251983E-07,6.25640632279101E-06,27.24609375,0,0
2.48640776590037E-06,5.10896643390879E-06,27.24609375,0,0
3.65140772373707E-06,6.41361793896067E-06,27.24609375,0,0
3.66949052477139E-06,9.86683880910277E-06,27.24609375,0,0
-1.61880677751469E-06,7.97000575403217E-06,27.24609375,0,0
-5.85713360123918E-06,1.06544357549865E-05,27.24609375,0,0
-1.15252860268811E-05,1.15119855763623E-05,27.24609375,0,0
-1.48557974171126E-05,1.32257164295879E-05,27.24609375,0,0
-1.83530428330414E-05,1.46409847729956E-05,27.24609375,0,0
-2.01276980078546E-05,1.7237516658497E-05,27.24609375,0,0
-2.22611288336338E-05,1.84725886356318E-05,27.24609375,0,0
-2.25841286010109E-05,1.9402219550102E-05,27.24609375,0,0
-2.22200851567322E-05,2.04388561542146E-05,27.24609375,0,0
-2.37577696680091E-05,1.9549826902221E-05,27.24609375,0,0
-2.57947103818879E-05,1.73792359419167E-05,27.24609375,0,0
-2.69577685685363E-05,1.47711034514941E-05,27.24609375,0,0
-2.57806532317773E-05,1.27697740026633E-05,27.24609375,0,0
-2.62263765762327E-05,9.05009983398486E-06,27.24609375,0,0
-2.85872283711797E-05,6.76620675221784E-06,27.24609375,0,0
-3.1989980925573E-05,6.25104485152406E-06,27.24609375,0,0
-3.44955769833177E-05,5.668975518347E-06,27.24609375,0,0
-3.62664068234153E-05,2.59645412370446E-06,27.24609375,0,0
-3.52743809344247E-05,-8.27949463655386E-07,27.24609375,0,0
-3.31954834109638E-05,-3.38506197294919E-06,27.24609375,0,0
-3.19042192131747E-05,-2.74518788501155E-06,27.24609375,0,0
-3.21026818710379E-05,-5.61023284717521E-07,27.24609375,0,0
-3.26220761053264E-05,8.08140896424447E-07,27.24609375,0,0
-3.37744822900277E-05,6.5157774997715E-07,27.24609375,0,0
-3.6398912925506E-05,-3.69231003105597E-07,27.24609375,0,0
-3.0678027542308E-05,-2.02599835574802E-06,27.24609375,0,0
-4.36938389611896E-05,-2.91645278593933E-06,27.24609375,0,0
-3.25469591189176E-05,2.03301141254997E-07,27.24609375,0,0
-3.9455004298361E-05,2.15706040762598E-06,27.24609375,0,0
-3.11521034745965E-05,2.59941157310095E-06,27.24609375,0,0
-3.39250291290227E-05,2.45936303144845E-06,27.24609375,0,0
-2.76556456810795E-05,2.13108978641685E-06,27.24609375,0,0
-2.56100865954068E-05,9.64771516009932E-07,27.24609375,0,0
-2.03246072487673E-05,1.23651386729762E-06,27.24609375,0,0
-1.63208987942198E-05,3.40830820277915E-06,27.24609375,0,0
-1.42941225931281E-05,4.80102835354046E-06,27.24609375,0,0
-1.29655099954107E-05,4.15668591813301E-06,27.24609375,0,0
-1.4442047358898E-05,2.23841175284178E-06,27.24609375,0,0
-1.36392336571589E-05,1.4939254242563E-06,27.24609375,0,0
-1.67836133186938E-05,1.73790385815664E-06,27.24609375,0,0
-1.70094517670805E-05,1.54040174038528E-06,27.24609375,0,0
-2.00955510081258E-05,1.43181432576966E-06,27.24609375,0,0
-1.96794208022766E-05,2.54982296610251E-06,27.24609375,0,0
-2.24590476136655E-05,4.67253767055809E-06,27.24609375,0,0
-2.17570523091126E-05,7.7793420132366E-06,27.24609375,0,0
-2.29619890887989E-05,9.8637747214525E-06,27.24609375,0,0
-2.20160218304954E-05,8.82934364199173E-06,39.19921875,0,0
-2.31321228056913E-05,6.74987677484751E-06,39.19921875,0,0
-2.29246415983653E-05,7.51449124436476E-06,39.19921875,0,0
-2.29859106184449E-05,1.09931470433366E-05,39.19921875,0,0
-2.12576524063479E-05,1.42680828503217E-05,39.19921875,0,0
-1.96609435079154E-05,1.48721019286313E-05,39.19921875,0,0
-1.46082993524033E-05,1.26357263070531E-05,39.19921875,0,0
-1.90876708074939E-05,1.97316549019888E-05,39.19921875,0,0
-1.22648898468469E-05,1.63003333000233E-05,39.19921875,0,0
-1.59218616317958E-05,1.72880372701911E-05,39.19921875,0,0
-1.5139220522542E-05,1.26285649457714E-05,39.19921875,0,0
-2.08933415706269E-05,1.48579783854075E-05,39.19921875,0,0
-2.2860565877636E-05,1.68090100487461E-05,39.19921875,0,0
-2.86076592601603E-05,2.15265517908847E-05,39.19921875,0,0
-3.39612452080473E-05,2.45794672082411E-05,39.19921875,0,0
-3.83015867555514E-05,2.64358113781782E-05,39.19921875,0,0
-4.00108947360422E-05,2.49780605372507E-05,39.19921875,0,0
-3.89722736144904E-05,2.18358854908729E-05,39.19921875,0,0
-3.87644322472624E-05,2.17255546886008E-05,39.19921875,0,0
-3.75946365238633E-05,2.25182029680582E-05,39.19921875,0,0
-3.94465423596557E-05,2.43134327320149E-05,39.19921875,0,0
-4.07621919293888E-05,2.35669085668633E-05,39.19921875,0,0
-4.3172240111744E-05,2.33718255913118E-05,39.19921875,0,0
-4.29669198638294E-05,2.06533586606383E-05,39.19921875,0,0
-4.44211982539855E-05,1.87495570571627E-05,39.19921875,0,0
-4.46791163994931E-05,1.77266229002271E-05,39.19921875,0,0
-4.51765481557231E-05,1.95433149201563E-05,39.19921875,0,0
-4.32979286415502E-05,1.98158468265319E-05,39.19921875,0,0
-4.08077103202231E-05,1.71274768945295E-05,39.19921875,0,0
-3.79896773665678E-05,1.27431676446577E-05,39.19921875,0,0
-3.70434863725677E-05,1.26839804579504E-05,39.19921875,0,0
-3.54455187334679E-05,1.50179685078911E-05,39.19921875,0,0
-3.28237401845399E-05,1.54547560669016E-05,39.19921875,0,0
-2.35344341490418E-05,1.15830061986344E-05,39.19921875,0,0
-3.08683702314738E-05,1.6175374184968E-05,39.19921875,0,0
-1.92729421542026E-05,1.21649436550797E-05,39.19921875,0,0
-2.33788050536532E-05,1.57812301040394E-05,39.19921875,0,0
-1.68605511134956E-05,1.38943651109003E-05,39.19921875,0,0
-2.02170231204946E-05,1.54101180669386E-05,39.19921875,0,0
-1.75073837453965E-05,1.32726827359875E-05,39.19921875,0,0
-1.82176099770004E-05,1.18118832688197E-05,39.19921875,0,0
-1.46190141094849E-05,9.03789805306587E-06,39.19921875,0,0
-9.40995232667774E-06,9.41950656851986E-06,39.19921875,0,0
-3.25242694998451E-06,1.4535718037223E-05,39.19921875,0,0
3.59784075953939E-06,1.93637060874607E-05,39.19921875,0,0
7.49231912777759E-06,2.15644377021817E-05,39.19921875,0,0
1.15710508907796E-05,2.06069998966996E-05,39.19921875,0,0
1.24188727568253E-05,2.08236251637572E-05,39.19921875,0,0
1.70092425832991E-05,2.09063236980001E-05,39.19921875,0,0
1.89931834029267E-05,2.17646283999784E-05,39.19921875,0,0
2.12899667531019E-05,1.95289467228577E-05,39.19921875,0,0
1.79851504071848E-05,1.76141820702469E-05,39.19921875,0,0
1.52677621372277E-05,1.46473312270246E-05,39.19921875,0,0
9.34912441152846E-06,1.24357738968683E-05,39.19921875,0,0
4.44818624600885E-06,1.04952723631868E-05,39.19921875,0,0
-2.39308474192512E-06,1.2065849659848E-05,39.19921875,0,0
-8.96635265235091E-06,1.3898616998631E-05,39.19921875,0,0
-1.4193419701769E-05,1.45296453410992E-05,39.19921875,0,0
-1.6600897652097E-05,1.40280753839761E-05,39.19921875,0,0
-1.76284866029164E-05,1.33877601911081E-05,39.19921875,0,0
-1.54266999743413E-05,1.02093144960236E-05,39.19921875,0,0
-2.40600002143765E-05,1.37265797093278E-05,39.19921875,0,0
-2.22312846744899E-05,1.05471399365342E-05,39.19921875,0,0
-2.87105904135387E-05,1.41792897920823E-05,39.19921875,0,0
-2.8996539185755E-05,1.21682696772041E-05,39.19921875,0,0
-3.4985423553735E-05,1.48869075928815E-05,39.19921875,0,0
-3.68004548363388E-05,1.29567060866975E-05,39.19921875,0,0
-3.91256435250398E-05,9.79434571490856E-06,39.19921875,0,0
-3.99132477468811E-05,5.36249308424885E-06,39.19921875,0,0
-4.13110792578664E-05,3.26976260112133E-06,39.19921875,0,0
-4.28852763434406E-05,3.9738019950164E-06,39.19921875,0,0
-4.19561947637703E-05,4.97938117405283E-06,39.19921875,0,0
-4.01721481466666E-05,6.14109740126878E-06,39.19921875,0,0
-3.68169348803349E-05,5.51257699044072E-06,39.19921875,0,0
-3.65218365914188E-05,5.54931693841354E-06,39.19921875,0,0
