biceps_emg, triceps_emg, subject_position, position_estimate, brace_position
-2.43691920331912E-05,6.92172761773691E-06,0.87890625,0,0
-2.57457904808689E-05,1.10755017885822E-05,0.87890625,0,0
-2.59382468357217E-05,1.30358666865504E-05,0.87890625,0,0
-2.56609873758862E-05,1.37795450427802E-05,0.87890625,0,0
-2.49160093517276E-05,1.54096433107043E-05,0.87890625,0,0
-2.43063113885E-05,1.6780337318778E-05,0.87890625,0,0
-1.89138645509956E-05,1.25369097077055E-05,0.87890625,0,0
-2.75682032224722E-05,1.7399192074663E-05,0.87890625,0,0
-2.23280858335784E-05,1.17389345177799E-05,0.87890625,0,0
-2.79653158941073E-05,1.32115155793144E-05,0.87890625,0,0
-2.39825440075947E-05,1.01371033451869E-05,0.87890625,0,0
-2.63071888184641E-05,1.19481746878591E-05,0.87890625,0,0
-2.444159508741E-05,1.02061667348607E-05,0.87890625,0,0
-2.62204193859361E-05,1.18702200779808E-05,0.87890625,0,0
-2.6252291718265E-05,1.30240250655334E-05,0.87890625,0,0
-2.75673246505903E-05,1.38138175316271E-05,0.87890625,0,0
-2.8375656256685E-05,1.47960117828916E-05,0.87890625,0,0
-2.68219009740278E-05,1.57682989083696E-05,0.87890625,0,0
-2.65908784058411E-05,1.65013407240622E-05,0.87890625,0,0
-2.56075909419451E-05,1.37350498334854E-05,0.87890625,0,0
-2.78519582934678E-05,1.20743434308679E-05,0.87890625,0,0
-2.80630756606115E-05,1.04954769994947E-05,0.87890625,0,0
-2.93669036182109E-05,1.2030363905069E-05,0.87890625,0,0
-2.77944618574111E-05,1.25685528473696E-05,0.87890625,0,0
-2.78482621069998E-05,1.334749867965E-05,0.87890625,0,0
-2.64209775195923E-05,1.23248419185984E-05,0.87890625,0,0
-2.60523265751544E-05,1.19744227049523E-05,0.87890625,0,0
-2.38261036429321E-05,9.65681465459056E-06,0.87890625,0,0
-2.26542670134222E-05,7.54152642912231E-06,0.87890625,0,0
-2.20392630581046E-05,6.93215497449273E-06,0.87890625,0,0
-2.20467918552458E-05,8.14237682789098E-06,0.87890625,0,0
-2.0328676328063E-05,8.46247257868527E-06,0.87890625,0,0
-1.87592631846201E-05,6.23121877652011E-06,0.87890625,0,0
-1.56852602231083E-05,1.65594792633783E-06,0.87890625,0,0
-2.32771599257831E-05,1.9087078726443E-06,0.87890625,0,0
-1.87704044947168E-05,3.49084916706488E-06,0.87890625,0,0
-2.21733716898598E-05,7.56536974222399E-06,0.87890625,0,0
-1.9222788978368E-05,7.68331301514991E-06,0.87890625,0,0
-2.22805010707816E-05,6.97645691616344E-06,0.87890625,0,0
-2.03616600629175E-05,6.43655903331819E-06,0.87890625,0,0
-1.92632596736075E-05,6.40874759483268E-06,0.87890625,0,0
-1.84487707883818E-05,6.54554423817899E-06,0.87890625,0,0
-2.04443240363617E-05,8.20637251308654E-06,0.87890625,0,0
-2.23134265979752E-05,1.04228793134098E-05,0.87890625,0,0
-2.18697659875033E-05,1.2523788427643E-05,0.87890625,0,0
-2.24025097850244E-05,1.41362052090699E-05,0.87890625,0,0
-2.21409100049641E-05,1.37268889375264E-05,0.87890625,0,0
-2.35653988056583E-05,1.24868975035497E-05,0.87890625,0,0
-2.34787676163251E-05,1.20163458632305E-05,0.87890625,0,0
-2.47268435487058E-05,1.39263993332861E-05,0.87890625,0,0
-2.41767847910523E-05,1.59933333634399E-05,0.87890625,0,0
-2.53430862358073E-05,1.66152876772685E-05,0.87890625,0,0
-2.49910699494649E-05,1.6110574506456E-05,0.87890625,0,0
-2.58877589658368E-05,1.55421057570493E-05,0.87890625,0,0
-2.60487013292732E-05,1.39873127409373E-05,0.87890625,0,0
-2.62414359895047E-05,1.20511404020363E-05,0.87890625,0,0
-2.60551805695286E-05,1.00144261523383E-05,0.87890625,0,0
-2.75583388429368E-05,9.38449829845922E-06,0.87890625,0,0
-2.75689890258946E-05,9.98568702925695E-06,0.87890625,0,0
-2.58235832006903E-05,9.39087203732925E-06,0.87890625,0,0
-1.97346016648225E-05,5.84171857553883E-06,0.87890625,0,0
-2.70142809313256E-05,7.28280565454043E-06,0.87890625,0,0
-2.03588788281195E-05,3.15568104269914E-06,0.87890625,0,0
-2.63026249740506E-05,3.28639998770086E-06,0.87890625,0,0
-2.15065156226046E-05,1.66507663834636E-06,0.87890625,0,0
-2.50896955549251E-05,3.13207283397787E-06,0.87890625,0,0
-2.43949107243679E-05,4.10685697715962E-06,0.87890625,0,0
-2.5774999812711E-05,6.49718185741222E-06,0.87890625,0,0
-2.35250336118042E-05,7.51762036088621E-06,0.87890625,0,0
-2.2244163119467E-05,8.15670227893861E-06,0.87890625,0,0
-2.2428759621107E-05,8.73047247296199E-06,0.87890625,0,0
-2.19306730286917E-05,8.95354878593935E-06,0.87890625,0,0
-2.21276477532228E-05,9.52090613282053E-06,0.87890625,0,0
-2.04106727323961E-05,9.62573540164158E-06,0.87890625,0,0
-2.20425499719568E-05,1.03591992228758E-05,0.87890625,0,0
-2.17677461478161E-05,1.06043535197387E-05,0.87890625,0,0
-2.41313373408047E-05,1.1927220839425E-05,0.87890625,0,0
-2.45637274929322E-05,1.32205341287772E-05,0.87890625,0,0
-2.57134524872527E-05,1.58139046106953E-05,0.87890625,0,0
-2.23771930905059E-05,1.68926526384894E-05,0.87890625,0,0
-1.93183677765774E-05,1.5542045730399E-05,0.87890625,0,0
-1.68068927450804E-05,1.11405561256106E-05,0.87890625,0,0
-1.92629322555149E-05,7.20214711691369E-06,0.87890625,0,0
-2.20933452510508E-05,7.05125967215281E-06,0.87890625,0,0
-2.22925555135589E-05,1.0366648893978E-05,0.87890625,0,0
-2.03402087208815E-05,1.29027057482745E-05,0.87890625,0,0
-1.96412402146962E-05,1.27868570416467E-05,0.87890625,0,0
-1.73211628862191E-05,9.66386596701341E-06,0.87890625,0,0
-2.58595446211984E-05,1.46629599839798E-05,0.87890625,0,0
-2.2190821255208E-05,1.18047537398525E-05,0.87890625,0,0
-2.7894537197426E-05,1.29928848764393E-05,0.87890625,0,0
-2.42172882281011E-05,1.03237716757576E-05,0.87890625,0,0
-2.5119918063865E-05,1.31302558656898E-05,0.87890625,0,0
-2.23249808186665E-05,1.51743561218609E-05,0.87890625,0,0
-2.37935128097888E-05,1.76593202922959E-05,0.87890625,0,0
-2.44740022026235E-05,1.672860889812E-05,0.87890625,0,0
-2.47285570367239E-05,1.44714649650268E-05,0.87890625,0,0
-2.52604731940664E-05,1.24541593322647E-05,0.87890625,0,0
-2.50852572207805E-05,1.07632977233152E-05,0.87890625,0,0
-2.63927558989963E-05,1.11946310425992E-05,0.87890625,0,0
-2.59781245404156E-05,1.27514795167372E-05,0.87890625,0,0
-2.6648822313291E-05,1.58368184202118E-05,0.87890625,0,0
-2.47627885983093E-05,1.84904565685429E-05,0.87890625,0,0
-2.42463684116956E-05,2.20255697058747E-05,0.87890625,0,0
-2.22147682507057E-05,2.31677313422551E-05,0.87890625,0,0
-2.30211207963293E-05,2.36132455029292E-05,0.87890625,0,0
-2.35605439229403E-05,2.20935253310017E-05,0.87890625,0,0
-2.50987141043879E-05,2.01596249098657E-05,0.87890625,0,0
-2.48785909207072E-05,1.56594505824614E-05,0.87890625,0,0
-2.56010553130182E-05,1.11001936602406E-05,0.87890625,0,0
-2.61246077570831E-05,8.74306988407625E-06,0.87890625,0,0
-2.62461089732824E-05,6.2473759498971E-06,0.87890625,0,0
-2.6567880922812E-05,-2.41990846916451E-07,0.87890625,0,0
-2.79361393040745E-05,-6.39912559563527E-06,0.87890625,0,0
-2.27332275244407E-05,-7.85010161052924E-06,0.87890625,0,0
-3.19262617267668E-05,-9.03174532140838E-06,0.87890625,0,0
-2.35479164985009E-05,2.98234709816825E-07,0.87890625,0,0
-2.90941061393823E-05,5.14249677507905E-06,0.87890625,0,0
-2.47049538302235E-05,1.12969637484639E-05,0.87890625,0,0
-2.7767118808697E-05,1.21476587082725E-05,0.87890625,0,0
-2.47630050580483E-05,1.32360228235484E-05,0.87890625,0,0
-2.60621745837852E-05,1.27460916701239E-05,0.87890625,0,0
-2.52815589192323E-05,1.28010115076904E-05,0.87890625,0,0
-2.53966754826251E-05,1.29552572616376E-05,0.87890625,0,0
-2.53080870606937E-05,1.32105678858352E-05,0.87890625,0,0
-2.42919559241273E-05,1.28033962027985E-05,0.87890625,0,0
-2.52246300078696E-05,1.20682580018183E-05,0.87890625,0,0
-2.56524781434564E-05,1.20473841889179E-05,0.87890625,0,0
-2.91517953883158E-05,1.08229733086773E-05,0.87890625,0,0
-2.91451906377915E-05,1.17153958854033E-05,0.87890625,0,0
-2.99787843687227E-05,1.28894052977557E-05,0.87890625,0,0
-2.77198250842048E-05,1.45202175190207E-05,0.87890625,0,0
-2.8127535188105E-05,1.49868919834262E-05,0.87890625,0,0
-2.7009635232389E-05,1.72194104379741E-05,0.87890625,0,0
-2.88407700281823E-05,1.89845286513446E-05,0.87890625,0,0
-2.88466708298074E-05,1.94676849787356E-05,0.87890625,0,0
-2.92123604594963E-05,1.84803448064486E-05,0.87890625,0,0
-2.81274260487407E-05,1.75645946001168E-05,0.87890625,0,0
-2.73917958111269E-05,1.47267637657933E-05,0.87890625,0,0
-2.55768500210252E-05,9.5189961939468E-06,0.87890625,0,0
-2.40731114899972E-05,4.54416340289754E-06,0.87890625,0,0
-1.90812133951113E-05,4.2029537326016E-06,0.87890625,0,0
-2.73342084256001E-05,1.10141627374105E-05,0.87890625,0,0
-2.16837106563617E-05,1.40848451337661E-05,0.87890625,0,0
-2.74099547823425E-05,1.37033530336339E-05,0.87890625,0,0
-2.30443129112246E-05,1.07944106275681E-05,0.87890625,0,0
-2.4699938876438E-05,9.53198014030932E-06,0.87890625,0,0
-2.25899220822612E-05,8.54658082971582E-06,0.87890625,0,0
-2.43486174440477E-05,8.1772659541457E-06,0.87890625,0,0
-2.46444069489371E-05,9.23298375710147E-06,0.87890625,0,0
-2.52859481406631E-05,1.08520089270314E-05,0.87890625,0,0
-2.65565413428703E-05,1.11074623418972E-05,0.87890625,0,0
-2.63382698904024E-05,9.05091565073235E-06,0.87890625,0,0
-2.65748712990899E-05,7.26956341168261E-06,0.87890625,0,0
-2.44863495026948E-05,7.56624694986385E-06,0.87890625,0,0
-2.36106989177642E-05,8.96000801731134E-06,0.87890625,0,0
-2.06975746550597E-05,1.00211555036367E-05,0.87890625,0,0
-2.07054181373678E-05,1.14468612082419E-05,0.87890625,0,0
-1.98231882677646E-05,1.2621121641132E-05,0.87890625,0,0
-2.15118707274087E-05,1.27798066387186E-05,0.87890625,0,0
-2.12941722566029E-05,1.19472006190335E-05,0.87890625,0,0
-2.15299223782495E-05,1.07288733488531E-05,0.87890625,0,0
-1.93812938960036E-05,9.40508653002325E-06,0.87890625,0,0
-1.88718749996042E-05,8.32985460874625E-06,0.87890625,0,0
-1.99693367903819E-05,7.54040684114443E-06,0.87890625,0,0
-2.13827697734814E-05,8.09521225164644E-06,0.87890625,0,0
-2.13197417906486E-05,8.61988610267872E-06,0.87890625,0,0
-2.15720901906025E-05,8.21526828076458E-06,0.87890625,0,0
-1.67536109074717E-05,6.79092090649647E-06,0.87890625,0,0
-2.37966069107642E-05,1.31136403069831E-05,0.87890625,0,0
-1.8398377505946E-05,1.45943959068973E-05,0.87890625,0,0
-2.24693012569333E-05,1.66120898938971E-05,0.87890625,0,0
-1.87605692190118E-05,1.37917604661197E-05,0.87890625,0,0
-2.1303751054802E-05,1.2074907317583E-05,0.87890625,0,0
-2.05663727683714E-05,1.13106061689905E-05,0.87890625,0,0
-2.36680007219547E-05,1.25777332868893E-05,0.87890625,0,0
-2.32874226639979E-05,1.11302833829541E-05,0.87890625,0,0
-2.16280368476873E-05,9.52291247813264E-06,0.87890625,0,0
-1.98332018044312E-05,9.12933683139272E-06,0.87890625,0,0
-1.86626602953766E-05,9.04708213056438E-06,0.87890625,0,0
-1.94353669940028E-05,1.04169575934066E-05,0.87890625,0,0
-1.93948526430177E-05,1.24379330372903E-05,0.87890625,0,0
-2.1993833797751E-05,1.41792088470538E-05,0.87890625,0,0
-2.27565851673717E-05,1.38943960337201E-05,0.87890625,0,0
-2.5436638679821E-05,1.33037246996537E-05,0.87890625,0,0
-2.57422907452565E-05,1.16701285151066E-05,0.87890625,0,0
-2.63127531070495E-05,1.06629577203421E-05,0.87890625,0,0
-2.51407309406204E-05,1.03510083135916E-05,0.87890625,0,0
-2.65167582256254E-05,1.15177981570014E-05,0.87890625,0,0
-2.6597017495078E-05,1.25265814858722E-05,0.87890625,0,0
-2.58965792454546E-05,1.39514686452458E-05,0.87890625,0,0
-2.43498925556196E-05,1.51439271576237E-05,0.87890625,0,0
-2.57851934293285E-05,1.52765751408879E-05,0.87890625,0,0
-2.78026600426529E-05,1.26842196550569E-05,0.87890625,0,0
-3.01053823932307E-05,8.62867909745546E-06,0.87890625,0,0
-2.53140096901916E-05,3.67289135283499E-06,0.87890625,0,0
-3.54769217665307E-05,5.36221386937541E-06,0.87890625,0,0
-2.64077643805649E-05,4.92430990561843E-06,0.87890625,0,0
-3.37853671226185E-05,6.12644407738117E-06,0.87890625,0,0
-2.9514809284592E-05,3.59584896614251E-06,0.87890625,0,0
-3.3360134693794E-05,3.78915888177289E-06,0.87890625,0,0
-3.13102282234468E-05,5.98164797338541E-06,0.87890625,0,0
-3.4008284274023E-05,9.46556610870175E-06,0.87890625,0,0
-3.3326527045574E-05,1.12163497760775E-05,0.87890625,0,0
-3.23960484820418E-05,1.07286223283154E-05,0.87890625,0,0
-3.14656499540433E-05,9.12538507691352E-06,0.87890625,0,0
-2.97648057312472E-05,7.98500786913792E-06,0.87890625,0,0
-2.93732700811233E-05,7.89720616012346E-06,0.87890625,0,0
-2.59061125689186E-05,7.98421297076857E-06,0.87890625,0,0
-2.48805172304856E-05,8.44577334646601E-06,0.87890625,0,0
-2.19706016650889E-05,7.80481786932796E-06,0.87890625,0,0
-2.28899971261853E-05,8.14108079794096E-06,0.87890625,0,0
-2.11152255360503E-05,9.46628279052675E-06,0.87890625,0,0
-2.18124132516095E-05,1.12012194222189E-05,0.87890625,0,0
-2.0762272470165E-05,1.19468395496369E-05,0.87890625,0,0
-2.17155975406058E-05,1.28070660139201E-05,0.87890625,0,0
-2.08454548555892E-05,1.40603751788149E-05,0.87890625,0,0
-2.24183131649625E-05,1.4818733689026E-05,0.87890625,0,0
-2.28302087634802E-05,1.38492259793566E-05,0.87890625,0,0
-2.33276514336467E-05,1.35864429466892E-05,0.87890625,0,0
-2.37927288253559E-05,1.4240897144191E-05,0.87890625,0,0
-2.32232414418831E-05,1.44304385685246E-05,0.87890625,0,0
-1.70514558703871E-05,1.07332998595666E-05,0.87890625,0,0
-2.33678401855286E-05,1.36007702167262E-05,0.87890625,0,0
-1.77019537659362E-05,7.24983010513824E-06,0.87890625,0,0
-2.4407328965026E-05,9.01910061656963E-06,0.87890625,0,0
-2.25202275032643E-05,6.55740541333216E-06,0.87890625,0,0
-2.41782327066176E-05,9.04372245713603E-06,0.87890625,0,0
-2.07082302949857E-05,8.46596503834007E-06,0.87890625,0,0
-2.04228308575694E-05,8.08707500254968E-06,0.87890625,0,0
-1.94833846762776E-05,5.903390047024E-06,0.87890625,0,0
-2.05010655918159E-05,4.21169715991709E-06,0.87890625,0,0
-2.21867485379335E-05,3.80189089810301E-06,0.87890625,0,0
-2.19098710658727E-05,5.30507622897858E-06,0.87890625,0,0
-2.14846495509846E-05,7.94731749920174E-06,0.87890625,0,0
-1.88112808245933E-05,7.07612252881518E-06,0.87890625,0,0
-1.88544727279805E-05,5.95180199525203E-06,0.87890625,0,0
-1.82135554496199E-05,4.83349094793084E-06,0.87890625,0,0
-1.99705664272187E-05,6.89252192387357E-06,0.87890625,0,0
-2.01398579520173E-05,8.48784929985413E-06,0.87890625,0,0
-2.19501216633944E-05,1.05104363683495E-05,0.87890625,0,0
-2.21373102249345E-05,1.01853629530524E-05,0.87890625,0,0
-2.35212246479932E-05,9.78987918642815E-06,0.87890625,0,0
-2.31127032748191E-05,9.00372924661497E-06,0.87890625,0,0
-2.21871123358142E-05,9.99281564872945E-06,0.87890625,0,0
-2.05570322577842E-05,9.77536546997726E-06,0.87890625,0,0
-2.00345766643295E-05,8.19709293864435E-06,0.87890625,0,0
-1.99380629055668E-05,6.42173927190015E-06,0.87890625,0,0
-2.174525798182E-05,6.3188313106366E-06,0.87890625,0,0
-1.82537187356502E-05,8.4596176748164E-06,0.87890625,0,0
-2.53956859523896E-05,1.48702665683231E-05,0.87890625,0,0
-1.92617262655403E-05,1.33656421894557E-05,0.87890625,0,0
-2.49777240242111E-05,1.29543595903669E-05,0.87890625,0,0
-2.15521940845065E-05,1.01535342764691E-05,0.87890625,0,0
-2.43919239437673E-05,1.08616995930788E-05,0.87890625,0,0
-2.28312746912707E-05,1.10121427496779E-05,0.87890625,0,0
-2.3475648049498E-05,1.3170544661989E-05,0.87890625,0,0
-2.23520346480655E-05,1.53518922161311E-05,0.87890625,0,0
-2.26498796109809E-05,1.68240349012194E-05,0.87890625,0,0
-2.29526940529468E-05,1.63579279615078E-05,0.87890625,0,0
-2.18313089135336E-05,1.36289927468169E-05,0.87890625,0,0
-2.17662654904416E-05,1.25653168652207E-05,0.87890625,0,0
-1.97258577827597E-05,1.38314098876435E-05,0.87890625,0,0
-1.95964366866974E-05,1.63470886036521E-05,0.87890625,0,0
-1.90483769983985E-05,1.56710229930468E-05,0.87890625,0,0
-2.1872279830859E-05,1.34964475364541E-05,0.87890625,0,0
-2.28576100198552E-05,1.03734009826439E-05,0.87890625,0,0
-2.43781832978129E-05,9.68934728007298E-06,0.87890625,0,0
-2.23325569095323E-05,1.02405711004394E-05,0.87890625,0,0
-2.14028514164966E-05,1.04458404166508E-05,0.87890625,0,0
-1.99570931727067E-05,8.9998993644258E-06,0.87890625,0,0
-2.12266204471234E-05,8.19941305962857E-06,0.87890625,0,0
-2.32122929446632E-05,9.04308490135008E-06,0.87890625,0,0
-2.50450138992164E-05,1.10842711364967E-05,0.87890625,0,0
-2.52843219641363E-05,1.35124601001735E-05,0.87890625,0,0
-2.47605130425654E-05,1.72191503224894E-05,0.87890625,0,0
-1.92022671399172E-05,1.67334237630712E-05,0.87890625,0,0
-2.71488715952728E-05,2.40765893977368E-05,0.87890625,0,0
-2.04835068871034E-05,1.64884531841381E-05,0.87890625,0,0
-2.55421527981525E-05,1.56189507833915E-05,0.87890625,0,0
-2.20321235246956E-05,7.6920305218664E-06,0.87890625,0,0
-2.51629098784179E-05,8.01765600044746E-06,0.87890625,0,0
-2.33233713515801E-05,4.33403602073668E-06,0.87890625,0,0
-2.48269843723392E-05,2.61873015006131E-06,0.87890625,0,0
-2.48366213781992E-05,-4.89659555569233E-07,0.87890625,0,0
-2.62270077655558E-05,-3.73184161617246E-06,0.87890625,0,0
-2.74678077403223E-05,-7.85928568802774E-06,0.87890625,0,0
-2.71389544650447E-05,-1.14707472675946E-05,0.87890625,0,0
-2.88479532173369E-05,-8.8901679191622E-06,0.87890625,0,0
-2.89002909994451E-05,-2.55252462011413E-06,0.87890625,0,0
-2.97833357763011E-05,6.13970405538566E-06,0.87890625,0,0
-2.73003424808849E-05,1.09192942545633E-05,0.87890625,0,0
-2.70850832748692E-05,1.41994314617477E-05,0.87890625,0,0
-2.655544449226E-05,1.21338352983003E-05,0.87890625,0,0
-2.85374753730139E-05,9.72812631516717E-06,0.87890625,0,0
-2.67434315901482E-05,6.93828360454063E-06,0.87890625,0,0
-2.49963832175126E-05,7.49318996895454E-06,0.87890625,0,0
-2.34614508372033E-05,7.56632698539761E-06,0.87890625,0,0
-2.53981361311162E-05,9.84413418336771E-06,0.87890625,0,0
-2.56502535194159E-05,1.17445651994785E-05,0.87890625,0,0
-2.32995371334255E-05,1.23891350085614E-05,0.87890625,0,0
-2.05748292501085E-05,1.24811658679391E-05,0.87890625,0,0
-1.9910969058401E-05,1.26423710753443E-05,0.87890625,0,0
-1.71729479916394E-05,1.18761927296873E-05,0.87890625,0,0
-2.58105901593808E-05,1.89064267033245E-05,0.87890625,0,0
-2.09550962608773E-05,1.74384877027478E-05,0.87890625,0,0
-2.46523104578955E-05,2.01113889488624E-05,0.87890625,0,0
-2.07764969673008E-05,1.66638037626399E-05,0.87890625,0,0
-2.13671155506745E-05,1.67770776897669E-05,0.87890625,0,0
-1.79803391802125E-05,1.52991888171528E-05,0.87890625,0,0
-1.87819732673233E-05,1.78955870069331E-05,0.87890625,0,0
-1.93885261978721E-05,2.07669436349534E-05,0.87890625,0,0
-2.12544200621778E-05,2.42002588493051E-05,0.87890625,0,0
-2.22718408622313E-05,2.59623175224988E-05,0.87890625,0,0
-2.20939600694692E-05,2.46221297857119E-05,0.87890625,0,0
-2.41884517890867E-05,2.32721959037008E-05,0.87890625,0,0
-2.55198738159379E-05,2.14001975109568E-05,0.87890625,0,0
-2.74634785455419E-05,2.15099553315667E-05,0.87890625,0,0
-2.62134526565205E-05,2.04246553039411E-05,0.87890625,0,0
-2.6321324185119E-05,1.98559555428801E-05,0.87890625,0,0
-2.5047662347788E-05,1.62580836331472E-05,0.87890625,0,0
-2.58695436059497E-05,1.24062971735839E-05,0.87890625,0,0
-2.55922859651037E-05,8.73315912031103E-06,0.87890625,0,0
-2.68048752332106E-05,8.28351949166972E-06,0.87890625,0,0
-2.70977270702133E-05,9.19166086532641E-06,0.87890625,0,0
-2.86249214695999E-05,1.10403980215779E-05,0.87890625,0,0
-2.9263537726365E-05,1.13210180643364E-05,0.87890625,0,0
-3.00202136713779E-05,1.25586193462368E-05,0.87890625,0,0
-2.93156026600627E-05,1.36748431032174E-05,0.87890625,0,0
-2.70001000899356E-05,1.30626885948004E-05,0.87890625,0,0
-2.00152881006943E-05,8.58630755828926E-06,0.87890625,0,0
-2.83141216641525E-05,1.00794668469462E-05,0.87890625,0,0
-2.13641051232116E-05,4.21999266109196E-06,0.87890625,0,0
-2.6891024390352E-05,4.93055404149345E-06,0.87890625,0,0
-2.27553373406408E-05,1.9435378817434E-06,0.87890625,0,0
-2.50519296969287E-05,3.49491210727138E-06,0.87890625,0,0
-2.27516720769927E-05,4.07474180974532E-06,0.87890625,0,0
-2.404413135082E-05,6.83040434523718E-06,0.87890625,0,0
-2.37101394304773E-05,8.63833247422008E-06,0.87890625,0,0
-2.42169899138389E-05,1.10212631625473E-05,0.87890625,0,0
-2.43300892179832E-05,1.37529277708381E-05,0.87890625,0,0
-2.25365638470976E-05,1.34377714857692E-05,0.87890625,0,0
-2.32273760047974E-05,1.1196318155271E-05,0.87890625,0,0
-2.35476454690797E-05,7.77202694735024E-06,0.87890625,0,0
-2.54359438258689E-05,6.61698504700325E-06,0.87890625,0,0
-2.45946994255064E-05,5.9132371461601E-06,0.87890625,0,0
-2.60189899563557E-05,6.77222396916477E-06,0.87890625,0,0
-2.51455276156776E-05,6.64582603349118E-06,0.87890625,0,0
-2.56265648204135E-05,7.3201135819545E-06,0.87890625,0,0
-2.48744472628459E-05,7.88166016718606E-06,0.87890625,0,0
-2.63999227172462E-05,9.27899873204296E-06,0.87890625,0,0
-2.57395313383313E-05,8.53960136737442E-06,0.87890625,0,0
-2.58599593507824E-05,8.27367875899654E-06,0.87890625,0,0
-2.62791800196283E-05,8.5494411905529E-06,0.87890625,0,0
-2.6815541787073E-05,8.79438630363438E-06,0.87890625,0,0
-2.63335896306671E-05,9.5863997557899E-06,0.87890625,0,0
-2.66211209236644E-05,1.13232235889882E-05,0.87890625,0,0
-2.02865430765087E-05,8.56774295243667E-06,0.87890625,0,0
-2.72564229817363E-05,1.06245588540332E-05,0.87890625,0,0
-1.89243928616634E-05,8.00153611635324E-06,0.87890625,0,0
-2.41841262322851E-05,1.31117903947597E-05,0.87890625,0,0
-1.95626635104418E-05,1.09565244201804E-05,0.87890625,0,0
-2.23804127017502E-05,9.40072459343355E-06,0.87890625,0,0
-2.05374090000987E-05,5.8598325267667E-06,0.87890625,0,0
-2.29023389692884E-05,7.54945222070091E-06,0.87890625,0,0
-2.37366148212459E-05,9.7277825261699E-06,0.87890625,0,0
-2.50395605689846E-05,8.88293197931489E-06,0.87890625,0,0
-2.48862870648736E-05,5.50776076124748E-06,0.87890625,0,0
-2.25390140258241E-05,2.83308668258542E-06,0.87890625,0,0
-2.19192697841208E-05,3.20368098982726E-06,0.87890625,0,0
-2.07194498216268E-05,3.41072859555425E-06,0.87890625,0,0
-2.22877079067985E-05,3.86183864975465E-06,0.87890625,0,0
-2.15445288631599E-05,2.87937018583762E-06,0.87890625,0,0
-2.35809275181964E-05,3.548814675014E-06,0.87890625,0,0
-2.35270235862117E-05,4.39482437286642E-06,0.87890625,0,0
-2.50378325290512E-05,7.35553021513624E-06,0.87890625,0,0
-2.37179556279443E-05,9.27676592255011E-06,0.87890625,0,0
-2.36697742366232E-05,1.06923134808312E-05,0.87890625,0,0
-2.27254768105922E-05,1.04786049632821E-05,0.87890625,0,0
-2.33753635257017E-05,1.06978268377134E-05,0.87890625,0,0
-2.29543875320815E-05,1.07788582681678E-05,0.87890625,0,0
-2.27847576752538E-05,1.06192974271835E-05,0.87890625,0,0
-2.24001778406091E-05,9.79345622909023E-06,0.87890625,0,0
-2.3854761820985E-05,7.88539364293683E-06,0.87890625,0,0
-2.01580751308938E-05,5.05761727254139E-06,0.87890625,0,0
-2.71848275588127E-05,9.64027094596531E-06,0.87890625,0,0
-1.87257210200187E-05,1.30228681882727E-05,0.87890625,0,0
-2.41255638684379E-05,1.66862209880492E-05,0.87890625,0,0
-2.17196502489969E-05,1.32450595629052E-05,0.87890625,0,0
-2.59572298091371E-05,1.00015295174671E-05,0.87890625,0,0
-2.26840620598523E-05,7.07038452674169E-06,0.87890625,0,0
-2.2595460904995E-05,7.57250518290675E-06,0.87890625,0,0
-2.12593713513343E-05,1.0667608876247E-05,0.87890625,0,0
-2.11588831007248E-05,1.45848825923167E-05,0.87890625,0,0
-2.18303539440967E-05,1.73769276443636E-05,0.87890625,0,0
-2.14533865801059E-05,1.62230753630865E-05,0.87890625,0,0
-2.20499496208504E-05,1.31665965454886E-05,0.87890625,0,0
-2.04478656087304E-05,1.08657150121871E-05,0.87890625,0,0
-2.07678349397611E-05,1.13405931188026E-05,0.87890625,0,0
-1.97517510969192E-05,1.22876253954018E-05,0.87890625,0,0
-2.24053692363668E-05,1.27064404296107E-05,0.87890625,0,0
-2.35339684877545E-05,1.21720177048701E-05,0.87890625,0,0
-2.55409540841356E-05,1.19611813715892E-05,0.87890625,0,0
-2.39985474763671E-05,1.06639445220935E-05,0.87890625,0,0
-2.48430787905818E-05,9.98499672277831E-06,0.87890625,0,0
-2.50361372309271E-05,1.0615346582199E-05,0.87890625,0,0
-2.58349682553671E-05,1.18840898721828E-05,0.87890625,0,0
-2.57977608271176E-05,1.37582428578753E-05,0.87890625,0,0
-2.6231358788209E-05,1.68803217093227E-05,0.87890625,0,0
-2.53072048508329E-05,1.90889131772565E-05,0.87890625,0,0
-2.577131272119E-05,1.99079204321606E-05,0.87890625,0,0
-2.19270859815879E-05,1.56264522956917E-05,0.87890625,0,0
-3.18061029247474E-05,1.99169917323161E-05,0.87890625,0,0
-2.45807259489084E-05,1.08396379800979E-05,0.87890625,0,0
-3.01104319078149E-05,1.33881067085895E-05,0.87890625,0,0
-2.54309834417654E-05,9.91210799838882E-06,0.87890625,0,0
-2.68925468844827E-05,1.35782120196382E-05,0.87890625,0,0
-2.40595763898455E-05,1.30734879348893E-05,0.87890625,0,0
-2.61710574704921E-05,1.36734561237972E-05,0.87890625,0,0
-2.56563762377482E-05,1.10097889773897E-05,0.87890625,0,0
-2.49498662014958E-05,9.37654112931341E-06,0.87890625,0,0
-2.53429061558563E-05,9.83005247690016E-06,0.87890625,0,0
-2.67861960310256E-05,9.25181120692287E-06,0.87890625,0,0
-3.01894287986215E-05,9.61511159403017E-06,0.87890625,0,0
-3.00417232210748E-05,9.37460572458804E-06,0.87890625,0,0
-3.04159766528755E-05,1.12627030830481E-05,0.87890625,0,0
-2.88124228973174E-05,1.1350793101883E-05,0.87890625,0,0
-3.09185452351812E-05,1.34026413434185E-05,0.87890625,0,0
-3.11128897010349E-05,1.29030795505969E-05,0.87890625,0,0
-3.1497507734457E-05,1.27290577438544E-05,0.87890625,0,0
-2.7834717911901E-05,1.08530175566557E-05,0.87890625,0,0
-2.61176246567629E-05,9.95717709884048E-06,0.87890625,0,0
-2.52694189839531E-05,8.83962820807938E-06,0.87890625,0,0
-2.71302342298441E-05,1.02244939625962E-05,0.87890625,0,0
-2.65578619291773E-05,1.13186642920482E-05,0.87890625,0,0
-2.395806950517E-05,1.15298234959482E-05,0.87890625,0,0
-2.15507061511744E-05,1.05985163827427E-05,0.87890625,0,0
-2.07900120585691E-05,1.08143240140635E-05,0.87890625,0,0
-1.65051405929262E-05,1.02420863186126E-05,0.87890625,0,0
-2.23306196858175E-05,1.42177186717163E-05,0.87890625,0,0
-1.57196682266658E-05,9.06863351701759E-06,0.87890625,0,0
-2.06465956580359E-05,1.06191109807696E-05,0.87890625,0,0
-1.85743629117496E-05,1.047620207828E-05,0.87890625,0,0
-2.09205336432206E-05,1.33162629936123E-05,0.87890625,0,0
-1.80403530976037E-05,1.14569038487389E-05,0.87890625,0,0
-1.94358926819405E-05,1.0131631825061E-05,0.87890625,0,0
-2.15507534448989E-05,9.02791634871392E-06,0.87890625,0,0
-2.40979425143451E-05,9.49824880080996E-06,0.87890625,0,0
-2.506921737222E-05,9.78845855570398E-06,0.87890625,0,0
-2.35990755754756E-05,9.75092825683532E-06,0.87890625,0,0
-2.32564361795085E-05,1.12966208689613E-05,0.87890625,0,0
-2.17644537769957E-05,1.13703954411903E-05,0.87890625,0,0
-2.2293213987723E-05,1.22966321214335E-05,0.87890625,0,0
-2.17738815990742E-05,1.22484389066813E-05,0.87890625,0,0
-2.38506272580707E-05,1.25188153106137E-05,0.87890625,0,0
-2.36833129747538E-05,1.0877420208999E-05,0.87890625,0,0
-2.39317014347762E-05,1.05403678389848E-05,0.87890625,0,0
-2.25375515583437E-05,9.2659884103341E-06,0.87890625,0,0
-2.27818763960386E-05,8.51437926030485E-06,0.87890625,0,0
-2.2231641196413E-05,8.71711017680354E-06,0.87890625,0,0
-2.34558938245755E-05,1.07108080555918E-05,0.87890625,0,0
-2.42688947764691E-05,1.16570690806839E-05,0.87890625,0,0
-2.43245140154613E-05,1.05006847661571E-05,0.87890625,0,0
-2.23618080781307E-05,7.28615168554825E-06,0.87890625,0,0
-1.986925235542E-05,5.19630884809885E-06,0.87890625,0,0
-1.62243122758809E-05,6.28888983555953E-06,0.87890625,0,0
-2.43197355302982E-05,1.24256321214489E-05,0.87890625,0,0
-2.07491211767774E-05,1.42422522912966E-05,0.87890625,0,0
-2.64219761447748E-05,1.52515012814547E-05,0.87890625,0,0
-2.33321297855582E-05,1.33238172566053E-05,0.87890625,0,0
-2.4003717044252E-05,1.44507166623953E-05,0.87890625,0,0
-2.27722393901786E-05,1.35718064484536E-05,0.87890625,0,0
-2.51894107350381E-05,1.31194428831805E-05,0.87890625,0,0
-2.4758248400758E-05,1.38314626383362E-05,0.87890625,0,0
-2.39411965594627E-05,1.4412099517358E-05,0.87890625,0,0
-2.42127553065075E-05,1.46868314914173E-05,0.87890625,0,0
-2.4703427698114E-05,1.38498144224286E-05,0.87890625,0,0
-2.63547535723774E-05,1.14636977741611E-05,0.87890625,0,0
-2.4810044124024E-05,7.25004974810872E-06,0.87890625,0,0
-2.37968342844397E-05,4.34201911048149E-06,0.87890625,0,0
-2.33047685469501E-05,3.42355929205951E-06,0.87890625,0,0
-2.6225598048768E-05,6.56157044431893E-06,0.87890625,0,0
-2.59717671724502E-05,1.14545237011043E-05,0.87890625,0,0
-2.47401167143835E-05,1.57172671606531E-05,0.87890625,0,0
-2.24011346290354E-05,1.60174004122382E-05,0.87890625,0,0
-2.28778371820226E-05,1.2475808034651E-05,0.87890625,0,0
-2.24237937800353E-05,8.79400704434374E-06,0.87890625,0,0
-2.2138168787933E-05,9.14581778488355E-06,0.87890625,0,0
-1.98840571101755E-05,1.17456320367637E-05,0.87890625,0,0
-1.79712369572371E-05,1.30304870253894E-05,0.87890625,0,0
-1.82611493073637E-05,9.9843264251831E-06,0.87890625,0,0
-2.00790618691826E-05,4.30971977039007E-06,0.87890625,0,0
-1.75657060026424E-05,1.53367608390909E-07,0.87890625,0,0
-2.5617984647397E-05,3.86324336432153E-06,0.87890625,0,0
-1.99836067622527E-05,1.14472750283312E-05,0.87890625,0,0
-2.4306509658345E-05,1.63975037139608E-05,0.87890625,0,0
-2.08630863198778E-05,1.78021418832941E-05,0.87890625,0,0
-2.43608283199137E-05,1.72998661582824E-05,0.87890625,0,0
-2.48847045440925E-05,1.62172527780058E-05,0.87890625,0,0
-2.73205132543808E-05,1.57482481881743E-05,0.87890625,0,0
-2.61768454947742E-05,1.56790301844012E-05,0.87890625,0,0
-2.51940764428582E-05,1.55359812197275E-05,0.87890625,0,0
-2.54995247814804E-05,1.48855569932493E-05,0.87890625,0,0
-2.47851003223332E-05,1.42162080010166E-05,0.87890625,0,0
-2.41493526118575E-05,1.29038253362523E-05,0.87890625,0,0
-2.18705863517243E-05,1.03052670965553E-05,0.87890625,0,0
-2.28120752581162E-05,6.97156929163611E-06,0.87890625,0,0
-2.33946284424746E-05,5.12059523316566E-06,0.87890625,0,0
-2.57442661677487E-05,5.4069919315225E-06,0.87890625,0,0
-2.56836665357696E-05,6.47472097625723E-06,0.87890625,0,0
-2.74416033789748E-05,6.24288804829121E-06,0.87890625,0,0
-2.74407302640611E-05,4.84637121189735E-06,0.87890625,0,0
-2.81498450931394E-05,3.84538634534692E-06,0.87890625,0,0
-2.59246880887076E-05,4.95056565341656E-06,0.87890625,0,0
-2.33463779295562E-05,8.07198921393137E-06,0.87890625,0,0
-2.31716985581443E-05,1.05034960142802E-05,0.87890625,0,0
-2.65297076111892E-05,1.12923071355908E-05,0.87890625,0,0
-2.83361041510943E-05,1.13349187813583E-05,0.87890625,0,0
-2.74670437647728E-05,1.10280579974642E-05,0.87890625,0,0
-2.0956478692824E-05,8.56143196870107E-06,0.87890625,0,0
-2.91543801722582E-05,1.32598288473673E-05,0.87890625,0,0
-2.14952924579848E-05,1.13085106931976E-05,0.87890625,0,0
-2.64268892351538E-05,1.37777569761965E-05,0.87890625,0,0
-2.18176865018904E-05,1.17862300612614E-05,0.87890625,0,0
-2.58108739217278E-05,1.24423777378979E-05,0.87890625,0,0
-2.35936877288623E-05,1.16250930659589E-05,0.87890625,0,0
-2.46968302235473E-05,1.20793656606111E-05,0.87890625,0,0
-2.36218529607868E-05,1.19575870485278E-05,0.87890625,0,0
-2.34742674365407E-05,1.18824664241401E-05,0.87890625,0,0
-2.44870279857423E-05,1.22551164167817E-05,0.87890625,0,0
-2.41008438024437E-05,1.2642710316868E-05,0.87890625,0,0
-2.40062236116501E-05,1.21685816338868E-05,0.87890625,0,0
-2.15740619751159E-05,1.09402853922802E-05,0.87890625,0,0
-2.2844167688163E-05,1.20627964861342E-05,0.87890625,0,0
-2.31958456424763E-05,1.26107688629418E-05,0.87890625,0,0
-2.57708379649557E-05,1.34471692945226E-05,0.87890625,0,0
-2.49900149356108E-05,1.2374763173284E-05,0.87890625,0,0
-2.5558918423485E-05,1.05340013760724E-05,0.87890625,0,0
-2.3854874598328E-05,8.07519609224983E-06,0.87890625,0,0
-2.32777802011697E-05,7.75014450482558E-06,0.87890625,0,0
-2.18707045860356E-05,8.1995849541272E-06,0.87890625,0,0
-2.33121445489815E-05,8.66651953401743E-06,0.87890625,0,0
-2.40251647483092E-05,8.25119968794752E-06,0.87890625,0,0
-2.39253949985141E-05,9.02557258086745E-06,0.87890625,0,0
-2.37079730140977E-05,9.37122058530804E-06,0.87890625,0,0
-2.46298804995604E-05,8.6599393398501E-06,0.87890625,0,0
-2.08533965633251E-05,4.90321872348432E-06,0.87890625,0,0
-2.93205612251768E-05,4.73034333481337E-06,0.87890625,0,0
-2.01842558453791E-05,5.45838815924071E-07,0.87890625,0,0
-2.3652748495806E-05,4.10854818255757E-06,0.87890625,0,0
-2.02550963877002E-05,8.56229053169955E-06,0.87890625,0,0
-2.46486124524381E-05,1.21307812150917E-05,0.87890625,0,0
-2.31989433814306E-05,9.42781116464175E-06,0.87890625,0,0
-2.42100213654339E-05,6.72213263896992E-06,0.87890625,0,0
-2.39994678850053E-05,5.80362257096567E-06,0.87890625,0,0
-2.51954134000698E-05,7.5572938840196E-06,0.87890625,0,0
-2.60381875705207E-05,9.93960111372871E-06,0.87890625,0,0
-2.49516742769629E-05,1.19078467832878E-05,0.87890625,0,0
-2.52632180490764E-05,1.26687091324129E-05,0.87890625,0,0
-2.36175037571229E-05,1.17992567538749E-05,0.87890625,0,0
-2.37073290918488E-05,1.16442706712405E-05,0.87890625,0,0
-2.21577392949257E-05,1.06919405880035E-05,0.87890625,0,0
-2.44744678639108E-05,1.05728895505308E-05,0.87890625,0,0
-2.51012988883303E-05,1.07072073660675E-05,0.87890625,0,0
-2.67338691628538E-05,1.21916800708277E-05,0.87890625,0,0
-2.5864163035294E-05,1.23235140563338E-05,0.87890625,0,0
-2.68542498815805E-05,1.15885986815556E-05,0.87890625,0,0
-2.72096694970969E-05,1.1151853868796E-05,0.87890625,0,0
-2.85592959698988E-05,1.17160780064296E-05,0.87890625,0,0
-2.85706846625544E-05,1.19170499601751E-05,0.87890625,0,0
-2.87451621261425E-05,1.27283810797962E-05,0.87890625,0,0
-2.82753044302808E-05,1.2967823749932E-05,0.87890625,0,0
-2.66080896835774E-05,1.31735105242115E-05,0.87890625,0,0
-2.02990631805733E-05,1.12917687147274E-05,0.87890625,0,0
-2.80312178801978E-05,1.58063976414269E-05,0.87890625,0,0
-2.16035568882944E-05,1.03345355455531E-05,0.87890625,0,0
-2.86664653685875E-05,1.00077395472908E-05,0.87890625,0,0
-2.52391801041085E-05,5.73390298086451E-06,0.87890625,0,0
-2.8598971766769E-05,8.08048662293004E-06,0.87890625,0,0
-2.58907402894693E-05,8.91747640707763E-06,0.87890625,0,0
-2.62313988059759E-05,1.13427331598359E-05,0.87890625,0,0
-2.57456922554411E-05,1.03263282653643E-05,0.87890625,0,0
-2.62231478700414E-05,7.72257317294134E-06,0.87890625,0,0
-2.58275049418444E-05,6.44191868559574E-06,0.87890625,0,0
-2.41719608311541E-05,8.01651367510203E-06,0.87890625,0,0
-2.51491364906542E-05,1.12304214781034E-05,0.87890625,0,0
-2.35985735344002E-05,1.25189926620806E-05,0.87890625,0,0
-2.26836218644166E-05,1.44283276313217E-05,0.87890625,0,0
-2.00375397980679E-05,1.4956023733248E-05,0.87890625,0,0
-2.14046758628683E-05,1.63561053341255E-05,0.87890625,0,0
-2.12936301977606E-05,1.54736135300482E-05,0.87890625,0,0
-2.25584644795163E-05,1.48464505400625E-05,0.87890625,0,0
-2.09401587198954E-05,1.36044836835936E-05,0.87890625,0,0
-2.10440448427107E-05,1.32259337988216E-05,0.87890625,0,0
-2.04730313271284E-05,1.14269751065876E-05,0.87890625,0,0
-2.07997109100688E-05,1.14529320853762E-05,0.87890625,0,0
-1.99773348867893E-05,1.1761873793148E-05,0.87890625,0,0
-2.09105346584693E-05,1.2084803529433E-05,0.87890625,0,0
-2.24617378989933E-05,1.24165553643252E-05,0.87890625,0,0
-2.24761188292177E-05,1.2550091923913E-05,0.87890625,0,0
-1.75859804585343E-05,9.00063969311304E-06,0.87890625,0,0
-2.40190984186484E-05,7.36212041374529E-06,0.87890625,0,0
-1.77140864252578E-05,-4.90404681841028E-06,0.87890625,0,0
-2.46749677899061E-05,-5.81206359129283E-06,0.87890625,0,0
-2.32256334129488E-05,-3.65980372407648E-06,0.87890625,0,0
-2.5048577299458E-05,5.55373753741151E-06,0.87890625,0,0
-2.15259315154981E-05,1.08968015410937E-05,0.87890625,0,0
-2.17817178054247E-05,1.40475285661523E-05,0.87890625,0,0
-2.12069699045969E-05,1.44916830322472E-05,0.87890625,0,0
-2.10478101507761E-05,1.53834425873356E-05,0.87890625,0,0
-2.1034345991211E-05,1.6796000636532E-05,0.87890625,0,0
-1.94073891179869E-05,1.69395825651009E-05,0.87890625,0,0
-1.9199358575861E-05,1.63478198373923E-05,0.87890625,0,0
-1.92672050616238E-05,1.44206151162507E-05,0.87890625,0,0
-2.20909696508897E-05,1.39239555210224E-05,0.87890625,0,0
-2.22819780901773E-05,1.23053896459169E-05,0.87890625,0,0
-2.33517894230317E-05,1.22020746857743E-05,0.87890625,0,0
-2.22898852371145E-05,1.14012782432837E-05,0.87890625,0,0
-2.32900110859191E-05,1.11377421490033E-05,0.87890625,0,0
-2.26494630624074E-05,1.03786642284831E-05,0.87890625,0,0
-2.281163688167E-05,1.18314210340031E-05,0.87890625,0,0
-2.25395287998253E-05,1.2248363418621E-05,0.87890625,0,0
-2.52201552939368E-05,1.16157370939618E-05,0.87890625,0,0
-2.67488649114966E-05,1.12577290565241E-05,0.87890625,0,0
-2.59934513451299E-05,1.26905333672767E-05,0.87890625,0,0
-2.32892671192531E-05,1.43703164212639E-05,0.87890625,0,0
-2.09380523301661E-05,1.44677460411913E-05,0.87890625,0,0
-1.73061271198094E-05,1.04923474282259E-05,0.87890625,0,0
-2.5085615561693E-05,1.43660572575754E-05,0.87890625,0,0
-2.02715546038235E-05,1.03481397673022E-05,0.87890625,0,0
-2.59996922977734E-05,1.33950061353971E-05,0.87890625,0,0
-2.33222672250122E-05,1.18363841465907E-05,0.87890625,0,0
-2.47339612542419E-05,1.38350469569559E-05,0.87890625,0,0
-2.18361801671563E-05,1.36862608997035E-05,0.87890625,0,0
-2.33366044994909E-05,1.53430009959266E-05,0.87890625,0,0
-2.37231324717868E-05,1.44840105349431E-05,0.87890625,0,0
-2.37480471696472E-05,1.32060358737363E-05,0.87890625,0,0
-2.37718923017383E-05,1.31250353661017E-05,0.87890625,0,0
-2.32019538088935E-05,1.40738193294965E-05,0.87890625,0,0
-2.37147705774987E-05,1.51243029904435E-05,0.87890625,0,0
-2.27505388465943E-05,1.41114815050969E-05,0.87890625,0,0
-2.30715995712671E-05,1.46633683471009E-05,0.87890625,0,0
-2.117256008205E-05,1.48770113810315E-05,0.87890625,0,0
-2.1516032575164E-05,1.64312350534601E-05,0.87890625,0,0
-2.1097230273881E-05,1.65370638569584E-05,0.87890625,0,0
-2.32777019846253E-05,1.73201806319412E-05,0.87890625,0,0
-2.40339049923932E-05,1.61125499289483E-05,0.87890625,0,0
-2.59166008618195E-05,1.5394645743072E-05,0.87890625,0,0
-2.67438172159018E-05,1.48694853123743E-05,0.87890625,0,0
-2.8402087991708E-05,1.43505139931221E-05,0.87890625,0,0
-2.86785871139728E-05,1.29950230984832E-05,0.87890625,0,0
-2.96616726700449E-05,1.39974472403992E-05,0.87890625,0,0
-2.97101687465329E-05,1.58033999468898E-05,0.87890625,0,0
-2.86295180558227E-05,1.66313184308819E-05,0.87890625,0,0
-2.1639480110025E-05,1.15683969852398E-05,0.87890625,0,0
-2.97255555778975E-05,1.35607433549012E-05,0.87890625,0,0
-2.15351064980496E-05,6.56016209177324E-06,0.87890625,0,0
-2.63411329797236E-05,9.91722390608629E-06,0.87890625,0,0
-1.90146693057613E-05,8.33308513392694E-06,0.87890625,0,0
-1.9772876839852E-05,1.10312239485211E-05,0.87890625,0,0
-1.71530064108083E-05,9.04949047253467E-06,0.87890625,0,0
-2.06049662665464E-05,6.5129465838254E-06,0.87890625,0,0
-2.28093194891699E-05,2.017871793214E-06,0.87890625,0,0
-2.49784516199725E-05,-7.75863952640066E-07,0.87890625,0,0
-2.62197136180475E-05,-2.26889665100316E-06,0.87890625,0,0
-2.528519507905E-05,-3.55906422555563E-06,0.87890625,0,0
-2.50745215453207E-05,-3.13172063215461E-06,0.87890625,0,0
-2.24114155571442E-05,-1.04720209037623E-06,0.87890625,0,0
-2.25821713684127E-05,4.30834279541159E-06,0.87890625,0,0
-2.23052211367758E-05,7.37788514015847E-06,0.87890625,0,0
-2.47638345172163E-05,9.98177984001813E-06,0.87890625,0,0
-2.29518755077152E-05,9.14613337954506E-06,0.87890625,0,0
-2.27255713980412E-05,6.72383976052515E-06,0.87890625,0,0
-2.1900897991145E-05,1.42132546443463E-06,0.87890625,0,0
-2.36390333157033E-05,-7.42647500828753E-07,0.87890625,0,0
-2.34962280956097E-05,1.35890127239691E-06,0.87890625,0,0
-2.3893535399111E-05,8.05520994617837E-06,0.87890625,0,0
-2.23298011405859E-05,1.13843443614314E-05,0.87890625,0,0
-2.13528564927401E-05,8.75680052558891E-06,0.87890625,0,0
-2.01717612071661E-05,4.98740064358572E-06,0.87890625,0,0
-1.90284772543237E-05,6.37510220258264E-06,0.87890625,0,0
-1.59605096996529E-05,9.96379458229057E-06,0.87890625,0,0
-2.3792697902536E-05,1.67287344083888E-05,0.87890625,0,0
-1.96388737094821E-05,1.48669769259868E-05,0.87890625,0,0
-2.41036159422947E-05,1.62584019562928E-05,0.87890625,0,0
-2.20623096538475E-05,1.43825927807484E-05,0.87890625,0,0
-2.57691608567256E-05,1.40288548209355E-05,0.87890625,0,0
-2.5584782633814E-05,1.08889098555665E-05,0.87890625,0,0
-2.71668595814845E-05,1.03881675386219E-05,0.87890625,0,0
-2.71255521511193E-05,1.04358405224048E-05,0.87890625,0,0
-2.7480080461828E-05,1.03256770671578E-05,0.87890625,0,0
-2.74720896413783E-05,1.01837467809673E-05,0.87890625,0,0
-2.59663283941336E-05,9.56760777626187E-06,0.87890625,0,0
-2.53644902841188E-05,9.84277357929386E-06,0.87890625,0,0
-2.32692709687399E-05,1.02972180684446E-05,0.87890625,0,0
-2.37577751249773E-05,1.28358524307259E-05,0.87890625,0,0
-2.33248665608699E-05,1.49107845572871E-05,0.87890625,0,0
-2.3431028239429E-05,1.69962459040107E-05,0.87890625,0,0
-2.1304269466782E-05,1.58851653395686E-05,0.87890625,0,0
-2.18588756979443E-05,1.34410456666956E-05,0.87890625,0,0
-2.1789652237203E-05,1.03718512036721E-05,0.87890625,0,0
-2.3430699002347E-05,9.2563959697145E-06,0.87890625,0,0
-2.48620253842091E-05,9.5697305368958E-06,0.87890625,0,0
-2.61100194620667E-05,1.09966840682318E-05,0.87890625,0,0
-2.55446575465612E-05,1.14325839604135E-05,0.87890625,0,0
-2.50744797085645E-05,1.3105077414366E-05,0.87890625,0,0
-2.45423761953134E-05,1.42634435178479E-05,0.87890625,0,0
-2.47402185777901E-05,1.32102277348167E-05,0.87890625,0,0
-1.97341432794929E-05,9.93767935142387E-06,0.87890625,0,0
-2.83313711406663E-05,1.41282380354824E-05,0.87890625,0,0
-2.22641137952451E-05,1.00053366622888E-05,0.87890625,0,0
-2.70765012828633E-05,1.02071508081281E-05,0.87890625,0,0
-2.18481072806753E-05,6.49745152259129E-06,0.87890625,0,0
-2.44215443672147E-05,7.32815487936023E-06,0.87890625,0,0
-2.24707382585621E-05,4.90680713483016E-06,0.87890625,0,0
-2.43992490140954E-05,5.06623291585129E-06,0.87890625,0,0
-2.51901565206936E-05,4.33002969657537E-06,0.87890625,0,0
-2.62667617789702E-05,3.93114078178769E-06,0.87890625,0,0
-2.70919408649206E-05,5.49273545402684E-06,0.87890625,0,0
-2.74135818472132E-05,7.75669832364656E-06,0.87890625,0,0
-2.91273645416368E-05,1.01090681710048E-05,0.87890625,0,0
-2.78148509096354E-05,9.77608397079166E-06,0.87890625,0,0
-2.75285638053901E-05,9.20578077057144E-06,0.87890625,0,0
-2.61760778812459E-05,7.75893931859173E-06,0.87890625,0,0
-2.80703370663105E-05,9.12492578208912E-06,0.87890625,0,0
-2.77370145340683E-05,1.02232452263706E-05,0.87890625,0,0
-2.95224544970552E-05,1.11012077468331E-05,0.87890625,0,0
-2.96955768135376E-05,9.52798018261092E-06,0.87890625,0,0
-3.03562865155982E-05,8.87439546204405E-06,0.87890625,0,0
-2.89177860395284E-05,8.76424473972293E-06,0.87890625,0,0
-2.78196312137879E-05,1.06285015135654E-05,0.87890625,0,0
-2.56686707871268E-05,1.2415927812981E-05,0.87890625,0,0
-2.6216659534839E-05,1.25322612802847E-05,0.87890625,0,0
-2.70144464593614E-05,1.07706409835373E-05,0.87890625,0,0
-2.75834390777163E-05,1.00978450063849E-05,0.87890625,0,0
-2.26032097998541E-05,1.07674140963354E-05,0.87890625,0,0
-3.15943907480687E-05,1.73779008036945E-05,0.87890625,0,0
-2.32169149967376E-05,1.38350160341361E-05,0.87890625,0,0
-2.81456323136808E-05,1.47133532664157E-05,0.87890625,0,0
-2.25110597966705E-05,1.31194119603606E-05,0.87890625,0,0
-2.48489559453446E-05,1.51305566760129E-05,0.87890625,0,0
-2.21778645936865E-05,1.49991947182571E-05,0.87890625,0,0
-2.49665699811885E-05,1.57048816618044E-05,0.87890625,0,0
-2.44644415943185E-05,1.53833098011091E-05,0.87890625,0,0
-2.28354765567929E-05,1.48375838762149E-05,0.87890625,0,0
-2.12833983823657E-05,1.40264619403752E-05,0.87890625,0,0
-1.98693305719644E-05,1.26575205285917E-05,0.87890625,0,0
-2.08566289074952E-05,1.2786761544703E-05,0.87890625,0,0
-1.91304843610851E-05,1.28796400531428E-05,0.87890625,0,0
-1.9363549654372E-05,1.39542325996445E-05,0.87890625,0,0
-1.83204174390994E-05,1.36989701786661E-05,0.87890625,0,0
-2.11965343623888E-05,1.43750885399641E-05,0.87890625,0,0
-2.12549657589989E-05,1.40118991112104E-05,0.87890625,0,0
-2.29617435252294E-05,1.24795678857481E-05,0.87890625,0,0
-2.25914063776145E-05,8.02315116743557E-06,0.87890625,0,0
-2.44714647124056E-05,5.38656468052068E-06,0.87890625,0,0
-2.51501296588685E-05,6.67971517032129E-06,0.87890625,0,0
-2.68320545728784E-05,1.16089677248965E-05,0.87890625,0,0
-2.70714699581731E-05,1.49486077134497E-05,0.87890625,0,0
-2.68436724581989E-05,1.60565050464356E-05,0.87890625,0,0
-2.44525599555345E-05,1.46435659189592E-05,0.87890625,0,0
-2.22577637032373E-05,1.0383540939074E-05,0.87890625,0,0
-1.92299266927876E-05,5.31578689333401E-06,0.87890625,0,0
-2.86970280285459E-05,8.0693343988969E-06,0.87890625,0,0
-2.2551945221494E-05,8.4154517026036E-06,0.87890625,0,0
-2.68098647211446E-05,1.1802910194092E-05,0.87890625,0,0
-2.41009383898927E-05,9.78976004262222E-06,0.87890625,0,0
-2.68449548457284E-05,6.77571824780898E-06,0.87890625,0,0
-2.51568399107782E-05,6.13844235886063E-07,0.87890625,0,0
-2.58475374721456E-05,-2.61763875641918E-06,0.87890625,0,0
-2.40088575083064E-05,-1.22630854093586E-06,0.87890625,0,0
-2.33290920732543E-05,1.82374424184673E-06,0.87890625,0,0
-2.28550616157008E-05,3.59212799594388E-06,0.87890625,0,0
-2.12317008845275E-05,5.27445581610664E-06,0.87890625,0,0
-2.17076867556898E-05,6.89449143465026E-06,0.87890625,0,0
-2.16019707295345E-05,6.63024911773391E-06,0.87890625,0,0
-2.3280630557565E-05,6.59655233903322E-06,0.87890625,0,0
-2.21292630158132E-05,6.69256723995204E-06,0.87890625,0,0
-2.2232668925426E-05,7.89555087976623E-06,0.87890625,0,0
-2.07053890335374E-05,9.19618196348893E-06,0.87890625,0,0
-2.14151332329493E-05,1.12344559966004E-05,0.87890625,0,0
-2.02887040359201E-05,1.12068064481718E-05,0.87890625,0,0
-2.08673445740715E-05,1.13802907435456E-05,0.87890625,0,0
-2.06408603844466E-05,1.26037184600136E-05,0.87890625,0,0
-2.07713583222358E-05,1.43102115544025E-05,0.87890625,0,0
-1.96668406715617E-05,1.50933374243323E-05,0.87890625,0,0
-1.93441719602561E-05,1.52437505676062E-05,0.87890625,0,0
-1.87552668649005E-05,1.49743864312768E-05,0.87890625,0,0
-1.95338398043532E-05,1.46047459566034E-05,0.87890625,0,0
-1.70291241374798E-05,1.18280995593523E-05,0.87890625,0,0
-2.53628841164755E-05,1.90893333638087E-05,0.87890625,0,0
-2.1049008864793E-05,1.7702768673189E-05,0.87890625,0,0
-2.62154790107161E-05,2.00172726181336E-05,0.87890625,0,0
-2.33829377975781E-05,1.57329304784071E-05,0.87890625,0,0
-2.48288615694037E-05,1.61479802045505E-05,0.87890625,0,0
-2.14923293242464E-05,1.5117052498681E-05,0.87890625,0,0
-2.2494217773783E-05,1.71268493431853E-05,0.87890625,0,0
-2.3977059754543E-05,1.74769247678341E-05,0.87890625,0,0
-2.60130127571756E-05,1.6417658116552E-05,0.87890625,0,0
-2.68042622337816E-05,1.39208395921742E-05,0.87890625,0,0
-2.53962716669776E-05,1.15841139631812E-05,0.87890625,0,0
-2.46768213401083E-05,1.04607424873393E-05,0.87890625,0,0
-2.3744751160848E-05,8.7659236669424E-06,0.87890625,0,0
-2.59932512562955E-05,8.74255420058034E-06,0.87890625,0,0
-2.59666376223322E-05,8.51906133902958E-06,0.87890625,0,0
-2.59443331742659E-05,1.08174335764488E-05,0.87890625,0,0
-2.3466755010304E-05,1.1727348464774E-05,0.87890625,0,0
-2.30073837883538E-05,1.27455959955114E-05,0.87890625,0,0
-2.23726856347639E-05,1.28136862258543E-05,0.87890625,0,0
-2.4511191440979E-05,1.54316203406779E-05,0.87890625,0,0
-2.54507194767939E-05,1.80679835466435E-05,0.87890625,0,0
-2.59772314166185E-05,1.92154948308598E-05,0.87890625,0,0
-2.43979047809262E-05,1.69699796970235E-05,0.87890625,0,0
-2.32163238251815E-05,1.40587244459311E-05,0.87890625,0,0
-2.25599706027424E-05,1.12668085421319E-05,0.87890625,0,0
-2.28495919145644E-05,9.71211102296365E-06,0.87890625,0,0
-1.97431982087437E-05,8.32869500300149E-06,0.87890625,0,0
-2.89776507997885E-05,1.29630316223484E-05,0.87890625,0,0
-2.22189628402703E-05,1.22586234283517E-05,0.87890625,0,0
-2.64243153651478E-05,1.6242622223217E-05,0.87890625,0,0
-2.29073975788197E-05,1.57059985212982E-05,0.87890625,0,0
-2.53087364399107E-05,1.52111915667774E-05,0.87890625,0,0
-2.19153462239774E-05,1.03571819636272E-05,0.87890625,0,0
-2.26331922021927E-05,7.69796861277428E-06,0.87890625,0,0
-2.29905745072756E-05,7.24717301636701E-06,0.87890625,0,0
-2.3994201910682E-05,7.61667524784571E-06,0.87890625,0,0
-2.50903703999938E-05,7.22127060726052E-06,0.87890625,0,0
-2.53349007834913E-05,6.04178831054014E-06,0.87890625,0,0
-2.6299070668756E-05,7.21107289791689E-06,0.87890625,0,0
-2.48373289650772E-05,9.31275826587807E-06,0.87890625,0,0
-2.49068634730065E-05,1.18592133730999E-05,0.87890625,0,0
-2.33508908422664E-05,1.22994269986521E-05,0.87890625,0,0
-2.54156257142313E-05,1.23658755910583E-05,0.87890625,0,0
-2.61155801126733E-05,1.06586376205087E-05,0.87890625,0,0
-2.69888441835064E-05,8.22993752080947E-06,0.87890625,0,0
-2.45438423007727E-05,4.88144951305003E-06,0.87890625,0,0
-2.37096937780734E-05,5.16871205036296E-06,0.87890625,0,0
-2.17997021536576E-05,6.8694776018674E-06,0.87890625,0,0
-2.12678078241879E-05,6.90974593453575E-06,0.87890625,0,0
-2.13073180930223E-05,4.07557581638685E-06,0.87890625,0,0
-2.29692268476356E-05,1.23186475775583E-06,0.87890625,0,0
-2.36727919400437E-05,1.26656982502027E-06,0.87890625,0,0
-2.36229461734183E-05,5.10684776600101E-06,0.87890625,0,0
-2.00236027012579E-05,7.08215384292998E-06,0.87890625,0,0
-2.88299797830405E-05,9.13826079340652E-06,0.87890625,0,0
-2.150637737941E-05,5.07315417053178E-06,0.87890625,0,0
-2.53199941653293E-05,7.33427987142932E-06,0.87890625,0,0
-2.11035694519524E-05,7.15435817255639E-06,0.87890625,0,0
-2.32715192396427E-05,8.16415831650374E-06,0.87890625,0,0
-2.06434378924314E-05,7.13969984644791E-06,0.87890625,0,0
-2.2709442419E-05,8.33685589896049E-06,0.87890625,0,0
-2.31929534493247E-05,1.05190301837865E-05,0.87890625,0,0
-2.39889650401892E-05,1.24965508803143E-05,0.87890625,0,0
-2.45705487031955E-05,1.27794555737637E-05,0.87890625,0,0
-2.40682402363746E-05,1.06878542283084E-05,0.87890625,0,0
-2.50182874879101E-05,9.73119222180685E-06,0.87890625,0,0
-2.43270696955733E-05,9.95671962300548E-06,0.87890625,0,0
-2.45328919845633E-05,1.11416502477368E-05,0.87890625,0,0
-2.22827875404619E-05,1.06664729173644E-05,0.87890625,0,0
-2.42533205891959E-05,1.04254440884688E-05,0.87890625,0,0
-2.52792560786475E-05,9.86007580650039E-06,0.87890625,0,0
-2.75254369626055E-05,1.05749422800727E-05,0.87890625,0,0
-2.68890325969551E-05,1.06779725683737E-05,0.87890625,0,0
-2.74198773695389E-05,1.02172143670032E-05,0.87890625,0,0
-2.68507537839469E-05,9.95963910099817E-06,0.87890625,0,0
-2.70292730419897E-05,1.17064955702517E-05,0.87890625,0,0
-2.52047157118795E-05,1.22567953440011E-05,0.87890625,0,0
-2.4045781174209E-05,1.19162586997845E-05,0.87890625,0,0
-2.30026398639893E-05,1.19099449875648E-05,0.87890625,0,0
-2.19044377445243E-05,1.16120818347554E-05,0.87890625,0,0
-1.70343082572799E-05,8.16072133602574E-06,0.87890625,0,0
-2.37789281527512E-05,1.08313715827535E-05,0.87890625,0,0
-1.76261146407342E-05,9.84501639322843E-06,0.87890625,0,0
-2.27135424211156E-05,1.6127292838064E-05,0.87890625,0,0
-2.0544221115415E-05,1.52520560732228E-05,0.87890625,0,0
-2.33054452110082E-05,1.55143497977406E-05,0.87890625,0,0
-2.16349944821559E-05,1.41982573040877E-05,0.87890625,0,0
-2.38474458456039E-05,1.51432159327669E-05,0.87890625,0,0
-2.56446564890211E-05,1.44614559758338E-05,0.87890625,0,0
-2.75296333711594E-05,1.30124262796016E-05,0.87890625,0,0
-2.75933198281564E-05,1.22506535262801E-05,0.87890625,0,0
-2.57424071605783E-05,1.15268103400012E-05,0.87890625,0,0
-2.51516721618827E-05,1.09787670226069E-05,0.87890625,0,0
-2.41450197790982E-05,9.59285989665659E-06,0.87890625,0,0
-2.50707507802872E-05,9.34979198063957E-06,0.87890625,0,0
-2.33696355280699E-05,9.01569092093268E-06,0.87890625,0,0
-2.30762216233416E-05,1.02722897281637E-05,0.87890625,0,0
-2.2759850253351E-05,1.00849947557435E-05,0.87890625,0,0
-2.62726771325106E-05,1.01120749604888E-05,0.87890625,0,0
-2.75702514045406E-05,8.9689656306291E-06,0.87890625,0,0
-2.84983525489224E-05,8.24157268652925E-06,0.87890625,0,0
-2.73264140560059E-05,7.00782265994349E-06,0.87890625,0,0
-2.74578032986028E-05,6.8146109697409E-06,0.87890625,0,0
-2.68195635726443E-05,7.33767865312984E-06,0.87890625,0,0
-2.59444113908103E-05,8.86732868821127E-06,0.87890625,0,0
-2.48100768658333E-05,1.04220143839484E-05,0.87890625,0,0
-2.3937578589539E-05,1.18678663056926E-05,0.87890625,0,0
-1.83837164513534E-05,9.26188931771321E-06,0.87890625,0,0
-2.63843357970472E-05,1.03922611742746E-05,0.87890625,0,0
-2.1560868844972E-05,5.01495242133387E-06,0.87890625,0,0
-2.73316109087318E-05,9.76531282503856E-06,0.87890625,0,0
-2.24690029426711E-05,1.11426334115095E-05,0.87890625,0,0
-2.38062402786454E-05,1.4396226106328E-05,0.87890625,0,0
-2.24000650632661E-05,1.13484948087716E-05,0.87890625,0,0
-2.60278684436344E-05,7.75111311668297E-06,0.87890625,0,0
-2.80748718068935E-05,2.79131222669093E-06,0.87890625,0,0
-2.92828517558519E-05,9.52014147515001E-08,0.87890625,0,0
-2.87112816295121E-05,2.62932894656842E-06,0.87890625,0,0
-2.61904096987564E-05,7.80790833232459E-06,0.87890625,0,0
-2.53885064012138E-05,1.22063556773355E-05,0.87890625,0,0
-2.43082740780665E-05,1.18975212899386E-05,0.87890625,0,0
-2.56783114309656E-05,1.02789681477589E-05,0.87890625,0,0
-2.46715244429652E-05,5.74713749301736E-06,0.87890625,0,0
-2.58357049460756E-05,2.07369407689839E-06,0.87890625,0,0
-2.49922504735878E-05,-1.60262618464913E-06,0.87890625,0,0
-2.53088401223067E-05,-2.83001986645104E-06,0.87890625,0,0
-2.37255389947677E-05,-2.24628161049623E-06,0.87890625,0,0
-2.35187471844256E-05,2.11277097150742E-06,0.87890625,0,0
-2.24033938138746E-05,5.73613124288386E-06,0.87890625,0,0
-2.40601184486877E-05,7.53491849536658E-06,0.87890625,0,0
-2.43784343183506E-05,7.34914237909834E-06,0.87890625,0,0
-2.3699414668954E-05,8.18846183392452E-06,0.87890625,0,0
-2.29276665777434E-05,1.10391483758576E-05,0.87890625,0,0
-2.31563790293876E-05,1.31789001898142E-05,0.87890625,0,0
-1.97455719899153E-05,1.18524749268545E-05,0.87890625,0,0
-2.77913277386688E-05,1.76164539880119E-05,0.87890625,0,0
-2.02511837414932E-05,1.37324805109529E-05,0.87890625,0,0
-2.5181332603097E-05,1.55125599121675E-05,0.87890625,0,0
-2.16031603486044E-05,1.24187317851465E-05,0.87890625,0,0
-2.4287528503919E-05,1.30497728605405E-05,0.87890625,0,0
-2.15606087294873E-05,1.22095761980745E-05,0.87890625,0,0
-2.2159818399814E-05,1.51104150063475E-05,0.87890625,0,0
-2.23902807192644E-05,1.51446683958056E-05,0.87890625,0,0
-2.37869353441056E-05,1.4670254131488E-05,0.87890625,0,0
-2.45801711571403E-05,1.47713453770848E-05,0.87890625,0,0
-2.40502959059086E-05,1.41195914693526E-05,0.87890625,0,0
-2.5343977540615E-05,1.50655578181613E-05,0.87890625,0,0
-2.47630741796456E-05,1.65716337505728E-05,0.87890625,0,0
-2.5123974410235E-05,1.97130375454435E-05,0.87890625,0,0
-2.26785177801503E-05,2.05419419216923E-05,0.87890625,0,0
-2.30301393457921E-05,2.15117997868219E-05,0.87890625,0,0
-2.21996961045079E-05,2.02052415261278E-05,0.87890625,0,0
-2.28491098823724E-05,1.89234815479722E-05,0.87890625,0,0
-2.16774442378664E-05,1.6475281881867E-05,0.87890625,0,0
-2.26248812396079E-05,1.63401455210987E-05,0.87890625,0,0
-2.1868894691579E-05,1.48200570038171E-05,0.87890625,0,0
-2.14632709685247E-05,1.20896875159815E-05,0.87890625,0,0
-2.08981164178113E-05,1.03678048617439E-05,0.87890625,0,0
-2.103547740262E-05,1.0168520930165E-05,0.87890625,0,0
-1.97576173377456E-05,1.09980028355494E-05,0.87890625,0,0
-1.97938643395901E-05,1.60246509040007E-05,0.87890625,0,0
-1.84037835424533E-05,1.865316517069E-05,0.87890625,0,0
-2.66242241195869E-05,2.91382748400792E-05,0.87890625,0,0
-1.95634420379065E-05,2.08650108106667E-05,0.87890625,0,0
-2.2563674065168E-05,1.82016101462068E-05,0.87890625,0,0
-1.93678115465445E-05,9.72025372902863E-06,0.87890625,0,0
-2.45360552071361E-05,8.65217316459166E-06,0.87890625,0,0
-2.56266757787671E-05,4.24329618908814E-06,0.87890625,0,0
-2.69151496468112E-05,2.44330976784113E-06,0.87890625,0,0
-2.58934160228819E-05,-3.4703472806541E-07,0.87890625,0,0
-2.57151477853768E-05,-8.50172511945857E-07,0.87890625,0,0
-2.42243640968809E-05,2.09728364097828E-06,0.87890625,0,0
-2.13163129956229E-05,5.30448096469627E-06,0.87890625,0,0
-2.15179516089847E-05,8.44739406602457E-06,0.87890625,0,0
-2.15409836528124E-05,9.04831722436938E-06,0.87890625,0,0
-2.31027661357075E-05,1.07846117316512E-05,0.87890625,0,0
-2.17906344914809E-05,1.05779099612846E-05,0.87890625,0,0
-2.12338763958542E-05,1.31127235363238E-05,0.87890625,0,0
-1.87189652933739E-05,1.50403693623957E-05,0.87890625,0,0
-1.88681497093057E-05,1.76099983946187E-05,0.87890625,0,0
-1.82603907887824E-05,1.68765673151938E-05,0.87890625,0,0
-1.85474109457573E-05,1.56308396981331E-05,0.87890625,0,0
-1.74345368577633E-05,1.18216921691783E-05,0.87890625,0,0
-1.83389474841533E-05,9.4896513473941E-06,0.87890625,0,0
-1.9447470549494E-05,9.51038691709982E-06,0.87890625,0,0
-2.15702748391777E-05,1.18886337077129E-05,0.87890625,0,0
-2.18209370359546E-05,1.38303857966093E-05,0.87890625,0,0
-2.04388870770345E-05,1.3983132703288E-05,0.87890625,0,0
-1.60823565238388E-05,1.1044770872104E-05,0.87890625,0,0
-2.37389449466718E-05,1.40785723488079E-05,0.87890625,0,0
-1.92614334082464E-05,8.40959000925068E-06,0.87890625,0,0
-2.30871119129006E-05,1.25036904137232E-05,0.87890625,0,0
-1.97525041585322E-05,1.18347506941063E-05,0.87890625,0,0
-2.28094559133751E-05,1.39810945256613E-05,0.87890625,0,0
-2.12731538340449E-05,1.39028024932486E-05,0.87890625,0,0
-2.15106701944023E-05,1.50400610436918E-05,0.87890625,0,0
-2.12668419408146E-05,1.54566587298177E-05,0.87890625,0,0
-2.1977219148539E-05,1.58450620801887E-05,0.87890625,0,0
-2.270072036481E-05,1.47648879647022E-05,0.87890625,0,0
-2.25278181460453E-05,1.25486358228954E-05,0.87890625,0,0
-2.36657633649884E-05,1.15665143312071E-05,0.87890625,0,0
-2.38264146901201E-05,1.00763045338681E-05,0.87890625,0,0
-2.54846836469369E-05,1.00447505246848E-05,0.87890625,0,0
-2.44589173234999E-05,8.10191249911441E-06,0.87890625,0,0
-2.43795802816749E-05,6.68203529130551E-06,0.87890625,0,0
-2.33793016377604E-05,5.62068908038782E-06,0.87890625,0,0
-2.5706458472996E-05,8.1054986367235E-06,0.87890625,0,0
-2.6296176656615E-05,9.35941352508962E-06,0.87890625,0,0
-2.56719795288518E-05,9.2046830104664E-06,0.87890625,0,0
-2.31724043260328E-05,7.87666340329451E-06,0.87890625,0,0
-2.2703492504661E-05,8.54120844451245E-06,0.87890625,0,0
-2.22652415686753E-05,1.01945661299396E-05,0.87890625,0,0
-2.21176451304927E-05,1.1900502613571E-05,0.87890625,0,0
-2.29728375416016E-05,1.2263562894077E-05,0.87890625,0,0
-2.49194454227109E-05,1.22203982755309E-05,0.87890625,0,0
-2.15024174394785E-05,1.0629734788381E-05,0.87890625,0,0
-3.12415140797384E-05,1.6004174540285E-05,0.87890625,0,0
-2.5135288524325E-05,1.27242110465886E-05,0.87890625,0,0
-3.19332903018221E-05,1.48048538903822E-05,0.87890625,0,0
-2.90987154585309E-05,1.27461753436364E-05,0.87890625,0,0
-3.26964473060798E-05,1.44197920235456E-05,0.87890625,0,0
-2.95181616820628E-05,1.36749404191505E-05,0.87890625,0,0
-3.00087594951037E-05,1.46110842251801E-05,0.87890625,0,0
-2.87034345092252E-05,1.43723955261521E-05,0.87890625,0,0
-2.86337472061859E-05,1.40035881486256E-05,0.87890625,0,0
-2.82759665424237E-05,1.36446606120444E-05,0.87890625,0,0
-2.59489170275629E-05,1.21425973702571E-05,0.87890625,0,0
-2.55458744504722E-05,1.06012748801732E-05,0.87890625,0,0
-2.45326500589726E-05,8.1424359450466E-06,0.87890625,0,0
-2.66581882897299E-05,8.19603337731678E-06,0.87890625,0,0
-2.60776923823869E-05,7.5764519351651E-06,0.87890625,0,0
-2.73870500677731E-05,7.13233202986885E-06,0.87890625,0,0
-2.64590580627555E-05,5.97744974584202E-06,0.87890625,0,0
-2.75329639407573E-05,6.66346113575855E-06,0.87890625,0,0
-2.6578658435028E-05,6.0865500017826E-06,0.87890625,0,0
-2.73283458227525E-05,5.94459743297193E-06,0.87890625,0,0
-2.64786522166105E-05,5.84618601351394E-06,0.87890625,0,0
-2.7140154998051E-05,5.89294495512149E-06,0.87890625,0,0
-2.66600509348791E-05,5.01581280332175E-06,0.87890625,0,0
-2.70150740107056E-05,4.97864903081791E-06,0.87890625,0,0
-2.73062760243192E-05,5.95491837884765E-06,0.87890625,0,0
-2.82474502455443E-05,7.13353074388579E-06,0.87890625,0,0
-2.35507068282459E-05,6.41502856524312E-06,0.87890625,0,0
-3.29549402522389E-05,9.34210856939899E-06,0.87890625,0,0
-2.43697322730441E-05,7.83565883466508E-06,0.87890625,0,0
-3.07188602164388E-05,1.08822005131515E-05,0.87890625,0,0
-2.56610146607272E-05,1.07687073978013E-05,0.87890625,0,0
-2.86853191937553E-05,1.07562837001751E-05,0.87890625,0,0
-2.58431227848632E-05,9.1265555965947E-06,0.87890625,0,0
-2.64769769273698E-05,1.06156476249453E-05,0.87890625,0,0
-2.4719880457269E-05,1.28375249914825E-05,0.87890625,0,0
-2.38304019148927E-05,1.41447699206765E-05,0.87890625,0,0
-2.40626541199163E-05,1.37135612021666E-05,0.87890625,0,0
-2.39499440795043E-05,1.33715338961338E-05,0.87890625,0,0
-2.55763370660134E-05,1.40936581374262E-05,0.87890625,0,0
-2.3819760826882E-05,1.29777918118634E-05,0.87890625,0,0
-2.44609891524306E-05,1.14304257294862E-05,0.87890625,0,0
-2.33372866205173E-05,9.64065930020297E-06,0.87890625,0,0
-2.46382933255518E-05,1.02744825198897E-05,0.87890625,0,0
-2.37675449170638E-05,1.12757443275768E-05,0.87890625,0,0
-2.58164272963768E-05,1.16353312478168E-05,0.87890625,0,0
-2.53566395258531E-05,9.49763671087567E-06,0.87890625,0,0
-2.60047327174107E-05,8.4343791968422E-06,0.87890625,0,0
-2.48787109740078E-05,9.10202379600378E-06,0.87890625,0,0
-2.46643267018953E-05,9.6755065897014E-06,0.87890625,0,0
-2.39001983572962E-05,8.64103913045255E-06,0.87890625,0,0
-2.29177803703351E-05,8.75030491442885E-06,0.87890625,0,0
-2.13199855352286E-05,9.89028922049329E-06,0.87890625,0,0
-2.21507307287538E-05,1.10914725155453E-05,0.87890625,0,0
-1.9636659999378E-05,9.25086533243302E-06,0.87890625,0,0
-2.86229660559911E-05,1.23772269944311E-05,0.87890625,0,0
-2.16565313166939E-05,7.99113058747025E-06,0.87890625,0,0
-2.54429905908182E-05,9.78541993390536E-06,0.87890625,0,0
-2.19192334043328E-05,7.24612573321792E-06,0.87890625,0,0
-2.55092090810649E-05,8.20444711280288E-06,0.87890625,0,0
-2.50558041443583E-05,6.22029256192036E-06,0.87890625,0,0
-2.64353220700286E-05,5.33178172190674E-06,0.87890625,0,0
-2.47649004450068E-05,5.49224614587729E-06,0.87890625,0,0
-2.45431383518735E-05,7.1645977186563E-06,0.87890625,0,0
-2.51640976784984E-05,8.0068030001712E-06,0.87890625,0,0
-2.44271359406412E-05,7.6305250331643E-06,0.87890625,0,0
-2.41558282141341E-05,8.62075739860302E-06,0.87890625,0,0
-2.26526499318425E-05,9.83983591140714E-06,0.87890625,0,0
-2.41023608396063E-05,1.17405725177377E-05,0.87890625,0,0
-2.32306520047132E-05,1.17253412099672E-05,0.87890625,0,0
-2.38667234953027E-05,1.24909856822342E-05,0.87890625,0,0
-2.27318705583457E-05,1.26933809951879E-05,0.87890625,0,0
-2.34195831581019E-05,1.43259831020259E-05,0.87890625,0,0
-2.27143082156545E-05,1.5226803952828E-05,0.87890625,0,0
-2.45178871409735E-05,1.58965449372772E-05,0.87890625,0,0
-2.48736105277203E-05,1.3852130905434E-05,0.87890625,0,0
-2.44916463998379E-05,1.11528715933673E-05,0.87890625,0,0
-2.1892270524404E-05,1.03565462268307E-05,0.87890625,0,0
-1.97952813323354E-05,1.28060137285502E-05,0.87890625,0,0
-1.8268412532052E-05,1.54135796037735E-05,0.87890625,0,0
-1.76766607182799E-05,1.6344090909115E-05,0.87890625,0,0
-1.37760207508109E-05,1.23860154417343E-05,0.87890625,0,0
-1.9783758034464E-05,1.49819788930472E-05,0.87890625,0,0
-1.59338433149969E-05,5.80672167416196E-06,0.87890625,0,0
-2.03705876629101E-05,4.28574821853545E-06,0.87890625,0,0
-1.83067950274562E-05,-3.59965611096413E-06,0.87890625,0,0
-2.11642054637196E-05,-5.26075245943503E-06,0.87890625,0,0
-2.17660017369781E-05,-6.17889054410625E-06,0.87890625,0,0
-2.47108600888168E-05,-1.77830872871709E-06,0.87890625,0,0
-2.54933074756991E-05,1.57556587510044E-06,0.87890625,0,0
-2.56396579061402E-05,3.82325833925279E-06,0.87890625,0,0
-2.52923491643742E-05,5.86295391258318E-06,0.87890625,0,0
-2.49397144216346E-05,6.46832313577761E-06,0.87890625,0,0
-2.55011182161979E-05,6.95526159688598E-06,0.87890625,0,0
-2.40903100348078E-05,6.61033618598594E-06,0.87890625,0,0
-2.29394590860466E-05,8.57983013702324E-06,0.87890625,0,0
-1.99434543901589E-05,9.24448249861598E-06,0.87890625,0,0
-1.99031874217326E-05,1.15911288958159E-05,0.87890625,0,0
-1.989035627048E-05,1.2979809071112E-05,0.87890625,0,0
-2.09943045774708E-05,1.50314181155409E-05,0.87890625,0,0
-1.98760953935562E-05,1.43307051985175E-05,0.87890625,0,0
-2.10741109185619E-05,1.30102789626108E-05,0.87890625,0,0
-2.32308175327489E-05,1.07979058157071E-05,0.87890625,0,0
-2.51175315497676E-05,1.20303002404398E-05,0.87890625,0,0
-2.47099269472528E-05,1.45454087032704E-05,0.87890625,0,0
-2.44118218688527E-05,1.59233040903928E-05,0.87890625,0,0
-2.39648070419207E-05,1.60664530994836E-05,0.87890625,0,0
-2.35549978242489E-05,1.70162838912802E-05,0.87890625,0,0
-1.81024024641374E-05,1.52444445120636E-05,0.87890625,0,0
-2.574371319497E-05,2.12820268643554E-05,0.87890625,0,0
-1.97356730495812E-05,1.53117598529207E-05,0.87890625,0,0
-2.48554588324623E-05,1.84405271284049E-05,0.87890625,0,0
-2.186230449297E-05,1.54119134094799E-05,0.87890625,0,0
-2.4624248908367E-05,1.82120602403302E-05,0.87890625,0,0
-2.2945618184167E-05,1.56732530740555E-05,0.87890625,0,0
-2.52328063652385E-05,1.66476820595562E-05,0.87890625,0,0
-2.40552653849591E-05,1.77526562765706E-05,0.87890625,0,0
-2.30883033509599E-05,1.77542169694789E-05,0.87890625,0,0
-2.34321651078062E-05,1.6759800928412E-05,0.87890625,0,0
-2.31259509746451E-05,1.49971510836622E-05,0.87890625,0,0
-2.38873162743403E-05,1.44980986078735E-05,0.87890625,0,0
-2.21741483983351E-05,1.39080493681831E-05,0.87890625,0,0
-2.27769360208185E-05,1.66575846378691E-05,0.87890625,0,0
-2.2972830265644E-05,1.75119148480007E-05,0.87890625,0,0
-2.57683968811762E-05,1.79383132490329E-05,0.87890625,0,0
-2.51606124948012E-05,1.51129243022297E-05,0.87890625,0,0
-2.49362528847996E-05,1.45174763019895E-05,0.87890625,0,0
-2.33522041526157E-05,1.40916163218208E-05,0.87890625,0,0
-2.35359530051937E-05,1.48809021993657E-05,0.87890625,0,0
-2.25692783715203E-05,1.27571129269199E-05,0.87890625,0,0
-2.35657153098146E-05,9.14121483219787E-06,0.87890625,0,0
-2.42093155975454E-05,5.24108236277243E-06,0.87890625,0,0
-2.47051357291639E-05,4.52580707133166E-06,0.87890625,0,0
-2.43132581090322E-05,3.14894168695901E-06,0.87890625,0,0
-2.34245198953431E-05,-1.57648071308358E-06,0.87890625,0,0
-1.82525745913154E-05,-4.71079010821995E-06,0.87890625,0,0
-2.71071712631965E-05,-6.16763782090857E-06,0.87890625,0,0
-2.19934845517855E-05,-7.42025463296159E-07,0.87890625,0,0
-2.57264018728165E-05,4.23005485572503E-06,0.87890625,0,0
-2.07396969926776E-05,9.95244408841245E-06,0.87890625,0,0
-2.28201224672375E-05,9.74693011812633E-06,0.87890625,0,0
-2.15762611333048E-05,8.74816214491148E-06,0.87890625,0,0
-2.38435732171638E-05,7.60637249186402E-06,0.87890625,0,0
-2.399335426162E-05,7.78920457378263E-06,0.87890625,0,0
-2.41090347117279E-05,8.27757776278304E-06,0.87890625,0,0
-2.36818632401992E-05,8.69680843607057E-06,0.87890625,0,0
-2.23281695070909E-05,9.54004644881934E-06,0.87890625,0,0
-2.28897533816053E-05,1.03659631349728E-05,0.87890625,0,0
-2.30452169489581E-05,1.1297381206532E-05,0.87890625,0,0
-2.63226029346697E-05,1.15905349957757E-05,0.87890625,0,0
-2.72727629635483E-05,1.25214528452489E-05,0.87890625,0,0
-2.73680343525484E-05,1.32587465486722E-05,0.87890625,0,0
-2.31476660701446E-05,1.38440100272419E-05,0.87890625,0,0
-2.13885814446257E-05,1.39867233883706E-05,0.87890625,0,0
-2.06431213882752E-05,1.55258094309829E-05,0.87890625,0,0
-2.25918502110289E-05,1.52884549606824E-05,0.87890625,0,0
-2.25888161367038E-05,1.28191895782948E-05,0.87890625,0,0
-2.33508544624783E-05,1.05759245343506E-05,0.87890625,0,0
-2.29785127885407E-05,1.05702047221712E-05,0.87890625,0,0
-2.28075841732789E-05,1.07040586954099E-05,0.87890625,0,0
-2.27279306272976E-05,1.18471261885134E-05,0.87890625,0,0
-2.27207256102702E-05,1.40653673952329E-05,0.87890625,0,0
-1.68754741025623E-05,1.35798500195961E-05,0.87890625,0,0
-2.22947383008432E-05,1.8989272575709E-05,0.87890625,0,0
-1.57978101924527E-05,1.2628495824174E-05,0.87890625,0,0
-2.10698726732517E-05,1.45782569234143E-05,0.87890625,0,0
-1.71274496096885E-05,1.00312636277522E-05,0.87890625,0,0
-2.04092539206613E-05,1.07791938717128E-05,0.87890625,0,0
-2.02753744815709E-05,8.58843759488082E-06,0.87890625,0,0
-2.37607146118535E-05,8.50753804115811E-06,0.87890625,0,0
-2.54476308327867E-05,8.68712504598079E-06,0.87890625,0,0
-2.63126494246535E-05,1.05484787127352E-05,0.87890625,0,0
-2.67279883701121E-05,1.28797946672421E-05,0.87890625,0,0
-2.70188884314848E-05,1.32122495415388E-05,0.87890625,0,0
-2.84514808299718E-05,1.38712657644646E-05,0.87890625,0,0
-2.65686448983615E-05,1.33323273985297E-05,0.87890625,0,0
-2.52162153628888E-05,1.49379930007854E-05,0.87890625,0,0
-2.27658892981708E-05,1.45715184771689E-05,0.87890625,0,0
-2.48859341809293E-05,1.48400395119097E-05,0.87890625,0,0
-2.69145002675941E-05,1.40193287734292E-05,0.87890625,0,0
-2.94514429697301E-05,1.40499932967941E-05,0.87890625,0,0
-2.76039954769658E-05,1.12340385385323E-05,0.87890625,0,0
-2.6684125259635E-05,8.45252361614257E-06,0.87890625,0,0
-2.65308681264287E-05,5.65380014450056E-06,0.87890625,0,0
-2.781749026326E-05,4.22205130234943E-06,0.87890625,0,0
-2.65611306531355E-05,1.66675056334498E-06,0.87890625,0,0
-2.6358145987615E-05,-4.52599323352842E-07,0.87890625,0,0
-2.69801239483058E-05,8.81536720953591E-07,0.87890625,0,0
-2.67253817582969E-05,5.40005021321122E-06,0.87890625,0,0
-2.08272304007551E-05,9.54943334363634E-06,0.87890625,0,0
-2.97434780804906E-05,1.56284295371734E-05,0.87890625,0,0
-2.38908451137831E-05,1.28953488456318E-05,0.87890625,0,0
-3.00619885820197E-05,1.33757803268963E-05,0.87890625,0,0
-2.41000507230638E-05,1.09895863715792E-05,0.87890625,0,0
-2.52674180956092E-05,1.1922591511393E-05,0.87890625,0,0
-2.31401827477384E-05,1.17742474685656E-05,0.87890625,0,0
-2.59213247773005E-05,1.28195033539669E-05,0.87890625,0,0
-2.56833300227299E-05,1.22399133033468E-05,0.87890625,0,0
-2.54772130574565E-05,1.14439435492386E-05,0.87890625,0,0
-2.61420664173784E-05,1.11380813905271E-05,0.87890625,0,0
-2.65128874161746E-05,9.88094598142197E-06,0.87890625,0,0
-2.87405382550787E-05,9.39682195166824E-06,0.87890625,0,0
-2.84458437818103E-05,8.58226758282399E-06,0.87890625,0,0
-2.91329943138408E-05,8.84489691088675E-06,0.87890625,0,0
-2.680319994397E-05,8.22089441498974E-06,0.87890625,0,0
-2.75680777122034E-05,9.04984699445777E-06,0.87890625,0,0
-2.63637430180097E-05,9.36951892072102E-06,0.87890625,0,0
-2.66464012383949E-05,1.04117889350164E-05,0.87890625,0,0
-2.46473700826755E-05,9.99354051600676E-06,0.87890625,0,0
-2.47245716309408E-05,8.17364798422204E-06,0.87890625,0,0
-2.39934124692809E-05,5.57941712031607E-06,0.87890625,0,0
-2.35391144087771E-05,5.52869778402965E-06,0.87890625,0,0
-2.21224890992744E-05,7.70681799622253E-06,0.87890625,0,0
-2.19820667552995E-05,9.59444423642708E-06,0.87890625,0,0
-2.18881723412778E-05,9.25517269934062E-06,0.87890625,0,0
-2.20197416638257E-05,9.04239368537674E-06,0.87890625,0,0
-1.77228412212571E-05,9.67056712397607E-06,0.87890625,0,0
-2.55281956924591E-05,1.54438312165439E-05,0.87890625,0,0
-2.090751331707E-05,1.33388293761527E-05,0.87890625,0,0
-2.72062989097321E-05,1.60269446496386E-05,0.87890625,0,0
-2.40895769820781E-05,1.50018313433975E-05,0.87890625,0,0
-2.59545086009894E-05,1.50347786984639E-05,0.87890625,0,0
-2.4173537894967E-05,1.26100940178731E-05,0.87890625,0,0
-2.60416691162391E-05,1.36933267640416E-05,0.87890625,0,0
-2.62035646301229E-05,1.42189055623021E-05,0.87890625,0,0
-2.62709872913547E-05,1.41755872391514E-05,0.87890625,0,0
-2.58769814536208E-05,1.42457529364037E-05,0.87890625,0,0
-2.45841220021248E-05,1.34068468469195E-05,0.87890625,0,0
-2.44085076701595E-05,1.40844322231715E-05,0.87890625,0,0
-2.20616257138317E-05,1.43710331030888E-05,0.87890625,0,0
-2.22846756514627E-05,1.45116237035836E-05,0.87890625,0,0
-2.16662174352678E-05,1.31251244965824E-05,0.87890625,0,0
-2.2731817807653E-05,1.28376468637725E-05,0.87890625,0,0
-2.11706355912611E-05,1.31206943478901E-05,0.87890625,0,0
-2.13929452002048E-05,1.54709086928051E-05,0.87890625,0,0
-2.09070803975919E-05,1.59857663675211E-05,0.87890625,0,0
-2.24598497879924E-05,1.54979024955537E-05,0.87890625,0,0
-2.24828472710215E-05,1.35938853418338E-05,0.87890625,0,0
-2.30907025979832E-05,1.05292992884642E-05,0.87890625,0,0
-2.35946754401084E-05,7.68681002227822E-06,0.87890625,0,0
-2.46646322921151E-05,8.01386704551987E-06,0.87890625,0,0
-2.46954132308019E-05,7.59841987019172E-06,0.87890625,0,0
-2.43208360188873E-05,4.6703662519576E-06,0.87890625,0,0
-1.98814141185721E-05,2.05897822525003E-06,0.87890625,0,0
-2.86437862087041E-05,2.88675869342114E-06,0.87890625,0,0
-2.2362990421243E-05,3.23962785842014E-06,0.87890625,0,0
-2.85978549072752E-05,4.73477575724246E-06,0.87890625,0,0
-2.63005276792683E-05,4.43029375674087E-06,1.0546875,0,0
-2.95109184662579E-05,5.64890115128946E-06,1.0546875,0,0
-2.62919475062517E-05,7.14074667484965E-06,1.0546875,0,0
-2.51601431955351E-05,8.52869470691076E-06,1.0546875,0,0
-2.23358474613633E-05,8.89264629222453E-06,1.0546875,0,0
-2.16603602893883E-05,9.34985382627929E-06,1.0546875,0,0
-2.20613146666437E-05,9.257730198442E-06,1.0546875,0,0
-2.08198816835647E-05,8.18013631942449E-06,1.0546875,0,0
-2.0588227926055E-05,7.30797546566464E-06,1.0546875,0,0
-2.01878956431756E-05,7.24007486496703E-06,1.0546875,0,0
-2.26202428166289E-05,8.99941551324446E-06,1.0546875,0,0
-2.20996644202387E-05,1.12993811853812E-05,1.0546875,0,0
-2.34291546803433E-05,1.31180267999298E-05,1.0546875,0,0
-2.43173399212537E-05,1.33236881083576E-05,1.0546875,0,0
-2.78257321042474E-05,1.39572539410437E-05,1.0546875,0,0
-2.85088390228339E-05,1.61125972226728E-05,1.0546875,0,0
-3.04170480376342E-05,1.86602665053215E-05,1.0546875,0,0
-3.14451790472958E-05,1.88764861377422E-05,1.0546875,0,0
-3.2553532946622E-05,1.73983298736857E-05,1.0546875,0,0
-3.07964837702457E-05,1.51966487464961E-05,1.0546875,0,0
-2.99104540317785E-05,1.42824728754931E-05,1.0546875,0,0
-2.93402626994066E-05,1.48388025991153E-05,1.0546875,0,0
-2.81674838333856E-05,1.44188006743207E-05,1.0546875,0,0
-2.13769526453689E-05,1.18303451017709E-05,1.0546875,0,0
-2.82753662759205E-05,1.7506696167402E-05,1.0546875,0,0
-1.95987377082929E-05,1.39003495860379E-05,1.0546875,0,0
-2.63964393525384E-05,1.61911757459166E-05,1.0546875,0,0
-2.28195422096178E-05,1.22322990137036E-05,1.0546875,0,0
-2.6212765078526E-05,1.31319911815808E-05,1.0546875,0,0
-2.27525670197792E-05,1.33959656523075E-05,1.0546875,0,0
-2.22852831939235E-05,1.57920985657256E-05,1.0546875,0,0
-2.07209886866622E-05,1.58405946422135E-05,1.0546875,0,0
-2.20549991354346E-05,1.52780212374637E-05,1.0546875,0,0
-2.36510750255547E-05,1.34848996822257E-05,1.0546875,0,0
-2.22562775888946E-05,1.0219550858892E-05,1.0546875,0,0
-2.16375865420559E-05,8.52274297358235E-06,1.0546875,0,0
-2.01736547751352E-05,7.50160143070389E-06,1.0546875,0,0
-2.24857940338552E-05,8.1974303611787E-06,1.0546875,0,0
-2.25738986046053E-05,8.00030193204293E-06,1.0546875,0,0
-2.40584777202457E-05,9.49377499637194E-06,1.0546875,0,0
-2.22001344809541E-05,9.28931058297167E-06,1.0546875,0,0
-2.25662915909197E-05,9.68621043284656E-06,1.0546875,0,0
-2.10488706215983E-05,8.59078409121139E-06,1.0546875,0,0
-2.10246380447643E-05,7.8717321230215E-06,1.0546875,0,0
-1.87536079465644E-05,6.46084708932904E-06,1.0546875,0,0
-1.82643416337669E-05,6.91373998051859E-06,1.0546875,0,0
-1.8113705664291E-05,8.4315042840899E-06,1.0546875,0,0
-1.87605146493297E-05,1.00300530903041E-05,1.0546875,0,0
-1.88807880476816E-05,1.09156162579893E-05,1.0546875,0,0
-1.89866550499573E-05,1.32638406284968E-05,1.0546875,0,0
-1.50073474287638E-05,1.19830901894602E-05,1.0546875,0,0
-2.11242549994495E-05,1.61059615493286E-05,1.0546875,0,0
-1.68222395586781E-05,9.36855394684244E-06,1.0546875,0,0
-2.28480730584124E-05,9.76420687948121E-06,1.0546875,0,0
-2.08884121093433E-05,7.68726749811322E-06,1.0546875,0,0
-2.30880395974964E-05,1.08438516690512E-05,1.0546875,0,0
-2.26670545089291E-05,8.93999549589353E-06,1.0546875,0,0
-2.46371801040368E-05,8.58999010233674E-06,1.0546875,0,0
-2.49782187893288E-05,7.944370736368E-06,1.0546875,0,0
-2.59353582805488E-05,8.77257843967527E-06,1.0546875,0,0
-2.62262674368685E-05,9.90628268482396E-06,1.0546875,0,0
-2.42082769545959E-05,9.78006482910132E-06,1.0546875,0,0
-2.34019917115802E-05,1.0008495337388E-05,1.0546875,0,0
-2.2310581698548E-05,9.63189359026728E-06,1.0546875,0,0
-2.35928710026201E-05,1.05712142612902E-05,1.0546875,0,0
-2.33332448260626E-05,1.00213628684287E-05,1.0546875,0,0
-2.47569478233345E-05,1.13391333798063E-05,1.0546875,0,0
-2.452113039908E-05,1.19525248010177E-05,1.0546875,0,0
-2.5238898160751E-05,1.38288078233018E-05,1.0546875,0,0
-2.4178856619983E-05,1.43266170198331E-05,1.0546875,0,0
-2.353898344154E-05,1.52521333802724E-05,1.0546875,0,0
-2.14938027056633E-05,1.37860815812019E-05,1.0546875,0,0
-2.1275831386447E-05,1.21174298328697E-05,1.0546875,0,0
-2.22635080717737E-05,1.11787312562228E-05,1.0546875,0,0
-2.35932620853418E-05,1.19256283142022E-05,1.0546875,0,0
-2.32601960306056E-05,1.19149599413504E-05,1.0546875,0,0
-2.2606162019656E-05,1.15938055387232E-05,1.0546875,0,0
-1.94697440747404E-05,8.86299494595733E-06,1.0546875,0,0
-2.84599282167619E-05,1.07231662695995E-05,1.0546875,0,0
-2.17326214624336E-05,5.03116416439298E-06,1.0546875,0,0
-2.59075404756004E-05,6.26278188065044E-06,1.0546875,0,0
-2.25300827878527E-05,5.6222438615805E-06,1.0546875,0,0
-2.56508956226753E-05,9.15676719159819E-06,1.0546875,0,0
-2.31969479500549E-05,9.35120988287963E-06,1.0546875,0,0
-2.23237020691158E-05,1.09374459498213E-05,1.0546875,0,0
-1.95584889297606E-05,1.19949145300779E-05,1.0546875,0,0
-2.02806695597246E-05,1.20484892249806E-05,1.0546875,0,0
-2.28159333346412E-05,9.63788534136256E-06,1.0546875,0,0
-2.38064258155646E-05,7.19575564289698E-06,1.0546875,0,0
-2.54253973253071E-05,7.42203656045604E-06,1.0546875,0,0
-2.52710524364375E-05,7.57143607188482E-06,1.0546875,0,0
-2.66004390141461E-05,9.15399141376838E-06,1.0546875,0,0
-2.4759041480138E-05,1.04381233541062E-05,1.0546875,0,0
-2.4976168788271E-05,1.30232619994786E-05,1.0546875,0,0
-2.42628357227659E-05,1.33385146909859E-05,1.0546875,0,0
-2.62134453805629E-05,1.2608615179488E-05,1.0546875,0,0
-2.59102671407163E-05,1.04723239928717E-05,1.0546875,0,0
-2.62807461695047E-05,1.11951494545792E-05,1.0546875,0,0
-2.55340291914763E-05,1.32863679027651E-05,1.0546875,0,0
-2.63344481936656E-05,1.61103216669289E-05,1.0546875,0,0
-2.61710192717146E-05,1.71906776813557E-05,1.0546875,0,0
-2.58551954175346E-05,1.62528776854742E-05,1.0546875,0,0
-2.60173674178077E-05,1.31978813442402E-05,1.0546875,0,0
-2.79117502941517E-05,8.37038351164665E-06,1.0546875,0,0
-2.40952522290172E-05,1.24228324693831E-06,1.0546875,0,0
-3.42541716236155E-05,-6.39260008483689E-07,1.0546875,0,0
-2.45858027483337E-05,-1.59120622811315E-06,1.0546875,0,0
-2.97455553663895E-05,2.86054523712664E-06,1.0546875,0,0
-2.50653120019706E-05,8.48860872793011E-06,1.0546875,0,0
-2.84082343569025E-05,1.45357389556011E-05,1.0546875,0,0
-2.62295689026359E-05,1.54764766193694E-05,1.0546875,0,0
-2.64875834545819E-05,1.37007891680696E-05,1.0546875,0,0
-2.32377587963128E-05,1.15916845970787E-05,1.0546875,0,0
-2.14663086808287E-05,1.0802117685671E-05,1.0546875,0,0
-2.20289348362712E-05,1.09326456367853E-05,1.0546875,0,0
-2.29918314289534E-05,1.08975136754452E-05,1.0546875,0,0
-2.46414474531775E-05,9.24816595215816E-06,1.0546875,0,0
-2.30233836191474E-05,5.43828036825289E-06,1.0546875,0,0
-2.34414364967961E-05,2.09103859560855E-06,1.0546875,0,0
-2.08964484045282E-05,1.36434016440035E-06,1.0546875,0,0
-2.10066718864255E-05,4.04275715482072E-06,1.0546875,0,0
-1.94038439076394E-05,8.16110605228459E-06,1.0546875,0,0
-2.10105117730564E-05,1.18849811769906E-05,1.0546875,0,0
-2.08708406717051E-05,1.28678902910906E-05,1.0546875,0,0
-2.2534641175298E-05,1.30462804008857E-05,1.0546875,0,0
-2.25639414566103E-05,1.32434279294102E-05,1.0546875,0,0
-2.28064054681454E-05,1.36468015625724E-05,1.0546875,0,0
-2.12532158911927E-05,1.37035394800478E-05,1.0546875,0,0
-2.05963915504981E-05,1.35563714138698E-05,1.0546875,0,0
-2.11757342185592E-05,1.27624380183988E-05,1.0546875,0,0
-2.31655412790133E-05,1.33367857415578E-05,1.0546875,0,0
-1.92197858268628E-05,1.18207908599288E-05,1.0546875,0,0
-2.59469088632613E-05,1.79123671841808E-05,1.0546875,0,0
-1.75190434674732E-05,1.40810016091564E-05,1.0546875,0,0
-2.24106188397855E-05,1.57234117068583E-05,1.0546875,0,0
-2.05990763788577E-05,1.33788134917268E-05,1.0546875,0,0
-2.52558274951298E-05,1.69828017533291E-05,1.0546875,0,0
-2.33271766774124E-05,1.5749188605696E-05,1.0546875,0,0
-2.46256495302077E-05,1.37652868943405E-05,1.0546875,0,0
-2.4796927391435E-05,1.17831223178655E-05,1.0546875,0,0
-2.52942882070784E-05,1.18315883810283E-05,1.0546875,0,0
-2.54040478466777E-05,1.28282690639026E-05,1.0546875,0,0
-2.39891687670024E-05,1.38892555696657E-05,1.0546875,0,0
-2.38092234212672E-05,1.58027141878847E-05,1.0546875,0,0
-2.2275769879343E-05,1.59956980496645E-05,1.0546875,0,0
-2.28369463002309E-05,1.60558429342927E-05,1.0546875,0,0
-2.15154796023853E-05,1.40619786179741E-05,1.0546875,0,0
-2.37816566368565E-05,1.32532441057265E-05,1.0546875,0,0
-2.58776399277849E-05,1.19998912850861E-05,1.0546875,0,0
-2.93733264697948E-05,1.2393717042869E-05,1.0546875,0,0
-2.86051326838788E-05,1.18178431876004E-05,1.0546875,0,0
-2.80077183560934E-05,1.24500120364246E-05,1.0546875,0,0
-2.70563486992614E-05,1.24817315736436E-05,1.0546875,0,0
-2.91222095256671E-05,1.2591664926731E-05,1.0546875,0,0
-3.00762003462296E-05,1.08194399217609E-05,1.0546875,0,0
-2.94757955998648E-05,7.60671355237719E-06,1.0546875,0,0
-2.77686540357536E-05,3.06700644614466E-06,1.0546875,0,0
-2.74416470347205E-05,-1.21152061183238E-06,1.0546875,0,0
-2.28787866944913E-05,-1.87087891845295E-06,1.0546875,0,0
-3.26353438140359E-05,-3.66660128747753E-06,1.0546875,0,0
-2.45965493377298E-05,-4.88196610604064E-06,1.0546875,0,0
-2.94466590275988E-05,-5.06885044160299E-06,1.0546875,0,0
-2.26058618864045E-05,-1.49057905218797E-06,1.0546875,0,0
-2.33586488320725E-05,1.18613513677701E-06,1.0546875,0,0
-1.92812440218404E-05,2.94541723633301E-06,1.0546875,0,0
-1.96682285604766E-05,3.32265858560277E-06,1.0546875,0,0
-1.93768937606364E-05,5.33478532815934E-06,1.0546875,0,0
-2.08471919904696E-05,7.54519942347542E-06,1.0546875,0,0
-2.2305244783638E-05,8.30304816190619E-06,1.0546875,0,0
-2.19736557482975E-05,7.75840726419119E-06,1.0546875,0,0
-2.31004669331014E-05,6.86508474245784E-06,1.0546875,0,0
-2.22797370952321E-05,7.45324086892651E-06,1.0546875,0,0
-2.41054749494651E-05,1.00520364867407E-05,1.0546875,0,0
-2.36719261010876E-05,1.39128605951555E-05,1.0546875,0,0
-2.61431941908086E-05,1.65888523042668E-05,1.0546875,0,0
-2.67801024165237E-05,1.73779026226839E-05,1.0546875,0,0
-2.82693581539206E-05,1.6442381820525E-05,1.0546875,0,0
-2.52256941166706E-05,1.5347641237895E-05,1.0546875,0,0
-2.35986699408386E-05,1.288065504923E-05,1.0546875,0,0
-2.19744524656562E-05,1.05710996649577E-05,1.0546875,0,0
-2.22947746806312E-05,9.62499780143844E-06,1.0546875,0,0
-2.22238249989459E-05,8.3941604316351E-06,1.0546875,0,0
-2.33053997362731E-05,7.6796668508905E-06,1.0546875,0,0
-2.30051646212814E-05,8.6178224592004E-06,1.0546875,0,0
-2.17466676986078E-05,9.85989299806533E-06,1.0546875,0,0
-1.73167281900533E-05,8.81894993653987E-06,1.0546875,0,0
-2.50766042881878E-05,1.49782026710454E-05,1.0546875,0,0
-1.92665756912902E-05,1.55196394189261E-05,1.0546875,0,0
-2.33917653531535E-05,2.03791387320962E-05,1.0546875,0,0
-2.00847644009627E-05,1.91680228454061E-05,1.0546875,0,0
-2.08010023925453E-05,1.73361331690103E-05,1.0546875,0,0
-1.64098182722228E-05,1.35386226247647E-05,1.0546875,0,0
-1.66002864716575E-05,1.39831854539807E-05,1.0546875,0,0
-1.6771295122453E-05,1.45351596074761E-05,1.0546875,0,0
-1.79707985807909E-05,1.53050423250534E-05,1.0546875,0,0
-1.88798985618632E-05,1.5363841157523E-05,1.0546875,0,0
-1.86064662557328E-05,1.41255804919638E-05,1.0546875,0,0
-2.01824586838484E-05,1.40787724376423E-05,1.0546875,0,0
-2.04869811568642E-05,1.40641996040358E-05,1.0546875,0,0
-2.27370637730928E-05,1.39567946462194E-05,1.0546875,0,0
-2.2817577701062E-05,1.20705180961522E-05,1.0546875,0,0
-2.49290314968675E-05,1.12766201709746E-05,1.0546875,0,0
-2.55557515629334E-05,1.05311764855287E-05,1.0546875,0,0
-2.66427523456514E-05,1.06434945337242E-05,1.0546875,0,0
-2.4639533876325E-05,1.02002459243522E-05,1.0546875,0,0
-2.31526282732375E-05,1.02978747236193E-05,1.0546875,0,0
-2.16761400224641E-05,8.81131654750789E-06,1.0546875,0,0
-2.34371691476554E-05,7.69759753893595E-06,1.0546875,0,0
-2.57124465861125E-05,6.53419147056411E-06,1.0546875,0,0
-2.74657395493705E-05,6.34360412732349E-06,1.0546875,0,0
-2.67983596131671E-05,7.43801274438738E-06,1.0546875,0,0
-2.59629596257582E-05,8.82226868270664E-06,1.0546875,0,0
-2.16486350836931E-05,7.35601997803315E-06,1.0546875,0,0
-3.2083236874314E-05,1.00508877949324E-05,1.0546875,0,0
-2.68782496277709E-05,8.40884058561642E-06,1.0546875,0,0
-3.2708172511775E-05,1.32762215798721E-05,1.0546875,0,0
-2.69204319920391E-05,1.3230001059128E-05,1.0546875,0,0
-2.91533069685102E-05,1.36426324388594E-05,1.0546875,0,0
-2.73738860414596E-05,1.1324660590617E-05,1.0546875,0,0
-2.87692946585594E-05,1.03402808235842E-05,1.0546875,0,0
-2.68206676992122E-05,9.01553175935987E-06,1.0546875,0,0
-2.66181341430638E-05,7.99212557467399E-06,1.0546875,0,0
-2.71606077149045E-05,8.37998413771857E-06,1.0546875,0,0
-2.58357413258636E-05,9.20986167329829E-06,1.0546875,0,0
-2.64475966105238E-05,1.08218564491835E-05,1.0546875,0,0
-2.55819668382173E-05,1.09407428681152E-05,1.0546875,0,0
-2.62235371337738E-05,1.19763772090664E-05,1.0546875,0,0
-2.28053067985456E-05,1.22990786621813E-05,1.0546875,0,0
-2.16314892895753E-05,1.21360844786977E-05,1.0546875,0,0
-2.0169520212221E-05,1.0589689736662E-05,1.0546875,0,0
-2.25601306738099E-05,1.0431762348162E-05,1.0546875,0,0
-2.36108699027682E-05,1.08768372228951E-05,1.0546875,0,0
-2.65669768850785E-05,1.35969003167702E-05,1.0546875,0,0
-2.73118930635974E-05,1.65847068274161E-05,1.0546875,0,0
-2.72134693659609E-05,1.7976095477934E-05,1.0546875,0,0
-2.4574404960731E-05,1.74003125721356E-05,1.0546875,0,0
-2.38473130593775E-05,1.58647308126092E-05,1.0546875,0,0
-2.4657996618771E-05,1.4172599549056E-05,1.0546875,0,0
-2.49429340328788E-05,1.40209258461255E-05,1.0546875,0,0
-2.01577877305681E-05,1.2386135495035E-05,1.0546875,0,0
-2.92905660899123E-05,1.77437523234403E-05,1.0546875,0,0
-2.30421683227178E-05,1.22188166642445E-05,1.0546875,0,0
-2.71976714429911E-05,1.19879359772312E-05,1.0546875,0,0
-2.22926355490927E-05,8.42879489937332E-06,1.0546875,0,0
-2.57302635873202E-05,1.23520867418847E-05,1.0546875,0,0
-2.32501024584053E-05,1.27863913803594E-05,1.0546875,0,0
-2.40266235778108E-05,1.39920521178283E-05,1.0546875,0,0
-2.38644624914741E-05,1.39293870233814E-05,1.0546875,0,0
-2.48019987338921E-05,1.48314275065786E-05,1.7578125,0,0
-2.66032111539971E-05,1.6350108126062E-05,1.7578125,0,0
-2.69580032181693E-05,1.8581333279144E-05,1.7578125,0,0
-2.7721376682166E-05,2.01371331058908E-05,1.7578125,0,0
-2.51668079727096E-05,1.75600325746927E-05,1.7578125,0,0
-2.47169537033187E-05,1.59388655447401E-05,1.7578125,0,0
-2.36430278164335E-05,1.58506154548377E-05,1.7578125,0,0
-2.57811752817361E-05,1.86305533134146E-05,1.7578125,0,0
-2.57578703894978E-05,1.61561401910149E-05,1.7578125,0,0
-2.67431205429602E-05,1.17919062176952E-05,1.7578125,0,0
-2.53520065598423E-05,8.99827773537254E-06,1.7578125,0,0
-2.63830534095177E-05,9.48422984947683E-06,1.7578125,0,0
-2.74559715762734E-05,7.52970163375721E-06,1.7578125,0,0
-2.87392795144115E-05,4.65824268758297E-06,1.7578125,0,0
-2.73840651061619E-05,-2.44504462898476E-06,1.7578125,0,0
-2.65404560195748E-05,-1.38558689286583E-05,1.7578125,0,0
-2.68807907559676E-05,-2.27114614972379E-05,1.7578125,0,0
-2.73915920843137E-05,-2.02898863790324E-05,1.7578125,0,0
-2.22014350583777E-05,-4.95076164952479E-06,1.7578125,0,0
-3.10069008264691E-05,2.47959815169452E-06,1.7578125,0,0
-2.227526056231E-05,1.29368372654426E-05,1.7578125,0,0
-2.70766049652593E-05,1.10318560473388E-05,1.7578125,0,0
-2.2746791728423E-05,1.45035728564835E-05,1.7578125,0,0
-2.61562800005777E-05,1.36317803480779E-05,1.7578125,0,0
-2.22327271330869E-05,1.68397127708886E-05,1.7578125,0,0
-2.16814933082787E-05,1.74604101630393E-05,1.7578125,0,0
-2.04656062123831E-05,1.60038925969275E-05,1.7578125,0,0
-2.07513421628391E-05,1.27801922644721E-05,1.7578125,0,0
-2.16117950913031E-05,1.04937807918759E-05,1.7578125,0,0
-2.22117178054759E-05,9.99292569758836E-06,1.7578125,0,0
-2.49659588007489E-05,1.00405886769295E-05,1.7578125,0,0
-2.46084073296515E-05,1.20917338790605E-05,1.7578125,0,0
-2.4778937586234E-05,1.29852578538703E-05,1.7578125,0,0
-2.22588896576781E-05,1.41324280775734E-05,1.7578125,0,0
-2.32129787036683E-05,1.42894969030749E-05,1.7578125,0,0
-2.17293054447509E-05,1.57188496814342E-05,1.7578125,0,0
-2.26412994379643E-05,1.57700706040487E-05,1.7578125,0,0
-2.19939720409457E-05,1.62500273290789E-05,1.7578125,0,0
-2.19641387957381E-05,1.4894926607667E-05,1.7578125,0,0
-1.99649748537922E-05,1.42075177791412E-05,1.7578125,0,0
-2.00551057787379E-05,1.43099468914443E-05,1.7578125,0,0
-2.06021541089285E-05,1.61427724378882E-05,1.7578125,0,0
-2.18292116187513E-05,1.78265509021003E-05,1.7578125,0,0
-2.22813341679284E-05,1.89616348507116E-05,1.7578125,0,0
-2.1864067093702E-05,1.86942252184963E-05,1.7578125,0,0
-1.63687091117026E-05,1.38190916914027E-05,1.7578125,0,0
-2.33234186453046E-05,1.86237812158652E-05,1.7578125,0,0
-1.91832641576184E-05,1.35112686621142E-05,1.7578125,0,0
-2.37965869018808E-05,1.84272466867696E-05,1.7578125,0,0
-1.8685997929424E-05,1.48815615830244E-05,1.7578125,0,0
-2.0111247067689E-05,1.59193859872175E-05,1.7578125,0,0
-1.97090339497663E-05,1.30697089844034E-05,1.7578125,0,0
-2.27725467993878E-05,1.17462413982139E-05,1.7578125,0,0
-2.44127295445651E-05,8.60051477502566E-06,1.7578125,0,0
-2.59236057900125E-05,7.31187719793525E-06,1.7578125,0,0
-2.53750949923415E-05,6.75219234835822E-06,1.7578125,0,0
-2.36351170315174E-05,6.20760829406208E-06,1.7578125,0,0
-2.35542011068901E-05,7.63511980039766E-06,1.7578125,0,0
-2.24907307710964E-05,8.27126859803684E-06,1.7578125,0,0
-2.35571569646709E-05,8.9680443124962E-06,1.7578125,0,0
-2.31906069529941E-05,7.25162362869014E-06,1.7578125,0,0
-2.46829386014724E-05,8.57781196828E-06,1.7578125,0,0
-2.44108850893099E-05,8.71290285431314E-06,1.7578125,0,0
-2.53613216045778E-05,8.84165729075903E-06,1.7578125,0,0
-2.33602113439702E-05,6.98878557159333E-06,1.7578125,0,0
-2.25701387535082E-05,7.41830626793671E-06,1.7578125,0,0
-2.13691109820502E-05,6.98852045388776E-06,1.7578125,0,0
-2.08598030440044E-05,7.10292079020292E-06,1.7578125,0,0
-2.00636932277121E-05,7.08948346073157E-06,1.7578125,0,0
-2.19920311792521E-05,7.7470249379985E-06,1.7578125,0,0
-2.38193224504357E-05,8.70262829266721E-06,1.7578125,0,0
-2.32202346523991E-05,9.61843397817574E-06,1.7578125,0,0
-1.82567346200813E-05,7.51346897231997E-06,1.7578125,0,0
-2.67065661319066E-05,9.82795336312847E-06,1.7578125,0,0
-2.10489015444182E-05,7.75264197727665E-06,1.7578125,0,0
-2.51882502197986E-05,1.22471292343107E-05,1.7578125,0,0
-2.08448855119059E-05,1.09513339339173E-05,1.7578125,0,0
-2.19609974010382E-05,9.39805886446266E-06,1.7578125,0,0
-1.86354700417724E-05,7.84887652116595E-06,1.7578125,0,0
-1.94528583961073E-05,9.18065416044556E-06,1.7578125,0,0
-2.08430610655341E-05,8.85288136487361E-06,1.7578125,0,0
-2.3219981812872E-05,8.78419541550102E-06,1.7578125,0,0
-2.43509784922935E-05,9.69759275903925E-06,1.7578125,0,0
-2.41374254983384E-05,1.0755451512523E-05,1.7578125,0,0
-2.42659061768791E-05,1.20767499538488E-05,1.7578125,0,0
-2.21748032345204E-05,1.1826252375613E-05,1.7578125,0,0
-2.19572521018563E-05,1.11915633169701E-05,1.7578125,0,0
-2.0834086171817E-05,8.27770327305188E-06,1.7578125,0,0
-2.23431270569563E-05,6.02169757257798E-06,1.7578125,0,0
-2.21499194594799E-05,4.39135465057916E-06,1.7578125,0,0
-2.38865268329391E-05,4.70844997835229E-06,1.7578125,0,0
-2.35374282056E-05,5.29804492543917E-06,1.7578125,0,0
-2.40597291849554E-05,8.42251574795228E-06,1.7578125,0,0
-2.3798120309948E-05,1.2014200365229E-05,1.7578125,0,0
-2.56212042586412E-05,1.42077569762478E-05,1.7578125,0,0
-2.65215785475448E-05,1.18898888104013E-05,1.7578125,0,0
-2.69669253611937E-05,9.05255365069024E-06,1.7578125,0,0
-2.54606038652128E-05,9.25496078707511E-06,1.7578125,0,0
-2.38737975450931E-05,1.15800994535675E-05,1.7578125,0,0
-1.98860016098479E-05,8.56314727570862E-06,1.7578125,0,0
-2.91640735667897E-05,9.97208098851843E-06,1.7578125,0,0
-2.23737661144696E-05,6.6622524172999E-06,1.7578125,0,0
-2.69650099653518E-05,1.14378590296838E-05,1.7578125,0,0
-2.30481309699826E-05,1.06586312540458E-05,1.7578125,0,0
-2.52386780630331E-05,1.17577255878132E-05,1.7578125,0,0
-2.28477201744681E-05,8.90394312591525E-06,1.7578125,0,0
-2.31789854296949E-05,7.73494411987485E-06,1.7578125,0,0
-2.18587720155483E-05,3.99518967242329E-06,1.7578125,0,0
-2.1549996745307E-05,2.30954265134642E-06,1.7578125,0,0
-2.2770194846089E-05,4.17533237850876E-06,1.7578125,0,0
-2.41361285588937E-05,6.74555576551938E-06,1.7578125,0,0
-2.61264558503171E-05,9.34081344894366E-06,1.7578125,0,0
-2.47649495577207E-05,1.02482845250051E-05,1.7578125,0,0
-2.50644661718979E-05,1.1767427167797E-05,1.7578125,0,0
-2.44965576712275E-05,1.0133227078768E-05,1.7578125,0,0
-2.71615444944473E-05,7.96094536781311E-06,1.7578125,0,0
-2.75344827969093E-05,5.8870468819805E-06,1.7578125,0,0
-2.83103090623626E-05,7.33802244212711E-06,1.7578125,0,0
-2.63024139712797E-05,8.19598517409759E-06,1.7578125,0,0
-2.63373276538914E-05,8.68443748913705E-06,1.7578125,0,0
-2.61174827755895E-05,7.68634254200151E-06,1.7578125,0,0
-2.64551035797922E-05,8.98741745913867E-06,1.7578125,0,0
-2.58683867286891E-05,1.18998004836612E-05,1.7578125,0,0
-2.6495710699237E-05,1.45284084283048E-05,1.7578125,0,0
-2.70079399342649E-05,1.49528914334951E-05,1.7578125,0,0
-2.6553510906524E-05,1.43099405249814E-05,1.7578125,0,0
-2.02817227545893E-05,1.25325695989886E-05,1.7578125,0,0
-2.83131284959381E-05,1.92417410289636E-05,1.7578125,0,0
-2.17123561014887E-05,1.59306582645513E-05,1.7578125,0,0
-2.7637221137411E-05,1.70829862327082E-05,1.7578125,0,0
-2.40195258811582E-05,1.16628543764818E-05,1.7578125,0,0
-2.74933063337812E-05,1.30462112792884E-05,1.7578125,0,0
-2.4844404833857E-05,1.34338770294562E-05,1.7578125,0,0
-2.60138676821953E-05,1.37848373924498E-05,1.7578125,0,0
-2.43410158873303E-05,1.2182240425318E-05,1.7578125,0,0
-2.29980214498937E-05,1.13167434392381E-05,1.7578125,0,0
-2.18542500078911E-05,1.16466471808963E-05,1.7578125,0,0
-2.03325598704396E-05,1.1319168152113E-05,1.7578125,0,0
-2.13560870179208E-05,1.03317352113663E-05,1.7578125,0,0
-2.06126387638506E-05,8.47347473609261E-06,1.7578125,0,0
-2.10536218219204E-05,9.52185564528918E-06,1.7578125,0,0
-1.91900489880936E-05,1.04367745734635E-05,1.7578125,0,0
-2.10748203244293E-05,1.24169446280575E-05,1.7578125,0,0
-2.11054448300274E-05,1.27038647406152E-05,1.7578125,0,0
-2.23035458475351E-05,1.32552904688055E-05,1.7578125,0,0
-2.14447391044814E-05,1.18494717753492E-05,1.7578125,0,0
-2.33087102969876E-05,1.18969201139407E-05,1.7578125,0,0
-2.40229765040567E-05,1.29070358525496E-05,1.7578125,0,0
-2.50011162279407E-05,1.35096197482198E-05,1.7578125,0,0
-2.40067020058632E-05,1.21394305097056E-05,1.7578125,0,0
-2.38448446907569E-05,1.29010832097265E-05,1.7578125,0,0
-2.42054120462853E-05,1.37142405947088E-05,1.7578125,0,0
-2.46950694418047E-05,1.33292978716781E-05,1.7578125,0,0
-1.94860931514995E-05,9.40186328080017E-06,1.7578125,0,0
-2.71297194558429E-05,1.08462927528308E-05,1.7578125,0,0
-2.02174123842269E-05,4.65959828943596E-06,1.7578125,0,0
-2.5448727683397E-05,7.34893455955898E-06,1.7578125,0,0
-2.13445382541977E-05,6.6606366999622E-06,1.7578125,0,0
-2.44054936047178E-05,7.67952951719053E-06,1.7578125,0,0
-2.36520190810552E-05,4.91527953272453E-06,1.7578125,0,0
-2.63468627963448E-05,5.5994692047534E-06,1.7578125,0,0
-2.52505542448489E-05,7.5108409873792E-06,1.7578125,0,0
-2.28668377530994E-05,1.02449839687324E-05,1.7578125,0,0
-2.16880544030573E-05,1.13791056719492E-05,1.7578125,0,0
-2.21779846469872E-05,1.0557195309957E-05,1.7578125,0,0
-2.52245063165901E-05,1.04772052509361E-05,1.7578125,0,0
-2.55339218711015E-05,9.89600994216744E-06,1.7578125,0,0
-2.66334627667675E-05,1.00987826954224E-05,1.7578125,0,0
-2.43034246523166E-05,9.1829315351788E-06,1.7578125,0,0
-2.33711471082643E-05,1.01667783383164E-05,2.4609375,0,0
-2.1389547327999E-05,1.0475665476406E-05,2.4609375,0,0
-2.29774886975065E-05,1.13844407678698E-05,2.4609375,0,0
-2.2718060790794E-05,1.09750817500753E-05,2.4609375,0,0
-2.2413889382733E-05,1.19826645459398E-05,2.4609375,0,0
-1.98252510017483E-05,1.16200535558164E-05,2.4609375,0,0
-1.93704545381479E-05,1.07642617876991E-05,2.4609375,0,0
-2.02467908820836E-05,1.0531407497183E-05,2.4609375,0,0
-2.22188482439378E-05,1.13858659460675E-05,2.4609375,0,0
-2.19323264900595E-05,1.12090101538342E-05,2.4609375,0,0
-2.09429708775133E-05,9.91377146419836E-06,2.4609375,0,0
-1.70332168636378E-05,7.229953098431E-06,2.4609375,0,0
-2.69384272542084E-05,1.05051967693726E-05,2.4609375,0,0
-2.42262631218182E-05,8.46552302391501E-06,2.4609375,0,0
-2.78759634966264E-05,1.07580117401085E-05,2.4609375,0,0
-2.41511079366319E-05,1.03273814602289E-05,2.4609375,0,0
-2.78920178971021E-05,1.21979574032594E-05,2.4609375,0,0
-2.74106168944854E-05,1.22741430459428E-05,2.4609375,0,0
-2.82499186141649E-05,1.25460956041934E-05,2.4609375,0,0
-2.67469640675699E-05,1.13615042209858E-05,2.4609375,0,0
-2.59247372014215E-05,1.22747633213294E-05,2.4609375,0,0
-2.57563224295154E-05,1.29559548440739E-05,2.4609375,0,0
-2.61395252891816E-05,1.17630397653556E-05,2.4609375,0,0
-2.80958247458329E-05,1.1280818398518E-05,2.4609375,0,0
-2.80167951132171E-05,1.09879010778968E-05,2.4609375,0,0
-2.87804105028044E-05,1.13916030386463E-05,2.4609375,0,0
-2.68060175585561E-05,1.00919178294134E-05,2.4609375,0,0
-2.56303683272563E-05,1.03862912510522E-05,2.4609375,0,0
-2.35104434977984E-05,1.12265988718718E-05,2.4609375,0,0
-2.49915647145826E-05,1.21521970868343E-05,2.4609375,0,0
-2.53209600487025E-05,1.06561301436159E-05,2.4609375,0,0
-2.57031006185571E-05,1.00026927611907E-05,2.4609375,0,0
-2.41005036514252E-05,9.76205774350092E-06,2.4609375,0,0
-2.38524298765697E-05,9.76646788330982E-06,2.4609375,0,0
-2.37205149460351E-05,1.01254072433221E-05,2.4609375,0,0
-2.40950757870451E-05,1.06711731859832E-05,2.4609375,0,0
-2.42672285821754E-05,1.0802437827806E-05,2.4609375,0,0
-2.43615613726433E-05,1.06806355688605E-05,2.4609375,0,0
-2.02892060769955E-05,8.5850433606538E-06,2.4609375,0,0
-3.01449581456836E-05,1.37623919727048E-05,2.4609375,0,0
-2.41418947553029E-05,1.41195196192712E-05,2.4609375,0,0
-2.82528108073166E-05,1.78587924892781E-05,2.4609375,0,0
-2.29608958761673E-05,1.52407346831751E-05,2.4609375,0,0
-2.52579648076789E-05,1.51422345879837E-05,2.4609375,0,0
-2.34472136071417E-05,1.45255417010048E-05,2.4609375,0,0
-2.49916083703283E-05,1.57723188749515E-05,2.4609375,0,0
-2.41431644099066E-05,1.39433068397921E-05,2.4609375,0,0
-2.37112944887485E-05,1.12570141936885E-05,2.4609375,0,0
-2.35819388763048E-05,1.03128904811456E-05,2.4609375,0,0
-2.25971707550343E-05,1.12507559606456E-05,2.4609375,0,0
-2.33207047131145E-05,1.39135854624328E-05,2.4609375,0,0
-2.17817469092552E-05,1.60396466526436E-05,2.4609375,0,0
-2.21753052755957E-05,1.77058063854929E-05,2.4609375,0,0
-2.09647332667373E-05,1.64089069585316E-05,2.4609375,0,0
-2.24809464270948E-05,1.56647147377953E-05,2.4609375,0,0
-2.20414840441663E-05,1.4975004887674E-05,2.4609375,0,0
-2.35716070164926E-05,1.47941345858271E-05,2.4609375,0,0
-2.31503399845678E-05,1.23493719001999E-05,2.4609375,0,0
-2.3360733393929E-05,1.03598822533968E-05,2.4609375,0,0
-2.23190309043275E-05,9.3308817668003E-06,2.4609375,0,0
-2.36555406445405E-05,9.94514266494662E-06,2.4609375,0,0
-2.42943096964154E-05,9.40869085752638E-06,2.4609375,0,0
-2.47666139330249E-05,7.38252856535837E-06,2.4609375,0,0
-2.42364840232767E-05,5.30185116076609E-06,2.4609375,0,0
-2.28862390940776E-05,5.994392267894E-06,2.4609375,0,0
-1.74335382325808E-05,6.68770553602371E-06,2.4609375,0,0
-2.52910122071626E-05,1.01222285593394E-05,2.4609375,0,0
-2.07843168027466E-05,7.69315101933898E-06,2.4609375,0,0
-2.62793109868653E-05,7.63588013796834E-06,2.4609375,0,0
-2.25879903155146E-05,4.98491363032372E-06,2.4609375,0,0
-2.40436911553843E-05,7.19279796612682E-06,2.4609375,0,0
-2.13631392398383E-05,9.44099883781746E-06,2.4609375,0,0
-2.28331664402504E-05,1.00307224784046E-05,2.4609375,0,0
-2.25249259528937E-05,9.27635301195551E-06,2.4609375,0,0
-2.20466245082207E-05,1.00554525488405E-05,2.4609375,0,0
-2.14925221371232E-05,1.11100607682602E-05,2.4609375,0,0
-2.07375833269907E-05,1.14439289973234E-05,2.4609375,0,0
-2.17858359974343E-05,1.29841064335778E-05,2.4609375,0,0
-2.17598571907729E-05,1.37663791974774E-05,2.4609375,0,0
-2.39894561673282E-05,1.37064653245034E-05,2.4609375,0,0
-2.3407841581502E-05,1.26604036267963E-05,2.4609375,0,0
-2.28021945076762E-05,1.2962261280336E-05,2.4609375,0,0
-1.98681773326825E-05,1.32387031044345E-05,2.4609375,0,0
-2.02937953872606E-05,1.31110064103268E-05,2.4609375,0,0
-2.0355153537821E-05,1.00853067124262E-05,2.4609375,0,0
-2.15586824197089E-05,6.76910667607444E-06,2.4609375,0,0
-2.1478363123606E-05,4.699141754827E-06,2.4609375,0,0
-2.2578440621146E-05,5.23915059602587E-06,2.4609375,0,0
-2.29103970923461E-05,6.32643923381693E-06,2.4609375,0,0
-2.38875982176978E-05,7.30076135369018E-06,2.4609375,0,0
-2.43427493842319E-05,8.0711297414382E-06,2.4609375,0,0
-2.50405009865062E-05,7.88939451012993E-06,2.4609375,0,0
-2.13783896469977E-05,6.80580797052244E-06,2.4609375,0,0
-2.9850983992219E-05,1.0202667908743E-05,2.4609375,0,0
-2.13861549127614E-05,8.26418636279413E-06,2.4609375,0,0
-2.6585730665829E-05,1.09386346593965E-05,2.4609375,0,0
-2.32061374845216E-05,1.22720612125704E-05,2.4609375,0,0
-2.71620774583425E-05,1.46111024150741E-05,2.4609375,0,0
-2.51712208410027E-05,1.38229161166237E-05,2.4609375,0,0
-2.58785275946138E-05,1.42921053338796E-05,2.4609375,0,0
-2.43999184021959E-05,1.35320124172722E-05,2.4609375,0,0
-2.35423485719366E-05,1.23085428640479E-05,2.4609375,0,0
-2.30332043429371E-05,1.01537261798512E-05,2.4609375,0,0
-2.27721793635283E-05,7.02693114362773E-06,2.4609375,0,0
-2.45393657678505E-05,4.01435454477905E-06,2.4609375,0,0
-2.43033391598146E-05,7.54863435759034E-07,2.4609375,0,0
-2.6845471438719E-05,2.64724064891197E-07,2.4609375,0,0
-2.78415573120583E-05,1.90082744211395E-06,2.4609375,0,0
-3.06921610899735E-05,5.76777711103205E-06,2.4609375,0,0
-2.97620736091631E-05,7.49764831198263E-06,2.4609375,0,0
-2.95000954793068E-05,7.91932598076528E-06,2.4609375,0,0
-2.71110347966896E-05,7.5498810474528E-06,2.4609375,0,0
-2.72892684733961E-05,7.89967998571228E-06,2.4609375,0,0
-2.69572028628318E-05,8.06086518423399E-06,2.4609375,0,0
-2.8805010515498E-05,9.78511798166437E-06,2.4609375,0,0
-2.94924648187589E-05,1.14508520709933E-05,2.4609375,0,0
-2.94623205263633E-05,1.18623711387045E-05,2.4609375,0,0
-2.72180059255334E-05,1.0468385880813E-05,2.4609375,0,0
-2.53316266025649E-05,8.7023145169951E-06,2.4609375,0,0
-2.12528993870365E-05,6.13128486293135E-06,2.4609375,0,0
-3.21469160553534E-05,8.30921635497361E-06,2.4609375,0,0
-2.53788639383856E-05,6.19514230493223E-06,2.4609375,0,0
-2.84178368019639E-05,9.57581141847186E-06,2.4609375,0,0
-2.25904059334425E-05,1.16216961032478E-05,2.4609375,0,0
-2.43863978539594E-05,1.41278133014566E-05,2.4609375,0,0
-2.2211132090888E-05,1.37281431307201E-05,2.4609375,0,0
-2.4446346287732E-05,1.57376689458033E-05,2.4609375,0,0
-2.64479367615422E-05,1.64631037478102E-05,2.4609375,0,0
-2.84203924820758E-05,1.5391337001347E-05,2.4609375,0,0
-2.81401771644596E-05,1.35049904201878E-05,2.4609375,0,0
-2.5737519536051E-05,1.2789411812264E-05,2.4609375,0,0
-2.56305211223662E-05,1.34242000058293E-05,2.4609375,0,0
-2.48816959356191E-05,1.24405187307275E-05,2.4609375,0,0
-2.5814093532972E-05,1.20236745715374E-05,2.4609375,0,0
-2.33183054660913E-05,1.20712247735355E-05,2.4609375,0,0
-2.23459283006378E-05,1.29766085592564E-05,2.4609375,0,0
-2.03969702852191E-05,1.22983028632007E-05,2.4609375,0,0
-2.20047604670981E-05,1.2563821655931E-05,2.4609375,0,0
-2.25224139285274E-05,1.35182663143496E-05,2.4609375,0,0
-2.48468786594458E-05,1.51477679537493E-05,2.4609375,0,0
-2.54846145253396E-05,1.45968097058358E-05,2.4609375,0,0
-2.55574777838774E-05,1.42065891850507E-05,2.4609375,0,0
-2.39710134337656E-05,1.39051808218937E-05,2.4609375,0,0
-2.3851462174207E-05,1.33005923999008E-05,2.4609375,0,0
-2.39709461311577E-05,1.32762697830913E-05,2.4609375,0,0
-2.33925129577983E-05,1.38325694933883E-05,2.4609375,0,0
-1.87998230103403E-05,1.01931145763956E-05,2.4609375,0,0
-2.70878881565295E-05,1.29543377624941E-05,2.4609375,0,0
-2.06846580113051E-05,8.37265270092757E-06,2.4609375,0,0
-2.51523779297713E-05,1.17882527774782E-05,2.4609375,0,0
-2.24703635467449E-05,9.61627483775374E-06,2.4609375,0,0
-2.63249385170639E-05,1.10326063804678E-05,2.4609375,0,0
-2.36206906265579E-05,1.01885152616887E-05,2.4609375,0,0
-2.26370939344633E-05,1.26510840345873E-05,2.4609375,0,0
-2.2434182028519E-05,1.42199432957568E-05,2.4609375,0,0
-2.51464407483581E-05,1.48244162119227E-05,2.4609375,0,0
-2.59432636084966E-05,1.50613086589146E-05,2.4609375,0,0
-2.39467299252283E-05,1.53239143401152E-05,2.4609375,0,0
-2.3800090275472E-05,1.61999778356403E-05,2.4609375,0,0
-2.39008204516722E-05,1.51624562931829E-05,2.4609375,0,0
-2.59663156612078E-05,1.42333037729259E-05,2.4609375,0,0
-2.45029150391929E-05,1.25669585031574E-05,2.4609375,0,0
-2.34564577112906E-05,1.47779146573157E-05,2.4609375,0,0
-2.00865870283451E-05,1.68011429195758E-05,2.4609375,0,0
-1.97702338482486E-05,1.70315925061004E-05,2.4609375,0,0
-1.88092271855567E-05,1.40684742291342E-05,2.4609375,0,0
-1.88517005881295E-05,1.32441682580975E-05,2.4609375,0,0
-1.62348005687818E-05,1.34985548356781E-05,3.33984375,0,0
-1.51802596519701E-05,1.32256200231495E-05,3.33984375,0,0
-1.48622602864634E-05,1.09175316538312E-05,3.33984375,0,0
-1.58406019181712E-05,1.04994587672991E-05,3.33984375,0,0
-1.64525081345346E-05,9.91664182947716E-06,3.33984375,0,0
-1.74509623320773E-05,8.07925152912503E-06,3.33984375,0,0
-1.56772111949977E-05,3.82602502213558E-06,3.33984375,0,0
-2.27584350795951E-05,3.69708459402318E-06,3.33984375,0,0
-1.73677763086744E-05,3.42980501955026E-06,3.33984375,0,0
-2.19729608943453E-05,9.95576374407392E-06,3.33984375,0,0
-2.10657435673056E-05,1.37425413413439E-05,3.33984375,0,0
-2.54710012086434E-05,1.5440595234395E-05,3.33984375,0,0
-2.56647163041634E-05,1.33138692035573E-05,3.33984375,0,0
-2.71102107944898E-05,1.25170336104929E-05,3.33984375,0,0
-2.69702813966433E-05,1.13144551505684E-05,3.33984375,0,0
-2.66513343376573E-05,1.00722863862757E-05,3.33984375,0,0
-2.69748979917495E-05,8.36282379168551E-06,3.33984375,0,0
-2.67507348326035E-05,6.89391254127258E-06,3.33984375,0,0
-2.73603909590747E-05,6.71716134093003E-06,3.33984375,0,0
-2.60815213550814E-05,7.09836831447319E-06,3.33984375,0,0
-2.54323331319029E-05,8.12840971775586E-06,3.33984375,0,0
-2.32720085477922E-05,8.22300717118196E-06,3.33984375,0,0
-2.3500258976128E-05,8.39350559544982E-06,3.33984375,0,0
-2.34044400713174E-05,7.95558571553556E-06,3.33984375,0,0
-2.5546414690325E-05,8.6470136011485E-06,3.33984375,0,0
-2.63762085523922E-05,8.31535817269469E-06,3.33984375,0,0
-2.76475457212655E-05,7.88093893788755E-06,3.33984375,0,0
-2.73659898084588E-05,6.92868889018428E-06,3.33984375,0,0
-2.69273623416666E-05,5.80829464524868E-06,3.33984375,0,0
-2.48206706601195E-05,4.09508993470808E-06,3.33984375,0,0
-2.39119908655994E-05,2.93431548925582E-06,3.33984375,0,0
-2.43254489760147E-05,2.39277710534225E-06,3.33984375,0,0
-2.52115423791111E-05,3.197119667675E-06,3.33984375,0,0
-2.05473334062845E-05,3.68540509043669E-06,3.33984375,0,0
-2.85741989500821E-05,6.00407884121523E-06,3.33984375,0,0
-2.11793067137478E-05,5.89669616601896E-06,3.33984375,0,0
-2.70364362222608E-05,7.58473106543534E-06,3.33984375,0,0
-2.24114701268263E-05,6.34193702353514E-06,3.33984375,0,0
-2.49870699917665E-05,6.02752697886899E-06,3.33984375,0,0
-2.33882765314775E-05,7.54106849853997E-06,3.33984375,0,0
-2.47138032136718E-05,1.07846808532486E-05,3.33984375,0,0
-2.2806525521446E-05,1.3151606253814E-05,3.33984375,0,0
-2.16747193917399E-05,1.32108652906027E-05,3.33984375,0,0
-2.13874773180578E-05,1.1958611139562E-05,3.33984375,0,0
-2.01044877030654E-05,1.12152338260785E-05,3.33984375,0,0
-2.00677750399336E-05,1.173695181933E-05,3.33984375,0,0
-1.86696925084107E-05,1.31343895191094E-05,3.33984375,0,0
-2.01295697479509E-05,1.3333915376279E-05,3.33984375,0,0
-1.96935525309527E-05,9.746092473506E-06,3.33984375,0,0
-2.10678808798548E-05,5.64876336284215E-06,3.33984375,0,0
-1.9615425117081E-05,5.00033638672903E-06,3.33984375,0,0
-2.07115645025624E-05,8.66544633026933E-06,3.33984375,0,0
-2.03971721930429E-05,1.14143704195158E-05,3.33984375,0,0
-2.24798623094102E-05,1.18710104288766E-05,3.33984375,0,0
-2.27906202781014E-05,1.15642451419262E-05,3.33984375,0,0
-2.34316648857202E-05,1.21611574286362E-05,3.33984375,0,0
-2.48473297688179E-05,1.21249986477778E-05,3.33984375,0,0
-2.75827551377006E-05,1.06518009488354E-05,3.33984375,0,0
-2.81111006188439E-05,9.70401561062317E-06,3.33984375,0,0
-2.76301834674086E-05,1.12414682007511E-05,3.33984375,0,0
-2.19164194277255E-05,1.21002112791757E-05,3.33984375,0,0
-3.02384687529411E-05,1.93421492440393E-05,3.33984375,0,0
-2.29131528612925E-05,1.75589793798281E-05,3.33984375,0,0
-2.98721770377597E-05,2.07005832635332E-05,3.33984375,0,0
-2.58667550951941E-05,1.73403168446384E-05,3.33984375,0,0
-2.78134011750808E-05,1.81179439096013E-05,3.33984375,0,0
-2.31705707847141E-05,1.64209777722135E-05,3.33984375,0,0
-2.46443687501596E-05,1.6207121007028E-05,3.33984375,0,0
-2.51181354542496E-05,1.48248727782629E-05,3.33984375,0,0
-2.57384399446892E-05,1.43571824082755E-05,3.33984375,0,0
-2.54692495218478E-05,1.39987960210419E-05,3.33984375,0,0
-2.44452094193548E-05,1.17050221888348E-05,3.33984375,0,0
-2.56490548053989E-05,1.05323997559026E-05,3.33984375,0,0
-2.56488219747553E-05,1.04624587038415E-05,3.33984375,0,0
-2.75177862931741E-05,1.36432581712143E-05,3.33984375,0,0
-2.58754062087974E-05,1.58458678924944E-05,3.33984375,0,0
-2.65434919128893E-05,1.73520365933655E-05,3.33984375,0,0
-2.46334329858655E-05,1.58267976075877E-05,3.33984375,0,0
-2.53430880547967E-05,1.4688793271489E-05,3.33984375,0,0
-2.4485119865858E-05,1.27665434774826E-05,3.33984375,0,0
-2.62930752796819E-05,1.20357108244207E-05,3.33984375,0,0
-2.6294950657757E-05,1.08901276689721E-05,3.33984375,0,0
-2.72142606263515E-05,1.03853535620146E-05,3.33984375,0,0
-2.67701343545923E-05,1.03338416010956E-05,3.33984375,0,0
-2.61222830886254E-05,1.06870429590344E-05,3.33984375,0,0
-2.48354681389173E-05,9.88991723716026E-06,3.33984375,0,0
-2.40538829530124E-05,9.88314150163205E-06,3.33984375,0,0
-1.92184215848101E-05,8.18748776509892E-06,3.33984375,0,0
-2.70000946329674E-05,1.17240415420383E-05,3.33984375,0,0
-2.13228959182743E-05,8.67826838657493E-06,3.33984375,0,0
-2.74904941761633E-05,1.00963770819362E-05,3.33984375,0,0
-2.40147473959951E-05,8.3624590843101E-06,3.33984375,0,0
-2.65262933680788E-05,9.89484942692798E-06,3.33984375,0,0
-2.34934741456527E-05,9.60531633609207E-06,3.33984375,0,0
-2.38260035985149E-05,1.04586079032742E-05,3.33984375,0,0
-2.27894979616394E-05,1.02625845102011E-05,3.33984375,0,0
-2.31404137593927E-05,9.64386072155321E-06,3.33984375,0,0
-2.33968767133774E-05,1.01685609479318E-05,3.33984375,0,0
-2.26122901949566E-05,1.19521164378966E-05,3.33984375,0,0
-2.41544694290496E-05,1.40395859489217E-05,3.33984375,0,0
-2.46108938881662E-05,1.52557277033338E-05,3.33984375,0,0
-2.66252754954621E-05,1.68044225574704E-05,3.33984375,0,0
-2.4964760086732E-05,1.59982646437129E-05,3.33984375,0,0
-2.4495897378074E-05,1.50644591485616E-05,3.33984375,0,0
-2.19979028770467E-05,1.31658716782113E-05,3.33984375,0,0
-2.15939653571695E-05,1.28631127154222E-05,3.33984375,0,0
-2.00289887288818E-05,1.29810186990653E-05,3.33984375,0,0
-2.15341278817505E-05,1.35762247737148E-05,3.33984375,0,0
-2.29665729420958E-05,1.15133343570051E-05,3.33984375,0,0
-2.62800313066691E-05,8.75983369041933E-06,3.33984375,0,0
-2.74286321655381E-05,6.58553153698449E-06,3.33984375,0,0
-2.61392688116757E-05,5.7530064623279E-06,3.33984375,0,0
-2.45999708567979E-05,4.90760885440977E-06,3.33984375,0,0
-2.51305973506533E-05,4.66998608317226E-06,3.33984375,0,0
-2.08476812986191E-05,4.76943705507438E-06,3.33984375,0,0
-2.95901518256869E-05,7.29448265701649E-06,3.33984375,0,0
-2.41021443798672E-05,7.19579338692711E-06,3.33984375,0,0
-3.08198032143991E-05,9.39174788072705E-06,3.33984375,0,0
-2.49553759203991E-05,8.57473969517741E-06,3.33984375,0,0
-2.57542760664364E-05,1.06152019725414E-05,3.33984375,0,0
-2.23888691834873E-05,1.19181768241106E-05,3.33984375,0,0
-2.37592084886273E-05,1.23066929518245E-05,3.33984375,0,0
-2.32793081522686E-05,9.90254648058908E-06,3.33984375,0,0
-2.24816612899303E-05,7.14204907126259E-06,3.33984375,0,0
-2.18935037992196E-05,6.36580853097257E-06,3.33984375,0,0
-2.07458851946285E-05,7.0136529757292E-06,3.33984375,0,0
-2.11009992199251E-05,8.32480691315141E-06,3.33984375,0,0
-1.88041776709724E-05,7.99711051513441E-06,3.33984375,0,0
-1.90342543646693E-05,7.9021501733223E-06,3.33984375,0,0
-1.88685226021335E-05,8.32305340736639E-06,3.33984375,0,0
-2.21501068153884E-05,9.05743672774406E-06,3.33984375,0,0
-2.28263052122202E-05,8.13409405964194E-06,3.33984375,0,0
-2.45425108005293E-05,8.1355110523873E-06,3.33984375,0,0
-2.26136708079139E-05,8.96851361176232E-06,3.33984375,0,0
-2.12350369110936E-05,1.00623528851429E-05,3.33984375,0,0
-1.9161188902217E-05,1.04373011708958E-05,3.33984375,0,0
-1.99780697585084E-05,1.09455513666035E-05,3.33984375,0,0
-2.10170710488455E-05,1.0071120414068E-05,3.33984375,0,0
-2.21450482058572E-05,7.92564060247969E-06,3.33984375,0,0
-2.17100932786707E-05,6.01645388087491E-06,3.33984375,0,0
-2.11139922612347E-05,5.89836827202816E-06,3.33984375,0,0
-1.71741321537411E-05,4.6248892431322E-06,3.33984375,0,0
-2.39684395637596E-05,5.4005290621717E-06,3.33984375,0,0
-1.80309016286628E-05,3.0389426228794E-06,3.33984375,0,0
-2.36344876611838E-05,6.46489070277312E-06,3.33984375,0,0
-2.21497175516561E-05,7.97982556832721E-06,3.33984375,0,0
-2.62219746218761E-05,9.24974301597103E-06,3.33984375,0,0
-2.57098945439793E-05,9.29443922359496E-06,3.33984375,0,0
-2.78160860034404E-05,1.13363767013652E-05,3.33984375,0,0
-2.69821084657451E-05,1.1630448170763E-05,3.33984375,0,0
-2.50246903306106E-05,1.01540872492478E-05,3.33984375,0,0
-2.32976617553504E-05,9.08478614292108E-06,3.33984375,0,0
-2.26628508244175E-05,8.74010402185377E-06,3.33984375,0,0
-2.45929313678062E-05,8.6011505118222E-06,3.33984375,0,0
-2.47633306571515E-05,7.82131337473402E-06,3.33984375,0,0
-2.56608454947127E-05,8.02059093985008E-06,3.33984375,0,0
-2.42153128056088E-05,9.02020838111639E-06,3.33984375,0,0
-2.53426969720749E-05,1.08718622868764E-05,3.33984375,0,0
-2.48927062784787E-05,1.03752108771005E-05,3.33984375,0,0
-2.58449199463939E-05,9.12528776098043E-06,3.33984375,0,0
-2.53796515607974E-05,9.37754884944297E-06,3.33984375,0,0
-2.65218241111143E-05,1.08018602986704E-05,3.33984375,0,0
-2.67486393568106E-05,9.94762558548246E-06,3.33984375,0,0
-2.75816000794293E-05,9.50089815887623E-06,3.33984375,0,0
-2.71213466476183E-05,1.06635507108876E-05,4.39453125,0,0
-2.68149706244003E-05,1.30048119899584E-05,4.39453125,0,0
-2.59822736552451E-05,1.40948232001392E-05,4.39453125,0,0
-2.57034225796815E-05,1.39433286676649E-05,4.39453125,0,0
-2.13844650716055E-05,1.0741618098109E-05,4.39453125,0,0
-2.99765197269153E-05,1.5960433302098E-05,4.39453125,0,0
-2.14561950997449E-05,1.17042109195609E-05,4.39453125,0,0
-2.52052504947642E-05,1.32192672026576E-05,4.39453125,0,0
-2.0956347725587E-05,1.22076153274975E-05,4.39453125,0,0
-2.65272974502295E-05,1.47208220369066E-05,4.39453125,0,0
-2.59234020631993E-05,1.25369851957657E-05,4.39453125,0,0
-2.71711596724344E-05,1.20916483865585E-05,4.39453125,0,0
-2.5669429305708E-05,1.206386150443E-05,4.39453125,0,0
-2.48509259108687E-05,1.29792442749022E-05,4.39453125,0,0
-2.53015005000634E-05,1.26743370856275E-05,4.39453125,0,0
-2.45369592448696E-05,1.12231891762349E-05,4.39453125,0,0
-2.49210097535979E-05,1.11481849671691E-05,4.39453125,0,0
-2.442140612402E-05,1.02177209555521E-05,4.39453125,0,0
-2.68757248704787E-05,9.07846151676495E-06,4.39453125,0,0
-2.59371863648994E-05,6.46176295049372E-06,4.39453125,0,0
-2.58647432929138E-05,7.08351672074059E-06,4.39453125,0,0
-2.33668870350812E-05,8.68739971338073E-06,4.39453125,0,0
-2.28885546675883E-05,1.10790397229721E-05,4.39453125,0,0
-2.06304412131431E-05,1.16984820124344E-05,4.39453125,0,0
-2.13147577596828E-05,1.26231525428011E-05,4.39453125,0,0
-2.06786280614324E-05,1.18991538329283E-05,4.39453125,0,0
-2.01741877390305E-05,1.14595868581091E-05,4.39453125,0,0
-1.91003327927319E-05,1.09853790490888E-05,4.39453125,0,0
-2.00561244128039E-05,1.18240104711731E-05,4.39453125,0,0
-2.12004579225322E-05,1.36184353323188E-05,4.39453125,0,0
-2.15135569305858E-05,1.46066759043606E-05,4.39453125,0,0
-1.75872446561698E-05,1.19820588224684E-05,4.39453125,0,0
-2.50701541517628E-05,1.7159225535579E-05,4.39453125,0,0
-1.93682535609696E-05,1.3678138202522E-05,4.39453125,0,0
-2.46038853219943E-05,1.6328174751834E-05,4.39453125,0,0
-2.16603148146532E-05,1.20128879643744E-05,4.39453125,0,0
-2.40664940065471E-05,1.29101381389773E-05,4.39453125,0,0
-2.21133013837971E-05,1.29028121591546E-05,4.39453125,0,0
-2.19902740354883E-05,1.53068940562662E-05,4.39453125,0,0
-2.02933224500157E-05,1.44668547363835E-05,4.39453125,0,0
-1.9546365365386E-05,1.33653747980134E-05,4.39453125,0,0
-1.88728499779245E-05,1.36966182253673E-05,4.39453125,0,0
-1.86292400030652E-05,1.36212156576221E-05,4.39453125,0,0
-2.03553408937296E-05,1.3440599104797E-05,4.39453125,0,0
-1.97088320419425E-05,1.23840654850937E-05,4.39453125,0,0
-2.08535893762019E-05,1.33535577333532E-05,4.39453125,0,0
-2.13223247556016E-05,1.22361288958928E-05,4.39453125,0,0
-2.45662431552773E-05,1.23791915029869E-05,4.39453125,0,0
-2.49899512709817E-05,1.20644599519437E-05,4.39453125,0,0
-2.46502422669437E-05,1.2801439879695E-05,4.39453125,0,0
-2.21171030716505E-05,1.12561092464603E-05,4.39453125,0,0
-2.20631318370579E-05,9.23463176150108E-06,4.39453125,0,0
-2.20162364712451E-05,4.31486432717065E-06,4.39453125,0,0
-2.41410234593786E-05,-3.40006124588399E-07,4.39453125,0,0
-2.55942395597231E-05,-6.62839170217921E-07,4.39453125,0,0
-2.68811090791132E-05,4.05895434596459E-06,4.39453125,0,0
-2.71514400083106E-05,9.55710129346699E-06,4.39453125,0,0
-2.67374343820848E-05,1.37270972118131E-05,4.39453125,0,0
-2.15138716157526E-05,1.07637306427932E-05,4.39453125,0,0
-2.9914526749053E-05,1.47556247611647E-05,4.39453125,0,0
-2.17201595660299E-05,1.17781455628574E-05,4.39453125,0,0
-2.69451484200545E-05,1.48570625242428E-05,4.39453125,0,0
-2.25610401685117E-05,1.16444525701809E-05,4.39453125,0,0
-2.59763601206942E-05,1.33481917146128E-05,4.39453125,0,0
-2.37981821555877E-05,1.14505955934874E-05,4.39453125,0,0
-2.52642639679834E-05,1.14879285320058E-05,4.39453125,0,0
-2.56398143392289E-05,1.20536751637701E-05,4.39453125,0,0
-2.69736410700716E-05,1.3511592442228E-05,4.39453125,0,0
-2.7174006390851E-05,1.37083798108506E-05,4.39453125,0,0
-2.56990715570282E-05,1.35236268761219E-05,4.39453125,0,0
-2.5730758352438E-05,1.42532780955662E-05,4.39453125,0,0
-2.43875110754743E-05,1.26384693430737E-05,4.39453125,0,0
-2.59363314398797E-05,1.18428642963408E-05,4.39453125,0,0
-2.49333843385102E-05,1.06307088572066E-05,4.39453125,0,0
-2.64604241237976E-05,1.26218028526637E-05,4.39453125,0,0
-2.57899246207671E-05,1.38710574901779E-05,4.39453125,0,0
-2.75337351922644E-05,1.47430082506617E-05,4.39453125,0,0
-2.7165293431608E-05,1.21866250992753E-05,4.39453125,0,0
-2.84983543679118E-05,9.03201726032421E-06,4.39453125,0,0
-2.7952932214248E-05,6.15592398389708E-06,4.39453125,0,0
-2.74448975687847E-05,6.47205297354958E-06,4.39453125,0,0
-2.58514646702679E-05,7.70377482695039E-06,4.39453125,0,0
-2.50585653702728E-05,9.25837593968026E-06,4.39453125,0,0
-2.4078208298306E-05,1.01045561677893E-05,4.39453125,0,0
-2.38966640608851E-05,9.42673887038836E-06,4.39453125,0,0
