biceps_emg, triceps_emg, subject_position, position_estimate, brace_position
-2.62204994214699E-05,1.39035510073882E-05,-0.17578125,0,0
-2.6078982045874E-05,1.33840148919262E-05,-0.17578125,0,0
-2.49409895332064E-05,1.33915136757423E-05,-0.17578125,0,0
-2.49568911385722E-05,1.4991671378084E-05,-0.17578125,0,0
-2.70831205853028E-05,1.58882594405441E-05,-0.17578125,0,0
-2.9329694370972E-05,1.44877394632204E-05,-0.17578125,0,0
-2.45091978285927E-05,1.10260898509296E-05,-0.17578125,0,0
-3.44338368449826E-05,1.58074781211326E-05,-0.17578125,0,0
-2.6487421564525E-05,1.21367947940598E-05,-0.17578125,0,0
-3.33428797603119E-05,1.53846631292254E-05,-0.17578125,0,0
-2.71225908363704E-05,1.53657219925663E-05,-0.17578125,0,0
-2.87292477878509E-05,2.08065321203321E-05,-0.17578125,0,0
-2.46633826463949E-05,2.19118683162378E-05,-0.17578125,0,0
-2.67125924438005E-05,2.20499514398398E-05,-0.17578125,0,0
-2.6768668249133E-05,2.06037675525295E-05,-0.17578125,0,0
-2.61538116319571E-05,1.89844740816625E-05,-0.17578125,0,0
-2.54658971243771E-05,1.71561296156142E-05,-0.17578125,0,0
-2.47487005253788E-05,1.60921827045968E-05,-0.17578125,0,0
-2.69948122877395E-05,1.49309116750374E-05,-0.17578125,0,0
-2.60654487647116E-05,1.11316940092365E-05,-0.17578125,0,0
-2.73249916062923E-05,1.02928543128655E-05,-0.17578125,0,0
-2.67880514002172E-05,1.0951713193208E-05,-0.17578125,0,0
-2.80044787359657E-05,1.26243558042916E-05,-0.17578125,0,0
-2.37833173741819E-05,1.13009809865616E-05,-0.17578125,0,0
-2.2299569536699E-05,1.05808239823091E-05,-0.17578125,0,0
-2.14966021303553E-05,8.0220379459206E-06,-0.17578125,0,0
-2.3903492547106E-05,3.61390925718297E-06,-0.17578125,0,0
-2.39169312408194E-05,1.40044974727971E-07,-0.17578125,0,0
-2.33951486734441E-05,3.47913396581134E-06,-0.17578125,0,0
-2.07425346161472E-05,8.6770751295262E-06,-0.17578125,0,0
-1.92654133570613E-05,1.13738115032902E-05,-0.17578125,0,0
-1.80576280399691E-05,1.18096595542738E-05,-0.17578125,0,0
-1.67861235240707E-05,1.22724441098399E-05,-0.17578125,0,0
-1.27084267660393E-05,8.58726434671553E-06,-0.17578125,0,0
-1.90036316780606E-05,1.04730934253894E-05,-0.17578125,0,0
-1.69315626408206E-05,7.45089482734329E-06,-0.17578125,0,0
-2.11693804885726E-05,1.22554047266021E-05,-0.17578125,0,0
-1.84930977411568E-05,1.24800735648023E-05,-0.17578125,0,0
-1.9195982531528E-05,1.57849390234333E-05,-0.17578125,0,0
-1.6087189578684E-05,1.58936873049242E-05,-0.17578125,0,0
-1.55400521180127E-05,1.68780807143776E-05,-0.17578125,0,0
-1.58029961312423E-05,1.67979906109395E-05,-0.17578125,0,0
-1.82916810445022E-05,1.60370727826376E-05,-0.17578125,0,0
-2.06219901883742E-05,1.46930715345661E-05,-0.17578125,0,0
-2.11488495551748E-05,1.41347336466424E-05,-0.17578125,0,0
-2.15790696529439E-05,1.35529280669289E-05,-0.17578125,0,0
-1.96954479179112E-05,1.09497477751574E-05,-0.17578125,0,0
-1.91432554856874E-05,9.56905569182709E-06,-0.17578125,0,0
-1.85322951438138E-05,8.10718029242707E-06,-0.17578125,0,0
-2.06594122573733E-05,8.12181770015741E-06,-0.17578125,0,0
-2.16857424675254E-05,6.48776949674357E-06,-0.17578125,0,0
-2.28591834456893E-05,5.10628387928591E-06,-0.17578125,0,0
-2.17734013858717E-05,3.74345222553529E-06,-0.17578125,0,0
-2.13224539038492E-05,5.99837267145631E-06,-0.17578125,0,0
-2.11610786209349E-05,8.66631671669893E-06,-0.17578125,0,0
-2.32725797104649E-05,9.51724359765649E-06,-0.17578125,0,0
-2.66841489064973E-05,6.9537354647764E-06,-0.17578125,0,0
-3.16614932671655E-05,5.87011709285434E-06,-0.17578125,0,0
-3.34739925165195E-05,6.1854798332206E-06,-0.17578125,0,0
-3.28673195326701E-05,5.91340995015344E-06,-0.17578125,0,0
-2.57020092249149E-05,5.33038110006601E-06,-0.17578125,0,0
-3.66059539373964E-05,7.52482947063982E-06,-0.17578125,0,0
-2.83492354355985E-05,6.02836871621548E-06,-0.17578125,0,0
-3.64557308785152E-05,8.48530271468917E-06,-0.17578125,0,0
-3.18057500408031E-05,8.14005852589617E-06,-0.17578125,0,0
-3.50848495145328E-05,9.91758406598819E-06,-0.17578125,0,0
-3.181359716109E-05,1.04494092738605E-05,-0.17578125,0,0
-3.32284907926805E-05,9.64414994086837E-06,-0.17578125,0,0
-3.16521727654617E-05,8.45352951728273E-06,-0.17578125,0,0
-2.98097183986101E-05,7.44145427233889E-06,-0.17578125,0,0
-2.80809072137345E-05,6.33443460174021E-06,-0.17578125,0,0
-2.66384522547014E-05,4.5235724428494E-06,-0.17578125,0,0
-2.83117933577159E-05,2.96818393508147E-06,-0.17578125,0,0
-2.76321607088903E-05,2.36362279792957E-06,-0.17578125,0,0
-2.79153591691284E-05,3.91989715353702E-06,-0.17578125,0,0
-2.40623849094845E-05,4.40288113168208E-06,-0.17578125,0,0
-2.36189353017835E-05,5.09599794895621E-06,-0.17578125,0,0
-2.17386277654441E-05,5.7022953114938E-06,-0.17578125,0,0
-2.18856421270175E-05,5.51968105355627E-06,-0.17578125,0,0
-1.89427737495862E-05,3.68115388482693E-06,-0.17578125,0,0
-1.8848286345019E-05,3.34107312482956E-06,-0.17578125,0,0
-1.79106536961626E-05,6.27327108304598E-06,-0.17578125,0,0
-1.91619619727135E-05,1.04365753941238E-05,-0.17578125,0,0
-1.97859390027588E-05,1.1634327165666E-05,-0.17578125,0,0
-2.08553592528915E-05,1.11751633085078E-05,-0.17578125,0,0
-2.18656186916633E-05,1.23226946016075E-05,-0.17578125,0,0
-2.35224051721161E-05,1.36796488732216E-05,-0.17578125,0,0
-1.97692334040767E-05,8.83963730302639E-06,-0.17578125,0,0
-2.73732330242638E-05,9.17053239390953E-06,-0.17578125,0,0
-1.90688151633367E-05,1.32209413550299E-06,-0.17578125,0,0
-2.35240386246005E-05,9.59708359005162E-07,-0.17578125,0,0
-1.90158625628101E-05,-2.5762395239326E-07,-0.17578125,0,0
-1.99996011360781E-05,7.62354511607555E-06,-0.17578125,0,0
-1.72614181792596E-05,1.16526189231081E-05,-0.17578125,0,0
-1.82011644938029E-05,1.25951255540713E-05,-0.17578125,0,0
-1.68649094121065E-05,1.27370822156081E-05,-0.17578125,0,0
-1.64288921951083E-05,1.47838782140752E-05,-0.17578125,0,0
-1.74800134118414E-05,1.58836592163425E-05,-0.17578125,0,0
-1.81849554792279E-05,1.57773847604403E-05,-0.17578125,0,0
-2.01165421458427E-05,1.632111161598E-05,-0.17578125,0,0
-2.01595958060352E-05,1.47462260429165E-05,-0.17578125,0,0
-2.1867357645533E-05,1.31825554490206E-05,-0.17578125,0,0
-2.14802694245009E-05,1.25653923532809E-05,-0.17578125,0,0
-2.34743965847883E-05,1.47156652019476E-05,-0.17578125,0,0
-2.31639987759991E-05,1.54047320393147E-05,-0.17578125,0,0
-2.39835353568196E-05,1.63405147759477E-05,-0.17578125,0,0
-2.29664710786892E-05,1.64655612024944E-05,-0.17578125,0,0
-2.42569858528441E-05,1.76085177372443E-05,-0.17578125,0,0
-2.44837519858265E-05,1.63977019838057E-05,-0.17578125,0,0
-2.52356785495067E-05,1.39906114782207E-05,-0.17578125,0,0
-2.43203503487166E-05,1.10994160422706E-05,-0.17578125,0,0
-2.33204154937994E-05,1.05374465420027E-05,-0.17578125,0,0
-2.29979632422328E-05,1.17749341370654E-05,-0.17578125,0,0
-2.41432280745357E-05,1.29057625599671E-05,-0.17578125,0,0
-2.09756981348619E-05,1.03517959360033E-05,-0.17578125,0,0
-3.07122572849039E-05,1.50972573464969E-05,-0.17578125,0,0
-2.38062038988573E-05,1.16593664643005E-05,-0.17578125,0,0
-2.84474062937079E-05,1.20225849968847E-05,-0.17578125,0,0
-2.3923172193463E-05,8.55442613101332E-06,-0.17578125,0,0
-2.55854683928192E-05,1.25925644169911E-05,-0.17578125,0,0
-2.22833459702088E-05,1.48026538226986E-05,-0.17578125,0,0
-2.40963854594156E-05,1.59184073709184E-05,-0.17578125,0,0
-2.50496013904922E-05,1.24622984003508E-05,-0.17578125,0,0
-2.52530244324589E-05,8.04849332780577E-06,-0.17578125,0,0
-2.34883900702698E-05,4.17306000599638E-06,-0.17578125,0,0
-2.01088205358246E-05,3.28592886944534E-06,-0.17578125,0,0
-1.89167712960625E-05,5.79979314352386E-06,-0.17578125,0,0
-1.66743138834136E-05,6.6211382545589E-06,-0.17578125,0,0
-1.718087514746E-05,8.05539093562402E-06,-0.17578125,0,0
-1.59313585754717E-05,9.55251562118065E-06,-0.17578125,0,0
-1.65597175509902E-05,1.38349332701182E-05,-0.17578125,0,0
-1.49652487380081E-05,1.60528561536921E-05,-0.17578125,0,0
-1.57851300173206E-05,1.55681391333928E-05,-0.17578125,0,0
-1.4870797713229E-05,1.13073247121065E-05,-0.17578125,0,0
-1.61889274750138E-05,9.40431345952675E-06,-0.17578125,0,0
-1.71544761542464E-05,8.88063277670881E-06,-0.17578125,0,0
-1.95425618585432E-05,9.15887176233809E-06,-0.17578125,0,0
-2.05115284188651E-05,9.61412843025755E-06,-0.17578125,0,0
-2.1107489374117E-05,1.02329540823121E-05,-0.17578125,0,0
-2.15770487557165E-05,8.10039091447834E-06,-0.17578125,0,0
-2.22671169467503E-05,5.60910439162399E-06,-0.17578125,0,0
-1.82584954018239E-05,5.74428395339055E-06,-0.17578125,0,0
-2.52579575317213E-05,9.80968252406456E-06,-0.17578125,0,0
-1.94578806258505E-05,1.00959305200377E-05,-0.17578125,0,0
-2.55069280683529E-05,1.15832135634264E-05,-0.17578125,0,0
-2.13226448977366E-05,9.7280371846864E-06,-0.17578125,0,0
-2.44796901824884E-05,9.36557989916764E-06,-0.17578125,0,0
-2.42302303377073E-05,8.16279134596698E-06,-0.17578125,0,0
-2.55261584243272E-05,7.31845193513436E-06,-0.17578125,0,0
-2.41919533436885E-05,5.44997419638094E-06,-0.17578125,0,0
-2.34365343203535E-05,2.73947216555825E-06,-0.17578125,0,0
-2.37578315136489E-05,5.99239115217642E-07,-0.17578125,0,0
-2.39557612076169E-05,2.66151687355887E-06,-0.17578125,0,0
-2.58430209214566E-05,7.38503240427235E-06,-0.17578125,0,0
-2.49282111326465E-05,1.10758692244417E-05,-0.17578125,0,0
-2.46427662204951E-05,1.42987182698562E-05,-0.17578125,0,0
-2.25220992433606E-05,1.59719074872555E-05,-0.17578125,0,0
-2.38975153479259E-05,1.74094129761215E-05,-0.17578125,0,0
-2.42504884226946E-05,1.77328220161144E-05,-0.17578125,0,0
-2.6264673579135E-05,1.84076307050418E-05,-0.17578125,0,0
-2.58626369031845E-05,1.76380253833486E-05,-0.17578125,0,0
-2.54055248660734E-05,1.71720512298634E-05,-0.17578125,0,0
-2.3288297597901E-05,1.81533687282354E-05,-0.17578125,0,0
-2.28680146392435E-05,1.99799596884986E-05,-0.17578125,0,0
-2.32926195167238E-05,1.85430999408709E-05,-0.17578125,0,0
-2.53861344390316E-05,1.57315025717253E-05,-0.17578125,0,0
-2.65529761236394E-05,1.49482875713147E-05,-0.17578125,0,0
-2.61576278717257E-05,1.56659953063354E-05,-0.17578125,0,0
-1.90648297575535E-05,1.30521784740267E-05,-0.17578125,0,0
-2.69592474069213E-05,1.78054251591675E-05,-0.17578125,0,0
-2.18484910874395E-05,1.13529104055488E-05,-0.17578125,0,0
-2.87229522655252E-05,1.33156618176145E-05,-0.17578125,0,0
-2.52497447945643E-05,8.44111491460353E-06,-0.17578125,0,0
-2.79069518001052E-05,8.16034662420861E-06,-0.17578125,0,0
-2.59966273006285E-05,6.89566786604701E-06,-0.17578125,0,0
-2.77480939985253E-05,7.74950876802905E-06,-0.17578125,0,0
-2.68709554802626E-05,6.6824131863541E-06,-0.17578125,0,0
-2.65212966041872E-05,5.30436091139563E-06,-0.17578125,0,0
-2.67443756456487E-05,4.29387137046433E-06,-0.17578125,0,0
-2.71502722171135E-05,4.61725767308963E-06,-0.17578125,0,0
-2.92116274067666E-05,6.25181928626262E-06,-0.17578125,0,0
-2.88982500933344E-05,6.20682931185002E-06,-0.17578125,0,0
-3.04470740957186E-05,8.66648406372406E-06,-0.17578125,0,0
-2.94754263450159E-05,1.03381753433496E-05,-0.17578125,0,0
-3.02636490232544E-05,1.24494736155611E-05,-0.17578125,0,0
-2.93960038106889E-05,1.22656119856401E-05,-0.17578125,0,0
-3.05313733406365E-05,1.28787269204622E-05,-0.17578125,0,0
-2.87511993519729E-05,1.2619807421288E-05,-0.17578125,0,0
-2.8545035092975E-05,1.36964154080488E-05,-0.17578125,0,0
-2.86669583147159E-05,1.26160293802968E-05,-0.17578125,0,0
-3.09586903313175E-05,1.1328408618283E-05,-0.17578125,0,0
-3.25795081153046E-05,1.04808623291319E-05,-0.17578125,0,0
-3.39755242748652E-05,1.04462560557295E-05,-0.17578125,0,0
-3.27041052514687E-05,1.16617648018291E-05,-0.17578125,0,0
-3.10654468194116E-05,1.43264314829139E-05,-0.17578125,0,0
-2.57305582636036E-05,1.26651129903621E-05,-0.17578125,0,0
-3.76269526896067E-05,1.66774680110393E-05,-0.17578125,0,0
-2.92759232252138E-05,1.13068372229463E-05,-0.17578125,0,0
-3.57064418494701E-05,1.48147983054514E-05,-0.17578125,0,0
-3.16221048706211E-05,1.25680589917465E-05,-0.17578125,0,0
-3.64480547432322E-05,1.48163999256212E-05,-0.17578125,0,0
-3.37660894729197E-05,1.19657725008437E-05,-0.17578125,0,0
-3.34517826559022E-05,8.98508005775511E-06,-0.17578125,0,0
-3.02500047837384E-05,2.73010209639324E-06,-0.17578125,0,0
-2.83009740087437E-05,-2.24753944166878E-06,-0.17578125,0,0
-2.70484706561547E-05,-1.72195120740071E-06,-0.17578125,0,0
-2.46129129664041E-05,3.40783913088671E-06,-0.17578125,0,0
-2.49258810072206E-05,8.70799703989178E-06,-0.17578125,0,0
-2.42529313254636E-05,8.91739000508096E-06,-0.17578125,0,0
-2.73976747848792E-05,9.94403399090515E-06,-0.17578125,0,0
-2.733201290539E-05,1.06916550066671E-05,-0.17578125,0,0
-2.74202411674196E-05,1.23252539196983E-05,-0.17578125,0,0
-2.41093548538629E-05,1.03740258055041E-05,-0.17578125,0,0
-2.45418250415241E-05,8.0900090324576E-06,-0.17578125,0,0
-2.36815412790747E-05,5.37776895725983E-06,-0.17578125,0,0
-2.42920414166292E-05,5.09713800056488E-06,-0.17578125,0,0
-2.34081235248595E-05,4.38508914157865E-06,-0.17578125,0,0
-2.43498998315772E-05,4.91058790430543E-06,-0.17578125,0,0
-2.27365635510068E-05,4.20753394791973E-06,-0.17578125,0,0
-2.09050140256295E-05,3.36738753503596E-06,-0.17578125,0,0
-2.05851938517299E-05,3.43473379871284E-06,-0.17578125,0,0
-2.21277368837036E-05,4.30901991421706E-06,-0.17578125,0,0
-1.97738645510981E-05,3.43765441357391E-06,-0.17578125,0,0
-2.8157086489955E-05,3.75189119949937E-06,-0.17578125,0,0
-2.08522596949479E-05,1.18109630875551E-06,-0.17578125,0,0
-2.32950060308212E-05,2.57943656833959E-06,-0.17578125,0,0
-1.70001621881966E-05,4.36462278230465E-06,-0.17578125,0,0
-1.97975132323336E-05,7.73454212321667E-06,-0.17578125,0,0
-1.90474584087497E-05,8.82914173416793E-06,-0.17578125,0,0
-2.19088433368597E-05,9.07054618437542E-06,-0.17578125,0,0
-2.21783539018361E-05,1.03425009001512E-05,-0.17578125,0,0
-2.07379398489138E-05,1.23921954582329E-05,-0.17578125,0,0
-1.87108471436659E-05,1.32405184558593E-05,-0.17578125,0,0
-1.73114513017936E-05,1.276283092011E-05,-0.17578125,0,0
-1.95786869880976E-05,1.10069477159414E-05,-0.17578125,0,0
-2.03022682399023E-05,7.59779277359485E-06,-0.17578125,0,0
-2.15973814192694E-05,6.75896990287583E-06,-0.17578125,0,0
-1.95103129954077E-05,8.49526350066299E-06,-0.17578125,0,0
-1.86493416549638E-05,1.09852389869047E-05,-0.17578125,0,0
-1.51762615132611E-05,1.12142552097794E-05,-0.17578125,0,0
-1.46250131365377E-05,1.00354473033804E-05,-0.17578125,0,0
-1.45145768328803E-05,8.86469115357613E-06,-0.17578125,0,0
-1.66539521160303E-05,8.91824947757414E-06,-0.17578125,0,0
-1.67349862749688E-05,8.9435734480503E-06,-0.17578125,0,0
-1.81785690074321E-05,9.45182182476856E-06,-0.17578125,0,0
-1.88327921932796E-05,1.10195278466563E-05,-0.17578125,0,0
-1.91441795323044E-05,1.32999139168533E-05,-0.17578125,0,0
-1.85350745596224E-05,1.55952784552937E-05,-0.17578125,0,0
-1.82137900992529E-05,1.63624536071438E-05,-0.17578125,0,0
-1.49967527249828E-05,1.34639940370107E-05,-0.17578125,0,0
-2.06081786018331E-05,1.96982291527092E-05,-0.17578125,0,0
-1.38983295983053E-05,1.53513119585114E-05,-0.17578125,0,0
-1.66212194017135E-05,1.84222371899523E-05,-0.17578125,0,0
-1.2680974577961E-05,1.61922580446117E-05,-0.17578125,0,0
-1.32666536956094E-05,2.04379739443539E-05,-0.17578125,0,0
-1.07452633528737E-05,2.02136889129179E-05,-0.17578125,0,0
-1.17892022899468E-05,1.9312434233143E-05,-0.17578125,0,0
-1.23658119264292E-05,1.80449642357416E-05,-0.17578125,0,0
-1.36129592647194E-05,1.78629834408639E-05,-0.17578125,0,0
-1.59524206537753E-05,1.67583239090163E-05,-0.17578125,0,0
-1.78550708369585E-05,1.50777650560485E-05,-0.17578125,0,0
-1.91694398381514E-05,1.41899836307857E-05,-0.17578125,0,0
-1.82971180038294E-05,1.17104209493846E-05,-0.17578125,0,0
-2.01469865714898E-05,1.09497441371786E-05,-0.17578125,0,0
-2.07832672458608E-05,1.14092290459666E-05,-0.17578125,0,0
-2.22696107812226E-05,1.43997503982973E-05,-0.17578125,0,0
-2.2126891053631E-05,1.42228318509297E-05,-0.17578125,0,0
-2.33107439271407E-05,1.5096525203262E-05,-0.17578125,0,0
-2.28010030696169E-05,1.66874306160025E-05,-0.17578125,0,0
-2.34978488151683E-05,1.97597837541252E-05,-0.17578125,0,0
-2.32912443607347E-05,1.9592625903897E-05,-0.17578125,0,0
-2.45114952122094E-05,1.77835554495687E-05,-0.17578125,0,0
-2.41109883063473E-05,1.2660834727285E-05,-0.17578125,0,0
-2.35725419770461E-05,4.95546237289091E-06,-0.17578125,0,0
-2.3683205654379E-05,-1.00330873920029E-06,-0.17578125,0,0
-2.24384129978716E-05,-6.00475800638378E-07,-0.17578125,0,0
-1.79668586497428E-05,4.53226220997749E-06,-0.17578125,0,0
-2.66003589786123E-05,9.8938890005229E-06,-0.17578125,0,0
-2.17507877096068E-05,1.28492147268844E-05,-0.17578125,0,0
-2.66881161223864E-05,1.57864851644263E-05,-0.17578125,0,0
-2.42008864006493E-05,1.63267359312158E-05,-0.17578125,0,0
-2.86379727185704E-05,1.6612279068795E-05,-0.17578125,0,0
-2.87504626612645E-05,1.48907893162686E-05,-0.17578125,0,0
-3.06327892758418E-05,1.20275344670517E-05,-0.17578125,0,0
-2.88357059616828E-05,1.06641518868855E-05,-0.17578125,0,0
-2.84828020085115E-05,1.23952895592083E-05,-0.17578125,0,0
-2.98874583677389E-05,1.61484167620074E-05,-0.17578125,0,0
-3.05639186990447E-05,1.86485813173931E-05,-0.17578125,0,0
-3.10210925817955E-05,1.82517524081049E-05,-0.17578125,0,0
-2.84916168311611E-05,1.49844554471201E-05,-0.17578125,0,0
-2.79495816357667E-05,1.30383705254644E-05,-0.17578125,0,0
-2.68253879767144E-05,1.24571724882117E-05,-0.17578125,0,0
-2.87084403680637E-05,1.09315815279842E-05,-0.17578125,0,0
-2.8751159334206E-05,8.01096666691592E-06,-0.17578125,0,0
-3.02009375445778E-05,6.25917709839996E-06,-0.17578125,0,0
-2.94235178444069E-05,5.72652015762287E-06,-0.17578125,0,0
-2.90922253043391E-05,7.7187050919747E-06,-0.17578125,0,0
-2.70722121058498E-05,1.06555262391339E-05,-0.17578125,0,0
-2.69872489297995E-05,1.17953404696891E-05,-0.17578125,0,0
-2.71968274319079E-05,1.13501400846872E-05,-0.17578125,0,0
-2.79311498161405E-05,1.10055789264152E-05,-0.17578125,0,0
-2.76681785180699E-05,9.76003684627358E-06,-0.17578125,0,0
-2.73785863100784E-05,7.47404783396632E-06,-0.17578125,0,0
-2.24674804485403E-05,6.39071913610678E-06,-0.17578125,0,0
-3.2715452107368E-05,1.27870225696824E-05,-0.17578125,0,0
-2.49785480264109E-05,1.50494643094135E-05,-0.17578125,0,0
-3.03102406178368E-05,1.7712924091029E-05,-0.17578125,0,0
-2.66405859292718E-05,1.4188049135555E-05,-0.17578125,0,0
-2.99488674500026E-05,1.16793180495733E-05,-0.17578125,0,0
-2.75207930826582E-05,1.11042390926741E-05,-0.17578125,0,0
-2.92760123556945E-05,1.18203106467263E-05,-0.17578125,0,0
-3.00448955385946E-05,1.18061725515872E-05,-0.17578125,0,0
-3.10564319079276E-05,1.1808930139523E-05,-0.17578125,0,0
-3.04838449665112E-05,1.31011101984768E-05,-0.17578125,0,0
-2.95451973215677E-05,1.48796971188858E-05,-0.17578125,0,0
-3.11214025714435E-05,1.50191181091941E-05,-0.17578125,0,0
-2.95322861347813E-05,1.32765962916892E-05,-0.17578125,0,0
-2.93983684969135E-05,1.21703287732089E-05,-0.17578125,0,0
-2.75173370027915E-05,1.1416284905863E-05,-0.17578125,0,0
-2.791629958665E-05,1.21871571536758E-05,-0.17578125,0,0
-2.60095912381075E-05,1.2456793228921E-05,-0.17578125,0,0
-2.73506902885856E-05,1.22769333756878E-05,-0.17578125,0,0
-2.76352620858233E-05,1.13283294922439E-05,-0.17578125,0,0
-2.92604872811353E-05,1.07429914351087E-05,-0.17578125,0,0
-2.81962948065484E-05,1.0828076483449E-05,-0.17578125,0,0
-2.8277545425226E-05,1.12237421490136E-05,-0.17578125,0,0
-2.88454466499388E-05,1.15084030767321E-05,-0.17578125,0,0
-3.01578074868303E-05,1.20624099508859E-05,-0.17578125,0,0
-3.03172946587438E-05,1.29867203213507E-05,-0.17578125,0,0
-3.05322100757621E-05,1.45068179335794E-05,-0.17578125,0,0
-2.46485287789255E-05,1.04613027360756E-05,-0.17578125,0,0
-3.48887260770425E-05,1.30832704599015E-05,-0.17578125,0,0
-2.57513947872212E-05,7.90073318057694E-06,-0.17578125,0,0
-3.09693132294342E-05,9.95960363070481E-06,-0.17578125,0,0
-2.38152606470976E-05,6.70307281325222E-06,-0.17578125,0,0
-2.61315690295305E-05,9.52014215727104E-06,-0.17578125,0,0
-2.36023388424655E-05,8.51148706715321E-06,-0.17578125,0,0
-2.33536029554671E-05,7.68612699175719E-06,-0.17578125,0,0
-2.07688735827105E-05,6.85211489326321E-06,-0.17578125,0,0
-2.01969596673734E-05,8.79660547070671E-06,-0.17578125,0,0
-2.04536463570548E-05,1.24170492199482E-05,-0.17578125,0,0
-1.84478321898496E-05,1.51647600432625E-05,-0.17578125,0,0
-1.84142354555661E-05,1.58665225171717E-05,-0.17578125,0,0
-1.80538336280733E-05,1.40285865199985E-05,-0.17578125,0,0
-2.11863189178985E-05,1.4643112081103E-05,-0.17578125,0,0
-2.17840679397341E-05,1.47766413647332E-05,-0.17578125,0,0
-2.39432720263721E-05,1.56428941409104E-05,-0.17578125,0,0
-2.26555293920683E-05,1.41215859912336E-05,-0.17578125,0,0
-2.35377465287456E-05,1.25626575027127E-05,-0.17578125,0,0
-2.23985498450929E-05,1.02728936326457E-05,-0.17578125,0,0
-2.26184092753101E-05,9.94995934888721E-06,-0.17578125,0,0
-2.04667048819829E-05,8.18473927211016E-06,-0.17578125,0,0
-1.98223824554589E-05,6.67228505335515E-06,-0.17578125,0,0
-2.01428047148511E-05,5.78541721552028E-06,-0.17578125,0,0
-2.10712860280182E-05,6.11158793617506E-06,-0.17578125,0,0
-1.96969376702327E-05,7.64807828090852E-06,-0.17578125,0,0
-1.92367806448601E-05,9.24858159123687E-06,-0.17578125,0,0
-1.67845682881307E-05,8.32860314403661E-06,-0.17578125,0,0
-2.42888218053849E-05,1.17791669254075E-05,-0.17578125,0,0
-1.84380623977631E-05,8.26366886030883E-06,-0.17578125,0,0
-2.21438549488084E-05,1.00407314675977E-05,-0.17578125,0,0
-1.86359302460914E-05,7.93969320511678E-06,-0.17578125,0,0
-2.01288785319775E-05,7.86712007538881E-06,-0.17578125,0,0
-1.66354238899658E-05,4.18709305449738E-06,-0.17578125,0,0
-1.57222530106083E-05,3.41106726864382E-07,-0.17578125,0,0
-1.65104920597514E-05,-6.48832553906686E-07,-0.17578125,0,0
-1.86296565516386E-05,1.20009565307555E-06,-0.17578125,0,0
-1.92563256860012E-05,4.33452760262298E-06,-0.17578125,0,0
-1.75701479747659E-05,6.63659011479467E-06,-0.17578125,0,0
-1.68098176800413E-05,7.31025556888198E-06,-0.17578125,0,0
-1.50565656440449E-05,5.52442043044721E-06,-0.17578125,0,0
-1.60992276505567E-05,5.1066635933239E-06,-0.17578125,0,0
-1.59521132445661E-05,4.81866618429194E-06,-0.17578125,0,0
-1.6475620213896E-05,5.79040761294891E-06,-0.17578125,0,0
-1.41323598654708E-05,5.7302559071104E-06,-0.17578125,0,0
-1.37296738103032E-05,6.00074599788059E-06,-0.17578125,0,0
-1.3690083505935E-05,5.36404013473657E-06,-0.17578125,0,0
-1.57504582602996E-05,4.07205197916483E-06,-0.17578125,0,0
-1.60356139531359E-05,2.50320476880006E-06,-0.17578125,0,0
-1.63229196914472E-05,2.84822567664378E-06,-0.17578125,0,0
-1.71225092344685E-05,4.50146990260691E-06,-0.17578125,0,0
-1.83020420081448E-05,5.13114628120093E-06,-0.17578125,0,0
-1.77244255610276E-05,3.18329603032907E-06,-0.17578125,0,0
-1.78036953002447E-05,1.67825976404856E-06,-0.17578125,0,0
-1.62163960339967E-05,4.24389725139918E-07,-0.17578125,0,0
-2.4327726350748E-05,-3.54325180751403E-07,-0.17578125,0,0
-1.84633863682393E-05,-3.74789266288644E-07,-0.17578125,0,0
-2.01192542590434E-05,2.06783761314E-06,-0.17578125,0,0
-1.57680860866094E-05,5.17252374265809E-06,-0.17578125,0,0
-1.82073363248492E-05,8.94421009434154E-06,-0.17578125,0,0
-1.89456477528438E-05,1.11788149297354E-05,-0.17578125,0,0
-2.18474833673099E-05,1.16910532597103E-05,-0.17578125,0,0
-2.14800111280056E-05,1.23174031614326E-05,-0.17578125,0,0
-2.15991658478742E-05,1.39172043418512E-05,-0.17578125,0,0
-2.23924344027182E-05,1.46137699630344E-05,-0.17578125,0,0
-2.16910357266897E-05,1.44208433994208E-05,-0.17578125,0,0
-2.18603581743082E-05,1.37580555019667E-05,-0.17578125,0,0
-2.106204010488E-05,1.25685373859596E-05,-0.17578125,0,0
-2.21256887016352E-05,1.1302950042591E-05,-0.17578125,0,0
-2.1168250896153E-05,9.38781249715248E-06,-0.17578125,0,0
-2.12318846024573E-05,7.53520043872413E-06,-0.17578125,0,0
-1.98075013031485E-05,6.12860230830847E-06,-0.17578125,0,0
-2.09458685276331E-05,5.48108846487594E-06,-0.17578125,0,0
-2.15860272874124E-05,6.1101486608095E-06,-0.17578125,0,0
-2.18264522118261E-05,7.74841828388162E-06,-0.17578125,0,0
-1.92396146303508E-05,9.31555314309662E-06,-0.17578125,0,0
-1.79649068741128E-05,1.07024288809043E-05,-0.17578125,0,0
-1.81999457709026E-05,1.13595106085995E-05,-0.17578125,0,0
-1.97275930986507E-05,1.08483363874257E-05,-0.17578125,0,0
-2.06516833713977E-05,1.12045381683856E-05,-0.17578125,0,0
-2.23918887058971E-05,1.45457916005398E-05,-0.17578125,0,0
-1.98783072846709E-05,1.37275983433938E-05,-0.17578125,0,0
-2.91727137664566E-05,1.85151438927278E-05,-0.17578125,0,0
-2.40096014749724E-05,1.18302605187637E-05,-0.17578125,0,0
-2.99122966680443E-05,1.32767263494316E-05,-0.17578125,0,0
-2.48256255872548E-05,8.16618012322579E-06,-0.17578125,0,0
-2.6614254238666E-05,1.06892139228876E-05,-0.17578125,0,0
-2.60073120443849E-05,1.1836520570796E-05,-0.17578125,0,0
-2.91934811684769E-05,1.48585595525219E-05,-0.17578125,0,0
-2.96247981168563E-05,1.61911157192662E-05,-0.17578125,0,0
-2.97203514492139E-05,1.49332572618732E-05,-0.17578125,0,0
-2.88894698314834E-05,8.62078923091758E-06,-0.17578125,0,0
-2.78830484603532E-05,1.56700025399914E-06,-0.17578125,0,0
-3.03195156448055E-05,4.43961710061558E-07,-0.17578125,0,0
-3.13325763272587E-05,2.58948807640991E-06,-0.17578125,0,0
-3.34570322593208E-05,8.37650259200018E-06,-0.17578125,0,0
-3.27528723573778E-05,1.22157307487214E-05,-0.17578125,0,0
-3.37500096065924E-05,1.55864054249832E-05,-0.17578125,0,0
-3.1987587135518E-05,1.47879118230776E-05,-0.17578125,0,0
-3.14394128508866E-05,1.3330692127056E-05,-0.17578125,0,0
-2.97996175504522E-05,1.19777396321297E-05,-0.17578125,0,0
-3.19697319355328E-05,1.47709470184054E-05,-0.17578125,0,0
-3.32255294779316E-05,1.72723848663736E-05,-0.17578125,0,0
-3.3385818824172E-05,1.79937615030212E-05,-0.17578125,0,0
-3.1290139304474E-05,1.64791399583919E-05,-0.17578125,0,0
-2.92598087980878E-05,1.80884926521685E-05,-0.17578125,0,0
-2.82536457234528E-05,2.17631968553178E-05,-0.17578125,0,0
-2.81167704088148E-05,2.24419854930602E-05,-0.17578125,0,0
-2.20603269553976E-05,1.47023820318282E-05,-0.17578125,0,0
-3.08189337374642E-05,1.7615029719309E-05,-0.17578125,0,0
-2.28811368288007E-05,9.50788398768054E-06,-0.17578125,0,0
-2.83951339952182E-05,1.24198968478595E-05,-0.17578125,0,0
-2.33559876505751E-05,8.12894086266169E-06,-0.17578125,0,0
-2.66419883701019E-05,1.19952555905911E-05,-0.17578125,0,0
-2.49038748734165E-05,1.15663624455919E-05,-0.17578125,0,0
-2.62403427768731E-05,1.22548772196751E-05,-0.17578125,0,0
-2.50905613938812E-05,1.15178809210192E-05,-0.17578125,0,0
-2.484842116246E-05,9.44315979722887E-06,-0.17578125,0,0
-2.45714854827384E-05,3.27821635437431E-06,-0.17578125,0,0
-2.39113323914353E-05,-4.30513000537758E-06,-0.17578125,0,0
-2.60375381913036E-05,-8.36868275655434E-06,-0.17578125,0,0
-2.61415152635891E-05,-1.08568447103607E-05,-0.17578125,0,0
-2.7509009669302E-05,-8.08284585218644E-06,-0.17578125,0,0
-2.63185684161726E-05,-4.85333930555498E-06,-0.17578125,0,0
-2.81513821391854E-05,-3.64746256309445E-07,-0.17578125,0,0
-2.72583365585888E-05,6.74076829909609E-07,-0.17578125,0,0
-2.77358030871255E-05,2.661494363565E-06,-0.17578125,0,0
-2.63714518951019E-05,3.73026796296472E-06,-0.17578125,0,0
-2.76256087090587E-05,7.37665095584816E-06,-0.17578125,0,0
-2.71666503977031E-05,1.1151387298014E-05,-0.17578125,0,0
-2.65141607087571E-05,1.54123044922017E-05,-0.17578125,0,0
-2.39569399127504E-05,1.82890817086445E-05,-0.17578125,0,0
-2.33579958148766E-05,2.00313570530852E-05,-0.17578125,0,0
-2.33811897487612E-05,1.84805012395373E-05,-0.17578125,0,0
-2.3691116439295E-05,1.70639650605153E-05,-0.17578125,0,0
-1.93465239135548E-05,1.35045847855508E-05,-0.17578125,0,0
-2.72027518803952E-05,1.90003647730919E-05,-0.17578125,0,0
-2.01950133487117E-05,1.53220407810295E-05,-0.17578125,0,0
-2.53125544986688E-05,1.95633474504575E-05,-0.17578125,0,0
-2.20133733819239E-05,1.58006041601766E-05,-0.17578125,0,0
-2.59319986071205E-05,1.59046976477839E-05,-0.17578125,0,0
-2.50341799983289E-05,1.21897919598268E-05,-0.17578125,0,0
-2.56246239587199E-05,1.08977865238558E-05,-0.17578125,0,0
-2.30999576160684E-05,9.95256232272368E-06,-0.17578125,0,0
-2.12872746487847E-05,1.07769556052517E-05,-0.17578125,0,0
-2.06070253625512E-05,1.17699655675096E-05,-0.17578125,0,0
-2.07523517019581E-05,1.23113313748036E-05,-0.17578125,0,0
-2.38435150095029E-05,1.35210621010629E-05,-0.17578125,0,0
-2.38989741774276E-05,1.16565961434389E-05,-0.17578125,0,0
-2.35967490880284E-05,1.09936663648114E-05,-0.17578125,0,0
-2.11392380151665E-05,1.10103019324015E-05,-0.17578125,0,0
-2.19314715650398E-05,1.37341967274551E-05,-0.17578125,0,0
-2.12164104596013E-05,1.39646253956016E-05,-0.17578125,0,0
-2.22946619032882E-05,1.49530569615308E-05,-0.17578125,0,0
-2.12361774174497E-05,1.60694507940207E-05,-0.17578125,0,0
-2.06517815968255E-05,1.87781461136183E-05,-0.17578125,0,0
-1.90505343198311E-05,1.97702884179307E-05,-0.17578125,0,0
-2.03607287403429E-05,2.11374062928371E-05,-0.17578125,0,0
-2.19384764932329E-05,2.0553849026328E-05,-0.17578125,0,0
-2.39782402786659E-05,1.96665514522465E-05,-0.17578125,0,0
-2.45161845668918E-05,1.9012742995983E-05,-0.17578125,0,0
-2.43067443079781E-05,1.87498299055733E-05,-0.17578125,0,0
-2.00233680516249E-05,1.45689855344244E-05,-0.17578125,0,0
-2.90945772576379E-05,1.9521830836311E-05,-0.17578125,0,0
-2.27711934712715E-05,1.3684252735402E-05,-0.17578125,0,0
-2.76724058494437E-05,1.68787482834887E-05,-0.17578125,0,0
-2.43419781327248E-05,1.35420095830341E-05,-0.17578125,0,0
-2.79924515780294E-05,1.74099550349638E-05,-0.17578125,0,0
-2.56086459557991E-05,1.50114146890701E-05,-0.17578125,0,0
-2.67011673713569E-05,1.10582996057929E-05,-0.17578125,0,0
-2.62270168605028E-05,6.21320759819355E-06,-0.17578125,0,0
-2.58933141594753E-05,5.35004573976039E-06,-0.17578125,0,0
-2.55754148383858E-05,7.28010218153941E-06,-0.17578125,0,0
-2.43000904447399E-05,1.0606246178213E-05,-0.17578125,0,0
-2.46491199504817E-05,1.49984898598632E-05,-0.17578125,0,0
-2.39813361986307E-05,1.60088566190097E-05,-0.17578125,0,0
-2.61650548054604E-05,1.70508883456932E-05,-0.17578125,0,0
-2.62804842350306E-05,1.5936471754685E-05,-0.17578125,0,0
-2.8737194952555E-05,1.5003537555458E-05,-0.17578125,0,0
-2.89355812128633E-05,9.56384610617533E-06,-0.17578125,0,0
-2.99435851047747E-05,5.22581331097172E-06,-0.17578125,0,0
-2.83277040580288E-05,3.83164160666638E-06,-0.17578125,0,0
-2.84263605863089E-05,8.65903803060064E-06,-0.17578125,0,0
-2.7891868739971E-05,1.17322306323331E-05,-0.17578125,0,0
-2.80279637081549E-05,1.17354911708389E-05,-0.17578125,0,0
-2.55394825217081E-05,8.7612024799455E-06,-0.17578125,0,0
-2.44518705585506E-05,6.50152514936053E-06,-0.17578125,0,0
-2.55736485996749E-05,5.52247911400627E-06,-0.17578125,0,0
-2.64720802078955E-05,3.44017780662398E-06,-0.17578125,0,0
-2.16521948459558E-05,7.27323595128837E-07,-0.17578125,0,0
-3.07638583763037E-05,2.63349022588955E-07,-0.17578125,0,0
-2.38356115005445E-05,1.9801937014563E-06,-0.17578125,0,0
-2.926425440819E-05,6.12513986197882E-06,-0.17578125,0,0
-2.33720311371144E-05,7.48200682210154E-06,-0.17578125,0,0
-2.57537612924352E-05,6.96735696692485E-06,-0.17578125,0,0
-2.40254012169316E-05,4.95445192427724E-06,-0.17578125,0,0
-2.63119272858603E-05,3.78010940949025E-06,-0.17578125,0,0
-2.53696762229083E-05,5.01779095429811E-06,-0.17578125,0,0
-2.42118949245196E-05,6.45502177576418E-06,-0.17578125,0,0
-2.43822323682252E-05,6.90861315888469E-06,-0.17578125,0,0
-2.40866702370113E-05,6.60373098071432E-06,-0.17578125,0,0
-2.47324096562807E-05,6.03254238740192E-06,-0.17578125,0,0
-2.25992025661981E-05,6.49314188194694E-06,-0.17578125,0,0
-2.34311246458674E-05,9.14804058993468E-06,-0.17578125,0,0
-2.36141804634826E-05,1.16572073238785E-05,-0.17578125,0,0
-2.64668960880954E-05,1.27653638628544E-05,-0.17578125,0,0
-2.48792821366806E-05,1.26916602312122E-05,-0.17578125,0,0
-2.37057647609618E-05,1.28286046674475E-05,-0.17578125,0,0
-2.15691052289912E-05,1.09391748992493E-05,-0.17578125,0,0
-2.24466875806684E-05,6.75346018397249E-06,-0.17578125,0,0
-2.22504295379622E-05,3.60345188710198E-06,-0.17578125,0,0
-2.3167036488303E-05,2.44377906710724E-06,-0.17578125,0,0
-2.27366981562227E-05,2.03224522010714E-06,-0.17578125,0,0
-2.30563164222986E-05,2.99463590636151E-06,-0.17578125,0,0
-2.33397313422756E-05,6.42861823507701E-06,-0.17578125,0,0
-2.38723696384113E-05,1.06604984466685E-05,-0.17578125,0,0
-1.9756185793085E-05,1.00508377727238E-05,-0.17578125,0,0
-2.81766715488629E-05,1.32919230964035E-05,-0.17578125,0,0
-2.13376442843582E-05,9.61729983828263E-06,-0.17578125,0,0
-2.65004819084425E-05,1.41219034048845E-05,-0.17578125,0,0
-2.2945947421249E-05,1.24349335237639E-05,-0.17578125,0,0
-2.6187861294602E-05,1.47297232615529E-05,-0.17578125,0,0
-2.48768028541235E-05,1.43479301186744E-05,-0.17578125,0,0
-2.61920013144845E-05,1.4712068150402E-05,-0.17578125,0,0
-2.52184363489505E-05,1.61498137458693E-05,-0.17578125,0,0
-2.48269807343604E-05,1.82322546606883E-05,-0.17578125,0,0
-2.5159286451526E-05,1.82370913535124E-05,-0.17578125,0,0
-2.4995424610097E-05,1.59216251631733E-05,-0.17578125,0,0
-2.58780855801888E-05,1.46417614814709E-05,-0.17578125,0,0
-2.47057741944445E-05,1.40707261380157E-05,-0.17578125,0,0
-2.52755507972324E-05,1.62142987392144E-05,-0.17578125,0,0
-2.30333644140046E-05,1.66786212503212E-05,-0.17578125,0,0
-2.20138572331052E-05,1.59337560035056E-05,-0.17578125,0,0
-1.94438671314856E-05,1.40698466566391E-05,-0.17578125,0,0
-2.03256950044306E-05,1.60323616000824E-05,-0.17578125,0,0
-2.04891275643604E-05,1.85534900083439E-05,-0.17578125,0,0
-2.17701690417016E-05,1.96495075215353E-05,-0.17578125,0,0
-1.99991245608544E-05,1.77412002813071E-05,-0.17578125,0,0
-1.91604613064555E-05,1.60732979566092E-05,-0.17578125,0,0
-1.90323135029757E-05,1.5245022950694E-05,-0.17578125,0,0
-2.05605283554178E-05,1.57343311002478E-05,-0.17578125,0,0
-2.13071180041879E-05,1.55431407620199E-05,-0.17578125,0,0
-2.0394963939907E-05,1.5637082469766E-05,-0.17578125,0,0
-1.60792060341919E-05,1.29273093989468E-05,-0.17578125,0,0
-2.36102659982862E-05,1.90491973626195E-05,-0.17578125,0,0
-1.97008521354292E-05,1.55900524987374E-05,-0.17578125,0,0
-2.44897273660172E-05,1.73190674104262E-05,-0.17578125,0,0
-2.17262877413305E-05,1.17111048894003E-05,-0.17578125,0,0
-2.45003357122187E-05,1.29981126519851E-05,-0.17578125,0,0
-2.23891001951415E-05,1.18804000521777E-05,-0.17578125,0,0
-2.28632889047731E-05,1.11727404146222E-05,-0.17578125,0,0
-2.23753722821129E-05,9.65987510426203E-06,-0.17578125,0,0
-2.27184773393674E-05,9.78217667579884E-06,-0.17578125,0,0
-2.28445442189695E-05,9.29297948459862E-06,-0.17578125,0,0
-2.16170683415839E-05,8.61626904224977E-06,-0.17578125,0,0
-2.11532424145844E-05,7.10399172021425E-06,-0.17578125,0,0
-2.03613526537083E-05,1.5843188521103E-06,-0.17578125,0,0
-2.332587246201E-05,-2.50228981713008E-06,-0.17578125,0,0
-2.5002957045217E-05,-4.97119526698953E-06,-0.17578125,0,0
-2.69908414338715E-05,-2.76442915492225E-06,-0.17578125,0,0
-2.53215239354176E-05,1.04791993749132E-07,-0.17578125,0,0
-2.43273134401534E-05,4.5378315007838E-06,-0.17578125,0,0
-2.25907187996199E-05,5.59605223315884E-06,-0.17578125,0,0
-2.26782103709411E-05,6.22131983618601E-06,-0.17578125,0,0
-2.11152819247218E-05,6.37225502941874E-06,-0.17578125,0,0
-2.10995767702116E-05,7.99606186774326E-06,-0.17578125,0,0
-2.16864791582339E-05,9.34256058826577E-06,-0.17578125,0,0
-2.24873601837317E-05,1.17358022180269E-05,-0.17578125,0,0
-2.18361419683788E-05,1.2265099940123E-05,-0.17578125,0,0
-2.07290850084974E-05,1.02833337223274E-05,-0.17578125,0,0
-1.67569814948365E-05,7.78059529693564E-06,-0.17578125,0,0
-2.41855523199774E-05,8.90318187884986E-06,-0.17578125,0,0
-1.91048802662408E-05,5.69400924632646E-07,-0.17578125,0,0
-2.33415903494461E-05,-1.19114270091814E-06,-0.17578125,0,0
-1.98396974155912E-05,-5.87534543683432E-07,-0.17578125,0,0
-2.22537400986766E-05,5.74111618334427E-06,-0.17578125,0,0
-2.08734345505945E-05,7.59888325774227E-06,-0.17578125,0,0
-2.1760515664937E-05,7.26059761291253E-06,-0.17578125,0,0
-1.98773232114036E-05,6.13481961408979E-06,-0.17578125,0,0
-1.93229207070544E-05,4.93257539346814E-06,-0.17578125,0,0
-2.03674517251784E-05,6.65666721033631E-06,-0.17578125,0,0
-2.11886781471549E-05,1.05653416540008E-05,-0.17578125,0,0
-2.22186154132942E-05,1.40565716719721E-05,-0.17578125,0,0
-2.05774940695846E-05,1.35588206831017E-05,-0.17578125,0,0
-2.01651910174405E-05,1.20167160275741E-05,-0.17578125,0,0
-1.82047224370763E-05,1.1024347259081E-05,-0.17578125,0,0
-1.85516710189404E-05,1.28969086290454E-05,-0.17578125,0,0
-1.78225745912641E-05,1.33581525005866E-05,-0.17578125,0,0
-1.95791562873637E-05,1.26823815662647E-05,-0.17578125,0,0
-1.99204096134054E-05,1.22139836093993E-05,-0.17578125,0,0
-2.13794392038835E-05,1.32826144181308E-05,-0.17578125,0,0
-2.01800357899629E-05,1.30954322230536E-05,-0.17578125,0,0
-1.89300335478038E-05,1.27697921925574E-05,-0.17578125,0,0
-1.85272710950812E-05,1.38650630105985E-05,-0.17578125,0,0
-1.96426517504733E-05,1.45510530273896E-05,-0.17578125,0,0
-1.95018419617554E-05,1.39054254759685E-05,-0.17578125,0,0
-1.92602674360387E-05,1.40794318213011E-05,-0.17578125,0,0
-1.62147280207137E-05,9.9310791483731E-06,-0.17578125,0,0
-2.35403203987516E-05,1.32163040689193E-05,-0.17578125,0,0
-1.78228729055263E-05,1.09369930214598E-05,-0.17578125,0,0
-1.9976039766334E-05,1.66948320838856E-05,-0.17578125,0,0
-1.51681970237405E-05,1.67323432833655E-05,-0.17578125,0,0
-1.86872330232291E-05,1.88964659173507E-05,-0.17578125,0,0
-2.01565799216041E-05,1.48207318488858E-05,-0.17578125,0,0
-2.33792961807922E-05,1.13607475213939E-05,-0.17578125,0,0
-2.35833122133045E-05,8.39338099467568E-06,-0.17578125,0,0
-2.32138681894867E-05,7.49875243855058E-06,-0.17578125,0,0
-2.31905542023014E-05,7.14866337148123E-06,-0.17578125,0,0
-2.23737715714378E-05,6.84988299326506E-06,-0.17578125,0,0
-2.2532040020451E-05,7.01620501786238E-06,-0.17578125,0,0
-2.18659497477347E-05,5.49664900972857E-06,-0.17578125,0,0
-2.39998444158118E-05,5.19121385877952E-06,-0.17578125,0,0
-2.51369910984067E-05,3.39919552061474E-06,-0.17578125,0,0
-2.74175054073567E-05,2.59715693573526E-06,-0.17578125,0,0
-2.76275914075086E-05,1.8970334849655E-06,-0.17578125,0,0
-2.95866866508732E-05,3.92352512790239E-06,-0.17578125,0,0
-3.0280383725767E-05,4.12546842198935E-06,-0.17578125,0,0
-3.18821257678792E-05,3.03265460388502E-06,-0.17578125,0,0
-3.17711310344748E-05,2.08370192922303E-06,-0.17578125,0,0
-3.15043944283389E-05,4.83341864310205E-06,-0.17578125,0,0
-2.88490064122016E-05,8.13522365206154E-06,-0.17578125,0,0
-2.72092638624599E-05,1.03396732811234E-05,-0.17578125,0,0
-2.82436776615214E-05,8.72080181579804E-06,-0.17578125,0,0
-2.9923099646112E-05,7.35847788746469E-06,-0.17578125,0,0
-2.32613238040358E-05,6.68246821078355E-06,-0.17578125,0,0
-3.11390649585519E-05,9.99749408947537E-06,-0.17578125,0,0
-2.24635950871743E-05,9.51911351876333E-06,-0.17578125,0,0
-3.03259330394212E-05,1.35494283313164E-05,-0.17578125,0,0
-2.55968188866973E-05,1.25833248603158E-05,-0.17578125,0,0
-2.90702046186198E-05,1.19691530926502E-05,-0.17578125,0,0
-2.76057799055707E-05,8.52689026942244E-06,-0.17578125,0,0
-3.08943526761141E-05,6.06642106504296E-06,-0.17578125,0,0
-3.11745025101118E-05,7.09505457052728E-06,-0.17578125,0,0
-3.13091477437411E-05,1.05143672044505E-05,-0.17578125,0,0
-3.1132840376813E-05,1.23442141557462E-05,-0.17578125,0,0
-3.06034744426142E-05,1.3130813385942E-05,-0.17578125,0,0
-3.18785969284363E-05,1.43889919854701E-05,-0.17578125,0,0
-2.99412713502534E-05,1.47180035128258E-05,-0.17578125,0,0
-3.02738735626917E-05,1.61647021741373E-05,-0.17578125,0,0
-2.86216072709067E-05,1.68476126418682E-05,-0.17578125,0,0
-2.94925521302503E-05,1.7158206901513E-05,-0.17578125,0,0
-2.70500968326814E-05,1.70694111147895E-05,-0.17578125,0,0
-2.69806278083706E-05,1.86098841368221E-05,-0.17578125,0,0
-2.48616288445191E-05,2.00160320673604E-05,-0.17578125,0,0
-2.50596440309891E-05,2.12109334825072E-05,-0.17578125,0,0
-2.36951273109298E-05,2.06781915039755E-05,-0.17578125,0,0
-2.27285163418856E-05,1.9425793652772E-05,-0.17578125,0,0
-1.99767455342226E-05,1.69976301549468E-05,-0.17578125,0,0
-1.90459886653116E-05,1.5911738955765E-05,-0.17578125,0,0
-1.83090141945286E-05,1.71388692251639E-05,-0.17578125,0,0
-1.79336366272764E-05,1.82886706170393E-05,-0.17578125,0,0
-1.50148835018626E-05,1.31849592435174E-05,-0.17578125,0,0
-2.13786461245036E-05,1.73474800249096E-05,-0.17578125,0,0
-1.59478604473406E-05,1.20563536256668E-05,-0.17578125,0,0
-2.00371378014097E-05,1.49017951116548E-05,-0.17578125,0,0
-1.89267539099092E-05,1.07095929706702E-05,-0.17578125,0,0
-2.20547281060135E-05,1.31148835862405E-05,-0.17578125,0,0
-1.94633103092201E-05,1.05704775705817E-05,-0.17578125,0,0
-1.95733646251028E-05,8.3744125731755E-06,-0.17578125,0,0
-2.00647536985343E-05,6.2562721723225E-06,-0.17578125,0,0
-2.14684132515686E-05,6.99294423611718E-06,-0.17578125,0,0
-2.41587513301056E-05,7.41009716875851E-06,-0.17578125,0,0
-2.529562516429E-05,7.97374923422467E-06,-0.17578125,0,0
-2.59900953096803E-05,1.00763490991085E-05,-0.17578125,0,0
-2.42994265136076E-05,1.0902741450991E-05,-0.17578125,0,0
-2.43413815042004E-05,1.29053205455421E-05,-0.17578125,0,0
-2.34428207477322E-05,1.22646551972139E-05,-0.17578125,0,0
-2.43169197347015E-05,1.14614549602265E-05,-0.17578125,0,0
-2.43700487772003E-05,7.32364605937619E-06,-0.17578125,0,0
-2.6765161237563E-05,5.54157622900675E-06,-0.17578125,0,0
-2.79057148873108E-05,5.32534295416554E-06,-0.17578125,0,0
-2.90322022920009E-05,8.6241352619254E-06,-0.17578125,0,0
-2.85034166154219E-05,9.78454863798106E-06,-0.17578125,0,0
-2.85531641566195E-05,9.62705416895915E-06,-0.17578125,0,0
-2.86513168248348E-05,8.44419082568493E-06,-0.17578125,0,0
-2.9332786652958E-05,8.20318837213563E-06,-0.17578125,0,0
-2.90553034574259E-05,9.93201592791593E-06,-0.17578125,0,0
-2.79490504908608E-05,1.19459928100696E-05,-0.17578125,0,0
-2.17711385630537E-05,1.03734901131247E-05,-0.17578125,0,0
-2.97913156828145E-05,1.45472949952818E-05,-0.17578125,0,0
-2.16152511711698E-05,1.01619971246691E-05,-0.17578125,0,0
-2.71732533292379E-05,1.16020437417319E-05,-0.17578125,0,0
-2.13525217986899E-05,1.1091144187958E-05,-0.17578125,0,0
-2.43269878410501E-05,1.55289417307358E-05,-0.17578125,0,0
-2.24510695261415E-05,1.35550335471635E-05,-0.17578125,0,0
-2.41115958488081E-05,9.66347943176515E-06,-0.17578125,0,0
-2.31065387197305E-05,6.95489416102646E-06,-0.17578125,0,0
-2.27894906856818E-05,8.73373937793076E-06,-0.17578125,0,0
-2.38148586504394E-05,1.08744179669884E-05,-0.17578125,0,0
-2.44920556724537E-05,9.62632475420833E-06,-0.17578125,0,0
-2.66679053311236E-05,9.10857488634065E-06,-0.17578125,0,0
-2.6096755391336E-05,1.06562838482205E-05,-0.17578125,0,0
-2.7307807613397E-05,1.48840435940656E-05,-0.17578125,0,0
-2.61889035755303E-05,1.6995278201648E-05,-0.17578125,0,0
-2.76101272902451E-05,1.75558234332129E-05,-0.17578125,0,0
-2.6677205823944E-05,1.41653217724524E-05,-0.17578125,0,0
-2.81514057860477E-05,1.16793244160363E-05,-0.17578125,0,0
-2.69680549536133E-05,9.74594513536431E-06,-0.17578125,0,0
-2.6563571736915E-05,1.02053127193358E-05,-0.17578125,0,0
-2.48605520027922E-05,1.12444977276027E-05,-0.17578125,0,0
-2.51989386015339E-05,1.21922948892461E-05,-0.17578125,0,0
-2.54562164627714E-05,1.24443504319061E-05,-0.17578125,0,0
-2.61344302998623E-05,1.21074144772138E-05,-0.17578125,0,0
-2.5820863811532E-05,1.10533346742159E-05,-0.17578125,0,0
-2.59698772424599E-05,1.16642349894391E-05,-0.17578125,0,0
-2.2212187104742E-05,9.26908796827774E-06,-0.17578125,0,0
-3.15208635583986E-05,9.59569024416851E-06,-0.17578125,0,0
-2.20392630581046E-05,2.10577036341419E-06,-0.17578125,0,0
-2.61537825281266E-05,4.76064133181353E-06,-0.17578125,0,0
-2.23889510380104E-05,4.8833080654731E-06,-0.17578125,0,0
-2.67444484052248E-05,9.46151340031065E-06,-0.17578125,0,0
-2.55322265729774E-05,9.71039571595611E-06,-0.17578125,0,0
-2.6935784262605E-05,9.55460564000532E-06,-0.17578125,0,0
-2.79560717899585E-05,1.11656190711074E-05,-0.17578125,0,0
-3.01077216136036E-05,1.33797757371212E-05,-0.17578125,0,0
-3.0828046874376E-05,1.29961981656379E-05,-0.17578125,0,0
-2.96022935799556E-05,1.15373377411743E-05,-0.17578125,0,0
-3.10214527416974E-05,1.15279972305871E-05,-0.17578125,0,0
-3.1337342079496E-05,9.7884185379371E-06,-0.17578125,0,0
-3.39523212460335E-05,8.93577907845611E-06,-0.17578125,0,0
-3.2968138839351E-05,7.45933948564925E-06,-0.17578125,0,0
-3.30361290252768E-05,6.41808128420962E-06,-0.17578125,0,0
-3.13407654175535E-05,4.05822584070847E-06,-0.17578125,0,0
-3.30372131429613E-05,3.65328946827503E-06,-0.17578125,0,0
-3.28822497976944E-05,2.70007853941934E-06,-0.17578125,0,0
-3.33098614646588E-05,1.95919596990279E-06,-0.17578125,0,0
-3.28105707012583E-05,1.34142680963123E-06,-0.17578125,0,0
-3.33247517119162E-05,3.12229622068116E-06,-0.17578125,0,0
-3.12248630507384E-05,4.99500265505048E-06,-0.17578125,0,0
-2.82777637039544E-05,5.29408316651825E-06,-0.17578125,0,0
-2.67128925770521E-05,4.53132361144526E-06,-0.17578125,0,0
-2.78106817859225E-05,4.50727429779363E-06,-0.17578125,0,0
-2.32861930271611E-05,5.33889669895871E-06,-0.17578125,0,0
-3.24285647366196E-05,9.88441115623573E-06,-0.17578125,0,0
-2.27526452363236E-05,9.97651295620017E-06,-0.17578125,0,0
-2.78897659882205E-05,1.09593938759645E-05,-0.17578125,0,0
-2.264305112476E-05,1.12251927930629E-05,-0.17578125,0,0
-2.41885900322814E-05,1.27992061607074E-05,-0.17578125,0,0
-2.02817827812396E-05,1.12259522211389E-05,-0.17578125,0,0
-2.1007066607126E-05,9.5803497970337E-06,-0.17578125,0,0
-2.04922980628908E-05,9.93839421425946E-06,-0.17578125,0,0
-2.13138955587056E-05,1.15169314085506E-05,-0.17578125,0,0
-2.20096444536466E-05,1.28435167425778E-05,-0.17578125,0,0
-2.12379800359486E-05,1.54610443132697E-05,-0.17578125,0,0
-2.16290882235626E-05,1.84051423275378E-05,-0.17578125,0,0
-1.96988512470853E-05,1.67979105754057E-05,-0.17578125,0,0
-2.09676145459525E-05,1.29327445392846E-05,-0.17578125,0,0
-2.09033096325584E-05,7.67777419241611E-06,-0.17578125,0,0
-2.25910789595218E-05,3.84469240088947E-06,-0.17578125,0,0
-2.03974286705488E-05,4.30948011853616E-06,-0.17578125,0,0
-2.05294818442781E-05,9.46648196986644E-06,-0.17578125,0,0
-1.93256964848842E-05,1.46088586916449E-05,-0.17578125,0,0
-1.94534350157483E-05,1.63015010912204E-05,-0.17578125,0,0
-1.74698943737894E-05,1.22894707601517E-05,-0.17578125,0,0
-1.77701131178765E-05,6.35180776953348E-06,-0.17578125,0,0
-1.86608849617187E-05,2.93264884021482E-06,-0.17578125,0,0
-1.95398679352365E-05,4.39647465100279E-06,-0.17578125,0,0
-1.82001604116522E-05,7.6472470027511E-06,-0.17578125,0,0
-1.77181900653522E-05,8.52079756441526E-06,-0.17578125,0,0
-1.62416981766E-05,7.48097500036238E-06,-0.17578125,0,0
-2.46962208620971E-05,1.17027393571334E-05,-0.17578125,0,0
-2.02009687200189E-05,9.88449210126419E-06,-0.17578125,0,0
-2.35769075516146E-05,9.73635269474471E-06,-0.17578125,0,0
-2.04529405891662E-05,6.65220568407676E-06,-0.17578125,0,0
-2.20691708818777E-05,9.65137132880045E-06,-0.17578125,0,0
-1.94139247469138E-05,1.22918190754717E-05,-0.17578125,0,0
-2.0306999431341E-05,1.53801684064092E-05,-0.17578125,0,0
-2.21392347157234E-05,1.63002423505532E-05,-0.17578125,0,0
-2.3945642169565E-05,1.62374126375653E-05,-0.17578125,0,0
-2.49674812948797E-05,1.53157488966826E-05,-0.17578125,0,0
-2.47282368945889E-05,1.40493939397857E-05,-0.17578125,0,0
-2.49756576522486E-05,1.37059123517247E-05,-0.17578125,0,0
-2.39984638028545E-05,1.32092072817613E-05,-0.17578125,0,0
-2.53967045864556E-05,1.35314985527657E-05,-0.17578125,0,0
-2.44924394792179E-05,1.13435244202265E-05,-0.17578125,0,0
-2.34562339755939E-05,8.38567120808875E-06,-0.17578125,0,0
-2.12784143514E-05,6.30729391559726E-06,-0.17578125,0,0
-2.25981966650579E-05,7.7517452155007E-06,-0.17578125,0,0
-2.27412438107422E-05,8.58562816574704E-06,-0.17578125,0,0
-2.34926828852622E-05,9.78685238806065E-06,-0.17578125,0,0
-2.40944591496373E-05,1.16029868877376E-05,-0.17578125,0,0
-2.47199950536015E-05,1.35008840516093E-05,-0.17578125,0,0
-2.36309188039741E-05,1.44950836329372E-05,-0.17578125,0,0
-2.35539082495961E-05,1.54902372742072E-05,-0.17578125,0,0
-2.39700166275725E-05,1.69644608831732E-05,-0.17578125,0,0
-2.42934547713958E-05,1.93126943486277E-05,-0.17578125,0,0
-1.94642780115828E-05,1.61870302690659E-05,-0.17578125,0,0
-2.68884814431658E-05,2.14635838347021E-05,-0.17578125,0,0
-1.94348031072877E-05,1.42364579005516E-05,-0.17578125,0,0
-2.41176348936278E-05,1.80642928171437E-05,-0.17578125,0,0
-1.94119584193686E-05,1.44300502142869E-05,-0.17578125,0,0
-2.16208809433738E-05,1.8360140529694E-05,-0.17578125,0,0
-1.88650665222667E-05,1.74255219462793E-05,-0.17578125,0,0
-1.98077505046967E-05,1.82264702743851E-05,-0.17578125,0,0
-1.86585184565047E-05,1.70444764080457E-05,-0.17578125,0,0
-1.82643307198305E-05,1.44311788972118E-05,-0.17578125,0,0
-1.86508586921263E-05,1.21573848446133E-05,-0.17578125,0,0
-1.86410434253048E-05,1.11293938971357E-05,-0.17578125,0,0
-2.04316947929328E-05,1.18258658403647E-05,-0.17578125,0,0
-1.98439629457425E-05,8.98642520041903E-06,-0.17578125,0,0
-2.13610546779819E-05,8.31716533866711E-06,-0.17578125,0,0
-2.0866571503575E-05,7.42736801839783E-06,-0.17578125,0,0
-2.20190686377464E-05,8.487422746839E-06,-0.17578125,0,0
-2.03244380827527E-05,7.24992423783988E-06,-0.17578125,0,0
-2.0790976122953E-05,8.23853952169884E-06,-0.17578125,0,0
-2.09138634090777E-05,9.27678411244415E-06,-0.17578125,0,0
-2.25827225222019E-05,1.18595962703694E-05,-0.17578125,0,0
-2.15156487683998E-05,1.2762303413183E-05,-0.17578125,0,0
-2.08131896215491E-05,1.22979545267299E-05,-0.17578125,0,0
-1.95107804756844E-05,8.87706482899375E-06,-0.17578125,0,0
-1.9711547793122E-05,5.46151022717822E-06,-0.17578125,0,0
-2.11662299989257E-05,3.58209581463598E-06,-0.17578125,0,0
-2.34761500905734E-05,4.92425124321016E-06,-0.17578125,0,0
-1.9345794498804E-05,4.52980430054595E-06,-0.17578125,0,0
-2.5230005121557E-05,4.77175171909039E-06,-0.17578125,0,0
-1.73330117831938E-05,2.61148761637742E-06,-0.17578125,0,0
-2.47643547481857E-05,5.32107151229866E-06,-0.17578125,0,0
-2.26022020797245E-05,6.07903393756715E-06,-0.17578125,0,0
-2.62582434515934E-05,7.7082386269467E-06,-0.17578125,0,0
-2.39805358432932E-05,6.16410170550807E-06,-0.17578125,0,0
-2.40665704041021E-05,5.7130710047204E-06,-0.17578125,0,0
-2.31765461649047E-05,7.08148763806093E-06,-0.17578125,0,0
-2.34578983508982E-05,9.02737792785047E-06,-0.17578125,0,0
-2.28661447181366E-05,9.35825573833426E-06,-0.17578125,0,0
-2.04408024728764E-05,8.71560587256681E-06,-0.17578125,0,0
-1.97429781110259E-05,8.6110549091245E-06,-0.17578125,0,0
-1.86003089766018E-05,8.31768738862593E-06,-0.17578125,0,0
-2.1068733985885E-05,8.97643440112006E-06,-0.17578125,0,0
-2.13085368159227E-05,9.54624465521192E-06,-0.17578125,0,0
-2.30837977142073E-05,1.10229975689435E-05,-0.17578125,0,0
-2.29673260037089E-05,1.14205558929825E-05,-0.17578125,0,0
-2.51863475568825E-05,1.17715026135556E-05,-0.17578125,0,0
-2.47665957431309E-05,1.18546086014248E-05,-0.17578125,0,0
-2.51601795753231E-05,1.25716051115887E-05,-0.17578125,0,0
-2.41710440604948E-05,1.14331096483511E-05,-0.17578125,0,0
-2.56545863521751E-05,9.59182398219127E-06,-0.17578125,0,0
-2.81932498182869E-05,8.52794983075E-06,-0.17578125,0,0
-3.11225594487041E-05,8.40073607832892E-06,-0.17578125,0,0
-3.15994002448861E-05,8.28211341286078E-06,-0.17578125,0,0
-2.88034279947169E-05,8.76181456987979E-06,-0.17578125,0,0
-1.97450845007552E-05,8.85137251316337E-06,-0.17578125,0,0
-2.76638784271199E-05,1.13899232019321E-05,-0.17578125,0,0
-2.16983371501556E-05,5.7254560488218E-06,-0.17578125,0,0
-2.77357830782421E-05,5.18165870744269E-06,-0.17578125,0,0
-2.35228017118061E-05,2.35557968153444E-06,-0.17578125,0,0
-2.66425813606475E-05,4.71916791866533E-06,-0.17578125,0,0
-2.45976898440858E-05,4.11862583860056E-06,-0.17578125,0,0
-2.59091502812225E-05,4.80898415844422E-06,-0.17578125,0,0
-2.45647515839664E-05,5.07115100845112E-06,-0.17578125,0,0
-2.47020707320189E-05,4.20948936152854E-06,-0.17578125,0,0
-2.60806100413902E-05,3.27137172462244E-06,-0.17578125,0,0
-2.62811136053642E-05,4.21905406255974E-06,-0.17578125,0,0
-2.76701266557211E-05,7.35958292352734E-06,-0.17578125,0,0
-2.72373072220944E-05,8.76363719726214E-06,-0.17578125,0,0
-2.8990494683967E-05,1.03525690064998E-05,-0.17578125,0,0
-2.77901999652386E-05,1.04502114481875E-05,-0.17578125,0,0
-2.84789475699654E-05,1.26852555695223E-05,-0.17578125,0,0
-2.75468555628322E-05,1.54675399244297E-05,-0.17578125,0,0
-2.95242771244375E-05,1.82837375177769E-05,-0.17578125,0,0
-2.93842731480254E-05,1.83367792487843E-05,-0.17578125,0,0
-2.95987410936505E-05,1.81364957825281E-05,-0.17578125,0,0
-2.79075557045871E-05,1.68608039530227E-05,-0.17578125,0,0
-2.83917634078534E-05,1.53630753629841E-05,-0.17578125,0,0
-2.87960774585372E-05,1.41861110023456E-05,-0.17578125,0,0
-2.94746296276571E-05,1.54425051732687E-05,-0.17578125,0,0
-3.02193038805854E-05,1.83240426849807E-05,-0.17578125,0,0
-2.98731338261859E-05,1.97487788682338E-05,-0.17578125,0,0
-2.1371575712692E-05,1.42879771374282E-05,-0.17578125,0,0
-2.84147790807765E-05,1.83549564098939E-05,-0.17578125,0,0
-2.04123862204142E-05,1.18550424303976E-05,-0.17578125,0,0
-2.70147938863374E-05,1.67570597113809E-05,-0.17578125,0,0
-2.1720430595451E-05,1.44037794598262E-05,-0.17578125,0,0
-2.45299579546554E-05,1.72428226505872E-05,-0.17578125,0,0
-2.38711800193414E-05,1.68413153005531E-05,-0.17578125,0,0
-2.74960766546428E-05,1.77482033905108E-05,-0.17578125,0,0
-2.56547155004228E-05,1.54951867443742E-05,-0.17578125,0,0
-2.38746160903247E-05,1.36561120598344E-05,-0.17578125,0,0
-2.46463532675989E-05,1.27610737763462E-05,-0.17578125,0,0
-2.55251943599433E-05,1.16978417281643E-05,-0.17578125,0,0
-2.7041760404245E-05,1.27367984532611E-05,-0.17578125,0,0
-2.54300284723286E-05,1.32333807414398E-05,-0.17578125,0,0
-2.58591680903919E-05,1.6050520571298E-05,-0.17578125,0,0
-2.4366743673454E-05,1.73128228198038E-05,-0.17578125,0,0
-2.49664753937395E-05,1.8573138731881E-05,-0.17578125,0,0
-2.22037651838036E-05,1.63867789524375E-05,-0.17578125,0,0
-2.29596989811398E-05,1.54880526679335E-05,-0.17578125,0,0
-2.31252161029261E-05,1.43104189191945E-05,-0.17578125,0,0
-2.4276750991703E-05,1.45298508869018E-05,-0.17578125,0,0
-2.35981206060387E-05,1.22243336591055E-05,-0.17578125,0,0
-2.54205260716844E-05,8.36041999718873E-06,-0.17578125,0,0
-2.49200820690021E-05,3.69945587408438E-06,-0.17578125,0,0
-2.33484424825292E-05,2.48236142397218E-06,-0.17578125,0,0
-2.09507670660969E-05,5.12523001816589E-06,-0.17578125,0,0
-1.94623935385607E-05,1.05958915810334E-05,-0.17578125,0,0
-1.56840706040384E-05,1.26799441204639E-05,-0.17578125,0,0
-2.27532982535195E-05,1.98189263755921E-05,-0.17578125,0,0
-1.90164064406417E-05,1.79264789039735E-05,-0.17578125,0,0
-2.43011509155622E-05,2.01998736883979E-05,-0.17578125,0,0
-2.20375095523195E-05,1.44728928717086E-05,-0.17578125,0,0
-2.63663841906236E-05,1.33628054754809E-05,-0.17578125,0,0
-2.70004111371236E-05,9.87271050689742E-06,-0.17578125,0,0
-2.78561456070747E-05,9.21160608413629E-06,-0.17578125,0,0
-2.53727266681381E-05,9.54091228777543E-06,-0.17578125,0,0
-2.35695715673501E-05,9.59930184762925E-06,-0.17578125,0,0
-2.28378103201976E-05,7.93399703979958E-06,-0.17578125,0,0
-2.1691455913242E-05,6.15918497715029E-06,-0.17578125,0,0
-2.24008563236566E-05,6.69966993882554E-06,-0.17578125,0,0
-2.19374487642199E-05,7.34753029973945E-06,-0.17578125,0,0
-2.18706172745442E-05,9.49844525166554E-06,-0.17578125,0,0
-1.94301464944147E-05,9.43770010053413E-06,-0.17578125,0,0
-1.92353491001995E-05,1.01344212453114E-05,-0.17578125,0,0
-1.86398538062349E-05,9.9359012892819E-06,-0.17578125,0,0
-2.08139535970986E-05,1.03480379038956E-05,-0.17578125,0,0
-2.09106310649076E-05,8.37124480312923E-06,-0.17578125,0,0
-2.08869405469159E-05,6.85927079757676E-06,-0.17578125,0,0
-1.97948902496137E-05,4.88863997816225E-06,-0.17578125,0,0
-2.06783861358417E-05,4.35955735156313E-06,-0.17578125,0,0
-2.13824205275159E-05,4.69440647066222E-06,-0.17578125,0,0
-2.07290668186033E-05,5.60042599317967E-06,-0.17578125,0,0
-1.90246082638623E-05,5.22741447639419E-06,-0.17578125,0,0
-1.84399286808912E-05,5.45055536349537E-06,-0.17578125,0,0
-1.62154174176976E-05,4.24632025897154E-06,-0.17578125,0,0
-2.48545384238241E-05,5.44802696822444E-06,-0.17578125,0,0
-2.07448119908804E-05,2.56685916610877E-06,-0.17578125,0,0
-2.4075445253402E-05,1.96903147298144E-06,-0.17578125,0,0
-2.02263254323043E-05,8.67238554747019E-07,-0.17578125,0,0
-2.16339594771853E-05,3.33353727910435E-06,-0.17578125,0,0
-1.92043717106571E-05,3.54434951077565E-06,-0.17578125,0,0
-1.97568351723021E-05,1.96298333321465E-06,-0.17578125,0,0
-2.00642152776709E-05,1.90754644791014E-06,-0.17578125,0,0
-2.10747748496942E-05,4.67165909867617E-06,-0.17578125,0,0
-2.14233004953712E-05,8.49237585498486E-06,-0.17578125,0,0
-2.09191875910619E-05,1.18157913675532E-05,-0.17578125,0,0
-2.25413332373137E-05,1.41594109663856E-05,-0.17578125,0,0
-2.21620794036426E-05,1.42797525768401E-05,-0.17578125,0,0
-2.20297952182591E-05,1.4610495782108E-05,-0.17578125,0,0
-2.08162964554504E-05,1.56988553499104E-05,-0.17578125,0,0
-2.25219591811765E-05,1.69476988958195E-05,-0.17578125,0,0
-2.29446068260586E-05,1.58770035341149E-05,-0.17578125,0,0
-2.41235411522212E-05,1.45528410939733E-05,-0.17578125,0,0
-2.31847516261041E-05,1.42351091199089E-05,-0.17578125,0,0
-2.27814616664546E-05,1.52540824274183E-05,-0.17578125,0,0
-2.06723852897994E-05,1.48139006341808E-05,-0.17578125,0,0
-1.90630489669275E-05,1.36981007017312E-05,-0.17578125,0,0
-1.77698111656355E-05,1.38507102747099E-05,-0.17578125,0,0
-1.92004335985985E-05,1.39162630148348E-05,-0.17578125,0,0
-2.04697789740749E-05,1.31846018120996E-05,-0.17578125,0,0
-2.00069989659823E-05,1.3159465197532E-05,-0.17578125,0,0
-1.62059695867356E-05,1.29229483718518E-05,-0.17578125,0,0
-2.43394952121889E-05,1.91811486729421E-05,-0.17578125,0,0
-2.07285866054008E-05,1.40122410812182E-05,-0.17578125,0,0
-2.49848690145882E-05,1.49441730172839E-05,-0.17578125,0,0
-2.10735761356773E-05,1.32230488816276E-05,-0.17578125,0,0
-2.26282063522376E-05,1.83941156137735E-05,-0.17578125,0,0
-2.03823656192981E-05,1.74123761098599E-05,-0.17578125,0,0
-2.21875925490167E-05,1.40233814818203E-05,-0.17578125,0,0
-2.19620269490406E-05,8.96434539754409E-06,-0.17578125,0,0
-2.14232295547845E-05,7.08864445186919E-06,-0.17578125,0,0
-2.24945051741088E-05,8.19187243905617E-06,-0.17578125,0,0
-2.36107425735099E-05,1.0052373909275E-05,-0.17578125,0,0
-2.52786157943774E-05,1.18363195724669E-05,-0.17578125,0,0
-2.44745860982221E-05,8.28389056550805E-06,-0.17578125,0,0
-2.5282499336754E-05,2.17068441088486E-06,-0.17578125,0,0
-2.49988606810803E-05,-4.35077117799665E-06,-0.17578125,0,0
-2.55042923527071E-05,-4.07738662033807E-06,-0.17578125,0,0
-2.3368247639155E-05,-1.2993023119634E-06,-0.17578125,0,0
-2.36539017350879E-05,2.91090418613749E-06,-0.17578125,0,0
-2.32882448472083E-05,5.70536940358579E-06,-0.17578125,0,0
-2.48131073021796E-05,9.25216590985656E-06,-0.17578125,0,0
-2.58145191764925E-05,1.010581945593E-05,-0.17578125,0,0
-2.73343030130491E-05,8.93009018909652E-06,-0.17578125,0,0
-2.74736739811488E-05,7.20300567991217E-06,-0.17578125,0,0
-2.67772829829482E-05,8.34654474601848E-06,-0.17578125,0,0
-2.55179093073821E-05,1.00757542895735E-05,-0.17578125,0,0
-2.48798223765334E-05,1.10851715362514E-05,-0.17578125,0,0
-1.94653512153309E-05,1.07697242128779E-05,-0.17578125,0,0
-2.84665693470743E-05,1.68508922797628E-05,-0.17578125,0,0
-2.28630960918963E-05,1.44634004755062E-05,-0.17578125,0,0
-2.71287590294378E-05,1.49748975672992E-05,-0.17578125,0,0
-2.1392490452854E-05,1.20787572086556E-05,-0.17578125,0,0
-2.4458529878757E-05,1.49856441566953E-05,-0.17578125,0,0
-2.40843983192462E-05,1.28768660943024E-05,-0.17578125,0,0
-2.56017065112246E-05,1.2287292520341E-05,-0.17578125,0,0
-2.49070180871058E-05,1.38224795591668E-05,-0.17578125,0,0
-2.52462232310791E-05,1.60788094945019E-05,-0.17578125,0,0
-2.59839889622526E-05,1.55086891027167E-05,-0.17578125,0,0
-2.51349410973489E-05,1.28171968754032E-05,-0.17578125,0,0
-2.40116787608713E-05,1.14638469312922E-05,-0.17578125,0,0
-2.16411190194776E-05,1.05781737147481E-05,-0.17578125,0,0
-2.292410863447E-05,1.24538646559813E-05,-0.17578125,0,0
-2.31373560382053E-05,1.39772328111576E-05,-0.17578125,0,0
-2.45074515987653E-05,1.56422229338204E-05,-0.17578125,0,0
-2.28034732572269E-05,1.43756151373964E-05,-0.17578125,0,0
-2.40947247220902E-05,1.38485174829839E-05,-0.17578125,0,0
-2.49956701736664E-05,1.2625430827029E-05,-0.17578125,0,0
-2.57115516433259E-05,1.17503004730679E-05,-0.17578125,0,0
-2.34344843192957E-05,9.98459927359363E-06,-0.17578125,0,0
-2.38503635046072E-05,1.07056466731592E-05,-0.17578125,0,0
-2.54794995271368E-05,1.25816241052235E-05,-0.17578125,0,0
-2.75179245363688E-05,1.32456307255779E-05,-0.17578125,0,0
-2.81815300695598E-05,1.19293081297656E-05,-0.17578125,0,0
-2.81726588582387E-05,1.00969018603791E-05,-0.17578125,0,0
-2.20650053961435E-05,7.23079438103014E-06,-0.17578125,0,0
-3.14719181915279E-05,1.15574839583132E-05,-0.17578125,0,0
-2.38397551584058E-05,1.1762892427214E-05,-0.17578125,0,0
-2.88973151327809E-05,1.49633860928589E-05,-0.17578125,0,0
-2.43599351961166E-05,1.28309011415695E-05,-0.17578125,0,0
-2.81933444057358E-05,1.40842839755351E-05,-0.17578125,0,0
-2.6695894121076E-05,1.47332229971653E-05,-0.17578125,0,0
-2.85012902168091E-05,1.47798700709245E-05,-0.17578125,0,0
-2.72546767519088E-05,1.43712450153544E-05,-0.17578125,0,0
-2.64584377873689E-05,1.3895652955398E-05,-0.17578125,0,0
-2.74841750069754E-05,1.20528538900544E-05,-0.17578125,0,0
-2.88880000880454E-05,1.06283323475509E-05,-0.17578125,0,0
-3.10374889522791E-05,1.08742442535004E-05,-0.17578125,0,0
-2.94380351988366E-05,9.96130620478652E-06,-0.17578125,0,0
-2.90682964987354E-05,9.07039338926552E-06,-0.17578125,0,0
-2.65148610196775E-05,8.79340677784057E-06,-0.17578125,0,0
-2.68568019237136E-05,1.06583274828154E-05,-0.17578125,0,0
-2.55597442446742E-05,1.18789766929694E-05,-0.17578125,0,0
-2.70203618129017E-05,1.21054536066367E-05,-0.17578125,0,0
-2.63025158346863E-05,1.09034235720173E-05,-0.17578125,0,0
-2.59770440607099E-05,1.18601356007275E-05,-0.17578125,0,0
-2.3045888156048E-05,1.37474071379984E-05,-0.17578125,0,0
-2.20889487536624E-05,1.39874091473757E-05,-0.17578125,0,0
-2.14604497159598E-05,9.22847993933829E-06,-0.17578125,0,0
-2.17573633563006E-05,3.87469526685891E-06,-0.17578125,0,0
-2.14662431972101E-05,1.93984647012257E-06,-0.17578125,0,0
-2.15993204619735E-05,3.09751521854196E-06,-0.17578125,0,0
-1.79962862603134E-05,5.87112572247861E-06,-0.17578125,0,0
-2.5386880224687E-05,1.05375247585471E-05,-0.17578125,0,0
-1.80379483936122E-05,9.98724408418639E-06,-0.17578125,0,0
-2.12000504689058E-05,1.03775837487774E-05,-0.17578125,0,0
-1.74401284311898E-05,9.92593959381338E-06,-0.17578125,0,0
-2.00471422431292E-05,1.24916396089247E-05,-0.17578125,0,0
-2.03893741854699E-05,1.1823169188574E-05,-0.17578125,0,0
-2.46846557274694E-05,1.04002310763462E-05,-0.17578125,0,0
-2.52185254794313E-05,1.03385382317356E-05,-0.17578125,0,0
-2.50145531026646E-05,9.59729186433833E-06,-0.17578125,0,0
-2.46803465415724E-05,8.16636384115554E-06,-0.17578125,0,0
-2.41817670030287E-05,6.28927728030249E-06,-0.17578125,0,0
-2.56182047451148E-05,5.18480646860553E-06,-0.17578125,0,0
-2.59468961303355E-05,4.28325438406318E-06,-0.17578125,0,0
-2.79363594017923E-05,3.97746225644369E-06,-0.17578125,0,0
-2.76613391179126E-05,3.09038910017989E-06,-0.17578125,0,0
-2.98295963148121E-05,3.17440299113514E-06,-0.17578125,0,0
-3.06883412122261E-05,4.11240807807189E-06,-0.17578125,0,0
-3.26334884448443E-05,6.19669981460902E-06,-0.17578125,0,0
-3.12722295348067E-05,6.90832121108542E-06,-0.17578125,0,0
-3.09183960780501E-05,6.35121159575647E-06,-0.17578125,0,0
-3.04903296637349E-05,6.03844182478497E-06,-0.17578125,0,0
-3.22784144373145E-05,5.69250096305041E-06,-0.17578125,0,0
-3.3710413845256E-05,3.89902334063663E-06,-0.17578125,0,0
-3.47046843671706E-05,2.88186765828868E-06,-0.17578125,0,0
-3.33058887918014E-05,3.27150200973847E-06,-0.17578125,0,0
-3.14971475745551E-05,4.90061347591109E-06,-0.17578125,0,0
-2.5455998184043E-05,6.26311748419539E-06,-0.17578125,0,0
-3.6058063415112E-05,8.76816375239287E-06,-0.17578125,0,0
-2.70089440164156E-05,5.83781593377353E-06,-0.17578125,0,0
-3.3614272979321E-05,6.67283620714443E-06,-0.17578125,0,0
-2.83246172330109E-05,4.88305795443011E-06,-0.17578125,0,0
-3.09841707348824E-05,5.39733537152642E-06,-0.17578125,0,0
-2.74211452051532E-05,5.36216703039827E-06,-0.17578125,0,0
-2.84554316749563E-05,7.15697251507663E-06,-0.17578125,0,0
-2.70826549240155E-05,1.0164989362238E-05,-0.17578125,0,0
-2.67391187662724E-05,1.33118046505842E-05,-0.17578125,0,0
-2.68276799033629E-05,1.38907862492488E-05,-0.17578125,0,0
-2.53797588811722E-05,1.26600471048732E-05,-0.17578125,0,0
-2.56287512456765E-05,1.17597410280723E-05,-0.17578125,0,0
-2.42971036641393E-05,1.09263683043537E-05,-0.17578125,0,0
-2.63599722529761E-05,1.11741310320213E-05,-0.17578125,0,0
-2.51103683694964E-05,1.05072595033562E-05,-0.17578125,0,0
-2.55091126746265E-05,1.04201635622303E-05,-0.17578125,0,0
-2.32900656556012E-05,1.03741940620239E-05,-0.17578125,0,0
-2.42425412579905E-05,1.21096336442861E-05,-0.17578125,0,0
-2.3000222427072E-05,1.43723345900071E-05,-0.17578125,0,0
-2.34091567108408E-05,1.63825116032967E-05,-0.17578125,0,0
-2.24831546802307E-05,1.57520480570383E-05,-0.17578125,0,0
-2.39290820900351E-05,1.48065173561918E-05,-0.17578125,0,0
-2.39116852753796E-05,1.43469151225872E-05,-0.17578125,0,0
-2.2433248886955E-05,1.49544193845941E-05,-0.17578125,0,0
-1.94222338905092E-05,1.45516214615782E-05,-0.17578125,0,0
-1.81055038410705E-05,1.13563537524897E-05,-0.17578125,0,0
-1.5700805306551E-05,5.71438522456447E-06,-0.17578125,0,0
-2.3393187802867E-05,7.3443779911031E-06,-0.17578125,0,0
-1.77108613570454E-05,7.95261166786077E-06,-0.17578125,0,0
-2.00584436242934E-05,1.48022454595775E-05,-0.17578125,0,0
-1.83886750164675E-05,1.5242088920786E-05,-0.17578125,0,0
-2.27173040912021E-05,1.5083365724422E-05,-0.17578125,0,0
-2.26553001994034E-05,1.19025644380599E-05,-0.17578125,0,0
-2.31034937314689E-05,1.04679402284091E-05,-0.17578125,0,0
-2.06070926651591E-05,9.47526677919086E-06,-0.17578125,0,0
-1.78618502104655E-05,8.80248262546957E-06,-0.17578125,0,0
-1.72673790075351E-05,8.2194383139722E-06,-0.17578125,0,0
-1.88666181202279E-05,8.05538547865581E-06,-0.17578125,0,0
-2.15868712984957E-05,9.75001330516534E-06,-0.17578125,0,0
-2.14713563764235E-05,1.13008736661868E-05,-0.17578125,0,0
-2.21846894419286E-05,1.34532720039715E-05,-0.17578125,0,0
-2.21846767090028E-05,1.43839160955395E-05,-0.17578125,0,0
-2.46133349719457E-05,1.5524714399362E-05,-0.17578125,0,0
-2.50525354204001E-05,1.46975662573823E-05,-0.17578125,0,0
-2.54500027949689E-05,1.43773777381284E-05,-0.17578125,0,0
-2.39227210840909E-05,1.61232728714822E-05,-0.17578125,0,0
-2.3868829885032E-05,1.99760197574506E-05,-0.17578125,0,0
-2.29618144658161E-05,2.05724627448944E-05,-0.17578125,0,0
-2.22483613470104E-05,1.90641112567391E-05,-0.17578125,0,0
-2.01851235033246E-05,1.76356752490392E-05,-0.17578125,0,0
-2.00177692022407E-05,1.60128565767081E-05,-0.17578125,0,0
-2.25132407649653E-05,1.46614356708596E-05,-0.17578125,0,0
-2.58742584264837E-05,1.45418307511136E-05,-0.17578125,0,0
-2.20443889702437E-05,1.27893663375289E-05,-0.17578125,0,0
-3.10978903144132E-05,1.83290267159464E-05,-0.17578125,0,0
-2.22348917304771E-05,1.43022207339527E-05,-0.17578125,0,0
-2.6350573534728E-05,1.73022053786553E-05,-0.17578125,0,0
-1.95556458493229E-05,1.31298347696429E-05,-0.17578125,0,0
-2.13184393942356E-05,1.44372152135475E-05,-0.17578125,0,0
-1.9528921257006E-05,1.30201970023336E-05,-0.17578125,0,0
-2.11268925340846E-05,1.17202016554074E-05,-0.17578125,0,0
-2.11650331038982E-05,9.82319033937529E-06,-0.17578125,0,0
-2.19562916754512E-05,1.08279646156006E-05,-0.17578125,0,0
-2.26833253691439E-05,1.25493725136039E-05,-0.17578125,0,0
-2.1360892787925E-05,1.26828708744142E-05,-0.17578125,0,0
-2.02420633286238E-05,1.27669609355507E-05,-0.17578125,0,0
-1.70490966411307E-05,1.06634088297142E-05,-0.17578125,0,0
-1.71366209542612E-05,9.45151259656996E-06,-0.17578125,0,0
-1.56258101924323E-05,6.69471455694293E-06,-0.17578125,0,0
-1.66407771757804E-05,4.73878753837198E-06,-0.17578125,0,0
-1.63867480296176E-05,2.21151776713668E-06,-0.17578125,0,0
-1.82884323294275E-05,3.27955785905942E-06,-0.17578125,0,0
-1.74706128746038E-05,5.31253272129106E-06,-0.17578125,0,0
-1.77501497091725E-05,8.56620408740127E-06,-0.17578125,0,0
-1.65975598065415E-05,8.76008925843053E-06,-0.17578125,0,0
-1.86820925591746E-05,7.93489925854374E-06,-0.17578125,0,0
-2.11218975891825E-05,6.92047206030111E-06,-0.17578125,0,0
-2.21453174162889E-05,7.39163897378603E-06,-0.17578125,0,0
-2.10558791877702E-05,8.08693766884971E-06,-0.17578125,0,0
-1.99845762836048E-05,6.97044515618472E-06,-0.17578125,0,0
-1.69047798408428E-05,5.06671995026409E-06,-0.17578125,0,0
-2.51561632467201E-05,8.31426314107375E-06,-0.17578125,0,0
-2.18014920392307E-05,8.08943605079548E-06,-0.17578125,0,0
-2.74588965112343E-05,1.00410406957963E-05,-0.17578125,0,0
-2.29767010750948E-05,9.77984109340468E-06,-0.17578125,0,0
-2.34308499784675E-05,1.11635390567244E-05,-0.17578125,0,0
-2.13198491110234E-05,1.15945776997251E-05,-0.17578125,0,0
-2.21599057113053E-05,1.05693852674449E-05,-0.17578125,0,0
-2.08243109227624E-05,8.83232587511884E-06,-0.17578125,0,0
-1.96499677258544E-05,9.13685016712407E-06,-0.17578125,0,0
-1.88909361895639E-05,1.11746085167397E-05,-0.17578125,0,0
-1.78139398485655E-05,1.41952959893388E-05,-0.17578125,0,0
-1.88036228792043E-05,1.59643877850613E-05,-0.17578125,0,0
-1.88168087333906E-05,1.51718504639575E-05,-0.17578125,0,0
-2.03490617423086E-05,1.36823455250124E-05,-0.17578125,0,0
-1.99649239220889E-05,1.13654177766875E-05,-0.17578125,0,0
-2.07479170057923E-05,1.04173150248243E-05,-0.17578125,0,0
-1.8976448700414E-05,9.10677044885233E-06,-0.17578125,0,0
-1.9204524505767E-05,7.75281296228059E-06,-0.17578125,0,0
-1.92349889402976E-05,6.44345664113644E-06,-0.17578125,0,0
-2.10702055483125E-05,5.93416052652174E-06,-0.17578125,0,0
-2.15339368878631E-05,5.49791684534284E-06,-0.17578125,0,0
-2.28845765377628E-05,5.76705406274414E-06,-0.17578125,0,0
-2.41987963818247E-05,5.79198194827768E-06,-0.17578125,0,0
-2.55924296652665E-05,5.51910034118919E-06,-0.17578125,0,0
-2.44849488808541E-05,4.55378039987409E-06,-0.17578125,0,0
-2.32886868616333E-05,3.31079627358122E-06,-0.17578125,0,0
-1.97465033124899E-05,2.05255878427124E-06,-0.17578125,0,0
-2.85795213130768E-05,3.15591319122177E-06,-0.17578125,0,0
-2.17767210415332E-05,2.60319870903913E-06,-0.17578125,0,0
-2.65240141743561E-05,2.80210542769055E-06,-0.17578125,0,0
-2.33107566600665E-05,2.80483868664305E-06,-0.17578125,0,0
-2.65084781858604E-05,4.71922885481035E-06,-0.17578125,0,0
-2.44510956690647E-05,5.24192000739276E-06,-0.17578125,0,0
-2.63175770669477E-05,5.56067561774398E-06,-0.17578125,0,0
-2.75213660643203E-05,6.73905742587522E-06,-0.17578125,0,0
-2.87925649899989E-05,7.2865614129114E-06,-0.17578125,0,0
-2.83071767626097E-05,7.68034442444332E-06,-0.17578125,0,0
-2.61511759163113E-05,8.18438002170296E-06,-0.17578125,0,0
-2.64556965703378E-05,8.29851251182845E-06,-0.17578125,0,0
-2.63858946709661E-05,7.98881319497013E-06,-0.17578125,0,0
-2.90973421215313E-05,8.85191093402682E-06,-0.17578125,0,0
-2.92720833385829E-05,9.96951348497532E-06,-0.17578125,0,0
-3.00106348731788E-05,1.10487526399083E-05,-0.17578125,0,0
-2.77612980426056E-05,1.18259567898349E-05,-0.17578125,0,0
-2.84712168650003E-05,1.20834538392955E-05,-0.17578125,0,0
-2.84953403024701E-05,1.26945233205333E-05,-0.17578125,0,0
-2.88351111521479E-05,1.43475208460586E-05,-0.17578125,0,0
-2.72783472610172E-05,1.46591928569251E-05,-0.17578125,0,0
-2.83081935776863E-05,1.42798053275328E-05,-0.17578125,0,0
-2.90483440039679E-05,1.38315435833647E-05,-0.17578125,0,0
-2.86074118776014E-05,1.33149305838742E-05,-0.17578125,0,0
-2.79207688436145E-05,1.41972386700218E-05,-0.17578125,0,0
-2.83717108686687E-05,1.50681262311991E-05,-0.17578125,0,0
-2.38352913584094E-05,1.1951840861002E-05,-0.17578125,0,0
-3.41172271873802E-05,1.61376974574523E-05,-0.17578125,0,0
-2.43060330831213E-05,1.06025872810278E-05,-0.17578125,0,0
-2.72769993898692E-05,1.33813946376904E-05,-0.17578125,0,0
-2.11772166949231E-05,1.08555414044531E-05,-0.17578125,0,0
-2.47468033194309E-05,1.28965202748077E-05,-0.17578125,0,0
-2.22988255700329E-05,1.13584319478832E-05,-0.17578125,0,0
-2.32373949984321E-05,1.10841692730901E-05,-0.17578125,0,0
-2.25108178710798E-05,1.01853220257908E-05,-0.17578125,0,0
-2.25528183364077E-05,1.03950760603766E-05,-0.17578125,0,0
-2.27908403758192E-05,1.10661876533413E-05,-0.17578125,0,0
-2.21921582124196E-05,1.21706734717009E-05,-0.17578125,0,0
-2.3479664378101E-05,1.33608391479356E-05,-0.17578125,0,0
-2.18584264075616E-05,1.08213225757936E-05,-0.17578125,0,0
-2.25693838729057E-05,1.00993947853567E-05,-0.17578125,0,0
-2.16089556488441E-05,1.08871727206861E-05,-0.17578125,0,0
-2.43404192588059E-05,1.37385559355607E-05,-0.17578125,0,0
-2.51051096711308E-05,1.40653492053389E-05,-0.17578125,0,0
-2.73606656264747E-05,1.44450950756436E-05,-0.17578125,0,0
-2.7044419766753E-05,1.22138126243954E-05,-0.17578125,0,0
-2.85128007817548E-05,1.00987072073622E-05,-0.17578125,0,0
-2.8668040613411E-05,8.9355698946747E-06,-0.17578125,0,0
-3.05757930618711E-05,9.68025597103406E-06,-0.17578125,0,0
-3.11908806907013E-05,9.43063150771195E-06,-0.17578125,0,0
-3.20434883178677E-05,9.18896603252506E-06,-0.17578125,0,0
-3.23649874189869E-05,9.21322316571604E-06,-0.17578125,0,0
-3.14775970764458E-05,1.02613676062902E-05,-0.17578125,0,0
-2.32802358368644E-05,7.90683043305762E-06,-0.17578125,0,0
-3.12526244670153E-05,1.05574808912934E-05,-0.17578125,0,0
-2.17853030335391E-05,8.36678100313293E-06,-0.17578125,0,0
-2.84115212707547E-05,1.17530989882653E-05,-0.17578125,0,0
-2.50077137025073E-05,1.08795966298203E-05,0.17578125,0,0
-2.92497170448769E-05,1.297699418501E-05,0.17578125,0,0
-2.41687484958675E-05,1.26609502331121E-05,0.17578125,0,0
-2.14661486097611E-05,1.28991496239905E-05,0.17578125,0,0
-1.65435340022668E-05,1.22755536722252E-05,0.17578125,0,0
-1.38632749440148E-05,1.30135449580848E-05,0.17578125,0,0
-1.32668901642319E-05,1.32417708300636E-05,0.17578125,0,0
-1.38804998641717E-05,1.22187293527531E-05,0.17578125,0,0
-1.67225080076605E-05,1.16829151011189E-05,0.17578125,0,0
-1.5426865502377E-05,1.21888524517999E-05,0.17578125,0,0
-1.54812460095854E-05,1.47643468153547E-05,0.17578125,0,0
-1.43123806992662E-05,1.55650632223114E-05,0.17578125,0,0
-1.7759495676728E-05,1.52601733134361E-05,0.17578125,0,0
-1.82755265996093E-05,1.23283316497691E-05,0.17578125,0,0
-1.90877854038263E-05,1.11564049802837E-05,0.17578125,0,0
-1.66746158356545E-05,1.08535296021728E-05,0.17578125,0,0
-1.75973254954442E-05,1.19240039566648E-05,0.17578125,0,0
-1.81116083695088E-05,1.27446046462865E-05,0.17578125,0,0
-1.98456746147713E-05,1.45698813867057E-05,0.17578125,0,0
-1.95847314898856E-05,1.47036798807676E-05,0.17578125,0,0
-1.92415973288007E-05,1.39775993375224E-05,0.17578125,0,0
-1.85044173122151E-05,1.35565251184744E-05,0.17578125,0,0
-1.88245503522921E-05,1.3015465810895E-05,0.17578125,0,0
-1.77390520548215E-05,1.07592368294718E-05,0.17578125,0,0
-2.6824340238818E-05,1.52824159158627E-05,0.17578125,0,0
-2.09387744689593E-05,1.15317452582531E-05,0.17578125,0,0
-2.40313420363236E-05,1.34563224492013E-05,0.17578125,0,0
-2.15523141378071E-05,1.13497735583223E-05,0.17578125,0,0
-2.57335050264373E-05,1.37266206365894E-05,0.17578125,0,0
-2.61190489254659E-05,1.2278052054171E-05,0.17578125,0,0
-2.7021873393096E-05,1.30379330585129E-05,0.17578125,0,0
-2.59976568486309E-05,1.30547523440327E-05,0.17578125,0,0
-2.72465313173598E-05,1.21196571853943E-05,0.17578125,0,0
-2.96758298645727E-05,1.04583295978955E-05,0.17578125,0,0
-3.03932010865537E-05,9.44133626035182E-06,0.17578125,0,0
-3.11362637148704E-05,1.02277926998795E-05,0.17578125,0,0
-2.95298759738216E-05,1.00815022960887E-05,0.17578125,0,0
-2.96942271234002E-05,1.14132371891174E-05,0.17578125,0,0
-2.92679651465733E-05,1.2054526450811E-05,0.17578125,0,0
-3.1568059057463E-05,1.33220373754739E-05,0.17578125,0,0
-3.12584998027887E-05,1.17447480079136E-05,0.17578125,0,0
-3.16272999043576E-05,1.0645891961758E-05,0.17578125,0,0
-3.13352611556184E-05,9.5461300588795E-06,0.17578125,0,0
-3.17969315801747E-05,1.07364485302242E-05,0.17578125,0,0
-3.03188135148957E-05,1.11880699478206E-05,0.17578125,0,0
-3.02487715089228E-05,1.13154001155635E-05,0.17578125,0,0
-3.02985954476753E-05,1.05122044260497E-05,0.17578125,0,0
-3.09473689412698E-05,1.05060098576359E-05,0.17578125,0,0
-3.13737109536305E-05,1.09689644887112E-05,0.17578125,0,0
-3.19572063744999E-05,1.11406643554801E-05,0.17578125,0,0
-2.69453630608041E-05,8.31848501547938E-06,0.17578125,0,0
-3.81950922019314E-05,1.10019391286187E-05,0.17578125,0,0
-2.91292417387012E-05,7.48513321013888E-06,0.17578125,0,0
-3.60316007572692E-05,9.23532934393734E-06,0.17578125,0,0
-2.82188721030252E-05,7.12772862243582E-06,0.17578125,0,0
-2.89014151348965E-05,8.89584680408007E-06,0.17578125,0,0
-2.51648289122386E-05,8.67630205902969E-06,0.17578125,0,0
-2.78512670774944E-05,8.43020552565577E-06,0.17578125,0,0
-2.69198826572392E-05,6.60092609905405E-06,0.17578125,0,0
-2.52541231020587E-05,6.28884254183504E-06,0.17578125,0,0
-2.4203778593801E-05,7.34368859411916E-06,0.17578125,0,0
-2.25913299800595E-05,8.82160020410083E-06,0.17578125,0,0
-2.22134731302504E-05,9.42318638408324E-06,0.17578125,0,0
-1.81245959538501E-05,6.81379606248811E-06,0.17578125,0,0
-1.62457654369064E-05,5.15877718498814E-06,0.17578125,0,0
-1.18246143756551E-05,5.25694986208691E-06,0.17578125,0,0
-1.14572112579481E-05,8.24378730612807E-06,0.17578125,0,0
-9.60754823609022E-06,9.01099974726094E-06,0.17578125,0,0
-1.12416446427233E-05,9.06892910279566E-06,0.17578125,0,0
-1.09336906461976E-05,7.64860578783555E-06,0.17578125,0,0
-1.29275213112123E-05,7.62999025027966E-06,0.17578125,0,0
-1.29149148051511E-05,8.68522602104349E-06,0.17578125,0,0
-1.52025986608351E-05,1.06410343505559E-05,0.17578125,0,0
-1.61356456374051E-05,1.1402735253796E-05,0.17578125,0,0
-1.68340120580979E-05,1.27810299090925E-05,0.17578125,0,0
-1.81333180080401E-05,1.35634090838721E-05,0.17578125,0,0
-1.97108911379473E-05,1.19691831059754E-05,0.17578125,0,0
-1.54204772115918E-05,7.21326750863227E-06,0.17578125,0,0
-1.99903315660777E-05,9.86635313893203E-06,0.17578125,0,0
-1.22575238492573E-05,8.88324211700819E-06,0.17578125,0,0
-1.60949475684902E-05,1.1739577530534E-05,0.17578125,0,0
-1.33093608383206E-05,8.87860551301856E-06,0.17578125,0,0
-1.37044489747495E-05,1.02545700428891E-05,0.17578125,0,0
-9.84531016001711E-06,1.00314291557879E-05,0.17578125,0,0
-9.32190869207261E-06,1.19958340292214E-05,0.17578125,0,0
-8.09869470685953E-06,1.39784151542699E-05,0.17578125,0,0
-8.2130209193565E-06,1.42114822665462E-05,0.17578125,0,0
-8.73465069162194E-06,1.06990983113064E-05,0.17578125,0,0
-1.04135006040451E-05,6.8365447987162E-06,0.17578125,0,0
-1.54130284499843E-05,7.20651951269247E-06,0.17578125,0,0
-1.92258430615766E-05,8.63330024003517E-06,0.17578125,0,0
-2.30551650020061E-05,1.13813157440745E-05,0.17578125,0,0
-2.2844262275612E-05,1.26771674331394E-05,0.17578125,0,0
-2.28607968892902E-05,1.43158313221647E-05,0.17578125,0,0
-2.1772320906166E-05,1.52862376125995E-05,0.17578125,0,0
-2.34697181440424E-05,1.68547321663937E-05,0.17578125,0,0
-2.35179049923318E-05,1.65173223649617E-05,0.17578125,0,0
-2.45437840931118E-05,1.60408108058618E-05,0.17578125,0,0
-2.44139882852323E-05,1.58390339493053E-05,0.17578125,0,0
-2.61638833762845E-05,1.6138899809448E-05,0.17578125,0,0
-2.88189385173609E-05,1.36088501676568E-05,0.17578125,0,0
-3.04522527585505E-05,1.04846503745648E-05,0.17578125,0,0
-3.01045565720415E-05,1.0117865713255E-05,0.17578125,0,0
-3.08553389913868E-05,1.1208806427021E-05,0.17578125,0,0
-2.62624052993488E-05,6.66704681862029E-06,0.17578125,0,0
-3.80192177544814E-05,6.06946923653595E-06,0.17578125,0,0
-3.01667241728865E-05,3.58194796490352E-07,0.17578125,0,0
-3.91455505450722E-05,7.0129613050085E-07,0.17578125,0,0
-3.52015085809398E-05,-3.84389238661242E-07,0.17578125,0,0
-3.80257079086732E-05,7.18080354999984E-06,0.17578125,0,0
-3.40517799486406E-05,1.23460558825172E-05,0.17578125,0,0
-3.4171996958321E-05,1.39397225211724E-05,0.17578125,0,0
-3.33948701154441E-05,1.07540035969578E-05,0.17578125,0,0
-3.47997884091455E-05,6.54867017146898E-06,0.17578125,0,0
-3.52833485521842E-05,4.54557130069588E-06,0.17578125,0,0
-3.41686572937761E-05,5.40795326742227E-06,0.17578125,0,0
-3.6108849599259E-05,7.63859861763194E-06,0.17578125,0,0
-3.6600078601623E-05,9.19528611120768E-06,0.17578125,0,0
-4.00409626308829E-05,1.11817953438731E-05,0.17578125,0,0
-4.02854566345923E-05,1.12113220893661E-05,0.17578125,0,0
-4.23711317125708E-05,1.09471902760561E-05,0.17578125,0,0
-4.16047842008993E-05,9.00139093573671E-06,0.17578125,0,0
-4.28938801633194E-05,8.60039199324092E-06,0.17578125,0,0
-4.05929858970921E-05,8.84290511748986E-06,0.17578125,0,0
-3.95996612496674E-05,1.05332264865865E-05,0.17578125,0,0
-3.65285704901908E-05,1.11678109533386E-05,0.17578125,0,0
-3.50766786141321E-05,1.18786565508344E-05,0.17578125,0,0
-3.31637129420415E-05,1.2048378266627E-05,0.17578125,0,0
-3.12260890495963E-05,1.25870010379003E-05,0.17578125,0,0
-2.8737627872033E-05,1.24838807096239E-05,0.17578125,0,0
-2.78716488537611E-05,1.08679832919734E-05,0.17578125,0,0
-2.20762030949118E-05,7.77189416112378E-06,0.17578125,0,0
-3.01452164421789E-05,1.03600332295173E-05,0.17578125,0,0
-2.0803998268093E-05,7.9724313764018E-06,0.17578125,0,0
-2.56900384556502E-05,9.96936614683364E-06,0.17578125,0,0
-1.95603242900688E-05,6.1195123635116E-06,0.17578125,0,0
-1.99520891328575E-05,6.13247948422213E-06,0.17578125,0,0
-1.53247965499759E-05,5.05243406223599E-06,0.17578125,0,0
-1.46208840305917E-05,4.09995391237317E-06,0.17578125,0,0
-1.09939264802961E-05,2.09708468901226E-06,0.17578125,0,0
-7.05775619280757E-06,1.62835749506485E-06,0.17578125,0,0
-4.31476519224816E-06,2.93734592560213E-06,0.17578125,0,0
-1.83912629836414E-06,4.27703298555571E-06,0.17578125,0,0
-1.21289770049771E-06,5.86407850278192E-06,0.17578125,0,0
1.29387296965433E-06,6.97687892170507E-06,0.17578125,0,0
-7.16842691872444E-07,1.00166244010325E-05,0.17578125,0,0
-2.02549790628836E-06,1.20697040983941E-05,0.17578125,0,0
-4.96639177072211E-06,1.41911350510782E-05,0.17578125,0,0
-4.72880174129386E-06,1.46276479426888E-05,0.17578125,0,0
-7.20744856153033E-06,1.43551824294263E-05,0.17578125,0,0
-8.5220499386196E-06,1.29505297081778E-05,0.17578125,0,0
-1.18795296657481E-05,1.33870535137248E-05,0.17578125,0,0
-1.43417346407659E-05,1.36950620799325E-05,0.17578125,0,0
-1.90548616956221E-05,1.33878374981578E-05,0.17578125,0,0
-2.24981104111066E-05,1.10214014057419E-05,0.17578125,0,0
-2.40172503254144E-05,9.06512923393166E-06,0.17578125,0,0
-2.36409305216512E-05,8.09527500678087E-06,0.17578125,0,0
-2.24494233407313E-05,9.19307512958767E-06,0.17578125,0,0
-1.88149915629765E-05,9.39430537982844E-06,0.17578125,0,0
-2.73343539447524E-05,1.38782079375233E-05,0.17578125,0,0
-2.03244544536574E-05,1.14469448817545E-05,0.17578125,0,0
-2.35739080380881E-05,1.47490773088066E-05,0.17578125,0,0
-2.00064514501719E-05,1.41562313729082E-05,0.17578125,0,0
-2.25532567128539E-05,1.70154253282817E-05,0.17578125,0,0
-1.94907224795315E-05,1.74228516698349E-05,0.17578125,0,0
-2.02508545044111E-05,1.8651920981938E-05,0.17578125,0,0
-2.17396500374889E-05,1.89603797480231E-05,0.17578125,0,0
-2.39932815020438E-05,1.910960963869E-05,0.17578125,0,0
-2.45703504333505E-05,1.77591136889532E-05,0.17578125,0,0
-2.36963660427136E-05,1.50233263411792E-05,0.17578125,0,0
-2.64648206211859E-05,1.26230179375852E-05,0.17578125,0,0
-2.9450342481141E-05,9.20483489608159E-06,0.17578125,0,0
-3.51895978383254E-05,7.70500537328189E-06,0.17578125,0,0
-3.98764786950778E-05,6.22918378212489E-06,0.17578125,0,0
-4.6465083869407E-05,5.96565860178089E-06,0.17578125,0,0
-4.890191485174E-05,4.59583543488407E-06,0.17578125,0,0
-4.99817870149855E-05,4.8284414333466E-06,0.17578125,0,0
-4.74960470455699E-05,5.72638782614376E-06,0.17578125,0,0
-4.56749512522947E-05,6.7948890318803E-06,0.17578125,0,0
-4.25202706537675E-05,5.21927540830802E-06,0.17578125,0,0
-4.00397220801096E-05,5.39219718120876E-06,0.17578125,0,0
-3.72256108676083E-05,8.30065619084053E-06,0.17578125,0,0
-3.74474875570741E-05,9.95545633486472E-06,0.17578125,0,0
-3.92483088944573E-05,8.96097026270581E-06,0.17578125,0,0
-4.06037397624459E-05,8.9689638116397E-06,0.17578125,0,0
-3.11368785332888E-05,7.49734545024694E-06,0.17578125,0,0
-4.12013141612988E-05,1.14242338895565E-05,0.17578125,0,0
-2.62408266280545E-05,1.0782618119265E-05,0.17578125,0,0
-3.2326872315025E-05,1.34963011078071E-05,0.17578125,0,0
-2.43662743741879E-05,1.1408218597353E-05,0.17578125,0,0
-2.80430940620136E-05,1.05797253127093E-05,0.17578125,0,0
-2.26710526476381E-05,7.01202316122362E-06,0.17578125,0,0
-2.26061911234865E-05,5.56864824829972E-06,0.17578125,0,0
-1.91601593542146E-05,5.61371643925668E-06,0.17578125,0,0
-1.62220458150841E-05,8.31055422167992E-06,0.17578125,0,0
-1.27360281112487E-05,1.00942706922069E-05,0.17578125,0,0
-8.39855601952877E-06,1.01117957456154E-05,0.17578125,0,0
-8.75039040693082E-06,1.03210359156947E-05,0.17578125,0,0
-9.27690689422889E-06,1.14509202830959E-05,0.17578125,0,0
-1.46809470606968E-05,1.46978418342769E-05,0.17578125,0,0
-1.65939836733742E-05,1.59398987307213E-05,0.17578125,0,0
-2.11039623536635E-05,1.68322421814082E-05,0.17578125,0,0
-2.07882021641126E-05,1.73243497556541E-05,0.17578125,0,0
-2.29735942411935E-05,2.02756746148225E-05,0.17578125,0,0
-2.12274044315564E-05,2.17600700125331E-05,0.17578125,0,0
-2.09164572879672E-05,2.16773896681843E-05,0.17578125,0,0
-1.71756364579778E-05,2.04964617296355E-05,0.17578125,0,0
-1.34111687657423E-05,2.14768333535176E-05,0.17578125,0,0
-7.34247123546083E-06,2.3116259399103E-05,0.17578125,0,0
-4.44779107056092E-06,2.36568957916461E-05,0.17578125,0,0
-4.12125427828869E-06,2.19548728637164E-05,0.17578125,0,0
-5.23222206538776E-06,1.9167995560565E-05,0.17578125,0,0
-5.25680343343993E-06,1.20912663987838E-05,0.17578125,0,0
-9.24354390008375E-06,1.22513447422534E-05,0.17578125,0,0
-1.22176388686057E-05,2.55858435593836E-06,0.17578125,0,0
-1.92328861885471E-05,5.03671708429465E-06,0.17578125,0,0
-2.35906227317173E-05,3.77243441107566E-06,0.17578125,0,0
-2.59502648987109E-05,8.6100799308042E-06,0.17578125,0,0
-2.51317069341894E-05,6.13497923040995E-06,0.17578125,0,0
-2.56526636803756E-05,4.4172547859489E-06,0.17578125,0,0
-2.80227213806938E-05,2.94093479169533E-06,0.17578125,0,0
-3.07042391796131E-05,3.26144231621583E-06,0.17578125,0,0
-3.18999518640339E-05,4.40054463979322E-06,0.17578125,0,0
-3.18635247822385E-05,5.02221291753813E-06,0.17578125,0,0
-3.26402987411711E-05,6.11893665336538E-06,0.17578125,0,0
-3.29344729834702E-05,6.34397110843565E-06,0.17578125,0,0
-3.28046880895272E-05,8.72823875397444E-06,0.17578125,0,0
-3.14691933454014E-05,8.10328765510349E-06,0.17578125,0,0
-2.97521619359031E-05,7.78693811298581E-06,0.17578125,0,0
-2.61785207840148E-05,6.64560593577335E-06,0.17578125,0,0
-2.31936573982239E-05,7.93281287769787E-06,0.17578125,0,0
-2.24670602619881E-05,7.96112362877466E-06,0.17578125,0,0
-2.44875664066058E-05,8.64456251292722E-06,0.17578125,0,0
-2.55090144491987E-05,7.44046337786131E-06,0.17578125,0,0
-2.47693824348971E-05,7.0200917434704E-06,0.17578125,0,0
-2.36739360843785E-05,6.51188838673988E-06,0.17578125,0,0
-2.32741022045957E-05,7.14116367817041E-06,0.17578125,0,0
-2.418966141704E-05,8.10970323072979E-06,0.17578125,0,0
-2.47443622356514E-05,8.58393377711764E-06,0.17578125,0,0
-1.93013001990039E-05,5.60516900804942E-06,0.17578125,0,0
-2.73798759735655E-05,4.35969877798925E-06,0.17578125,0,0
-2.26187839871272E-05,6.64511730974482E-07,0.17578125,0,0
-3.13300988636911E-05,5.26771964359796E-06,0.17578125,0,0
-3.02454573102295E-05,6.08896743869991E-06,0.17578125,0,0
-3.47937784681562E-05,9.5190944193746E-06,0.17578125,0,0
-3.34192773152608E-05,1.08571166492766E-05,0.17578125,0,0
-3.62399950972758E-05,1.19222149805864E-05,0.17578125,0,0
-3.65874911949504E-05,1.22883420772268E-05,0.17578125,0,0
-3.69442750525195E-05,1.11007493615034E-05,4.74609375,0,0
-3.78684599127155E-05,8.43712587084156E-06,4.74609375,0,0
-3.82252037525177E-05,7.55693008613889E-06,4.74609375,0,0
-4.06431390729267E-05,9.79959168034839E-06,4.74609375,0,0
-4.16393122577574E-05,1.17907584353816E-05,4.74609375,0,0
-4.41354095528368E-05,1.39113726618234E-05,4.74609375,0,0
-4.39211835328024E-05,1.49421484820778E-05,4.74609375,0,0
-4.56855159427505E-05,1.64186749316286E-05,4.74609375,0,0
-4.60790579381865E-05,1.47241071317694E-05,4.74609375,0,0
-4.92975195811596E-05,1.22207502499805E-05,4.74609375,0,0
-4.97192049806472E-05,1.10534892883152E-05,4.74609375,0,0
-4.97243090649135E-05,1.22857709357049E-05,4.74609375,0,0
-4.62899697595276E-05,1.21381099233986E-05,4.74609375,0,0
-4.3523501517484E-05,1.18439083962585E-05,4.74609375,0,0
-3.94087546737865E-05,1.19715004984755E-05,4.74609375,0,0
-3.46281158272177E-05,1.30110574900755E-05,4.74609375,0,0
-3.00099363812478E-05,1.48221561175887E-05,4.74609375,0,0
-2.66032493527746E-05,1.63567692652578E-05,4.74609375,0,0
-1.93346695596119E-05,1.21016610137303E-05,4.74609375,0,0
-2.52412592089968E-05,1.52668199007167E-05,4.74609375,0,0
-1.36520302476129E-05,8.60134969116189E-06,4.74609375,0,0
-1.55398138304008E-05,1.08065551103209E-05,4.74609375,0,0
-1.10127393782022E-05,8.92382740858011E-06,4.74609375,0,0
-1.25219858091441E-05,1.51373578773928E-05,4.74609375,0,0
-7.38334847483202E-06,1.7218620996573E-05,4.74609375,0,0
-5.51816265215166E-06,1.75112927536247E-05,4.74609375,0,0
-4.01298575525288E-06,1.52997945406241E-05,4.74609375,0,0
-4.60861156170722E-06,1.33242283482105E-05,4.74609375,0,0
-5.71533746551722E-06,1.210329355672E-05,4.74609375,0,0
-6.65729839965934E-06,1.18418338388437E-05,4.74609375,0,0
-1.02128269645618E-05,1.37977795020561E-05,4.74609375,0,0
-1.13490505100344E-05,1.56177120516077E-05,4.74609375,0,0
-1.22580568131525E-05,1.94838703464484E-05,4.74609375,0,0
-1.02898575278232E-05,2.12780505535193E-05,4.74609375,0,0
-1.08494441519724E-05,2.22796934394864E-05,4.74609375,0,0
-9.26779011933832E-06,2.09356003324501E-05,4.74609375,0,0
-9.80552977125626E-06,2.200576091127E-05,4.74609375,0,0
-9.76014416664839E-06,2.24999785132241E-05,4.74609375,0,0
-1.22009087135666E-05,2.23082461161539E-05,4.74609375,0,0
-1.34518704726361E-05,2.05982469196897E-05,4.74609375,0,0
-1.48917597471154E-05,2.14778319787001E-05,4.74609375,0,0
-1.44868135976139E-05,2.39130713453051E-05,4.74609375,0,0
-1.44052528412431E-05,2.64740938291652E-05,4.74609375,0,0
-1.48928302223794E-05,2.64325644820929E-05,4.74609375,0,0
-1.61265106726205E-05,2.43271424551494E-05,4.74609375,0,0
-1.4729933354829E-05,1.61913321790053E-05,4.74609375,0,0
-2.23193837882718E-05,2.17260658246232E-05,4.74609375,0,0
-1.86879497050541E-05,1.58808652486186E-05,4.74609375,0,0
-2.37279928114731E-05,2.12273916986305E-05,4.74609375,0,0
-2.2507654648507E-05,1.82603180292062E-05,4.74609375,0,0
-2.47286770900246E-05,2.24499999603722E-05,4.74609375,0,0
-2.51068940997357E-05,2.20429137698375E-05,4.74609375,0,0
-2.89943454845343E-05,2.11470578506123E-05,4.74609375,0,0
-3.09205970552284E-05,1.62465330504347E-05,4.74609375,0,0
-3.20590661431197E-05,1.28461406347924E-05,4.74609375,0,0
-3.32607633026782E-05,1.11242907223641E-05,4.74609375,0,0
-3.44797736033797E-05,9.7784122772282E-06,4.74609375,0,0
-3.67570792150218E-05,9.73676105786581E-06,4.74609375,0,0
-3.69061599485576E-05,8.45825888973195E-06,4.74609375,0,0
-3.71753267245367E-05,9.5595696620876E-06,4.74609375,0,0
-3.5743181797443E-05,9.34003764996305E-06,4.74609375,0,0
-3.71466521755792E-05,1.0444516192365E-05,4.74609375,0,0
-3.80995224986691E-05,7.86505552241579E-06,4.74609375,0,0
-3.91585999750532E-05,7.4970957939513E-06,4.74609375,0,0
-3.76530952053145E-05,8.46800685394555E-06,4.74609375,0,0
-3.72501053789165E-05,1.10672508526477E-05,4.74609375,0,0
-3.63999533874448E-05,1.04224409369635E-05,4.74609375,0,0
-3.6309145798441E-05,1.05618546513142E-05,4.74609375,0,0
-3.48571375070605E-05,9.46073669183534E-06,4.74609375,0,0
-3.47236127709039E-05,7.42225120120565E-06,4.74609375,0,0
-3.57262979377992E-05,6.09015023655957E-06,4.74609375,0,0
-3.58961442543659E-05,5.37712321602157E-06,4.74609375,0,0
-2.75985184998717E-05,2.62724552158033E-06,4.74609375,0,0
-3.64297629857901E-05,1.26903807995404E-06,4.74609375,0,0
-2.31720641750144E-05,-2.13652398883823E-07,4.74609375,0,0
-2.75630336545873E-05,4.2341966945969E-06,4.74609375,0,0
-1.77309539139969E-05,8.15900966699701E-06,4.74609375,0,0
-1.82472122105537E-05,1.10053060780047E-05,4.74609375,0,0
-1.20809290820034E-05,8.22075344331097E-06,4.74609375,0,0
-1.09093998617027E-05,4.78412994198152E-06,4.74609375,0,0
-5.78199978917837E-06,4.42245891463244E-06,4.74609375,0,0
-1.72898660366627E-06,6.74993179927696E-06,4.74609375,0,0
-1.64109881239938E-08,7.19015770300757E-06,4.74609375,0,0
3.33701883903359E-08,5.59181398784858E-06,4.74609375,0,0
-2.48971696237277E-06,4.48059017799096E-06,4.74609375,0,0
-1.13600867734931E-06,3.5325806493347E-06,4.74609375,0,0
-2.72029137704521E-06,4.84314705317956E-06,4.74609375,0,0
-2.46163767769758E-06,5.80697906116256E-06,4.74609375,0,0
-6.04840943196905E-06,5.14705152454553E-06,4.74609375,0,0
-6.16189572610892E-06,3.17992589771166E-06,4.74609375,0,0
-8.42920326249441E-06,3.92938181903446E-06,4.74609375,0,0
-7.0994478846842E-06,5.62383820579271E-06,4.74609375,0,0
-8.95570246939315E-06,5.71416649108869E-06,4.74609375,0,0
-1.0775167538668E-05,4.68521284346934E-06,4.74609375,0,0
-1.42368344313581E-05,4.03298872697633E-06,4.74609375,0,0
-1.55188045027899E-05,2.43620206674677E-06,4.74609375,0,0
-1.79490652953973E-05,1.93514824786689E-06,4.74609375,0,0
-1.99837559193838E-05,3.36868060912821E-06,4.74609375,0,0
-2.15478794416413E-05,4.08451160183176E-06,4.74609375,0,0
-1.89721340575488E-05,1.22917344924645E-06,4.74609375,0,0
-2.81647535302909E-05,1.21518405649113E-06,4.74609375,0,0
-2.19523135456257E-05,1.06755965134653E-06,4.74609375,0,0
-2.37844287767075E-05,2.05543710762868E-06,4.74609375,0,0
-1.74771175807109E-05,4.79500977235148E-06,4.74609375,0,0
-1.89129368663998E-05,1.06442466858425E-05,4.74609375,0,0
-1.69133545568911E-05,1.28008796309587E-05,4.74609375,0,0
-1.78115878952667E-05,1.19952655950328E-05,4.74609375,0,0
-1.77159017766826E-05,1.00603456303361E-05,4.74609375,0,0
-1.86473516805563E-05,9.0395533334231E-06,4.74609375,0,0
-1.90937589650275E-05,8.19016531750094E-06,4.74609375,0,0
-1.87817422556691E-05,7.86572309152689E-06,4.74609375,0,0
-2.1119925804669E-05,7.9326719060191E-06,4.74609375,0,0
-2.25929743464803E-05,8.1848584159161E-06,4.74609375,0,0
-2.54137521551456E-05,9.64099581324263E-06,4.74609375,0,0
-2.51407145697158E-05,1.07925361589878E-05,4.74609375,0,0
-2.525747368054E-05,1.02427220554091E-05,4.74609375,0,0
-2.29011220653774E-05,7.66170069255168E-06,4.74609375,0,0
-2.32777074415935E-05,5.4515717238246E-06,4.74609375,0,0
-2.25060102820862E-05,4.93389461553306E-06,4.74609375,0,0
-2.23856095544761E-05,6.79784670865047E-06,4.74609375,0,0
-1.96322525880532E-05,8.38244613987627E-06,4.74609375,0,0
-1.69414397532819E-05,9.84228790912312E-06,4.74609375,0,0
-1.41960035762168E-05,1.17716799650225E-05,4.74609375,0,0
-1.46569527714746E-05,1.25267179100774E-05,4.74609375,0,0
-1.64149369084043E-05,1.09910160972504E-05,4.74609375,0,0
-1.61461211973801E-05,9.34949912334559E-06,4.74609375,0,0
-1.21445000331732E-05,6.38753181192442E-06,4.74609375,0,0
-1.90380524145439E-05,7.92298578744521E-06,4.74609375,0,0
-1.93658961507026E-05,3.55811494046065E-06,4.74609375,0,0
-2.68539388343925E-05,3.38084350914869E-06,4.74609375,0,0
-2.68334752036026E-05,3.1882237294667E-07,4.74609375,0,0
-2.94848323392216E-05,1.75311981820414E-07,4.74609375,0,0
-3.01221825793618E-05,-1.97357326214842E-06,4.74609375,0,0
-3.25824330502655E-05,-3.32275999426201E-06,4.74609375,0,0
-3.25295914080925E-05,-3.42796101904241E-06,4.74609375,0,0
-3.20647122862283E-05,-7.96978440575913E-07,4.74609375,0,0
-3.14960489049554E-05,4.26926180807641E-06,4.74609375,0,0
-3.10763643938117E-05,1.01876521512168E-05,4.74609375,0,0
-3.1608302379027E-05,1.41180262289708E-05,4.74609375,0,0
-2.98182567348704E-05,1.38622617669171E-05,4.74609375,0,0
-2.9355342121562E-05,1.34583015096723E-05,4.74609375,0,0
-2.9211214496172E-05,1.324570075667E-05,4.74609375,0,0
-3.05739740724675E-05,1.41561476993957E-05,4.74609375,0,0
-2.99846469715703E-05,1.38875993798138E-05,4.74609375,0,0
-3.05605426547118E-05,1.27314915516763E-05,4.74609375,0,0
-3.06115143757779E-05,9.88246210908983E-06,4.74609375,0,0
-3.11929106828757E-05,8.09714219940361E-06,4.74609375,0,0
-3.03696615446825E-05,6.64720027998555E-06,4.74609375,0,0
-3.04341610899428E-05,6.54320820103749E-06,4.74609375,0,0
-2.98709001071984E-05,7.35218600311782E-06,4.74609375,0,0
-3.00988467643037E-05,9.42441147344653E-06,4.74609375,0,0
-3.07505142700393E-05,1.17585914267693E-05,4.74609375,0,0
-3.02206462947652E-05,1.26292616187129E-05,4.74609375,0,0
-2.3671202143305E-05,8.976864592114E-06,4.74609375,0,0
-3.26370136463083E-05,1.23877325677313E-05,4.74609375,0,0
-2.34873423323734E-05,1.01628547781729E-05,4.74609375,0,0
-3.07883055938873E-05,1.29445352285984E-05,4.74609375,0,0
-2.75961374427425E-05,9.42347196541959E-06,4.74609375,0,0
-3.25753353536129E-05,9.89699947240297E-06,4.74609375,0,0
-3.14224234898575E-05,8.21282628749032E-06,4.74609375,0,0
-3.35955555783585E-05,9.09437312657246E-06,4.74609375,0,0
-3.29560934915207E-05,1.095503102988E-05,4.74609375,0,0
-3.26958834193647E-05,1.2860734386777E-05,4.74609375,0,0
-3.24178145092446E-05,1.14518907139427E-05,4.74609375,0,0
-3.02884254779201E-05,8.10300571174594E-06,4.74609375,0,0
-2.91882333840476E-05,7.22006961950683E-06,4.74609375,0,0
-2.6392543077236E-05,7.03726982465014E-06,4.74609375,0,0
-2.71087301371153E-05,8.4184766819817E-06,4.74609375,0,0
-2.49720633291872E-05,8.03559487394523E-06,4.74609375,0,0
-2.47640891757328E-05,8.51667664392153E-06,16.5234375,0,0
-2.29403140110662E-05,8.82982203620486E-06,16.5234375,0,0
-2.39330929616699E-05,9.82768324320205E-06,16.5234375,0,0
-2.15329018828925E-05,8.74690977070713E-06,16.5234375,0,0
-1.9672237613122E-05,7.9987976278062E-06,16.5234375,0,0
-1.66412464750465E-05,7.26428879715968E-06,16.5234375,0,0
-1.65914043463999E-05,8.18799981061602E-06,16.5234375,0,0
-1.56367477757158E-05,8.07962805993157E-06,16.5234375,0,0
-1.43376328196609E-05,8.04350020189304E-06,16.5234375,0,0
-1.34973697640817E-05,9.79543619905598E-06,16.5234375,0,0
-1.3770341865893E-05,1.22040473797824E-05,16.5234375,0,0
-1.10739329102216E-05,1.02102767414181E-05,16.5234375,0,0
-1.57605536514893E-05,1.39890053105773E-05,16.5234375,0,0
-1.20552904263604E-05,1.11821818791213E-05,16.5234375,0,0
-1.44247978823842E-05,1.41273330882541E-05,16.5234375,0,0
-1.15725797513733E-05,1.05510480352677E-05,16.5234375,0,0
-1.21613038572832E-05,1.14623089757515E-05,16.5234375,0,0
-1.15416087282938E-05,9.23799234442413E-06,16.5234375,0,0
-1.52898828673642E-05,1.0423360436107E-05,16.5234375,0,0
-1.88345966307679E-05,1.22312721941853E-05,16.5234375,0,0
-2.04887655854691E-05,1.11246772576123E-05,16.5234375,0,0
-2.04213210963644E-05,9.1540005087154E-06,16.5234375,0,0
-2.06537861231482E-05,1.07761752587976E-05,16.5234375,0,0
-2.32402035180712E-05,1.58012062456692E-05,16.5234375,0,0
-2.47451753239147E-05,1.90665396075929E-05,16.5234375,0,0
-2.62409375864081E-05,2.10279758903198E-05,16.5234375,0,0
-2.55647100857459E-05,2.04223724722397E-05,16.5234375,0,0
-2.66222214122536E-05,2.0752626369358E-05,16.5234375,0,0
-2.72852357738884E-05,1.92414845514577E-05,16.5234375,0,0
-2.85710830212338E-05,1.9175973648089E-05,16.5234375,0,0
-2.85427122435067E-05,1.96075670828577E-05,16.5234375,0,0
-2.93489501927979E-05,2.10116340895183E-05,16.5234375,0,0
-2.9267026548041E-05,2.03456147573888E-05,16.5234375,0,0
-2.83122426480986E-05,1.8356011423748E-05,16.5234375,0,0
-2.58400032180361E-05,1.59549381351098E-05,16.5234375,0,0
-2.41847355937352E-05,1.62099931912962E-05,16.5234375,0,0
-2.36556679737987E-05,1.60116669576382E-05,16.5234375,0,0
-2.29051929636626E-05,1.5271603842848E-05,16.5234375,0,0
-1.74266187968897E-05,1.34861229525995E-05,16.5234375,0,0
-2.29281577048823E-05,2.04643638426205E-05,16.5234375,0,0
-1.51956655827234E-05,1.50009709614096E-05,16.5234375,0,0
-2.08619658224052E-05,1.42412518471247E-05,16.5234375,0,0
-1.86533125088317E-05,1.00283596111694E-05,16.5234375,0,0
-2.11535407288466E-05,1.33878929773346E-05,16.5234375,0,0
-1.93327559827594E-05,1.35122463689186E-05,16.5234375,0,0
-2.18167588172946E-05,1.41257341965684E-05,16.5234375,0,0
-2.36110390687827E-05,1.25054493764765E-05,16.5234375,0,0
-2.65228482021485E-05,1.09019574665581E-05,16.5234375,0,0
-2.87907187157543E-05,1.08074164018035E-05,16.5234375,0,0
-2.94651817966951E-05,1.27381417769357E-05,16.5234375,0,0
-3.10098948830273E-05,1.5253400306392E-05,16.5234375,0,0
-3.08616436086595E-05,1.31806827994296E-05,16.5234375,0,0
-3.19552782457322E-05,1.12490342871752E-05,16.5234375,0,0
-3.03246433759341E-05,9.45952797337668E-06,16.5234375,0,0
-3.04338591377018E-05,1.00527204267564E-05,16.5234375,0,0
-2.80294316326035E-05,8.77549155120505E-06,16.5234375,0,0
-2.69723150267964E-05,8.54255995363928E-06,16.5234375,0,0
-2.48489795922069E-05,7.86928376328433E-06,16.5234375,0,0
-2.60311699094018E-05,7.79236142989248E-06,16.5234375,0,0
-2.66496826952789E-05,6.04930573899765E-06,16.5234375,0,0
-2.69199790636776E-05,5.88865987083409E-06,16.5234375,0,0
-2.63467500190018E-05,7.18989349479671E-06,16.5234375,0,0
-2.7801213946077E-05,9.13941585167777E-06,16.5234375,0,0
-2.95970312436111E-05,9.11658480617916E-06,16.5234375,0,0
-3.11017356580123E-05,8.10001711215591E-06,16.5234375,0,0
-2.55876548180822E-05,6.55710437058588E-06,16.5234375,0,0
-3.62569335266016E-05,1.01877812994644E-05,16.5234375,0,0
-2.77831877610879E-05,7.92983246356016E-06,16.5234375,0,0
-3.63265244232025E-05,6.90047363605117E-06,16.5234375,0,0
-3.3403866837034E-05,3.18758225148486E-06,16.5234375,0,0
-3.7272613553796E-05,3.03745605378936E-06,16.5234375,0,0
-3.34318137902301E-05,2.27920963880024E-06,16.5234375,0,0
-3.45317312167026E-05,4.06707749789348E-06,16.5234375,0,0
-3.3412787161069E-05,6.98698113410501E-06,16.5234375,0,0
-3.21943880408071E-05,8.06776824902045E-06,16.5234375,0,0
-3.06156543956604E-05,5.31253408553312E-06,16.5234375,0,0
-2.89633171632886E-05,1.22870937957487E-06,16.5234375,0,0
-3.02246990031563E-05,3.36127072841919E-08,16.5234375,0,0
-2.88913979602512E-05,1.35686741487007E-06,16.5234375,0,0
-3.00855208479334E-05,4.00873432226945E-06,16.5234375,0,0
-2.89656400127569E-05,4.59823513665469E-06,16.5234375,0,0
-3.0867518944433E-05,5.23899643667392E-06,16.5234375,0,0
-2.90926964225946E-05,5.82334359933157E-06,16.5234375,0,0
-2.89226518361829E-05,7.42613201509812E-06,16.5234375,0,0
-2.67035193246556E-05,8.20556033431785E-06,16.5234375,0,0
-2.59079133684281E-05,8.48240051709581E-06,16.5234375,0,0
-2.14822357520461E-05,6.94501659381785E-06,16.5234375,0,0
-1.80411152541637E-05,5.19745253768633E-06,16.5234375,0,0
-1.49334473462659E-05,4.28988414569176E-06,16.5234375,0,0
-1.41665232149535E-05,4.98474582855124E-06,16.5234375,0,0
-1.48229364640429E-05,7.30253168512718E-06,16.5234375,0,0
-1.64649518410442E-05,1.02714675449533E-05,16.5234375,0,0
-1.42029075504979E-05,1.03415677585872E-05,16.5234375,0,0
-2.00816702999873E-05,1.43165125336964E-05,16.5234375,0,0
-1.58882594405441E-05,8.862675713317E-06,16.5234375,0,0
-2.10202360904077E-05,8.67651760927401E-06,16.5234375,0,0
-2.00277336261934E-05,6.53754250379279E-06,16.5234375,0,0
-2.37927142734407E-05,1.14126778498758E-05,16.5234375,0,0
-2.41214693232905E-05,1.23216586871422E-05,16.5234375,0,0
-2.74405592790572E-05,1.16691808216274E-05,16.5234375,0,0
-3.04538407362998E-05,9.63211277849041E-06,16.5234375,0,0
-3.30611328536179E-05,9.38061748456676E-06,16.5234375,0,0
-3.46443157468457E-05,1.02234107544064E-05,16.5234375,0,0
-3.42145431204699E-05,1.03121828942676E-05,16.5234375,0,0
-3.46533270203508E-05,9.49933109950507E-06,16.5234375,0,0
-3.46061606251169E-05,7.26936968931113E-06,16.5234375,0,0
-3.69742338079959E-05,7.47065359973931E-06,16.5234375,0,0
-3.81823992938735E-05,7.39138522476424E-06,16.5234375,0,0
-3.95514543924946E-05,8.53499841468874E-06,16.5234375,0,0
-3.66128842870239E-05,7.53662516217446E-06,16.5234375,0,0
-3.29620816046372E-05,6.68325537844794E-06,16.5234375,0,0
-2.7152054826729E-05,6.44925603410229E-06,16.5234375,0,0
-2.16866901610047E-05,8.90290539246053E-06,16.5234375,0,0
-1.61179905262543E-05,1.02592111943522E-05,16.5234375,0,0
-1.31791593958042E-05,1.05252674984513E-05,16.5234375,0,0
-1.07958476291969E-05,1.02556832644041E-05,16.5234375,0,0
-9.27390374272363E-06,9.98911582428264E-06,16.5234375,0,0
-8.19297292764531E-06,9.46302134252619E-06,16.5234375,0,0
-6.72920396027621E-06,1.05130684460164E-05,16.5234375,0,0
-3.43141778103018E-06,1.21485572890379E-05,16.5234375,0,0
-3.89142132917186E-06,2.11340848181862E-05,16.5234375,0,0
-2.75457955467573E-06,1.88876856554998E-05,16.5234375,0,0
-4.93564675707603E-06,1.86113556992495E-05,16.5234375,0,0
-5.6922390285763E-06,1.53192759171361E-05,16.5234375,0,0
-8.26168161438545E-06,1.87420300790109E-05,16.5234375,0,0
-9.96114431472961E-06,1.98639809241286E-05,16.5234375,0,0
-1.31378092191881E-05,1.9853448975482E-05,16.5234375,0,0
-1.54163444676669E-05,2.00418999156682E-05,16.5234375,0,0
-1.67295438586734E-05,2.01737038878491E-05,16.5234375,0,0
-1.79919734364375E-05,1.91160270333057E-05,16.5234375,0,0
-1.88620706467191E-05,1.72039690369274E-05,16.5234375,0,0
-1.99657933990238E-05,1.63677523232764E-05,16.5234375,0,0
-1.97640165424673E-05,1.63738859555451E-05,16.5234375,0,0
-1.87128152902005E-05,1.93508749362081E-05,16.5234375,0,0
-1.69478080351837E-05,2.06388103833888E-05,16.5234375,0,0
-1.6685233276803E-05,2.02466362679843E-05,16.5234375,0,0
-1.67633261298761E-05,1.79753405973315E-05,16.5234375,0,0
-1.60319850692758E-05,1.83229185495293E-05,16.5234375,0,0
-1.42028893606039E-05,1.96801993297413E-05,16.5234375,0,0
-1.40526281029452E-05,2.08482233574614E-05,16.5234375,0,0
-1.43146953632822E-05,1.92567295016488E-05,16.5234375,0,0
-1.45097719723708E-05,1.68403967109043E-05,16.5234375,0,0
-1.62757278303616E-05,1.60221243277192E-05,16.5234375,0,0
-1.90698337974027E-05,1.79831913555972E-05,16.5234375,0,0
-2.11707465496147E-05,1.97840490727685E-05,16.5234375,0,0
-2.29100915021263E-05,1.95087341126055E-05,16.5234375,0,0
-1.95799784705741E-05,1.38796858664136E-05,16.5234375,0,0
-2.80219173873775E-05,1.88267604244174E-05,16.5234375,0,0
-2.10268444789108E-05,1.52166367115569E-05,16.5234375,0,0
-2.73773566732416E-05,1.99502046598354E-05,16.5234375,0,0
-2.65677208517445E-05,1.36686485348037E-05,16.5234375,0,0
-3.17154481308535E-05,1.30486214402481E-05,16.5234375,0,0
-3.11746480292641E-05,1.09698476080666E-05,16.5234375,0,0
-3.26927693095058E-05,1.24327079902287E-05,16.5234375,0,0
-3.19240098178852E-05,1.18646494229324E-05,16.5234375,0,0
-3.3049684134312E-05,1.00873548944946E-05,16.5234375,0,0
-3.47523273376282E-05,8.95378525456181E-06,16.5234375,0,0
-3.43521933245938E-05,8.21351568447426E-06,16.5234375,0,0
-3.37265955749899E-05,8.42327153804945E-06,16.5234375,0,0
-3.1915187719278E-05,7.12901328370208E-06,16.5234375,0,0
-3.39616017299704E-05,7.55882001612918E-06,16.5234375,0,0
-3.54020921804477E-05,6.70532062940765E-06,16.5234375,0,0
-3.76825628336519E-05,8.21637058834312E-06,16.5234375,0,0
-3.48649118677713E-05,8.76124340720708E-06,16.5234375,0,0
-3.2898155041039E-05,9.75925922830356E-06,16.5234375,0,0
-3.1790325010661E-05,8.66066602611681E-06,16.5234375,0,0
-3.49007714248728E-05,9.31837257667212E-06,16.5234375,0,0
-3.55338925146498E-05,8.91633681021631E-06,33.92578125,0,0
-3.43825995514635E-05,8.73239787324565E-06,33.92578125,0,0
-3.04748882626882E-05,8.06277512310771E-06,33.92578125,0,0
-2.72679426416289E-05,8.06909429229563E-06,33.92578125,0,0
-2.47747721004998E-05,8.51548884384101E-06,33.92578125,0,0
-2.36594514717581E-05,1.03493248388986E-05,33.92578125,0,0
-1.97510817088187E-05,8.32343266665703E-06,33.92578125,0,0
-2.85747300949879E-05,1.04717855720082E-05,33.92578125,0,0
-2.16550506593194E-05,7.86394775786903E-06,33.92578125,0,0
-2.64520531345624E-05,1.15456332423491E-05,33.92578125,0,0
-2.27681430260418E-05,9.05209526536055E-06,33.92578125,0,0
-2.45529481617268E-05,9.26922712096712E-06,33.92578125,0,0
-2.23773749894463E-05,7.14126736056642E-06,33.92578125,0,0
-2.3835356842028E-05,7.27873339201324E-06,33.92578125,0,0
-2.2446383809438E-05,7.98788732936373E-06,33.92578125,0,0
-2.1801795810461E-05,8.17081308923662E-06,33.92578125,0,0
-2.23992738028755E-05,8.23127538751578E-06,33.92578125,0,0
-2.25685289478861E-05,8.81924916029675E-06,33.92578125,0,0
-2.29159522859845E-05,9.54579172685044E-06,33.92578125,0,0
-2.00240756385028E-05,8.89974398887716E-06,33.92578125,0,0
-1.91272029042011E-05,1.07943224065821E-05,33.92578125,0,0
-1.82803487405181E-05,1.37752494993038E-05,33.92578125,0,0
-2.14041228900896E-05,1.73303869814845E-05,33.92578125,0,0
-2.22201360884355E-05,1.74425258592237E-05,33.92578125,0,0
-2.449898966006E-05,1.69372560776537E-05,33.92578125,0,0
-2.61406603385694E-05,1.53111595864175E-05,33.92578125,0,0
-3.19023492920678E-05,1.40202801048872E-05,33.92578125,0,0
-3.71029309462756E-05,1.32359646158875E-05,33.92578125,0,0
-3.9913382352097E-05,1.56498572323471E-05,33.92578125,0,0
-3.90096756746061E-05,1.78391474037198E-05,33.92578125,0,0
-3.78280637960415E-05,1.83055508387042E-05,33.92578125,0,0
-3.57091885234695E-05,1.77456513483776E-05,33.92578125,0,0
-3.30617403960787E-05,1.83998454303946E-05,33.92578125,0,0
-2.54600927291904E-05,1.50957730511436E-05,33.92578125,0,0
-3.60545891453512E-05,2.01818002096843E-05,33.92578125,0,0
-2.71383341896581E-05,1.24215530377114E-05,33.92578125,0,0
-3.29502436215989E-05,1.32049062813167E-05,33.92578125,0,0
-2.62409757851856E-05,7.10463518771576E-06,33.92578125,0,0
-2.7723026505555E-05,9.45297779253451E-06,33.92578125,0,0
-2.2036520022084E-05,6.81054370943457E-06,33.92578125,0,0
-2.1422474674182E-05,4.51524647360202E-06,33.92578125,0,0
-1.97165354620665E-05,3.27856696458184E-06,33.92578125,0,0
-1.88813646673225E-05,3.29689146383316E-06,33.92578125,0,0
-1.7381747966283E-05,3.0094681733317E-06,33.92578125,0,0
-1.3867571396986E-05,2.31740864364838E-06,33.92578125,0,0
-1.1778119187511E-05,3.79367133973574E-06,33.92578125,0,0
-7.47220428820583E-06,4.89706690132152E-06,33.92578125,0,0
-7.60636521590641E-06,8.11190784588689E-06,33.92578125,0,0
-5.98075075686211E-06,1.08683652797481E-05,33.92578125,0,0
-6.86285602569114E-06,1.59729133883957E-05,33.92578125,0,0
-5.18683918926399E-06,1.82543044502381E-05,33.92578125,0,0
-6.58214366922039E-06,1.96799064724473E-05,33.92578125,0,0
-5.8134369282925E-06,1.74569613591302E-05,33.92578125,0,0
-8.17493764770916E-06,1.47017763083568E-05,33.92578125,0,0
-1.05821100078174E-05,1.27275825434481E-05,33.92578125,0,0
-1.26422364701284E-05,1.47519867823576E-05,33.92578125,0,0
-1.05799326775013E-05,1.5699146388215E-05,33.92578125,0,0
-8.44526766741183E-06,1.47648588608718E-05,33.92578125,0,0
-7.15434089215705E-06,1.24261950986693E-05,33.92578125,0,0
-8.99069073057035E-06,1.13359265014878E-05,33.92578125,0,0
-1.06788584162132E-05,8.18219541542931E-06,33.92578125,0,0
-1.66115969477687E-05,9.23090192372911E-06,33.92578125,0,0
-1.51203703353531E-05,2.89511854134616E-06,33.92578125,0,0
-1.92808838619385E-05,1.49765264723101E-06,33.92578125,0,0
-1.7980215488933E-05,-3.10149175675178E-06,33.92578125,0,0
-1.76226330950158E-05,-1.44421028380748E-06,33.92578125,0,0
-1.5254159734468E-05,-1.00593047136499E-06,33.92578125,0,0
-1.67663201864343E-05,1.90284072232316E-06,33.92578125,0,0
-2.00487847905606E-05,4.86012322653551E-06,33.92578125,0,0
-2.38754073507153E-05,7.49654464016203E-06,33.92578125,0,0
-2.68221883743536E-05,1.02778421933181E-05,33.92578125,0,0
-2.84859088424128E-05,1.28979672808782E-05,33.92578125,0,0
-3.11717194563244E-05,1.45282001540181E-05,33.92578125,0,0
-3.32643212459516E-05,1.24773960124003E-05,33.92578125,0,0
-3.57797653123271E-05,1.07114919956075E-05,33.92578125,0,0
-3.62921819032636E-05,9.09612299437867E-06,33.92578125,0,0
-3.69818990293425E-05,9.58262080530403E-06,33.92578125,0,0
-3.52235620084684E-05,9.53118160396116E-06,33.92578125,0,0
-3.31606315739919E-05,9.72683210420655E-06,33.92578125,0,0
-2.9610120691359E-05,6.74587863613851E-06,33.92578125,0,0
-2.62507801380707E-05,3.4731863252091E-06,33.92578125,0,0
-2.26013926294399E-05,1.83057068170456E-06,33.92578125,0,0
-2.02968603844056E-05,3.16551677315147E-06,33.92578125,0,0
-1.87651094165631E-05,4.50438801635755E-06,33.92578125,0,0
-1.83398460649187E-05,5.06449941894971E-06,33.92578125,0,0
-1.8485692635295E-05,4.09081167163095E-06,33.92578125,0,0
-1.91680937859928E-05,3.65773144039849E-06,33.92578125,0,0
-1.83782722160686E-05,5.05361140312743E-06,33.92578125,0,0
-2.77014278253773E-05,7.40480436434154E-06,33.92578125,0,0
-2.14456977118971E-05,4.33996183346608E-06,33.92578125,0,0
-2.30146997637348E-05,3.35075060320378E-06,33.92578125,0,0
-1.62917367561022E-05,1.98458815248159E-06,33.92578125,0,0
-1.73875741893426E-05,5.19053082825849E-06,33.92578125,0,0
-1.72665550053352E-05,9.12682935449993E-06,33.92578125,0,0
-2.18407185457181E-05,1.15501270556706E-05,33.92578125,0,0
-2.4461320208502E-05,1.19095329864649E-05,33.92578125,0,0
-2.62741450569592E-05,1.079048615793E-05,33.92578125,0,0
-2.7460779165267E-05,8.77447200764436E-06,33.92578125,0,0
-2.74110079772072E-05,7.47429839975666E-06,33.92578125,0,0
-2.88567280222196E-05,7.25412473912002E-06,33.92578125,0,0
-2.7528161808732E-05,6.77497109791148E-06,33.92578125,0,0
-2.63383062701905E-05,7.91349611972691E-06,33.92578125,0,0
-2.35870083997725E-05,9.91444539977238E-06,33.92578125,0,0
-2.49616023211274E-05,1.12582756628399E-05,33.92578125,0,0
-2.48164978984278E-05,9.94423862721305E-06,33.92578125,0,0
-2.35999286815058E-05,9.13927033252548E-06,33.92578125,0,0
-1.85488079296192E-05,9.22963772609364E-06,33.92578125,0,0
-1.46905576912104E-05,9.56590884015895E-06,33.92578125,0,0
-1.09691090983688E-05,1.08619096863549E-05,33.92578125,0,0
-9.47565331443911E-06,1.4951333469071E-05,33.92578125,0,0
-9.17204852157738E-06,1.81493342097383E-05,33.92578125,0,0
-1.12964398795157E-05,1.83172032848233E-05,33.92578125,0,0
-1.24736770885647E-05,1.735546902637E-05,33.92578125,0,0
-1.23428408187465E-05,1.72247055161279E-05,33.92578125,0,0
-1.0506348189665E-05,1.46831198435393E-05,33.92578125,0,0
-1.67200178111671E-05,1.94716867554234E-05,33.92578125,0,0
-1.78452846739674E-05,1.30537964651012E-05,33.92578125,0,0
-2.64894351857947E-05,1.60891868290491E-05,33.92578125,0,0
-2.97107490041526E-05,9.77172112470726E-06,33.92578125,0,0
-3.31895644194447E-05,1.01927262221579E-05,33.92578125,0,0
-3.26983463310171E-05,8.75112618814455E-06,33.92578125,0,0
-3.51345915987622E-05,8.46053353598109E-06,33.92578125,0,0
-3.76736243197229E-05,8.17175441625295E-06,33.92578125,0,0
-3.99041564378422E-05,9.11781535251066E-06,33.92578125,0,0
-4.02931254939176E-05,9.27237124415115E-06,33.92578125,0,0
-3.9354941691272E-05,8.49577372719068E-06,33.92578125,0,0
-3.88816515624058E-05,9.23955940379528E-06,33.92578125,0,0
-3.79094417439774E-05,1.06144734672853E-05,33.92578125,0,0
-3.88765256502666E-05,1.446907663194E-05,33.92578125,0,0
-3.83815386157949E-05,1.54957542690681E-05,33.92578125,0,0
-3.74338596884627E-05,1.54910667333752E-05,33.92578125,0,0
-3.4979559131898E-05,1.17181680252543E-05,33.92578125,0,0
-3.47568602592219E-05,8.99563292477978E-06,33.92578125,0,0
-3.38981662935112E-05,6.59044644635287E-06,33.92578125,0,0
-3.28465830534697E-05,6.9901338974887E-06,33.92578125,0,0
-3.02083735732595E-05,5.70700467505958E-06,33.92578125,0,0
-2.79909636446973E-05,4.57749638371752E-06,33.92578125,0,0
-2.64362060988788E-05,4.48075252279523E-06,33.92578125,0,0
-2.52791724051349E-05,6.59141232972615E-06,33.92578125,0,0
-2.20549081859645E-05,7.6364249252947E-06,33.92578125,0,0
-1.80355746124405E-05,7.90428566688206E-06,33.92578125,0,0
-1.30761563923443E-05,6.56788279229659E-06,33.92578125,0,0
-1.83076845132746E-05,8.07087963039521E-06,33.92578125,0,0
-1.34048450490809E-05,4.89036347062211E-06,33.92578125,0,0
-1.67509824677836E-05,6.43165822111769E-06,33.92578125,0,0
-1.48747030834784E-05,6.65945026412373E-06,33.92578125,0,0
-1.8937562344945E-05,1.17501576823997E-05,33.92578125,0,0
-2.07458015211159E-05,1.3146174751455E-05,33.92578125,0,0
-2.34359395108186E-05,1.36608296088525E-05,33.92578125,0,0
-2.28997887461446E-05,1.45800186146516E-05,33.92578125,0,0
-2.35848510783399E-05,1.52669672388583E-05,33.92578125,0,0
-2.71697044809116E-05,1.3974962712382E-05,33.92578125,0,0
-3.11916846840177E-05,1.10972441689228E-05,33.92578125,0,0
-3.42166022164747E-05,9.47640000958927E-06,33.92578125,0,0
-3.31520350300707E-05,8.3615859693964E-06,33.92578125,0,0
-3.34408250637352E-05,9.02741430763854E-06,33.92578125,0,0
-3.40244914696086E-05,8.65006495587295E-06,33.92578125,0,0
-3.709739758051E-05,8.35525406728266E-06,33.92578125,0,0
-3.83529804821592E-05,8.49756270326907E-06,33.92578125,0,0
-3.9069611375453E-05,1.05850531326723E-05,33.92578125,0,0
-3.75050985894632E-05,9.95214122667676E-06,33.92578125,0,0
-3.75754643755499E-05,7.75844000600046E-06,33.92578125,0,0
-3.66495514754206E-05,5.75278045289451E-06,33.92578125,0,0
-3.45897242368665E-05,6.32952333035064E-06,33.92578125,0,0
-3.17874983011279E-05,7.25733571016463E-06,54.31640625,0,0
-2.99499679385917E-05,8.22517085907748E-06,54.31640625,0,0
-2.91394026135094E-05,9.18687055673217E-06,54.31640625,0,0
-3.01183936244342E-05,9.40423433348769E-06,54.31640625,0,0
-2.40793142438633E-05,8.57036047818838E-06,54.31640625,0,0
-3.3351025194861E-05,1.29871141325566E-05,54.31640625,0,0
-2.44969614868751E-05,1.27086623251671E-05,54.31640625,0,0
-3.24236207234208E-05,1.78087375388714E-05,54.31640625,0,0
-2.87896582449321E-05,1.84976215678034E-05,54.31640625,0,0
-3.18595994031057E-05,2.13625389733352E-05,54.31640625,0,0
-2.79288415185874E-05,1.86618453881238E-05,54.31640625,0,0
-2.80417771136854E-05,1.48329700095928E-05,54.31640625,0,0
-2.60205306403805E-05,1.07805853986065E-05,54.31640625,0,0
-2.51989022217458E-05,8.86803172761574E-06,54.31640625,0,0
-2.4790986572043E-05,8.12175221653888E-06,54.31640625,0,0
-2.33610408031382E-05,8.38794858282199E-06,54.31640625,0,0
-2.40918179770233E-05,8.61080116010271E-06,54.31640625,0,0
-2.16998032556148E-05,6.22380457571126E-06,54.31640625,0,0
-2.036046316789E-05,5.34895252712886E-06,54.31640625,0,0
-1.71382398548303E-05,4.72368992632255E-06,54.31640625,0,0
-1.94856165762758E-05,5.16677482664818E-06,54.31640625,0,0
-2.06824588531163E-05,4.33173363489914E-06,54.31640625,0,0
-2.30226578423753E-05,5.09765050082933E-06,54.31640625,0,0
-2.15519157791277E-05,4.60703267890494E-06,54.31640625,0,0
-2.1695490431739E-05,3.57549470209051E-06,54.31640625,0,0
-2.08001783903455E-05,2.8499550808192E-06,54.31640625,0,0
-2.0938809029758E-05,3.32691911353322E-06,54.31640625,0,0
-1.90529535757378E-05,3.15094689540274E-06,54.31640625,0,0
-1.94168860616628E-05,3.67182337868144E-06,54.31640625,0,0
-2.33169721468585E-05,3.61499064638338E-06,54.31640625,0,0
-2.85136939055519E-05,4.026434453408E-06,54.31640625,0,0
-2.62842495430959E-05,4.1013813643076E-06,54.31640625,0,0
-3.95758761442266E-05,6.44642796032713E-06,54.31640625,0,0
-3.31103401549626E-05,5.52135361431283E-06,54.31640625,0,0
-3.96804134652484E-05,5.33702541360981E-06,54.31640625,0,0
-3.31691480823793E-05,3.14636554321623E-06,54.31640625,0,0
-3.53498762706295E-05,2.94092592412198E-06,54.31640625,0,0
-3.13885102514178E-05,4.24293602918624E-07,54.31640625,0,0
-3.10645700665191E-05,-1.63497020366776E-06,54.31640625,0,0
-2.96238340524724E-05,-1.3876231150789E-06,54.31640625,0,0
-3.13998280034866E-05,-2.79997578900293E-07,54.31640625,0,0
-3.30818729707971E-05,1.43345360470448E-07,54.31640625,0,0
-3.32931958837435E-05,7.79907978198935E-08,54.31640625,0,0
-3.70435082004406E-05,1.04176763215946E-06,54.31640625,0,0
-3.84589548048098E-05,2.63898755292757E-06,54.31640625,0,0
-3.98893898818642E-05,5.12410451847245E-06,54.31640625,0,0
-3.56119235220831E-05,6.31224793323781E-06,54.31640625,0,0
-3.32310810335912E-05,6.48857076157583E-06,54.31640625,0,0
-2.97189781122142E-05,6.27350345894229E-06,54.31640625,0,0
