biceps_emg, triceps_emg, subject_position, position_estimate, brace_position
-2.53255275310948E-05,1.02105796031537E-05,0.17578125,0,0
-2.48153864959022E-05,1.06197294371668E-05,0.17578125,0,0
-2.45846895268187E-05,1.1203667781956E-05,0.17578125,0,0
-2.3353264623438E-05,1.10989412860363E-05,0.17578125,0,0
-2.37820113397902E-05,1.0906791430898E-05,0.17578125,0,0
-2.4066543119261E-05,1.10471482912544E-05,0.17578125,0,0
-2.3914044504636E-05,1.06453790067462E-05,0.17578125,0,0
-1.94688873307314E-05,8.57527174957795E-06,0.17578125,0,0
-2.83313311228994E-05,1.21927223517559E-05,0.17578125,0,0
-2.19167650357122E-05,8.40539814817021E-06,0.17578125,0,0
-2.6086554498761E-05,1.01240439107642E-05,0.17578125,0,0
-2.18414952541934E-05,9.98412451735931E-06,0.17578125,0,0
-2.62594858213561E-05,1.25660035337205E-05,0.17578125,0,0
-2.63242745859316E-05,9.76877890934702E-06,0.17578125,0,0
-2.68301719188457E-05,6.42270606476814E-06,0.17578125,0,0
-2.34947692661081E-05,4.53775055575534E-06,0.17578125,0,0
-2.14518149732612E-05,5.27288875673548E-06,0.17578125,0,0
-2.21689333557151E-05,6.85443728798418E-06,0.17578125,0,0
-2.26742995437235E-05,9.04626085684868E-06,0.17578125,0,0
-2.35010811593384E-05,1.27927933135652E-05,0.17578125,0,0
-2.26642441703007E-05,1.43751749419607E-05,0.17578125,0,0
-2.40928384300787E-05,1.43141278385883E-05,0.17578125,0,0
-2.36024206969887E-05,1.29345980894868E-05,0.17578125,0,0
-2.46641793637536E-05,1.3694020708499E-05,0.17578125,0,0
-2.33451482927194E-05,1.4724477296113E-05,0.17578125,0,0
-2.38969569181791E-05,1.60674444487086E-05,0.17578125,0,0
-2.27616765187122E-05,1.53590153786354E-05,0.17578125,0,0
-2.35722509387415E-05,1.45369258461869E-05,0.17578125,0,0
-2.27381297008833E-05,1.35812424559845E-05,0.17578125,0,0
-2.15192758332705E-05,1.51805124914972E-05,0.17578125,0,0
-2.10649304790422E-05,1.58661205205135E-05,0.17578125,0,0
-2.39553082792554E-05,1.44073201227002E-05,0.17578125,0,0
-2.58333748206496E-05,1.16475557661033E-05,0.17578125,0,0
-2.65681010205299E-05,1.06134020825266E-05,0.17578125,0,0
-2.16454700421309E-05,1.04734617707436E-05,0.17578125,0,0
-3.07710288325325E-05,1.51720023495727E-05,0.17578125,0,0
-2.40813169511966E-05,1.09723650894011E-05,0.17578125,0,0
-2.97703245450975E-05,1.29446716528037E-05,0.17578125,0,0
-2.32726670219563E-05,1.24236967167235E-05,0.17578125,0,0
-2.46835734287743E-05,1.60771869559539E-05,0.17578125,0,0
-2.22215785470326E-05,1.57791746460134E-05,0.17578125,0,0
-2.41756424657069E-05,1.63081513164798E-05,0.17578125,0,0
-2.45392475335393E-05,1.61322786880191E-05,0.17578125,0,0
-2.58593136095442E-05,1.64530683832709E-05,0.17578125,0,0
-2.6386151148472E-05,1.65468554769177E-05,0.17578125,0,0
-2.4418444809271E-05,1.60323525051354E-05,0.17578125,0,0
-2.43695685639977E-05,1.61675689014373E-05,0.17578125,0,0
-2.30901659961091E-05,1.52615230035735E-05,0.17578125,0,0
-2.47950229095295E-05,1.40459869726328E-05,0.17578125,0,0
-2.51043111347826E-05,1.04805512819439E-05,0.17578125,0,0
-2.75553484243574E-05,8.02097201813012E-06,0.17578125,0,0
-2.58148120337864E-05,4.97440760227619E-06,0.17578125,0,0
-2.46825766225811E-05,3.76229854737176E-06,0.17578125,0,0
-2.21752925426699E-05,3.81877543986775E-06,0.17578125,0,0
-2.33020109590143E-05,6.96039523973013E-06,0.17578125,0,0
-2.42128244281048E-05,7.32065882402821E-06,0.17578125,0,0
-2.60649940173607E-05,5.88696775594144E-06,0.17578125,0,0
-2.58784439211013E-05,6.13640440860763E-06,0.17578125,0,0
-2.39826949837152E-05,7.99179815658135E-06,0.17578125,0,0
-2.20590100070694E-05,9.13659459911287E-06,0.17578125,0,0
-2.21816681005294E-05,1.03295169537887E-05,0.17578125,0,0
-1.8682274458115E-05,9.13340772967786E-06,0.17578125,0,0
-2.52956506301416E-05,1.34792671815376E-05,0.17578125,0,0
-1.7129872503574E-05,1.15436960186344E-05,0.17578125,0,0
-2.14509109355276E-05,1.5786132280482E-05,0.17578125,0,0
-1.73957560036797E-05,1.51506756083108E-05,0.17578125,0,0
-1.97310273506446E-05,1.48552007885883E-05,0.17578125,0,0
-1.81658233486814E-05,1.16074907055008E-05,0.17578125,0,0
-1.90486789506394E-05,1.12822062874329E-05,0.17578125,0,0
-1.82141684490489E-05,1.06603638414526E-05,0.17578125,0,0
-1.75863187905634E-05,9.12911673367489E-06,0.17578125,0,0
-1.72272011695895E-05,7.00896453054156E-06,0.17578125,0,0
-1.76767935045064E-05,3.88513080906705E-06,0.17578125,0,0
-2.04169282369548E-05,7.93382866959291E-07,0.17578125,0,0
-2.11944116017548E-05,-2.57951410276291E-06,0.17578125,0,0
-2.30261139222421E-05,-2.61383070210286E-06,0.17578125,0,0
-2.14070660149446E-05,-1.59133651322918E-06,0.17578125,0,0
-2.18356781260809E-05,2.71976205112878E-07,0.17578125,0,0
-2.1298035790096E-05,1.69066890975955E-06,0.17578125,0,0
-2.29878933168948E-05,4.85431019114912E-06,0.17578125,0,0
-2.34300805459498E-05,5.2416799007915E-06,0.17578125,0,0
-2.45959217863856E-05,4.73412774226745E-06,0.17578125,0,0
-2.2276071831584E-05,5.65221716897213E-06,0.17578125,0,0
-2.02515984710772E-05,7.48572301745298E-06,0.17578125,0,0
-1.85286207852187E-05,8.40858047013171E-06,0.17578125,0,0
-1.84803902811836E-05,1.02282247098628E-05,0.17578125,0,0
-1.95169814105611E-05,1.11987692434923E-05,0.17578125,0,0
-2.10333510040073E-05,1.12623392851674E-05,0.17578125,0,0
-1.81262457772391E-05,9.40240079216892E-06,0.17578125,0,0
-2.67707982857246E-05,1.33437943077297E-05,0.17578125,0,0
-2.10348298423924E-05,1.09450429590652E-05,0.17578125,0,0
-2.4072483938653E-05,1.47616237882175E-05,0.17578125,0,0
-1.90971713891486E-05,1.31831575345132E-05,0.17578125,0,0
-2.17811157199321E-05,1.38971181513625E-05,0.17578125,0,0
-2.11204751394689E-05,1.09864131445647E-05,0.17578125,0,0
-2.30662662943359E-05,9.73020632955013E-06,0.17578125,0,0
-2.33777336688945E-05,1.03769016277511E-05,0.17578125,0,0
-2.31468093261356E-05,1.34504489324172E-05,0.17578125,0,0
-2.28217904805206E-05,1.63583626999753E-05,0.17578125,0,0
-2.39102482737508E-05,1.49569232235081E-05,0.17578125,0,0
-2.71761946351035E-05,1.22426745292614E-05,0.17578125,0,0
-2.71900753432419E-05,1.09145221358631E-05,0.17578125,0,0
-2.73213645414216E-05,1.21387238323223E-05,0.17578125,0,0
-2.50153098022565E-05,1.10260343717528E-05,0.17578125,0,0
-2.50596222031163E-05,9.68740459938999E-06,0.17578125,0,0
-2.45585233642487E-05,7.34113518774393E-06,0.17578125,0,0
-2.6288698791177E-05,6.83604730511433E-06,0.17578125,0,0
-2.56899620580953E-05,7.87793032941408E-06,0.17578125,0,0
-2.58169529843144E-05,1.04841792563093E-05,0.17578125,0,0
-2.47840744123096E-05,1.09108923425083E-05,0.17578125,0,0
-2.37717922573211E-05,1.00397692222032E-05,0.17578125,0,0
-2.15791460504988E-05,8.31280522106681E-06,0.17578125,0,0
-2.04711705009686E-05,7.48625325286412E-06,0.17578125,0,0
-1.96570672414964E-05,7.59040676712175E-06,0.17578125,0,0
-2.04739753826289E-05,9.13927487999899E-06,0.17578125,0,0
-1.83968732017092E-05,1.00871911854483E-05,0.17578125,0,0
-2.74218218692113E-05,1.49632642205688E-05,0.17578125,0,0
-2.14580722968094E-05,1.18844000098761E-05,0.17578125,0,0
-2.50908615271328E-05,1.43174174809246E-05,0.17578125,0,0
-2.23350853048032E-05,1.2826578313252E-05,0.17578125,0,0
-2.58865038631484E-05,1.44734112836886E-05,0.17578125,0,0
-2.39942855841946E-05,1.36622184072621E-05,0.17578125,0,0
-2.50589728238992E-05,1.34065112433746E-05,0.17578125,0,0
-2.60049946518848E-05,1.18410634968313E-05,0.17578125,0,0
-2.70306609309046E-05,1.22060964713455E-05,0.17578125,0,0
-2.63260481006E-05,1.41974333018879E-05,0.17578125,0,0
-2.45279206865234E-05,1.57755257532699E-05,0.17578125,0,0
-2.51154342549853E-05,1.62289979925845E-05,0.17578125,0,0
-2.45856444962556E-05,1.45984167829738E-05,0.17578125,0,0
-2.49937984335702E-05,1.45443955261726E-05,0.17578125,0,0
-2.39026121562347E-05,1.33821058625472E-05,0.17578125,0,0
-2.59260941675166E-05,1.24737271107733E-05,0.17578125,0,0
-2.61003060586518E-05,1.10102746475604E-05,0.17578125,0,0
-2.64650170720415E-05,1.1277967132628E-05,0.17578125,0,0
-2.36629621213069E-05,1.05980507214554E-05,0.17578125,0,0
-2.25235799007351E-05,1.14128724817419E-05,0.17578125,0,0
-2.15008712984854E-05,1.15587999971467E-05,0.17578125,0,0
-2.21897462324705E-05,1.12515208456898E-05,0.17578125,0,0
-2.23659390030662E-05,1.0474137525307E-05,0.17578125,0,0
-2.28055778279668E-05,1.09133234218461E-05,0.17578125,0,0
-2.34200160775799E-05,1.18141715574893E-05,0.17578125,0,0
-2.45686223934172E-05,1.13866872197832E-05,0.17578125,0,0
-2.05611086130375E-05,8.58508883538889E-06,0.17578125,0,0
-2.94803212455008E-05,1.1393753993616E-05,0.17578125,0,0
-2.30361802096013E-05,7.39659299142659E-06,0.17578125,0,0
-2.87036054942291E-05,8.55376129038632E-06,0.17578125,0,0
-2.41166817431804E-05,4.83946223539533E-06,0.17578125,0,0
-2.54204442171613E-05,3.21022457683284E-06,0.17578125,0,0
-2.15870004467433E-05,8.3109362947198E-08,0.17578125,0,0
-2.26417960220715E-05,2.84234329228639E-06,0.17578125,0,0
-2.28623030125164E-05,9.07798039406771E-06,0.17578125,0,0
-2.42815149249509E-05,1.60497602337273E-05,0.17578125,0,0
-2.54660644714022E-05,2.01318234758219E-05,0.17578125,0,0
-2.46980434894795E-05,1.93929863598896E-05,0.17578125,0,0
-2.5936693418771E-05,1.70580879057525E-05,0.17578125,0,0
-2.56405928666936E-05,1.46623979162541E-05,0.17578125,0,0
-2.59006756095914E-05,1.53750843310263E-05,0.17578125,0,0
-2.311873868166E-05,1.62767319125123E-05,0.17578125,0,0
-2.35965617321199E-05,1.72094678418944E-05,0.17578125,0,0
-2.27960554184392E-05,1.47215878314455E-05,0.17578125,0,0
-2.42421792790992E-05,1.23333948067739E-05,0.17578125,0,0
-2.37866697716527E-05,1.03140400824486E-05,0.17578125,0,0
-2.47530842898414E-05,1.01866407931084E-05,0.17578125,0,0
-2.46047547989292E-05,1.06072029666393E-05,0.17578125,0,0
-2.6106667064596E-05,1.18076259241207E-05,0.17578125,0,0
-2.58457839663606E-05,1.1907498446817E-05,0.17578125,0,0
-2.52773334068479E-05,1.09935836007935E-05,0.17578125,0,0
-2.62238663708558E-05,1.0051474419015E-05,0.17578125,0,0
-2.86461345240241E-05,1.15501552500064E-05,0.17578125,0,0
-2.32800466619665E-05,9.93177582131466E-06,0.17578125,0,0
-3.20405888487585E-05,1.28192605188815E-05,0.17578125,0,0
-2.39450109802419E-05,7.4579029387678E-06,0.17578125,0,0
-3.10591458401177E-05,1.06874867924489E-05,0.17578125,0,0
-2.57083847827744E-05,1.18868783829384E-05,0.17578125,0,0
-2.83582412521355E-05,1.5516623534495E-05,0.17578125,0,0
-2.59322878264356E-05,1.37757187985699E-05,0.17578125,0,0
-2.74908907158533E-05,1.34418614834431E-05,0.17578125,0,0
-2.68218554992927E-05,1.19606220323476E-05,0.17578125,0,0
-2.7788692023023E-05,1.04047157947207E-05,0.17578125,0,0
-2.86743415927049E-05,9.07276353245834E-06,0.17578125,0,0
-2.73362438747426E-05,8.81513915373944E-06,0.17578125,0,0
-2.73679706879193E-05,1.07134246718488E-05,0.17578125,0,0
-2.57262709055794E-05,1.05712406366365E-05,0.17578125,0,0
-2.72083289019065E-05,1.04842783912318E-05,0.17578125,0,0
-2.57570536632556E-05,9.17387387744384E-06,0.17578125,0,0
-2.57063893513987E-05,9.72628549789079E-06,0.17578125,0,0
-2.27184373216005E-05,9.21492573979776E-06,0.17578125,0,0
-2.26309766730992E-05,8.89383500179974E-06,0.17578125,0,0
-2.07225693884538E-05,8.92581556399819E-06,0.17578125,0,0
-2.13190560316434E-05,1.1386337064323E-05,0.17578125,0,0
-2.16018434002763E-05,1.17047102321521E-05,0.17578125,0,0
-2.31945869018091E-05,1.11361387098441E-05,0.17578125,0,0
-2.18929853872396E-05,1.06429188235779E-05,0.17578125,0,0
-2.13265866477741E-05,1.13237256300636E-05,0.17578125,0,0
-2.22377748286817E-05,1.16508763312595E-05,0.17578125,0,0
-2.38318079937017E-05,1.13568003143882E-05,0.17578125,0,0
-1.92154948308598E-05,9.80784079729347E-06,0.17578125,0,0
-2.70049404207384E-05,1.45852309287875E-05,0.17578125,0,0
-2.14430201594951E-05,1.33506073325407E-05,0.17578125,0,0
-2.76867540378589E-05,1.76954381458927E-05,0.17578125,0,0
-2.35757815971738E-05,1.44423556776019E-05,0.17578125,0,0
-2.57932333624922E-05,1.25208061945159E-05,0.17578125,0,0
-2.32932907238137E-05,9.84959297056776E-06,0.17578125,0,0
-2.46530307776993E-05,1.06392026282265E-05,0.17578125,0,0
-2.53523940045852E-05,1.0397099686088E-05,0.17578125,0,0
-2.69142419710988E-05,1.01828127299086E-05,0.17578125,0,0
-2.68895091721788E-05,1.03586899058428E-05,0.17578125,0,0
-2.49791173700942E-05,1.01515224741888E-05,0.17578125,0,0
-2.54380793194287E-05,1.08391959656728E-05,0.17578125,0,0
-2.55349059443688E-05,1.04714163171593E-05,0.17578125,0,0
-2.84063371509546E-05,9.86092345556244E-06,0.17578125,0,0
-2.86796257569222E-05,8.01488840806996E-06,0.17578125,0,0
-2.91514443233609E-05,8.04833052825416E-06,0.17578125,0,0
-2.6216064725304E-05,8.08033837529365E-06,0.17578125,0,0
-2.61832337855594E-05,1.00473325801431E-05,0.17578125,0,0
-2.55563809332671E-05,1.08920594357187E-05,0.17578125,0,0
-2.68008407147136E-05,1.12056068246602E-05,0.17578125,0,0
-2.66169972746866E-05,1.1092379281763E-05,0.17578125,0,0
-2.67440955212805E-05,1.25765336633776E-05,0.17578125,0,0
-2.58192576438887E-05,1.32054392452119E-05,0.17578125,0,0
-2.58812742686132E-05,1.36202615976799E-05,0.17578125,0,0
-2.6200337742921E-05,1.22464016385493E-05,0.17578125,0,0
-2.67262075794861E-05,1.04445934994146E-05,0.17578125,0,0
-2.11137303267606E-05,7.90257763583213E-06,0.17578125,0,0
-2.99845032714074E-05,1.05602521216497E-05,0.17578125,0,0
-2.38828324654605E-05,8.23883601697162E-06,0.17578125,0,0
-2.9712278774241E-05,1.09572301880689E-05,0.17578125,0,0
-2.41148718487239E-05,9.56338863034034E-06,0.17578125,0,0
-2.63998026639456E-05,1.12139368866337E-05,0.17578125,0,0
-2.36251744354377E-05,9.29592351894826E-06,0.17578125,0,0
-2.38967804762069E-05,8.0680520113674E-06,0.17578125,0,0
-2.1516627384699E-05,6.30687463853974E-06,0.17578125,0,0
-2.05098931473913E-05,6.66880623612087E-06,0.17578125,0,0
-2.09227928280598E-05,8.65169567987323E-06,0.17578125,0,0
-2.12334016396198E-05,1.11376966742682E-05,0.17578125,0,0
-2.32192433031742E-05,1.43684837894398E-05,0.17578125,0,0
-2.2942751456867E-05,1.50744317579665E-05,0.17578125,0,0
-2.47264142672066E-05,1.44885461850208E-05,0.17578125,0,0
-2.30066689255182E-05,1.304599300056E-05,0.17578125,0,0
-2.25903622776968E-05,1.38029909066972E-05,0.17578125,0,0
-2.08049259526888E-05,1.29913723867503E-05,0.17578125,0,0
-2.25459589273669E-05,1.21567309179227E-05,0.17578125,0,0
-2.19091270992067E-05,1.08578497020062E-05,0.17578125,0,0
-2.11849292099942E-05,1.13676469482016E-05,0.17578125,0,0
-1.94742151506944E-05,1.11739782369114E-05,0.17578125,0,0
-2.19295870920178E-05,1.07102478068555E-05,0.17578125,0,0
-2.28914177569095E-05,1.03260990726994E-05,0.17578125,0,0
-2.267766467412E-05,1.0619475688145E-05,0.17578125,0,0
-2.2199259547051E-05,1.06364514067536E-05,0.17578125,0,0
-2.1778676455142E-05,1.1696613910317E-05,0.17578125,0,0
-1.89474012586288E-05,9.11679217097117E-06,0.17578125,0,0
-2.87159218714805E-05,1.1788152733061E-05,0.17578125,0,0
-2.33235714404145E-05,7.77737386670196E-06,0.17578125,0,0
-2.64442460320424E-05,9.78589287115028E-06,0.17578125,0,0
-2.14325918932445E-05,7.5466496127774E-06,0.17578125,0,0
-2.41392954194453E-05,1.01586601886083E-05,0.17578125,0,0
-2.33608388953144E-05,9.33262072067009E-06,0.17578125,0,0
-2.50325683737174E-05,8.2135384218418E-06,0.17578125,0,0
-2.48321794060757E-05,5.22562777405255E-06,0.17578125,0,0
-2.45644168899162E-05,4.46874491899507E-06,0.17578125,0,0
-2.40289391513215E-05,6.95396056471509E-06,0.17578125,0,0
-2.25769490498351E-05,9.0573048510123E-06,0.17578125,0,0
-2.26013216888532E-05,9.82248729997082E-06,0.17578125,0,0
-2.05799751711311E-05,9.75709917838685E-06,0.17578125,0,0
-2.02154933504062E-05,1.32321529235924E-05,0.17578125,0,0
-1.90604041563347E-05,1.6789559595054E-05,0.17578125,0,0
-2.08620040211827E-05,1.92462375707692E-05,0.17578125,0,0
-2.14425672311336E-05,1.75334116647718E-05,0.17578125,0,0
-2.42754340433748E-05,1.54889494297095E-05,0.17578125,0,0
-2.53142316068988E-05,1.24231528388918E-05,0.17578125,0,0
-2.59368716797326E-05,1.07080877569388E-05,0.17578125,0,0
-2.38332013395848E-05,9.80614368017996E-06,0.17578125,0,0
-2.35801162489224E-05,1.04240943983314E-05,0.17578125,0,0
-2.31643989536678E-05,1.08111134977662E-05,0.17578125,0,0
-2.23950391955441E-05,1.1236101272516E-05,0.17578125,0,0
-2.15433919947827E-05,1.06330962807988E-05,0.17578125,0,0
-2.16982389247278E-05,1.02070061984705E-05,0.17578125,0,0
-1.89336988114519E-05,8.58690782479243E-06,0.17578125,0,0
-2.80721214949153E-05,1.2971062460565E-05,0.17578125,0,0
-2.26089232455706E-05,1.13318610601709E-05,0.17578125,0,0
-2.77859544439707E-05,1.43837587529561E-05,0.17578125,0,0
-2.5406749045942E-05,1.28104520626948E-05,0.17578125,0,0
-2.87807997665368E-05,1.3769667930319E-05,0.17578125,0,0
-2.54422902798979E-05,1.31690621856251E-05,0.17578125,0,0
-2.35804363910574E-05,1.38864534164895E-05,0.17578125,0,0
-2.11736187338829E-05,1.37995848490391E-05,0.17578125,0,0
-2.21241443796316E-05,1.40899983307463E-05,0.17578125,0,0
-2.40546105487738E-05,1.41181653816602E-05,0.17578125,0,0
-2.33266673603794E-05,1.33483135869028E-05,0.17578125,0,0
-2.32672809943324E-05,1.37612387334229E-05,0.17578125,0,0
-2.27515629376285E-05,1.43518309414503E-05,0.17578125,0,0
-2.52080662903609E-05,1.57815811689943E-05,0.17578125,0,0
-2.48934356932295E-05,1.50747573570698E-05,0.17578125,0,0
-2.42785863520112E-05,1.43041224873741E-05,0.17578125,0,0
-2.11002115975134E-05,1.28799820231507E-05,0.17578125,0,0
-2.10559028346324E-05,1.27005159811233E-05,0.17578125,0,0
-2.03670333576156E-05,1.20216454888578E-05,0.17578125,0,0
-2.1149233361939E-05,1.20369741125614E-05,0.17578125,0,0
-2.04273674171418E-05,1.14900440166821E-05,0.17578125,0,0
-2.15815143747022E-05,1.10336250145338E-05,0.17578125,0,0
-2.35340576182352E-05,1.03245020000031E-05,0.17578125,0,0
-2.53904981946107E-05,9.43988015933428E-06,0.17578125,0,0
-2.56336752499919E-05,8.76282047101995E-06,0.17578125,0,0
-2.53820744546829E-05,8.83047414390603E-06,0.17578125,0,0
-2.08372675842838E-05,7.77977766119875E-06,0.17578125,0,0
-2.93368048005505E-05,1.17990884973551E-05,0.17578125,0,0
-2.19399662455544E-05,9.57269185164478E-06,0.17578125,0,0
-2.83736153505743E-05,1.07353253042675E-05,0.17578125,0,0
-2.53029193117982E-05,9.1912452262477E-06,0.17578125,0,0
-2.84173838736024E-05,1.12787702164496E-05,0.17578125,0,0
-2.60769775195513E-05,1.22123801702401E-05,0.17578125,0,0
-2.63806959992507E-05,1.28143938127323E-05,0.17578125,0,0
-2.50328812398948E-05,1.17093113658484E-05,0.17578125,0,0
-2.49354907282395E-05,1.15068050945411E-05,0.17578125,0,0
-2.45755527430447E-05,1.08673029899364E-05,0.17578125,0,0
-2.31652265938465E-05,8.79746494319988E-06,0.17578125,0,0
-2.43036884057801E-05,5.72723365621641E-06,0.17578125,0,0
-2.34075050684623E-05,1.37871279548563E-06,0.17578125,0,0
-2.34544895647559E-05,-4.95746689921361E-07,0.17578125,0,0
-2.07648517971393E-05,4.43251309434345E-07,0.17578125,0,0
-2.11340411624406E-05,5.59952422918286E-06,0.17578125,0,0
-1.97781319002388E-05,1.08122812889633E-05,0.17578125,0,0
-2.01135771931149E-05,1.44401810757699E-05,0.17578125,0,0
-1.89221118489513E-05,1.40142374220886E-05,0.17578125,0,0
-2.01691182155628E-05,1.22860474220943E-05,0.17578125,0,0
-2.03279378183652E-05,9.86312807071954E-06,0.17578125,0,0
-2.20974816329544E-05,9.63729416980641E-06,0.17578125,0,0
-2.3416676413035E-05,1.09449556475738E-05,0.17578125,0,0
-2.44416878558695E-05,1.26308896142291E-05,0.17578125,0,0
-2.39142955251737E-05,1.26357554108836E-05,0.17578125,0,0
-2.28352746489691E-05,1.1344843187544E-05,0.17578125,0,0
-1.86651614058064E-05,1.00800762083963E-05,0.17578125,0,0
-2.8077303795726E-05,1.57599479280179E-05,0.17578125,0,0
-2.23813131015049E-05,1.27685352708795E-05,0.17578125,0,0
-2.56562907452462E-05,1.32678987938561E-05,0.17578125,0,0
-2.13956664083526E-05,9.66622883424861E-06,0.17578125,0,0
-2.39079599850811E-05,1.03427501016995E-05,0.17578125,0,0
-2.2439708118327E-05,9.71192002907628E-06,0.17578125,0,0
-2.39669170696288E-05,1.04616592579987E-05,0.17578125,0,0
-2.3900729502202E-05,1.03444253909402E-05,0.17578125,0,0
-2.48643555096351E-05,1.0204671525571E-05,0.17578125,0,0
-2.53967355092755E-05,1.01439200079767E-05,0.17578125,0,0
-2.41774687310681E-05,1.09160719148349E-05,0.17578125,0,0
-2.47922907874454E-05,1.23522731882986E-05,0.17578125,0,0
-2.56567200267455E-05,1.21137436508434E-05,0.17578125,0,0
-2.89688759949058E-05,1.26383692986565E-05,0.17578125,0,0
-2.92281747533707E-05,1.24449579743668E-05,0.17578125,0,0
-3.00579249596922E-05,1.32803834276274E-05,0.17578125,0,0
-2.78334791801171E-05,1.23039326354046E-05,0.17578125,0,0
-2.73711484624073E-05,1.08249123513815E-05,0.17578125,0,0
-2.67357336269924E-05,9.2426971605164E-06,0.17578125,0,0
-2.88060036837123E-05,1.03722595667932E-05,0.17578125,0,0
-2.93893299385672E-05,1.09978464024607E-05,0.17578125,0,0
-2.94086530630011E-05,1.15065622594557E-05,0.17578125,0,0
-2.79435735137668E-05,1.05266944956384E-05,0.17578125,0,0
-2.73226632998558E-05,9.63081947702449E-06,0.17578125,0,0
-2.63045640167547E-05,9.43143459153362E-06,0.17578125,0,0
-2.56052608165191E-05,8.16790179669624E-06,0.17578125,0,0
-2.05534488486592E-05,4.23365327151259E-06,0.17578125,0,0
-2.86995964415837E-05,4.93505876875133E-06,0.17578125,0,0
-2.17557844734984E-05,3.05580010717676E-06,0.17578125,0,0
-2.70173968601739E-05,4.48329956270754E-06,0.17578125,0,0
-2.24002105824184E-05,3.27852148984675E-06,0.17578125,0,0
-2.6388206606498E-05,3.78464073946816E-06,0.17578125,0,0
-2.52644476859132E-05,3.33545381181466E-06,0.17578125,0,0
-2.70607815764379E-05,4.56278621641104E-06,0.17578125,0,0
-2.58214604400564E-05,5.05659454574925E-06,0.17578125,0,0
-2.47792195295915E-05,5.35391109224292E-06,0.17578125,0,0
-2.43003323703306E-05,7.26101052350714E-06,0.17578125,0,0
-2.41135276155546E-05,1.06353072624188E-05,0.17578125,0,0
-2.56564871961018E-05,1.3110130566929E-05,0.17578125,0,0
-2.40061181102647E-05,1.25557417050004E-05,0.17578125,0,0
-2.32582915487001E-05,1.2208208318043E-05,0.17578125,0,0
-2.03283907467267E-05,1.27559824250056E-05,0.17578125,0,0
-2.07927478186321E-05,1.47994978760835E-05,0.17578125,0,0
-1.99465030163992E-05,1.61216867127223E-05,0.17578125,0,0
-2.14069605135592E-05,1.73414664459415E-05,0.17578125,0,0
-2.0206491171848E-05,1.73091411852511E-05,0.17578125,0,0
-2.0108614990022E-05,1.68458482221467E-05,0.17578125,0,0
-1.86058350664098E-05,1.58321308845188E-05,0.17578125,0,0
-1.98596117115812E-05,1.40493793878704E-05,0.17578125,0,0
-2.07954908546526E-05,1.08586145870504E-05,0.17578125,0,0
-2.19881731027272E-05,9.11022470972966E-06,0.17578125,0,0
-2.26353058678797E-05,9.89213640423259E-06,0.17578125,0,0
-2.24894829443656E-05,1.12426359919482E-05,0.17578125,0,0
-1.85326425707899E-05,9.39405617828015E-06,0.17578125,0,0
-2.76163373200689E-05,1.4668430594611E-05,0.17578125,0,0
-2.2996093321126E-05,1.2590100595844E-05,0.17578125,0,0
-2.84441866824636E-05,1.41929403980612E-05,0.17578125,0,0
-2.47890056925826E-05,1.16068677016301E-05,0.17578125,0,0
-2.58716481766896E-05,1.14627728180494E-05,0.17578125,0,0
-2.20617166633019E-05,8.85572899278486E-06,0.17578125,0,0
-2.19914691115264E-05,9.33580031414749E-06,0.17578125,0,0
-2.07844968826976E-05,1.05965436887345E-05,0.17578125,0,0
-2.06442364287796E-05,1.34852916744421E-05,0.17578125,0,0
-2.14937135751825E-05,1.49850447996869E-05,0.17578125,0,0
-2.13136245292844E-05,1.36220724016312E-05,0.17578125,0,0
-2.16158096009167E-05,1.12652141979197E-05,0.17578125,0,0
-1.98945544980234E-05,7.01796716384706E-06,0.17578125,0,0
-2.04706320801051E-05,4.50554944109172E-06,0.17578125,0,0
-1.94183667190373E-05,4.08130699725007E-06,0.17578125,0,0
-2.0232517272234E-05,5.74096065975027E-06,0.17578125,0,0
-1.97556091734441E-05,5.34227638127049E-06,0.17578125,0,0
-2.23135448322864E-05,6.36117511021439E-06,0.17578125,0,0
-2.29745946853654E-05,7.79058700572932E-06,0.17578125,0,0
-2.31647754844744E-05,8.67002836457687E-06,0.17578125,0,0
-2.17193392018089E-05,6.46329044684535E-06,0.17578125,0,0
-2.18200093513587E-05,4.50904008175712E-06,0.17578125,0,0
-2.13312814594246E-05,3.72722547581361E-06,0.17578125,0,0
-2.12106151593616E-05,4.79481377624325E-06,0.17578125,0,0
-2.06595286726952E-05,4.98771032653167E-06,0.17578125,0,0
-2.04448297154158E-05,3.41664758707338E-06,0.17578125,0,0
-1.79897851921851E-05,2.88764726974478E-06,0.17578125,0,0
-2.61813638644526E-05,5.87569911658647E-06,0.17578125,0,0
-2.14565698115621E-05,8.07629385235487E-06,0.17578125,0,0
-2.67119357886259E-05,1.10199698610813E-05,0.17578125,0,0
-2.24247414735146E-05,1.16549845188274E-05,0.17578125,0,0
-2.37713666138006E-05,1.2008982594125E-05,0.17578125,0,0
-2.1786407160107E-05,1.22909468700527E-05,0.17578125,0,0
-2.41212328546681E-05,1.42772059916751E-05,0.17578125,0,0
-2.55144386756001E-05,1.57933682203293E-05,0.17578125,0,0
-2.67827981588198E-05,1.49426887219306E-05,0.17578125,0,0
-2.72260240308242E-05,1.34337124109152E-05,0.17578125,0,0
-2.64540522039169E-05,1.28334195323987E-05,0.17578125,0,0
-2.57884876191383E-05,1.41024465847295E-05,0.17578125,0,0
-2.26889642362949E-05,1.52892389451154E-05,0.17578125,0,0
-2.22375274461228E-05,1.62639680638677E-05,0.17578125,0,0
-2.09429927053861E-05,1.67950565810315E-05,0.17578125,0,0
-2.27871623792453E-05,1.72072523128008E-05,0.17578125,0,0
-2.38379925576737E-05,1.6337586203008E-05,0.17578125,0,0
-2.6167937903665E-05,1.44304412970087E-05,0.17578125,0,0
-2.44511847995454E-05,1.22957453640993E-05,0.17578125,0,0
-2.26790398301091E-05,1.1111290405097E-05,0.17578125,0,0
-2.07277043955401E-05,1.06932593553211E-05,0.17578125,0,0
-2.22854141611606E-05,9.68357926467434E-06,0.17578125,0,0
-2.41482557612471E-05,7.8636776379426E-06,0.17578125,0,0
-2.58357522398001E-05,8.41485962155275E-06,0.17578125,0,0
-2.64418376900721E-05,1.03044239949668E-05,0.17578125,0,0
-2.55043887591455E-05,1.12270590761909E-05,0.17578125,0,0
-1.86522684089141E-05,9.09617665456608E-06,0.17578125,0,0
-2.49341428570915E-05,1.24662101370632E-05,0.17578125,0,0
-1.77878955582855E-05,1.1116102541564E-05,0.17578125,0,0
-2.45023184106685E-05,1.71744886756642E-05,0.17578125,0,0
-2.11069964279886E-05,1.62152173288632E-05,0.17578125,0,0
-2.30816949624568E-05,1.80299339263001E-05,0.17578125,0,0
-2.08647179533727E-05,1.78254031197866E-05,0.17578125,0,0
-2.25025087274844E-05,1.79896651388844E-05,0.17578125,0,0
-2.2584908947465E-05,1.54885328811361E-05,0.17578125,0,0
-2.28477965720231E-05,1.25968690554146E-05,0.17578125,0,0
-2.31358117162017E-05,1.11320186988451E-05,0.17578125,0,0
-2.32962120207958E-05,1.06026755020139E-05,0.17578125,0,0
-2.52479439950548E-05,1.03914280771278E-05,0.17578125,0,0
-2.45563423959538E-05,9.64253194979392E-06,0.17578125,0,0
-2.47515690716682E-05,1.03875981949386E-05,0.17578125,0,0
-2.32933998631779E-05,9.4902125056251E-06,0.17578125,0,0
-2.50238044827711E-05,8.87066562427208E-06,0.17578125,0,0
-2.38806114793988E-05,7.95496453065425E-06,0.17578125,0,0
-2.3071035684552E-05,9.46310683502816E-06,0.17578125,0,0
-2.16595362871885E-05,1.0432460840093E-05,0.17578125,0,0
-2.38391730817966E-05,1.17703075375175E-05,0.17578125,0,0
-2.42665646510432E-05,1.17246672743931E-05,0.17578125,0,0
-2.37319036386907E-05,1.15713128252537E-05,0.17578125,0,0
-2.31718149734661E-05,1.04714254121063E-05,0.17578125,0,0
-2.47674906859174E-05,9.63168531598058E-06,0.17578125,0,0
-2.65495746134548E-05,9.02523333934369E-06,0.17578125,0,0
-2.76505852525588E-05,8.48012132337317E-06,0.17578125,0,0
-2.23438364628237E-05,7.09461664882838E-06,0.17578125,0,0
-3.13252930936869E-05,1.03095944723464E-05,0.17578125,0,0
-2.41389898292255E-05,7.68845347920433E-06,0.17578125,0,0
-3.00307856377913E-05,9.26298798731295E-06,0.17578125,0,0
-2.41907691815868E-05,8.9741488409345E-06,0.17578125,0,0
-2.79656378552318E-05,1.08412104964373E-05,0.17578125,0,0
-2.74332051048987E-05,1.11527442641091E-05,0.17578125,0,0
-2.96990165224997E-05,1.31791575768148E-05,0.17578125,0,0
-2.81540869764285E-05,1.32838586068829E-05,0.17578125,0,0
-2.59735043073306E-05,1.20141139632324E-05,0.17578125,0,0
-2.51934870902915E-05,1.02714884633315E-05,0.17578125,0,0
-2.44982802541927E-05,9.63779257290298E-06,0.17578125,0,0
-2.48554206336848E-05,1.18967409434845E-05,0.17578125,0,0
-2.22697908611735E-05,1.33358944367501E-05,0.17578125,0,0
-2.22298767766915E-05,1.39370922624948E-05,0.17578125,0,0
-2.01903749257326E-05,1.29373365780339E-05,0.17578125,0,0
-2.10277175938245E-05,1.2353183592495E-05,0.17578125,0,0
-2.00585454877E-05,1.0817524525919E-05,0.17578125,0,0
-2.23929164349101E-05,1.01425048342207E-05,0.17578125,0,0
-2.35107236221666E-05,8.79016170074465E-06,0.17578125,0,0
-2.57037427218165E-05,7.84639996709302E-06,0.17578125,0,0
-2.53290563705377E-05,7.35244248062372E-06,0.17578125,0,0
-2.6318628442823E-05,8.10356686997693E-06,0.17578125,0,0
-2.68860894721001E-05,9.01992916624295E-06,0.17578125,0,0
-2.76979371847119E-05,1.00081870186841E-05,0.17578125,0,0
-2.71910594165092E-05,9.60192937782267E-06,0.17578125,0,0
-2.59508178714896E-05,8.47943465487333E-06,0.17578125,0,0
-2.07132616196759E-05,7.3623036769277E-06,0.17578125,0,0
-2.96583330055E-05,1.13593332571327E-05,0.17578125,0,0
-2.3324921130552E-05,8.80561128724366E-06,0.17578125,0,0
-2.91836113319732E-05,1.05609888123581E-05,0.17578125,0,0
-2.54384303843835E-05,1.04795035440475E-05,0.17578125,0,0
-2.91031265078345E-05,1.29755417219712E-05,0.17578125,0,0
-2.70262098638341E-05,1.38131690619048E-05,0.17578125,0,0
-2.76981281785993E-05,1.324101958744E-05,0.17578125,0,0
-2.65723374468507E-05,1.15240118248039E-05,0.17578125,0,0
-2.68768362730043E-05,1.16920100481366E-05,0.17578125,0,0
-2.82683467958122E-05,1.28876909002429E-05,0.17578125,0,0
-2.83780700556235E-05,1.27350203911192E-05,0.17578125,0,0
-3.02922162518371E-05,1.24778398458147E-05,0.17578125,0,0
-3.08778944599908E-05,1.26702097986708E-05,0.17578125,0,0
-3.29458271153271E-05,1.33416078824666E-05,0.17578125,0,0
-3.14176431857049E-05,1.14993836177746E-05,0.17578125,0,0
-3.08497983496636E-05,1.02315852927859E-05,0.17578125,0,0
-2.74179001280572E-05,1.05839153548004E-05,0.17578125,0,0
-2.67694595095236E-05,1.11073813968687E-05,0.17578125,0,0
-2.54083679465111E-05,7.07178742231918E-06,0.17578125,0,0
-2.62158755504061E-05,2.93996868094837E-06,0.17578125,0,0
-2.52535010076826E-05,3.53352129423001E-06,0.17578125,0,0
-2.45486426138086E-05,8.05164017947391E-06,0.17578125,0,0
-2.36678697547177E-05,1.27309467643499E-05,0.17578125,0,0
-2.37149106396828E-05,1.69111954164691E-05,0.17578125,0,0
-2.30263776757056E-05,1.81021605385467E-05,0.17578125,0,0
-2.26280353672337E-05,1.62004507728852E-05,0.17578125,0,0
-1.78483969648369E-05,1.01932855613995E-05,0.17578125,0,0
-2.45486753556179E-05,1.22971769087599E-05,0.17578125,0,0
-1.83146767085418E-05,7.4175027293677E-06,0.17578125,0,0
-2.42993610299891E-05,1.09188658825587E-05,0.17578125,0,0
-2.18310124182608E-05,9.56833628151799E-06,0.17578125,0,0
-2.4151067918865E-05,1.27537941807532E-05,0.17578125,0,0
-2.13911425817059E-05,1.089542547561E-05,0.17578125,0,0
-2.18250206671655E-05,1.00881798061891E-05,0.17578125,0,0
-2.05569631361868E-05,8.61159514897736E-06,0.17578125,0,0
-2.07181637961185E-05,7.3413521022303E-06,0.17578125,0,0
-2.09299214475323E-05,6.45888667349936E-06,0.17578125,0,0
-1.9902396161342E-05,7.07586195858312E-06,0.17578125,0,0
-1.93137420865241E-05,9.05189517652616E-06,0.17578125,0,0
-1.66753670782782E-05,8.13825135992374E-06,0.17578125,0,0
-1.64122375281295E-05,6.62122920402908E-06,0.17578125,0,0
-1.48926810652483E-05,4.36948630522238E-06,0.17578125,0,0
-1.65325855050469E-05,6.13962720308336E-06,0.17578125,0,0
-1.64360644703265E-05,8.08696768217487E-06,0.17578125,0,0
-1.7691594621283E-05,1.03241982287727E-05,0.17578125,0,0
-1.82071926246863E-05,1.02307321867556E-05,0.17578125,0,0
-2.16899807128357E-05,9.88858664641157E-06,0.17578125,0,0
-2.34078434004914E-05,7.03771820553811E-06,0.17578125,0,0
-2.43575323111145E-05,5.70946303923847E-06,0.17578125,0,0
-2.2944013835513E-05,8.21038429421606E-06,0.17578125,0,0
-2.25681142183021E-05,1.25639071484329E-05,0.17578125,0,0
-2.29916531679919E-05,1.41051323225838E-05,0.17578125,0,0
-2.38523607549723E-05,1.3178644621803E-05,0.17578125,0,0
-1.97464123630198E-05,8.59077408676967E-06,0.17578125,0,0
-2.64753616647795E-05,1.11268045657198E-05,0.17578125,0,0
-1.79638718691422E-05,8.02956037659897E-06,0.17578125,0,0
-2.29948163905647E-05,1.14628201117739E-05,0.17578125,0,0
-1.89142156159505E-05,1.07458972706809E-05,0.17578125,0,0
-2.12001195905032E-05,1.4253824701882E-05,0.17578125,0,0
-1.9182365576853E-05,1.43136894621421E-05,0.17578125,0,0
-2.16747157537611E-05,1.32914155983599E-05,0.17578125,0,0
-2.14991214306792E-05,9.99667281575967E-06,0.17578125,0,0
-2.12969098356552E-05,6.12022540735779E-06,0.17578125,0,0
-2.14804131246638E-05,3.47461354976986E-06,0.17578125,0,0
-2.07750290428521E-05,2.58588192991738E-06,0.17578125,0,0
-2.17579290620051E-05,4.83626399727655E-06,0.17578125,0,0
-2.16844146052608E-05,8.00426096247975E-06,0.17578125,0,0
-2.34792241826653E-05,1.19654268928571E-05,0.17578125,0,0
-2.14253705053125E-05,1.39759331432288E-05,0.17578125,0,0
-2.06009135581553E-05,1.55913512571715E-05,0.17578125,0,0
-1.84642976819305E-05,1.48342369357124E-05,0.17578125,0,0
-1.94700769498013E-05,1.47052151078242E-05,0.17578125,0,0
-1.85979351954302E-05,1.39490284709609E-05,0.17578125,0,0
-1.88145004358375E-05,1.28793290059548E-05,0.17578125,0,0
-1.7493975974503E-05,1.16695673568756E-05,0.17578125,0,0
-1.85163607966388E-05,1.25291735457722E-05,0.17578125,0,0
-1.98813850147417E-05,1.33430257847067E-05,0.17578125,0,0
-2.18129061977379E-05,1.33225084937294E-05,0.17578125,0,0
-2.3546064767288E-05,1.17354138637893E-05,0.17578125,0,0
-2.55067461694125E-05,1.02444519143319E-05,0.17578125,0,0
-2.19317353185033E-05,7.50393564885599E-06,0.17578125,0,0
-3.06162182823755E-05,1.15492002805695E-05,0.17578125,0,0
-2.18582481466001E-05,1.1612555681495E-05,0.17578125,0,0
-2.73660789389396E-05,1.67698381119408E-05,0.17578125,0,0
-2.38269130932167E-05,1.66426398209296E-05,0.17578125,0,0
-2.6615151000442E-05,1.5868647096795E-05,0.17578125,0,0
-2.36491323448718E-05,1.26561417346238E-05,0.17578125,0,0
-2.46219969994854E-05,1.19674741654308E-05,0.17578125,0,0
-2.43870526901446E-05,1.15167449621367E-05,0.17578125,0,0
-2.47230145760113E-05,1.1196577361261E-05,0.17578125,0,0
-2.38494394579902E-05,1.1143985830131E-05,0.17578125,0,0
-2.29070010391297E-05,1.08134854599484E-05,0.17578125,0,0
-2.62542889686301E-05,1.01846180768916E-05,0.17578125,0,0
-2.9150047339499E-05,8.51940603752155E-06,0.17578125,0,0
-3.22948617395014E-05,6.94215623298078E-06,0.17578125,0,0
-2.96344078378752E-05,4.08217329095351E-06,0.17578125,0,0
-2.90703701466555E-05,2.66026745521231E-06,0.17578125,0,0
-2.81785978586413E-05,2.82501628134924E-06,0.17578125,0,0
-2.95498666673666E-05,6.28521593171172E-06,0.17578125,0,0
-2.73656169156311E-05,1.02954318208504E-05,0.17578125,0,0
-2.64433474512771E-05,1.43296265378012E-05,0.17578125,0,0
-2.45910650846781E-05,1.53489945660112E-05,0.17578125,0,0
-2.39006039919332E-05,1.45747571878019E-05,0.17578125,0,0
-2.33220089285169E-05,1.3149724509276E-05,0.17578125,0,0
-2.48295837081969E-05,1.21644570754142E-05,0.17578125,0,0
-2.71219287242275E-05,1.16490118671209E-05,0.17578125,0,0
-3.0327040803968E-05,1.27038601931417E-05,0.17578125,0,0
-2.57431474892655E-05,1.07458245111047E-05,0.17578125,0,0
-3.55097945430316E-05,1.60876570589608E-05,0.17578125,0,0
-2.56025796261383E-05,1.25320702863974E-05,0.17578125,0,0
-3.21102634188719E-05,1.3700470844924E-05,0.17578125,0,0
-2.56191506196046E-05,1.07057221612195E-05,0.17578125,0,0
-2.70067321253009E-05,1.27214998428826E-05,0.17578125,0,0
-2.3637558115297E-05,1.2272931599E-05,0.17578125,0,0
-2.76400951406686E-05,1.38072718982585E-05,0.17578125,0,0
-3.0232680728659E-05,1.29144882521359E-05,0.17578125,0,0
-3.14067328872625E-05,1.02910544228507E-05,0.17578125,0,0
-2.96801681543002E-05,9.49383957049577E-06,0.17578125,0,0
-2.62651246885071E-05,1.06599627542892E-05,0.17578125,0,0
-2.66992574324831E-05,1.22719147839234E-05,0.17578125,0,0
-2.54471415246371E-05,1.16715673357248E-05,0.17578125,0,0
-2.61191380559467E-05,9.82231358648278E-06,0.17578125,0,0
-2.40942536038347E-05,5.36222842129064E-06,0.17578125,0,0
-2.60652304859832E-05,3.63049252882774E-06,0.17578125,0,0
-2.56030398304574E-05,4.51850974059198E-06,0.17578125,0,0
-2.70228156296071E-05,8.63654167915229E-06,0.17578125,0,0
-2.56498988164822E-05,1.07479090729612E-05,0.17578125,0,0
-2.65902017417829E-05,1.23418458315427E-05,0.17578125,0,0
-2.63338151853532E-05,1.1962282769673E-05,0.17578125,0,0
-2.72285524260951E-05,1.03047241282184E-05,0.17578125,0,0
-2.63065448962152E-05,8.90740284376079E-06,0.17578125,0,0
-2.58069067058386E-05,1.05879234979511E-05,0.17578125,0,0
-2.3805909222574E-05,1.30916596390307E-05,0.17578125,0,0
-2.18585446418729E-05,1.3826309441356E-05,0.17578125,0,0
-1.92375209735474E-05,9.38994617172284E-06,0.17578125,0,0
-2.81630327663152E-05,1.25693268273608E-05,0.17578125,0,0
-2.17966262425762E-05,1.05430954135954E-05,0.17578125,0,0
-2.57165211223764E-05,1.501117094449E-05,0.17578125,0,0
-2.20544879994122E-05,1.20556533147465E-05,0.17578125,0,0
-2.56724579230649E-05,1.17916124509065E-05,0.17578125,0,0
-2.4191464035539E-05,9.21082664717687E-06,0.17578125,0,0
-2.41450215980876E-05,9.23764036997454E-06,0.17578125,0,0
-2.24341329158051E-05,9.00484337762464E-06,0.17578125,0,0
-2.14796273212414E-05,9.84909092949238E-06,0.17578125,0,0
-2.1922038285993E-05,1.09117972897366E-05,0.17578125,0,0
-2.22836151806405E-05,9.81951961875893E-06,0.17578125,0,0
-2.48401447606739E-05,8.89282273419667E-06,0.17578125,0,0
-2.59736734733451E-05,9.69029952102574E-06,0.17578125,0,0
-2.78121078736149E-05,1.33063304019743E-05,0.17578125,0,0
-2.54620481427992E-05,1.39326466523926E-05,0.17578125,0,0
-2.38979373534676E-05,1.33707735585631E-05,0.17578125,0,0
-2.14733809116296E-05,1.17961744763306E-05,0.17578125,0,0
-2.19550547626568E-05,1.27109506138368E-05,0.17578125,0,0
-2.11218739423202E-05,1.33430876303464E-05,0.17578125,0,0
-2.24666218855418E-05,1.47613054650719E-05,0.17578125,0,0
-2.33989667322021E-05,1.47118780660094E-05,0.17578125,0,0
-2.36228570429375E-05,1.43721126732999E-05,0.17578125,0,0
-2.22055587073555E-05,1.38572167998063E-05,0.17578125,0,0
-2.3217002308229E-05,1.39765061248909E-05,0.17578125,0,0
-2.48246087721782E-05,1.3853070413461E-05,0.17578125,0,0
-2.45207720581675E-05,1.30793359858217E-05,0.17578125,0,0
-1.94838994502788E-05,1.07670166471507E-05,0.17578125,0,0
-2.8315394956735E-05,1.48797416841262E-05,0.17578125,0,0
-2.25658714043675E-05,8.94268487172667E-06,0.17578125,0,0
-2.79850501101464E-05,8.76631020219065E-06,0.17578125,0,0
-2.46903528022813E-05,7.33512115402846E-06,0.17578125,0,0
-2.8625079721678E-05,1.13485957626835E-05,0.17578125,0,0
-2.71817989414558E-05,9.98662926576799E-06,0.17578125,0,0
-2.80217536783312E-05,9.21336140891071E-06,0.17578125,0,0
-2.7116544515593E-05,8.5842220869381E-06,0.17578125,0,0
-2.70015916612465E-05,9.68932090472663E-06,0.17578125,0,0
-2.77249182545347E-05,1.24143334687687E-05,0.17578125,0,0
-2.74824269581586E-05,1.30172993522137E-05,0.17578125,0,0
-2.80326967185829E-05,1.12143607111648E-05,0.17578125,0,0
-2.55998875218211E-05,8.02453268988756E-06,0.17578125,0,0
-2.50594002864091E-05,6.99084603184019E-06,0.17578125,0,0
-2.33624341490213E-05,5.60711760044796E-06,0.17578125,0,0
-2.35075876844348E-05,6.86111798131606E-06,0.17578125,0,0
-2.07755365408957E-05,7.9027176980162E-06,0.17578125,0,0
-2.05549022211926E-05,8.72897999215638E-06,0.17578125,0,0
-2.02169794647489E-05,7.71988925407641E-06,0.17578125,0,0
-2.14078936551232E-05,8.79199342307402E-06,0.17578125,0,0
-2.08845012821257E-05,9.90094122244045E-06,0.17578125,0,0
-2.17901742871618E-05,1.09880884338054E-05,0.17578125,0,0
-2.18998393393122E-05,1.00015140560572E-05,0.17578125,0,0
-2.2135734980111E-05,7.74249110691017E-06,0.17578125,0,0
-2.30114274017978E-05,6.47846991341794E-06,0.17578125,0,0
-2.35426068684319E-05,6.42743816570146E-06,0.17578125,0,0
-1.86632860277314E-05,5.05955722474027E-06,0.17578125,0,0
-2.55796130659292E-05,8.05912077339599E-06,0.17578125,0,0
-1.87548848771257E-05,5.80118194193346E-06,0.17578125,0,0
-2.46311210503336E-05,4.97724613524042E-06,0.17578125,0,0
-2.19098583329469E-05,3.44945124197693E-06,0.17578125,0,0
-2.56079420069E-05,5.59841100766789E-06,0.17578125,0,0
-2.32031725317938E-05,8.40245502331527E-06,0.17578125,0,0
-2.36054493143456E-05,1.17554818643839E-05,0.17578125,0,0
-2.39477703871671E-05,1.4673941223009E-05,0.17578125,0,0
-2.55395352724008E-05,1.55223151523387E-05,0.17578125,0,0
-2.61150817095768E-05,1.4931007171981E-05,0.17578125,0,0
-2.41200996242696E-05,1.49574298120569E-05,0.17578125,0,0
-2.38257180171786E-05,1.62058804562548E-05,0.17578125,0,0
-2.25590665650088E-05,1.7287991795456E-05,0.17578125,0,0
-2.36191426665755E-05,1.7517275409773E-05,0.17578125,0,0
-2.24221294047311E-05,1.54706594912568E-05,0.17578125,0,0
-2.33796654356411E-05,1.34308693304774E-05,0.17578125,0,0
-2.2426487703342E-05,1.25390070024878E-05,0.17578125,0,0
-2.30535770242568E-05,1.26078002722352E-05,0.17578125,0,0
-2.21650152525399E-05,1.17084246085142E-05,0.17578125,0,0
-2.27387081395136E-05,1.1051568435505E-05,0.17578125,0,0
-2.15812870010268E-05,1.06205179690733E-05,0.17578125,0,0
-2.24222167162225E-05,1.10848268377595E-05,0.17578125,0,0
-2.44565253524343E-05,1.21532875709818E-05,0.17578125,0,0
-2.67893447016831E-05,1.2529555533547E-05,0.17578125,0,0
-2.70415730483364E-05,1.13421056084917E-05,0.17578125,0,0
-2.60753204202047E-05,1.02662897916161E-05,0.17578125,0,0
-2.1108431610628E-05,7.20251136954175E-06,0.17578125,0,0
-3.07784139295109E-05,1.05344770418014E-05,0.17578125,0,0
-2.42643181991298E-05,9.1945812528138E-06,0.17578125,0,0
-2.92406093649333E-05,1.26488348541898E-05,0.17578125,0,0
-2.36844298342476E-05,1.09300435724435E-05,0.17578125,0,0
-2.49264721787767E-05,1.08995573100401E-05,0.17578125,0,0
-2.16351072594989E-05,9.95304162643151E-06,0.17578125,0,0
-2.20882957364665E-05,1.09091597551014E-05,0.17578125,0,0
-2.16949192690663E-05,1.11613453555037E-05,0.17578125,0,0
-2.34222225117264E-05,1.07441564978217E-05,0.17578125,0,0
-2.47807420237223E-05,1.07331761682872E-05,0.17578125,0,0
-2.36318974202732E-05,1.11315794129041E-05,0.17578125,0,0
-2.29661072808085E-05,1.18804982776055E-05,0.17578125,0,0
-2.08815617952496E-05,1.21743778436212E-05,0.17578125,0,0
-2.21423124457942E-05,1.3091277651256E-05,0.17578125,0,0
-2.11643091461156E-05,1.23892759802402E-05,0.17578125,0,0
-2.13446910493076E-05,1.19551441457588E-05,0.17578125,0,0
-1.90776427189121E-05,1.10972177935764E-05,0.17578125,0,0
-2.0017387214466E-05,1.10005166789051E-05,0.17578125,0,0
-2.01701204787241E-05,1.03603251773166E-05,0.17578125,0,0
-2.17848628381034E-05,9.74340764514636E-06,0.17578125,0,0
-2.07957418751903E-05,6.85444683767855E-06,0.17578125,0,0
-2.1274547179928E-05,4.07781544708996E-06,0.17578125,0,0
-2.2841904865345E-05,2.20511742554663E-06,0.17578125,0,0
-2.47324278461747E-05,1.70784153397108E-06,0.17578125,0,0
-2.49356489803176E-05,3.63010417459009E-06,0.17578125,0,0
-2.4429082259303E-05,7.45611259844736E-06,0.17578125,0,0
-2.01680541067617E-05,8.30200860946206E-06,0.17578125,0,0
-2.99364273814717E-05,1.180634717457E-05,0.17578125,0,0
-2.46418330789311E-05,7.98351538833231E-06,0.17578125,0,0
-2.93625798803987E-05,8.11053268989781E-06,0.17578125,0,0
-2.40197696257383E-05,4.83725716549088E-06,0.17578125,0,0
-2.59110402112128E-05,6.98777148500085E-06,0.17578125,0,0
-2.4457096515107E-05,9.23189872992225E-06,0.17578125,0,0
-2.70209784503095E-05,1.22574929264374E-05,0.17578125,0,0
-2.64971877186326E-05,1.28400979519938E-05,0.17578125,0,0
-2.51427554758266E-05,1.17525178211508E-05,0.17578125,0,0
-2.35983770835446E-05,1.05590370367281E-05,0.17578125,0,0
-2.13713301491225E-05,1.07101695903111E-05,0.17578125,0,0
-2.10597845580196E-05,1.32744107759208E-05,0.17578125,0,0
-1.89885922736721E-05,1.46338525155443E-05,0.17578125,0,0
-1.89285801752703E-05,1.51978574649547E-05,0.17578125,0,0
-1.79021353687858E-05,1.37203533085994E-05,0.17578125,0,0
-1.98341404029634E-05,1.34728488774272E-05,0.17578125,0,0
-1.86576071428135E-05,1.28131759993266E-05,0.17578125,0,0
-1.88780122698518E-05,1.21431630759616E-05,0.17578125,0,0
-1.86637807928491E-05,1.05226645246148E-05,0.17578125,0,0
-2.12416653084802E-05,1.09722204797436E-05,0.17578125,0,0
-2.22639610001352E-05,1.22361543617444E-05,0.17578125,0,0
-2.33841728913831E-05,1.33025268951315E-05,0.17578125,0,0
-2.31754329433898E-05,1.30747184812208E-05,0.17578125,0,0
-2.35462230193662E-05,1.2075270205969E-05,0.17578125,0,0
-2.44983966695145E-05,1.15364473458612E-05,0.17578125,0,0
-2.56638886639848E-05,1.21939465316245E-05,0.17578125,0,0
-2.11160750041017E-05,1.07587193269865E-05,0.17578125,0,0
-2.91913784167264E-05,1.52836746565299E-05,0.17578125,0,0
-2.05918749998091E-05,1.15298453238211E-05,0.17578125,0,0
-2.51146466325736E-05,1.56455134856515E-05,0.17578125,0,0
-2.01732691493817E-05,1.48205699588289E-05,0.17578125,0,0
-2.31777321459958E-05,1.61182833835483E-05,0.17578125,0,0
-2.1516627384699E-05,1.56908408825984E-05,0.17578125,0,0
-2.26534666580847E-05,1.80541592271766E-05,0.17578125,0,0
-2.16990265471395E-05,1.89252896234393E-05,0.17578125,0,0
-2.23031493078452E-05,1.79645212483592E-05,0.17578125,0,0
-2.38073916989379E-05,1.62549295055214E-05,0.17578125,0,0
-2.38615448324708E-05,1.49915022120695E-05,0.17578125,0,0
-2.48283231485402E-05,1.52715165313566E-05,0.17578125,0,0
-2.37877702602418E-05,1.41056143547758E-05,0.17578125,0,0
-2.4653714717715E-05,1.32967334138812E-05,0.17578125,0,0
-2.30419736908516E-05,1.20147706184071E-05,0.17578125,0,0
-2.42747119045816E-05,1.33164703584043E-05,0.17578125,0,0
-2.36699597735424E-05,1.45184776556562E-05,0.17578125,0,0
-2.44598304561805E-05,1.68344613484805E-05,0.17578125,0,0
-2.24271898332518E-05,1.63868789968546E-05,0.17578125,0,0
-2.22821636270965E-05,1.31014967337251E-05,0.17578125,0,0
-2.15726704482222E-05,7.9664287113701E-06,0.17578125,0,0
-2.2720954802935E-05,5.37708865522291E-06,0.17578125,0,0
-2.24863688345067E-05,4.90169441036414E-06,0.17578125,0,0
-2.27177042688709E-05,6.2650701693201E-06,0.17578125,0,0
-2.360043436056E-05,7.77905461291084E-06,0.17578125,0,0
-2.39770361076808E-05,8.55081452755257E-06,0.17578125,0,0
-1.96177443285706E-05,8.05144190962892E-06,0.17578125,0,0
-2.74582253041444E-05,1.29761338030221E-05,0.17578125,0,0
-1.91612289199838E-05,1.20239701573155E-05,0.17578125,0,0
-2.26158426812617E-05,1.48479975905502E-05,0.17578125,0,0
-1.87994046427775E-05,1.28088195197051E-05,0.17578125,0,0
-2.25629119086079E-05,1.20424047054257E-05,0.17578125,0,0
-2.19799676415278E-05,8.63689365360187E-06,0.17578125,0,0
-2.39572436839808E-05,3.0770697776461E-06,0.17578125,0,0
-2.24201212404296E-05,-1.49166237406462E-06,0.17578125,0,0
-2.11590740946122E-05,-1.04605567230465E-06,0.17578125,0,0
-2.06914173759287E-05,1.59281159994862E-06,0.17578125,0,0
-1.93811883946182E-05,3.24770098814042E-06,0.17578125,0,0
-1.99539281311445E-05,4.00377666665008E-06,0.17578125,0,0
-1.98975103558041E-05,4.82924406242091E-06,0.17578125,0,0
-2.17664673982654E-05,6.95222297508735E-06,0.17578125,0,0
-2.074112308037E-05,6.87040119373705E-06,0.17578125,0,0
-2.07691082323436E-05,6.72626947562094E-06,0.17578125,0,0
-1.89397505891975E-05,6.27149802312488E-06,0.17578125,0,0
-2.12277082027867E-05,7.24256824469194E-06,0.17578125,0,0
-2.41273064602865E-05,8.17990439827554E-06,0.17578125,0,0
-2.77467752312077E-05,9.95256777969189E-06,0.17578125,0,0
-2.74340909527382E-05,1.09709426396876E-05,0.17578125,0,0
-2.70759719569469E-05,1.18024263429106E-05,0.17578125,0,0
-2.50463453994598E-05,1.2174908988527E-05,0.17578125,0,0
-2.32650545513025E-05,1.20762715596356E-05,0.17578125,0,0
-2.254735227325E-05,1.28521087390254E-05,0.17578125,0,0
-2.32988604693674E-05,1.47567179737962E-05,0.17578125,0,0
-1.9898569007637E-05,1.23759618873009E-05,0.17578125,0,0
-2.95465542876627E-05,1.53863529703813E-05,0.17578125,0,0
-2.35903662542114E-05,8.14152735983953E-06,0.17578125,0,0
-2.82256442005746E-05,1.1757884749386E-05,0.17578125,0,0
-2.51055316766724E-05,1.07818705146201E-05,0.17578125,0,0
-2.83716071862727E-05,1.28623560158303E-05,0.17578125,0,0
-2.56464245467214E-05,1.17634508569608E-05,0.17578125,0,0
-2.61812947428552E-05,1.41907785291551E-05,0.17578125,0,0
-2.62292251136387E-05,1.48378694575513E-05,0.17578125,0,0
-2.80101467069471E-05,1.42257804327528E-05,0.17578125,0,0
-3.04453024000395E-05,1.27663461171323E-05,0.17578125,0,0
-3.11161202262156E-05,1.15710645332001E-05,0.17578125,0,0
-3.20142244163435E-05,1.23109721243964E-05,0.17578125,0,0
-3.08208545902744E-05,1.16632827484864E-05,0.17578125,0,0
-3.1676852813689E-05,1.22191813716199E-05,0.17578125,0,0
-3.01684340229258E-05,1.12050684037968E-05,0.17578125,0,0
-3.01383915939368E-05,1.11121071313391E-05,0.17578125,0,0
-2.80669919447973E-05,9.21667560760397E-06,0.17578125,0,0
-2.86034737655427E-05,9.10157086764229E-06,0.17578125,0,0
-2.79943851637654E-05,8.12315192888491E-06,0.17578125,0,0
-2.81425873254193E-05,7.88654688221868E-06,0.17578125,0,0
-2.63205492956331E-05,7.04752483215998E-06,0.17578125,0,0
-2.60303168033715E-05,7.39694178264472E-06,0.17578125,0,0
-2.62743324128678E-05,7.4634658631112E-06,0.17578125,0,0
-2.78496409009676E-05,7.83604536991334E-06,0.17578125,0,0
-2.79877895081881E-05,6.91516288497951E-06,0.17578125,0,0
-2.68303047050722E-05,5.18796878168359E-06,0.17578125,0,0
-1.96083001355873E-05,4.52717949883663E-06,0.17578125,0,0
-2.60232191067189E-05,7.53448193790973E-06,0.17578125,0,0
-1.85671724466374E-05,7.75875560066197E-06,0.17578125,0,0
-2.53103262366494E-05,9.92042532743653E-06,0.17578125,0,0
-2.14299998333445E-05,9.83840436674654E-06,0.17578125,0,0
-2.38296179304598E-05,9.67138385021826E-06,0.17578125,0,0
-2.10328744287835E-05,8.0868785516941E-06,0.17578125,0,0
-2.25001604121644E-05,8.14756276668049E-06,0.17578125,0,0
-2.25047351705143E-05,8.62720480654389E-06,0.17578125,0,0
-2.3009841243038E-05,1.01501946119242E-05,0.17578125,0,0
-2.3445889382856E-05,1.26799050121917E-05,0.17578125,0,0
-2.28174794756342E-05,1.40030588227091E-05,0.17578125,0,0
-2.45403862209059E-05,1.47706596180797E-05,0.17578125,0,0
-2.4825838409015E-05,1.4966914022807E-05,0.17578125,0,0
-2.70391719823238E-05,1.47264609040576E-05,0.17578125,0,0
-2.60058950516395E-05,1.34089341372601E-05,0.17578125,0,0
-2.67903742496856E-05,1.32817858684575E-05,0.17578125,0,0
-2.56262301263632E-05,1.20672320917947E-05,0.17578125,0,0
-2.67738341790391E-05,9.56535495788557E-06,0.17578125,0,0
-2.59033786278451E-05,7.95701907918556E-06,0.17578125,0,0
-2.63901874859585E-05,9.36212654778501E-06,0.17578125,0,0
-2.59880816884106E-05,1.15552593342727E-05,0.17578125,0,0
-2.67479754256783E-05,1.32046143335174E-05,0.17578125,0,0
-2.57927258644486E-05,1.34549854919896E-05,0.17578125,0,0
-2.43990434682928E-05,1.42690023494652E-05,0.17578125,0,0
-2.27567343245028E-05,1.49309080370585E-05,0.17578125,0,0
-2.22385260713054E-05,1.32999484776519E-05,0.17578125,0,0
-1.92144343600376E-05,8.01308033260284E-06,0.17578125,0,0
-2.83193367067724E-05,1.24931966638542E-05,0.17578125,0,0
-2.22148428292712E-05,1.22266637845314E-05,0.17578125,0,0
-2.79703090200201E-05,1.43474944707123E-05,0.17578125,0,0
-2.69879146799212E-05,1.03116390164359E-05,0.17578125,0,0
-3.06449728668667E-05,1.10641885839868E-05,0.17578125,0,0
-2.86553622572683E-05,1.11048093458521E-05,0.17578125,0,0
-3.0010563932592E-05,1.29043846754939E-05,0.17578125,0,0
-2.92761105811223E-05,1.2351506484265E-05,0.17578125,0,0
-2.87514558294788E-05,1.1103034921689E-05,0.17578125,0,0
-2.83248045889195E-05,1.15301845653448E-05,0.17578125,0,0
-2.71714106929721E-05,1.35208538267761E-05,0.17578125,0,0
-2.79464402410667E-05,1.50724281411385E-05,0.17578125,0,0
-2.72830766334664E-05,1.38202622110839E-05,0.17578125,0,0
-2.82995315501466E-05,1.33703306346433E-05,0.17578125,0,0
-2.69545544142602E-05,1.26926343000378E-05,0.17578125,0,0
-2.71384851657785E-05,1.30920279843849E-05,0.17578125,0,0
-2.52873160206946E-05,1.25057194964029E-05,0.17578125,0,0
-2.55217055382673E-05,1.27812045320752E-05,0.17578125,0,0
-2.43768445216119E-05,1.25007609312888E-05,0.17578125,0,0
-2.54019159910968E-05,1.26841605379013E-05,0.17578125,0,0
-2.47506704909028E-05,1.1137093679281E-05,0.17578125,0,0
-2.32577203860274E-05,1.0338695574319E-05,0.17578125,0,0
-2.21881655306788E-05,1.0458523320267E-05,0.17578125,0,0
-2.39205728576053E-05,1.0336261766497E-05,0.17578125,0,0
-2.44783768721391E-05,1.02638578027836E-05,0.17578125,0,0
-2.31495814659866E-05,1.15438879220164E-05,0.17578125,0,0
-1.75714158103801E-05,9.52313257585047E-06,0.17578125,0,0
-2.52189747698139E-05,1.26328977785306E-05,0.17578125,0,0
-1.87816040124744E-05,8.47465526021551E-06,0.17578125,0,0
-2.25473941100063E-05,1.0811800166266E-05,0.17578125,0,0
-1.84193304448854E-05,8.20472632767633E-06,0.17578125,0,0
-1.94889398699161E-05,9.57991960603977E-06,0.17578125,0,0
-1.71937699633418E-05,9.55928862822475E-06,0.17578125,0,0
-1.98255238501588E-05,1.1202078894712E-05,0.17578125,0,0
-2.0939854948665E-05,1.11658891910338E-05,0.17578125,0,0
-2.07740431505954E-05,1.10293876787182E-05,0.17578125,0,0
-1.95389366126619E-05,1.08482736322912E-05,0.17578125,0,0
-1.82045987457968E-05,1.00636407296406E-05,0.17578125,0,0
-1.97272238438018E-05,9.67185223998968E-06,0.17578125,0,0
-2.03255676751724E-05,8.14478516986128E-06,0.17578125,0,0
-2.21072532440303E-05,7.54441407480044E-06,0.17578125,0,0
-2.07722605409799E-05,6.47316028334899E-06,0.17578125,0,0
-2.10158232221147E-05,8.5612928160117E-06,0.17578125,0,0
-2.05457617994398E-05,1.130824421125E-05,0.17578125,0,0
-2.21540576603729E-05,1.36983771881205E-05,0.17578125,0,0
-2.14864739973564E-05,1.2911026715301E-05,0.17578125,0,0
-2.17380074900575E-05,1.25840033433633E-05,0.17578125,0,0
-2.05633896257496E-05,1.21083276098943E-05,0.17578125,0,0
-2.02085975615773E-05,1.24146017697058E-05,0.17578125,0,0
-1.94770636881003E-05,1.25903334264876E-05,0.17578125,0,0
-1.98384059331147E-05,1.36607241074671E-05,0.17578125,0,0
-2.05654978344683E-05,1.4783872757107E-05,0.17578125,0,0
-2.03787822101731E-05,1.47435202961788E-05,0.17578125,0,0
-1.70308176166145E-05,1.07585465229931E-05,0.17578125,0,0
-2.4043640223681E-05,1.59437768161297E-05,0.17578125,0,0
-1.68688056874089E-05,1.33653693410452E-05,0.17578125,0,0
-1.87633759196615E-05,1.43194874908659E-05,0.17578125,0,0
-1.43466586450813E-05,8.64979028847301E-06,0.17578125,0,0
-1.85303197213216E-05,9.27039400266949E-06,0.17578125,0,0
-1.99292662728112E-05,7.94017978478223E-06,0.17578125,0,0
-2.22352373384638E-05,7.40729274184559E-06,0.17578125,0,0
-2.12316754186759E-05,6.10578308624099E-06,0.17578125,0,0
-2.10170255741104E-05,6.6667171267909E-06,0.17578125,0,0
-2.22052021854324E-05,8.06689968158025E-06,0.17578125,0,0
-2.34645194723271E-05,8.93285960046342E-06,0.17578125,0,0
-2.48041378654307E-05,1.01498635558528E-05,0.17578125,0,0
-2.40490880969446E-05,9.70809196587652E-06,0.17578125,0,0
-2.55246650340268E-05,9.94755464489572E-06,0.17578125,0,0
-2.5678651581984E-05,8.33348985906923E-06,0.17578125,0,0
-2.76139435300138E-05,7.34098648536019E-06,0.17578125,0,0
-2.69483134616166E-05,6.04654769631452E-06,0.17578125,0,0
-2.74447011179291E-05,7.80394202593016E-06,0.17578125,0,0
-2.67755567620043E-05,8.73040698934346E-06,0.17578125,0,0
-2.78680363408057E-05,9.6236426543328E-06,0.17578125,0,0
-2.72150118689751E-05,9.93249523162376E-06,0.17578125,0,0
-2.58159125223756E-05,1.01326822914416E-05,0.17578125,0,0
-2.35816169151803E-05,9.85277711151866E-06,0.17578125,0,0
-2.37966924032662E-05,1.08612948679365E-05,0.17578125,0,0
-2.4599128664704E-05,1.07446694528335E-05,0.17578125,0,0
-2.57366664300207E-05,1.16033070298727E-05,0.17578125,0,0
-2.1377723896876E-05,1.18530606414424E-05,0.17578125,0,0
-3.02473381452728E-05,1.76151770574506E-05,0.17578125,0,0
-2.25886487896787E-05,1.42405424412573E-05,0.17578125,0,0
-2.82247892755549E-05,1.61430816660868E-05,0.17578125,0,0
-2.40632125496631E-05,1.08626945802826E-05,0.17578125,0,0
-2.67763662122888E-05,8.91865784069523E-06,0.17578125,0,0
-2.41629277297761E-05,6.84469068801263E-06,0.17578125,0,0
-2.58983982348582E-05,1.00588695204351E-05,0.17578125,0,0
-2.64337577391416E-05,1.18806055979803E-05,0.17578125,0,0
-2.69470019702567E-05,1.17102135845926E-05,0.17578125,0,0
-2.74569738394348E-05,1.10261880763574E-05,0.17578125,0,0
-2.68895037152106E-05,1.16490955406334E-05,0.17578125,0,0
-2.76745086011942E-05,1.46287156894687E-05,0.17578125,0,0
-2.68612893705722E-05,1.54255922097946E-05,0.17578125,0,0
-2.84576908597955E-05,1.52232514665229E-05,0.17578125,0,0
-2.74965877906652E-05,1.19076585178846E-05,0.17578125,0,0
-2.83244789898163E-05,1.02150925158639E-05,0.17578125,0,0
-2.67063896899344E-05,8.43547877593664E-06,0.17578125,0,0
-2.64590744336601E-05,7.66071843827376E-06,0.17578125,0,0
-2.37144449783955E-05,5.59031377633801E-06,0.17578125,0,0
-2.32268685067538E-05,5.71924692849279E-06,0.17578125,0,0
-2.22397138713859E-05,6.8300792008813E-06,0.17578125,0,0
-2.32226630032528E-05,8.65808942762669E-06,0.17578125,0,0
-2.28285698540276E-05,1.06815332401311E-05,0.17578125,0,0
-2.20011079363758E-05,1.42276267069974E-05,0.17578125,0,0
-2.2071926650824E-05,1.64778721227776E-05,0.17578125,0,0
-2.2925920347916E-05,1.64039556693751E-05,0.17578125,0,0
-1.85295248229522E-05,1.19856194942258E-05,0.17578125,0,0
-2.59100033872528E-05,1.63682416314259E-05,0.17578125,0,0
-1.92461393453414E-05,1.19007127068471E-05,0.17578125,0,0
-2.40062872762792E-05,1.37581464514369E-05,0.17578125,0,0
-2.032530028373E-05,8.22900256025605E-06,0.17578125,0,0
-2.42588885157602E-05,6.51599657430779E-06,0.17578125,0,0
-2.52882327913539E-05,2.51732853939757E-06,0.17578125,0,0
-2.86746326310094E-05,4.85637747260625E-06,0.17578125,0,0
-2.79500327451387E-05,7.88457782618934E-06,0.17578125,0,0
-2.69607044174336E-05,1.02992380561773E-05,0.17578125,0,0
-2.70773489319254E-05,1.23240424727555E-05,0.17578125,0,0
-2.75959846476326E-05,1.33277244458441E-05,0.17578125,0,0
-2.87592829408823E-05,1.4204480976332E-05,0.17578125,0,0
-2.6522828193265E-05,1.25158712762641E-05,0.17578125,0,0
-2.57951905950904E-05,1.22589199236245E-05,0.17578125,0,0
-2.38994052779162E-05,1.09865222839289E-05,0.17578125,0,0
-2.55967279372271E-05,1.11039325929596E-05,0.17578125,0,0
-2.57610772678163E-05,9.74625891103642E-06,0.17578125,0,0
-2.64503996731946E-05,9.21451373869786E-06,0.17578125,0,0
-2.4979855879792E-05,7.52942423787317E-06,0.17578125,0,0
-2.56883668043884E-05,7.9015344454092E-06,0.17578125,0,0
-2.52185200224631E-05,9.43059785640799E-06,0.17578125,0,0
-2.54126553045353E-05,1.1946720405831E-05,0.17578125,0,0
-2.426843457215E-05,1.28982928799815E-05,0.17578125,0,0
-2.41013513004873E-05,1.50281130117946E-05,0.17578125,0,0
-2.45391620410373E-05,1.66980735230027E-05,0.17578125,0,0
-2.41452908085193E-05,1.60820054588839E-05,0.17578125,0,0
-1.9894174329238E-05,1.06222005342715E-05,0.17578125,0,0
-2.81031116173835E-05,1.25943315651966E-05,0.17578125,0,0
-2.03500367206289E-05,7.11843449607841E-06,0.17578125,0,0
-2.52454719884554E-05,9.12745781533886E-06,0.17578125,0,0
-2.218633198936E-05,5.25148880115012E-06,0.17578125,0,0
-2.49558288487606E-05,6.57849113849807E-06,0.17578125,0,0
-2.25535786739783E-05,4.62619709651335E-06,0.17578125,0,0
-2.25600142584881E-05,4.94283040097798E-06,0.17578125,0,0
-2.06698241527192E-05,3.52866959474341E-06,0.17578125,0,0
-2.133400994353E-05,2.49278946284903E-06,0.17578125,0,0
-2.33964547078358E-05,1.79791652499262E-06,0.17578125,0,0
-2.39627861446934E-05,1.50927064623829E-06,0.17578125,0,0
-2.46039689955069E-05,3.4796871659637E-06,0.17578125,0,0
-2.19219236896606E-05,4.65589209852624E-06,0.17578125,0,0
-2.06272034120047E-05,5.82627171752392E-06,0.17578125,0,0
-1.82482981472276E-05,4.299268766772E-06,0.17578125,0,0
-2.01120601559523E-05,5.04182071381365E-06,0.17578125,0,0
-2.10910020541633E-05,5.66307244298514E-06,0.17578125,0,0
-2.38362790696556E-05,7.20982689017546E-06,0.17578125,0,0
-2.36941395996837E-05,6.4240471147059E-06,0.17578125,0,0
-2.34013587032678E-05,6.17464911556453E-06,0.17578125,0,0
-2.1476853362401E-05,7.25324389350135E-06,0.17578125,0,0
-2.17801571125165E-05,1.14163503894815E-05,0.17578125,0,0
-2.15932177525247E-05,1.34054535010364E-05,0.17578125,0,0
-2.18460045289248E-05,1.4261674550653E-05,0.17578125,0,0
-2.18903423956363E-05,1.47190403367858E-05,0.17578125,0,0
-2.05365340661956E-05,1.61199932335876E-05,0.17578125,0,0
-1.51318872667616E-05,1.53879118443001E-05,0.17578125,0,0
-2.09350764635019E-05,2.212527761003E-05,0.17578125,0,0
-1.56261103256838E-05,1.50295509229181E-05,0.17578125,0,0
-2.04901425604476E-05,1.65618166647619E-05,0.17578125,0,0
-1.86686593224294E-05,1.32296063384274E-05,0.17578125,0,0
-2.0859301002929E-05,1.4530579392158E-05,0.17578125,0,0
-1.81804771273164E-05,1.00366696642595E-05,0.17578125,0,0
-1.90984374057734E-05,7.70950009609805E-06,0.17578125,0,0
-2.04271982511273E-05,7.20927664588089E-06,0.17578125,0,0
-2.16037915379275E-05,9.72302223090082E-06,0.17578125,0,0
-2.04787447728449E-05,1.28749052237254E-05,0.17578125,0,0
-1.88508820428979E-05,1.45627082019928E-05,0.17578125,0,0
-1.96301298274193E-05,1.62017167895101E-05,0.17578125,0,0
-1.97986264538486E-05,1.52812299347715E-05,0.17578125,0,0
-2.23163879127242E-05,1.56769274326507E-05,0.17578125,0,0
-2.31571193580749E-05,1.4875704437145E-05,0.17578125,0,0
-2.40955941990251E-05,1.57666836457793E-05,0.17578125,0,0
-2.2031616026652E-05,1.50884789036354E-05,0.17578125,0,0
-2.16512089536991E-05,1.56506521307165E-05,0.17578125,0,0
-1.99282440007664E-05,1.56586138473358E-05,0.17578125,0,0
-1.99221103684977E-05,1.68919195857598E-05,0.17578125,0,0
-1.96776072698412E-05,1.59799728862708E-05,0.17578125,0,0
-2.04742409550818E-05,1.52941083797487E-05,0.17578125,0,0
-2.06493896257598E-05,1.35169593704632E-05,0.17578125,0,0
-2.1800222384627E-05,9.59329190663993E-06,0.17578125,0,0
-2.38647571677575E-05,6.25928896624828E-06,0.17578125,0,0
-2.60183351201704E-05,7.32307034922997E-06,0.17578125,0,0
-2.24596351472428E-05,8.34059574117418E-06,0.17578125,0,0
-3.19329483318143E-05,1.15035472845193E-05,0.17578125,0,0
-2.34485232795123E-05,8.654090379423E-06,0.17578125,0,0
-2.78775314654922E-05,1.12243033072446E-05,0.17578125,0,0
-2.23206952796318E-05,1.16203309517005E-05,0.17578125,0,0
-2.43164831772447E-05,1.49187817441998E-05,0.17578125,0,0
-2.12949908018345E-05,1.41130931297084E-05,0.17578125,0,0
-2.33087703236379E-05,1.42080771183828E-05,0.17578125,0,0
-2.25323237827979E-05,1.40792972160853E-05,0.17578125,0,0
-2.20900474232621E-05,1.40472802740987E-05,0.17578125,0,0
-2.24760933633661E-05,1.3519762433134E-05,0.17578125,0,0
-2.15389100048924E-05,1.28957826746046E-05,0.17578125,0,0
-2.30464393098373E-05,1.47050732266507E-05,0.17578125,0,0
-2.34413928410504E-05,1.56964360940037E-05,0.17578125,0,0
-2.64022382907569E-05,1.4954883226892E-05,0.17578125,0,0
-2.63702331722016E-05,1.11804920379655E-05,0.17578125,0,0
-2.69243264483521E-05,8.66323807713343E-06,0.17578125,0,0
-2.37132953770924E-05,7.15974738341174E-06,0.17578125,0,0
-2.37729746004334E-05,8.38042160467012E-06,0.17578125,0,0
-2.46800645982148E-05,9.61422119871713E-06,0.17578125,0,0
-2.80149797617923E-05,1.13067644633702E-05,0.17578125,0,0
-2.89350482489681E-05,1.18486514111282E-05,0.17578125,0,0
-3.07906666421331E-05,1.14285603558528E-05,0.17578125,0,0
-3.00670035358053E-05,1.05845656435122E-05,0.17578125,0,0
-2.81257980532246E-05,1.15991069833399E-05,0.17578125,0,0
-2.57657284237212E-05,1.09364418676705E-05,0.17578125,0,0
-2.46676827373449E-05,8.18365970189916E-06,0.17578125,0,0
-2.19458524952643E-05,5.73926035940531E-06,0.17578125,0,0
-3.31004484905861E-05,8.76426747709047E-06,0.17578125,0,0
-2.75236507150112E-05,7.16910653864034E-06,0.17578125,0,0
-3.3459462429164E-05,8.44041005620966E-06,0.17578125,0,0
-2.96242324111518E-05,7.71509257901926E-06,0.17578125,0,0
-3.1383016903419E-05,8.54124755278463E-06,0.17578125,0,0
-2.74243393505458E-05,7.5937164183415E-06,0.17578125,0,0
-2.77064318652265E-05,6.80733910485287E-06,0.17578125,0,0
-2.69534975814167E-05,5.83817654842278E-06,0.17578125,0,0
-2.73988935077796E-05,5.97021562498412E-06,0.17578125,0,0
-2.84836442006053E-05,6.80319044477073E-06,0.17578125,0,0
-2.84829420706956E-05,6.8111999098619E-06,0.17578125,0,0
-3.00532665278297E-05,6.95129574523889E-06,0.17578125,0,0
-3.00234332826221E-05,8.08772529126145E-06,0.17578125,0,0
-3.12206138914917E-05,9.67256437434116E-06,0.17578125,0,0
-2.89558047370519E-05,9.09032223717077E-06,0.17578125,0,0
-2.83955105260247E-05,8.65602669364307E-06,0.17578125,0,0
-2.57645660894923E-05,8.46194234327413E-06,0.17578125,0,0
-2.63275614997838E-05,9.18890509638004E-06,0.17578125,0,0
-2.57024348684354E-05,9.18691694096196E-06,0.17578125,0,0
-2.66587267105933E-05,9.49416153162019E-06,0.17578125,0,0
-2.60428332694573E-05,9.68401036516298E-06,0.17578125,0,0
-2.61928744293982E-05,1.08676813397324E-05,0.17578125,0,0
-2.55618051596684E-05,1.28894826048054E-05,0.17578125,0,0
-2.55934537563007E-05,1.46656557262759E-05,0.17578125,0,0
-2.41880625253543E-05,1.55976431415183E-05,0.17578125,0,0
-2.3065378627507E-05,1.51667099999031E-05,0.17578125,0,0
-1.87981349881738E-05,1.17026183943381E-05,0.17578125,0,0
-2.73534242296591E-05,1.7305494111497E-05,0.17578125,0,0
-2.15693798963912E-05,1.3633173693961E-05,0.17578125,0,0
-2.66960396402283E-05,1.64204539032653E-05,0.17578125,0,0
-2.39495529967826E-05,1.47248683788348E-05,0.17578125,0,0
-2.71639255515765E-05,1.76032499439316E-05,0.17578125,0,0
-2.45966293732636E-05,1.66804202308413E-05,0.17578125,0,0
-2.46728650381556E-05,1.67321868502768E-05,0.17578125,0,0
-2.3550779587822E-05,1.46623051477945E-05,0.17578125,0,0
-2.36250671150628E-05,1.16876144602429E-05,0.17578125,0,0
-2.32754664466484E-05,1.00134093372617E-05,0.17578125,0,0
-2.08301680686418E-05,1.00695197033929E-05,0.17578125,0,0
-1.96113942365628E-05,1.17612316898885E-05,0.17578125,0,0
-1.82045168912737E-05,1.14436625153758E-05,0.17578125,0,0
-2.07764442166081E-05,1.21916682473966E-05,0.17578125,0,0
-2.29567613132531E-05,1.21983384815394E-05,0.17578125,0,0
-2.60001233982621E-05,1.36220405693166E-05,0.17578125,0,0
-2.42930327658542E-05,1.27386065287283E-05,0.17578125,0,0
-2.32986221817555E-05,1.14286722237011E-05,0.17578125,0,0
-2.11607512028422E-05,9.37527693167795E-06,0.17578125,0,0
-2.06678214453859E-05,9.20550064620329E-06,0.17578125,0,0
-1.9333971067681E-05,9.21940409170929E-06,0.17578125,0,0
-2.02427745534806E-05,9.50582034420222E-06,0.17578125,0,0
-2.09039335459238E-05,8.09144148661289E-06,0.17578125,0,0
-2.20743313548155E-05,6.66769801682676E-06,0.17578125,0,0
-2.2935273591429E-05,6.1813261709176E-06,0.17578125,0,0
-2.37492349697277E-05,6.50489164399914E-06,0.17578125,0,0
-1.97490680875489E-05,5.33050888407161E-06,0.17578125,0,0
-2.71301087195752E-05,6.21086792307324E-06,0.17578125,0,0
-1.89210040844046E-05,2.85211422124121E-06,0.17578125,0,0
-2.28907720156712E-05,5.34712125954684E-06,0.17578125,0,0
-1.87518089660443E-05,6.45727686787723E-06,0.17578125,0,0
-2.2952726794756E-05,9.21316677704453E-06,0.17578125,0,0
-2.29155193665065E-05,1.06727202364709E-05,0.17578125,0,0
-2.65865583060076E-05,1.21591529023135E-05,0.17578125,0,0
-2.76076862064656E-05,1.20411914394936E-05,0.17578125,0,0
-2.78549141512485E-05,1.17526215035468E-05,0.17578125,0,0
-2.68947496806504E-05,1.27289495139848E-05,0.17578125,0,0
-2.46132512984332E-05,1.3800222404825E-05,0.17578125,0,0
-2.51275687332964E-05,1.40621186801582E-05,0.17578125,0,0
-2.43282029259717E-05,1.17406980280066E-05,0.17578125,0,0
-2.5176834242302E-05,1.02857175079407E-05,0.17578125,0,0
-2.38810462178662E-05,1.07161540654488E-05,0.17578125,0,0
-2.43315680563683E-05,1.34134579639067E-05,0.17578125,0,0
-2.23313691094518E-05,1.48772805914632E-05,0.17578125,0,0
-2.35060488193994E-05,1.5210265701171E-05,0.17578125,0,0
-2.27639538934454E-05,1.4392566299648E-05,0.17578125,0,0
-2.22926300921245E-05,1.37794477268471E-05,0.17578125,0,0
-2.08392666536383E-05,1.25260658023763E-05,0.17578125,0,0
-2.0622606825782E-05,1.14741551442421E-05,0.17578125,0,0
-2.00961258087773E-05,1.19422511488665E-05,0.17578125,0,0
-2.17325632547727E-05,1.36051376102841E-05,0.17578125,0,0
-2.29959496209631E-05,1.47184282468515E-05,0.17578125,0,0
-2.28046937991166E-05,1.52458223965368E-05,0.17578125,0,0
-1.75840432348195E-05,1.29232994368067E-05,0.17578125,0,0
-2.41532525251387E-05,1.73411681316793E-05,0.17578125,0,0
-1.90406663023168E-05,9.94579750113189E-06,0.17578125,0,0
-2.579683859949E-05,9.80356617219513E-06,0.17578125,0,0
-2.19034373003524E-05,4.37268045061501E-06,0.17578125,0,0
-2.32545880862745E-05,6.55451322018052E-06,0.17578125,0,0
-2.11897950066486E-05,7.2450120569556E-06,0.17578125,0,0
-2.23108963837149E-05,8.58693056215998E-06,0.17578125,0,0
-2.15580803342164E-05,7.45095167076215E-06,0.17578125,0,0
-2.12300110433716E-05,6.01778174313949E-06,0.17578125,0,0
-2.19537596422015E-05,6.31364446235239E-06,0.17578125,0,0
-2.34176113735884E-05,7.95449341239873E-06,0.17578125,0,0
-2.5732804715517E-05,1.01234727480914E-05,0.17578125,0,0
-2.47108346229652E-05,7.58280384616228E-06,0.17578125,0,0
-2.45614919549553E-05,4.15807653553202E-06,0.17578125,0,0
-2.28415974561358E-05,1.69691929841065E-06,0.17578125,0,0
-2.35852876357967E-05,3.87411364499712E-06,0.17578125,0,0
-2.21428945224034E-05,4.85531836602604E-06,0.17578125,0,0
-2.26805750571657E-05,5.69482108403463E-06,0.17578125,0,0
-2.18136701732874E-05,5.72000726606348E-06,0.17578125,0,0
-2.25540807150537E-05,7.03410569258267E-06,0.17578125,0,0
-2.25545154535212E-05,7.95785126683768E-06,0.17578125,0,0
-2.38779084611451E-05,1.00078968898742E-05,0.17578125,0,0
-2.43887861870462E-05,1.04254149846383E-05,0.17578125,0,0
-2.60043161688372E-05,1.00278020909172E-05,0.17578125,0,0
-2.72808538284153E-05,9.86893792287447E-06,0.17578125,0,0
-2.70883811026579E-05,1.04967684819712E-05,0.17578125,0,0
-2.01451857719803E-05,9.686739758763E-06,0.17578125,0,0
-2.77258095593425E-05,1.3586428394774E-05,0.17578125,0,0
-2.0611658328562E-05,8.27843905426562E-06,0.17578125,0,0
-2.71684748440748E-05,9.48019805946387E-06,0.17578125,0,0
-2.42142068600515E-05,9.33420506044058E-06,0.17578125,0,0
-2.72601027972996E-05,1.19825863293954E-05,0.17578125,0,0
-2.44077855313662E-05,1.14299155029585E-05,0.17578125,0,0
-2.55991544690914E-05,1.26280301628867E-05,0.17578125,0,0
-2.49826771323569E-05,1.333305863227E-05,0.17578125,0,0
-2.53273919952335E-05,1.2797167073586E-05,0.17578125,0,0
-2.50477587542264E-05,1.19955402624328E-05,0.17578125,0,0
-2.37012955039972E-05,1.14988752102363E-05,0.17578125,0,0
-2.45490573433926E-05,1.24085081552039E-05,0.17578125,0,0
-2.4142129404936E-05,1.3877345736546E-05,0.17578125,0,0
-2.55519535130588E-05,1.64056436915416E-05,0.17578125,0,0
-2.33188511629123E-05,1.51852591443458E-05,0.17578125,0,0
-2.30683162953937E-05,1.2592250641319E-05,0.17578125,0,0
-2.21508362301392E-05,1.01908308351994E-05,0.17578125,0,0
-2.43783779296791E-05,1.08737212940468E-05,0.17578125,0,0
-2.4169936295948E-05,1.06860079540638E-05,0.17578125,0,0
-2.46294530370506E-05,9.45329520618543E-06,0.17578125,0,0
-2.28138087550178E-05,7.62168292567367E-06,0.17578125,0,0
-2.25396506721154E-05,7.67390065448126E-06,0.17578125,0,0
-2.21871814574115E-05,8.75224213814363E-06,0.17578125,0,0
-2.39150085690198E-05,9.79366723186104E-06,0.17578125,0,0
-2.72693978331517E-05,1.10780429167789E-05,0.17578125,0,0
-2.85894439002732E-05,1.31449814944062E-05,0.17578125,0,0
-2.08401288546156E-05,1.04848695627879E-05,0.17578125,0,0
-2.82842738670297E-05,1.46373777170083E-05,0.17578125,0,0
-2.06645599973854E-05,1.18599464258295E-05,0.17578125,0,0
-2.69481333816657E-05,1.52796128531918E-05,0.17578125,0,0
-2.29838333325461E-05,1.22052042570431E-05,0.17578125,0,0
-2.68298535957001E-05,1.36701546580298E-05,0.17578125,0,0
-2.54740389209474E-05,1.28044412122108E-05,0.17578125,0,0
-2.65193557424936E-05,1.37864017233369E-05,0.17578125,0,0
-2.45536011789227E-05,1.40129977808101E-05,0.17578125,0,0
-2.44709335674997E-05,1.40353458846221E-05,0.17578125,0,0
-2.52824920607964E-05,1.33729399749427E-05,0.17578125,0,0
-2.50309894909151E-05,1.15446919153328E-05,0.17578125,0,0
-2.63207639363827E-05,1.08602098407573E-05,0.17578125,0,0
-2.57558585872175E-05,9.88473675533896E-06,0.17578125,0,0
-2.6988400350092E-05,1.00397755886661E-05,0.17578125,0,0
-2.54051210504258E-05,9.0769481175812E-06,0.17578125,0,0
-2.62805297097657E-05,9.3774060587748E-06,0.17578125,0,0
-2.51698875217699E-05,6.07649417361245E-06,0.17578125,0,0
-2.63027504843194E-05,1.01866419299768E-06,0.17578125,0,0
-2.49296044785297E-05,-2.18591412703972E-06,0.17578125,0,0
-2.48535452556098E-05,1.74901367699931E-06,0.17578125,0,0
-2.4311959350598E-05,7.54365692046122E-06,0.17578125,0,0
-2.62192461377708E-05,1.2115028766857E-05,0.17578125,0,0
-2.76378996204585E-05,1.37619199449546E-05,0.17578125,0,0
-2.83963745459914E-05,1.39048825076316E-05,0.17578125,0,0
-2.72608940576902E-05,1.3786422641715E-05,0.17578125,0,0
-2.66383849520935E-05,1.34265173983295E-05,0.17578125,0,0
-2.09896734304493E-05,1.00869538073312E-05,0.17578125,0,0
-2.9910181183368E-05,1.43083398143062E-05,0.17578125,0,0
-2.31791364058154E-05,1.01661762528238E-05,0.17578125,0,0
-2.93855409836397E-05,1.15926177386427E-05,0.3515625,0,0
-2.60601973423036E-05,9.5788600447122E-06,0.3515625,0,0
-2.88741539407056E-05,1.19115593406605E-05,0.3515625,0,0
-2.56085422734031E-05,1.18621464935131E-05,0.3515625,0,0
-2.61298664554488E-05,1.3258439139463E-05,0.3515625,0,0
-2.56442490353948E-05,1.26126415125327E-05,0.3515625,0,0
-2.59610333159799E-05,1.15232960524736E-05,0.3515625,0,0
-2.57450901699485E-05,1.15452739919419E-05,0.3515625,0,0
-2.36280611716211E-05,1.22265564641566E-05,0.3515625,0,0
-2.33946557273157E-05,1.24930647871224E-05,0.3515625,0,0
-2.27148429985391E-05,1.06305660665384E-05,0.3515625,0,0
-2.40612662310014E-05,1.0883525646932E-05,0.3515625,0,0
-2.13015300687402E-05,1.09261336547206E-05,0.3515625,0,0
-2.00612666958477E-05,1.24919260997558E-05,0.3515625,0,0
-1.84501168405404E-05,1.35174095703405E-05,0.3515625,0,0
-2.05358464882011E-05,1.48911458381917E-05,0.3515625,0,0
-2.04087646125117E-05,1.30431271827547E-05,0.3515625,0,0
-2.09723057196243E-05,1.07982423287467E-05,0.3515625,0,0
-2.07715693250066E-05,9.11383722268511E-06,0.3515625,0,0
-2.27431191888172E-05,9.68872427620227E-06,0.3515625,0,0
-2.23955867113546E-05,1.06679244709085E-05,0.3515625,0,0
-2.08066358027281E-05,1.21038119687E-05,0.3515625,0,0
-1.81608265847899E-05,1.38542518470786E-05,0.3515625,0,0
-1.68581918842392E-05,1.48695653479081E-05,0.3515625,0,0
-1.48687186083407E-05,1.29330765048508E-05,0.3515625,0,0
-2.21157915802905E-05,1.7199103240273E-05,0.3515625,0,0
-1.61140324053122E-05,1.09048924059607E-05,0.3515625,0,0
-1.64876091730548E-05,1.43770139402477E-05,0.3515625,0,0
-1.1664241355902E-05,1.34906204038998E-05,0.3515625,0,0
-1.35182144731516E-05,1.57790855155326E-05,0.3515625,0,0
-1.24814614537172E-05,1.38268687805976E-05,0.3515625,0,0
-1.33507173813996E-05,1.42949038490769E-05,0.3515625,0,0
-1.46767879414256E-05,1.22560413728934E-05,0.3515625,0,0
-1.75244767888216E-05,9.74176600720966E-06,0.3515625,0,0
-2.02341179829091E-05,8.68071947479621E-06,0.3515625,0,0
-2.10509588214336E-05,9.14924294193042E-06,0.3515625,0,0
-2.2049032850191E-05,1.05517392512411E-05,0.3515625,0,0
-2.14675419556443E-05,9.74493741523474E-06,0.3515625,0,0
-2.19234807445901E-05,1.05414446807117E-05,0.3515625,0,0
-2.09841073228745E-05,1.06672096080729E-05,0.3515625,0,0
-2.28589306061622E-05,1.21898701763712E-05,0.3515625,0,0
-2.44661514443578E-05,1.09913125925232E-05,0.3515625,0,0
-2.58547861449188E-05,1.03368192867492E-05,0.3515625,0,0
-2.32880338444375E-05,9.06514196685748E-06,0.3515625,0,0
-2.15741456486285E-05,1.00319703051355E-05,0.3515625,0,0
-2.12030972761568E-05,1.05086819530698E-05,0.3515625,0,0
-2.29115794354584E-05,1.00766819741693E-05,0.3515625,0,0
-2.43301619775593E-05,7.18913543096278E-06,0.3515625,0,0
-2.58053732977714E-05,5.78068147660815E-06,0.3515625,0,0
-2.61899258475751E-05,5.92906644669711E-06,0.3515625,0,0
-2.57051851804135E-05,7.29175690139527E-06,0.3515625,0,0
-2.10930647881469E-05,8.6035615822766E-06,0.3515625,0,0
-3.13198361254763E-05,1.16358023660723E-05,0.3515625,0,0
-2.53923280979507E-05,6.02931731918943E-06,0.3515625,0,0
-3.05416433548089E-05,7.768825526E-06,0.3515625,0,0
-2.62029570876621E-05,9.01952353160596E-06,0.3515625,0,0
-2.93331013381248E-05,1.22965584523627E-05,0.3515625,0,0
-2.65348680841271E-05,1.39512731038849E-05,0.3515625,0,0
-2.66276674665278E-05,1.47387063407223E-05,0.3515625,0,0
-2.50843349931529E-05,1.23085292216274E-05,0.3515625,0,0
-2.53980160778156E-05,9.21896662475774E-06,0.3515625,0,0
-2.6818201149581E-05,8.62901015352691E-06,0.3515625,0,0
-2.68971161858644E-05,1.0289507372363E-05,0.3515625,0,0
-2.82127020909684E-05,1.14327458504704E-05,0.3515625,0,0
-2.81617758446373E-05,9.88037027127575E-06,0.3515625,0,0
-2.99874864140293E-05,8.71765587362461E-06,0.3515625,0,0
-2.85589430859545E-05,8.18331409391249E-06,0.3515625,0,0
-2.87282127828803E-05,9.70321980275912E-06,0.3515625,0,0
-2.70329364866484E-05,1.00029992609052E-05,0.3515625,0,0
-2.73218556685606E-05,1.0295121683157E-05,0.3515625,0,0
-2.5515591914882E-05,1.01510486274492E-05,0.3515625,0,0
-2.6381972929812E-05,1.04748032754287E-05,0.3515625,0,0
-2.67962514044484E-05,9.2420805231086E-06,0.3515625,0,0
-2.78918505500769E-05,7.83933774073375E-06,0.3515625,0,0
-2.76393493550131E-05,7.35364164938801E-06,0.3515625,0,0
-2.83848185063107E-05,8.99112183105899E-06,0.3515625,0,0
-2.87603706965456E-05,1.03477523225592E-05,0.3515625,0,0
-2.95074205496348E-05,9.9928438430652E-06,0.3515625,0,0
-2.39553264691494E-05,7.49094351704116E-06,0.3515625,0,0
-3.31448754877783E-05,1.10355704237008E-05,0.3515625,0,0
-2.34764265769627E-05,9.69861230259994E-06,0.3515625,0,0
-2.93279153993353E-05,1.26614595501451E-05,0.3515625,0,0
-2.49261283897795E-05,1.10452137960237E-05,0.3515625,0,0
-2.8160697183921E-05,1.34479096232099E-05,0.3515625,0,0
-2.44249658862827E-05,1.5066153537191E-05,0.3515625,0,0
-2.51314759225352E-05,1.52952216012636E-05,0.3515625,0,0
-2.31538597290637E-05,1.23462277770159E-05,0.3515625,0,0
-2.1967591237626E-05,1.1315066331008E-05,0.3515625,0,0
-2.25636995310197E-05,1.3680272786587E-05,0.3515625,0,0
-2.36874875554349E-05,1.4947941963328E-05,0.3515625,0,0
-2.67804844042985E-05,1.53030414367095E-05,0.3515625,0,0
-2.53154048550641E-05,1.44629939313745E-05,0.3515625,0,0
-2.37637141253799E-05,1.39433259391808E-05,0.3515625,0,0
-1.9778119167313E-05,1.16070186777506E-05,0.3515625,0,0
-2.06120657821884E-05,9.28670579014579E-06,0.3515625,0,0
-2.00480189960217E-05,7.82271217758534E-06,0.3515625,0,0
-2.09303270821692E-05,9.57217798713828E-06,0.3515625,0,0
-1.83951706276275E-05,1.08718959381804E-05,0.3515625,0,0
-1.84298132808181E-05,1.08072217699373E-05,0.3515625,0,0
-1.95601242012344E-05,1.06624402178568E-05,0.3515625,0,0
-2.41771413129754E-05,1.20834320114227E-05,0.3515625,0,0
-2.71563330898061E-05,1.21247549031978E-05,0.3515625,0,0
-2.77684048342053E-05,1.11677636596141E-05,0.3515625,0,0
-2.58227610174799E-05,1.0637169907568E-05,0.3515625,0,0
-2.55114191531902E-05,1.16974024422234E-05,0.3515625,0,0
-2.22143662540475E-05,1.03422926258645E-05,0.3515625,0,0
-3.08609305648133E-05,1.4054351595405E-05,0.3515625,0,0
-2.29857378144516E-05,9.49111472436925E-06,0.3515625,0,0
-2.89597664959729E-05,1.18327425298048E-05,0.3515625,0,0
-2.48791293415707E-05,7.80695972935064E-06,0.3515625,0,0
-2.90149528154871E-05,7.04024796505109E-06,0.3515625,0,0
-2.71035951300291E-05,7.47563262848416E-06,0.3515625,0,0
-2.77033323072828E-05,1.17421168397414E-05,0.3515625,0,0
-2.55818904406624E-05,1.44820869536488E-05,0.3515625,0,0
-2.47014577325899E-05,1.58128568727989E-05,0.3515625,0,0
-2.49618315137923E-05,1.56090263772057E-05,0.3515625,0,0
-2.43344384216471E-05,1.4351520803757E-05,0.3515625,0,0
-2.45968421950238E-05,1.41516611620318E-05,0.3515625,0,0
-2.31598096434027E-05,1.3961068361823E-05,0.3515625,0,0
-2.57409956248011E-05,1.46029606185039E-05,0.3515625,0,0
-2.60515171248699E-05,1.32545292217401E-05,0.3515625,0,0
-2.79586420219857E-05,1.29930940602208E-05,0.3515625,0,0
-2.64963582594646E-05,1.21218736239825E-05,0.3515625,0,0
-2.66471070062835E-05,1.17890413093846E-05,0.3515625,0,0
-2.48055439442396E-05,1.03951606433839E-05,0.3515625,0,0
-2.50960838457104E-05,1.10531073005404E-05,0.3515625,0,0
-2.37361218751175E-05,1.13044707177323E-05,0.3515625,0,0
-2.35894822253613E-05,1.21900729936897E-05,0.3515625,0,0
-2.38665434153518E-05,1.26636850836803E-05,0.3515625,0,0
-2.55095983447973E-05,1.1595639080042E-05,0.3515625,0,0
-2.52874233410694E-05,1.04770515463315E-05,0.3515625,0,0
-2.35513816733146E-05,1.01848800113657E-05,0.3515625,0,0
-1.8410097254673E-05,6.81644132782822E-06,0.3515625,0,0
-2.5304279915872E-05,8.22043693915475E-06,0.3515625,0,0
-1.81645482371096E-05,3.25850305671338E-06,0.3515625,0,0
-2.19389658013824E-05,2.56206863014086E-06,0.3515625,0,0
-1.81142186193028E-05,-6.19042452854046E-08,0.3515625,0,0
-2.10113375942456E-05,2.33074092648167E-06,0.3515625,0,0
-1.8778500816552E-05,3.64285870091408E-06,0.3515625,0,0
-2.05395717784995E-05,4.93562583869789E-06,0.3515625,0,0
-1.96712317119818E-05,5.08881794303306E-06,0.3515625,0,0
-1.92680945474422E-05,6.92655794409802E-06,0.3515625,0,0
-1.99173318833346E-05,9.34255785978166E-06,0.3515625,0,0
-1.98408069991274E-05,1.01604582596337E-05,0.3515625,0,0
-2.04920652322471E-05,1.07621672214009E-05,0.3515625,0,0
-1.88077538041398E-05,1.0798119546962E-05,0.3515625,0,0
-1.98123670998029E-05,1.23011177493026E-05,0.3515625,0,0
-1.97091230802471E-05,1.25185906654224E-05,0.3515625,0,0
-2.2989557692199E-05,1.22591400213423E-05,0.3515625,0,0
-2.38342545344494E-05,1.12500183604425E-05,0.3515625,0,0
-2.48522464971757E-05,1.18058105726959E-05,0.3515625,0,0
-2.39061337197199E-05,1.14634640340228E-05,0.3515625,0,0
-2.5853480110527E-05,1.14585282062762E-05,0.3515625,0,0
-2.70332402578788E-05,1.10774581116857E-05,0.3515625,0,0
-2.78038660326274E-05,1.08341455415939E-05,0.3515625,0,0
-2.64465579675743E-05,1.16615292427014E-05,0.3515625,0,0
-2.5259218091378E-05,1.39910798679921E-05,0.3515625,0,0
-2.37262702285079E-05,1.63270451594144E-05,0.3515625,0,0
-2.31247231567977E-05,1.80214574356796E-05,0.3515625,0,0
-1.86666184163187E-05,1.44149289553752E-05,0.3515625,0,0
-2.72873803623952E-05,2.06619806704111E-05,0.3515625,0,0
-2.18692421185551E-05,1.37814413392334E-05,0.3515625,0,0
-2.63078200077871E-05,1.41810387503938E-05,0.3515625,0,0
-2.15314921661047E-05,9.62173999141669E-06,0.3515625,0,0
-2.45585433731321E-05,1.17612562462455E-05,0.3515625,0,0
-2.41919715335825E-05,1.08788644865854E-05,0.3515625,0,0
-2.55616705544526E-05,1.21071243484039E-05,0.3515625,0,0
-2.42556216107914E-05,1.21977609524038E-05,0.3515625,0,0
-2.37330968957394E-05,1.18437419587281E-05,0.3515625,0,0
-2.35511306527769E-05,9.96200287772808E-06,0.3515625,0,0
-2.2796230041422E-05,7.56525332690217E-06,0.3515625,0,0
-2.39991804846795E-05,6.97680070516071E-06,0.3515625,0,0
-2.32801430684049E-05,6.57025930195232E-06,0.3515625,0,0
-2.4302313249791E-05,9.55292489379644E-06,0.3515625,0,0
-2.37364602071466E-05,1.17815588964731E-05,0.3515625,0,0
-2.4913068045862E-05,1.45803323903237E-05,0.3515625,0,0
-2.35039005929139E-05,1.4689744602947E-05,0.3515625,0,0
-2.40033677982865E-05,1.53429955389583E-05,0.3515625,0,0
-2.30960740736919E-05,1.39927005875506E-05,0.3515625,0,0
-2.32157344726147E-05,1.37939159685629E-05,0.3515625,0,0
-2.18020959437126E-05,1.36693379317876E-05,0.3515625,0,0
-2.17793403862743E-05,1.38328468892723E-05,0.3515625,0,0
-2.14891060750233E-05,1.18542893687845E-05,0.3515625,0,0
-2.12641407415504E-05,1.0656721315172E-05,0.3515625,0,0
-2.24182458623545E-05,1.03598777059233E-05,0.3515625,0,0
-2.40066256083082E-05,8.18705575511558E-06,0.3515625,0,0
-1.94785279745702E-05,5.34590435563587E-06,0.3515625,0,0
-2.7926265829592E-05,7.9044611993595E-06,0.3515625,0,0
-2.19880203076173E-05,7.3742062340898E-06,0.3515625,0,0
-2.68116746156011E-05,1.09039256130927E-05,0.3515625,0,0
-2.17413125938037E-05,1.20764152597985E-05,0.3515625,0,0
-2.43156900978647E-05,1.21516713988967E-05,0.3515625,0,0
-2.27367891056929E-05,8.96479923540028E-06,0.3515625,0,0
-2.37065378314583E-05,8.43973430164624E-06,0.3515625,0,0
-2.18310688069323E-05,9.77893705567112E-06,0.3515625,0,0
-2.10185862670187E-05,1.09358888948918E-05,0.3515625,0,0
-2.0903316908516E-05,1.18408715934493E-05,0.3515625,0,0
-1.97429963009199E-05,1.24917714856565E-05,0.3515625,0,0
-2.06051117856987E-05,1.3273102013045E-05,0.3515625,0,0
-1.94998810911784E-05,1.37883553179563E-05,0.3515625,0,0
-1.99297137442045E-05,1.44021378218895E-05,0.3515625,0,0
-1.86763190868078E-05,1.32293989736354E-05,0.3515625,0,0
-2.08501151064411E-05,1.30747366711148E-05,0.3515625,0,0
-2.17112792597618E-05,1.38116183734383E-05,0.3515625,0,0
-2.34206436289242E-05,1.48832405102439E-05,0.3515625,0,0
-2.16029857256217E-05,1.40367574203992E-05,0.3515625,0,0
-2.13124676520238E-05,1.2800948752556E-05,0.3515625,0,0
-2.06838940357557E-05,1.13436317406013E-05,0.3515625,0,0
-2.11105088965269E-05,1.02273361335392E-05,0.3515625,0,0
-2.10992257052567E-05,9.08866604731884E-06,0.3515625,0,0
-2.13993516808841E-05,7.80313621362438E-06,0.3515625,0,0
-2.07102693821071E-05,5.34633318238775E-06,0.3515625,0,0
-2.11439546546899E-05,2.98889540317759E-06,0.3515625,0,0
-1.8260010619997E-05,2.87566558654362E-06,0.3515625,0,0
-2.68353560386458E-05,6.01969486524467E-06,0.3515625,0,0
-1.9723343939404E-05,7.36866104489309E-06,0.3515625,0,0
-2.21014852286316E-05,8.6473191913683E-06,0.3515625,0,0
-1.98101806745399E-05,7.26716007193318E-06,0.3515625,0,0
-2.48358355747769E-05,4.24148720412632E-06,0.3515625,0,0
-2.49458007601788E-05,-1.06153798640207E-07,0.3515625,0,0
-2.69685442617629E-05,-2.06649451683916E-06,0.3515625,0,0
-2.60076321865199E-05,-1.65795370321575E-07,0.3515625,0,0
-2.52640074904775E-05,3.8057844449213E-06,0.3515625,0,0
-2.4643532015034E-05,7.72246767155593E-06,0.3515625,0,0
-2.46983836404979E-05,9.85324004432186E-06,0.3515625,0,0
-2.60811702901265E-05,1.08508502307814E-05,0.3515625,0,0
-2.47986245085485E-05,1.12443494799663E-05,0.3515625,0,0
-2.53700036410009E-05,1.0829216989805E-05,0.3515625,0,0
-2.51473484240705E-05,8.3686627476709E-06,0.3515625,0,0
-2.74153462669346E-05,5.32046806256403E-06,0.3515625,0,0
-2.75213133136276E-05,3.44801946994266E-06,0.3515625,0,0
-2.90551543002948E-05,4.54618157164077E-06,0.3515625,0,0
-2.88108622044092E-05,7.2636330514797E-06,0.3515625,0,0
-2.88967021333519E-05,9.92773766483879E-06,0.3515625,0,0
-2.66863589786226E-05,1.19182932394324E-05,0.3515625,0,0
-2.63696929323487E-05,1.25335300253937E-05,0.3515625,0,0
-2.66903134615859E-05,1.21139464681619E-05,0.3515625,0,0
-2.77365634246962E-05,1.20183740364155E-05,0.3515625,0,0
-2.73477726295823E-05,1.31005208459101E-05,0.3515625,0,0
-2.67316045210464E-05,1.36824792207335E-05,0.3515625,0,0
-2.20624351641163E-05,9.91735214483924E-06,0.3515625,0,0
-3.18679449264891E-05,1.33598268803325E-05,0.3515625,0,0
-2.49179956881562E-05,1.11176159407478E-05,0.3515625,0,0
-2.98578652291326E-05,1.6245669030468E-05,0.3515625,0,0
-2.43245704041328E-05,1.48103990795789E-05,0.3515625,0,0
-2.75645470537711E-05,1.48889712363598E-05,0.3515625,0,0
-2.57326973951422E-05,1.04205801108037E-05,0.3515625,0,0
-2.73689820460277E-05,9.0991097749793E-06,0.3515625,0,0
-2.7264621166978E-05,7.58652186050313E-06,1.0546875,0,0
-2.81738721241709E-05,6.89836451783776E-06,1.0546875,0,0
-2.82292276096996E-05,7.08202514942968E-06,1.0546875,0,0
-2.59882945101708E-05,8.59106512507424E-06,1.0546875,0,0
-2.60671204159735E-05,1.13470950964256E-05,1.0546875,0,0
-2.44002603722038E-05,1.19207315947278E-05,1.0546875,0,0
-2.46015642915154E-05,1.21490083984099E-05,1.0546875,0,0
-2.23374663619325E-05,1.03806678453111E-05,1.0546875,0,0
-2.31333851843374E-05,1.02132062238525E-05,1.0546875,0,0
-2.2108248231234E-05,8.58584462548606E-06,1.0546875,0,0
-2.3245638658409E-05,8.4246294136392E-06,1.0546875,0,0
-2.27023119805381E-05,8.84132532519288E-06,1.0546875,0,0
-2.39889359363588E-05,1.10482733362005E-05,1.0546875,0,0
-2.30451023526257E-05,1.21711864267127E-05,1.0546875,0,0
-2.2068825273891E-05,1.33555386128137E-05,1.0546875,0,0
-2.15668605960673E-05,1.33984713102109E-05,1.0546875,0,0
-2.35628431255464E-05,1.49563556988141E-05,1.0546875,0,0
-2.46419022005284E-05,1.71878145920346E-05,1.0546875,0,0
-2.55413306149421E-05,1.83902757271426E-05,1.0546875,0,0
-2.19384473894024E-05,1.42877297548694E-05,1.0546875,0,0
-2.95569334411994E-05,1.82222902367357E-05,1.0546875,0,0
-1.97061472135829E-05,1.0401097824797E-05,1.0546875,0,0
-2.50953944487264E-05,1.42319240694633E-05,1.0546875,0,0
-2.1087669665576E-05,1.25452452266472E-05,1.0546875,0,0
-2.40724693867378E-05,1.36960015879595E-05,1.0546875,0,0
-2.09409463423071E-05,9.70180099102436E-06,1.0546875,0,0
-2.14946066989796E-05,9.35876869334606E-06,1.0546875,0,0
-2.13544535654364E-05,9.06734840100398E-06,1.0546875,0,0
-2.27351720241131E-05,1.03934225990088E-05,1.0546875,0,0
-2.43575559579767E-05,1.20497024909128E-05,1.0546875,0,0
-2.35610477830051E-05,1.23321933642728E-05,1.0546875,0,0
-2.34383605857147E-05,1.34532510855934E-05,1.0546875,0,0
-2.08382534765406E-05,1.41609207275906E-05,1.0546875,0,0
-2.13955245271791E-05,1.60622785188025E-05,1.0546875,0,0
-2.03624113055412E-05,1.51957783600665E-05,1.0546875,0,0
-2.1514522813959E-05,1.51281101352652E-05,1.0546875,0,0
-2.05311771424022E-05,1.24827865874977E-05,1.0546875,0,0
-2.19889079744462E-05,1.12239813461201E-05,1.0546875,0,0
-2.07256853173021E-05,1.00927481980762E-05,1.0546875,0,0
-2.05125525098993E-05,1.10727378341835E-05,1.0546875,0,0
-1.91282724699704E-05,1.14919885163545E-05,1.0546875,0,0
-1.88585690921173E-05,1.30349471874069E-05,1.0546875,0,0
-1.77070414792979E-05,1.26505365187768E-05,1.0546875,0,0
-1.84949549293378E-05,1.13563037302811E-05,1.0546875,0,0
-2.02157843887107E-05,9.61511977948248E-06,1.0546875,0,0
-2.07879747904371E-05,9.19557896850165E-06,1.0546875,0,0
-1.6630525351502E-05,7.92570790508762E-06,1.0546875,0,0
-2.45101600739872E-05,1.21153680083808E-05,1.0546875,0,0
-2.11190144909779E-05,1.23231056932127E-05,1.0546875,0,0
-2.72851830231957E-05,1.82900075742509E-05,1.0546875,0,0
-2.52513091254514E-05,1.75470831891289E-05,1.0546875,0,0
-2.9005364922341E-05,1.67751477420097E-05,1.0546875,0,0
-2.69109514192678E-05,1.51523418026045E-05,1.0546875,0,0
-2.61348868662026E-05,1.48802992043784E-05,1.0546875,0,0
-2.53323469223687E-05,1.342457926512E-05,1.0546875,0,0
-2.54692531598266E-05,1.20760705613066E-05,1.0546875,0,0
-2.49968688876834E-05,1.19857459139894E-05,1.0546875,0,0
-2.27343443839345E-05,1.22944366012234E-05,1.0546875,0,0
-2.16979569813702E-05,1.43865172503865E-05,1.0546875,0,0
-2.12843060580781E-05,1.46362317536841E-05,1.0546875,0,0
-2.38630436797393E-05,1.25780834423495E-05,1.0546875,0,0
-2.43222057179082E-05,8.28206066216808E-06,1.0546875,0,0
-2.52315621764865E-05,6.84859196553589E-06,1.0546875,0,0
-2.3852791855461E-05,7.00046530255349E-06,1.0546875,0,0
-2.47855077759596E-05,7.89293881098274E-06,1.0546875,0,0
-2.52335394179681E-05,7.41854137231712E-06,1.0546875,0,0
-2.64621630776674E-05,7.57099223847035E-06,1.0546875,0,0
-2.57186638918938E-05,8.58898511069128E-06,1.0546875,0,0
-2.58998388744658E-05,9.66774223343236E-06,1.0546875,0,0
-2.55438371823402E-05,9.13840358407469E-06,1.0546875,0,0
-2.60621309280396E-05,8.0627705756342E-06,1.0546875,0,0
-2.72079432761529E-05,8.3240838648635E-06,1.0546875,0,0
-2.89321524178376E-05,7.83832729212008E-06,1.0546875,0,0
-2.39574983424973E-05,3.68549558515952E-06,1.0546875,0,0
-3.35363183694426E-05,2.06001709557313E-06,1.0546875,0,0
-2.37996900978033E-05,-2.10916550713591E-06,1.0546875,0,0
-2.83025747194188E-05,-5.44747535968781E-07,1.0546875,0,0
-2.17468441405799E-05,5.77264538254019E-12,1.0546875,0,0
-2.5347786504426E-05,2.14436067835777E-06,1.0546875,0,0
-2.53652142419014E-05,1.77788365363085E-06,1.0546875,0,0
-2.88160354102729E-05,1.84463294772286E-06,1.0546875,0,0
-2.82372639048845E-05,2.39050427808252E-06,1.0546875,0,0
-2.69692918664077E-05,4.55572626378853E-06,1.0546875,0,0
-2.61149143625516E-05,6.81734945828794E-06,1.0546875,0,0
-2.472512278473E-05,8.64446792547824E-06,1.0546875,0,0
-2.63230340351583E-05,9.98848918243311E-06,1.0546875,0,0
-2.70640575763537E-05,1.05946273833979E-05,1.0546875,0,0
-2.99179991998244E-05,1.28035753732547E-05,1.0546875,0,0
-2.8586166081368E-05,1.4863182514091E-05,1.0546875,0,0
-2.86416470771655E-05,1.61651041707955E-05,1.0546875,0,0
-2.61785589827923E-05,1.56964888446964E-05,1.0546875,0,0
-2.58246982411947E-05,1.46563188536675E-05,1.0546875,0,0
-2.35262232308742E-05,1.16542705654865E-05,1.0546875,0,0
-2.40308090724284E-05,9.76617320702644E-06,1.0546875,0,0
-2.34032104344806E-05,9.49449167819694E-06,1.0546875,0,0
-2.4013466827455E-05,1.02213016361929E-05,1.0546875,0,0
-2.35087172768544E-05,1.02963531389832E-05,1.0546875,0,0
-2.33595601457637E-05,9.37737786443904E-06,1.0546875,0,0
-2.2525382519234E-05,7.91708498582011E-06,1.0546875,0,0
-2.16707267099991E-05,8.29555301606888E-06,1.0546875,0,0
-1.82720086741028E-05,7.49313949199859E-06,1.0546875,0,0
-2.73488512902986E-05,1.22169249152648E-05,1.0546875,0,0
-2.26508236664813E-05,1.29370764625492E-05,1.0546875,0,0
-2.73520872724475E-05,1.68784317793325E-05,1.0546875,0,0
-2.35034349316265E-05,1.50850119098322E-05,1.0546875,0,0
-2.6068119041156E-05,1.50129808389465E-05,1.0546875,0,0
-2.43488120759139E-05,1.33111407194519E-05,1.0546875,0,0
-2.42310798057588E-05,1.26614868349861E-05,1.0546875,0,0
-2.35519764828496E-05,1.10327655420406E-05,1.0546875,0,0
-2.47246971412096E-05,1.02337999123847E-05,1.0546875,0,0
-2.57390802289592E-05,1.20850645544124E-05,1.0546875,0,0
-2.48705855483422E-05,1.39215289891581E-05,1.0546875,0,0
-2.53679481829749E-05,1.37356464620098E-05,1.0546875,0,0
-2.56113034993177E-05,1.15743814603775E-05,1.0546875,0,0
-2.68797411990818E-05,1.0448178727529E-05,1.0546875,0,0
-2.42459773289738E-05,1.02802405308466E-05,1.0546875,0,0
-2.31596677622292E-05,1.18557454698021E-05,1.0546875,0,0
-2.14686624531168E-05,1.0829683560587E-05,1.0546875,0,0
-2.27724776777904E-05,9.01865405467106E-06,1.0546875,0,0
-2.21878253796604E-05,7.49792843635078E-06,1.0546875,0,0
-2.16925745917251E-05,6.63466380501632E-06,1.0546875,0,0
-2.06896420422709E-05,4.5298288569029E-06,1.0546875,0,0
-2.20859146793373E-05,3.76890739062219E-06,1.0546875,0,0
-2.15274376387242E-05,4.58243493994814E-06,1.0546875,0,0
-2.01612328964984E-05,6.50734455120983E-06,1.0546875,0,0
-2.03581312234746E-05,7.50197568777367E-06,1.0546875,0,0
-2.11348415177781E-05,7.28211125533562E-06,1.0546875,0,0
-1.64802659128327E-05,5.17985245096497E-06,1.0546875,0,0
-2.27517812163569E-05,8.0060308391694E-06,1.0546875,0,0
-1.68974165717373E-05,8.58758721733466E-06,1.0546875,0,0
-2.24312370846746E-05,1.21977473099832E-05,1.0546875,0,0
-2.02935498236911E-05,1.30212702060817E-05,1.0546875,0,0
-2.30411860684399E-05,1.54912431753473E-05,1.0546875,0,0
-2.19344656215981E-05,1.38285504363012E-05,1.0546875,0,0
-2.42709575104527E-05,1.15069688035874E-05,1.0546875,0,0
-2.47949410550063E-05,1.00198840300436E-05,1.0546875,0,0
-2.58709478657693E-05,1.09943239294807E-05,1.0546875,0,0
-2.66556817223318E-05,1.20472959679319E-05,1.0546875,0,0
-2.5144952815026E-05,1.19282703963108E-05,1.0546875,0,0
-2.31155372603098E-05,1.26477852973039E-05,1.0546875,0,0
-1.98901107069105E-05,1.26575550893904E-05,1.0546875,0,0
-2.04986336029833E-05,1.30895205074921E-05,1.0546875,0,0
-2.08825222216547E-05,1.31313327074167E-05,1.0546875,0,0
-2.33353257499402E-05,1.44852629091474E-05,1.0546875,0,0
-2.31814210565062E-05,1.53101682371926E-05,1.0546875,0,0
-2.43302401941037E-05,1.58654056576779E-05,1.0546875,0,0
-2.39842156588566E-05,1.51571757669444E-05,1.0546875,0,0
-2.43538033828372E-05,1.48548315337393E-05,1.0546875,0,0
-2.25520725507522E-05,1.37735369207803E-05,1.0546875,0,0
-2.14583160413895E-05,1.14043823487009E-05,1.0546875,0,0
-2.11861479328945E-05,9.43949544307543E-06,1.0546875,0,0
-2.23079950956162E-05,9.57721294980729E-06,1.0546875,0,0
-2.31334670388605E-05,1.01018231362104E-05,1.0546875,0,0
-2.31533249461791E-05,8.99487713468261E-06,1.0546875,0,0
-1.85297139978502E-05,6.13249403613736E-06,1.0546875,0,0
-2.65667113126256E-05,8.83423490449786E-06,1.0546875,0,0
-2.15938089240808E-05,8.47795217850944E-06,1.0546875,0,0
-2.75571255770046E-05,1.29236022985424E-05,1.0546875,0,0
-2.33246337302262E-05,1.24701728054788E-05,1.0546875,0,0
-2.60596752923448E-05,1.18771404231666E-05,1.0546875,0,0
-2.58236377703724E-05,1.11974532046588E-05,1.0546875,0,0
-2.80712156381924E-05,1.46395568663138E-05,1.0546875,0,0
-2.6652725864551E-05,1.67976922966773E-05,1.0546875,0,0
-2.53164216701407E-05,1.60433028213447E-05,1.0546875,0,0
-2.56996427197009E-05,1.31546330521815E-05,1.0546875,0,0
-2.52538848144468E-05,1.00163888419047E-05,1.0546875,0,0
-2.5697105229483E-05,9.75870170805138E-06,1.0546875,0,0
-2.47685020440258E-05,1.06286306618131E-05,1.0546875,0,0
-2.61760033026803E-05,1.27355306176469E-05,1.0546875,0,0
-2.61464738287032E-05,1.42947892527445E-05,2.63671875,0,0
-2.79807700280799E-05,1.49996103573358E-05,2.63671875,0,0
-2.63916317635449E-05,1.37887418532046E-05,2.63671875,0,0
-2.51195779128466E-05,1.40445563374669E-05,2.63671875,0,0
-2.26968331844546E-05,1.43365705298493E-05,2.63671875,0,0
-2.35318511840887E-05,1.48827220982639E-05,2.63671875,0,0
-2.3940408937051E-05,1.54276622197358E-05,2.63671875,0,0
-2.40473236772232E-05,1.65713263413636E-05,2.63671875,0,0
-2.21318969124695E-05,1.79732578544645E-05,2.63671875,0,0
-2.10259186133044E-05,1.9767237972701E-05,2.63671875,0,0
-2.09892968996428E-05,1.90087739611045E-05,2.63671875,0,0
-2.12341856240528E-05,1.77226429514121E-05,2.63671875,0,0
-1.70387102116365E-05,1.31811711980845E-05,2.63671875,0,0
-2.40372137341183E-05,1.80087881744839E-05,2.63671875,0,0
-1.78861700987909E-05,1.31335327751003E-05,2.63671875,0,0
-2.20908095798222E-05,1.64504581334768E-05,2.63671875,0,0
-1.78948503162246E-05,1.23490426631179E-05,2.63671875,0,0
-1.91931430890691E-05,1.16281380542205E-05,2.63671875,0,0
-1.76263311004732E-05,5.41965755473939E-06,2.63671875,0,0
-1.85575227078516E-05,4.52111635240726E-06,2.63671875,0,0
-1.79696417035302E-05,6.39386144030141E-06,2.63671875,0,0
-1.95666343643097E-05,8.65075162437279E-06,2.63671875,0,0
-2.17594551941147E-05,8.35674200061476E-06,2.63671875,0,0
-2.1688701963285E-05,6.26828568783822E-06,2.63671875,0,0
-2.18056120502297E-05,7.42662405173178E-06,2.63671875,0,0
-2.1071780793136E-05,9.03795444173738E-06,2.63671875,0,0
-2.24335235543549E-05,1.04152404674096E-05,2.63671875,0,0
-2.17214546864852E-05,7.43593363949913E-06,2.63671875,0,0
-2.30754649237497E-05,4.9623326958681E-06,2.63671875,0,0
-2.3337272068602E-05,3.04316745314281E-06,2.63671875,0,0
-2.60537181020482E-05,4.88207842863631E-06,2.63671875,0,0
-2.60324450209737E-05,5.50130653209635E-06,2.63671875,0,0
-2.55571412708377E-05,6.03832677370519E-06,2.63671875,0,0
-2.50812881859019E-05,6.28544830760802E-06,2.63671875,0,0
-2.65111339103896E-05,1.00136394394212E-05,2.63671875,0,0
-2.65789840341313E-05,1.37389361043461E-05,2.63671875,0,0
-2.65823928202735E-05,1.53133023559349E-05,2.63671875,0,0
-2.4967248464236E-05,1.48540202644654E-05,2.63671875,0,0
-2.27686505240854E-05,1.54189237946412E-05,2.63671875,0,0
-1.86597262654686E-05,1.1298366189294E-05,2.63671875,0,0
-2.66340830421541E-05,1.34347455968964E-05,2.63671875,0,0
-2.05335054488387E-05,7.0282480919559E-06,2.63671875,0,0
-2.59643729805248E-05,1.12644711407484E-05,2.63671875,0,0
-2.30601563089294E-05,9.5637760750833E-06,2.63671875,0,0
-2.65541821136139E-05,1.16850624181097E-05,2.63671875,0,0
-2.49971490120515E-05,1.09846150735393E-05,2.63671875,0,0
-2.56444400292821E-05,1.1304929103062E-05,2.63671875,0,0
-2.49522327067098E-05,1.11253639261122E-05,2.63671875,0,0
-2.54903970926534E-05,1.22953206300735E-05,2.63671875,0,0
-2.67800824076403E-05,1.30298822114128E-05,2.63671875,0,0
-2.75935708486941E-05,1.05372801044723E-05,2.63671875,0,0
-2.8984986784053E-05,7.94231527834199E-06,2.63671875,0,0
-2.68191943177953E-05,6.48226887278724E-06,2.63671875,0,0
-2.57286046689842E-05,8.83121447259327E-06,2.63671875,0,0
-2.34950803132961E-05,1.03851143649081E-05,2.63671875,0,0
-2.45528972300235E-05,1.15145749077783E-05,2.63671875,0,0
-2.45735172939021E-05,8.64014600665541E-06,2.63671875,0,0
-2.61864279309521E-05,5.58121655558352E-06,2.63671875,0,0
-2.5588677090127E-05,1.86638783361559E-06,2.63671875,0,0
-2.59766657109139E-05,2.59476848896156E-07,2.63671875,0,0
-2.46368726948276E-05,3.67301737469461E-07,2.63671875,0,0
-2.47195112024201E-05,3.60250510311744E-06,2.63671875,0,0
-2.40695753745968E-05,7.13159033693955E-06,2.63671875,0,0
-2.47318384936079E-05,9.32804414333077E-06,2.63671875,0,0
-2.64477566815913E-05,1.0346371709602E-05,2.63671875,0,0
-2.77337130683009E-05,9.69058146438329E-06,2.63671875,0,0
-2.36884152400307E-05,6.83078724250663E-06,2.63671875,0,0
-3.38028257829137E-05,1.08365829873946E-05,2.63671875,0,0
-2.5222905605915E-05,1.05058225017274E-05,2.63671875,0,0
-3.01755262626102E-05,1.22175697470084E-05,2.63671875,0,0
-2.56803450611187E-05,1.04508671938675E-05,2.63671875,0,0
-2.97134793072473E-05,1.27730527310632E-05,2.63671875,0,0
-2.57897190749645E-05,1.23473173516686E-05,2.63671875,0,0
-2.55329050560249E-05,1.16523624456022E-05,2.63671875,0,0
-2.43059475906193E-05,1.15300281322561E-05,2.63671875,0,0
-2.45214105234481E-05,1.17150848382153E-05,2.63671875,0,0
-2.47967036557384E-05,1.1579506463022E-05,2.63671875,0,0
-2.33929040405201E-05,1.04582104540896E-05,2.63671875,0,0
-2.34279868891463E-05,9.36606465984369E-06,2.63671875,0,0
-2.16322932828916E-05,8.36999242892489E-06,2.63671875,0,0
-2.26126521738479E-05,9.61804198595928E-06,2.63671875,0,0
-2.1252690203255E-05,1.08496160464711E-05,2.63671875,0,0
-2.3589129341417E-05,1.19527912829653E-05,2.63671875,0,0
-2.40818480961025E-05,1.12586340037524E-05,2.63671875,0,0
-2.64182071987307E-05,1.08339800135582E-05,2.63671875,0,0
-2.61316727119265E-05,9.96258222585311E-06,2.63671875,0,0
-2.72676661552396E-05,9.69145003182348E-06,2.63671875,0,0
-2.59862736129435E-05,8.33301601232961E-06,2.63671875,0,0
-2.58875661529601E-05,6.95207518219831E-06,2.63671875,0,0
-2.50036791840103E-05,6.69884184389957E-06,2.63671875,0,0
-2.3757602320984E-05,8.23907157609938E-06,2.63671875,0,0
-2.14475057873642E-05,1.05577173599158E-05,2.63671875,0,0
-2.08601686608745E-05,1.29607360577211E-05,2.63671875,0,0
-1.8137789083994E-05,1.00542883956223E-05,2.63671875,0,0
-2.63639558397699E-05,1.2369459909678E-05,2.63671875,0,0
-1.92095085367328E-05,7.52253345126519E-06,2.63671875,0,0
-2.11168298847042E-05,1.0848820238607E-05,2.63671875,0,0
-1.70466228155419E-05,1.02034327937872E-05,2.63671875,0,0
-2.10953603527742E-05,1.44171654028469E-05,2.63671875,0,0
-2.13531238841824E-05,1.42486260301666E-05,2.63671875,0,0
-2.29947690968402E-05,1.50295718412963E-05,2.63671875,0,0
-2.15374711842742E-05,1.29245781863574E-05,2.63671875,0,0
-2.13295934372582E-05,1.0503868907108E-05,2.63671875,0,0
-2.22559465328231E-05,9.6131261670962E-06,2.63671875,0,0
-2.14110332308337E-05,1.02374087873613E-05,2.63671875,0,0
-2.05673950404162E-05,1.17256440717028E-05,2.63671875,0,0
-1.86547167686513E-05,1.02166914075497E-05,2.63671875,0,0
-2.09562113013817E-05,1.00488387033693E-05,2.63671875,0,0
-2.19025168917142E-05,9.79440847004298E-06,2.63671875,0,0
-2.26039264816791E-05,1.15510320028989E-05,2.63671875,0,0
-2.00461890926817E-05,1.24050384329166E-05,2.63671875,0,0
-1.99122769117821E-05,1.37859624373959E-05,2.63671875,0,0
-2.02319024538156E-05,1.41040200105635E-05,2.63671875,0,0
-2.21721111302031E-05,1.58735874720151E-05,2.63671875,0,0
-2.13931689359015E-05,1.65655928867636E-05,2.63671875,0,0
-2.14530828088755E-05,1.66705049196025E-05,2.63671875,0,0
-2.18043805944035E-05,1.3858770216757E-05,2.63671875,0,0
-2.23828792513814E-05,1.14488693725434E-05,2.63671875,0,0
-2.19399007619359E-05,1.1785475180659E-05,2.63671875,0,0
-2.30228652071673E-05,1.28908923215931E-05,2.63671875,0,0
-2.0563747966662E-05,8.71695556270424E-06,2.63671875,0,0
-2.97407350444701E-05,1.00159495559637E-05,2.63671875,0,0
-2.35469469771488E-05,5.11843336425954E-06,2.63671875,0,0
-3.04043824144173E-05,9.55529958446277E-06,2.63671875,0,0
-2.78958486887859E-05,1.02037156466395E-05,2.63671875,0,0
-3.166584065184E-05,1.23544141388265E-05,2.63671875,0,0
-3.03022679872811E-05,1.13210899144178E-05,2.63671875,0,0
-3.08427443087567E-05,1.27075327327475E-05,2.63671875,0,0
-2.86830691038631E-05,1.37594734042068E-05,2.63671875,0,0
-2.83766275970265E-05,1.52601478475844E-05,2.63671875,0,0
-2.89005874947179E-05,1.56603909999831E-05,2.63671875,0,0
-2.77205235761357E-05,1.41553900903091E-05,2.63671875,0,0
-2.88574083242565E-05,1.42113167385105E-05,2.63671875,0,0
-2.91721989924554E-05,1.4104756701272E-05,2.63671875,0,0
-3.01958789350465E-05,1.4473861483566E-05,2.63671875,0,0
-2.74937701760791E-05,1.42571479955222E-05,2.63671875,0,0
-2.71718763542594E-05,1.56551013787976E-05,2.63671875,0,0
-2.52046665991656E-05,1.55997222464066E-05,2.63671875,0,0
-2.55305512837367E-05,1.56874775711913E-05,2.63671875,0,0
-2.45186929532792E-05,1.34485408125329E-05,2.63671875,0,0
-2.54439200944034E-05,1.12595371319912E-05,2.63671875,0,0
-2.53782563959248E-05,1.04834762169048E-05,2.63671875,0,0
-2.57106403296348E-05,1.16988649097038E-05,2.63671875,0,0
-2.42593196162488E-05,1.05629833342391E-05,2.63671875,0,0
-2.37856147577986E-05,8.98734469956253E-06,2.63671875,0,0
-2.42283113038866E-05,9.22813978831982E-06,2.63671875,0,0
-2.43846025114181E-05,1.04089003798435E-05,2.63671875,0,0
-1.81142568180803E-05,9.67077085078927E-06,2.63671875,0,0
-2.48120086325798E-05,1.28127830976155E-05,2.63671875,0,0
-1.76506655407138E-05,7.75150510889944E-06,2.63671875,0,0
-2.14509109355276E-05,9.65903200267348E-06,2.63671875,0,0
-1.79407015821198E-05,7.08253992343089E-06,2.63671875,0,0
-2.34214276133571E-05,8.11085010354873E-06,2.63671875,0,0
-2.39284181589028E-05,8.20734567241743E-06,2.63671875,0,0
-2.60227971011773E-05,8.7972148321569E-06,2.63671875,0,0
-2.49326785706216E-05,7.42373913453775E-06,2.63671875,0,0
-2.37538606597809E-05,7.25298741599545E-06,2.63671875,0,0
-2.25921066885348E-05,9.02480769582326E-06,2.63671875,0,0
-2.09572390303947E-05,1.02157318906393E-05,2.63671875,0,0
-2.13496969081461E-05,1.14401445898693E-05,2.63671875,0,0
-2.03879917535232E-05,1.16891333163949E-05,2.63671875,0,0
-2.13671592064202E-05,1.26658278531977E-05,2.63671875,0,0
-1.98319939954672E-05,1.18734360512462E-05,2.63671875,0,0
-1.99402948055649E-05,1.15124357762397E-05,2.63671875,0,0
-1.78994268935639E-05,1.03816992123029E-05,2.63671875,0,0
-1.78035643330077E-05,1.11594999907538E-05,2.63671875,0,0
-1.64592947839992E-05,1.21841039799619E-05,2.63671875,0,0
-1.79268208739813E-05,1.32947670863359E-05,4.04296875,0,0
-1.91735689440975E-05,1.1407657439122E-05,4.04296875,0,0
-2.07603643502807E-05,9.46429463510867E-06,4.04296875,0,0
-2.04677053261548E-05,9.63112142926548E-06,4.04296875,0,0
-2.10466587304836E-05,1.15587454274646E-05,4.04296875,0,0
-2.20994716073619E-05,1.27375833471888E-05,4.04296875,0,0
-2.2908070604899E-05,1.12685002022772E-05,4.04296875,0,0
-1.93425858014962E-05,6.68027223582612E-06,4.04296875,0,0
-2.7994883566862E-05,9.60649504122557E-06,4.04296875,0,0
-2.18440654862206E-05,9.06845707504544E-06,4.04296875,0,0
-2.72104425675934E-05,1.2565108590934E-05,4.04296875,0,0
-2.39652126765577E-05,1.11816625576466E-05,4.04296875,0,0
-2.68308886006707E-05,1.31734032038366E-05,4.04296875,0,0
-2.5675049982965E-05,1.32240975290188E-05,4.04296875,0,0
-2.75631282420363E-05,1.20717986646923E-05,4.04296875,0,0
-2.61329678323818E-05,9.89135332929436E-06,4.04296875,0,0
-2.53890830208547E-05,9.72166071733227E-06,4.04296875,0,0
-2.55151917372132E-05,1.07291807580623E-05,4.04296875,0,0
-2.36642354138894E-05,9.94260608422337E-06,4.04296875,0,0
-2.27267755690264E-05,8.55480902828276E-06,4.04296875,0,0
-2.12351678783307E-05,7.9891051427694E-06,4.04296875,0,0
-2.27939381147735E-05,1.07712703538709E-05,4.04296875,0,0
-2.26931006181985E-05,1.30584830912994E-05,4.04296875,0,0
-2.40549215959618E-05,1.46588672578218E-05,4.04296875,0,0
-2.31833819270832E-05,1.43956267493195E-05,4.04296875,0,0
-2.52334466495086E-05,1.32732257043244E-05,4.04296875,0,0
-2.62153735093307E-05,1.07129108073423E-05,4.04296875,0,0
-2.76832306553843E-05,9.41614416660741E-06,4.04296875,0,0
-2.60831893683644E-05,7.9493456723867E-06,4.04296875,0,0
-2.53906418947736E-05,6.37506582279457E-06,4.04296875,0,0
-2.45506453211419E-05,4.53563916380517E-06,4.04296875,0,0
-2.49426211667014E-05,4.51223604613915E-06,4.04296875,0,0
-2.51890996878501E-05,6.06619323662017E-06,4.04296875,0,0
-2.42398909904296E-05,7.65145705372561E-06,4.04296875,0,0
-1.94738222489832E-05,6.52940343570663E-06,4.04296875,0,0
-2.85882852040231E-05,8.50587275635917E-06,4.04296875,0,0
-2.28115968639031E-05,4.91545642944402E-06,4.04296875,0,0
-2.74975172942504E-05,7.01824728821521E-06,4.04296875,0,0
-2.37282110902015E-05,7.39711003916455E-06,4.04296875,0,0
-2.75209386018105E-05,1.00960705822217E-05,4.04296875,0,0
-2.67239956883714E-05,1.0179496712226E-05,4.04296875,0,0
-2.86367412627442E-05,1.0290440513927E-05,4.04296875,0,0
-2.830842640833E-05,1.01369314506883E-05,4.04296875,0,0
-2.74745743809035E-05,1.07587120510289E-05,4.04296875,0,0
-2.54724000114948E-05,1.13618998511811E-05,4.04296875,0,0
-2.31446392717771E-05,1.09391248770407E-05,4.04296875,0,0
-2.30601071962155E-05,1.16005248855799E-05,4.04296875,0,0
-2.16560529224807E-05,1.23409090519999E-05,4.04296875,0,0
-2.31422745855525E-05,1.33192979774321E-05,4.04296875,0,0
-2.36250307352748E-05,1.26101340356399E-05,4.04296875,0,0
-2.68515268544434E-05,1.16226674435893E-05,4.04296875,0,0
-2.73809910140699E-05,1.00422357718344E-05,4.04296875,0,0
-2.80429194390308E-05,1.01771947811358E-05,4.04296875,0,0
-2.59883818216622E-05,1.13933519969578E-05,4.04296875,0,0
-2.6571351554594E-05,1.27068524307106E-05,4.04296875,0,0
-2.72187789960299E-05,1.13604364742059E-05,4.04296875,0,0
-2.86273880192311E-05,1.00939059848315E-05,4.04296875,0,0
-2.80449039564701E-05,1.04609916888876E-05,4.04296875,0,0
-2.74867670668755E-05,1.18288417070289E-05,4.04296875,0,0
-2.73023197223665E-05,1.08272570287227E-05,4.04296875,0,0
-2.75133479590295E-05,9.16796579986112E-06,4.04296875,0,0
-2.19211269723019E-05,8.57454688230064E-06,4.04296875,0,0
-3.11549483740237E-05,1.32453269543475E-05,4.04296875,0,0
-2.34932685998501E-05,1.13239184429403E-05,4.04296875,0,0
-2.82074524875497E-05,1.37618935696082E-05,4.04296875,0,0
-2.14758401853032E-05,1.29663776533562E-05,4.04296875,0,0
-2.22664202738088E-05,1.44938976518461E-05,4.04296875,0,0
-1.86227298399899E-05,1.33423291117651E-05,4.04296875,0,0
-1.9591512682382E-05,1.39948479045415E-05,4.04296875,0,0
-1.86958368431078E-05,1.28190613395418E-05,4.04296875,0,0
-1.91512244782643E-05,1.11364597614738E-05,4.04296875,0,0
-2.09233276109444E-05,1.10402688733302E-05,4.04296875,0,0
-2.08896854019258E-05,1.07696068880614E-05,4.04296875,0,0
-2.22906201088335E-05,1.07549340100377E-05,4.04296875,0,0
-2.23181468754774E-05,1.07233245216776E-05,4.04296875,0,0
-2.43791946559213E-05,1.1950468433497E-05,4.04296875,0,0
-2.35345887631411E-05,1.20212107503903E-05,4.04296875,0,0
-2.48926517087966E-05,1.21980619951501E-05,4.04296875,0,0
-2.35167499340605E-05,1.10948603833094E-05,4.04296875,0,0
-2.31326885113958E-05,1.10050768853398E-05,4.04296875,0,0
-1.9939321646234E-05,1.01118394013611E-05,4.04296875,0,0
-1.92894658539444E-05,9.18350997380912E-06,4.04296875,0,0
-1.91244562302018E-05,7.9522687883582E-06,4.04296875,0,0
-2.05509204533882E-05,8.42602912598522E-06,4.04296875,0,0
-2.06228251045104E-05,8.06805655884091E-06,4.04296875,0,0
-2.06498662009835E-05,8.41551991470624E-06,4.04296875,0,0
-1.93009600479854E-05,1.04011323855957E-05,4.04296875,0,0
-1.71714418684132E-05,1.07028436104883E-05,4.04296875,0,0
-1.44713112604222E-05,7.76119759393623E-06,4.04296875,0,0
-2.25760213652393E-05,1.07666128315032E-05,4.04296875,0,0
-1.92344232345931E-05,7.77274271968054E-06,4.04296875,0,0
-2.17214146687184E-05,9.90822900348576E-06,4.04296875,0,0
-1.83259144250769E-05,9.00112263479969E-06,4.04296875,0,0
-2.12983341043582E-05,1.04409718915122E-05,4.04296875,0,0
-2.24085324589396E-05,8.58744078868767E-06,4.04296875,0,0
-2.4704879251658E-05,8.49033494887408E-06,4.04296875,0,0
-2.56475250353105E-05,8.87168062035926E-06,4.04296875,0,0
-2.72576453426154E-05,9.74607883108547E-06,4.04296875,0,0
-2.83096651401138E-05,1.08915974124102E-05,4.04296875,0,0
-2.72037777904188E-05,1.0446458873048E-05,4.04296875,0,0
-2.60772503679618E-05,8.70403255248675E-06,4.04296875,0,0
-2.4336759452126E-05,6.26436667516828E-06,4.04296875,0,0
-2.52882491622586E-05,6.61432750348467E-06,4.04296875,0,0
-2.4735958504607E-05,7.70156657381449E-06,4.04296875,0,0
-2.4881375793484E-05,9.72169164015213E-06,4.04296875,0,0
-2.3598266125191E-05,9.43213399295928E-06,4.04296875,0,0
-2.34867875406053E-05,8.3458344306564E-06,4.04296875,0,0
-2.2500262275571E-05,7.75120042817434E-06,4.04296875,0,0
-2.33081318583572E-05,9.68209678831045E-06,4.04296875,0,0
-2.34347662626533E-05,1.16056289698463E-05,4.04296875,0,0
-2.35431871260516E-05,1.45017329487018E-05,4.04296875,0,0
-2.25626536121126E-05,1.61680891324067E-05,4.04296875,0,0
-2.20690380956512E-05,1.68952301464742E-05,4.04296875,0,0
-2.2011165128788E-05,1.72416257555597E-05,4.04296875,0,0
-2.28328462981153E-05,1.6120693544508E-05,4.04296875,0,0
-2.02831779461121E-05,1.11519957499695E-05,4.04296875,0,0
-3.02822754747467E-05,1.52241364048677E-05,4.04296875,0,0
-2.52130939770723E-05,1.12520701804897E-05,4.04296875,0,0
-3.13072014250793E-05,1.41434493343695E-05,4.04296875,0,0
-2.60425076703541E-05,9.72476482274942E-06,4.04296875,0,0
-2.69718275376363E-05,1.0512575499888E-05,4.04296875,0,0
-2.52164900302887E-05,1.13536334538367E-05,4.04296875,0,0
-2.67307696049102E-05,1.39569501698134E-05,4.04296875,0,0
-2.5810302759055E-05,1.29265436044079E-05,4.04296875,0,0
-2.46752024395391E-05,1.10471346488339E-05,4.04296875,0,0
-2.29911729547894E-05,9.75812326942105E-06,4.04296875,0,0
-2.08625788218342E-05,8.34866386867361E-06,4.04296875,0,0
-2.1797675799462E-05,7.94128936831839E-06,4.04296875,0,0
-2.16273019759683E-05,7.7006998253637E-06,4.04296875,0,0
-2.28462613449665E-05,1.06014686025446E-05,4.04296875,0,0
-2.14364172279602E-05,1.22485698739183E-05,4.04296875,0,0
-2.16364423977211E-05,1.31810620587203E-05,4.04296875,0,0
-2.01254570129095E-05,1.13487403723411E-05,4.04296875,0,0
-2.11407841561595E-05,1.01760415418539E-05,4.04296875,0,0
-2.10759317269549E-05,7.94529751146911E-06,4.04296875,0,0
-2.23492406803416E-05,6.88317413732875E-06,4.04296875,0,0
-2.15219624806196E-05,5.20537423653877E-06,4.04296875,0,0
-2.2447438823292E-05,5.54938424102147E-06,4.04296875,0,0
-2.41861944232369E-05,7.40075029170839E-06,4.04296875,0,0
-2.59987627941882E-05,8.53812616696814E-06,4.04296875,0,0
-2.55327813647455E-05,7.60739567340352E-06,4.04296875,0,0
-2.44125603785506E-05,6.59240322420374E-06,4.04296875,0,0
-1.96158871403895E-05,6.15000362813589E-06,4.04296875,0,0
-2.83814679278294E-05,1.09202674138942E-05,4.04296875,0,0
-2.26451757043833E-05,1.15498733066488E-05,4.04296875,0,0
-2.77250474027824E-05,1.38452533064992E-05,4.04296875,0,0
-2.31359626923222E-05,1.36192857098649E-05,4.04296875,0,0
-2.49553577305051E-05,1.57345912157325E-05,4.04296875,0,0
-2.22410671995021E-05,1.58563852892257E-05,4.04296875,0,0
-2.42898640863132E-05,1.53615001181606E-05,4.04296875,0,0
-2.51934034167789E-05,1.45207495734212E-05,4.04296875,0,0
-2.56253279076191E-05,1.50325222421088E-05,4.04296875,0,0
-2.46725376200629E-05,1.63524346135091E-05,4.04296875,0,0
-2.22400212805951E-05,1.69698651006911E-05,4.04296875,0,0
-2.18469303945312E-05,1.74742817762308E-05,4.04296875,0,0
-2.13805506064091E-05,1.66596291819587E-05,4.04296875,0,0
-2.39035471167881E-05,1.6369842342101E-05,4.04296875,0,0
-2.4113294784911E-05,1.44058485602727E-05,4.04296875,0,0
-2.57692809100263E-05,1.18548477985314E-05,4.04296875,0,0
-2.53961006819736E-05,9.39191886573099E-06,4.04296875,0,0
-2.65904564002994E-05,8.91574472916545E-06,4.04296875,0,0
-2.43257200054359E-05,9.00162012840156E-06,4.04296875,0,0
-2.30657296924619E-05,9.15506916498998E-06,4.04296875,0,0
-2.18862060137326E-05,8.45924114400987E-06,4.04296875,0,0
-2.4122733520926E-05,7.8374105214607E-06,5.44921875,0,0
-2.64757691184059E-05,7.25003519619349E-06,5.44921875,0,0
-2.78538791462779E-05,6.89746684656711E-06,5.44921875,0,0
-2.68117855739547E-05,5.94230232309201E-06,5.44921875,0,0
-2.63970632659039E-05,5.50703907720163E-06,5.44921875,0,0
-2.24698596866801E-05,5.71590089748497E-06,5.44921875,0,0
-3.20544822898228E-05,8.78751779964659E-06,5.44921875,0,0
-2.37754593399586E-05,7.90578724263469E-06,5.44921875,0,0
-2.8935945010744E-05,9.71494682744378E-06,5.44921875,0,0
-2.35483930737246E-05,9.49056084209587E-06,5.44921875,0,0
-2.54210899583995E-05,1.07877876871498E-05,5.44921875,0,0
-2.22305679926649E-05,8.92762545845471E-06,5.44921875,0,0
-2.33546707022469E-05,8.73815952218138E-06,5.44921875,0,0
-2.46326180786127E-05,9.48304113990162E-06,5.44921875,0,0
-2.58279433182906E-05,1.11127910713549E-05,5.44921875,0,0
-2.54690603469498E-05,1.28563560792827E-05,5.44921875,0,0
-2.45147639361676E-05,1.37782781166607E-05,5.44921875,0,0
-2.65184171439614E-05,1.37387905851938E-05,5.44921875,0,0
-2.68141029664548E-05,1.304936267843E-05,5.44921875,0,0
-2.8182346795802E-05,1.27903749671532E-05,5.44921875,0,0
-2.59544976870529E-05,1.11728850242798E-05,5.44921875,0,0
-2.55209961323999E-05,1.06651723399409E-05,5.44921875,0,0
-2.33922401093878E-05,1.10910696093924E-05,5.44921875,0,0
-2.45606133830734E-05,1.25075421237852E-05,5.44921875,0,0
-2.52886129601393E-05,1.29755535454024E-05,5.44921875,0,0
-2.82571618299698E-05,1.4580459719582E-05,5.44921875,0,0
-2.8080075935577E-05,1.55994530359749E-05,5.44921875,0,0
-2.71841290668817E-05,1.55962607095717E-05,5.44921875,0,0
-2.69560168817407E-05,1.44588047987781E-05,5.44921875,0,0
-2.85348596662516E-05,1.34204210553435E-05,5.44921875,0,0
-2.88978244498139E-05,1.31819097077823E-05,5.44921875,0,0
-2.90981752186781E-05,1.39047097036382E-05,5.44921875,0,0
-2.22023463720689E-05,1.12926600195351E-05,5.44921875,0,0
-2.98237646347843E-05,1.58058901433833E-05,5.44921875,0,0
-2.1947978893877E-05,1.13470805445104E-05,5.44921875,0,0
-2.87770453724079E-05,1.41893078762223E-05,5.44921875,0,0
-2.34559829550562E-05,1.24477983263205E-05,5.44921875,0,0
-2.67658160737483E-05,1.3549182767747E-05,5.44921875,0,0
-2.43165086430963E-05,9.81429093371844E-06,5.44921875,0,0
-2.48638971243054E-05,8.84654400579166E-06,5.44921875,0,0
-2.28198878176045E-05,9.123117706622E-06,5.44921875,0,0
-2.23858951358125E-05,9.63215552474139E-06,5.44921875,0,0
-2.29747383855283E-05,8.21565208752872E-06,5.44921875,0,0
-2.22933213080978E-05,5.1565757530625E-06,5.44921875,0,0
-2.36717824009247E-05,3.76286425307626E-06,5.44921875,0,0
-2.33285845752107E-05,1.7063126733774E-06,5.44921875,0,0
-2.4258892153739E-05,1.30526416342036E-06,5.44921875,0,0
-2.11010246857768E-05,2.71825501840794E-06,5.44921875,0,0
-2.0364781448734E-05,8.12360394775169E-06,5.44921875,0,0
-1.76825942617143E-05,1.18267444122466E-05,5.44921875,0,0
-1.81585346581414E-05,1.49386460179812E-05,5.44921875,0,0
-1.70750845427392E-05,1.54681802086998E-05,5.44921875,0,0
-1.77838719537249E-05,1.53109576785937E-05,5.44921875,0,0
-1.72174368344713E-05,1.30500684463186E-05,5.44921875,0,0
-1.77131369127892E-05,9.93463254417293E-06,5.44921875,0,0
-1.68617516465019E-05,7.20938805898186E-06,5.44921875,0,0
-1.67203597811749E-05,7.37157961339108E-06,5.44921875,0,0
-1.70548100868473E-05,8.98428334039636E-06,5.44921875,0,0
-1.74203214555746E-05,1.1485887625895E-05,5.44921875,0,0
-1.43438464874635E-05,1.10382197817671E-05,5.44921875,0,0
-2.17173001146875E-05,1.48736626215396E-05,5.44921875,0,0
-1.99109144887188E-05,8.78997525433078E-06,5.44921875,0,0
-2.54886908805929E-05,9.72480211203219E-06,5.44921875,0,0
-2.24452378461137E-05,7.51034531276673E-06,5.44921875,0,0
-2.31556441576686E-05,1.00433435363811E-05,5.44921875,0,0
-2.20651600102428E-05,9.26798293221509E-06,5.44921875,0,0
-2.42923179030186E-05,9.13140956981806E-06,5.44921875,0,0
-2.52031877607806E-05,8.65960737428395E-06,5.44921875,0,0
-2.61064633377828E-05,9.51808488025563E-06,5.44921875,0,0
-2.73808855126845E-05,1.00587840279331E-05,5.44921875,0,0
-2.89432882709662E-05,9.9080989457434E-06,5.44921875,0,0
-3.05556386592798E-05,1.14649137685774E-05,5.44921875,0,0
-2.87571783701424E-05,1.16147266453481E-05,5.44921875,0,0
-2.78141196758952E-05,1.15689326776192E-05,5.44921875,0,0
-2.60645829257555E-05,9.5508994490956E-06,5.44921875,0,0
-2.62985795416171E-05,9.86247596301837E-06,5.44921875,0,0
-2.54841870628297E-05,1.11883209683583E-05,5.44921875,0,0
-2.65594935626723E-05,1.40071797432029E-05,5.44921875,0,0
-2.60427532339236E-05,1.38889063237002E-05,5.44921875,0,0
-2.59146072494332E-05,1.32492314151023E-05,5.44921875,0,0
-2.52546597039327E-05,1.24342413982959E-05,5.44921875,0,0
-2.61024288192857E-05,1.39180128826411E-05,5.44921875,0,0
