biceps_emg, triceps_emg, subject_position, position_estimate, brace_position
-2.55788108916022E-05,4.9286286412098E-06,0,0,0
-2.51770834438503E-05,8.47570481710136E-06,0,0,0
-2.39779183175415E-05,1.00101306088618E-05,0,0,0
-2.44367656705435E-05,1.19912010632106E-05,0,0,0
-2.24964387598448E-05,1.21036664495477E-05,0,0,0
-2.35522475122707E-05,1.12919824459823E-05,0,0,0
-2.23315582843497E-05,1.02111380329006E-05,0,0,0
-2.39692835748428E-05,1.03728925751057E-05,0,0,0
-2.36084943026071E-05,1.05211984191556E-05,0,0,0
-2.50518369284691E-05,1.17890785986674E-05,0,0,0
-2.26831325562671E-05,1.02748626886751E-05,0,0,0
-2.18652476178249E-05,3.87078625863069E-06,0,0,0
-2.1863454094273E-05,-1.94356729821266E-07,0,0,0
-2.46595009230077E-05,6.37122911939514E-06,0,0,0
-2.61050481640268E-05,1.44783180076047E-05,0,0,0
-2.74633730441565E-05,1.67584348673699E-05,0,0,0
-2.71820008492796E-05,1.50227569974959E-05,0,0,0
-2.72907564067282E-05,1.33653929879074E-05,0,0,0
-2.19389094127109E-05,1.23786840049434E-05,0,0,0
-2.98215763905318E-05,1.91974668268813E-05,0,0,0
-2.16030130104627E-05,1.44381228892598E-05,0,0,0
-2.98498216579901E-05,1.35878599394346E-05,0,0,0
-2.70884283963824E-05,8.56885799294105E-06,0,0,0
-2.97190781566314E-05,1.11621548057883E-05,0,0,0
-2.63760102825472E-05,1.35645659611328E-05,0,0,0
-2.68547428277088E-05,1.78851423697779E-05,0,0,0
-2.61537807091372E-05,2.03448471438605E-05,0,0,0
-2.46800918830559E-05,2.19416451727739E-05,0,0,0
-2.28538028750336E-05,2.11863571166759E-05,0,0,0
-2.20424299186561E-05,1.82124986167764E-05,0,0,0
-2.50784814852523E-05,1.62091782840434E-05,0,0,0
-2.59316220763139E-05,1.28983328977483E-05,0,0,0
-2.73194928013254E-05,1.24158223115955E-05,0,0,0
-2.49131335294805E-05,1.20006952784024E-05,0,0,0
-2.47658535954542E-05,1.21512784971856E-05,0,0,0
-2.25447238335619E-05,1.11360704977415E-05,0,0,0
-2.24412578972988E-05,1.12303823698312E-05,0,0,0
-2.12888280657353E-05,1.12175548565574E-05,0,0,0
-2.26138436119072E-05,1.46365173350205E-05,0,0,0
-2.31378035095986E-05,1.69659215316642E-05,0,0,0
-2.46857962338254E-05,1.66442096087849E-05,0,0,0
-2.4288970962516E-05,1.50667920024716E-05,0,0,0
-2.38365464610979E-05,1.35662448883522E-05,0,0,0
-2.35142033488955E-05,1.11296421891893E-05,0,0,0
-2.28443277592305E-05,1.02609901659889E-05,0,0,0
-1.74537490238436E-05,8.03684815764427E-06,0,0,0
-2.44806760747451E-05,1.08886088128202E-05,0,0,0
-1.83954216481652E-05,6.04167689743917E-06,0,0,0
-2.17719916690839E-05,4.85164719066233E-06,0,0,0
-1.80897513928358E-05,2.29101488002925E-06,0,0,0
-2.1906716938247E-05,6.5164613261004E-06,0,0,0
-1.94805434148293E-05,7.75571152189514E-06,0,0,0
-1.92337047337787E-05,7.49551691114903E-06,0,0,0
-1.75362602021778E-05,7.4822423812293E-06,0,0,0
-1.71104566106806E-05,8.73492444952717E-06,0,0,0
-1.7101037883549E-05,9.4909310064395E-06,0,0,0
-1.60868039529305E-05,1.0731426300481E-05,0,0,0
-1.65706405823585E-05,1.32161212604842E-05,0,0,0
-1.55284851643955E-05,1.30049593281001E-05,0,0,0
-1.68823899002746E-05,1.22347973956494E-05,0,0,0
-1.62648339028237E-05,1.16616174636874E-05,0,0,0
-1.72823856701143E-05,1.21026314445771E-05,0,0,0
-1.65770361491013E-05,1.04075043054763E-05,0,0,0
-1.78040554601466E-05,1.01566238299711E-05,0,0,0
-1.63610584422713E-05,1.17401023089769E-05,0,0,0
-1.60954841703642E-05,1.53235978359589E-05,0,0,0
-1.6666846931912E-05,1.69033355632564E-05,0,0,0
-2.05299747904064E-05,1.59035680553643E-05,0,0,0
-2.28546068683499E-05,1.36539010782144E-05,0,0,0
-2.32890452025458E-05,1.1227388313273E-05,0,0,0
-2.36110954574542E-05,7.7116292231949E-06,0,0,0
-2.44180810113903E-05,5.17188709636685E-06,0,0,0
-2.00175527425017E-05,3.14486624120036E-06,0,0,0
-2.79164196399506E-05,3.64859806722961E-06,0,0,0
-1.96565215446753E-05,3.2721573006711E-06,0,0,0
-2.46182280534413E-05,6.39952168057789E-06,0,0,0
-2.21770042116987E-05,6.73314616506104E-06,0,0,0
-2.65342514467193E-05,8.78656646818854E-06,0,0,0
-2.49314052780392E-05,9.36268043005839E-06,0,0,0
-2.62933790509123E-05,9.15580494620372E-06,0,0,0
-2.64808804786298E-05,9.10873222892405E-06,0,0,0
-2.66070037469035E-05,8.90573028300423E-06,0,0,0
-2.57821502600564E-05,1.03489810499013E-05,0,0,0
-2.45438986894442E-05,1.27753719425527E-05,0,0,0
-2.60839169641258E-05,1.3188083357818E-05,0,0,0
-2.55501836363692E-05,1.10559467429994E-05,0,0,0
-2.52459431067109E-05,1.0174367162108E-05,0,0,0
-2.30989971896634E-05,1.05812387118931E-05,0,0,0
-2.54412479989696E-05,1.16085002446198E-05,0,0,0
-2.57359424722381E-05,1.06370189314475E-05,0,0,0
-2.62283665506402E-05,9.13294115889585E-06,0,0,0
-2.47429470618954E-05,7.90286685514729E-06,0,0,0
-2.54336664511357E-05,6.45739146420965E-06,0,0,0
-2.42224505200284E-05,5.42500265510171E-06,0,0,0
-2.38303455262212E-05,6.6855168370239E-06,0,0,0
-2.33263799600536E-05,8.34389265946811E-06,0,0,0
-2.32776765187737E-05,8.74163652042625E-06,0,0,0
-2.44453585764859E-05,7.24153642295278E-06,0,0,0
-2.61566710832994E-05,5.69538133277092E-06,0,0,0
-2.19307294173632E-05,5.03544652019627E-06,0,0,0
-3.04854929709109E-05,6.63509308651555E-06,0,0,0
-2.28057524509495E-05,4.9465561460238E-06,0,0,0
-3.00073152175173E-05,6.8128183556837E-06,0,0,0
-2.76208520517685E-05,7.70701353758341E-06,0,0,0
-3.03758952213684E-05,1.14687491077348E-05,0,0,0
-2.52493809966836E-05,9.73472015175503E-06,0,0,0
-2.45834380621091E-05,6.96856886861497E-06,0,0,0
-2.29967754421523E-05,6.98077155902865E-06,0,0,0
-2.29154775297502E-05,1.07941523310728E-05,0,0,0
-2.31910635193344E-05,1.42261424116441E-05,0,0,0
-2.28784847422503E-05,1.43007055157796E-05,0,0,0
-2.5142860977212E-05,1.28708779811859E-05,0,0,0
-2.49060249188915E-05,1.0727333574323E-05,0,0,0
-2.57527717621997E-05,1.01191753856256E-05,0,0,0
-2.37756285059731E-05,8.42751887830673E-06,0,0,0
-2.42708374571521E-05,6.74706780046108E-06,0,0,0
-2.18693276110571E-05,4.41372912973748E-06,0,0,0
-2.22523431148147E-05,3.92824495065724E-06,0,0,0
-2.14771444007056E-05,4.95490849061753E-06,0,0,0
-2.23024890146917E-05,7.15775922799367E-06,0,0,0
-2.2124975657789E-05,7.31944737708545E-06,0,0,0
-2.41523703152779E-05,4.86283079226268E-06,0,0,0
-2.43909998971503E-05,2.65695393864007E-06,0,0,0
-2.44628081418341E-05,3.54169651473057E-06,0,0,0
-2.49816112045664E-05,5.3262979236024E-06,0,0,0
-2.61755649262341E-05,4.80242078992887E-06,0,0,0
-2.11120132007636E-05,2.87550710709183E-06,0,0,0
-3.02501539408695E-05,4.57401256426238E-06,0,0,0
-2.38815373450052E-05,5.26768326380989E-06,0,0,0
-3.09079259750433E-05,4.44999386672862E-06,0,0,0
-2.78865227301139E-05,7.68986637922353E-07,0,0,0
-3.03802262351383E-05,2.93004882223613E-06,0,0,0
-2.63790225289995E-05,6.65948891764856E-06,0,0,0
-2.61998065980151E-05,1.08788235593238E-05,0,0,0
-2.47826064878609E-05,1.54413773998385E-05,0,0,0
-2.42130336118862E-05,1.89506317838095E-05,0,0,0
-2.39080327446572E-05,1.94713702512672E-05,0,0,0
-2.31704761972651E-05,1.88298126886366E-05,0,0,0
-2.46384297497571E-05,1.81016876013018E-05,0,0,0
-2.359887912462E-05,1.68401038536103E-05,0,0,0
-2.34639792324742E-05,1.57714657689212E-05,0,0,0
-2.11182268685661E-05,1.33395142256632E-05,0,0,0
-2.2728112526238E-05,1.00844481494278E-05,0,0,0
-2.306497299287E-05,5.52704159417772E-06,0,0,0
-2.46034305746434E-05,3.55975498678163E-06,0,0,0
-2.3405907995766E-05,5.79572952119634E-06,0,0,0
-2.44403236138169E-05,1.08004924186389E-05,0,0,0
-2.44570164795732E-05,1.52409238580731E-05,0,0,0
-2.45685969275655E-05,1.75722798303468E-05,0,0,0
-2.40431018028175E-05,1.63935819728067E-05,0,0,0
-2.57013507507509E-05,1.44750501931412E-05,0,0,0
-2.7275682441541E-05,1.34721349240863E-05,0,0,0
-2.76818573183846E-05,1.13028199848486E-05,0,0,0
-2.11037677217973E-05,7.48691763874376E-06,0,0,0
-2.77587587333983E-05,9.0651019490906E-06,0,0,0
-1.80977131094551E-05,5.82290840611677E-06,0,0,0
-2.41312427533558E-05,8.53971141623333E-06,0,0,0
-2.1549789380515E-05,5.96907921135426E-06,0,0,0
-2.59198423009366E-05,7.80867139837937E-06,0,0,0
-2.31157446251018E-05,1.03060647234088E-05,0,0,0
-2.43168942688499E-05,1.40670526889153E-05,0,0,0
-2.46526287810411E-05,1.44691111927386E-05,0,0,0
-2.52001282206038E-05,1.25092092275736E-05,0,0,0
-2.47364514507353E-05,1.14963104351773E-05,0,0,0
-2.30804016609909E-05,1.17584540930693E-05,0,0,0
-2.36804989981465E-05,1.26156010082923E-05,0,0,0
-2.26564789045369E-05,1.29837162603508E-05,0,0,0
-2.40000790654449E-05,1.49968936966616E-05,0,0,0
-2.33158698392799E-05,1.48858371176175E-05,0,0,0
-2.4993698389153E-05,1.43211518661701E-05,0,0,0
-2.32719776249724E-05,1.37326969706919E-05,0,0,0
-2.37894491874613E-05,1.53928212967003E-05,0,0,0
-2.33617683988996E-05,1.68172809935641E-05,0,0,0
-2.46027520915959E-05,1.81165432877606E-05,0,0,0
-2.36734431382502E-05,1.60387462528888E-05,0,0,0
-2.38099328271346E-05,1.24802836580784E-05,0,0,0
-2.39972141571343E-05,9.53303151618456E-06,0,0,0
-2.57317060459172E-05,6.96429424351663E-06,0,0,0
-2.56676739809336E-05,1.94274139175832E-06,0,0,0
-2.32634411077015E-05,-4.0630893636262E-06,0,0,0
-1.5944364349707E-05,-4.17978208133718E-06,0,0,0
-2.31554695346858E-05,-2.09336849366082E-06,0,0,0
-1.99265668925364E-05,5.11425787408371E-06,0,0,0
-2.52660865953658E-05,4.49369917987497E-06,0,0,0
-2.15971667785198E-05,4.45710884378059E-06,0,0,0
-2.41444940911606E-05,5.68146424484439E-06,0,0,0
-2.21768314077053E-05,8.79563776834402E-06,0,0,0
-2.27947766688885E-05,7.87717362982221E-06,0,0,0
-2.19070680032019E-05,8.04066894488642E-06,0,0,0
-2.16452954191482E-05,1.05058788903989E-05,0,0,0
-2.13525745493826E-05,1.29291938719689E-05,0,0,0
-2.04632870008936E-05,1.50182941069943E-05,0,0,0
-2.1468969862326E-05,1.6291663996526E-05,0,0,0
-2.02058399736416E-05,1.83573010872351E-05,0,0,0
-1.95274242287269E-05,2.15086474781856E-05,0,0,0
-1.66685167641845E-05,2.39804030570667E-05,0,0,0
-1.61195384862367E-05,2.14033934753388E-05,0,0,0
-1.43710740303504E-05,1.72509753610939E-05,0,0,0
-1.53855016833404E-05,1.4183066014084E-05,0,0,0
-1.60328581841895E-05,1.28879282783601E-05,0,0,0
-1.72711188497487E-05,1.10297469291254E-05,0,0,0
-1.69090781128034E-05,1.10048194983392E-05,0,0,0
-1.76541761902627E-05,1.31890874399687E-05,0,0,0
-1.85172266355949E-05,1.66307545441668E-05,0,0,0
-1.99994228751166E-05,1.95803804672323E-05,0,0,0
-2.01652273972286E-05,2.04069892788539E-05,0,0,0
-2.03816944122082E-05,1.9646315195132E-05,0,0,0
-1.75749028130667E-05,1.39617741297116E-05,0,0,0
-2.70563687081449E-05,1.72328745975392E-05,0,0,0
-2.41149282373954E-05,1.08682916106773E-05,0,0,0
-2.86017057078425E-05,1.60528161359252E-05,0,0,0
-2.42672740569105E-05,1.35382579173893E-05,0,0,0
-2.65503040282056E-05,1.88459562195931E-05,0,0,0
-2.41735797317233E-05,1.99122514459305E-05,0,0,0
-2.53560374403605E-05,2.05018841370475E-05,0,0,0
-2.59441276284633E-05,1.80734969035257E-05,0,0,0
-2.68532276095357E-05,1.61189600476064E-05,0,0,0
-2.69591801043134E-05,1.4013952750247E-05,0,0,0
-2.56279035966145E-05,1.16527498903451E-05,0,0,0
-2.52805220952723E-05,7.55262863094686E-06,0,0,0
-2.34680901485262E-05,-5.73912927848141E-07,0,0,0
-2.40116351051256E-05,-1.39282485633885E-06,0,0,0
-2.39437213167548E-05,3.23797939927317E-06,0,0,0
-2.62099401879823E-05,9.29818634176627E-06,0,0,0
-2.59132011706242E-05,8.63856257637963E-06,0,0,0
-2.69334996119142E-05,6.75561250318424E-06,0,0,0
-2.66228598775342E-05,4.26634187533637E-06,0,0,0
-2.71495009656064E-05,5.18337310495554E-06,0,0,0
-2.55687773460522E-05,6.55743178867851E-06,0,0,0
-2.44251368712867E-05,9.08975380298216E-06,0,0,0
-2.18761524592992E-05,1.0727827429946E-05,0,0,0
-2.0513632989605E-05,1.31299702843535E-05,0,0,0
-2.10645303013735E-05,1.59939900186146E-05,0,0,0
-2.28178414545255E-05,1.79673152160831E-05,0,0,0
-1.89284110092558E-05,1.28066885736189E-05,0,0,0
-2.71581720880931E-05,1.6210487956414E-05,0,0,0
-2.18980476347497E-05,1.13865853563766E-05,0,0,0
-2.78098577837227E-05,1.32623772515217E-05,0,0,0
-2.34426224778872E-05,7.58561054681195E-06,0,0,0
-2.51530600507976E-05,1.05658327811398E-05,0,0,0
-2.22246962948702E-05,9.62095418799436E-06,0,0,0
-2.20316542254295E-05,1.10757528091199E-05,0,0,0
-2.13350085687125E-05,1.25379738165066E-05,0,0,0
-2.34842955251224E-05,1.3824988855049E-05,0,0,0
-2.50156663241796E-05,1.23889740279992E-05,0,0,0
-2.32534512178972E-05,1.12029783849721E-05,0,0,0
-2.18399218283594E-05,1.2819490621041E-05,0,0,0
-2.03880845219828E-05,1.24612015497405E-05,0,0,0
-2.32059119298356E-05,1.24461694213096E-05,0,0,0
-2.38865741266636E-05,9.81190532911569E-06,0,0,0
-2.56002458627336E-05,8.27696931082755E-06,0,0,0
-2.56448729487602E-05,4.54518431070028E-06,0,0,0
-2.70861382887233E-05,2.65797120846401E-06,0,0,0
-2.51224719249876E-05,1.12183784040099E-06,0,0,0
-2.51277269853745E-05,2.63930610344687E-06,0,0,0
-2.58658637903864E-05,2.5331205506518E-06,0,0,0
-2.83818953903392E-05,2.35862194131187E-06,0,0,0
-2.87284710793756E-05,1.66079803420871E-06,0,0,0
-2.76999708148651E-05,1.71490557931975E-06,0,0,0
-2.63592737610452E-05,3.64411152986577E-06,0,0,0
-2.66008410108043E-05,7.57205816626083E-06,0,0,0
-2.20615838770755E-05,8.06763273430988E-06,0,0,0
-3.20012622978538E-05,1.00653878689627E-05,0,0,0
-2.40938570641447E-05,5.43909345651628E-06,0,0,0
-2.8502226996352E-05,5.76292040932458E-06,0,0,0
-2.30555997404736E-05,3.64138986697071E-06,0,0,0
-2.46931085712276E-05,5.58974079467589E-06,0,0,0
-2.12504692171933E-05,3.05085677609895E-06,0,0,0
-2.24698924284894E-05,1.81733423687547E-06,0,0,0
-2.24348968913546E-05,3.29743897964363E-06,0,0,0
-2.21733025682624E-05,4.73482532470371E-06,0,0,0
-2.21710815822007E-05,5.46496448805556E-06,0,0,0
-2.23066272155847E-05,7.53638823880465E-06,0,0,0
-2.44867933361093E-05,1.04676864793873E-05,0,0,0
-2.37758340517757E-05,1.13381829578429E-05,0,0,0
-2.53133457590593E-05,1.31410306494217E-05,0,0,0
-2.45028622885002E-05,1.45716230690596E-05,0,0,0
-2.43225040321704E-05,1.72790660144528E-05,0,0,0
-2.08076435228577E-05,1.76510020537535E-05,0,0,0
-2.07583452720428E-05,1.677496402408E-05,0,0,0
-2.11323840630939E-05,1.61546086019371E-05,0,0,0
-2.24990853894269E-05,1.80024326255079E-05,0,0,0
-2.09560384973884E-05,1.81313225766644E-05,0,0,0
-2.05451997317141E-05,1.60851122927852E-05,0,0,0
-1.92580009752419E-05,1.20326321848552E-05,0,0,0
-1.91867075045593E-05,1.01316154541564E-05,0,0,0
-1.96403707377613E-05,9.76256978901802E-06,0,0,0
-2.01869333977811E-05,9.98819450614974E-06,0,0,0
-1.69021404872183E-05,8.3006434579147E-06,0,0,0
-2.38445172726642E-05,1.12838633867796E-05,0,0,0
-1.83702886715764E-05,8.4801886259811E-06,0,0,0
-2.39449291257188E-05,1.110475477617E-05,0,0,0
-2.14551801036578E-05,9.16316457733046E-06,0,0,0
-2.3438920834451E-05,1.04508053482277E-05,0,0,0
-2.17539582081372E-05,8.05536092229886E-06,0,0,0
-2.37168642343022E-05,6.36727099845302E-06,0,0,0
-2.41168036154704E-05,6.43503381070332E-06,0,0,0
-2.51122728514019E-05,8.18076023278991E-06,0,0,0
-2.56365201494191E-05,9.17260149435606E-06,0,0,0
-2.43712966039311E-05,9.40294557949528E-06,0,0,0
-2.40088393184124E-05,8.43498946778709E-06,0,0,0
-2.36463602050208E-05,4.99330144521082E-06,0,0,0
-2.66360784735298E-05,6.02808358962648E-06,0,0,0
-2.70931177510647E-05,1.02376243376057E-05,0,0,0
-2.77736671705497E-05,1.45803542181966E-05,0,0,0
-2.58896543527953E-05,1.47168984767632E-05,0,0,0
-2.61692748608766E-05,1.27880884974729E-05,0,0,0
-2.57254832831677E-05,8.34883849165635E-06,0,0,0
-2.65298785961932E-05,6.59747774989228E-06,0,0,0
-2.56395851465641E-05,9.37555068958318E-06,0,0,0
-2.59846947301412E-05,1.42115304697654E-05,0,0,0
-2.65615963144228E-05,1.51690946950112E-05,0,0,0
-2.7554026019061E-05,1.40241909321048E-05,0,0,0
-2.73037949227728E-05,1.35726886583143E-05,0,0,0
-2.61743389273761E-05,1.37442330014892E-05,0,0,0
-2.08356777875451E-05,9.7958054539049E-06,0,0,0
-2.89438867184799E-05,1.30211592477281E-05,0,0,0
-2.08596175070852E-05,1.10448736450053E-05,0,0,0
-2.59564167208737E-05,1.63996828632662E-05,0,0,0
-2.3216191038955E-05,1.4274077329901E-05,0,0,0
-2.80578533420339E-05,1.56235273607308E-05,0,0,0
-2.55083668889711E-05,1.2924429938721E-05,0,0,0
-2.58280506386654E-05,1.05418102975818E-05,0,0,0
-2.50170323852217E-05,7.46585828892421E-06,0,0,0
-2.54793412750587E-05,5.78135131945601E-06,0,0,0
-2.60244105447782E-05,8.2991564340773E-06,0,0,0
-2.52094669122016E-05,1.3056294847047E-05,0,0,0
-2.4772694814601E-05,1.58116836246336E-05,0,0,0
-2.17322867683833E-05,1.33466182887787E-05,0,0,0
-2.2314949092106E-05,1.13149635581067E-05,0,0,0
-2.23034294322133E-05,9.36360356718069E-06,0,0,0
-2.46535400947323E-05,9.93560570350382E-06,0,0,0
-2.34087110584369E-05,1.17426234282902E-05,0,0,0
-2.31900958169717E-05,1.50057921928237E-05,0,0,0
-2.12666291190544E-05,1.50929954543244E-05,0,0,0
-2.24047416850226E-05,1.41921245813137E-05,0,0,0
-2.32331130973762E-05,1.19224550871877E-05,0,0,0
-2.38989341596607E-05,9.3923363237991E-06,0,0,0
-2.19269222725416E-05,7.40025734558003E-06,0,0,0
-2.16777862078743E-05,7.27180031390162E-06,0,0,0
-2.16753032873385E-05,6.53830602459493E-06,0,0,0
-2.15865420614136E-05,5.92788910580566E-06,0,0,0
-1.64898629009258E-05,6.43127668809029E-06,0,0,0
-2.31382891797693E-05,1.27449966385029E-05,0,0,0
-1.84888122021221E-05,1.50917967403075E-05,0,0,0
-2.40201025007991E-05,1.85217286343686E-05,0,0,0
-2.11466740438482E-05,1.97248755284818E-05,0,0,0
-2.49411550612422E-05,2.0023337128805E-05,0,0,0
-2.3841437723604E-05,1.37493798320065E-05,0,0,0
-2.48369669861859E-05,6.26260953140445E-06,0,0,0
-2.46973413595697E-05,4.30980799137615E-06,0,0,0
-2.51284927799134E-05,8.93217566044768E-06,0,0,0
-2.59132248174865E-05,1.4227261999622E-05,0,0,0
-2.66752922470914E-05,1.73634871316608E-05,0,0,0
-2.87492857751204E-05,1.83647807716625E-05,0,0,0
-2.75398269877769E-05,1.63199183589313E-05,0,0,0
-2.73172208835604E-05,1.45093072205782E-05,0,0,0
-2.65332437265897E-05,1.34189695017994E-05,0,0,0
-2.84330380964093E-05,1.2768859960488E-05,0,0,0
-2.75577858701581E-05,1.18057987492648E-05,0,0,0
-2.68338699243031E-05,1.25651777125313E-05,0,0,0
-2.4381171897403E-05,1.40574957185891E-05,0,0,0
-2.46186464210041E-05,1.5507202988374E-05,0,0,0
-2.46238814725075E-05,1.53309792949585E-05,0,0,0
-2.55974318861263E-05,1.53567089000717E-05,0,0,0
-2.55096183536807E-05,1.63678141689161E-05,0,0,0
-2.47812640736811E-05,1.82620660780231E-05,0,0,0
-2.41010438912781E-05,1.67731304827612E-05,0,0,0
-2.34462440857897E-05,1.39436906465562E-05,0,0,0
-1.77015463123098E-05,1.00537781690946E-05,0,0,0
-2.58138352364767E-05,1.25006035887054E-05,0,0,0
-2.08863166335505E-05,6.06938738201279E-06,0,0,0
-2.57486208283808E-05,7.08738843968604E-06,0,0,0
-2.21095287997741E-05,5.71075088373618E-06,0,0,0
-2.45524915953865E-05,1.01003024610691E-05,0,0,0
-2.28914541366976E-05,8.83352458913578E-06,0,0,0
-2.55232826020801E-05,5.16543059347896E-06,0,0,0
-2.61558852798771E-05,1.2171342405054E-06,0,0,0
-2.54401566053275E-05,2.14982151192089E-06,0,0,0
-2.40610970649868E-05,7.35034700483084E-06,0,0,0
-2.30779660341796E-05,1.33199073388823E-05,0,0,0
-2.44621933234157E-05,1.57034264702816E-05,0,0,0
-2.43252397922333E-05,1.24348262033891E-05,0,0,0
-2.55251270573353E-05,1.1433201507316E-05,0,0,0
-2.38217962760245E-05,1.20413797048968E-05,0,0,0
-2.31778758461587E-05,1.26618606373086E-05,0,0,0
-2.11425140150823E-05,9.47195621847641E-06,0,0,0
-2.26575812121155E-05,6.7657488216355E-06,0,0,0
-2.34031813306501E-05,3.749947381948E-06,0,0,0
-2.57230985880597E-05,3.86983219868853E-06,0,0,0
-2.67437353613786E-05,4.9852369556902E-06,0,0,0
-2.73394452960929E-05,6.9120778789511E-06,0,0,0
-2.65478010987863E-05,9.18145906325663E-06,0,0,0
-2.6360738047515E-05,1.13629384941305E-05,0,0,0
-2.5437242584303E-05,1.30479793369886E-05,0,0,0
-2.50852426688652E-05,1.56398509716382E-05,0,0,0
-2.08303063118365E-05,1.37439674290363E-05,0,0,0
-2.98706236208091E-05,1.79725539055653E-05,0,0,0
-2.20623278437415E-05,8.80534025782254E-06,0,0,0
-2.63378042291151E-05,4.52892436442198E-06,0,0,0
-2.16026710404549E-05,-3.83084898203379E-06,0,0,0
-2.46845829678932E-05,1.0212046390734E-06,0,0,0
-2.3897335267975E-05,3.04598825096036E-06,0,0,0
-2.65897924691672E-05,3.8212656363612E-06,0,0,0
-2.61950335698202E-05,2.98514805763261E-06,0,0,0
-2.49630975304171E-05,2.32092088481295E-06,0,0,0
-2.36306768783834E-05,2.33265927818138E-06,0,0,0
-2.15094896702794E-05,3.58651732312865E-06,0,0,0
-2.15681229747133E-05,5.99482382312999E-06,0,0,0
-2.09220888791606E-05,6.33223635304603E-06,0,0,0
-2.33811024372699E-05,9.01403200259665E-06,0,0,0
-2.31647936743684E-05,1.13900678115897E-05,0,0,0
-2.43655867961934E-05,1.48496901601902E-05,0,0,0
-2.35956777032698E-05,1.53359069372527E-05,0,0,0
-2.51093970291549E-05,1.66456757142441E-05,0,0,0
-2.43252125073923E-05,1.56205987877911E-05,0,0,0
-2.46332401729887E-05,1.3447403034661E-05,0,0,0
-2.47625321208034E-05,1.04775217550923E-05,0,0,0
-2.70445652859053E-05,1.10468818093068E-05,0,0,0
-2.70168839051621E-05,1.31128763314337E-05,0,0,0
-2.57287883869139E-05,1.49018587762839E-05,0,0,0
-2.44776620093035E-05,1.27323201013496E-05,0,0,0
-2.47805437538773E-05,8.8650876932661E-06,0,0,0
-2.00121485249838E-05,5.33763477506E-06,0,0,0
-2.7528585633263E-05,6.7305845732335E-06,0,0,0
-1.99621281353757E-05,5.64577976547298E-06,0,0,0
-2.37963631661842E-05,8.83782377059106E-06,0,0,0
-1.69312752404949E-05,9.07916364667472E-06,0,0,0
-1.87541027116822E-05,1.06779116322286E-05,0,0,0
-1.7412196029909E-05,9.81289394985652E-06,0,0,0
-1.96805085579399E-05,1.05505041574361E-05,0,0,0
-1.92739298654487E-05,9.95723075902788E-06,0,0,0
-2.02600931515917E-05,8.29738564789295E-06,0,0,0
-2.11599326576106E-05,8.21083267510403E-06,0,0,0
-2.02614482986974E-05,9.07261255633784E-06,0,0,0
-2.0339246475487E-05,7.46967771192431E-06,0,0,0
-1.91798462765291E-05,3.72501904166711E-06,0,0,0
-2.14668143598828E-05,3.89373008147231E-06,0,0,0
-2.15177424252033E-05,6.36522054264788E-06,0,0,0
-2.34343497140799E-05,9.2540358309634E-06,0,0,0
-2.29827237490099E-05,1.01233435998438E-05,0,0,0
-2.48225424002158E-05,1.03822694654809E-05,0,0,0
-2.47227635554736E-05,9.01955354493111E-06,0,0,0
-2.5058629034902E-05,9.15977125259815E-06,0,0,0
-2.34378730965545E-05,1.08359636215027E-05,0,0,0
-2.44409020524472E-05,1.21024049803964E-05,0,0,0
-2.64203754340997E-05,1.04670943983365E-05,0,0,0
-2.84359812212642E-05,8.77305046742549E-06,0,0,0
-2.78608913504286E-05,8.96285473572789E-06,0,0,0
-2.73662135441555E-05,8.53619803820038E-06,0,0,0
-2.24795894609997E-05,6.6910574787471E-06,0,0,0
-3.13876698783133E-05,1.07766873043147E-05,0,0,0
-2.23236238525715E-05,1.02953135865391E-05,0,0,0
-2.73030436801491E-05,1.05913877632702E-05,0,0,0
-2.26692700380227E-05,7.84336589276791E-06,0,0,0
-2.57115989370504E-05,1.1457467735454E-05,0,0,0
-2.37893182202242E-05,1.33136518343235E-05,0,0,0
-2.5156099582091E-05,1.29825548356166E-05,0,0,0
-2.40046356339008E-05,1.12012103272718E-05,0,0,0
-2.46556282945676E-05,1.04974642454181E-05,0,0,0
-2.58408090303419E-05,1.09551801870111E-05,0,0,0
-2.41791822190862E-05,1.16650471682078E-05,0,0,0
-2.36338782997336E-05,1.26964851006051E-05,0,0,0
-2.25065614358755E-05,1.25850710901432E-05,0,0,0
-2.38665943470551E-05,1.44908090078388E-05,0,0,0
-2.18446475628298E-05,1.6376387065975E-05,0,0,0
-2.27916425501462E-05,1.76603243744466E-05,0,0,0
-2.2185493435245E-05,1.58992788783507E-05,0,0,0
-2.38565535255475E-05,1.29964382722392E-05,0,0,0
-2.3885228074505E-05,9.75530201685615E-06,0,0,0
-2.48077849391848E-05,9.97622828435851E-06,0,0,0
-2.28253884415608E-05,1.36465750983916E-05,0,0,0
-2.188508551626E-05,1.75030836544465E-05,0,0,0
-2.07818520721048E-05,1.69989234564127E-05,0,0,0
-2.08114815904992E-05,1.54113822645741E-05,0,0,0
-2.0908351871185E-05,1.65580586326541E-05,0,0,0
-2.15833915717667E-05,1.87367186299525E-05,0,0,0
-1.70421626535244E-05,1.60433373821434E-05,0,0,0
-2.37723324971739E-05,2.19357734749792E-05,0,0,0
-1.86438246601028E-05,1.6173666153918E-05,0,0,0
-2.40967019635718E-05,2.14292122109327E-05,0,0,0
-2.02938317670487E-05,1.69366448972141E-05,0,0,0
-2.23383249249309E-05,1.87278255907586E-05,0,0,0
-2.07669963856461E-05,1.63952499860898E-05,0,0,0
-2.30927089432953E-05,1.549587068439E-05,0,0,0
-2.44225429923972E-05,1.64579560077982E-05,0,0,0
-2.67808954959037E-05,1.84649779839674E-05,0,0,0
-2.89190465991851E-05,1.75826680788305E-05,0,0,0
-2.85276728391182E-05,1.53566779772518E-05,0,0,0
-2.81170378002571E-05,1.54569152073236E-05,0,0,0
-2.52331683441298E-05,1.36096341520897E-05,0,0,0
-2.51102010224713E-05,1.41076252475614E-05,0,0,0
-2.50976991083007E-05,1.37983752210857E-05,0,0,0
-2.74534431810025E-05,1.38186505864724E-05,0,0,0
-2.71402841462987E-05,1.07526011561276E-05,0,0,0
-2.77866838587215E-05,1.01467567219515E-05,0,0,0
-2.74351441476028E-05,9.81718949333299E-06,0,0,0
-2.96378038910916E-05,1.10260543806362E-05,0,0,0
-3.02071930491365E-05,1.0186431609327E-05,0,0,0
-3.01141390082194E-05,9.23783773032483E-06,0,0,0
-2.89598228846444E-05,8.80377319845138E-06,0,0,0
-2.97968872473575E-05,1.15453967737267E-05,0,0,0
-3.05351131828502E-05,1.48036324389977E-05,0,0,0
-2.96302114293212E-05,1.59113442350645E-05,0,0,0
-2.32732672884595E-05,1.25355136333383E-05,0,0,0
-3.25729051837698E-05,1.45040539791808E-05,0,0,0
-2.36903415498091E-05,6.02638738200767E-06,0,0,0
-2.90614752884721E-05,7.52319419916603E-06,0,0,0
-2.36539417528547E-05,4.26197993874666E-06,0,0,0
-2.56899074884132E-05,8.67372000357136E-06,0,0,0
-2.06808144866955E-05,9.97270217339974E-06,0,0,0
-2.08489309443394E-05,1.21618359116837E-05,0,0,0
-2.15404415939702E-05,1.3671834494744E-05,0,0,0
-2.30962195928441E-05,1.57619851961499E-05,0,0,0
-2.308073999302E-05,1.58980183186941E-05,0,0,0
-2.19391058635665E-05,1.24628350022249E-05,0,0,0
-2.3984943254618E-05,1.08003323475714E-05,0,0,0
-2.36430569202639E-05,9.03304862731602E-06,0,0,0
-2.48237665800843E-05,7.21656851965236E-06,0,0,0
-2.39434102695668E-05,1.8925151152871E-06,0,0,0
-2.604041583254E-05,-2.88413559701439E-07,0,0,0
-2.51664059760515E-05,1.46452990179569E-07,0,0,0
-2.62140783888754E-05,4.07537709179451E-06,0,0,0
-2.49416516453493E-05,6.32363071417785E-06,0,0,0
-2.60425968008349E-05,7.63290427130414E-06,0,0,0
-2.70651416940382E-05,6.48026434646454E-06,0,0,0
-2.97809674520977E-05,7.25623112884932E-06,0,0,0
-2.97442165901884E-05,8.74241140991217E-06,0,0,0
-2.90526349999709E-05,8.75618297868641E-06,0,0,0
-2.80347849184182E-05,6.34990328762797E-06,0,0,0
-2.64915761363227E-05,3.09058600578282E-06,0,0,0
-1.96162854990689E-05,2.76279251920641E-06,0,0,0
-2.7462090656627E-05,6.85544955558726E-06,0,0,0
-2.10535599762807E-05,1.01619116321672E-05,0,0,0
-2.70315522357123E-05,1.06230218079872E-05,0,0,0
-2.32585443882272E-05,8.68904498929624E-06,0,0,0
-2.50036155193811E-05,9.21311038837302E-06,0,0,0
-2.15696982195368E-05,7.39792403692263E-06,0,0,0
-2.31554095080355E-05,2.90184812001826E-06,0,0,0
-2.34319159062579E-05,1.09314339624689E-06,0,0,0
-2.44202219619183E-05,2.13363387047139E-06,0,0,0
-2.41514662775444E-05,5.649122158502E-06,0,0,0
-2.14281080843648E-05,1.13056066766148E-05,0,0,0
-2.09763911698246E-05,1.42379421959049E-05,0,0,0
-1.9772507585003E-05,1.17696263259859E-05,0,0,0
-2.1397561795311E-05,6.49597131996416E-06,0,0,0
-2.15443360502832E-05,1.79200389993639E-06,0,0,0
-2.39592809521127E-05,1.42672172387392E-06,0,0,0
-2.35832048929296E-05,4.14455143982195E-06,0,0,0
-2.40216631937074E-05,6.65887137074606E-06,0,0,0
-2.29042761930032E-05,8.74104080139659E-06,0,0,0
-2.46411855187034E-05,1.23734134831466E-05,0,0,0
-2.41507532336982E-05,1.52391694427934E-05,0,0,0
-2.31697667913977E-05,1.51905478560366E-05,0,0,0
-2.17054603126599E-05,1.16826258818037E-05,0,0,0
-2.18795776163461E-05,8.53967958391877E-06,0,0,0
-2.1731784727308E-05,9.33710725803394E-06,0,0,0
-2.06550848815823E-05,9.45549163589021E-06,0,0,0
-1.66370427905349E-05,5.43130136065884E-06,0,0,0
-2.31857375183608E-05,7.49402488509077E-06,0,0,0
-1.66910831467249E-05,5.24708002558327E-06,0,0,0
-2.03008930839133E-05,3.16169825964607E-06,0,0,0
-1.64074899657862E-05,-1.94502922568063E-06,0,0,0
-1.85608405445237E-05,6.25877646598383E-07,0,0,0
-1.72383806784637E-05,3.88554190067225E-06,0,0,0
-1.83030915650306E-05,6.4545724853815E-06,0,0,0
-1.76573594217189E-05,7.96758558863075E-06,0,0,0
-1.77151050593238E-05,1.0666617527022E-05,0,0,0
-1.80293900484685E-05,1.10965183921508E-05,0,0,0
-1.71958599821664E-05,9.97239112621173E-06,0,0,0
-1.88517369679175E-05,8.19005435914733E-06,0,0,0
-1.97600638784934E-05,5.89934188610641E-06,0,0,0
-2.17555116250878E-05,6.52047083349316E-06,0,0,0
-2.12949817068875E-05,7.25808740753564E-06,0,0,0
-2.22142043639906E-05,9.16806402528891E-06,0,0,0
-2.15552990994183E-05,1.07060341179022E-05,0,0,0
-2.20562651520595E-05,1.14824815682368E-05,0,0,0
-2.0282284822315E-05,8.66542904987E-06,0,0,0
-2.01969669433311E-05,5.72460385228624E-06,0,0,0
-2.09035042644246E-05,6.4099149312824E-06,0,0,0
-2.37880449276417E-05,1.0900012057391E-05,0,0,0
-2.60400556726381E-05,1.21996927191503E-05,0,0,0
-2.67917130258866E-05,9.36190645006718E-06,0,0,0
-2.54444494203199E-05,5.63312960366602E-06,0,0,0
-2.38871489273151E-05,9.09596380438416E-08,0,0,0
-1.89389738807222E-05,-8.55175403557951E-06,0,0,0
-2.70150467258645E-05,-1.31294982566033E-05,0,0,0
-2.15928939724108E-05,-5.17623766427278E-06,0,0,0
-2.74589328910224E-05,-7.42310021450976E-07,0,0,0
-2.27724849537481E-05,1.66381300914509E-06,0,0,0
-2.3915825295262E-05,9.22730691854667E-07,0,0,0
-2.19530538743129E-05,3.69440476788441E-06,0,0,0
-2.36993546423037E-05,8.89809052750934E-06,0,0,0
-2.35275037994143E-05,1.43312590807909E-05,0,0,0
-2.47236021095887E-05,1.55149900820106E-05,0,0,0
-2.61044551734813E-05,1.21412031148793E-05,0,0,0
-2.64940554188797E-05,1.06733277789317E-05,0,0,0
-2.73540554189822E-05,1.17764593596803E-05,0,0,0
-2.56350685958751E-05,1.35801883516251E-05,0,0,0
-2.68444273388013E-05,1.45088524732273E-05,0,0,0
-2.73708956228802E-05,1.72108539118199E-05,0,0,0
-2.99320145131787E-05,2.01842158276122E-05,0,0,0
-2.86551276076352E-05,2.21843856706982E-05,0,0,0
-2.8627098799916E-05,2.15438631130382E-05,0,0,0
-2.74386820819927E-05,2.1198717149673E-05,0,0,0
-2.85006299236557E-05,2.03117288037902E-05,0,0,0
-2.88514365820447E-05,1.89947277249303E-05,0,0,0
-2.98720824503107E-05,1.81003688339842E-05,0,0,0
-2.96402704407228E-05,1.70374787558103E-05,0,0,0
-3.01792697428027E-05,1.42577482620254E-05,0,0,0
-3.12543998006731E-05,1.36355092763552E-05,0,0,0
-3.20501894748304E-05,1.58093498612288E-05,0,0,0
-2.65461676463019E-05,1.28900574054569E-05,0,0,0
-3.74734299839474E-05,1.75073164427886E-05,0,0,0
-2.74932554020779E-05,1.3518371815735E-05,0,0,0
-3.36912053171545E-05,1.87245896086097E-05,0,0,0
-2.73421046586009E-05,1.46788033816847E-05,0,0,0
-2.92372005787911E-05,1.52712091221474E-05,0,0,0
-2.50351440627128E-05,1.22764613479376E-05,0,0,0
-2.62373778241454E-05,1.19179621833609E-05,0,0,0
-2.56881630775752E-05,1.24548678286374E-05,0,0,0
-2.5376368284924E-05,1.15597558760783E-05,0,0,0
-2.46088729909388E-05,9.04174703464378E-06,0,0,0
-2.24367322516628E-05,6.86689918438788E-06,0,0,0
-2.29834458878031E-05,7.72888779465575E-06,0,0,0
-2.25492658501025E-05,9.05934393813368E-06,0,0,0
-2.50965276791248E-05,1.20888753372128E-05,0,0,0
-2.47643674811115E-05,1.21162329378421E-05,0,0,0
-2.68979456450325E-05,1.31574261104106E-05,0,0,0
-2.45527990045957E-05,1.46411493915366E-05,0,0,0
-2.33457194553921E-05,1.7841915905592E-05,0,0,0
-2.07874381885631E-05,1.7331263734377E-05,0,0,0
-2.22317048610421E-05,1.59600476763444E-05,0,0,0
-2.22622875298839E-05,1.46163029057789E-05,0,0,0
-2.29661873163423E-05,1.55569796334021E-05,0,0,0
-2.23805400310084E-05,1.72056879819138E-05,0,0,0
-2.22381768253399E-05,1.95447464648169E-05,0,0,0
-2.08290166483494E-05,2.06368167710025E-05,0,0,0
-1.96995479200268E-05,2.01823986571981E-05,0,0,0
-1.67915859492496E-05,1.53761266119545E-05,0,0,0
-2.45444807660533E-05,1.79285343619995E-05,0,0,0
-1.90803657460492E-05,7.64564629207598E-06,0,0,0
-2.25702933676075E-05,1.09848015199532E-05,0,0,0
-1.96352011698764E-05,9.20264938031323E-06,0,0,0
-2.18202876567375E-05,1.63262920978013E-05,0,0,0
-1.99477544811089E-05,1.85389999387553E-05,0,0,0
-2.10418402275536E-05,1.95703269127989E-05,0,0,0
-2.08795154321706E-05,1.96280525415204E-05,0,0,0
-2.18515961023513E-05,2.08500860026106E-05,0,0,0
-2.27043528866488E-05,2.15156433114316E-05,0,0,0
-2.2917423848412E-05,2.02825740416301E-05,0,0,0
-2.47668540396262E-05,1.8648130208021E-05,0,0,0
-2.44951497734291E-05,1.49039142343099E-05,0,0,0
-2.47808457061183E-05,1.42954950206331E-05,0,0,0
-2.27639175136574E-05,1.28555029732524E-05,0,0,0
-2.34434210142354E-05,1.23201461974531E-05,0,0,0
-2.34012477449141E-05,1.04046976048267E-05,0,0,0
-2.45318406086881E-05,1.11435138023808E-05,0,0,0
-2.30654059123481E-05,1.09393067759811E-05,0,0,0
-2.24263822019566E-05,1.18774696602486E-05,0,0,0
-2.09230474865763E-05,1.16471610454028E-05,0,0,0
-2.08701567316893E-05,1.3658751413459E-05,0,0,0
-2.01184247998754E-05,1.58808798005339E-05,0,0,0
-2.01634866243694E-05,1.79533690243261E-05,0,0,0
-2.04568350454792E-05,1.84533309948165E-05,0,0,0
-2.03097879420966E-05,1.82867843250278E-05,0,0,0
-1.56636433530366E-05,1.51262847793987E-05,0,0,0
-2.25120693357894E-05,2.22553098865319E-05,0,0,0
-1.70936218637507E-05,1.79096823558211E-05,0,0,0
-2.07891043828567E-05,2.14649953704793E-05,0,0,0
-1.82228814082919E-05,1.62299293151591E-05,0,0,0
-2.1498804926523E-05,1.63599070219789E-05,0,0,0
-1.97942263184814E-05,1.39275334731792E-05,0,0,0
-1.94074382307008E-05,1.24736216093879E-05,0,0,0
-1.85757871804526E-05,9.83543486654526E-06,0,0,0
-1.93454434338491E-05,6.48628747512703E-06,0,0,0
-1.97145873244153E-05,3.46911087945045E-06,0,0,0
-1.98444704437861E-05,3.74166552319366E-06,0,0,0
-2.18613567994908E-05,6.27534427621868E-06,0,0,0
-2.17761753447121E-05,5.97950293013128E-06,0,0,0
-2.22878152271733E-05,8.50695050758077E-06,0,0,0
-2.18966415559407E-05,1.13105570562766E-05,0,0,0
-2.42306487052701E-05,1.42543140100315E-05,0,0,0
-2.43891117861494E-05,1.33746179926675E-05,0,0,0
-2.52936497417977E-05,1.36481166919111E-05,0,0,0
-2.44414732151199E-05,1.35440322992508E-05,0,0,0
-2.45487499341834E-05,1.32873146867496E-05,0,0,0
-2.36546620726585E-05,9.31391696212813E-06,0,0,0
-2.35080242418917E-05,5.33082129550166E-06,0,0,0
-2.3672635506955E-05,2.86384397440997E-06,0,0,0
-2.48076321440749E-05,1.52098118633148E-06,0,0,0
-2.51981800829526E-05,1.40920485591778E-06,0,0,0
-2.51293004112085E-05,4.08704818255501E-06,0,0,0
-1.96073106053518E-05,5.07533559357398E-06,0,0,0
-2.79959876934299E-05,8.30621138447896E-06,0,0,0
-2.23164443013957E-05,9.36227843340021E-06,0,0,0
-2.85123605863191E-05,1.24063162729726E-05,0,0,0
-2.45407318288926E-05,1.1816157893918E-05,0,0,0
-2.81475331576075E-05,1.45391386467963E-05,0,0,0
-2.786070399452E-05,1.67402140505146E-05,0,0,0
-3.03987399092875E-05,1.59890951181296E-05,0,0,0
-3.04530094581423E-05,1.1901798643521E-05,0,0,0
-2.97259557555662E-05,7.08438392393873E-06,0,0,0
-2.82784840237582E-05,3.74418277715449E-06,0,0,0
-2.68181775027188E-05,1.44162152082572E-06,0,0,0
-2.74241410807008E-05,-1.61720322466863E-07,0,0,0
-2.58912805293221E-05,-1.28423073419981E-06,0,0,0
-2.70223499683198E-05,-6.65408322220173E-07,0,0,0
-2.68005842372077E-05,-2.4668432274666E-07,0,0,0
-2.77793787972769E-05,-4.21006696171844E-08,0,0,0
-2.56220646406291E-05,-1.30162129607925E-06,0,0,0
-2.59348107647384E-05,-2.80903873317584E-06,0,0,0
-2.52129375439836E-05,-3.50207483279519E-06,0,0,0
-2.52695244853385E-05,-2.47988987212011E-06,0,0,0
-2.39615656028036E-05,-1.29013733385364E-06,0,0,0
-2.47985844907817E-05,-1.79544286993405E-07,0,0,0
-2.51519486482721E-05,-1.30091723349324E-06,0,0,0
-2.54777296504471E-05,-3.22086566484359E-06,0,0,0
-2.39901146414923E-05,-2.29508827942482E-06,0,0,0
-2.30687619477976E-05,1.17144224986987E-06,0,0,0
-1.82515796041116E-05,-1.34935305595718E-07,0,0,0
-2.44769016717328E-05,-2.42707346842508E-06,0,0,0
-1.69119539350504E-05,-2.33268920624141E-07,0,0,0
-2.20566907955799E-05,7.09365622242331E-06,0,0,0
-1.78089103428647E-05,1.12865054688882E-05,0,0,0
-1.98350862774532E-05,1.25900805869605E-05,0,0,0
-1.83523807208985E-05,7.78327103034826E-06,0,0,0
-1.9939407138736E-05,1.14092154035461E-06,0,0,0
-1.98811085283523E-05,-5.29049373199086E-07,0,0,0
-2.00910089915851E-05,2.86322233478131E-06,0,0,0
-1.96529890672537E-05,6.49965340926428E-06,0,0,0
-1.7887743524625E-05,9.50013145484263E-06,0,0,0
-1.69615414051805E-05,1.18449861474801E-05,0,0,0
-1.47552855196409E-05,1.32753566504107E-05,0,0,0
-1.59718256327324E-05,1.55624111357611E-05,0,0,0
-1.61032039613929E-05,1.66139543580357E-05,0,0,0
-1.83288666448789E-05,1.49435863932013E-05,0,0,0
-1.91385879588779E-05,1.07234618553775E-05,0,0,0
-2.21074060391402E-05,7.81603012001142E-06,0,0,0
-2.24502127821324E-05,8.12742837297264E-06,0,0,0
-2.22900816879701E-05,9.73293117567664E-06,0,0,0
-1.95364209503168E-05,1.05795015770127E-05,0,0,0
-1.96649070858257E-05,1.22341762107681E-05,0,0,0
-2.11204605875537E-05,1.58231232489925E-05,0,0,0
-2.21848658839008E-05,2.06659533432685E-05,0,0,0
-2.28562457778025E-05,2.46716044784989E-05,0,0,0
-2.396041782049E-05,2.52746558544459E-05,0,0,0
-1.92049938050332E-05,1.64302800840233E-05,0,0,0
-2.75410948233912E-05,2.030550786003E-05,0,0,0
-2.18172353925183E-05,1.18257976282621E-05,0,0,0
-2.74862322839908E-05,1.37966781039722E-05,0,0,0
-2.48626511165639E-05,6.19878392171813E-06,0,0,0
-2.79100586340064E-05,9.04392618394922E-06,0,0,0
-2.40238678088645E-05,8.61477292346535E-06,0,0,0
-2.40661738644121E-05,9.98362429527333E-06,0,0,0
-2.27690507017542E-05,8.98749567568302E-06,0,0,0
-2.32097390835406E-05,8.41943528939737E-06,0,0,0
-2.4395230866503E-05,7.9284700404969E-06,0,0,0
-2.3123133360059E-05,8.59018109622411E-06,0,0,0
-2.29727847909089E-05,1.00069546533632E-05,0,0,0
-2.21590980800102E-05,8.04856972536072E-06,0,0,0
-2.33673199545592E-05,8.93980177352205E-06,0,0,0
-2.12031791306799E-05,9.9308244898566E-06,0,0,0
-2.12057675526012E-05,1.21872453746619E-05,0,0,0
-2.03294748644112E-05,9.99912845145445E-06,0,0,0
-2.20142410398694E-05,6.673490133835E-06,0,0,0
-2.17156648432137E-05,-1.54584824940684E-06,0,0,0
-2.19077246583765E-05,-3.38063114213583E-06,0,0,0
-2.07612556550885E-05,3.69658619092661E-06,0,0,0
-2.23343504330842E-05,1.22566261779866E-05,0,0,0
-2.3839458663133E-05,1.25768974612583E-05,0,0,0
-2.60014548985055E-05,1.00316719908733E-05,0,0,0
-2.70734399236972E-05,7.36053289074334E-06,0,0,0
-2.60523647739319E-05,7.21060996511369E-06,0,0,0
-1.94783697224921E-05,9.16900535230525E-06,0,0,0
-2.753301669145E-05,1.65983183251228E-05,0,0,0
-2.21725094888825E-05,1.61619154823711E-05,0,0,0
-2.76181999652181E-05,1.39995927384007E-05,0,0,0
-2.3570752091473E-05,5.28252712683752E-06,0,0,0
-2.81101165455766E-05,2.27151417675486E-06,0,0,0
-2.67952491412871E-05,4.05254149882239E-06,0,0,0
-2.86719714495121E-05,1.03969450719887E-05,0,0,0
-2.82983510260237E-05,1.57725025928812E-05,0,0,0
-2.83758599834982E-05,1.60510462592356E-05,0,0,0
-2.84428169834428E-05,1.36489061333123E-05,0,0,0
-2.73101795755792E-05,1.38328850880498E-05,0,0,0
-2.79187097476097E-05,1.68685837707017E-05,0,0,0
-2.7053754820372E-05,1.74759989022277E-05,0,0,0
-2.89251165668247E-05,1.68393562489655E-05,0,0,0
-2.93639386654831E-05,1.42358003358822E-05,0,0,0
-3.17494159389753E-05,1.12492871267023E-05,0,0,0
-3.07776899717283E-05,7.93543767940719E-06,0,0,0
-3.14271674142219E-05,7.59446265874431E-06,0,0,0
-3.14435674226843E-05,8.81915730133187E-06,0,0,0
-3.41405320796184E-05,1.05134568002541E-05,0,0,0
-3.42508610629011E-05,9.4188089860836E-06,0,0,0
-3.45570369972847E-05,5.44875092600705E-06,0,0,0
-3.45523149007931E-05,1.79091932750453E-06,0,0,0
-3.50834779965226E-05,1.8833364947568E-06,0,0,0
-3.38206664309837E-05,3.4665929433686E-06,0,0,0
-3.0799230444245E-05,4.74526950711152E-06,0,0,0
-2.24728955799947E-05,4.50571087640128E-06,0,0,0
-3.23171661875676E-05,6.63659830024699E-06,0,0,0
-2.65595190285239E-05,7.28537497707293E-06,0,0,0
-3.27014895447064E-05,1.16727014756179E-05,0,0,0
-2.62528283201391E-05,1.27769044411252E-05,0,0,0
-2.84563775494462E-05,1.51677359099267E-05,0,0,0
-2.63344936684007E-05,1.61138796102023E-05,0,0,0
-2.85392088699155E-05,1.81345476448769E-05,0,0,0
-2.71969402092509E-05,2.06176191568375E-05,0,0,0
-2.65794915321749E-05,2.13810690183891E-05,0,0,0
-2.5757641196833E-05,1.99671394511824E-05,0,0,0
-2.40425433730707E-05,1.84384371095803E-05,0,0,0
-2.50570392381633E-05,1.78864102053922E-05,0,0,0
-2.33354821830289E-05,1.66377940331586E-05,0,0,0
-2.34112594625913E-05,1.75377444975311E-05,0,0,0
-2.16638309211703E-05,1.85073768079747E-05,0,0,0
-2.28492262976943E-05,1.56800288095837E-05,0,0,0
-2.19673784158658E-05,9.11700863071019E-06,0,0,0
-2.46542331296951E-05,6.15555836702697E-06,0,0,0
-2.47446241701255E-05,7.60472312322236E-06,0,0,0
-2.51141318585724E-05,1.00243669294287E-05,0,0,0
-2.37208623730112E-05,1.05282369986526E-05,0,0,0
-2.40892950387206E-05,1.02776430139784E-05,0,0,0
-2.31817975873128E-05,8.52255834615789E-06,0,0,0
-2.35963507293491E-05,7.53963104216382E-06,0,0,0
-2.37047242990229E-05,9.7763104349724E-06,0,0,0
-2.26964275498176E-05,1.26793684103177E-05,0,0,0
-1.75818313437048E-05,1.16936907943455E-05,0,0,0
-2.38924385485007E-05,1.38926770887338E-05,0,0,0
-1.76444500539219E-05,4.99699854117353E-06,0,0,0
-2.39904093177756E-05,6.57142027193913E-06,0,0,0
-2.04411353479372E-05,6.95462676958414E-06,0,0,0
-2.21306418097811E-05,1.33223356897361E-05,0,0,0
-2.07690518436721E-05,1.44950490721385E-05,0,0,0
-2.20419169636443E-05,1.22478377306834E-05,0,0,0
-2.15164309338434E-05,7.21218793842127E-06,0,0,0
-2.16784137592185E-05,5.12327096657828E-06,0,0,0
-2.24772265937645E-05,6.68735901854234E-06,0,0,0
-2.274600774399E-05,1.07369314719108E-05,0,0,0
-2.41384259425104E-05,1.38117238748237E-05,0,0,0
-2.36843497987138E-05,1.41990567499306E-05,0,0,0
-2.50138618866913E-05,1.68381302501075E-05,0,0,0
-2.44104576268001E-05,1.84208220161963E-05,0,0,0
-2.50869870797032E-05,2.01058446691604E-05,0,0,0
-2.34570416068891E-05,1.95743668882642E-05,0,0,0
-2.44995062530506E-05,1.87800869753119E-05,0,0,0
-2.48592514253687E-05,1.54795689013554E-05,0,0,0
-2.63309266301803E-05,1.3895903066441E-05,0,0,0
-2.57886458712164E-05,1.2897080523544E-05,0,0,0
-2.45068804360926E-05,1.29511872728472E-05,0,0,0
-2.18516670429381E-05,1.22324008771102E-05,0,0,0
-2.08083929464919E-05,1.32917894006823E-05,0,0,0
-2.08590990951052E-05,1.41075915962574E-05,0,0,0
-2.10392317967489E-05,1.51062304212246E-05,0,0,0
-1.67613252415322E-05,1.10277405838133E-05,0,0,0
-2.47084881266346E-05,1.47567498061107E-05,0,0,0
-1.99967762455344E-05,9.46709042182192E-06,0,0,0
-2.43716604018118E-05,1.15228340291651E-05,0,0,0
-2.0857574781985E-05,9.30162150325486E-06,0,0,0
-2.37837120948825E-05,1.26029453895171E-05,0,0,0
-2.3159567717812E-05,1.31290025819908E-05,0,0,0
-2.37323929468403E-05,1.39735084303538E-05,0,0,0
-2.29170018428704E-05,1.13709011202445E-05,0,0,0
-2.26058673433727E-05,5.32709191247704E-06,0,0,0
-2.13351177080767E-05,-6.02378236180812E-07,0,0,0
-1.91247982002096E-05,1.97717980654488E-07,0,0,0
-1.83547526830807E-05,8.13203405414242E-06,0,0,0
-1.68424248840893E-05,1.41014716064092E-05,0,0,0
-1.82432413566858E-05,1.69716840900946E-05,0,0,0
-1.95508091564989E-05,1.54704503074754E-05,0,0,0
-2.17004271689802E-05,1.54721437866101E-05,0,0,0
-2.01277289306745E-05,1.60071285790764E-05,0,0,0
-2.04027637664694E-05,1.78255795617588E-05,0,0,0
-2.01861203095177E-05,1.83487372851232E-05,0,0,0
-2.13552666536998E-05,1.94469739653869E-05,0,0,0
-2.08269466384081E-05,1.95749016711488E-05,0,0,0
-2.04842272069072E-05,1.94046115211677E-05,0,0,0
-1.99496353161521E-05,1.68798942468129E-05,0,0,0
-2.08082492463291E-05,1.46116290125065E-05,0,0,0
-2.12062150239944E-05,1.32744526126771E-05,0,0,0
-2.18166496779304E-05,1.17349763968377E-05,0,0,0
-1.86517172551248E-05,9.27110068005277E-06,0,0,0
-2.70373966486659E-05,1.32769473566441E-05,0,0,0
-1.94516887859209E-05,9.72765155893285E-06,0,0,0
-2.21493683056906E-05,1.11366534838453E-05,0,0,0
-1.76607754838187E-05,1.05977214843733E-05,0,0,0
-1.91049675777322E-05,1.58895181812113E-05,0,0,0
-1.62038613780169E-05,1.75231161847478E-05,0,0,0
-1.71999872691231E-05,1.84580403583823E-05,0,0,0
-1.82864278031047E-05,1.921793409565E-05,0,0,0
-2.04202551685739E-05,1.96346154552884E-05,0,0,0
-2.09219269891037E-05,1.67655198310968E-05,0,0,0
-1.94799977180082E-05,1.14297608888592E-05,0,0,0
-1.97880071937107E-05,7.57964107833686E-06,0,0,0
-1.9930816051783E-05,6.0147567637614E-06,0,0,0
-2.23745300900191E-05,9.01994371815817E-06,0,0,0
-2.15397249121452E-05,1.1528201866895E-05,0,0,0
-2.16468197322683E-05,1.18286807264667E-05,0,0,0
-2.00157955987379E-05,8.16403735370841E-06,0,0,0
-2.11050082725706E-05,6.72811120239203E-06,0,0,0
-2.20171586988727E-05,5.89968840358779E-06,0,0,0
-2.50411230808822E-05,3.99237978854217E-06,0,0,0
-2.59611933870474E-05,2.87093882889167E-07,0,0,0
-2.57325082202442E-05,-1.03299714737659E-06,0,0,0
-2.32021047850139E-05,1.0906160241575E-06,0,0,0
-2.25343228521524E-05,4.69655788037926E-06,0,0,0
-2.33252922043903E-05,5.59471300221048E-06,0,0,0
-2.41945326706627E-05,4.73098089059931E-06,0,0,0
-1.98759316845099E-05,5.05911839354667E-06,0,0,0
-2.82549699477386E-05,8.97847075975733E-06,0,0,0
-2.19112043851055E-05,7.89909336162964E-06,0,0,0
-2.73707155429292E-05,6.30343674856704E-06,0,0,0
-2.27802102017449E-05,3.5147272683389E-06,0,0,0
-2.5190365704475E-05,5.30188026459655E-06,0,0,0
-2.37652511714259E-05,6.68576831230894E-06,0,0,0
-2.63641886704136E-05,5.93523327552248E-06,0,0,0
-2.62971680058399E-05,3.39343341693166E-06,0,0,0
-2.63593756244518E-05,6.92195442297816E-07,0,0,0
-2.7627309464151E-05,-2.14227029005087E-07,0,0,0
-2.86878548649838E-05,1.63955064635957E-06,0,0,0
-3.00068641081452E-05,4.34454886999447E-06,0,0,0
-2.80105286947219E-05,4.61024092146545E-06,0,0,0
-2.71393928414909E-05,5.56708300791797E-06,0,0,0
-2.47612661041785E-05,7.56877352614538E-06,0,0,0
-2.60864653682802E-05,8.84271503309719E-06,0,0,0
-2.58033778663957E-05,7.44891713111429E-06,0,0,0
-2.62110861513065E-05,5.96014797338285E-06,0,0,0
-2.33366845350247E-05,4.39851964983973E-06,0,0,0
-2.28033222811064E-05,4.1684015741339E-06,0,0,0
-2.27759319386678E-05,6.43811154077412E-06,0,0,0
-2.48746291617863E-05,1.01840787465335E-05,0,0,0
-2.61731092905393E-05,1.20656468425295E-05,0,0,0
-2.73195655609015E-05,1.26913500935188E-05,0,0,0
-2.7642481654766E-05,1.37535480462248E-05,0,0,0
-2.84386751445709E-05,1.39181529448251E-05,0,0,0
-2.46506388066337E-05,1.11419894892606E-05,0,0,0
-3.65949235856533E-05,1.37846727739088E-05,0,0,0
-2.91228370770114E-05,6.36416098132031E-06,0,0,0
-3.47179811797105E-05,8.46968941914383E-06,0,0,0
-2.88041283056373E-05,6.78859260005993E-06,0,0,0
-3.06741130771115E-05,8.80643074196996E-06,0,0,0
-2.80178664979758E-05,8.54233712743735E-06,0,0,0
-2.95914669550257E-05,9.61917703534709E-06,0,0,0
-2.82508372038137E-05,8.88530576048652E-06,0,0,0
-2.74615631496999E-05,9.07090907276142E-06,0,0,0
-2.73020123131573E-05,9.96310427581193E-06,0,0,0
-2.6815514502232E-05,1.07947225842508E-05,0,0,0
-2.87109141936526E-05,1.13823498395504E-05,0,0,0
-2.76562459475826E-05,1.09904231067048E-05,0,0,0
-2.87513157672947E-05,1.38580926432041E-05,0,0,0
-2.86856538878055E-05,1.53543842316139E-05,0,0,0
-3.13028904201929E-05,1.56225833052304E-05,0,0,0
-3.01712825603317E-05,1.32059576571919E-05,0,0,0
-3.06302536046132E-05,1.23798326967517E-05,0,0,0
-2.94952005788218E-05,1.17268700705608E-05,0,0,0
-3.00365281873383E-05,1.38207515192335E-05,0,0,0
-2.81586562778102E-05,1.61929237947334E-05,0,0,0
-2.78522784356028E-05,1.77084111783188E-05,0,0,0
-2.67840350716142E-05,1.63507920660777E-05,0,0,0
-2.60503020399483E-05,1.50589758050046E-05,0,0,0
-2.57621304626809E-05,1.48620374602615E-05,0,0,0
-2.63126985373674E-05,1.49757179315202E-05,0,0,0
-2.13946150324773E-05,1.13035557660623E-05,0,0,0
-2.89147610601503E-05,1.36904391183634E-05,0,0,0
-2.00649719772628E-05,8.30481621960644E-06,0,0,0
-2.58876043517375E-05,1.17806212074356E-05,0,0,0
-2.20417769014603E-05,7.34229070076253E-06,0,0,0
-2.47658172156662E-05,8.17622458271217E-06,0,0,0
-2.08512246899772E-05,7.72988278185949E-06,0,0,0
-2.06402637559222E-05,1.01386895039468E-05,0,0,0
-2.03287600015756E-05,1.21590765047586E-05,0,0,0
-2.1399779143394E-05,1.11024164652918E-05,0,0,0
-2.20912806980778E-05,7.73641659179702E-06,0,0,0
-2.10016296477988E-05,5.76802813156974E-06,0,0,0
-2.09516965696821E-05,6.99600377629395E-06,0,0,0
-1.94532913155854E-05,6.36037975709769E-06,0,0,0
-2.08976671274286E-05,6.62773709336761E-06,0,0,0
-1.91124127013609E-05,7.00254304319969E-06,0,0,0
-1.88738522410858E-05,9.73750957200537E-06,0,0,0
-1.68290789588355E-05,1.0173168448091E-05,0,0,0
-1.78454665729078E-05,1.06356637843419E-05,0,0,0
-1.76254434336443E-05,9.17542001843685E-06,0,0,0
-1.92015431821346E-05,7.11226448402158E-06,0,0,0
-1.97373792616418E-05,3.86436113331001E-06,0,0,0
-2.25744133786066E-05,3.78101344722381E-06,0,0,0
-2.38242828345392E-05,6.54941186439828E-06,0,0,0
-2.40809149545385E-05,1.02852827694733E-05,0,0,0
-2.36614559980808E-05,1.09282482299022E-05,0,0,0
-2.34737817663699E-05,7.74614090914838E-06,0,0,0
-1.86696906894213E-05,4.24073186877649E-06,0,0,0
-2.55735430982895E-05,5.3216554078972E-06,0,0,0
-1.90136270248331E-05,4.26961014454719E-06,0,0,0
-2.54890928772511E-05,4.65209359390428E-06,0,0,0
-2.26147240027785E-05,6.29883345482085E-07,0,0,0
-2.49103850364918E-05,4.07056631956948E-07,0,0,0
-2.19510748138418E-05,2.68870024910939E-07,0,0,0
-2.24914310820168E-05,9.72008933786128E-07,0,0,0
-2.14757055800874E-05,1.6975915286821E-06,0,0,0
-2.12895465665497E-05,1.60938895987783E-06,0,0,0
-2.23674560402287E-05,1.65539938734582E-06,0,0,0
-2.22964063141262E-05,2.33708328778448E-06,0,0,0
-2.32577131100697E-05,2.30363843911618E-06,0,0,0
-2.2853218979435E-05,9.03391310203006E-07,0,0,0
-2.41460747929523E-05,2.16002513298008E-06,0,0,0
-2.21051886910573E-05,5.11036705574952E-06,0,0,0
-2.13156035897555E-05,8.59614374348894E-06,0,0,0
-1.9817551219603E-05,9.86137820291333E-06,0,0,0
-2.25544463319238E-05,1.04341252153972E-05,0,0,0
-2.3588232579641E-05,1.09060556496843E-05,0,0,0
-2.40673689404503E-05,1.28851424960885E-05,0,0,0
-2.23295046453131E-05,1.45031426654896E-05,0,0,0
-2.17705801333068E-05,1.31881224660901E-05,0,0,0
-2.10504294955172E-05,9.06190780369798E-06,0,0,0
-2.21007776417537E-05,7.82978440838633E-06,0,0,0
-2.29501874855487E-05,1.29726167870103E-05,0,0,0
-2.21007903746795E-05,2.09274894586997E-05,0,0,0
-1.66189020092133E-05,2.07995108212344E-05,0,0,0
-2.49171989707975E-05,2.81897646345897E-05,0,0,0
-2.24378654820612E-05,1.84159544005524E-05,0,0,0
-2.91223477688618E-05,2.33235987252556E-05,0,0,0
-2.62514295172878E-05,2.00698414118961E-05,0,0,0
-2.7805099307443E-05,2.23778715735534E-05,0,0,0
-2.51579676842084E-05,1.65810797625454E-05,0,0,0
-2.60848410107428E-05,1.51113117681234E-05,0,0,0
-2.51393412327161E-05,1.56974601850379E-05,0,0,0
-2.38427001022501E-05,1.83558604476275E-05,0,0,0
-2.279483305756E-05,2.03213367058197E-05,0,0,0
-2.30102796194842E-05,2.0950537873432E-05,0,0,0
-2.54922779276967E-05,2.11514688999159E-05,0,0,0
-2.53632861131337E-05,1.66409099620068E-05,0,0,0
-2.59836851910222E-05,1.37771576191881E-05,0,0,0
-2.47369298449485E-05,1.0250215382257E-05,0,0,0
-2.47166499320883E-05,9.5060668172664E-06,0,0,0
-2.27919626922812E-05,6.97990935805137E-06,0,0,0
-2.29857814701973E-05,8.5293340816861E-06,0,0,0
-2.1872951037949E-05,8.61061198520474E-06,0,0,0
-2.32289858104195E-05,9.91726301435847E-06,0,0,0
-2.44489328906639E-05,9.90367880149279E-06,0,0,0
-2.60571105172858E-05,9.65799517871346E-06,0,0,0
-2.53625948971603E-05,7.85497741162544E-06,0,0,0
-2.32666989177233E-05,9.51931633608183E-06,0,0,0
-2.07214852707693E-05,1.43048409881885E-05,0,0,0
-1.96544333448401E-05,1.92701081687119E-05,0,0,0
-1.62133383128094E-05,1.71731426235056E-05,0,0,0
-2.38051179621834E-05,2.31794201681623E-05,0,0,0
-1.93414307432249E-05,1.53680011862889E-05,0,0,0
-2.39191213040613E-05,1.70692183019128E-05,0,0,0
-2.16250191442668E-05,1.11088738776743E-05,0,0,0
-2.54002407018561E-05,1.30934049593634E-05,0,0,0
-2.47963798756246E-05,1.03517140814802E-05,0,0,0
-2.56454459304223E-05,9.85851056611864E-06,0,0,0
-2.4254970412585E-05,8.63689911057008E-06,0,0,0
-2.2750005882699E-05,8.21585945232073E-06,0,0,0
-2.16895477933576E-05,7.81783546699444E-06,0,0,0
-2.12156464840518E-05,7.54476195652387E-06,0,0,0
-2.20046804315643E-05,8.05772106104996E-06,0,0,0
-2.16722419281723E-05,5.88618786423467E-06,0,0,0
-2.36069372476777E-05,6.70741246722173E-06,0,0,0
-2.3601218344993E-05,6.13154725215281E-06,0,0,0
-2.49454660661286E-05,6.60506566418917E-06,0,0,0
-2.49664444709197E-05,4.6518739509338E-06,0,0,0
-2.63367710431339E-05,4.86653834741446E-06,0,0,0
-2.50932771450607E-05,3.94311200579978E-06,0,0,0
-2.40371173276799E-05,6.08117125011631E-06,0,0,0
-2.20245601667557E-05,8.28103475214448E-06,0,0,0
-2.27042110054754E-05,1.09545308077941E-05,0,0,0
-2.39787495956989E-05,1.29166583064944E-05,0,0,0
-2.51059191214154E-05,1.5222287402139E-05,0,0,0
-2.48839751293417E-05,1.59712417371338E-05,0,0,0
-2.38810462178662E-05,1.58881157403812E-05,0,0,0
-1.89356996997958E-05,1.45926223922288E-05,0,0,0
-2.74127214652253E-05,2.06784516194602E-05,0,0,0
-2.14032170333667E-05,1.45453777804505E-05,0,0,0
-2.59292082773754E-05,1.5540215827059E-05,0,0,0
-2.07493212656118E-05,1.09286675069598E-05,0,0,0
-2.31327376241097E-05,1.3675219634024E-05,0,0,0
-2.29188917728607E-05,1.35614263854222E-05,0,0,0
-2.47958541876869E-05,1.43309789564228E-05,0,0,0
-2.35027273447486E-05,1.48765366247972E-05,0,0,0
-2.17590713873506E-05,1.71117480931571E-05,0,0,0
-2.17065407923656E-05,1.7690746972221E-05,0,0,0
-2.26555766857928E-05,1.72415566339623E-05,0,0,0
-2.50292596319923E-05,1.78642021637643E-05,0,0,0
-2.50892753683729E-05,1.55646212078864E-05,0,0,0
-2.68619660346303E-05,1.44493997140671E-05,0,0,0
-2.66689949057763E-05,1.22723567983485E-05,0,0,0
-2.74148933385732E-05,1.23407144201337E-05,0,0,0
-2.62309586105403E-05,1.14770627988037E-05,0,0,0
-2.77749895758461E-05,1.17889339890098E-05,0,0,0
-2.70566870312905E-05,1.05143662949558E-05,0,0,0
-2.65951784967911E-05,1.17288454930531E-05,0,0,0
-2.57389492617222E-05,1.2717079698632E-05,0,0,0
-2.74104186246404E-05,1.31000351757393E-05,0,0,0
-2.75315414910438E-05,1.09269722088357E-05,0,0,0
-2.66115221165819E-05,8.74075976753375E-06,0,0,0
-2.59989137703087E-05,8.32749810797395E-06,0,0,0
-2.77770504908403E-05,9.00796021596761E-06,0,0,0
-2.46316376433242E-05,8.19777233118657E-06,0,0,0
-3.45096523233224E-05,1.19757551146904E-05,0,0,0
-2.45322735281661E-05,1.07170581031824E-05,0,0,0
-3.11682088067755E-05,1.30784446810139E-05,0,0,0
-2.79535197478253E-05,1.08505382740987E-05,0,0,0
-3.20011931762565E-05,1.19190426630666E-05,0,0,0
-2.93588473141426E-05,1.10648097688681E-05,0,0,0
-2.91180786007317E-05,1.22362507681828E-05,0,0,0
-2.53521357080899E-05,1.20921067718882E-05,0,0,0
-2.40341232711216E-05,1.15810044007958E-05,0,0,0
-2.45761912083253E-05,1.1342071047693E-05,0,0,0
-2.41292491409695E-05,1.04365235529258E-05,0,0,0
-2.49394852289697E-05,7.96778567746514E-06,0,0,0
-2.31539161177352E-05,3.27825682688854E-06,0,0,0
-2.4565786588937E-05,1.98765019376879E-06,0,0,0
-2.43558115471387E-05,3.90266177419107E-06,0,0,0
-2.67962277575862E-05,8.56535825732863E-06,0,0,0
-2.59199150605127E-05,1.09030879684724E-05,0,0,0
-2.68359035544563E-05,1.17652980407001E-05,0,0,0
-2.50239354500081E-05,9.51701076701283E-06,0,0,0
-2.51133969868533E-05,6.50998254059232E-06,0,0,0
-2.40745594055625E-05,4.69247106593684E-06,0,0,0
-2.36275227507576E-05,7.04934927853174E-06,0,0,0
-2.24647083086893E-05,8.86137695488287E-06,0,0,0
-2.40917706832988E-05,7.42852489565848E-06,0,0,0
-2.55641389230732E-05,5.7484649005346E-06,0,0,0
-2.42366895690793E-05,8.77159345691325E-06,0,0,0
-1.65040146384854E-05,1.07604191725841E-05,0,0,0
-2.28612971113762E-05,1.46231504913885E-05,0,0,0
-1.78674945345847E-05,9.82033634500112E-06,0,0,0
-2.22371345444117E-05,1.120864180848E-05,0,0,0
-1.76490520971129E-05,7.34496825316455E-06,0,0,0
-2.03618728846777E-05,1.02600297395838E-05,0,0,0
-1.87180376087781E-05,1.08610875031445E-05,0,0,0
-1.88284811883932E-05,1.17116633191472E-05,0,0,0
-1.73958214872982E-05,1.23946110761608E-05,0,0,0
-1.7590144125279E-05,9.81039738690015E-06,0,0,0
-1.9061870261794E-05,6.70762028676108E-06,0,0,0
-2.01410111912992E-05,6.60198611512897E-06,0,0,0
-2.18804379983339E-05,8.42884674057132E-06,0,0,0
-2.19747162191197E-05,8.5833016782999E-06,0,0,0
-2.49408076342661E-05,1.04817827377701E-05,0,0,0
-2.54979458986782E-05,1.13027144834632E-05,0,0,0
-2.59532625932479E-05,1.12867437565001E-05,0,0,0
-2.38142129092012E-05,9.94866059045307E-06,0,0,0
-2.48885316977976E-05,1.08160065792617E-05,0,0,0
-2.60435426753247E-05,1.05376457213424E-05,0,0,0
-2.76142291113501E-05,9.52118716668338E-06,0,0,0
-2.73953792202519E-05,8.91298168426147E-06,0,0,0
-2.87366092379671E-05,1.06374209281057E-05,0,0,0
-2.87973143713316E-05,1.15364628072712E-05,0,0,0
-2.82872151728952E-05,1.14717904580175E-05,0,0,0
-2.68975181825226E-05,1.01038785942364E-05,0,0,0
-2.44002294493839E-05,7.33931210561423E-06,0,0,0
-1.83985612238757E-05,3.97914936911548E-06,0,0,0
-2.74216708930908E-05,7.6874157457496E-06,0,0,0
-2.20895926759113E-05,9.50823050516192E-06,0,0,0
-2.555027276685E-05,9.81086850515567E-06,0,0,0
-2.08308156288695E-05,5.55834321858129E-06,0,0,0
-2.32223992497893E-05,2.97766723633686E-06,0,0,0
-2.252560807392E-05,4.1313808196719E-07,0,0,0
-2.5355340767419E-05,4.17243001038514E-07,0,0,0
-2.51968558586668E-05,3.83725500796572E-06,0,0,0
-2.40815807046602E-05,7.0067790147732E-06,0,0,0
-2.33347236644477E-05,7.37695472707856E-06,0,0,0
-2.33317841775715E-05,6.43407520328765E-06,0,0,0
-2.52850059041521E-05,3.49835022461775E-06,0,0,0
-2.50479461101349E-05,-1.40881206789345E-06,0,0,0
-2.56740877375705E-05,-3.47047421200841E-06,0,0,0
-2.39593773585511E-05,-2.23361394091626E-06,0,0,0
-2.42632577283075E-05,3.47476770912181E-07,0,0,0
-2.28621574933641E-05,1.60215665800933E-06,0,0,0
-2.34183426073287E-05,2.48345440923003E-06,0,0,0
-2.21094433072722E-05,1.66120764788502E-06,0,0,0
-2.210810816905E-05,-4.6661980945828E-07,0,0,0
-2.19137746171327E-05,-8.23067978217296E-07,0,0,0
-2.2988615455688E-05,3.10297014038952E-06,0,0,0
-2.31719513976714E-05,7.01209546605241E-06,0,0,0
-2.29052184295142E-05,7.44104181649163E-06,0,0,0
-2.09514037123881E-05,7.77586956246523E-06,0,0,0
-2.08072415261995E-05,9.6087651400012E-06,0,0,0
-1.88048106792849E-05,7.47754211261054E-06,0,0,0
-2.78709012491163E-05,7.49682203604607E-06,0,0,0
-2.14569608942838E-05,2.13062617149262E-06,0,0,0
-2.45064275077311E-05,8.07865126262186E-06,0,0,0
-1.92912521015387E-05,1.3388596016739E-05,0,0,0
-2.03614672500407E-05,1.99446531041758E-05,0,0,0
-1.94237145478837E-05,2.06414770218544E-05,0,0,0
-2.3273314582184E-05,2.07944267458515E-05,0,0,0
-2.45266401179833E-05,2.04353673325386E-05,0,0,0
-2.45636310864938E-05,2.0064891941729E-05,0,0,0
-2.45468236244051E-05,1.86081833817298E-05,0,0,0
-2.40115587075707E-05,1.59429928316968E-05,0,0,0
-2.37593249039492E-05,1.49922725540819E-05,0,0,0
-2.09890804399038E-05,1.57945742103038E-05,0,0,0
-2.13064340641722E-05,1.99279184016632E-05,0,0,0
-2.10417911148397E-05,2.33403789025033E-05,0,0,0
-2.2402507966035E-05,2.6178800908383E-05,0,0,0
-2.13404382520821E-05,2.51659348577959E-05,0,0,0
-2.24611303565325E-05,2.08651908906177E-05,0,0,0
-2.31483063544147E-05,1.46089214467793E-05,0,0,0
-2.52333557000384E-05,1.26590712170582E-05,0,0,0
-2.4831004338921E-05,1.48948938658577E-05,0,0,0
-2.51919864240335E-05,1.84808905032696E-05,0,0,0
-2.5238379748771E-05,1.9462651835056E-05,0,0,0
-2.55950471910182E-05,2.0540128389257E-05,0,0,0
-2.57710889854934E-05,2.17178694583708E-05,0,0,0
-2.55749473581091E-05,2.21802129090065E-05,0,0,0
-1.9743154552998E-05,1.67146408784902E-05,0,0,0
-2.88486753561301E-05,2.04150655918056E-05,0,0,0
-2.32889160542982E-05,1.124912614614E-05,0,0,0
-2.8166827178211E-05,1.64939356182003E-05,0,0,0
-2.24890554818558E-05,1.56713867909275E-05,0,0,0
-2.51948549703229E-05,2.09401096071815E-05,0,0,0
-2.41272937273607E-05,1.7527308955323E-05,0,0,0
-2.45766368607292E-05,1.56187288666843E-05,0,0,0
-2.27954988076817E-05,1.3687613318325E-05,0,0,0
-2.26778156502405E-05,1.37380338856019E-05,0,0,0
-2.37799704336794E-05,1.35330601551686E-05,0,0,0
-2.44542588916374E-05,1.27360244732699E-05,0,0,0
-2.6903244361165E-05,1.2789091670129E-05,0,0,0
-2.69932861556299E-05,9.47876560530858E-06,0,0,0
-2.80218991974834E-05,8.6433692558785E-06,0,0,0
-2.66210645349929E-05,8.01944861450465E-06,0,0,0
-2.72985162155237E-05,1.0461182682775E-05,0,0,0
-2.56186503975187E-05,9.90702665149001E-06,0,0,0
-2.56161838478874E-05,1.03661277535139E-05,0,0,0
-2.41677389567485E-05,9.74227623373736E-06,0,0,0
-2.4280117941089E-05,1.13758133011288E-05,0,0,0
-2.33584760280792E-05,1.15520961116999E-05,0,0,0
-2.36567175306845E-05,1.19047435873654E-05,0,0,0
-2.39229120779783E-05,1.17582376333303E-05,0,0,0
-2.5264667783631E-05,1.23562185763149E-05,0,0,0
-2.47675616265042E-05,9.44837029237533E-06,0,0,0
-2.36629384744447E-05,5.14313023813884E-06,0,0,0
-1.97522531379946E-05,3.04275567941659E-06,0,0,0
-2.89689560304396E-05,5.39428310730727E-06,0,0,0
-2.24802333832486E-05,6.52583185001276E-06,0,0,0
-2.69154588750098E-05,7.60829743740032E-06,0,0,0
-2.30548830586486E-05,6.46220451017143E-06,0,0,0
-2.6710462407209E-05,8.01975511421915E-06,0,0,0
-2.60239285125863E-05,9.07940739125479E-06,0,0,0
-2.68164840235841E-05,8.3710738181253E-06,0,0,0
-2.4953198590083E-05,7.87073258834425E-06,0,0,0
-2.39487744693179E-05,6.05632612860063E-06,0,0,0
-2.38938209804473E-05,3.75118111151096E-06,0,0,0
-2.32364091061754E-05,5.06438709635404E-06,0,0,0
-2.35509796766564E-05,7.79568290454336E-06,0,0,0
-2.17503293242771E-05,8.77637194207637E-06,0,0,0
-2.30939222092275E-05,1.03468000816065E-05,0,0,0
-2.40318131545791E-05,1.13018759293482E-05,0,0,0
-2.5723289581947E-05,9.62827107287012E-06,0,0,0
-2.32395050261403E-05,6.63116225041449E-06,0,0,0
-2.23109527723864E-05,5.49728929399862E-06,0,0,0
-2.10099442483624E-05,5.8929254009854E-06,0,0,0
-2.19502599065891E-05,6.78191418046481E-06,0,0,0
-2.14427454920951E-05,7.10556651029037E-06,0,0,0
-2.21609443542548E-05,6.48526247459813E-06,0,0,0
-2.27597720368067E-05,5.00902251587831E-06,0,0,0
-2.3240801965585E-05,5.79861489313771E-06,0,0,0
-2.23224051296711E-05,9.68002859735861E-06,0,0,0
-2.16861062654061E-05,1.26094373626984E-05,0,0,0
-1.78527261596173E-05,9.52113805396948E-06,0,0,0
-2.50690154643962E-05,1.14509148261277E-05,0,0,0
-1.85786593647208E-05,6.12297480984125E-06,0,0,0
-2.32864367717411E-05,7.42785141483182E-06,0,0,0
-2.00704052986111E-05,5.41373265150469E-06,0,0,0
-2.31725207413547E-05,1.06919042082154E-05,0,0,0
-2.22154158109333E-05,1.24853313536732E-05,0,0,0
-2.34649960475508E-05,1.32557561300928E-05,0,0,0
-2.26469710469246E-05,1.16546161734732E-05,0,0,0
-2.30473451665603E-05,1.06512816273607E-05,0,0,0
-2.46144463744713E-05,1.03480415418744E-05,0,0,0
-2.52614827331854E-05,1.09383936433005E-05,0,0,0
-2.6279562007403E-05,1.3268213479023E-05,0,0,0
-2.47924581344705E-05,1.41519039971172E-05,0,0,0
-2.4974000552902E-05,1.52460452227388E-05,0,0,0
-2.36256437347038E-05,1.38995774250361E-05,0,0,0
-2.4085798941087E-05,1.29663103507482E-05,0,0,0
-2.22424005187349E-05,1.233099737874E-05,0,0,0
-2.30035748245427E-05,1.43884399221861E-05,0,0,0
-2.373089955654E-05,1.34635129143135E-05,0,0,0
-2.55344093602616E-05,1.10202900032164E-05,0,0,0
-2.46825438807718E-05,7.40506948204711E-06,0,0,0
-2.42918340518372E-05,5.19877357874066E-06,0,0,0
-2.34840481425636E-05,5.41080862603849E-06,0,0,0
-2.40264998865314E-05,9.04770058696158E-06,0,0,0
-2.4657996618771E-05,1.22854980872944E-05,0,0,0
-2.49469539994607E-05,1.17682957352372E-05,0,0,0
-1.94673903024523E-05,6.68437769490993E-06,0,0,0
-2.75443144346355E-05,9.07648336578859E-06,0,0,0
-2.10222697205609E-05,7.42297606848297E-06,0,0,0
-2.65393609879538E-05,9.30574879021151E-06,0,0,0
-2.18464538193075E-05,8.85849476617295E-06,0,0,0
-2.35681400226895E-05,1.43283868965227E-05,0,0,0
-2.07432349270675E-05,1.4974157238612E-05,0,0,0
-2.18140285141999E-05,1.3493709047907E-05,0,0,0
-2.24473405978642E-05,1.27285893540829E-05,0,0,0
-2.41125235334039E-05,1.2546136531455E-05,0,0,0
-2.57303745456738E-05,1.11048802864389E-05,0,0,0
-2.49847726081498E-05,8.43639281811193E-06,0,0,0
-2.47538209805498E-05,5.86130909141502E-06,0,0,0
-2.37398617173312E-05,3.88737862522248E-06,0,0,0
-2.57707033597399E-05,5.8008167798107E-06,0,0,0
-2.49235108640278E-05,8.6854870460229E-06,0,0,0
-2.51940127782291E-05,1.22390729302424E-05,0,0,0
-2.32693982979981E-05,1.30820662889164E-05,0,0,0
-2.34010494750692E-05,1.21532330012997E-05,0,0,0
-2.27322125283536E-05,1.00889728855691E-05,0,0,0
-2.45721112150932E-05,1.04213913800777E-05,0,0,0
-2.55553950410103E-05,1.09009997686371E-05,0,0,0
-2.70105610979954E-05,1.05688613984967E-05,0,0,0
-2.69217780441977E-05,9.85130373010179E-06,0,0,0
-2.70299206022173E-05,1.05882854768424E-05,0,0,0
-2.65491489699343E-05,1.22085975817754E-05,0,0,0
-2.58606814895757E-05,1.34671236082795E-05,0,0,0
-2.05611013370799E-05,1.19744217954576E-05,0,0,0
-2.81655193248298E-05,1.67715588759165E-05,0,0,0
-2.02412611542968E-05,1.13278783828719E-05,0,0,0
-2.56428411375964E-05,1.21501589092077E-05,0,0,0
-2.09818190342048E-05,9.52388745645294E-06,0,0,0
-2.34626877499977E-05,1.29388745335746E-05,0,0,0
-2.11209189728834E-05,1.25400574688683E-05,0,0,0
-2.26801821554545E-05,1.43792176459101E-05,0,0,0
-2.21636346395826E-05,1.552450703457E-05,0,0,0
-2.13321363844443E-05,1.57283175212797E-05,0,0,0
-2.03335530386539E-05,1.53621949721128E-05,0,0,0
-1.90944392670644E-05,1.53309865709161E-05,0,0,0
-2.02371120394673E-05,1.51299054778065E-05,0,0,0
-1.94826498045586E-05,1.27472940221196E-05,0,0,0
-2.00267713807989E-05,1.25010701594874E-05,0,0,0
-1.91633207577979E-05,1.128781150328E-05,0,0,0
-2.18157838389743E-05,1.10956807475304E-05,0,0,0
-2.15677100641187E-05,1.07176974779577E-05,0,0,0
-2.18327095353743E-05,1.13923697426799E-05,0,0,0
-1.96900218725204E-05,9.03198542800965E-06,0,0,0
-1.98187281057471E-05,7.92247374192812E-06,0,0,0
-1.93918112927349E-05,8.54388781590387E-06,0,0,0
-1.99558689928381E-05,1.12913812699844E-05,0,0,0
-1.94063613889739E-05,1.15449929580791E-05,0,0,0
-1.97296121768886E-05,1.02914127637632E-05,0,0,0
-1.89879792742431E-05,8.70924577611731E-06,0,0,0
-1.89003385457909E-05,9.00821305549471E-06,0,0,0
-1.54117842612322E-05,7.63655407354236E-06,0,0,0
-2.18403165490599E-05,8.85129429661902E-06,0,0,0
-1.80843780981377E-05,3.63807998837729E-06,0,0,0
-2.38879438256845E-05,5.25814630236709E-06,0,0,0
-2.10115904337727E-05,5.11858388563269E-06,0,0,0
-2.2354957764037E-05,1.07001833384857E-05,0,0,0
-2.03781564778183E-05,1.42965400300454E-05,0,0,0
-2.28878889174666E-05,1.59806131705409E-05,0,0,0
-2.44442617258755E-05,1.59100254677469E-05,0,0,0
-2.63219480984844E-05,1.4804156307946E-05,0,0,0
-2.87261973426212E-05,1.45714438986033E-05,0,0,0
-2.99191651720321E-05,1.66522804647684E-05,0,0,0
-3.0857052479405E-05,1.84058953891508E-05,0,0,0
-2.92311233351938E-05,1.56392052304E-05,0,0,0
-2.83359659078997E-05,9.44275325309718E-06,0,0,0
-2.51117653533584E-05,1.10186945789792E-07,0,0,0
-2.44728216785006E-05,-4.93445941174286E-06,0,0,0
-2.4276412659674E-05,-2.81111852018512E-06,0,0,0
-2.66877450485481E-05,5.51848870600224E-06,0,0,0
-2.61592849710723E-05,1.27186403915402E-05,0,0,0
-2.57185183727415E-05,1.52806151163531E-05,0,0,0
-2.45332685153699E-05,1.14378990474506E-05,0,0,0
-2.36949817917775E-05,7.31513819118845E-06,0,0,0
-2.26635529543273E-05,6.66468213239568E-06,0,0,0
-2.38645006902516E-05,9.27498331293464E-06,0,0,0
-2.49797558353748E-05,1.19431851999252E-05,0,0,0
-2.57427909673424E-05,1.35218588184216E-05,0,0,0
-2.15087093238253E-05,1.10256978587131E-05,0,0,0
-2.96560938295443E-05,1.42296667036135E-05,0,0,0
-2.07017401407938E-05,1.02259718914866E-05,0,0,0
-2.58273303188616E-05,1.42739681905368E-05,0,0,0
-2.22052512981463E-05,1.27813646031427E-05,0,0,0
-2.62838966591517E-05,1.71653118741233E-05,0,0,0
-2.50788143603131E-05,1.58877192006912E-05,0,0,0
-2.68031799350865E-05,1.17901781777618E-05,0,0,0
-2.56614221143536E-05,8.35485388961388E-06,0,0,0
-2.53525940934196E-05,8.10697565611918E-06,0,0,0
-2.50691500696121E-05,7.77521381678525E-06,0,0,0
-2.43436261371244E-05,8.43310044729151E-06,0,0,0
-2.55236009252258E-05,1.05416611404507E-05,0,0,0
-2.42921360040782E-05,1.09480724859168E-05,0,0,0
-2.54142014455283E-05,1.20788854474085E-05,0,0,0
-2.40267181652598E-05,1.09266729850788E-05,0,0,0
-2.43020440393593E-05,9.3392918643076E-06,0,0,0
-2.2204492779565E-05,5.04437002746272E-06,0,0,0
-2.25596340897027E-05,3.82745474780677E-06,0,0,0
-2.12997128983261E-05,4.88569685330731E-06,0,0,0
-2.23259157792199E-05,8.2605283751036E-06,0,0,0
-2.18973309529247E-05,8.66545542521635E-06,0,0,0
-2.33436403505038E-05,7.51914694774314E-06,0,0,0
-2.44942693825578E-05,6.53077768220101E-06,0,0,0
-2.54158258030657E-05,7.33854631107533E-06,0,0,0
-2.52861700573703E-05,8.72314831212861E-06,0,0,0
-2.66814167844132E-05,9.45721603784477E-06,0,0,0
-2.19202775042504E-05,7.23538551028469E-06,0,0,0
-2.97093411063543E-05,1.115800205298E-05,0,0,0
-2.17724318645196E-05,1.03096581369755E-05,0,0,0
-2.87054190266645E-05,1.22166065921192E-05,0,0,0
-2.31729045481188E-05,1.04357877717121E-05,0,0,0
-2.51348010351649E-05,1.21141583804274E-05,0,0,0
-2.35639272432309E-05,1.06109009720967E-05,0,0,0
-2.64267600869061E-05,9.02377723832615E-06,0,0,0
-2.65615635726135E-05,8.93752621777821E-06,0,0,0
-2.79746564046945E-05,1.05207718661404E-05,0,0,0
-2.96284542855574E-05,1.11716826722841E-05,0,0,0
-2.89403196802596E-05,9.62649392022286E-06,0,0,0
-2.85864261968527E-05,7.9494466262986E-06,0,0,0
-2.56912753684446E-05,7.13352073944407E-06,0,0,0
-2.59554653894156E-05,8.98220696399221E-06,0,0,0
-2.44463808485307E-05,1.03696584119461E-05,0,0,0
-2.57156443694839E-05,1.16518440336222E-05,0,0,0
-2.41098277911078E-05,1.16618275569635E-05,0,0,0
-2.41729558183579E-05,1.17148847493809E-05,0,0,0
-2.27287073357729E-05,1.06438592410996E-05,0,0,0
-2.42526984948199E-05,1.04564469438628E-05,0,0,0
-2.52410463872366E-05,1.04230639408343E-05,0,0,0
-2.83315512206173E-05,1.04889822978294E-05,0,0,0
-2.85741843981668E-05,8.9895884229918E-06,0,0,0
-2.72454399237176E-05,6.57490909361513E-06,0,0,0
-2.63801466644509E-05,3.88041917176452E-06,0,0,0
-2.58391792158363E-05,3.22503774441429E-06,0,0,0
-2.04314183065435E-05,2.87072361970786E-06,0,0,0
-2.83604331343668E-05,3.78963954972278E-06,0,0,0
-2.01657985599013E-05,4.49773688160349E-06,0,0,0
-2.35699480981566E-05,5.82167831453262E-06,0,0,0
-1.71789761225227E-05,1.34544586671836E-06,0,0,0
-1.87527130037779E-05,-1.01561390408733E-07,0,0,0
-1.70968596648891E-05,-1.5057845530464E-06,0,0,0
-2.0579127522069E-05,-2.75644561043009E-06,0,0,0
-2.14470346691087E-05,-4.23509874281081E-07,0,0,0
-2.2285001250566E-05,2.61804302681412E-06,0,0,0
-2.25952226173831E-05,4.35715128332959E-06,0,0,0
-2.11548467632383E-05,5.47019135410665E-06,0,0,0
-2.20326655835379E-05,5.75567173655145E-06,0,0,0
-2.21387635974679E-05,5.4511356211151E-06,0,0,0
-2.4360342649743E-05,7.45881197872222E-06,0,0,0
-2.36741343542235E-05,9.70325072557898E-06,0,0,0
-2.55330742220394E-05,1.04105174614233E-05,0,0,0
-2.51390174526023E-05,8.2011729318765E-06,0,0,0
-2.62135599768953E-05,5.58149667995167E-06,0,0,0
-2.56551429629326E-05,5.10896506966674E-06,0,0,0
-2.70994587481255E-05,7.71264240029268E-06,0,0,0
-2.63595120486571E-05,1.01478590295301E-05,0,0,0
-2.61943041550694E-05,9.81272023636848E-06,0,0,0
-2.54812694038264E-05,8.40375741972821E-06,0,0,0
-2.51332639891189E-05,1.02140538729145E-05,0,0,0
-2.46296349359909E-05,1.38948962558061E-05,0,0,0
-2.45142546191346E-05,1.51528402057011E-05,0,0,0
-1.98929756152211E-05,1.00482311609085E-05,0,0,0
-2.95536210614955E-05,1.3955670510768E-05,0,0,0
-2.45945593633223E-05,1.33464054670185E-05,0,0,0
-2.9986322260811E-05,1.81813629751559E-05,0,0,0
-2.55187806033064E-05,1.30331700347597E-05,0,0,0
-2.73922723863507E-05,1.32827690322301E-05,0,0,0
-2.48965716309613E-05,1.11355248009204E-05,0,0,0
-2.57511383097153E-05,1.12172137960442E-05,0,0,0
-2.51676938205492E-05,1.29994341477868E-05,0,0,0
-2.56992952927249E-05,1.33107487272355E-05,0,0,0
-2.51698820648016E-05,1.01684645414934E-05,0,0,0
-2.34946965065319E-05,9.08432411961257E-06,0,0,0
-2.39234450418735E-05,1.24306807265384E-05,0,0,0
-2.31621852435637E-05,1.50947344081942E-05,0,0,0
-2.44680322794011E-05,1.81647228600923E-05,0,0,0
-2.42010992224095E-05,1.87045388884144E-05,0,0,0
-2.63492984231561E-05,1.87183959496906E-05,0,0,0
-2.62469475273974E-05,1.76477296918165E-05,0,0,0
-2.76943374046823E-05,1.78960854100296E-05,0,0,0
-2.62653375102673E-05,1.57056783791631E-05,0,0,0
-2.53338912443724E-05,1.52905977301998E-05,0,0,0
-2.27694854402216E-05,1.51305675899494E-05,0,0,0
-2.19806333916495E-05,1.44728528539417E-05,0,0,0
-2.11420738196466E-05,1.34021056510392E-05,0,0,0
-2.2068636098993E-05,1.44827699841699E-05,0,0,0
-2.34259896387812E-05,1.53570381371537E-05,0,0,0
-2.45605369855184E-05,1.54885419760831E-05,0,0,0
-2.04297648451757E-05,1.23806639749091E-05,0,0,0
-2.86240992863895E-05,1.65662040672032E-05,0,0,0
-1.97884637600509E-05,1.31522856463562E-05,0,0,0
-2.29800407396397E-05,1.8979721062351E-05,0,0,0
-1.81705145223532E-05,1.68062451848527E-05,0,0,0
-2.1808255041833E-05,1.9085480744252E-05,0,0,0
-2.15616473724367E-05,1.75698260136414E-05,0,0,0
-2.43191134359222E-05,1.72798081621295E-05,0,0,0
-2.43061513174325E-05,1.69017748703482E-05,0,0,0
-2.40553963521961E-05,1.76359008037252E-05,0,0,0
-2.37247641052818E-05,1.86418910743669E-05,0,0,0
-2.30216919590021E-05,1.97118442883948E-05,0,0,0
-2.46010768023552E-05,2.1071195078548E-05,0,0,0
-2.48521773755783E-05,1.82835810846882E-05,0,0,0
-2.70830114459386E-05,1.51515823745285E-05,0,0,0
-2.59444368566619E-05,1.22628898679977E-05,0,0,0
-2.61343684542226E-05,1.33534931592294E-05,0,0,0
-2.47319949266966E-05,1.35630734803271E-05,0,0,0
-2.64378304564161E-05,1.36240905703744E-05,0,0,0
-2.66590977844317E-05,1.13879186756094E-05,0,0,0
-2.74915346381022E-05,1.17646341095679E-05,0,0,0
-2.59927237493685E-05,1.32592358568218E-05,0,0,0
-2.54352107731393E-05,1.59612427523825E-05,0,0,0
-2.41290399571881E-05,1.80604838533327E-05,0,0,0
-2.3123566279537E-05,1.8470615032129E-05,0.17578125,0,0
-2.23502374865348E-05,1.53153905557701E-05,0.17578125,0,0
-2.2854350390844E-05,1.17819645311101E-05,0.17578125,0,0
-1.93460891750874E-05,9.27662495087134E-06,0.17578125,0,0
-2.7333851903677E-05,1.24810667330166E-05,0.17578125,0,0
-1.93746054719668E-05,9.09654136194149E-06,0.17578125,0,0
-2.31015546887647E-05,9.16114731808193E-06,0.17578125,0,0
-1.94447020476218E-05,3.48482853951282E-06,0.17578125,0,0
-2.30939658649731E-05,5.70648944631102E-06,0.17578125,0,0
-2.26199408643879E-05,6.77235266266507E-06,0.17578125,0,0
-2.56115836236859E-05,7.71093255025335E-06,0.17578125,0,0
-2.65464641415747E-05,8.10582787380554E-06,0.17578125,0,0
-2.69297161139548E-05,8.16524425317766E-06,0.17578125,0,0
-2.70166947302641E-05,7.90009562479099E-06,0.17578125,0,0
-2.58986747212475E-05,8.19389606476761E-06,0.17578125,0,0
-2.61601890088059E-05,9.15422697289614E-06,0.17578125,0,0
-2.44269667746266E-05,7.75094304117374E-06,0.17578125,0,0
-2.4467184630339E-05,7.02103579897084E-06,0.17578125,0,0
-2.22295384446625E-05,6.23789173914702E-06,0.17578125,0,0
-2.16335756704211E-05,7.34008062863722E-06,0.17578125,0,0
-1.91580274986336E-05,7.08880133970524E-06,0.17578125,0,0
-1.91329872905044E-05,8.3789227574016E-06,0.17578125,0,0
-1.89995298569556E-05,1.00483703135978E-05,0.17578125,0,0
-2.21111768041737E-05,1.20956310638576E-05,0.17578125,0,0
-2.41863053815905E-05,1.17101617433946E-05,0.17578125,0,0
-2.51714081969112E-05,1.00495990409399E-05,0.17578125,0,0
-2.42331680055941E-05,8.60068666952429E-06,0.17578125,0,0
-2.4420378395007E-05,9.74211707216455E-06,0.17578125,0,0
-2.46409799729008E-05,1.08095646282891E-05,0.17578125,0,0
-2.49552631430561E-05,1.0518748240429E-05,0.17578125,0,0
-1.97462577489205E-05,9.68872427620227E-06,0.17578125,0,0
-2.62136090896092E-05,1.4109428775555E-05,0.17578125,0,0
-1.72002892213641E-05,6.89442413204233E-06,0.17578125,0,0
-2.20109086512821E-05,3.08732779785714E-07,0.17578125,0,0
-1.7672924514045E-05,-5.03095952808508E-06,0.17578125,0,0
-2.00490958377486E-05,3.29648378283309E-06,0.17578125,0,0
-1.84396376425866E-05,1.32039285745122E-05,0.17578125,0,0
-2.09900881600333E-05,1.94716030819109E-05,0.17578125,0,0
-2.00656413653633E-05,1.99273636098951E-05,0.17578125,0,0
-1.80294937308645E-05,1.83992724487325E-05,0.17578125,0,0
-1.72522941284114E-05,1.55931247718399E-05,0.17578125,0,0
-1.81458781298716E-05,1.36610160552664E-05,0.17578125,0,0
-2.16003209061455E-05,1.37600636662683E-05,0.17578125,0,0
-2.2093783627497E-05,1.30139433167642E-05,0.17578125,0,0
-2.30605128308525E-05,1.41065074785729E-05,0.17578125,0,0
-2.11419610423036E-05,1.46031625263277E-05,0.17578125,0,0
-2.18736895476468E-05,1.51433696373715E-05,0.17578125,0,0
-2.12091872526798E-05,1.40779229695909E-05,0.17578125,0,0
-2.29130455409177E-05,1.37380129672238E-05,0.17578125,0,0
-2.34553735936061E-05,1.20222994155483E-05,0.17578125,0,0
-2.53407379204873E-05,1.1294358955638E-05,0.17578125,0,0
-2.4773808036116E-05,1.08106796687935E-05,0.17578125,0,0
-2.54100450547412E-05,9.74903923633974E-06,0.17578125,0,0
-2.53291327680927E-05,7.8946095527499E-06,0.17578125,0,0
-2.54818296525627E-05,8.1391008279752E-06,0.17578125,0,0
-2.54817696259124E-05,1.05308008642169E-05,0.17578125,0,0
-2.62365301750833E-05,1.16386145236902E-05,0.17578125,0,0
-2.16565167647786E-05,7.63750631449511E-06,0.17578125,0,0
-2.98386039503384E-05,1.00358010968193E-05,0.17578125,0,0
-2.1492147425306E-05,8.51688491820823E-06,0.17578125,0,0
-2.88884275505552E-05,1.10825203591958E-05,0.17578125,0,0
-2.72766847047023E-05,7.25688187230844E-06,0.17578125,0,0
-3.14284588966984E-05,8.14484064903809E-06,0.17578125,0,0
-2.91308297164505E-05,6.47754359306418E-06,0.17578125,0,0
-2.98327413474908E-05,4.41853762822575E-06,0.17578125,0,0
-2.76766222668812E-05,3.44782392858178E-06,0.17578125,0,0
-2.62379235209664E-05,5.18171373187215E-06,0.17578125,0,0
-2.60412507486762E-05,6.8647314037662E-06,0.17578125,0,0
-2.53420002991334E-05,7.21480091669946E-06,0.17578125,0,0
-2.61359728028765E-05,7.07972731106565E-06,0.17578125,0,0
-2.47041753027588E-05,5.17126773047494E-06,0.17578125,0,0
-2.55755021498771E-05,5.91132902627578E-06,0.17578125,0,0
-2.39721121033654E-05,8.02918384579243E-06,0.17578125,0,0
-2.51874353125459E-05,1.0443497558299E-05,0.17578125,0,0
-2.50609500653809E-05,1.07603973447112E-05,0.17578125,0,0
-2.70150212600129E-05,1.23959007396479E-05,0.17578125,0,0
-2.57669435086427E-05,1.30560229081311E-05,0.17578125,0,0
-2.57224983215565E-05,1.36439002744737E-05,0.17578125,0,0
-2.5253984858864E-05,1.4333238141262E-05,0.17578125,0,0
-2.66959432337899E-05,1.60451400006423E-05,0.17578125,0,0
-2.68254225375131E-05,1.65071760420688E-05,0.17578125,0,0
-2.63530801021261E-05,1.60337822308065E-05,0.17578125,0,0
-2.48308897425886E-05,1.2762391634169E-05,0.17578125,0,0
-2.43525701080216E-05,7.66261837270577E-06,0.17578125,0,0
-1.9749406419578E-05,3.82738562620943E-06,0.17578125,0,0
-2.75261481874622E-05,5.27240081282798E-06,0.17578125,0,0
-2.03763047466055E-05,5.2178543228365E-06,0.17578125,0,0
-2.53937560046325E-05,7.106990324246E-06,0.17578125,0,0
-2.17050201172242E-05,6.32397177469102E-06,0.17578125,0,0
-2.46450854319846E-05,9.57883730734466E-06,0.17578125,0,0
-2.16148491745116E-05,1.10016162579996E-05,0.17578125,0,0
-2.26113097596681E-05,9.19186550163431E-06,0.17578125,0,0
-2.18990189750912E-05,6.97578207109473E-06,0.17578125,0,0
-2.17242959479336E-05,6.91405512043275E-06,0.17578125,0,0
-2.19006778934272E-05,7.79834681452485E-06,0.17578125,0,0
-2.2241400074563E-05,9.04978514881805E-06,0.17578125,0,0
-2.41677425947273E-05,1.01074865597184E-05,0.17578125,0,0
-2.2195423298399E-05,9.14483371161623E-06,0.17578125,0,0
-2.20162110053934E-05,8.07305877970066E-06,0.17578125,0,0
-2.15805885090958E-05,6.13816519035026E-06,0.17578125,0,0
-2.52539903158322E-05,3.62175410373311E-06,0.17578125,0,0
-2.64096706814598E-05,1.11168117200577E-06,0.17578125,0,0
-2.72955676337006E-05,2.08269966606167E-06,0.17578125,0,0
-2.55404047493357E-05,5.12014685227769E-06,0.17578125,0,0
-2.59703647316201E-05,7.30639521862031E-06,0.17578125,0,0
-2.49078475462738E-05,7.17681814421667E-06,0.17578125,0,0
-2.44131824729266E-05,6.98365192874917E-06,0.17578125,0,0
-2.26547781494446E-05,8.67649578140117E-06,0.17578125,0,0
-2.18171808228362E-05,1.22407009257586E-05,0.17578125,0,0
-2.18279983528191E-05,1.33470057335217E-05,0.17578125,0,0
-2.3405362298945E-05,1.30280368466629E-05,0.17578125,0,0
-2.02992923732381E-05,1.01970344985602E-05,0.17578125,0,0
-2.78988172794925E-05,1.2949592928635E-05,0.17578125,0,0
-1.95159300346859E-05,8.2514479800011E-06,0.17578125,0,0
-2.37420736084459E-05,1.23228564916644E-05,0.17578125,0,0
-1.94503572856775E-05,1.05895178421633E-05,0.17578125,0,0
-2.37342501350213E-05,1.29920335893985E-05,0.17578125,0,0
-2.31362791964784E-05,1.29005029521068E-05,0.17578125,0,0
-2.41994566749781E-05,1.13534533738857E-05,0.17578125,0,0
-2.25220865104347E-05,8.54427617014153E-06,0.17578125,0,0
-2.20711408474017E-05,8.76208287081681E-06,0.17578125,0,0
-2.22307626245311E-05,1.11334175016964E-05,0.17578125,0,0
-2.19304438360268E-05,1.19178303066292E-05,0.17578125,0,0
-2.26906904572388E-05,1.13012820293079E-05,0.17578125,0,0
-2.04712396225659E-05,1.03148149719345E-05,0.17578125,0,0
-2.105801468133E-05,1.26166751215351E-05,0.17578125,0,0
-2.08613346330822E-05,1.40766887852806E-05,0.17578125,0,0
-2.30765563173918E-05,1.4102685781836E-05,0.17578125,0,0
-2.24655286729103E-05,1.01737787190359E-05,0.17578125,0,0
-2.33819373534061E-05,7.53874337533489E-06,0.17578125,0,0
-2.22270082304021E-05,7.19366607881966E-06,0.17578125,0,0
-2.29436482186429E-05,8.77423826750601E-06,0.17578125,0,0
-2.28490662266267E-05,7.2788670877344E-06,0.17578125,0,0
-2.42177011386957E-05,4.70305030830787E-06,0.17578125,0,0
-2.40929857682204E-05,4.25754387833877E-06,0.17578125,0,0
-2.24809391511371E-05,6.84595079292194E-06,0.17578125,0,0
-1.98817324417178E-05,8.44127498567104E-06,0.17578125,0,0
-1.92490097106202E-05,9.96841845335439E-06,0.17578125,0,0
-1.70487837749533E-05,1.0631037184794E-05,0.17578125,0,0
-2.58678155660164E-05,1.49485167639796E-05,0.17578125,0,0
-2.15812124224612E-05,1.09497850644402E-05,0.17578125,0,0
-2.65371108980617E-05,1.40722886499134E-05,0.17578125,0,0
-2.41301058849785E-05,1.18387215479743E-05,0.17578125,0,0
-2.74222111329436E-05,1.33461226141662E-05,0.17578125,0,0
-2.72088545898441E-05,1.19016704047681E-05,0.17578125,0,0
-2.84211746475194E-05,1.15621687655221E-05,0.17578125,0,0
-2.77444396488136E-05,1.31308452182566E-05,0.17578125,0,0
-2.67628929577768E-05,1.26847999126767E-05,0.17578125,0,0
-2.59493936027866E-05,8.25678580440581E-06,0.17578125,0,0
-2.51786386797903E-05,3.3061317026295E-06,0.17578125,0,0
-2.661558391992E-05,1.04731736882968E-06,0.17578125,0,0
-2.61303321167361E-05,-7.20327420822287E-07,0.17578125,0,0
-2.66504848696059E-05,2.12508257391164E-06,0.17578125,0,0
-2.5481569537078E-05,6.30358454145608E-06,0.17578125,0,0
-2.65878206846537E-05,1.04022683444782E-05,0.17578125,0,0
-2.69464471784886E-05,1.20352688099956E-05,0.17578125,0,0
-2.7804760975414E-05,1.4689683666802E-05,0.17578125,0,0
-2.59201315202517E-05,1.58722141350154E-05,0.17578125,0,0
-2.53069101745496E-05,1.48258286571945E-05,0.17578125,0,0
-2.38809243455762E-05,1.22822621051455E-05,0.17578125,0,0
-2.36389878409682E-05,1.2494228030846E-05,0.17578125,0,0
-2.30381156143267E-05,1.40176725835772E-05,0.17578125,0,0
-2.30889108934207E-05,1.50292744365288E-05,0.17578125,0,0
-2.46296458499273E-05,1.57038957695477E-05,0.17578125,0,0
-2.66163078777026E-05,1.64089615282137E-05,0.17578125,0,0
-2.1903264496359E-05,9.92356035567354E-06,0.17578125,0,0
-3.0120547307888E-05,9.01586463442072E-06,0.17578125,0,0
-2.13165967579698E-05,2.16417788578838E-06,0.17578125,0,0
-2.63249439740321E-05,7.33996057533659E-06,0.17578125,0,0
-2.17186479858356E-05,7.96136828284943E-06,0.703125,0,0
-2.65277176367817E-05,1.46012716868427E-05,0.703125,0,0
-2.50811499427073E-05,1.55948509927839E-05,0.703125,0,0
-2.50597531703534E-05,1.62069427460665E-05,0.703125,0,0
-2.18347340705805E-05,1.65345627465285E-05,0.703125,0,0
-2.04948482860345E-05,1.93459709407762E-05,0.703125,0,0
-2.05952874239301E-05,2.15304316952825E-05,0.703125,0,0
-1.987980431295E-05,2.18899440369569E-05,0.703125,0,0
-2.0535526346066E-05,2.1523217583308E-05,0.703125,0,0
-1.86229881364852E-05,1.85033422894776E-05,0.703125,0,0
-1.93924770428566E-05,1.83122956514126E-05,0.703125,0,0
-1.86948782356922E-05,1.85878707270604E-05,0.703125,0,0
-2.05482938326895E-05,2.09272420761408E-05,0.703125,0,0
-1.97393856069539E-05,2.0080875401618E-05,0.703125,0,0
-2.19997673411854E-05,1.91749422810972E-05,0.703125,0,0
-2.29868401220301E-05,1.86594061233336E-05,0.703125,0,0
-2.47139596467605E-05,2.13034036278259E-05,0.703125,0,0
-2.26558895519702E-05,2.20081728912191E-05,0.703125,0,0
-2.05349952011602E-05,2.03058298211545E-05,0.703125,0,0
-1.89937327377265E-05,1.62968026415911E-05,0.703125,0,0
-2.05137293960433E-05,1.40499787448789E-05,0.703125,0,0
-2.20925921894377E-05,1.44783016367001E-05,0.703125,0,0
-2.29060351557564E-05,1.46776574183605E-05,0.703125,0,0
-1.82594394573243E-05,1.18561119961669E-05,0.703125,0,0
-2.57846604654333E-05,1.57710164785385E-05,0.703125,0,0
-2.00926860998152E-05,1.05591334431665E-05,0.703125,0,0
-2.56779676419683E-05,1.32627192215296E-05,0.703125,0,0
-2.29168508667499E-05,9.39345409278758E-06,0.703125,0,0
-2.61746208707336E-05,1.09260436147451E-05,0.703125,0,0
-2.42160767811583E-05,1.19804381029098E-05,0.703125,0,0
-2.52595709753223E-05,1.47970913531026E-05,0.703125,0,0
-2.39020246226573E-05,1.55487923620967E-05,0.703125,0,0
-2.27646887651645E-05,1.36944345285883E-05,0.703125,0,0
-2.20882047869964E-05,1.13480436993996E-05,0.703125,0,0
-2.13150542549556E-05,1.06394518297748E-05,0.703125,0,0
-2.20815436478006E-05,1.10999744720175E-05,0.703125,0,0
-2.14495757973054E-05,1.05675026134122E-05,0.703125,0,0
-2.23040151468012E-05,1.22070778161287E-05,0.703125,0,0
-1.9834968043142E-05,1.24519410746871E-05,0.703125,0,0
-1.96159999177326E-05,1.22710980576812E-05,0.703125,0,0
-1.88809372048127E-05,1.01461364465649E-05,0.703125,0,0
-2.13991515920497E-05,9.5187861006707E-06,0.703125,0,0
-2.29609104280826E-05,7.50322305975715E-06,0.703125,0,0
-2.52708196057938E-05,7.60340435590479E-06,0.703125,0,0
-2.46165400312748E-05,7.14459747541696E-06,0.703125,0,0
-2.4298720745719E-05,5.74664318264695E-06,0.703125,0,0
-2.39927139773499E-05,5.28712052982883E-06,0.703125,0,0
-2.45444662141381E-05,7.14771249477053E-06,0.703125,0,0
-2.38625143538229E-05,8.25408096716274E-06,0.703125,0,0
-2.33219980145805E-05,8.62759952724446E-06,0.703125,0,0
-1.90731279872125E-05,6.40692860542913E-06,0.703125,0,0
-2.80004660453415E-05,8.16726878838381E-06,0.703125,0,0
-2.30085461225826E-05,4.21066624767263E-06,0.703125,0,0
-2.84911693597678E-05,3.06932861349196E-06,0.703125,0,0
-2.46070831053657E-05,-1.4231520708563E-06,0.703125,0,0
-2.78785992122721E-05,-1.19672336040821E-06,0.703125,0,0
-2.67810810328228E-05,-1.16894068469264E-06,0.703125,0,0
-2.86058984784177E-05,-1.53651598111537E-08,0.703125,0,0
-2.81588054349413E-05,5.5119693342931E-07,0.703125,0,0
-2.77116814686451E-05,-1.01324974366435E-06,0.703125,0,0
-2.84821489913156E-05,-3.93167692891438E-06,0.703125,0,0
-2.89953368337592E-05,-3.68560517927108E-06,0.703125,0,0
-3.06480869767256E-05,-2.99295720651571E-07,0.703125,0,0
-2.91780943371123E-05,1.05466131117282E-06,0.703125,0,0
-2.92344448098447E-05,2.78859192803793E-06,0.703125,0,0
-2.85405458271271E-05,5.65563732379815E-06,0.703125,0,0
-2.9784534490318E-05,8.33522881293902E-06,0.703125,0,0
-2.76525479421252E-05,6.99402244208613E-06,0.703125,0,0
-2.7349655283615E-05,5.08961329614976E-06,0.703125,0,0
-2.67035284196027E-05,4.0292557059729E-06,0.703125,0,0
-2.71698063443182E-05,5.56255372430314E-06,0.703125,0,0
-2.45719547820045E-05,7.30707597540459E-06,0.703125,0,0
-2.29690467676846E-05,7.49598348193103E-06,0.703125,0,0
-2.28462831728393E-05,6.0344850680849E-06,0.703125,0,0
-2.35491515923059E-05,6.85872009853483E-06,0.703125,0,0
-2.17947017517872E-05,1.00302167993505E-05,0.703125,0,0
-1.94127514987485E-05,1.27760822579148E-05,0.703125,0,0
-1.4991543139331E-05,1.07494215626502E-05,0.703125,0,0
-2.29826600843808E-05,1.59522951435065E-05,0.703125,0,0
-2.1121151803527E-05,1.37372262543067E-05,0.703125,0,0
-2.62012035818771E-05,1.5742625691928E-05,0.703125,0,0
-2.18887507799082E-05,1.1801616892626E-05,0.703125,0,0
-2.34287090279395E-05,1.57749818754382E-05,0.703125,0,0
-2.27058935706737E-05,1.76020221260842E-05,0.703125,0,0
-2.30017612921074E-05,1.70158273249399E-05,0.703125,0,0
-2.16765220102388E-05,1.4882999494148E-05,0.703125,0,0
-2.27298678510124E-05,1.54524259414757E-05,0.703125,0,0
-2.45818246185081E-05,1.58906259457581E-05,0.703125,0,0
-2.47333155130036E-05,1.61352963914396E-05,0.703125,0,0
-2.56535076914588E-05,1.70917446666863E-05,0.703125,0,0
-2.5655965146143E-05,1.52265338329016E-05,0.703125,0,0
-2.6578658435028E-05,1.42109265652834E-05,0.703125,0,0
-2.49482527578948E-05,1.34378560687765E-05,0.703125,0,0
-2.50696521106875E-05,1.5517047359026E-05,0.703125,0,0
-2.45085084316088E-05,1.61821280926233E-05,0.703125,0,0
-2.57261763181305E-05,1.60519120981917E-05,0.703125,0,0
-2.57245956163388E-05,1.33343673951458E-05,0.703125,0,0
-2.70375221589347E-05,1.12714351416798E-05,0.703125,0,0
-2.60177566815401E-05,1.08944186649751E-05,0.703125,0,0
-2.4161628971342E-05,1.34168367367238E-05,0.703125,0,0
-2.29438028327422E-05,1.42476465043728E-05,0.703125,0,0
-2.35443003475666E-05,1.26752129290253E-05,0.703125,0,0
-2.39546570810489E-05,9.82620167633286E-06,0.703125,0,0
-2.40107528952649E-05,8.43975976749789E-06,0.703125,0,0
-2.00115555344382E-05,4.3692148210539E-06,0.703125,0,0
-2.81842167169089E-05,3.81542395189172E-06,0.703125,0,0
-2.09204645216232E-05,2.30403679779556E-06,0.703125,0,0
-2.6604995582602E-05,6.26055407337844E-06,0.703125,0,0
-2.32288894039812E-05,5.13686973135918E-06,0.703125,0,0
-2.531306927267E-05,7.86325017543277E-06,0.703125,0,0
-2.16041298699565E-05,9.89777618087828E-06,0.703125,0,0
-2.20013225771254E-05,9.20502043300075E-06,0.703125,0,0
-2.17390224861447E-05,6.84458109390107E-06,0.703125,0,0
-2.19154644582886E-05,4.7970725063351E-06,0.703125,0,0
-2.23893348447746E-05,3.5362575090403E-06,0.703125,0,0
-2.23100832954515E-05,4.2382735045976E-06,0.703125,0,0
-2.32743004744407E-05,6.29052055955981E-06,0.703125,0,0
-2.217748806288E-05,6.72746000418556E-06,0.703125,0,0
-2.32984039030271E-05,6.51441632726346E-06,0.703125,0,0
-2.25373441935517E-05,4.990188699594E-06,0.703125,0,0
-2.34370199905243E-05,4.69609676656546E-06,0.703125,0,0
-2.20577894651797E-05,4.89448484586319E-06,0.703125,0,0
-2.27091477427166E-05,5.56036775378743E-06,0.703125,0,0
-2.15139989450108E-05,5.04999889017199E-06,0.703125,0,0
-2.21223635890055E-05,4.957278179063E-06,0.703125,0,0
-2.19622688746313E-05,4.79655182061833E-06,0.703125,0,0
-2.32204365602229E-05,4.94559435537667E-06,0.703125,0,0
-2.31915837503038E-05,4.87852867081529E-06,0.703125,0,0
-2.36190589930629E-05,4.22406992584001E-06,0.703125,0,0
-2.40274785028305E-05,2.94517394650029E-06,0.703125,0,0
-2.57260053331265E-05,2.76491709882976E-06,0.703125,0,0
-2.3016620616545E-05,2.32393813348608E-06,0.703125,0,0
-3.203622327419E-05,2.75460456578003E-06,0.703125,0,0
-2.30978857871378E-05,3.7772997529828E-06,0.703125,0,0
-2.95497156912461E-05,7.96070435171714E-06,0.703125,0,0
-2.60593369603157E-05,8.32608930068091E-06,0.703125,0,0
-2.88019346044166E-05,9.89728141576052E-06,0.703125,0,0
-2.37905314861564E-05,1.20995555334957E-05,0.703125,0,0
-2.29027646128088E-05,1.39188650791766E-05,0.703125,0,0
-2.26360971282702E-05,1.47779610415455E-05,0.703125,0,0
-2.40917870542035E-05,1.4439872757066E-05,0.703125,0,0
-2.4904044039431E-05,1.46424863487482E-05,0.703125,0,0
-2.31383746722713E-05,1.61396910698386E-05,0.703125,0,0
-2.32180191233056E-05,1.70499697560444E-05,0.703125,0,0
-2.15366508200532E-05,1.59100545715773E-05,0.703125,0,0
-2.22888302232604E-05,1.55232319229981E-05,0.703125,0,0
-2.17484193854034E-05,1.66918653121684E-05,0.703125,0,0
-2.45334013015963E-05,1.8302687749383E-05,0.703125,0,0
-2.3817836336093E-05,1.73734115378466E-05,0.703125,0,0
-2.3954598873388E-05,1.54287117766216E-05,0.703125,0,0
-2.20048514165683E-05,1.60065101226792E-05,0.703125,0,0
-2.20868168980815E-05,2.0029900042573E-05,0.703125,0,0
-2.1090658265166E-05,2.29460129048675E-05,0.703125,0,0
-2.05452652153326E-05,2.16906009882223E-05,0.703125,0,0
-1.82750245585339E-05,1.74979049916146E-05,0.703125,0,0
-1.84844357136171E-05,1.57818285515532E-05,0.703125,0,0
-2.04220632440411E-05,1.72115232999204E-05,0.703125,0,0
-2.16676089621615E-05,1.98748257389525E-05,0.703125,0,0
-1.67728976521175E-05,1.6972600860754E-05,0.703125,0,0
-2.28558365051867E-05,1.92354182217969E-05,0.703125,0,0
-1.61971001944039E-05,6.84082078805659E-06,0.703125,0,0
-2.02014271053486E-05,9.66344941844E-06,0.703125,0,0
-1.80310580617515E-05,6.49124058327288E-06,0.703125,0,0
-2.28458375204355E-05,1.27674220493645E-05,0.703125,0,0
-2.24136510951212E-05,1.3912898793933E-05,0.703125,0,0
-2.52549962169724E-05,1.65825949807186E-05,0.703125,0,0
-2.77566468867008E-05,1.7802321963245E-05,0.703125,0,0
-3.0327257263707E-05,1.7937330994755E-05,1.7578125,0,0
-3.0219734981074E-05,1.72037998709129E-05,1.7578125,0,0
-2.63188248936785E-05,1.72571762959706E-05,1.7578125,0,0
-2.28809512918815E-05,1.89245947694872E-05,1.7578125,0,0
-1.99652986339061E-05,1.69525519595481E-05,1.7578125,0,0
-2.13064613490133E-05,1.73459411598742E-05,1.7578125,0,0
-2.12662944250042E-05,1.69349787029205E-05,1.7578125,0,0
-2.2575668481295E-05,1.73408716364065E-05,1.7578125,0,0
-2.24698542297119E-05,1.47849586937809E-05,1.7578125,0,0
-2.53586549661122E-05,1.38051118483418E-05,1.7578125,0,0
-2.7007174139726E-05,1.13135420178878E-05,1.7578125,0,0
-2.90621501335409E-05,1.22007759273401E-05,1.7578125,0,0
-2.8292208298808E-05,1.38179457280785E-05,1.7578125,0,0
-2.71274839178659E-05,1.73939970409265E-05,1.7578125,0,0
-2.39935943682212E-05,1.66040972544579E-05,1.7578125,0,0
-2.23449096665718E-05,1.02946942206472E-05,1.7578125,0,0
-2.35208844969748E-05,5.25243012816645E-06,1.7578125,0,0
-2.50899902312085E-05,4.82484529129579E-06,1.7578125,0,0
-2.09687332244357E-05,2.48872834163194E-06,1.7578125,0,0
-3.00615865853615E-05,4.21015442952921E-07,1.7578125,0,0
-2.23390979954274E-05,-5.5967660728129E-07,1.7578125,0,0
-2.68286330538103E-05,4.67984091301332E-06,1.7578125,0,0
-2.25655749090947E-05,4.99833549838513E-06,1.7578125,0,0
-2.61517598119099E-05,5.30199986314983E-06,1.7578125,0,0
-2.46409963438055E-05,3.99715327148442E-06,1.7578125,0,0
-2.56380699283909E-05,3.51156586475554E-06,1.7578125,0,0
-2.38744942180347E-05,5.77817900193622E-06,1.7578125,0,0
-2.17285796679789E-05,7.12444261807832E-06,1.7578125,0,0
-2.00779031729326E-05,6.16976831224747E-06,1.7578125,0,0
-1.89103993761819E-05,4.23135634264327E-06,1.7578125,0,0
-2.02544833882712E-05,3.53301015820762E-06,1.7578125,0,0
-1.98208672372857E-05,2.16693570109783E-06,1.7578125,0,0
-2.11317856155802E-05,3.0823021006654E-06,1.7578125,0,0
-2.05973374249879E-05,6.70349118081504E-06,1.7578125,0,0
-2.40094759647036E-05,1.01218138297554E-05,1.7578125,0,0
-2.60037522821222E-05,9.63342245086096E-06,1.7578125,0,0
-2.86845988739515E-05,7.49011678635725E-06,1.7578125,0,0
-2.83936151390662E-05,7.38434209779371E-06,1.7578125,0,0
-2.89764684566762E-05,1.07430041680345E-05,1.7578125,0,0
-2.77905619441299E-05,1.30491898744367E-05,1.7578125,0,0
-2.75949514616514E-05,1.23530535347527E-05,1.7578125,0,0
-2.67379618890118E-05,1.13668047561077E-05,1.7578125,0,0
-2.60541910392931E-05,1.29131185531151E-05,1.7578125,0,0
-2.39613727899268E-05,1.61258212756366E-05,1.7578125,0,0
-2.29395373025909E-05,1.75917339220177E-05,1.7578125,0,0
-1.86674606084125E-05,1.2631127901841E-05,1.7578125,0,0
-2.67598443315364E-05,1.56618989421986E-05,1.7578125,0,0
-2.06016793526942E-05,1.0121751074621E-05,1.7578125,0,0
-2.48301257670391E-05,1.45845478982665E-05,1.7578125,0,0
-2.10625803447329E-05,1.17437484732363E-05,1.7578125,0,0
-2.49333679676056E-05,1.61518910317682E-05,1.7578125,0,0
-2.35906736634206E-05,1.56111400428927E-05,1.7578125,0,0
-2.42132337007206E-05,1.3764806681138E-05,1.7578125,0,0
-2.36149680858944E-05,1.1306216038065E-05,1.7578125,0,0
-2.46184245042969E-05,1.05774579424178E-05,1.7578125,0,0
-2.5848445147858E-05,1.05645922303665E-05,1.7578125,0,0
-2.57576612057164E-05,1.02386393336928E-05,1.7578125,0,0
-2.6614416128723E-05,1.02815729405847E-05,1.7578125,0,0
-2.57714273175225E-05,8.16986994323088E-06,1.7578125,0,0
-2.65967719315086E-05,7.81234757596394E-06,1.7578125,0,0
-2.43977938225726E-05,6.22928246230003E-06,1.7578125,0,0
-2.38368156715296E-05,6.08001437285566E-06,1.7578125,0,0
-2.2798831196269E-05,6.27316285317647E-06,1.7578125,0,0
-2.48635060415836E-05,9.07937919691904E-06,1.7578125,0,0
-2.42493460973492E-05,9.34461240831297E-06,1.7578125,0,0
-2.33526843658183E-05,9.4683637144044E-06,1.7578125,0,0
-2.09116551559418E-05,8.85950612428132E-06,1.7578125,0,0
-2.0141127606621E-05,9.22096296562813E-06,1.7578125,0,0
-1.91909057321027E-05,8.89174589246977E-06,1.7578125,0,0
-1.94533367903205E-05,8.63639706949471E-06,1.7578125,0,0
-2.01589537027758E-05,7.92545597505523E-06,1.7578125,0,0
-2.05381729756482E-05,8.12654980109073E-06,1.7578125,0,0
-1.66303598234663E-05,6.96643701303401E-06,1.7578125,0,0
-2.42460191657301E-05,8.00389352662023E-06,1.7578125,0,0
-1.92209463421023E-05,1.33150592773745E-06,1.7578125,0,0
-2.44763286900707E-05,6.23220557827153E-07,1.7578125,0,0
-2.29310426220763E-05,2.75357456303027E-06,1.7578125,0,0
-2.56971106864512E-05,1.01971381809562E-05,1.7578125,0,0
-2.22993658098858E-05,1.15369739432936E-05,1.7578125,0,0
-2.09574100153986E-05,9.62454669206636E-06,1.7578125,0,0
-2.08186102099717E-05,8.19349588709883E-06,1.7578125,0,0
-2.36784489970887E-05,7.49884839024162E-06,1.7578125,0,0
-2.59621574514313E-05,5.86562282478553E-06,1.7578125,0,0
-2.47047537413891E-05,4.08944015362067E-06,1.7578125,0,0
-2.42249261646066E-05,2.60918159256107E-06,1.7578125,0,0
-2.45264927798416E-05,1.21432071864547E-06,1.7578125,0,0
-2.80051899608225E-05,3.10639325107331E-06,1.7578125,0,0
-2.85209353023674E-05,5.27669089933624E-06,1.7578125,0,0
-2.92547429125989E-05,7.83398991188733E-06,1.7578125,0,0
-2.82541986962315E-05,1.02748817880638E-05,1.7578125,0,0
-2.89462477667257E-05,1.29355366880191E-05,1.7578125,0,0
-2.82511864497792E-05,1.19856213132152E-05,1.7578125,0,0
-2.79855230473913E-05,9.57494467002107E-06,1.7578125,0,0
-2.53119160333881E-05,7.6782325777458E-06,1.7578125,0,0
-2.39072087424574E-05,8.74461966304807E-06,1.7578125,0,0
-2.37199928960763E-05,1.13084815893671E-05,1.7578125,0,0
-2.43691356445197E-05,1.40631273097824E-05,1.7578125,0,0
-2.40993540501222E-05,1.55805082613369E-05,1.7578125,0,0
-2.28507087740581E-05,1.62143187480979E-05,1.7578125,0,0
-1.90734899661038E-05,1.19641717901686E-05,1.7578125,0,0
-2.85245441773441E-05,1.61273001140216E-05,1.7578125,0,0
-2.45345563598676E-05,1.49136903928593E-05,1.7578125,0,0
-3.04606546706054E-05,2.14876945392461E-05,1.7578125,0,0
-2.60397209785879E-05,1.73499938682653E-05,1.7578125,0,0
-2.79664036497707E-05,1.74595370481256E-05,1.7578125,0,0
-2.68071526079439E-05,1.35581722133793E-05,1.7578125,0,0
-2.90403440885711E-05,1.29650525195757E-05,1.7578125,0,0
-2.81312441074988E-05,1.35892214530031E-05,1.7578125,0,0
-2.70263990387321E-05,1.50019968714332E-05,1.7578125,0,0
-2.57892934314441E-05,1.48072958836565E-05,1.7578125,0,0
-2.41230154642835E-05,1.37504830490798E-05,1.7578125,0,0
-2.52547688432969E-05,1.31997448988841E-05,1.7578125,0,0
-2.5263234419981E-05,1.13512451207498E-05,1.7578125,0,0
-2.67358154815156E-05,1.37490014822106E-05,1.7578125,0,0
-2.5511188141536E-05,1.56205551320454E-05,1.7578125,0,0
-2.72830311587313E-05,1.71275933098514E-05,1.7578125,0,0
-2.80493222817313E-05,1.57438244059449E-05,1.7578125,0,0
-2.92945587716531E-05,1.57733011292294E-05,1.7578125,0,0
-2.7368023438612E-05,1.46474967550603E-05,1.7578125,0,0
-2.70596683549229E-05,1.48200060721138E-05,1.7578125,0,0
-2.54365641012555E-05,1.37106126203435E-05,1.7578125,0,0
-2.49675485974876E-05,1.35581403810647E-05,1.7578125,0,0
-2.36040141317062E-05,1.40600859594997E-05,1.7578125,0,0
-2.27508335228777E-05,1.44215973705286E-05,1.7578125,0,0
-2.28893313760636E-05,1.2892676750198E-05,1.7578125,0,0
-2.24466384679545E-05,1.21678458526731E-05,1.7578125,0,0
-1.86690322152572E-05,1.10470828076359E-05,1.7578125,0,0
-2.80720323644346E-05,1.51275735333911E-05,1.7578125,0,0
-2.27673244808102E-05,8.16841748019215E-06,1.7578125,0,0
-2.63363745034439E-05,5.83414339416777E-06,1.7578125,0,0
-2.22779453906696E-05,7.01912028944207E-07,1.7578125,0,0
-2.54075275734067E-05,3.58854231308214E-06,1.7578125,0,0
-2.41434645431582E-05,6.13205429544905E-06,1.7578125,0,0
-2.59251792158466E-05,8.95730227057356E-06,1.7578125,0,0
-2.64246937149437E-05,9.36484502744861E-06,1.7578125,0,0
-2.69839038082864E-05,8.79762410477269E-06,1.7578125,0,0
-2.66247607214609E-05,8.39519634610042E-06,1.7578125,0,0
-2.48472006205702E-05,8.71679640113143E-06,1.7578125,0,0
-2.49956265179208E-05,8.64538469613763E-06,1.7578125,0,0
-2.43504673562711E-05,6.31277544016484E-06,1.7578125,0,0
-2.49687054747483E-05,6.86238718117238E-06,1.7578125,0,0
-2.29690685955575E-05,8.26404357212596E-06,1.7578125,0,0
-2.34084327530582E-05,9.93982121144654E-06,1.7578125,0,0
-2.27514647122007E-05,8.51393269840628E-06,1.7578125,0,0
-2.45025948970579E-05,8.21773301140638E-06,1.7578125,0,0
-2.44210987148108E-05,9.26551365409978E-06,1.7578125,0,0
-2.54055976256495E-05,1.18825537356315E-05,1.7578125,0,0
-2.53166836046148E-05,1.1162631381012E-05,1.7578125,0,0
-2.5393830583198E-05,9.45650845096679E-06,1.7578125,0,0
-2.47280640905956E-05,8.99534916243283E-06,1.7578125,0,0
-2.51968558586668E-05,9.89256841421593E-06,1.7578125,0,0
-2.48662690864876E-05,9.81937591859605E-06,1.7578125,0,0
-2.44847815338289E-05,1.02389230960398E-05,1.7578125,0,0
-1.98822199308779E-05,8.03789953351952E-06,1.7578125,0,0
-2.78534844255773E-05,6.67593849357218E-06,1.7578125,0,0
-2.02070841623936E-05,-3.85490784537978E-06,1.7578125,0,0
-2.53378002526006E-05,-5.00305350215058E-06,1.7578125,0,0
-2.12969098356552E-05,-3.2838190691109E-06,1.7578125,0,0
-2.29438810492866E-05,5.57832117920043E-06,1.7578125,0,0
-2.02534301934065E-05,9.9172293630545E-06,1.7578125,0,0
-2.26616957661463E-05,1.27767934827716E-05,1.7578125,0,0
-2.37121803365881E-05,1.44993700814666E-05,1.7578125,0,0
-2.33448045037221E-05,1.42092640089686E-05,1.7578125,0,0
-2.21603477257304E-05,1.02948079074849E-05,1.7578125,0,0
-2.07926586881513E-05,7.86721375334309E-06,3.1640625,0,0
-2.11252554436214E-05,9.06728018890135E-06,3.1640625,0,0
-1.94509448192548E-05,9.09124446479836E-06,3.1640625,0,0
-1.99459918803768E-05,9.41474627325078E-06,3.1640625,0,0
-1.91288891073782E-05,8.45479280542349E-06,3.1640625,0,0
-2.11821370612597E-05,6.99542806614772E-06,3.1640625,0,0
-2.11231381399557E-05,3.16315936288447E-06,3.1640625,0,0
-2.23288916458841E-05,2.25955727728433E-06,3.1640625,0,0
-2.1217396351858E-05,4.23541359850788E-06,3.1640625,0,0
-2.16112293855986E-05,7.17473903932841E-06,3.1640625,0,0
-2.09894478757633E-05,6.94101208864595E-06,3.1640625,0,0
-2.20657802856294E-05,5.38058793608798E-06,3.1640625,0,0
-2.32031670748256E-05,3.99301552533871E-06,3.1640625,0,0
-2.35648822126677E-05,7.24036362953484E-06,3.1640625,0,0
-2.06143922696356E-05,1.16084438559483E-05,3.1640625,0,0
-1.89779802894918E-05,1.2737399629259E-05,3.1640625,0,0
-1.62175474542892E-05,7.49353284845711E-06,3.1640625,0,0
-2.43278427660698E-05,1.06420457086642E-05,3.1640625,0,0
-2.03603995032609E-05,1.11466715679853E-05,3.1640625,0,0
-2.40436093008611E-05,1.57221493282123E-05,3.1640625,0,0
-2.04184925678419E-05,1.40148185892031E-05,3.1640625,0,0
-2.27287473535398E-05,1.60285217134515E-05,3.1640625,0,0
-2.09668705792865E-05,1.52342381625203E-05,3.1640625,0,0
-2.20450001506833E-05,1.4810694665357E-05,3.1640625,0,0
-2.13073290069588E-05,1.24011621664977E-05,3.1640625,0,0
-2.18086042877985E-05,1.00612305686809E-05,3.1640625,0,0
-2.33346254390199E-05,7.38526023269515E-06,3.1640625,0,0
-2.35385923588183E-05,5.35853769179084E-06,3.1640625,0,0
-2.3522869014414E-05,5.57703469894477E-06,3.1640625,0,0
-2.16929802263621E-05,5.00860869578901E-06,3.1640625,0,0
-2.27259097300703E-05,5.39812117494876E-06,3.1640625,0,0
-2.25213516387157E-05,6.34868183624349E-06,3.1640625,0,0
-2.28363351197913E-05,1.01670411822852E-05,3.1640625,0,0
-2.05669311981183E-05,1.37640590764931E-05,3.1640625,0,0
-2.04827774723526E-05,1.7214018953382E-05,3.1640625,0,0
-1.94171534531051E-05,1.70919392985525E-05,3.1640625,0,0
-2.02626524696825E-05,1.64147386385594E-05,3.1640625,0,0
-2.0695646526292E-05,1.71295741893118E-05,3.1640625,0,0
-2.12029008253012E-05,1.96338478417601E-05,3.1640625,0,0
-2.08003093575826E-05,1.95029988390161E-05,3.1640625,0,0
-2.09394802368479E-05,1.60583858814789E-05,3.1640625,0,0
-2.0764395230799E-05,1.14923350338358E-05,3.1640625,0,0
-2.11131828109501E-05,8.49527441459941E-06,3.1640625,0,0
-1.74361066456186E-05,4.2333977035014E-06,3.1640625,0,0
-2.35757906921208E-05,4.27797795055085E-06,3.1640625,0,0
-1.64131161000114E-05,6.15042517893016E-06,3.1640625,0,0
-2.11279275390552E-05,1.56011192302685E-05,3.1640625,0,0
-1.93834966921713E-05,1.7575444871909E-05,3.1640625,0,0
-2.36247233260656E-05,1.84410528163426E-05,3.1640625,0,0
-2.16593780351104E-05,1.77499678102322E-05,3.1640625,0,0
-2.29509678320028E-05,1.75382519955747E-05,3.1640625,0,0
-2.41613997786772E-05,1.7658960132394E-05,3.1640625,0,0
-2.71253775281366E-05,1.74926044564927E-05,3.1640625,0,0
-2.92935055767884E-05,1.7240045053768E-05,3.1640625,0,0
-2.91387332254089E-05,1.76983594428748E-05,3.1640625,0,0
-2.91648211714346E-05,1.78113132278668E-05,3.1640625,0,0
-2.77939270745264E-05,1.63146851264173E-05,3.1640625,0,0
-2.96598027489381E-05,1.65345427376451E-05,3.1640625,0,0
-3.00639330816921E-05,1.73300450114766E-05,3.1640625,0,0
-3.15099568979349E-05,1.86810320883524E-05,3.1640625,0,0
-3.02593816741137E-05,1.96051205421099E-05,3.1640625,0,0
-3.07512709696312E-05,2.02003011509078E-05,3.1640625,0,0
-2.95843292406062E-05,1.91964500118047E-05,3.1640625,0,0
-3.00962728942977E-05,1.90988812391879E-05,3.1640625,0,0
-2.95748159260256E-05,1.83822248800425E-05,3.1640625,0,0
-2.98826907965122E-05,1.73883672687225E-05,3.1640625,0,0
-2.80631429632194E-05,1.68593305716058E-05,3.1640625,0,0
-2.58483705692925E-05,1.67349717230536E-05,3.1640625,0,0
-2.4000359189813E-05,1.53843811858678E-05,3.1640625,0,0
-2.35138813877711E-05,1.23459585665842E-05,3.1640625,0,0
-1.92101488210028E-05,8.03528291726252E-06,3.1640625,0,0
-2.75348174909595E-05,1.14150361696375E-05,3.1640625,0,0
-2.01792245206889E-05,8.95704670256237E-06,3.1640625,0,0
-2.30830883083399E-05,9.87040766631253E-06,3.1640625,0,0
-1.82838812179398E-05,5.60121452508611E-06,3.1640625,0,0
-2.20855981751811E-05,6.67129279463552E-06,3.1640625,0,0
-2.20372585317818E-05,6.36762752037612E-06,3.1640625,0,0
-2.43896120082354E-05,5.49846936337417E-06,3.1640625,0,0
-2.43219856201904E-05,5.47541367268423E-06,3.1640625,0,0
-2.41472134803189E-05,7.91826823842712E-06,3.1640625,0,0
-2.37991243920987E-05,1.05735543911578E-05,3.1640625,0,0
-2.23883853323059E-05,1.1378054296074E-05,3.1640625,0,0
-2.2686350348522E-05,1.02876174423727E-05,3.1640625,0,0
-2.17382203118177E-05,7.2325974542764E-06,3.1640625,0,0
-2.30306777666556E-05,6.57482678434462E-06,3.1640625,0,0
-2.27308446483221E-05,7.99660938355373E-06,3.1640625,0,0
-2.46828440140234E-05,1.05918425106211E-05,3.1640625,0,0
-2.44128332269611E-05,9.52403024712112E-06,3.1640625,0,0
-2.63142355834134E-05,7.1442868829763E-06,3.1640625,0,0
-2.73977711913176E-05,5.27960855833953E-06,3.1640625,0,0
-2.91776450467296E-05,7.16253452992532E-06,3.1640625,0,0
-2.77822891803226E-05,8.35873015603283E-06,3.1640625,0,0
-2.62423272943124E-05,7.20954221833381E-06,3.1640625,0,0
-2.4973292966024E-05,5.69652183912694E-06,3.1640625,0,0
-2.60957112914184E-05,6.72778060106793E-06,3.1640625,0,0
-2.72223805950489E-05,8.85319514054572E-06,3.1640625,0,0
-2.72784072876675E-05,1.07054329419043E-05,3.1640625,0,0
-2.20638594328193E-05,9.11622555577196E-06,3.1640625,0,0
-3.35781878675334E-05,1.12605721369619E-05,3.1640625,0,0
-2.89152612822363E-05,6.76422496326268E-06,3.1640625,0,0
-3.49232250300702E-05,8.56149017636199E-06,3.1640625,0,0
-2.86413323919987E-05,4.520237325778E-06,3.1640625,0,0
-2.90076586679788E-05,7.05075990481419E-06,3.1640625,0,0
-2.51550372922793E-05,8.45419435790973E-06,3.1640625,0,0
-2.57265783147886E-05,1.00667657534359E-05,3.1640625,0,0
-2.49327222263673E-05,1.21064322229358E-05,3.1640625,0,0
-2.54628357652109E-05,1.37157576318714E-05,3.1640625,0,0
-2.66693114099326E-05,1.33594239741797E-05,3.1640625,0,0
-2.65178186964476E-05,1.21997627502424E-05,3.1640625,0,0
-2.7848700483446E-05,1.26710410768283E-05,3.1640625,0,0
-2.661872531462E-05,1.18724601634312E-05,3.1640625,0,0
-2.64832851826213E-05,1.24860498544876E-05,3.1640625,0,0
-2.35366860579234E-05,1.26271197586902E-05,3.1640625,0,0
-2.31246922339778E-05,1.28117790154647E-05,3.1640625,0,0
-2.08847341127694E-05,1.13539481390035E-05,3.1640625,0,0
-2.0855406546616E-05,1.11565732368035E-05,3.1640625,0,0
-1.9212691768189E-05,1.05895778688136E-05,3.1640625,0,0
-1.9551580408006E-05,1.12384777821717E-05,3.1640625,0,0
-1.90168193512363E-05,1.04700029623928E-05,3.1640625,0,0
-2.05010383069748E-05,8.87781789060682E-06,3.1640625,0,0
-2.05483920581173E-05,8.6907211880316E-06,3.1640625,0,0
-1.98118086700561E-05,9.42738370213192E-06,3.1640625,0,0
-1.90406244655605E-05,9.83885001915041E-06,3.1640625,0,0
-1.85702192538884E-05,1.17159033834469E-05,3.1640625,0,0
-1.44462310345261E-05,1.11740755528444E-05,3.1640625,0,0
-2.06308704946423E-05,1.57255399244605E-05,3.1640625,0,0
-1.65957571880426E-05,1.15355896923575E-05,3.1640625,0,0
-2.02449773496483E-05,1.42042981678969E-05,3.1640625,0,0
-1.59711526066531E-05,1.22233077490819E-05,3.1640625,0,0
-1.70358089235378E-05,1.48423268910847E-05,3.1640625,0,0
-1.56512724061031E-05,1.33108060254017E-05,3.1640625,0,0
-1.84775417437777E-05,1.10170140033006E-05,3.1640625,0,0
-1.98716552404221E-05,9.79728520178469E-06,3.1640625,0,0
-2.09904810617445E-05,1.13815540316864E-05,3.1640625,0,0
-2.16748849197757E-05,1.29106892927666E-05,3.1640625,0,0
-2.14565970964031E-05,1.29930822367896E-05,3.1640625,0,0
-2.27776654355694E-05,1.17360350486706E-05,3.1640625,0,0
-2.29115848924266E-05,8.44409532874124E-06,3.1640625,0,0
-2.40423614741303E-05,8.58774910739157E-06,3.1640625,0,0
-2.35929419432068E-05,1.00173465398257E-05,3.1640625,0,0
-2.44514412770513E-05,1.31545348267537E-05,3.1640625,0,0
-2.28172521019587E-05,1.41533009809791E-05,3.1640625,0,0
-2.26078736886848E-05,1.47781684063375E-05,3.1640625,0,0
-2.14416795643047E-05,1.46070760820294E-05,3.1640625,0,0
-2.15390737139387E-05,1.46456359289004E-05,3.1640625,0,0
-2.20330639422173E-05,1.17545205284841E-05,3.1640625,0,0
-2.44750517595094E-05,9.1643651103368E-06,3.1640625,0,0
-2.48358937824378E-05,6.99675774740172E-06,3.1640625,0,0
-2.43733611569041E-05,7.24263964002603E-06,3.1640625,0,0
-2.31830690609058E-05,8.71023894433165E-06,3.1640625,0,0
-2.20699639612576E-05,8.12797679827781E-06,3.1640625,0,0
-1.85243188752793E-05,5.05854086441104E-06,3.1640625,0,0
-2.69658157776576E-05,6.3504353420285E-06,3.1640625,0,0
-2.11502374440897E-05,5.97673761149053E-06,3.1640625,0,0
-2.69867978204275E-05,1.06350607893546E-05,3.1640625,0,0
-2.4796278012218E-05,1.1966643796768E-05,3.1640625,0,0
-2.74765789072262E-05,1.48007047755527E-05,3.1640625,0,0
-2.57493957178667E-05,1.22194005598431E-05,3.1640625,0,0
-2.66250499407761E-05,8.76261310622795E-06,3.1640625,0,0
-2.56427592830732E-05,9.0045168690267E-06,3.1640625,0,0
-2.56328548857709E-05,1.17545923785656E-05,3.1640625,0,0
-2.57180836342741E-05,1.47909522638656E-05,3.1640625,0,0
-2.46843592321966E-05,1.60064446390606E-05,3.1640625,0,0
-2.51590608968399E-05,1.53470355144236E-05,3.1640625,0,0
-2.43801787291886E-05,1.32237710204208E-05,3.1640625,0,0
-2.4604834834463E-05,1.28789097288973E-05,3.1640625,0,0
-2.25513831537683E-05,1.3249320545583E-05,3.1640625,0,0
-2.42100559262326E-05,1.50347350427182E-05,3.1640625,0,0
-2.51716828643112E-05,1.5987230653991E-05,3.1640625,0,0
-2.6691102902987E-05,1.56764745042892E-05,3.1640625,0,0
-2.50697321462212E-05,1.43180914164986E-05,3.1640625,0,0
-2.4522460080334E-05,1.48448943946278E-05,3.1640625,0,0
-2.33498431043699E-05,1.56700752995675E-05,3.1640625,0,0
-2.38289758272003E-05,1.55299239850137E-05,3.1640625,0,0
-2.28598037210759E-05,1.35869531732169E-05,3.1640625,0,0
-2.18026707443642E-05,1.15446337076719E-05,3.1640625,0,0
-2.17486958717927E-05,9.1115234681638E-06,3.1640625,0,0
-2.22878352360567E-05,8.11193331173854E-06,3.1640625,0,0
-1.83889114850899E-05,9.38898756430717E-06,3.1640625,0,0
-2.71677708951756E-05,1.61184871103615E-05,3.1640625,0,0
-2.24587583943503E-05,1.45610183608369E-05,3.1640625,0,0
-2.80905205727322E-05,1.32233981275931E-05,3.1640625,0,0
-2.47977350227302E-05,5.88027705816785E-06,3.1640625,0,0
-2.60938995779725E-05,4.42083592133713E-06,3.1640625,0,0
-2.28245426114881E-05,2.629948539834E-06,3.1640625,0,0
-2.44885650317883E-05,1.71748513366765E-06,3.1640625,0,0
-2.44976308749756E-05,3.12116958411934E-06,3.1640625,0,0
-2.41310935962247E-05,6.0303796090011E-06,3.1640625,0,0
-2.42183305090293E-05,9.28157169255428E-06,3.1640625,0,0
-2.47358057094971E-05,1.13412488644826E-05,3.1640625,0,0
-2.66794049821328E-05,1.16858627734473E-05,3.1640625,0,0
-2.62508874584455E-05,9.5119130492094E-06,3.1640625,0,0
-2.77179478871403E-05,9.5260229500127E-06,3.1640625,0,0
-2.72005636361428E-05,1.02480080386158E-05,3.1640625,0,0
-2.83894314634381E-05,1.09877046270412E-05,3.1640625,0,0
-2.66654496954288E-05,9.86440045380732E-06,3.1640625,0,0
-2.59158114204183E-05,8.11188783700345E-06,3.1640625,0,0
-2.42295100179035E-05,4.96094526170054E-06,3.1640625,0,0
-2.48139422183158E-05,3.17972694574564E-06,3.1640625,0,0
-2.50999837589916E-05,3.38459221893572E-06,3.1640625,0,0
-2.74807516689179E-05,7.0469691308972E-06,3.1640625,0,0
-2.79402647720417E-05,1.16334604172152E-05,3.1640625,0,0
-2.6956500732922E-05,1.27390912894043E-05,3.1640625,0,0
-2.69186784862541E-05,9.10399285203312E-06,3.1640625,0,0
-2.85555724985898E-05,4.83754047309048E-06,3.1640625,0,0
-2.30050754908007E-05,2.73881482826255E-06,3.1640625,0,0
-3.17878948408179E-05,4.9074178605224E-06,3.1640625,0,0
-2.26990487135481E-05,5.62936338610598E-06,3.1640625,0,0
-2.78110783256125E-05,8.01304759079358E-06,3.1640625,0,0
-2.21574955503456E-05,8.53850633575348E-06,3.1640625,0,0
-2.48599299084162E-05,8.79057006386574E-06,3.1640625,0,0
-2.1637019017362E-05,7.73841293266742E-06,3.1640625,0,0
-2.26284082600614E-05,5.90006311540492E-06,3.1640625,0,0
-2.17940087168245E-05,6.32846695225453E-06,3.1640625,0,0
-2.24589566641953E-05,8.14473241916858E-06,3.1640625,0,0
-2.40057506744051E-05,8.28717384138145E-06,3.1640625,0,0
-2.39041964960052E-05,6.96914958098205E-06,3.1640625,0,0
-2.5031849872903E-05,5.67781262361677E-06,3.1640625,0,0
-2.4277760530822E-05,4.96290795126697E-06,3.1640625,0,0
-2.5548866688041E-05,4.08360438086675E-06,3.1640625,0,0
-2.37022377405083E-05,2.71337944468542E-06,3.1640625,0,0
-2.45134488068288E-05,2.78188508673338E-06,3.1640625,0,0
-2.29999732255237E-05,3.73451325685892E-06,3.1640625,0,0
-2.33192531595705E-05,3.87860382033978E-06,3.1640625,0,0
-2.08355741051491E-05,3.21412721859815E-06,3.1640625,0,0
-2.1191721316427E-05,2.90972366201459E-06,3.1640625,0,0
-2.14628180401633E-05,4.09768927056575E-06,3.1640625,0,0
-2.28615062951576E-05,7.28791519577499E-06,3.1640625,0,0
-2.25672447413672E-05,9.06947298062732E-06,3.1640625,0,0
-2.20506663026754E-05,9.44787097978406E-06,3.1640625,0,0
-2.18324239540379E-05,8.73809949553106E-06,3.1640625,0,0
-2.20634155994048E-05,8.41266864881618E-06,3.1640625,0,0
-1.78654008777812E-05,7.74647560319863E-06,3.1640625,0,0
-2.47931639023591E-05,1.18332409329014E-05,3.1640625,0,0
-1.90954706340563E-05,9.53859762375942E-06,3.1640625,0,0
-2.51450273935916E-05,8.94626191438874E-06,3.1640625,0,0
-2.18539080378832E-05,5.43047599421698E-06,3.1640625,0,0
-2.32512284128461E-05,8.53436813486042E-06,3.1640625,0,0
-2.06339718715753E-05,9.90629632724449E-06,3.1640625,0,0
-2.27683722187066E-05,1.07306459540268E-05,3.1640625,0,0
-2.35104544117348E-05,1.04070877569029E-05,3.1640625,0,0
-2.39205546677113E-05,1.0034332262876E-05,3.1640625,0,0
-2.54483911703574E-05,9.34364652493969E-06,3.1640625,0,0
-2.70239070232492E-05,9.92062905424973E-06,3.1640625,0,0
-2.84835150523577E-05,1.1416284905863E-05,3.1640625,0,0
-2.63710116996663E-05,1.11336557893083E-05,3.1640625,0,0
-2.59408589045051E-05,1.17318959382828E-05,3.1640625,0,0
-2.46254166995641E-05,1.29521722556092E-05,3.1640625,0,0
-2.60996421275195E-05,1.73795378941577E-05,3.1640625,0,0
-2.62029516306939E-05,2.11062233574921E-05,3.1640625,0,0
-2.84255129372468E-05,2.25225012400188E-05,3.1640625,0,0
-2.84636316791875E-05,2.10580910788849E-05,3.1640625,0,0
-2.93248012894765E-05,2.07165576284751E-05,4.21875,0,0
-2.81167776847724E-05,1.95291868294589E-05,4.21875,0,0
-2.69435422524111E-05,1.6587113350397E-05,4.21875,0,0
-2.46824511123123E-05,1.41445716508315E-05,4.21875,0,0
-2.40543722611619E-05,1.51743042806629E-05,4.21875,0,0
-2.46332583628828E-05,1.5132163753151E-05,4.21875,0,0
-2.49684580921894E-05,1.17928393592592E-05,4.21875,0,0
-1.91947001439985E-05,7.77731929701986E-06,4.21875,0,0
-2.6104931748705E-05,1.2986710316909E-05,4.21875,0,0
-1.89482307177968E-05,1.19177848318941E-05,4.21875,0,0
-2.43519334617304E-05,1.25472488434752E-05,4.21875,0,0
-1.96402324945666E-05,8.26912037155125E-06,4.21875,0,0
-2.24321283894824E-05,7.48842194298049E-06,4.21875,0,0
-2.09976660698885E-05,7.11957409293973E-06,4.21875,0,0
-2.2645444914815E-05,7.16322438165662E-06,4.21875,0,0
-2.10236285056453E-05,6.26659084446146E-06,4.21875,0,0
-1.95853808691027E-05,4.88645309815183E-06,4.21875,0,0
-1.96780893020332E-05,4.16341163145262E-06,4.21875,0,0
-1.85020871867891E-05,5.79176685278071E-06,4.21875,0,0
-1.85343087650836E-05,8.97504924068926E-06,4.21875,0,0
-1.72740983543918E-05,9.44266867008992E-06,4.21875,0,0
-1.8463637388777E-05,9.94200127024669E-06,4.21875,0,0
-1.80060833372409E-05,1.14585927804001E-05,4.21875,0,0
-2.01735529117286E-05,1.42318504003924E-05,4.21875,0,0
-2.00689701159718E-05,1.59232204168802E-05,4.21875,0,0
-2.1295971237123E-05,1.76605790329631E-05,4.21875,0,0
-2.10730649996549E-05,1.6396679711761E-05,4.21875,0,0
-2.35061052080709E-05,1.46755392052E-05,4.21875,0,0
-2.43216836679494E-05,1.52259844981018E-05,4.21875,0,0
-2.42704682023032E-05,1.54573099280242E-05,4.21875,0,0
-2.22376875171904E-05,1.36663284138194E-05,4.21875,0,0
-2.22572016355116E-05,1.41212276503211E-05,4.21875,0,0
-2.41863472183468E-05,1.52051288750954E-05,4.21875,0,0
-2.53160433203448E-05,1.3532870070776E-05,4.21875,0,0
-1.97438912437065E-05,9.11289862415288E-06,4.21875,0,0
-2.72687884717016E-05,1.24492089526029E-05,4.21875,0,0
-2.06216791411862E-05,9.10818289412418E-06,4.21875,0,0
-2.68929616140667E-05,1.17109957500361E-05,4.21875,0,0
-2.14217725442722E-05,8.67548988026101E-06,4.21875,0,0
-2.1613088392769E-05,9.63293859967962E-06,4.21875,0,0
-1.78005720954388E-05,9.91778597381199E-06,4.21875,0,0
-1.92351108125877E-05,1.07831401692238E-05,4.21875,0,0
-2.11770638998132E-05,9.41562211664859E-06,4.21875,0,0
-2.34916915360373E-05,7.73760075389873E-06,4.21875,0,0
-2.3289740056498E-05,7.11708798917243E-06,4.21875,0,0
-2.08358942472842E-05,8.46785223984625E-06,4.21875,0,0
-2.09589506994234E-05,1.08176673165872E-05,4.21875,0,0
-2.05841224669712E-05,1.10063410829753E-05,4.21875,0,0
-2.29167017096188E-05,1.20246386359213E-05,4.21875,0,0
-2.24376835831208E-05,1.27876228361856E-05,4.21875,0,0
-2.3529017198598E-05,1.35430182126584E-05,4.21875,0,0
-2.23992828978226E-05,1.17112622319837E-05,4.21875,0,0
-2.29431134357583E-05,1.16906958282925E-05,4.21875,0,0
-2.12695467780577E-05,1.21453531392035E-05,4.21875,0,0
-2.08002456929535E-05,1.26944050862221E-05,4.21875,0,0
-1.98311845451826E-05,1.16653081931872E-05,4.21875,0,0
-2.09676381928148E-05,1.19470196295879E-05,4.21875,0,0
-2.08011060749413E-05,1.45983412949136E-05,4.21875,0,0
-2.05540382012259E-05,1.79662401933456E-05,4.21875,0,0
-2.14209485420724E-05,1.80000497493893E-05,4.21875,0,0
-2.41713460127357E-05,1.61212083185092E-05,4.21875,0,0
-2.23418774112361E-05,1.15669363367488E-05,4.21875,0,0
-3.19836763083003E-05,1.6323770978488E-05,4.21875,0,0
-2.39545061049284E-05,1.32244267661008E-05,4.21875,0,0
-2.9446051485138E-05,1.58104485308286E-05,4.21875,0,0
-2.5807616111706E-05,1.12534034997225E-05,4.21875,0,0
-3.01023974316195E-05,1.19751903184806E-05,4.21875,0,0
-2.81219527096255E-05,8.44024998514215E-06,4.21875,0,0
-2.81568172795232E-05,8.29238615551731E-06,4.21875,0,0
-2.65368016698631E-05,1.06746838355321E-05,4.21875,0,0
-2.66022470896132E-05,1.30017106130254E-05,4.21875,0,0
-2.75156507996144E-05,1.34016972879181E-05,4.21875,0,0
