biceps_emg, triceps_emg, subject_position, position_estimate, brace_position
-1.93215582839912E-05,6.77309162711026E-06,1.58203125,0,0
-1.74537653947482E-05,3.95486131310463E-06,1.58203125,0,0
-1.40577922138618E-05,4.93213156005368E-06,1.58203125,0,0
-2.13437324418919E-05,9.95922255242476E-06,1.58203125,0,0
-1.79579419636866E-05,1.13767446237034E-05,1.58203125,0,0
-2.03736472030869E-05,1.39329367812024E-05,1.58203125,0,0
-1.64892135217087E-05,1.53171222336823E-05,1.58203125,0,0
-1.81547547981609E-05,1.59310384333367E-05,1.58203125,0,0
-1.71761148521909E-05,1.73574007931165E-05,1.58203125,0,0
-1.89135898835957E-05,2.04740972549189E-05,1.58203125,0,0
-1.96598830370931E-05,2.04124135052552E-05,1.58203125,0,0
-2.0210367438267E-05,1.88350677490234E-05,1.58203125,0,0
-1.94151325558778E-05,1.69242412084714E-05,1.58203125,0,0
-1.77026849996764E-05,1.53763139678631E-05,1.58203125,0,0
-1.77776382770389E-05,1.4795635252085E-05,1.58203125,0,0
-1.79462040250655E-05,1.34173142214422E-05,1.58203125,0,0
-2.06795957637951E-05,1.17236877485993E-05,1.58203125,0,0
-2.13630846701562E-05,1.04288519651163E-05,1.58203125,0,0
-2.26460888370639E-05,9.88545343716396E-06,1.58203125,0,0
-2.31930589507101E-05,8.16022748040268E-06,1.58203125,0,0
-2.63145229837392E-05,7.48726370147779E-06,1.58203125,0,0
-2.78913339570863E-05,8.04492447059602E-06,1.58203125,0,0
-2.85808146145428E-05,8.85608187672915E-06,1.58203125,0,0
-2.6936086214846E-05,7.72734165366273E-06,1.58203125,0,0
-2.57763531408273E-05,5.99144959778641E-06,1.58203125,0,0
-2.41864618146792E-05,6.39229074295145E-06,1.58203125,0,0
-2.24894192797365E-05,8.37236257211771E-06,1.58203125,0,0
-2.07509601750644E-05,9.18346177058993E-06,1.58203125,0,0
-2.1715679395129E-05,9.11231472855434E-06,1.58203125,0,0
-2.0973300706828E-05,4.20519108956796E-06,1.58203125,0,0
-3.21597908623517E-05,2.8609706532734E-06,1.58203125,0,0
-2.6285606509191E-05,6.04097408540838E-07,1.58203125,0,0
-2.96880698442692E-05,6.58258250041399E-06,1.58203125,0,0
-2.46524978138041E-05,6.86124303683755E-06,1.58203125,0,0
-2.82678538496839E-05,3.17845933750505E-06,1.58203125,0,0
-2.77165327133844E-05,-2.26448378271016E-06,1.58203125,0,0
-2.88060982711613E-05,-2.54070118899108E-06,1.58203125,0,0
-2.74334252026165E-05,-3.52917311374767E-07,1.58203125,0,0
-2.75759757641936E-05,5.97320195083739E-06,1.58203125,0,0
-2.83720964944223E-05,1.3249622497824E-05,1.58203125,0,0
-2.76787359325681E-05,1.65265082614496E-05,1.58203125,0,0
-2.78364841506118E-05,1.61704556376208E-05,1.58203125,0,0
-2.7087737180409E-05,1.36502148961881E-05,1.58203125,0,0
-2.98669838230126E-05,1.04790269688237E-05,1.58203125,0,0
-3.04255154333077E-05,6.53438246445148E-06,1.58203125,0,0
-3.18184393108822E-05,6.69173732603667E-06,1.58203125,0,0
-3.1431314710062E-05,8.46774037199793E-06,1.58203125,0,0
-3.38555328198709E-05,9.26613756746519E-06,1.58203125,0,0
-3.35723671014421E-05,8.90918454388157E-06,1.58203125,0,0
-3.3175791031681E-05,1.076406078937E-05,1.58203125,0,0
-3.10242685372941E-05,1.18618281703675E-05,1.58203125,0,0
-3.01126292470144E-05,1.27245748444693E-05,1.58203125,0,0
-2.99438797810581E-05,1.25897277030163E-05,1.58203125,0,0
-3.16910336550791E-05,9.81428729573963E-06,1.58203125,0,0
-3.16056284646038E-05,5.06276819578488E-06,1.58203125,0,0
-3.10235336655751E-05,2.75675233751826E-06,1.58203125,0,0
-2.57320643868297E-05,4.23251867687213E-06,1.58203125,0,0
-3.6704648664454E-05,7.03664591128472E-06,1.58203125,0,0
-2.79418381978758E-05,4.47010779680568E-06,1.58203125,0,0
-3.27117959386669E-05,5.99994746153243E-06,1.58203125,0,0
-2.51572146225953E-05,1.04874661701615E-05,1.58203125,0,0
-2.77118724625325E-05,1.10378550743917E-05,1.58203125,0,0
-2.36870655498933E-05,9.97665119939484E-06,1.58203125,0,0
-2.42898458964191E-05,1.28339152070112E-05,1.58203125,0,0
-2.36602918448625E-05,1.38263785629533E-05,1.58203125,0,0
-2.50528555625351E-05,1.50247506098822E-05,1.58203125,0,0
-2.55679988185875E-05,1.65710498549743E-05,1.58203125,0,0
-2.38407701544929E-05,1.39457933983067E-05,1.58203125,0,0
-2.42265832639532E-05,7.97548545961035E-06,1.58203125,0,0
-2.25651219807332E-05,2.11246606340865E-06,1.58203125,0,0
-2.40268109337194E-05,-1.36680921514198E-06,1.58203125,0,0
-2.26960746658733E-05,-1.99930809685611E-06,1.58203125,0,0
-2.34961989917792E-05,-9.77659965428757E-07,1.58203125,0,0
-2.00500508071855E-05,-3.93395424680421E-07,1.58203125,0,0
-1.86798461072613E-05,5.22336495123454E-06,1.58203125,0,0
-1.64452139870264E-05,1.83921110874508E-05,1.58203125,0,0
-1.78159461938776E-05,3.46401902788784E-05,1.58203125,0,0
-1.75752411450958E-05,4.52481399406679E-05,1.58203125,0,0
-1.71162628248567E-05,4.48716309620067E-05,1.58203125,0,0
-1.43476881930837E-05,3.56987329723779E-05,1.58203125,0,0
-1.34707461256767E-05,3.01863474305719E-05,1.58203125,0,0
-1.32982140712556E-05,3.14033313770778E-05,1.58203125,0,0
-1.53999371832469E-05,2.88574083242565E-05,1.58203125,0,0
-1.42063136081561E-05,1.99834375962382E-05,1.58203125,0,0
-1.87625864782603E-05,2.93972043436952E-05,1.58203125,0,0
-1.1832808922918E-05,2.34941035159864E-05,1.58203125,0,0
-1.50962523548515E-05,2.88173796434421E-05,1.58203125,0,0
-1.27248358694487E-05,2.24721825361485E-05,1.58203125,0,0
-1.45083249663003E-05,2.12724189623259E-05,1.58203125,0,0
-1.22074652608717E-05,1.82663370651426E-05,1.58203125,0,0
-1.27482480820618E-05,2.10895741474815E-05,1.58203125,0,0
-1.44084160638158E-05,1.9636754586827E-05,1.58203125,0,0
-1.63314234669087E-05,1.83316096808994E-05,1.58203125,0,0
-1.69701015693136E-05,1.92316165339435E-05,1.58203125,0,0
-1.66575428011129E-05,1.70247312780702E-05,1.58203125,0,0
-1.88507219718304E-05,1.44365894811926E-05,1.58203125,0,0
-2.08016717806458E-05,1.15488410301623E-05,1.58203125,0,0
-2.35120478464523E-05,1.2071540368197E-05,1.58203125,0,0
-2.21360842260765E-05,1.01936111605028E-05,1.58203125,0,0
-2.01212278625462E-05,9.4440983957611E-06,1.58203125,0,0
-1.83615320565877E-05,6.9415013967955E-06,1.58203125,0,0
-2.12151971936692E-05,8.42670760903275E-06,1.58203125,0,0
-2.29912675422383E-05,9.36888136493508E-06,1.58203125,0,0
-2.3947810404934E-05,1.08583826659014E-05,1.58203125,0,0
-2.31760768656386E-05,1.03450292954221E-05,1.58203125,0,0
-2.34484978136607E-05,1.09005795820849E-05,1.58203125,0,0
-2.43861923081568E-05,1.09521561171277E-05,1.58203125,0,0
-2.64182799583068E-05,8.76763078849763E-06,1.58203125,0,0
-2.71166245511267E-05,5.76124330109451E-06,1.58203125,0,0
-2.7217305614613E-05,5.32125432073371E-06,1.58203125,0,0
-2.31308986258227E-05,4.00394628741196E-06,1.58203125,0,0
-3.2910658774199E-05,5.8196701502311E-06,1.58203125,0,0
-2.37958356592571E-05,6.73733529765741E-06,1.58203125,0,0
-2.83617137029069E-05,1.17486679300782E-05,1.58203125,0,0
-2.41028574237134E-05,1.38448931465973E-05,1.58203125,0,0
-2.89655308733927E-05,1.30487915157573E-05,1.58203125,0,0
-2.6968833481078E-05,9.3108228611527E-06,1.58203125,0,0
-2.67146569967736E-05,7.06597256794339E-06,1.58203125,0,0
-2.48808701144299E-05,6.51265600026818E-06,1.58203125,0,0
-2.53493271884508E-05,9.3035869213054E-06,1.58203125,0,0
-2.50841530942125E-05,1.1067231753259E-05,1.58203125,0,0
-2.31387457461096E-05,8.12198413768783E-06,1.58203125,0,0
-2.40110821323469E-05,4.93138304591412E-06,1.58203125,0,0
-2.31588674068917E-05,4.3189138523303E-06,1.58203125,0,0
-2.46310555667151E-05,6.85749228068744E-06,1.58203125,0,0
-2.42748355958611E-05,7.86760938353837E-06,1.58203125,0,0
-2.64905575022567E-05,7.28764553059591E-06,1.58203125,0,0
-2.58187938015908E-05,6.43220027995994E-06,1.58203125,0,0
-2.68100247922121E-05,5.82212123845238E-06,1.58203125,0,0
-2.51274232141441E-05,2.65946550825902E-06,1.58203125,0,0
-2.54366714216303E-05,-8.1985683664243E-07,1.58203125,0,0
-2.49338736466598E-05,-2.13133148463385E-06,1.58203125,0,0
-2.60339329543058E-05,-7.40820169653489E-08,1.58203125,0,0
-2.63857309619198E-05,2.79130495073332E-06,1.58203125,0,0
-2.65131693595322E-05,2.99194107356016E-06,1.58203125,0,0
-2.57481515291147E-05,2.51088476943551E-06,1.58203125,0,0
-2.70646760327509E-05,5.48321941096219E-06,1.58203125,0,0
-2.30185833061114E-05,6.80164748700918E-06,1.58203125,0,0
-3.25628170685377E-05,8.49740081321215E-06,1.58203125,0,0
-2.43647355091525E-05,6.03174248681171E-06,1.58203125,0,0
-3.03006363537861E-05,1.05871577034122E-05,1.58203125,0,0
-2.62207940977532E-05,1.14945414679823E-05,1.58203125,0,0
-3.02499083773E-05,1.18633843158023E-05,1.58203125,0,0
-2.86839222098934E-05,9.82492019829806E-06,1.58203125,0,0
-3.00220854114741E-05,1.08438234747155E-05,1.58203125,0,0
-2.82796463579871E-05,9.86764007393504E-06,1.58203125,0,0
-2.66702900262317E-05,7.31132740838802E-06,1.58203125,0,0
-2.51939254667377E-05,5.38691620022291E-06,1.58203125,0,0
-2.37696294789203E-05,5.79742845729925E-06,1.58203125,0,0
-2.45181090576807E-05,8.15495604911121E-06,1.58203125,0,0
-2.3413876988343E-05,8.42410554469097E-06,1.58203125,0,0
-2.41674824792426E-05,7.70345377532067E-06,1.58203125,0,0
-2.15557320188964E-05,6.64805202177376E-06,1.58203125,0,0
-2.14177671296056E-05,7.72042312746635E-06,1.58203125,0,0
-1.96269120351644E-05,7.29537850929773E-06,1.58203125,0,0
-2.01595248654485E-05,6.43855582893593E-06,1.58203125,0,0
-1.79241924342932E-05,5.28321606907411E-06,1.58203125,0,0
-1.78752798092319E-05,6.25288657829515E-06,1.58203125,0,0
-1.78342561412137E-05,6.77034859108971E-06,1.58203125,0,0
-1.98360521608265E-05,7.09599316905951E-06,1.58203125,0,0
-1.99208552658092E-05,7.65445929573616E-06,1.58203125,0,0
-2.09305671887705E-05,8.67666676640511E-06,1.58203125,0,0
-2.37535914493492E-05,9.71929057413945E-06,1.58203125,0,0
-2.6983798306901E-05,1.19651958812028E-05,1.58203125,0,0
-2.08380715776002E-05,1.02039211924421E-05,1.58203125,0,0
-2.65763519564644E-05,1.34689016704215E-05,1.58203125,0,0
-1.70431922015268E-05,8.00892939878395E-06,1.58203125,0,0
-2.35468214668799E-05,9.58513464865973E-06,1.58203125,0,0
-1.97473109437851E-05,8.00811267254176E-06,1.58203125,0,0
-2.27580476348521E-05,1.03168249552255E-05,1.58203125,0,0
-1.96554992726306E-05,9.59186490945285E-06,1.58203125,0,0
-2.03931940632174E-05,1.0341052984586E-05,1.58203125,0,0
-1.92379538930254E-05,9.36111791816074E-06,1.58203125,0,0
-1.92284260265296E-05,1.15848542918684E-05,1.58203125,0,0
-1.94064014067408E-05,1.56816968228668E-05,1.58203125,0,0
-1.83718784683151E-05,1.65696037583984E-05,1.58203125,0,0
-1.85535736818565E-05,1.64823977684136E-05,1.58203125,0,0
-1.66961490322137E-05,1.66497266036458E-05,1.58203125,0,0
-1.87632958841277E-05,1.86967972695129E-05,1.58203125,0,0
-1.89795791811775E-05,1.73807165992912E-05,1.58203125,0,0
-2.00408139789943E-05,1.52000284288079E-05,1.58203125,0,0
-1.82049207069213E-05,1.17141726150294E-05,1.58203125,0,0
-2.04634761757916E-05,1.07680898508988E-05,1.58203125,0,0
-2.11035567190265E-05,1.11618428491056E-05,1.58203125,0,0
-2.27639975491911E-05,1.28410238176002E-05,1.58203125,0,0
-2.2747941329726E-05,1.23900381368003E-05,1.58203125,0,0
-2.36057985603111E-05,1.22482251754263E-05,1.58203125,0,0
-2.37375388678629E-05,1.33072971948422E-05,1.58203125,0,0
-2.4776287318673E-05,1.56683363456978E-05,1.58203125,0,0
-2.56553248618729E-05,1.62840042321477E-05,1.58203125,0,0
-2.6994886866305E-05,1.52129096022691E-05,1.58203125,0,0
-2.31563008128433E-05,1.25317874335451E-05,1.58203125,0,0
-3.20955186907668E-05,1.68747101270128E-05,1.58203125,0,0
-2.26768042921321E-05,9.45854935707757E-06,1.58203125,0,0
-2.85305395664182E-05,9.25135100260377E-06,1.58203125,0,0
-2.59974440268707E-05,3.47324862559617E-06,1.58203125,0,0
-3.09589704556856E-05,6.65658944853931E-07,1.58203125,0,0
-2.85260230157292E-05,-3.28898909174313E-06,1.58203125,0,0
-2.98969898722135E-05,-3.9767000998836E-06,1.58203125,0,0
-2.90931020572316E-05,-7.59388740334543E-06,1.58203125,0,0
-2.92941658699419E-05,-8.00676843937254E-06,1.58203125,0,0
-2.99399034702219E-05,-3.39687699124624E-06,1.58203125,0,0
-2.8442444090615E-05,1.06472270999802E-07,1.58203125,0,0
-2.76589908025926E-05,2.91979586108937E-06,1.58203125,0,0
-2.58336094702827E-05,7.06288892615703E-06,1.58203125,0,0
-2.77813433058327E-05,1.5420568161062E-05,1.58203125,0,0
-2.6783434805111E-05,2.12739578273613E-05,1.58203125,0,0
-2.81909578916384E-05,2.38724442169769E-05,1.58203125,0,0
-2.71187673206441E-05,2.15182390093105E-05,1.58203125,0,0
-2.82159035123186E-05,1.92213046830148E-05,1.58203125,0,0
-2.71587887255009E-05,1.59686715051066E-05,1.58203125,0,0
-2.76304999715649E-05,1.51920121425064E-05,1.58203125,0,0
-2.61183558905032E-05,1.68586248037172E-05,1.58203125,0,0
-2.51931523962412E-05,2.01296043087495E-05,1.58203125,0,0
-2.35496063396567E-05,1.82048352144193E-05,1.58203125,0,0
-2.37063213717192E-05,1.26778068079147E-05,1.58203125,0,0
-2.3496373614762E-05,7.65863114793319E-06,1.58203125,0,0
-2.30017340072664E-05,6.09379412708222E-06,1.58203125,0,0
-1.81315044756047E-05,5.87706063015503E-06,1.58203125,0,0
-2.49247950705467E-05,8.69240830070339E-06,1.58203125,0,0
-1.91265899047721E-05,5.67234701520647E-06,1.58203125,0,0
-2.63824313151417E-05,5.34162290932727E-06,1.58203125,0,0
-2.50670254899887E-05,2.91881610792188E-06,1.58203125,0,0
-2.79550040431786E-05,1.77953131696995E-06,1.58203125,0,0
-2.50276061706245E-05,8.76150011208665E-07,1.58203125,0,0
-2.5835950509645E-05,1.93604864762165E-06,1.58203125,0,0
-2.48000833380502E-05,2.84516795545642E-06,1.58203125,0,0
-2.34873095905641E-05,5.47008630746859E-06,1.58203125,0,0
-2.16357457247796E-05,9.11611095943954E-06,1.58203125,0,0
-2.03383933694568E-05,1.08002350316383E-05,1.58203125,0,0
-2.21483169298153E-05,1.22074861792498E-05,1.58203125,0,0
-2.15983145608334E-05,1.30276666823193E-05,1.58203125,0,0
-2.22279068111675E-05,1.19508395073353E-05,1.58203125,0,0
-2.06538661586819E-05,8.67124163050903E-06,1.58203125,0,0
-2.14056053664535E-05,7.97109441919019E-06,1.58203125,0,0
-2.09894278668799E-05,9.70352084550541E-06,1.58203125,0,0
-2.23281695070909E-05,1.24772495837533E-05,1.58203125,0,0
-2.12215963983908E-05,1.36852549985633E-05,1.58203125,0,0
-2.17108590732096E-05,1.34067668113858E-05,1.58203125,0,0
-2.14513529499527E-05,1.19518927022E-05,1.58203125,0,0
-2.24232426262461E-05,1.20861795949168E-05,1.58203125,0,0
-2.26550346269505E-05,1.32086343000992E-05,1.58203125,0,0
-2.30954155995278E-05,1.39992580443504E-05,1.58203125,0,0
-2.29239376494661E-05,1.46297797982697E-05,1.58203125,0,0
-2.25612875510706E-05,1.63566674018512E-05,1.58203125,0,0
-1.75785753526725E-05,1.5094149603101E-05,1.58203125,0,0
-2.4159064196283E-05,2.12337472476065E-05,1.58203125,0,0
-1.7009913790389E-05,1.40765851028846E-05,1.58203125,0,0
-2.16920088860206E-05,1.78694190253736E-05,1.58203125,0,0
-2.00031827262137E-05,1.57275644596666E-05,1.58203125,0,0
-2.48436081164982E-05,1.53840828716056E-05,1.58203125,0,0
-2.44419261434814E-05,1.23357804113766E-05,1.58203125,0,0
-2.58398540609051E-05,1.34463834911003E-05,1.58203125,0,0
-2.47854877670761E-05,1.27367138702539E-05,1.58203125,0,0
-2.45121482294053E-05,1.2892347513116E-05,1.58203125,0,0
-2.56734729191521E-05,1.32947070596856E-05,1.58203125,0,0
-2.71938515652437E-05,1.21405000754748E-05,1.58203125,0,0
-2.90404532279354E-05,1.18011257654871E-05,1.58203125,0,0
-2.77157705568243E-05,1.01106252259342E-05,1.58203125,0,0
-2.81930915662088E-05,1.08300546344253E-05,1.58203125,0,0
-2.75007187156007E-05,1.19091382657643E-05,1.58203125,0,0
-2.90389962174231E-05,1.50082605614443E-05,1.58203125,0,0
-2.83224708255148E-05,1.41471100505441E-05,1.58203125,0,0
-2.91136693704175E-05,1.15046559585608E-05,1.58203125,0,0
-2.77454764727736E-05,8.47601404529996E-06,1.58203125,0,0
-2.69680749624968E-05,1.05909748526756E-05,1.58203125,0,0
-2.4970493541332E-05,1.4265803656599E-05,1.58203125,0,0
-2.57823066931451E-05,1.81564937520307E-05,1.58203125,0,0
-2.78122424788307E-05,2.00695631065173E-05,1.58203125,0,0
-2.89975032501388E-05,2.07110933843069E-05,1.58203125,0,0
-2.75532820523949E-05,1.95913125935476E-05,1.58203125,0,0
-2.71651169896359E-05,1.81515842996305E-05,1.58203125,0,0
-2.30032346735243E-05,1.13036339826067E-05,1.58203125,0,0
-3.1392861274071E-05,1.34309757413575E-05,1.58203125,0,0
-2.12432223634096E-05,6.90404840497649E-06,1.58203125,0,0
-2.70089731202461E-05,1.04674227259238E-05,1.58203125,0,0
-2.33293467317708E-05,8.24644757813076E-06,1.58203125,0,0
-2.72663855866995E-05,5.91608568356605E-06,1.58203125,0,0
-2.52379268204095E-05,-1.28881004002324E-06,1.58203125,0,0
-2.69876763923094E-05,-3.32844047079561E-06,1.58203125,0,0
-2.76046685030451E-05,-3.97358917325619E-06,1.58203125,0,0
-2.85137739410857E-05,-4.63396673922034E-07,1.58203125,0,0
-2.62759640463628E-05,4.17788805862074E-06,1.58203125,0,0
-2.12854556593811E-05,5.64724723517429E-06,1.58203125,0,0
-1.99025744223036E-05,6.69841620037914E-06,1.58203125,0,0
-1.82581025001127E-05,7.49570153857348E-06,1.58203125,0,0
-1.96675373445032E-05,8.04477258498082E-06,1.58203125,0,0
-1.83767660928424E-05,4.15135218645446E-06,1.58203125,0,0
-1.88103476830292E-05,1.98794691641524E-06,1.58203125,0,0
-1.62631858984241E-05,7.12356154508598E-07,1.58203125,0,0
-1.71785341080977E-05,1.4773086149944E-06,1.58203125,0,0
-1.77385572897037E-05,1.63774325301347E-06,1.58203125,0,0
-2.02249157155165E-05,5.50667891729972E-06,1.58203125,0,0
-2.02194332814543E-05,1.10025603135E-05,1.58203125,0,0
-2.09969730349258E-05,1.61288717208663E-05,1.58203125,0,0
-2.15347536141053E-05,1.62984852067893E-05,1.58203125,0,0
-2.27341679419624E-05,1.52519560288056E-05,1.58203125,0,0
-2.17905580939259E-05,1.50621899592807E-05,1.58203125,0,0
-2.04500538529828E-05,1.57107788254507E-05,1.58203125,0,0
-1.64974753715796E-05,1.34747124320711E-05,1.58203125,0,0
-2.39183245867025E-05,1.81088362296578E-05,1.58203125,0,0
-2.00236409000354E-05,1.15540433398564E-05,1.58203125,0,0
-2.6203100787825E-05,1.60502895596437E-05,1.58203125,0,0
-2.4054003006313E-05,1.71442206919892E-05,1.58203125,0,0
-2.67042487394065E-05,2.03156523639336E-05,1.58203125,0,0
-2.45869905484142E-05,1.79759790626122E-05,1.58203125,0,0
-2.5030312826857E-05,1.78287973540137E-05,1.58203125,0,0
-2.39942273765337E-05,1.48088774949429E-05,1.58203125,0,0
-2.34667677432299E-05,1.28286883409601E-05,1.58203125,0,0
-2.38021475524874E-05,1.37296901812078E-05,1.58203125,0,0
-2.34483486565296E-05,1.61623484018492E-05,1.58203125,0,0
-2.34375947911758E-05,1.97753324755467E-05,1.58203125,0,0
-2.23242477659369E-05,1.97311637748498E-05,1.58203125,0,0
-2.44871916947886E-05,1.90854589163791E-05,1.58203125,0,0
-2.50626580964308E-05,1.79442449734779E-05,1.58203125,0,0
-2.67154082393972E-05,1.91865801753011E-05,1.58203125,0,0
-2.56564544542925E-05,1.80298502527876E-05,1.58203125,0,0
-2.46505333052482E-05,1.77336205524625E-05,1.58203125,0,0
-2.14116753340932E-05,1.64301854965743E-05,1.58203125,0,0
-2.06026506930357E-05,1.6312353182002E-05,1.58203125,0,0
-2.01348411792424E-05,1.46590400618152E-05,1.58203125,0,0
-2.09893551073037E-05,1.24577927635983E-05,1.58203125,0,0
-2.19506910070777E-05,1.01006917248014E-05,1.58203125,0,0
-2.37350268434966E-05,1.04686623672023E-05,1.58203125,0,0
-2.36588057305198E-05,1.17147737910273E-05,1.58203125,0,0
-2.36321102420334E-05,1.30893768073292E-05,1.58203125,0,0
-2.12409049709095E-05,1.21318234960199E-05,1.58203125,0,0
-3.11053045152221E-05,1.79961334652035E-05,1.58203125,0,0
-2.35900461120764E-05,1.47942037074245E-05,1.58203125,0,0
-2.74566664302256E-05,1.94336043932708E-05,1.58203125,0,0
-2.36243904510047E-05,1.64474386110669E-05,1.58203125,0,0
-2.71535463980399E-05,1.02762123788125E-05,1.58203125,0,0
-2.45356186496792E-05,2.30731052397459E-06,1.58203125,0,0
-2.57380088442005E-05,1.24925486488792E-06,1.58203125,0,0
-2.56752609857358E-05,-2.21519030674244E-06,1.58203125,0,0
-2.65973358182237E-05,-4.11607243222534E-06,1.58203125,0,0
-2.69444008154096E-05,-3.7907532259851E-06,1.58203125,0,0
-2.55317700066371E-05,-5.45655757377972E-06,1.58203125,0,0
-2.47914158535423E-05,-6.38098890703986E-06,1.58203125,0,0
-2.08614255825523E-05,-6.3146258071356E-06,1.58203125,0,0
-1.97533972823294E-05,-2.51539518103527E-06,1.58203125,0,0
-1.86545275937533E-05,1.24213181607047E-06,1.58203125,0,0
-2.13087569136405E-05,6.34413618172402E-06,1.58203125,0,0
-2.15297950489912E-05,8.85153076524148E-06,1.58203125,0,0
-2.27313503273763E-05,1.06838479041471E-05,1.58203125,0,0
-2.07104239962064E-05,1.02797739600646E-05,1.58203125,0,0
-2.0686537027359E-05,9.66635798249627E-06,1.58203125,0,0
-2.15001364267664E-05,6.383211712091E-06,1.58203125,0,0
-2.34992821788182E-05,4.76135164717562E-06,1.58203125,0,0
-2.3140059056459E-05,5.95572419115342E-06,1.58203125,0,0
-2.27753116632812E-05,9.13580242922762E-06,1.58203125,0,0
-2.22668732021702E-05,1.20870954560814E-05,1.58203125,0,0
-2.1876070604776E-05,1.38527175295167E-05,1.58203125,0,0
-1.77217607415514E-05,1.17037261588848E-05,1.58203125,0,0
-2.5002334950841E-05,1.57266567839542E-05,1.58203125,0,0
-1.8879243725678E-05,1.15964230644749E-05,1.58203125,0,0
-2.3990789486561E-05,1.60927775141317E-05,1.58203125,0,0
-2.10782072826987E-05,1.32480408865376E-05,1.58203125,0,0
-2.27086457016412E-05,1.23018435260747E-05,1.58203125,0,0
-1.99115002033068E-05,1.07629839476431E-05,1.58203125,0,0
-2.16123444261029E-05,1.32355935420492E-05,1.58203125,0,0
-2.31016856560018E-05,1.30660982904374E-05,1.58203125,0,0
-2.50960019911872E-05,1.31944261738681E-05,1.58203125,0,0
-2.58816507994197E-05,1.25043734442443E-05,1.58203125,0,0
-2.48713895416586E-05,1.02185122159426E-05,1.58203125,0,0
-2.38558859564364E-05,8.34285219752928E-06,1.58203125,0,0
-2.09671852644533E-05,6.13934980719932E-06,1.58203125,0,0
-2.16681801248342E-05,5.17795842824853E-06,1.58203125,0,0
-2.23075130634243E-05,1.92049060387944E-06,1.58203125,0,0
-2.53166726906784E-05,1.23514197980512E-07,1.58203125,0,0
-2.55835038842633E-05,-1.95072243514005E-06,1.58203125,0,0
-2.6837389668799E-05,4.17184025991446E-07,1.58203125,0,0
-2.65086928266101E-05,5.24312690686202E-06,1.58203125,0,0
-2.68686872004764E-05,1.10836372186895E-05,1.58203125,0,0
-2.52208210440585E-05,1.30115058709634E-05,1.58203125,0,0
-2.4574075723649E-05,1.38187988341087E-05,1.58203125,0,0
-2.39314067584928E-05,1.28567771753296E-05,1.58203125,0,0
-2.59426906268345E-05,1.3919272532803E-05,1.58203125,0,0
-2.73348596238066E-05,1.67724501807243E-05,1.58203125,0,0
-2.70417331194039E-05,1.73764819919597E-05,1.58203125,0,0
-2.02817609533668E-05,1.56658843479818E-05,1.58203125,0,0
-2.84457146335626E-05,2.43467475229409E-05,1.58203125,0,0
-2.20277179323602E-05,1.90163045772351E-05,1.58203125,0,0
-2.85859241557773E-05,2.1135003407835E-05,1.58203125,0,0
-2.58639938692795E-05,1.84705404535634E-05,1.58203125,0,0
-3.07491900457535E-05,1.92154257092625E-05,1.58203125,0,0
-2.89547115244204E-05,1.61561856657499E-05,1.58203125,0,0
-2.91370688501047E-05,1.4957777239033E-05,1.58203125,0,0
-2.76844766631257E-05,1.15992006612942E-05,1.58203125,0,0
-2.74824360531056E-05,1.04042901512003E-05,1.58203125,0,0
-2.63491911027813E-05,1.09416860141209E-05,1.58203125,0,0
-2.49445183726493E-05,1.03299635156873E-05,1.58203125,0,0
-2.68437433987856E-05,1.10686605694355E-05,1.58203125,0,0
-2.68055027845548E-05,1.19316591735696E-05,1.58203125,0,0
-2.69562478933949E-05,1.28327528727823E-05,1.58203125,0,0
-2.39526652876521E-05,1.01362793429871E-05,1.58203125,0,0
-2.45544761128258E-05,1.03001593743102E-05,1.58203125,0,0
-2.40975659835385E-05,1.12846255433396E-05,1.58203125,0,0
-2.59580738202203E-05,1.20611302918405E-05,1.58203125,0,0
-2.53418384090764E-05,9.35983825911535E-06,1.58203125,0,0
-2.53217949648388E-05,8.02510840003379E-06,1.58203125,0,0
-2.39445325860288E-05,7.12369364919141E-06,1.58203125,0,0
-2.39202217926504E-05,9.71614463196602E-06,1.58203125,0,0
-2.23484003072372E-05,1.27951125250547E-05,1.58203125,0,0
-2.17368524317862E-05,1.27873763631214E-05,1.58203125,0,0
-2.12839877349325E-05,1.05154385892092E-05,1.58203125,0,0
-2.08507426577853E-05,9.39395158638945E-06,1.58203125,0,0
-1.66321824508486E-05,7.65899767429801E-06,1.58203125,0,0
-2.34549970627995E-05,1.17222007247619E-05,1.58203125,0,0
-1.88371686817845E-05,9.63018101174384E-06,1.58203125,0,0
-2.49496952164918E-05,1.32396526169032E-05,1.58203125,0,0
-2.17304113903083E-05,1.33782650664216E-05,1.58203125,0,0
-2.40321078308625E-05,1.13874393719016E-05,1.58203125,0,0
-2.30143541557482E-05,9.15490636543836E-06,1.58203125,0,0
-2.38792508753249E-05,1.03513993963134E-05,1.58203125,0,0
-2.31863705266733E-05,8.97949212230742E-06,1.58203125,0,0
-2.44665152422385E-05,7.00837927070097E-06,1.58203125,0,0
-2.74272697424749E-05,7.27622136764694E-06,1.58203125,0,0
-2.83304780168692E-05,8.16163355921162E-06,1.58203125,0,0
-2.82201526715653E-05,1.05798135336954E-05,1.58203125,0,0
-2.67453433480114E-05,1.32120330817997E-05,1.58203125,0,0
-2.81934189843014E-05,1.49545066960854E-05,1.58203125,0,0
-2.77172966889339E-05,1.45230942507624E-05,1.58203125,0,0
-2.788543679344E-05,1.4734330761712E-05,1.58203125,0,0
-2.58998989011161E-05,1.36123026095447E-05,1.58203125,0,0
-2.60684373643016E-05,1.19430551421829E-05,1.58203125,0,0
-2.54236729233526E-05,9.91620709100971E-06,1.58203125,0,0
-2.64849204540951E-05,1.01775431176065E-05,1.58203125,0,0
-2.66572405962506E-05,1.11210110844695E-05,1.58203125,0,0
-2.66070801444585E-05,1.12927391455742E-05,1.58203125,0,0
-2.4308150386787E-05,1.09613110907958E-05,1.58203125,0,0
-2.34265990002314E-05,1.15040766104357E-05,1.58203125,0,0
-2.38964930758812E-05,1.16354358397075E-05,1.58203125,0,0
-2.39025393966585E-05,1.1228580660827E-05,1.58203125,0,0
-1.83825723070186E-05,9.52576101553859E-06,1.58203125,0,0
-2.58597519859904E-05,1.34182373585645E-05,1.58203125,0,0
-2.00364574993728E-05,8.73852241056738E-06,1.58203125,0,0
-2.52381450991379E-05,1.0628463314788E-05,1.58203125,0,0
-2.13187449844554E-05,1.03566935649724E-05,1.58203125,0,0
-2.38536449614912E-05,1.23352347145556E-05,1.58203125,0,0
-2.19836947508156E-05,1.26063678180799E-05,1.58203125,0,0
-2.43194663198665E-05,1.48688595800195E-05,1.58203125,0,0
-2.38170705415541E-05,1.24814177979715E-05,1.58203125,0,0
-2.20953916141298E-05,1.09171678559505E-05,1.58203125,0,0
-2.01217080757488E-05,1.25164497148944E-05,1.58203125,0,0
-1.86029774340568E-05,1.32037630464765E-05,1.58203125,0,0
-1.97212630155263E-05,1.43789357025526E-05,1.58203125,0,0
-1.94180393009447E-05,1.53556320583448E-05,1.58203125,0,0
-2.08966430363944E-05,1.71606643561972E-05,1.58203125,0,0
-1.99499208974885E-05,1.63862696354045E-05,1.58203125,0,0
-2.08205492526758E-05,1.47823375300504E-05,1.58203125,0,0
-1.96740184037481E-05,1.04341634141747E-05,1.58203125,0,0
-2.09946410905104E-05,6.21081380813848E-06,1.58203125,0,0
-2.06471795536345E-05,1.64609014063899E-06,1.58203125,0,0
-2.16292264667572E-05,-2.79646684475665E-07,1.58203125,0,0
-2.20841757254675E-05,-2.20964054165051E-07,1.58203125,0,0
-2.43312933889683E-05,3.68681889995059E-06,1.58203125,0,0
-2.4263634259114E-05,9.96766175376251E-06,1.58203125,0,0
-2.34888739214512E-05,1.47108203236712E-05,1.58203125,0,0
-2.27934924623696E-05,1.52970733324764E-05,1.58203125,0,0
-2.29626421059947E-05,1.3006399058213E-05,1.58203125,0,0
-2.02912669919897E-05,9.53172366280342E-06,1.58203125,0,0
-2.96159887511749E-05,1.31494789457065E-05,1.58203125,0,0
-2.35086736211088E-05,9.50116009335034E-06,1.58203125,0,0
-2.85667429125169E-05,1.22640649351524E-05,1.58203125,0,0
-2.45580849878024E-05,1.11547496999265E-05,1.58203125,0,0
-2.8049762477167E-05,1.35762711579446E-05,1.58203125,0,0
-2.64743939624168E-05,1.52504762809258E-05,1.58203125,0,0
-2.76990940619726E-05,1.82212297659134E-05,1.58203125,0,0
-2.62582798313815E-05,1.58077382366173E-05,1.58203125,0,0
-2.54418937402079E-05,1.00986353572807E-05,1.58203125,0,0
-2.57946721831104E-05,4.16293278249213E-06,1.58203125,0,0
-2.52080862992443E-05,1.8950117919303E-06,1.58203125,0,0
-2.50774646701757E-05,5.49927563042729E-06,1.58203125,0,0
-2.25462681555655E-05,9.91378510661889E-06,1.58203125,0,0
-2.35123734455556E-05,1.37894576255349E-05,1.58203125,0,0
-2.2899979740032E-05,1.57926606334513E-05,1.58203125,0,0
-2.32373822655063E-05,1.80242568603717E-05,1.58203125,0,0
-2.1046047550044E-05,1.78753107320517E-05,1.58203125,0,0
-2.19109624595148E-05,1.73139487742446E-05,1.58203125,0,0
-2.23770930460887E-05,1.33725898194825E-05,1.58203125,0,0
-2.5030349206645E-05,1.02180774774752E-05,1.58203125,0,0
-2.54306032729801E-05,8.50810647534672E-06,1.58203125,0,0
-2.45840637944639E-05,8.51400272949832E-06,1.58203125,0,0
-2.21291029447457E-05,9.70401742961258E-06,1.58203125,0,0
-2.1033440134488E-05,1.00349980129977E-05,1.58203125,0,0
-1.97192966879811E-05,6.6604857238417E-06,1.58203125,0,0
-1.92283532669535E-05,3.44962381859659E-06,1.58203125,0,0
-1.62246633408358E-05,5.70006420730351E-07,1.58203125,0,0
-2.30047407967504E-05,6.1884315982752E-07,1.58203125,0,0
-1.83339034265373E-05,-3.38515292241937E-07,1.58203125,0,0
-2.36840642173775E-05,-5.66444498417695E-07,1.58203125,0,0
-2.01628972718026E-05,2.69290444521175E-06,1.58203125,0,0
-2.131525434379E-05,7.43926784707583E-06,1.58203125,0,0
-1.97190129256342E-05,1.07669720819104E-05,1.58203125,0,0
-2.17886008613277E-05,1.4828355233476E-05,1.58203125,0,0
-2.12301329156617E-05,1.78499049070524E-05,1.58203125,0,0
-1.97709068743279E-05,1.84315722435713E-05,1.58203125,0,0
-1.77644797076937E-05,1.57221729750745E-05,1.58203125,0,0
-1.57645881699864E-05,1.15034135887981E-05,1.58203125,0,0
-1.67377911566291E-05,1.08791409729747E-05,1.58203125,0,0
-1.65487781487172E-05,1.15818475023843E-05,1.58203125,0,0
-1.83376032509841E-05,9.32336024561664E-06,1.58203125,0,0
-1.84304717549821E-05,4.95674885314656E-06,1.58203125,0,0
-1.93642554222606E-05,2.24855898522947E-06,1.58203125,0,0
-1.8029031707556E-05,2.16774219552462E-06,1.58203125,0,0
-1.89251022675307E-05,4.19259868067456E-06,1.58203125,0,0
-1.95660868484993E-05,6.75311775921728E-06,1.58203125,0,0
-2.25356634473428E-05,9.74462727754144E-06,1.58203125,0,0
-2.37962922255974E-05,1.26880395328044E-05,1.58203125,0,0
-2.38386801356683E-05,1.28515666801832E-05,1.58203125,0,0
-2.27575637836708E-05,9.49890181800583E-06,1.58203125,0,0
-2.2068636098993E-05,2.90705997940677E-06,1.58203125,0,0
-2.08187757380074E-05,-1.4773266912016E-06,1.58203125,0,0
-2.19555549847428E-05,-9.50683613609726E-07,1.58203125,0,0
-2.00167887669522E-05,9.65300955613202E-07,1.58203125,0,0
-3.00217961921589E-05,2.3934469481901E-06,1.58203125,0,0
-2.54926326306304E-05,3.96504810851184E-06,1.58203125,0,0
-3.17740232276265E-05,7.82454389991472E-06,1.58203125,0,0
-2.65557755483314E-05,1.17084900921327E-05,1.58203125,0,0
-2.76918945019133E-05,1.33680878207088E-05,1.58203125,0,0
-2.54501937888563E-05,1.51116501001525E-05,1.58203125,0,0
-2.61614441114943E-05,1.44530577017576E-05,1.58203125,0,0
-2.62384801317239E-05,9.84493271971587E-06,1.58203125,0,0
-2.69159681920428E-05,6.69918381390744E-06,1.58203125,0,0
-2.79206597042503E-05,7.63705156714423E-06,1.58203125,0,0
-2.88751143671107E-05,9.3272892627283E-06,1.58203125,0,0
-3.03117321891477E-05,1.08673229988199E-05,1.58203125,0,0
-2.87393140752101E-05,1.35310574478353E-05,1.58203125,0,0
-2.96419948426774E-05,1.58990897034528E-05,1.58203125,0,0
-2.99758230539737E-05,1.66927820828278E-05,1.58203125,0,0
-3.18147904181387E-05,1.57118774950504E-05,1.58203125,0,0
-3.02175085380441E-05,1.4639535038441E-05,1.58203125,0,0
-2.95302215818083E-05,1.52312986756442E-05,1.58203125,0,0
-2.77190356428036E-05,1.63182303367648E-05,1.58203125,0,0
-2.82704022538383E-05,1.6591440726188E-05,1.58203125,0,0
-2.69089068751782E-05,1.612154119357E-05,1.58203125,0,0
-2.63640649791341E-05,1.48561293826788E-05,1.58203125,0,0
-2.51691853918601E-05,1.4934797945898E-05,1.58203125,0,0
-2.50567700277315E-05,1.64919383678352E-05,1.58203125,0,0
-2.5704375730129E-05,1.61014522745973E-05,1.58203125,0,0
-2.68183648586273E-05,1.58173697855091E-05,1.58203125,0,0
-2.19118956010789E-05,1.29003492475022E-05,1.58203125,0,0
-3.06379261019174E-05,1.97341723833233E-05,1.58203125,0,0
-2.31008943956112E-05,1.58843649842311E-05,1.58203125,0,0
-2.97612095891964E-05,1.84880755114136E-05,1.58203125,0,0
-2.57179835898569E-05,1.54000790644204E-05,1.58203125,0,0
-2.90539846901083E-05,1.63279710250208E-05,1.58203125,0,0
-2.68066196440486E-05,1.5673263987992E-05,1.58203125,0,0
-2.7787637009169E-05,1.7129994375864E-05,1.58203125,0,0
-2.68039038928691E-05,1.55044272105442E-05,1.58203125,0,0
-2.64328100456623E-05,1.61085426952923E-05,1.58203125,0,0
-2.51097699219827E-05,1.76563171407906E-05,1.58203125,0,0
-2.33262926485622E-05,1.74822635017335E-05,1.58203125,0,0
-2.46473246079404E-05,1.8044203898171E-05,1.58203125,0,0
-2.52208392339526E-05,1.80193746928126E-05,1.58203125,0,0
-2.84693524008617E-05,1.77808014996117E-05,1.58203125,0,0
-2.77157359960256E-05,1.37068263939E-05,1.58203125,0,0
-2.75526745099342E-05,1.04545406429679E-05,1.58203125,0,0
-2.44661696342519E-05,7.09295045453473E-06,1.58203125,0,0
-2.4521621526219E-05,6.42713303022902E-06,1.58203125,0,0
-2.35074039665051E-05,6.42805980533012E-06,1.58203125,0,0
-2.37372023548232E-05,8.85413282958325E-06,1.58203125,0,0
-2.13038565561874E-05,9.81358516582986E-06,1.58203125,0,0
-2.12735430977773E-05,9.13099665922346E-06,1.58203125,0,0
-2.20008332689758E-05,6.74675629852572E-06,1.58203125,0,0
-2.28402150241891E-05,7.44529779694858E-06,1.58203125,0,0
-2.37713393289596E-05,1.01294963315013E-05,1.58203125,0,0
-2.57762476394419E-05,1.03100428532343E-05,1.58203125,0,0
-2.02896280825371E-05,6.41485485175508E-06,1.58203125,0,0
-2.58055479207542E-05,9.73871192400111E-06,1.58203125,0,0
-1.54381996253505E-05,7.26559574104613E-06,1.58203125,0,0
-2.06983895623125E-05,8.91050603968324E-06,1.58203125,0,0
-1.80227125383681E-05,9.98672021523817E-06,1.58203125,0,0
-2.32896018133033E-05,1.198912923428E-05,1.58203125,0,0
-2.15765285247471E-05,1.2759921446559E-05,1.58203125,0,0
-2.15349300560774E-05,1.41730643008486E-05,1.58203125,0,0
-1.96736236830475E-05,1.26011746033328E-05,1.58203125,0,0
-1.98636880668346E-05,1.31724800667143E-05,1.58203125,0,0
-2.10100588446949E-05,1.54607660078909E-05,1.58203125,0,0
-2.20706551772309E-05,1.48564668052131E-05,1.58203125,0,0
-2.42584210354835E-05,1.31068391056033E-05,1.58203125,0,0
-2.27649161388399E-05,1.15439815999707E-05,1.58203125,0,0
-2.32741749641718E-05,9.10664948605699E-06,1.58203125,0,0
-2.22896960622165E-05,5.46267483514384E-06,1.58203125,0,0
-2.37843305512797E-05,6.41450787952635E-06,1.58203125,0,0
-2.20279052882688E-05,1.02310423244489E-05,1.58203125,0,0
-2.18160366785014E-05,1.35994241645676E-05,1.58203125,0,0
-2.03032523131697E-05,1.30173557408853E-05,1.58203125,0,0
-2.16279895539628E-05,1.13229216367472E-05,1.58203125,0,0
-2.23509177885717E-05,1.05526069091866E-05,1.58203125,0,0
-2.42812075157417E-05,1.15409229692887E-05,1.58203125,0,0
-2.44794682657812E-05,1.39626463351306E-05,1.58203125,0,0
-2.34889685089001E-05,1.70773892023135E-05,1.58203125,0,0
-2.01414441107772E-05,1.6875837900443E-05,1.58203125,0,0
-1.75541317730676E-05,1.47621658470598E-05,1.58203125,0,0
-1.43300067065866E-05,1.06075476651313E-05,1.58203125,0,0
-2.14681385841686E-05,1.55019133671885E-05,1.58203125,0,0
-1.81236373464344E-05,1.16830660772393E-05,1.58203125,0,0
-2.19125886360416E-05,1.43390625453321E-05,1.58203125,0,0
-1.91179660760099E-05,1.12740690383362E-05,1.58203125,0,0
-2.12621434911853E-05,9.65947128861444E-06,1.58203125,0,0
-1.94150652532699E-05,8.13784572528675E-06,1.58203125,0,0
-1.92580755538074E-05,1.09073180283303E-05,1.58203125,0,0
-1.82354960998055E-05,1.16080373118166E-05,1.58203125,0,0
-1.85076514753746E-05,1.19183832794079E-05,1.58203125,0,0
-2.013576340687E-05,1.01206651379471E-05,1.58203125,0,0
-2.14510255318601E-05,4.72427655040519E-06,1.58203125,0,0
-2.36055384448264E-05,1.56450118993234E-06,1.58203125,0,0
-2.40582521655597E-05,2.34622052630584E-06,1.58203125,0,0
-2.59062562690815E-05,5.15375040777144E-06,1.58203125,0,0
-2.64364807662787E-05,4.84950260215555E-06,1.58203125,0,0
-2.79154392046621E-05,5.17026683155564E-06,1.58203125,0,0
-2.70154760073638E-05,5.7166321312252E-06,1.58203125,0,0
-2.76961509371176E-05,6.96258757670876E-06,1.58203125,0,0
-2.82125838566571E-05,6.48344621367869E-06,1.58203125,0,0
-3.06198890029918E-05,5.577662250289E-06,1.58203125,0,0
-3.18578640872147E-05,2.42031183006475E-06,1.58203125,0,0
-3.09491078951396E-05,5.66395215173543E-07,1.58203125,0,0
-2.76475420832867E-05,1.5474921610803E-07,1.58203125,0,0
-2.53841462836135E-05,1.74010483533493E-06,1.58203125,0,0
-2.45949358941289E-05,4.63913784187753E-06,1.58203125,0,0
-2.50003067776561E-05,9.78885964286746E-06,1.58203125,0,0
-2.02829105546698E-05,9.3926464614924E-06,1.58203125,0,0
-2.77840681519592E-05,1.24348453027778E-05,1.58203125,0,0
-1.85490625881357E-05,8.58370458445279E-06,1.58203125,0,0
-2.15051168197533E-05,1.16104274638928E-05,1.58203125,0,0
-1.56864607561147E-05,7.42330666980706E-06,1.58203125,0,0
-1.8883052689489E-05,4.12675626648706E-06,1.58203125,0,0
-1.88457252079388E-05,2.42670068928419E-07,1.58203125,0,0
-2.22519138333155E-05,4.96243217185111E-07,1.58203125,0,0
-2.29495744861197E-05,1.6267084674837E-06,1.58203125,0,0
-2.32617767323973E-05,5.01183058077004E-06,1.58203125,0,0
-2.33035552810179E-05,8.05522267910419E-06,1.58203125,0,0
-2.24633349716896E-05,8.01094302005367E-06,1.58203125,0,0
-2.32736892940011E-05,8.89249986357754E-06,1.58203125,0,0
-2.28259905270534E-05,8.88162685441785E-06,1.58203125,0,0
-2.48393589572515E-05,7.98462951934198E-06,1.58203125,0,0
-2.41874167841161E-05,5.73258876102045E-06,1.58203125,0,0
-2.51452693191823E-05,5.90747367823496E-06,1.58203125,0,0
-2.46853578573791E-05,6.84838641973329E-06,1.58203125,0,0
-2.61788700299803E-05,8.52147968544159E-06,1.58203125,0,0
-2.4405724616372E-05,6.9203665589157E-06,1.58203125,0,0
-2.30202804232249E-05,4.3010900299123E-06,1.58203125,0,0
-2.03949912247481E-05,2.91547075903509E-06,1.58203125,0,0
-2.08161272894358E-05,4.84233260067413E-06,1.58203125,0,0
-2.23242786887567E-05,8.32620480650803E-06,1.58203125,0,0
-2.42621954384958E-05,1.08985314000165E-05,1.58203125,0,0
-2.32644797506509E-05,9.83214886218775E-06,1.58203125,0,0
-2.16948847082676E-05,7.25107656762702E-06,1.58203125,0,0
-1.67628531926312E-05,2.60695969700464E-06,1.58203125,0,0
-2.29969209613046E-05,1.94928543351125E-06,1.58203125,0,0
-1.7391403162037E-05,3.87998989026528E-06,1.58203125,0,0
-2.27185482799541E-05,1.05737908597803E-05,1.58203125,0,0
-1.95605771295959E-05,1.12296320367022E-05,1.58203125,0,0
-2.21198151848512E-05,1.14448630483821E-05,1.58203125,0,0
-2.11104052141309E-05,1.19572287076153E-05,1.58203125,0,0
-2.30317727982765E-05,1.29026511785924E-05,1.58203125,0,0
-2.26476204261417E-05,1.14512231448316E-05,1.58203125,0,0
-2.35430707107298E-05,1.3299121746968E-05,1.58203125,0,0
-2.43857230088906E-05,1.77805723069469E-05,1.58203125,0,0
-2.35276420426089E-05,1.84462842298672E-05,1.58203125,0,0
-2.38819138758117E-05,1.51236517922371E-05,1.58203125,0,0
-2.44138482230483E-05,1.20840031740954E-05,1.58203125,0,0
-2.76309438049793E-05,1.24759899335913E-05,1.58203125,0,0
-2.72690140263876E-05,1.44061814353336E-05,1.58203125,0,0
-2.67768609774066E-05,1.58365473907907E-05,1.58203125,0,0
-2.40932222368428E-05,1.43760253195069E-05,1.58203125,0,0
-2.41666584770428E-05,1.39284438773757E-05,1.58203125,0,0
-2.26358406507643E-05,1.48602202898473E-05,1.58203125,0,0
-2.29491852223873E-05,1.50045016198419E-05,1.58203125,0,0
-2.44271795963869E-05,1.26685590657871E-05,1.58203125,0,0
-2.77843628282426E-05,1.11128601929522E-05,1.58203125,0,0
-2.8463773560361E-05,9.07082812773297E-06,1.58203125,0,0
-2.61499535554321E-05,6.18334115642938E-06,1.58203125,0,0
-2.30867590289563E-05,6.50413448965992E-06,1.58203125,0,0
-2.40669960476225E-05,1.23718500617542E-05,1.58203125,0,0
-2.23416282096878E-05,1.59258488565683E-05,1.58203125,0,0
-3.23779058817308E-05,2.46135223278543E-05,1.58203125,0,0
-2.38951015489874E-05,1.94900021597277E-05,1.58203125,0,0
-2.79795640381053E-05,2.18054265133105E-05,1.58203125,0,0
-2.28221797442529E-05,1.80474598892033E-05,1.58203125,0,0
-2.53052312473301E-05,1.62842279678443E-05,1.58203125,0,0
-2.3424898245139E-05,9.52938989939867E-06,1.58203125,0,0
-2.47913885687012E-05,8.57612576510292E-06,1.58203125,0,0
-2.35116385738365E-05,8.2699671111186E-06,1.58203125,0,0
-2.2746706235921E-05,8.75404748512665E-06,1.58203125,0,0
-2.31257508858107E-05,7.66842640587129E-06,1.58203125,0,0
-2.16100470424863E-05,2.13908492696646E-06,1.58203125,0,0
-2.02438332053134E-05,-1.1657425602607E-06,1.58203125,0,0
-1.75444638443878E-05,-1.46634795328282E-06,1.58203125,0,0
-1.93493542610668E-05,1.49856623465894E-06,1.58203125,0,0
-2.02240607904969E-05,2.0592858618329E-06,1.58203125,0,0
-2.27001655730419E-05,5.06272817801801E-06,1.58203125,0,0
-2.25720377784455E-05,7.70178758102702E-06,1.58203125,0,0
-2.463790224283E-05,1.08542171801673E-05,1.58203125,0,0
-2.47333446168341E-05,1.06657935248222E-05,1.58203125,0,0
-2.54881560977083E-05,9.59530734689906E-06,1.58203125,0,0
-2.40640674746828E-05,6.88742284182808E-06,1.58203125,0,0
-2.50652701652143E-05,6.96948018230614E-06,1.58203125,0,0
-2.64739301201189E-05,8.30611770652467E-06,1.58203125,0,0
-2.74572576017817E-05,8.19931574369548E-06,1.58203125,0,0
-2.7187952582608E-05,7.48054344512639E-06,1.58203125,0,0
-2.74446792900562E-05,9.21283572097309E-06,1.58203125,0,0
-2.26094125537202E-05,8.86667839949951E-06,1.58203125,0,0
-3.15879988193046E-05,1.30881871882593E-05,1.58203125,0,0
-2.28436711040558E-05,1.06186053017154E-05,1.58203125,0,0
-2.76950904662954E-05,1.26523982544313E-05,1.58203125,0,0
-2.24811792577384E-05,1.1980745512119E-05,1.58203125,0,0
-2.61621480603935E-05,1.39690237119794E-05,1.58203125,0,0
-2.48076084972126E-05,1.47957389344811E-05,1.58203125,0,0
-2.69498868874507E-05,1.8601220290293E-05,1.58203125,0,0
-2.67247796728043E-05,1.73428816196974E-05,1.58203125,0,0
-2.60304605035344E-05,1.63470413099276E-05,1.58203125,0,0
-2.47044463321799E-05,1.84509990504012E-05,1.58203125,0,0
-2.25947605940746E-05,2.03684248845093E-05,1.58203125,0,0
-2.25315252464497E-05,2.21598384086974E-05,1.58203125,0,0
-2.08593646675581E-05,2.14766441786196E-05,1.58203125,0,0
-2.18352706724545E-05,1.96616565517616E-05,1.58203125,0,0
-2.08094752451871E-05,1.76364937942708E-05,1.58203125,0,0
-2.22489779844182E-05,1.91684448509477E-05,1.58203125,0,0
-2.07382254302502E-05,2.00107733689947E-05,1.58203125,0,0
-2.04674397537019E-05,2.03500549105229E-05,1.58203125,0,0
-1.77478432306089E-05,1.93398700503167E-05,1.58203125,0,0
-1.81442173925461E-05,1.98409707081737E-05,1.58203125,0,0
-1.90028531505959E-05,1.95598713617073E-05,1.58203125,0,0
-2.18814002437284E-05,1.87661516974913E-05,1.58203125,0,0
-2.27266373258317E-05,1.85997560038231E-05,1.58203125,0,0
-2.33741484407801E-05,2.01002858375432E-05,1.58203125,0,0
-2.34625895245699E-05,1.87369350896915E-05,1.58203125,0,0
-2.30344940064242E-05,1.539523145766E-05,1.58203125,0,0
-1.78542850335361E-05,1.2398001672409E-05,1.58203125,0,0
-2.58587115240516E-05,1.77306119439891E-05,1.58203125,0,0
-2.16194584936602E-05,1.37513616209617E-05,1.58203125,0,0
-2.82333421637304E-05,1.77597466972657E-05,1.58203125,0,0
-2.61102813965408E-05,1.43922970892163E-05,1.58203125,0,0
-2.86481335933786E-05,1.23506606541923E-05,1.58203125,0,0
-2.50676603172906E-05,9.85969563771505E-06,1.58203125,0,0
-2.52246591117E-05,1.16991323011462E-05,1.58203125,0,0
-2.60811757470947E-05,9.88329520623665E-06,1.58203125,0,0
-2.79642044915818E-05,7.65185359341558E-06,1.58203125,0,0
-2.86224076262442E-05,6.88969703332987E-06,1.58203125,0,0
-2.91246651613619E-05,6.51043092148029E-06,1.58203125,0,0
-3.19394712278154E-05,9.59438511927146E-06,1.58203125,0,0
-3.27070192724932E-05,1.27479297589161E-05,1.58203125,0,0
-3.34747674060054E-05,1.46001730172429E-05,1.58203125,0,0
-3.10458490275778E-05,1.21317598313908E-05,1.58203125,0,0
-3.10085961245932E-05,1.12699472083477E-05,1.58203125,0,0
-3.01087366096908E-05,1.08338444988476E-05,1.58203125,0,0
-3.16241239488591E-05,1.24005300676799E-05,1.58203125,0,0
-3.08416201733053E-05,1.29374084281153E-05,1.58203125,0,0
-2.93700559268473E-05,1.37401029860484E-05,1.58203125,0,0
-2.53914386121323E-05,1.3954410860606E-05,1.58203125,0,0
-2.44668754021404E-05,1.42044418680598E-05,1.58203125,0,0
-2.4706132535357E-05,1.21254879559274E-05,1.58203125,0,0
-2.42932492255932E-05,1.08537278720178E-05,1.58203125,0,0
-2.13102521229303E-05,1.17538547783624E-05,1.58203125,0,0
-1.87439782166621E-05,1.20204667837243E-05,1.58203125,0,0
-1.40395468406496E-05,5.87104796068161E-06,1.58203125,0,0
-1.8863665900426E-05,4.4932526179764E-06,1.58203125,0,0
-1.36804674184532E-05,1.95771235667053E-06,1.58203125,0,0
-1.84239852387691E-05,9.24607593333349E-06,1.58203125,0,0
-1.71579558809754E-05,8.74312081577955E-06,1.58203125,0,0
-2.06706681638025E-05,5.40604742127471E-06,1.58203125,0,0
-1.93699033843586E-05,2.87758166450658E-06,1.58203125,0,0
-1.97037261386868E-05,6.68012444293709E-06,1.58203125,0,0
-1.90739392564865E-05,9.22210710996296E-06,1.58203125,0,0
-2.08556921279524E-05,1.11896251837607E-05,1.58203125,0,0
-2.28175085794646E-05,1.26379673019983E-05,1.58203125,0,0
-2.23073748202296E-05,1.25407768791774E-05,1.58203125,0,0
-2.17244469240541E-05,1.3347428648558E-05,1.58203125,0,0
-1.97587305592606E-05,1.5325369531638E-05,1.58203125,0,0
-1.9700053599081E-05,1.79508479050128E-05,1.58203125,0,0
-1.85513799806358E-05,1.81595987669425E-05,1.58203125,0,0
-1.93698579096235E-05,1.88202666322468E-05,1.58203125,0,0
-1.86905526788905E-05,1.91124472621595E-05,1.58203125,0,0
-1.98069319594651E-05,1.90777791431174E-05,1.58203125,0,0
-1.99638234334998E-05,1.48540202644654E-05,1.58203125,0,0
-2.14824885915732E-05,1.10082091850927E-05,1.58203125,0,0
-2.10306989174569E-05,9.65695107879583E-06,1.58203125,0,0
-2.03932704607723E-05,9.83640984486556E-06,1.58203125,0,0
-1.85973694897257E-05,6.88299815010396E-06,1.58203125,0,0
-1.76687808561837E-05,2.94354686047882E-06,1.58203125,0,0
-1.76134853973053E-05,8.05109380053182E-07,1.58203125,0,0
-1.76036792254308E-05,9.95259938463278E-07,1.58203125,0,0
-1.49860288729542E-05,3.01765521726338E-06,1.58203125,0,0
-2.21965274249669E-05,5.28474902239395E-06,1.58203125,0,0
-1.76975827343995E-05,5.17732860316755E-06,1.58203125,0,0
-2.02052251552232E-05,6.99142128723906E-06,1.58203125,0,0
-1.52275815707981E-05,8.39795211504679E-06,1.58203125,0,0
-1.6275851521641E-05,7.13777490091161E-06,1.58203125,0,0
-1.51511985677644E-05,3.68969813280273E-06,1.58203125,0,0
-1.81166342372308E-05,2.34770732276957E-06,1.58203125,0,0
-2.08465480682207E-05,1.50742516780156E-06,1.58203125,0,0
-2.2589745640289E-05,6.71713962674403E-07,1.58203125,0,0
-2.33529990509851E-05,-2.35342909604697E-07,1.58203125,0,0
-2.35489496844821E-05,-9.16916008009139E-07,1.58203125,0,0
-2.51384772127494E-05,4.57247608665057E-07,1.58203125,0,0
-2.59572261711583E-05,3.18122602038784E-06,1.58203125,0,0
-2.94440287689213E-05,5.57448493054835E-06,1.58203125,0,0
-3.19180071528535E-05,5.18798287885147E-06,1.58203125,0,0
-3.55002921423875E-05,4.00308090320323E-06,1.58203125,0,0
-3.66500426025596E-05,4.49631761512137E-06,1.58203125,0,0
-3.83438637072686E-05,6.96452934789704E-06,1.58203125,0,0
-3.85540843126364E-05,9.44493513088673E-06,1.58203125,0,0
-3.91980574931949E-05,1.24809021144756E-05,1.58203125,0,0
-3.72988506569527E-05,1.41079899549368E-05,1.58203125,0,0
-3.55240517819766E-05,1.32950190163683E-05,1.58203125,0,0
-3.41738668794278E-05,1.09995607999736E-05,1.58203125,0,0
-3.41950544680003E-05,9.78696425590897E-06,1.58203125,0,0
-3.3400094253011E-05,1.20666763905319E-05,1.58203125,0,0
-3.1435331038665E-05,1.52299426190439E-05,1.58203125,0,0
-2.339811908314E-05,1.09940701804589E-05,1.58203125,0,0
-3.18579259328544E-05,1.2948583389516E-05,1.58203125,0,0
-2.2869013264426E-05,6.636987109232E-06,1.58203125,0,0
-2.86530193989165E-05,1.19388405437348E-05,1.58203125,0,0
-2.16315584111726E-05,1.18488942462136E-05,1.58203125,0,0
-2.50964149017818E-05,1.33396224555327E-05,1.58203125,0,0
-2.44652746914653E-05,1.24136786325835E-05,1.58203125,0,0
-2.59803946391912E-05,1.45775265991688E-05,1.58203125,0,0
-2.3766220692778E-05,1.25200640468393E-05,1.58203125,0,0
-2.32341990340501E-05,9.81142420641845E-06,1.58203125,0,0
-2.38100910792127E-05,9.90775788523024E-06,1.58203125,0,0
-2.32130914810114E-05,1.1034996532544E-05,1.58203125,0,0
-2.37738604482729E-05,1.32492186821764E-05,1.58203125,0,0
-2.13213297683978E-05,1.41024274853407E-05,1.58203125,0,0
-2.07404355023755E-05,1.36118405862362E-05,1.58203125,0,0
-1.73422758962261E-05,1.12403258754057E-05,1.58203125,0,0
-1.70124549185857E-05,1.29263708004146E-05,1.58203125,0,0
-1.47317196024233E-05,1.38212162710261E-05,1.58203125,0,0
-1.54786721395794E-05,1.42651661008131E-05,1.58203125,0,0
-1.45458834595047E-05,1.38006207635044E-05,1.58203125,0,0
-1.57167669385672E-05,1.46521069837036E-05,1.58203125,0,0
-1.53972196130781E-05,1.35370337375207E-05,1.58203125,0,0
-1.63612621690845E-05,1.24331118058763E-05,1.58203125,0,0
-1.54926074174E-05,1.17573999887099E-05,1.58203125,0,0
-1.50842133734841E-05,1.30672897284967E-05,1.58203125,0,0
-1.55250709212851E-05,1.49928673636168E-05,1.58203125,0,0
-1.62249907589285E-05,1.53269120346522E-05,1.58203125,0,0
-1.29690915855463E-05,1.32250133901834E-05,1.58203125,0,0
-1.8217806427856E-05,2.04597563424613E-05,1.58203125,0,0
-1.48664348671446E-05,1.64301163749769E-05,1.58203125,0,0
-1.97394856513711E-05,1.83163811016129E-05,1.58203125,0,0
-1.77338715730002E-05,1.50662790474598E-05,1.58203125,0,0
-1.96599994524149E-05,1.50623600347899E-05,1.58203125,0,0
-1.94333588297013E-05,1.37301567519899E-05,1.58203125,0,0
-2.320467865502E-05,1.58100247062976E-05,1.58203125,0,0
-2.62002322415356E-05,1.60264680744149E-05,1.58203125,0,0
-2.89130202872911E-05,1.5992351109162E-05,1.58203125,0,0
-2.99783205264248E-05,1.38248442453914E-05,1.58203125,0,0
-2.97569386020768E-05,9.09884511202108E-06,1.58203125,0,0
-3.14810968120582E-05,8.2240003393963E-06,1.58203125,0,0
-3.20417566399556E-05,1.00477036539814E-05,1.58203125,0,0
-3.34051364916377E-05,1.1698074558808E-05,1.58203125,0,0
-3.22451342071872E-05,8.77317597769434E-06,1.58203125,0,0
-3.14265671477187E-05,5.87094382353825E-06,1.58203125,0,0
-2.95699865091592E-05,2.70785972134036E-06,1.58203125,0,0
-3.01552900054958E-05,1.71582871644205E-06,1.58203125,0,0
-2.95935751637444E-05,6.05042089318886E-07,1.58203125,0,0
-3.02824191749096E-05,2.6995955977327E-06,1.58203125,0,0
-3.12285301333759E-05,5.50660024600802E-06,1.58203125,0,0
-3.23456442856696E-05,7.53933500163839E-06,1.58203125,0,0
-3.09521092276555E-05,5.85789439355722E-06,1.58203125,0,0
-2.99238654406508E-05,4.59973443867057E-06,1.58203125,0,0
-3.07009140669834E-05,6.25916663921089E-06,1.58203125,0,0
-3.17440062644891E-05,9.42813039728208E-06,1.58203125,0,0
-2.62626490439288E-05,8.99921451491537E-06,1.58203125,0,0
-3.89403066947125E-05,1.3416271940514E-05,1.58203125,0,0
-3.08687558572274E-05,9.94206220639171E-06,1.58203125,0,0
-3.51227536157239E-05,1.12360794446431E-05,1.58203125,0,0
-2.72740289801732E-05,1.15449793156586E-05,1.58203125,0,0
-3.07015725411475E-05,1.55192246893421E-05,1.58203125,0,0
-2.8420041417121E-05,1.43454608405591E-05,1.58203125,0,0
-2.96133766823914E-05,1.18226143968059E-05,1.58203125,0,0
-2.79601499642013E-05,8.88579415914137E-06,1.58203125,0,0
-2.69565425696783E-05,9.83759309747256E-06,1.58203125,0,0
-2.58360687439563E-05,1.30099106172565E-05,1.58203125,0,0
-2.37967960856622E-05,1.50702726386953E-05,1.58203125,0,0
-2.40969839069294E-05,1.72692452906631E-05,1.58203125,0,0
-2.27415439439937E-05,1.68681999639375E-05,1.58203125,0,0
-2.4327406208613E-05,1.4308151548903E-05,1.58203125,0,0
-2.2940930648474E-05,9.17401666811202E-06,1.58203125,0,0
-2.39281598624075E-05,6.64862500343588E-06,1.58203125,0,0
-2.21469817915931E-05,7.35097546566976E-06,1.58203125,0,0
-2.3271692043636E-05,1.03693764685886E-05,1.58203125,0,0
-2.30225050472654E-05,9.45627107284963E-06,1.58203125,0,0
-2.47203242906835E-05,5.58293231733842E-06,1.58203125,0,0
-2.41452344198478E-05,9.58092186920112E-07,1.58203125,0,0
-2.53565449384041E-05,-9.45035310451203E-07,1.58203125,0,0
-2.60450797213707E-05,-2.24562973016873E-06,1.58203125,0,0
-2.71720509772422E-05,-3.49511697095295E-06,1.58203125,0,0
-2.65976013906766E-05,-3.99282862417749E-06,1.58203125,0,0
-2.59542957792291E-05,-1.99328383132524E-06,1.58203125,0,0
-2.03182898985688E-05,6.97898940416053E-07,1.58203125,0,0
-2.88019255094696E-05,1.73968624039844E-06,1.58203125,0,0
-2.15003456105478E-05,2.40515123550722E-06,1.58203125,0,0
-2.53556718234904E-05,4.25659072789131E-06,1.58203125,0,0
-2.04662119358545E-05,6.49935054752859E-06,1.58203125,0,0
-2.34181079576956E-05,6.45005138721899E-06,1.58203125,0,0
-2.1438476323965E-05,7.4162480814266E-06,1.58203125,0,0
-2.24928026000271E-05,8.83364282344701E-06,1.58203125,0,0
-2.10390189749887E-05,7.43436430639122E-06,1.58203125,0,0
-2.04489315365208E-05,7.24319897926762E-06,1.58203125,0,0
-1.98719062609598E-05,8.65697529661702E-06,1.58203125,0,0
-1.82238854904426E-05,1.04957825897145E-05,1.58203125,0,0
-1.92464613064658E-05,1.33443663798971E-05,1.58203125,0,0
-1.95343691302696E-05,1.51057356561068E-05,1.58203125,0,0
-2.16976968658855E-05,1.48804074342479E-05,1.58203125,0,0
-2.10856087505817E-05,1.29739646581584E-05,1.58203125,0,0
-2.43633057834813E-05,1.12192938104272E-05,1.58203125,0,0
-2.65339749603299E-05,1.10113205664675E-05,1.58203125,0,0
-2.76605987892253E-05,1.22865167213604E-05,1.58203125,0,0
-2.31832855206449E-05,1.54972822201671E-05,1.58203125,0,0
-2.15391501114937E-05,1.91564267879585E-05,1.58203125,0,0
-2.1791423932882E-05,1.93615996977314E-05,1.58203125,0,0
-2.32522652368061E-05,1.71236497408245E-05,1.58203125,0,0
-2.33556875173235E-05,1.52110824274132E-05,1.58203125,0,0
-2.38276079471689E-05,1.3618337106891E-05,1.58203125,0,0
-2.30141940846806E-05,1.26281493066926E-05,1.58203125,0,0
-2.15942218346754E-05,1.22566116260714E-05,1.58203125,0,0
-1.84060118044727E-05,8.41317068989156E-06,1.58203125,0,0
-2.64907448581653E-05,1.1633808753686E-05,1.58203125,0,0
-1.98804827959975E-05,9.55230643739924E-06,1.58203125,0,0
-2.35312290897127E-05,1.61182833835483E-05,1.58203125,0,0
-1.88404264918063E-05,1.82402054633712E-05,1.58203125,0,0
-2.04867919819662E-05,1.86503621080192E-05,1.58203125,0,0
-1.87454315891955E-05,1.57411286636489E-05,1.58203125,0,0
-2.03478011826519E-05,1.46390593727119E-05,1.58203125,0,0
-2.08181554626208E-05,1.13177056846325E-05,1.58203125,0,0
-2.1430754713947E-05,9.66956577030942E-06,1.58203125,0,0
-2.2403914044844E-05,9.38410084927455E-06,1.58203125,0,0
-2.28249864449026E-05,8.53847359394422E-06,1.58203125,0,0
-2.40816152654588E-05,8.50993637868669E-06,1.58203125,0,0
-2.2992820959189E-05,9.39804158406332E-06,1.58203125,0,0
-2.44410348386737E-05,1.2103180779377E-05,1.58203125,0,0
-2.53087146120379E-05,1.49566421896452E-05,1.58203125,0,0
-2.79109572147718E-05,1.72323889273684E-05,1.58203125,0,0
-2.76834380201763E-05,1.49972665894893E-05,1.58203125,0,0
-2.78934585367097E-05,1.25948163258727E-05,1.58203125,0,0
-2.67609175352845E-05,8.98816415428882E-06,1.58203125,0,0
-2.88892679236596E-05,5.11697726324201E-06,1.58203125,0,0
-2.98942723020446E-05,2.56785961028072E-06,1.58203125,0,0
-3.0234519726946E-05,3.97460598833277E-06,1.58203125,0,0
-2.94570672849659E-05,6.28302905170131E-06,1.58203125,0,0
-2.87784405372804E-05,7.23621815268416E-06,1.58203125,0,0
-2.72708784905262E-05,4.15321164837223E-06,1.58203125,0,0
-2.69369393208763E-05,1.96698829313391E-06,1.58203125,0,0
-2.2738908228348E-05,6.16186571278377E-06,1.58203125,0,0
-3.27084781019948E-05,1.51134372572415E-05,1.58203125,0,0
-2.58396848948905E-05,1.75483164639445E-05,1.58203125,0,0
-3.26540539390408E-05,1.60023864737013E-05,1.58203125,0,0
-2.866044997063E-05,1.26557824842166E-05,1.58203125,0,0
-3.18864949804265E-05,9.56744133873144E-06,1.58203125,0,0
-2.93349330604542E-05,9.02364354260499E-06,1.58203125,0,0
-3.08335984300356E-05,1.11756407932262E-05,1.58203125,0,0
-2.94320452667307E-05,1.27062985484372E-05,1.58203125,0,0
-2.83437802863773E-05,1.52003576658899E-05,1.58203125,0,0
-2.81538286799332E-05,1.71768188010901E-05,1.58203125,0,0
-2.65998351096641E-05,1.55571724462789E-05,1.58203125,0,0
-2.52852569246897E-05,1.44495688800816E-05,1.58203125,0,0
-2.12450486287707E-05,1.4871386156301E-05,1.58203125,0,0
-2.0529265384539E-05,1.34292195070884E-05,1.58203125,0,0
-1.69687027664622E-05,1.09408974822145E-05,1.58203125,0,0
-1.46607289934764E-05,1.21162147479481E-05,1.58203125,0,0
-1.05392355180811E-05,1.42781909744372E-05,1.58203125,0,0
-1.03381535154767E-05,1.36843600557768E-05,1.58203125,0,0
-9.61002297117375E-06,1.21764524010359E-05,1.58203125,0,0
-1.10485261757276E-05,1.3354113434616E-05,1.58203125,0,0
-1.03787533589639E-05,1.52769207488745E-05,1.58203125,0,0
-1.14178910735063E-05,1.52444927152828E-05,1.58203125,0,0
-1.34193360281643E-05,1.32269569803611E-05,1.58203125,0,0
-1.77990968950326E-05,1.17431573016802E-05,1.58203125,0,0
-2.15618219954195E-05,1.21517359730205E-05,1.58203125,0,0
-2.40617100644158E-05,1.14379599835956E-05,1.58203125,0,0
-2.02989631361561E-05,4.75044680570136E-06,1.58203125,0,0
-2.82948985841358E-05,5.74040177525603E-06,1.58203125,0,0
-2.23637798626442E-05,5.38378435521736E-06,1.58203125,0,0
-3.00193605653476E-05,1.09300035546767E-05,1.58203125,0,0
-2.59867429122096E-05,1.13534324555076E-05,1.58203125,0,0
-2.81108732451685E-05,1.10934624899528E-05,1.58203125,0,0
-2.5250938051613E-05,9.693613719719E-06,1.58203125,0,0
-2.5337838451378E-05,1.04976206785068E-05,1.58203125,0,0
-2.44391903834185E-05,1.01338455351652E-05,1.58203125,0,0
-2.46105082624126E-05,9.67882715485757E-06,1.58203125,0,0
-2.48340093094157E-05,1.05000326584559E-05,1.58203125,0,0
-2.37155309150694E-05,1.16670216812054E-05,1.58203125,0,0
-2.40583613049239E-05,1.3807578397973E-05,1.58203125,0,0
-2.28296503337333E-05,1.59477258421248E-05,1.58203125,0,0
-2.36578525800724E-05,1.62925771292066E-05,1.58203125,0,0
-2.24971863644896E-05,1.50929008668754E-05,1.58203125,0,0
-2.33082719205413E-05,1.57946233230177E-05,1.58203125,0,0
-2.10895923373755E-05,1.52408229041612E-05,1.58203125,0,0
-2.05685319087934E-05,1.35605014293105E-05,1.58203125,0,0
-1.88037593034096E-05,1.13542946564849E-05,1.58203125,0,0
-2.01415623450885E-05,1.00835068224114E-05,1.58203125,0,0
-2.07905341085279E-05,8.46762577566551E-06,1.58203125,0,0
-2.16425687540323E-05,7.27476071915589E-06,1.58203125,0,0
-2.04285352083389E-05,6.64515846438007E-06,1.58203125,0,0
-1.99034311663127E-05,7.71112991060363E-06,1.58203125,0,0
-2.03626059374074E-05,8.99770202522632E-06,1.58203125,0,0
-2.02325991267571E-05,9.40738027566113E-06,2.28515625,0,0
-1.63593213073909E-05,6.93645324645331E-06,2.28515625,0,0
-2.33307346206857E-05,1.13247187982779E-05,2.28515625,0,0
-1.8165577785112E-05,1.02438852991327E-05,2.28515625,0,0
-2.22912585741142E-05,1.29369409478386E-05,2.28515625,0,0
-1.88675476238132E-05,1.42932194648893E-05,2.28515625,0,0
-2.09963382076239E-05,1.59574137796881E-05,2.28515625,0,0
-1.89912097994238E-05,1.67566104209982E-05,2.28515625,0,0
-2.03331692318898E-05,1.98145244212355E-05,2.28515625,0,0
-2.08937490242533E-05,1.7438069335185E-05,2.28515625,0,0
-2.16519620153122E-05,1.40313904921641E-05,2.28515625,0,0
-2.16443222598173E-05,1.36383387143724E-05,2.28515625,0,0
-2.21564150706399E-05,1.45692129080999E-05,2.28515625,0,0
-2.57440733548719E-05,1.39400599437067E-05,2.28515625,0,0
-2.68378698820015E-05,1.27114844872267E-05,2.28515625,0,0
-2.66816932708025E-05,1.32581180878333E-05,2.28515625,0,0
-2.34672224905808E-05,1.39936437335564E-05,2.28515625,0,0
-2.29282068175962E-05,1.58139500854304E-05,2.28515625,0,0
-2.2532887669513E-05,1.52740449266275E-05,2.28515625,0,0
-2.5186574930558E-05,1.27473676911904E-05,2.28515625,0,0
-2.51327437581494E-05,9.64650553214597E-06,2.28515625,0,0
-2.37603453570046E-05,9.62628564593615E-06,2.28515625,0,0
-2.08026922337012E-05,1.04383580037393E-05,2.28515625,0,0
-2.0353512809379E-05,1.19704100143281E-05,2.28515625,0,0
-2.09758181881625E-05,1.22289548016852E-05,2.28515625,0,0
-2.33368700719438E-05,1.33673938762513E-05,2.28515625,0,0
-2.46736435656203E-05,1.32130562633392E-05,2.28515625,0,0
-2.56787752732635E-05,1.13470778160263E-05,2.28515625,0,0
-2.31497160712024E-05,8.29820419312455E-06,2.28515625,0,0
-3.51270646206103E-05,1.15478915176936E-05,2.28515625,0,0
-2.80719341390068E-05,8.1028856584453E-06,2.28515625,0,0
-3.20345861837268E-05,1.02714857348474E-05,2.28515625,0,0
-2.71622720902087E-05,8.73455792316236E-06,2.28515625,0,0
-3.11721632897388E-05,8.08644836070016E-06,2.28515625,0,0
-2.94253732135985E-05,7.87944827607134E-06,2.28515625,0,0
-2.95227364404127E-05,1.47014488902641E-05,2.28515625,0,0
-2.71633161901264E-05,1.9263063222752E-05,2.28515625,0,0
-2.59470980381593E-05,2.0798990590265E-05,2.28515625,0,0
-2.56701223406708E-05,2.09474801522447E-05,2.28515625,0,0
-2.4466431568726E-05,1.78399513970362E-05,2.28515625,0,0
-2.36041632888373E-05,1.38699788294616E-05,2.28515625,0,0
-2.03968611458549E-05,1.18685902634752E-05,2.28515625,0,0
-2.09662557608681E-05,1.31629740280914E-05,2.28515625,0,0
-2.11474289244507E-05,1.29122781800106E-05,2.28515625,0,0
-2.46830641117413E-05,1.28230185509892E-05,2.28515625,0,0
-2.57977008004673E-05,1.12436746348976E-05,2.28515625,0,0
-2.69052725343499E-05,9.63315233093454E-06,2.28515625,0,0
-2.39095606957562E-05,6.09052221989259E-06,2.28515625,0,0
-2.28617191169178E-05,2.76390028375317E-06,2.28515625,0,0
-2.15372529055458E-05,-1.3397793452441E-07,2.28515625,0,0
-2.23265142267337E-05,-1.35580899041088E-06,2.28515625,0,0
-2.13510975299869E-05,-1.42962051086215E-06,2.28515625,0,0
-1.92232928384328E-05,1.75446155026293E-06,2.28515625,0,0
-1.81974592123879E-05,8.91235322342254E-06,2.28515625,0,0
-1.86268043762539E-05,1.4247511899157E-05,2.28515625,0,0
-1.58233669935726E-05,9.1173760665697E-06,2.28515625,0,0
-2.2810807422502E-05,1.10004393718555E-05,2.28515625,0,0
-1.75865770870587E-05,6.1230243773025E-06,2.28515625,0,0
-2.14036335819401E-05,9.47329590417212E-06,2.28515625,0,0
-1.85785720532294E-05,9.17728084459668E-06,2.28515625,0,0
-2.13616967812413E-05,1.17684676297358E-05,2.28515625,0,0
-2.05170144909061E-05,1.07948544609826E-05,2.28515625,0,0
-2.10518992389552E-05,1.01938649095246E-05,2.28515625,0,0
-1.88780413736822E-05,7.37565778763383E-06,2.28515625,0,0
-1.737160164339E-05,7.51521611164208E-06,2.28515625,0,0
-1.6806503481348E-05,1.00494580692612E-05,2.28515625,0,0
-1.61291172844358E-05,1.05846493170247E-05,2.28515625,0,0
-1.78344544110587E-05,9.84658345259959E-06,2.28515625,0,0
-1.85409935511416E-05,9.06851528270636E-06,2.28515625,0,0
-1.99274072656408E-05,1.06885227069142E-05,2.28515625,0,0
-1.88912035810063E-05,1.07041514638695E-05,2.28515625,0,0
-1.99775840883376E-05,9.99777512333822E-06,2.28515625,0,0
-2.01863804250024E-05,7.7303502621362E-06,2.28515625,0,0
-2.19263420149218E-05,8.77179172675824E-06,2.28515625,0,0
-2.14107458305079E-05,1.05156750578317E-05,2.28515625,0,0
-2.18925488297828E-05,1.18293037303374E-05,2.28515625,0,0
-2.17002707358915E-05,1.09308220999083E-05,2.28515625,0,0
-2.24572340812301E-05,1.03559677882004E-05,2.28515625,0,0
-2.33920800383203E-05,1.03535303423996E-05,2.28515625,0,0
-2.46046292886604E-05,1.06451734609436E-05,2.28515625,0,0
-2.52732170338277E-05,9.54807455855189E-06,2.28515625,0,0
-2.59647094935644E-05,8.66334448801354E-06,2.28515625,0,0
-2.09613936021924E-05,5.32349531567888E-06,2.28515625,0,0
-2.90173375105951E-05,6.08791515332996E-06,2.28515625,0,0
-2.27024065679871E-05,4.92941489937948E-06,2.28515625,0,0
-3.00462088489439E-05,1.18825291792746E-05,2.28515625,0,0
-2.53405360126635E-05,1.43812903843354E-05,2.28515625,0,0
-2.72923734883079E-05,1.42157514346763E-05,2.28515625,0,0
-2.36053310800344E-05,1.35518766910536E-05,2.28515625,0,0
-2.46403615165036E-05,1.48644512592E-05,2.28515625,0,0
-2.57664305536309E-05,1.40533011290245E-05,2.28515625,0,0
-2.79413688986097E-05,1.34886913656374E-05,2.28515625,0,0
-2.87130151264137E-05,1.09806751424912E-05,2.28515625,0,0
-2.75300317298388E-05,5.36372590431711E-06,2.28515625,0,0
-2.82110377156641E-05,1.55400516632653E-06,2.28515625,0,0
-2.72603592748055E-05,6.30916019872529E-07,2.28515625,0,0
-2.88943920168094E-05,1.99240253095923E-06,2.28515625,0,0
-2.85090754914563E-05,3.07349660033651E-06,2.28515625,0,0
-3.00944011542015E-05,4.12497638535569E-06,2.28515625,0,0
-2.79463074548403E-05,3.8245971154538E-06,2.28515625,0,0
-2.7655512894853E-05,4.12055396736832E-06,2.28515625,0,0
-2.61248824244831E-05,3.15373654302675E-06,2.28515625,0,0
-2.70682994596427E-05,3.0514072477672E-06,2.28515625,0,0
-2.73681343969656E-05,5.86347914577345E-06,2.28515625,0,0
-2.88334449578542E-05,9.84000052994816E-06,2.28515625,0,0
-2.83526042039739E-05,1.00763527370873E-05,2.28515625,0,0
-2.77193194051506E-05,8.58481234899955E-06,2.28515625,0,0
-2.64852988038911E-05,8.28030351840425E-06,2.28515625,0,0
-2.63480560533935E-05,8.9132563516614E-06,2.28515625,0,0
-2.08332585316384E-05,7.49489709050977E-06,2.28515625,0,0
-2.9606942916871E-05,1.14255935841356E-05,2.28515625,0,0
-2.35774859902449E-05,8.25127972348128E-06,2.28515625,0,0
-3.04493823932717E-05,8.99508449947461E-06,2.28515625,0,0
-2.64015889115399E-05,8.41982273414033E-06,2.28515625,0,0
-2.86916019831551E-05,9.90763783192961E-06,2.28515625,0,0
-2.48166797973681E-05,1.01421364888665E-05,2.28515625,0,0
-2.43883969233138E-05,1.14718122858903E-05,2.28515625,0,0
-2.39871387748281E-05,1.06325642263982E-05,2.28515625,0,0
-2.58774834946962E-05,1.00174811450415E-05,2.28515625,0,0
-2.71071912720799E-05,1.03298407339025E-05,2.28515625,0,0
-2.70471718977205E-05,9.00669874681626E-06,2.28515625,0,0
-2.88877763523487E-05,7.28156783225131E-06,2.28515625,0,0
-2.87677394226193E-05,7.84651547292015E-06,2.28515625,0,0
-2.95610461762408E-05,1.03881493487279E-05,2.28515625,0,0
-2.64180071098963E-05,1.14509775812621E-05,2.28515625,0,0
-2.57391748164082E-05,1.39314615807962E-05,2.28515625,0,0
-2.41351026488701E-05,1.66858808370307E-05,2.28515625,0,0
-2.50706543738488E-05,1.8981740140589E-05,2.28515625,0,0
-2.38541088037891E-05,1.852611603681E-05,2.28515625,0,0
-2.44444672716782E-05,1.65306773851626E-05,2.28515625,0,0
-2.40341123571852E-05,1.54512999870349E-05,2.28515625,0,0
-2.45171449932968E-05,1.70930652529933E-05,2.28515625,0,0
-2.26495358219836E-05,1.76019584614551E-05,2.28515625,0,0
-2.01247858058196E-05,1.82576768565923E-05,2.28515625,0,0
-1.76397388713667E-05,1.80464649019996E-05,2.28515625,0,0
-1.63720105774701E-05,1.60892723215511E-05,2.28515625,0,0
-1.31047263494111E-05,9.2471591415233E-06,2.28515625,0,0
-1.70946950674988E-05,9.7524043667363E-06,2.28515625,0,0
-1.17166382551659E-05,3.15495435643243E-06,2.28515625,0,0
-1.61024581757374E-05,6.98841949997586E-06,2.28515625,0,0
-1.240859637619E-05,6.7509758991946E-06,2.28515625,0,0
-1.19343394544558E-05,9.53164271777496E-06,2.28515625,0,0
-9.93178855424048E-06,1.04646733234404E-05,2.28515625,0,0
-1.119719036069E-05,1.36457492772024E-05,2.28515625,0,0
-1.1878611985594E-05,1.40341235237429E-05,2.28515625,0,0
-1.28349183796672E-05,1.38453169711283E-05,2.28515625,0,0
-1.36250073410338E-05,1.46142583616893E-05,2.28515625,0,0
-1.34924785015755E-05,1.46579959618975E-05,2.28515625,0,0
-1.44092255141004E-05,1.49375982800848E-05,2.28515625,0,0
-1.48305471157073E-05,1.3481507266988E-05,2.28515625,0,0
-1.76484572875779E-05,1.27660505313543E-05,2.28515625,0,0
-1.82338480954058E-05,1.20757567856344E-05,2.28515625,0,0
-1.93412124644965E-05,1.23071476991754E-05,2.28515625,0,0
-2.00028025574284E-05,1.10390301415464E-05,2.28515625,0,0
-2.28035569307394E-05,1.18388343253173E-05,2.28515625,0,0
-2.37420317716897E-05,1.08310259747668E-05,2.28515625,0,0
-2.49166660069022E-05,9.24365394894267E-06,2.28515625,0,0
-2.52054232987575E-05,6.2250346672954E-06,2.28515625,0,0
-2.71264943876304E-05,3.92397350879037E-06,2.28515625,0,0
-2.82170785794733E-05,3.06236779579194E-06,2.28515625,0,0
-2.76694481726736E-05,2.6065906695294E-06,2.28515625,0,0
-2.61894419963937E-05,2.16909211303573E-06,2.28515625,0,0
-2.58493018918671E-05,2.47368075179111E-06,2.28515625,0,0
-2.19041085074423E-05,3.56534928869223E-06,2.28515625,0,0
-3.16972655127756E-05,8.81967844179599E-06,2.28515625,0,0
-2.50007233262295E-05,1.14191507236683E-05,2.28515625,0,0
-3.05597859551199E-05,1.21121775009669E-05,2.28515625,0,0
-2.53130128839985E-05,1.07252481029718E-05,2.28515625,0,0
-2.87889797618845E-05,9.0222156359232E-06,2.28515625,0,0
-2.66796123469248E-05,8.58755447552539E-06,4.21875,0,0
-2.71618919214234E-05,1.05353974504396E-05,4.21875,0,0
-2.59818516497035E-05,1.25483265946968E-05,4.21875,0,0
-2.59304179053288E-05,1.50988671521191E-05,4.21875,0,0
-2.68066451099003E-05,1.67431626323378E-05,4.21875,0,0
-2.63935635302914E-05,1.48885510498076E-05,4.21875,0,0
-2.67755003733328E-05,1.3311082511791E-05,4.21875,0,0
-2.49715030804509E-05,1.39195735755493E-05,4.21875,0,0
-2.52404752245639E-05,1.53584824147401E-05,4.21875,0,0
-2.37505246332148E-05,1.62015985551989E-05,4.21875,0,0
-2.51876226684544E-05,1.68504466273589E-05,4.21875,0,0
-2.50546108873095E-05,1.59237933985423E-05,4.21875,0,0
-2.69805877906037E-05,1.29970057969331E-05,4.21875,0,0
-2.5475421352894E-05,1.00935867521912E-05,4.21875,0,0
-2.52080772042973E-05,8.43474481371231E-06,4.21875,0,0
-2.48081305471715E-05,8.30836870591156E-06,4.21875,0,0
-2.5815706976573E-05,1.09302354758256E-05,4.21875,0,0
-2.62224075413542E-05,1.41512045956915E-05,4.21875,0,0
-2.72094057436334E-05,1.32771310745738E-05,4.21875,0,0
-2.69898919214029E-05,9.10078142624116E-06,4.21875,0,0
-2.8041973564541E-05,6.93119682182441E-06,4.21875,0,0
-2.34284143516561E-05,6.12588110016077E-06,4.21875,0,0
-3.43261599482503E-05,9.49776313063921E-06,4.21875,0,0
-2.72844081337098E-05,7.02251327311387E-06,4.21875,0,0
-3.28458263538778E-05,8.1503849287401E-06,4.21875,0,0
-2.7555053748074E-05,7.97233769844752E-06,4.21875,0,0
-3.03004799206974E-05,8.42549616208998E-06,4.21875,0,0
-2.79638097708812E-05,9.22001618164359E-06,4.21875,0,0
-3.04123532259837E-05,1.22742621897487E-05,4.21875,0,0
-3.05292014672887E-05,1.22800029203063E-05,4.21875,0,0
-2.9975846700836E-05,1.09561597128049E-05,4.21875,0,0
-2.93485481961397E-05,8.89064176590182E-06,4.21875,0,0
-2.87055718217744E-05,6.84654287397279E-06,4.21875,0,0
-2.9594006264233E-05,8.11271820566617E-06,4.21875,0,0
-2.74731301033171E-05,1.08849571915925E-05,4.21875,0,0
-2.77675753750373E-05,1.17954577945056E-05,4.21875,0,0
-2.69921638391679E-05,9.79981632553972E-06,4.21875,0,0
-2.91458709398285E-05,1.02421354313265E-05,4.21875,0,0
-2.74527374131139E-05,1.20738095574779E-05,4.21875,0,0
-2.73007881332887E-05,1.29377212942927E-05,4.21875,0,0
-2.55690683843568E-05,1.10636792669538E-05,4.21875,0,0
-2.65290927927708E-05,9.72748421190772E-06,4.21875,0,0
-2.71586995950202E-05,1.00346351246117E-05,4.21875,0,0
-2.88983464997727E-05,1.12655188786448E-05,4.21875,0,0
-2.84486268355977E-05,1.17719928311999E-05,4.21875,0,0
-2.77816288871691E-05,1.19934702524915E-05,4.21875,0,0
-2.6306746804039E-05,1.15696930151898E-05,4.21875,0,0
-2.45507635554532E-05,1.17239706014516E-05,4.21875,0,0
-1.99061469174922E-05,8.97982681635767E-06,4.21875,0,0
-2.88807568722405E-05,1.18578109322698E-05,4.21875,0,0
-2.17589167732513E-05,8.89783859747695E-06,4.21875,0,0
-2.57830251939595E-05,1.47443524838309E-05,4.21875,0,0
-2.11879014386795E-05,1.55065481521888E-05,4.21875,0,0
-2.34178278333275E-05,1.66968766279751E-05,4.21875,0,0
-2.26068204938201E-05,1.68224505614489E-05,4.21875,0,0
-2.349433634663E-05,1.7734064385877E-05,4.21875,0,0
-2.11638343898812E-05,1.42754352054908E-05,4.21875,0,0
-2.03971212613396E-05,1.29421723613632E-05,4.21875,0,0
-2.01885231945198E-05,1.39553376357071E-05,4.21875,0,0
-1.86229626706336E-05,1.19597971206531E-05,4.21875,0,0
-1.85789285751525E-05,7.58295209379867E-06,4.21875,0,0
-1.76807388925226E-05,3.36011930812674E-06,4.21875,0,0
-1.86467750609154E-05,2.51688038588327E-06,4.21875,0,0
-1.67648940987419E-05,1.84254099622194E-06,4.21875,0,0
-1.75815803231671E-05,3.62427908839891E-06,4.21875,0,0
-1.80169608938741E-05,4.86415228806436E-06,4.21875,0,0
-2.061419581878E-05,5.45699958820478E-06,4.21875,0,0
-2.04198058781913E-05,4.58832892036298E-06,4.21875,0,0
-2.0917055735481E-05,4.43779481429374E-06,4.21875,0,0
-2.14755636989139E-05,4.30828094977187E-06,4.21875,0,0
-2.46264826273546E-05,6.62288630337571E-06,4.21875,0,0
-2.52158824878279E-05,6.99456040820223E-06,4.21875,0,0
-2.39173386944458E-05,6.01087549512158E-06,4.21875,0,0
-2.31312569667352E-05,6.67552740196697E-06,4.21875,0,0
-2.25531330215745E-05,1.0444308827573E-05,4.21875,0,0
-1.53995006257901E-05,9.65472736424999E-06,4.21875,0,0
-1.98817051568767E-05,1.0858423593163E-05,4.21875,0,0
-1.29284499053028E-05,3.72994099961943E-06,4.21875,0,0
-1.78972204594174E-05,8.16452211438445E-06,4.21875,0,0
-1.64952616614755E-05,9.03193358681165E-06,4.21875,0,0
-2.05940723390086E-05,9.11787174118217E-06,4.21875,0,0
-1.96696873899782E-05,6.82869722368196E-06,4.21875,0,0
-2.075466363749E-05,6.53070537737221E-06,4.21875,0,0
-1.96785804291721E-05,2.77465551334899E-06,4.21875,0,0
-1.9295941456221E-05,7.01010378634237E-07,4.21875,0,0
-2.02930841624038E-05,1.00609008768515E-06,4.21875,0,0
-2.07743469218258E-05,2.10825123758696E-06,4.21875,0,0
-2.15338332054671E-05,6.98705571267055E-06,4.21875,0,0
-2.0634213797166E-05,1.24094322018209E-05,4.21875,0,0
-2.18515342567116E-05,1.50631112774136E-05,4.21875,0,0
-2.08145665965276E-05,1.19386313599534E-05,4.21875,0,0
-2.01965594897047E-05,9.14053543965565E-06,4.21875,0,0
-1.78413629328134E-05,7.26574307918781E-06,4.21875,0,0
-1.77860656549456E-05,8.69566338224104E-06,4.21875,0,0
-1.62635296874214E-05,9.96269682218554E-06,4.21875,0,0
-1.65630062838318E-05,1.12814814201556E-05,4.21875,0,0
-1.82700059667695E-05,1.04311684481218E-05,4.21875,0,0
-2.25685325858649E-05,8.86150428414112E-06,4.21875,0,0
-2.45533356064698E-05,8.65050606080331E-06,4.21875,0,0
-2.53355101449415E-05,1.13861169666052E-05,4.21875,0,0
-2.62084504356608E-05,1.48096014527255E-05,4.21875,0,0
-2.70272903435398E-05,1.85954049811699E-05,4.21875,0,0
-2.30119621846825E-05,1.6188554582186E-05,4.21875,0,0
-3.40148508257698E-05,2.36999458138598E-05,4.21875,0,0
-2.70925975200953E-05,1.96296659851214E-05,4.21875,0,0
-3.24090724461712E-05,2.51582259807037E-05,4.21875,0,0
-2.74129906756571E-05,2.06279837584589E-05,4.21875,0,0
-3.0871968192514E-05,1.90566224773647E-05,4.21875,0,0
-2.89928411802975E-05,1.45494213938946E-05,4.21875,0,0
-2.98292798106559E-05,1.35527516249567E-05,4.21875,0,0
-2.76832379313419E-05,8.89332386577735E-06,4.21875,0,0
-2.63200472545577E-05,4.67633344669594E-06,4.21875,0,0
-2.63120218733093E-05,2.41440420722938E-06,4.21875,0,0
-2.54224923992297E-05,1.09663221792289E-06,4.21875,0,0
-2.5898600142682E-05,3.27111774822697E-06,4.21875,0,0
-2.48561500484357E-05,5.65946038477705E-06,4.21875,0,0
-2.73965633823536E-05,1.00773322628811E-05,4.21875,0,0
-2.80595977528719E-05,1.38461882670526E-05,4.21875,0,0
-3.03623837680789E-05,2.01927596208407E-05,4.21875,0,0
-2.87049060716527E-05,2.20271540456451E-05,4.21875,0,0
-2.79948053503176E-05,2.19608373299707E-05,4.21875,0,0
-2.50437951763161E-05,1.96586388483411E-05,4.21875,0,0
-2.42446894844761E-05,1.86324341484578E-05,4.21875,0,0
-2.33243899856461E-05,1.64060966199031E-05,4.21875,0,0
-2.36492160183843E-05,1.50034520629561E-05,4.21875,0,0
-2.16030675801449E-05,1.50577643580618E-05,4.21875,0,0
-1.98770994757069E-05,1.83086704055313E-05,4.21875,0,0
-1.96842192963231E-05,1.96772853087168E-05,4.21875,0,0
-2.04503412533086E-05,1.91263025044464E-05,4.21875,0,0
-1.58173188538058E-05,1.48455628732336E-05,4.21875,0,0
-2.20304300455609E-05,2.10887410503346E-05,4.21875,0,0
-1.66837526194286E-05,1.46876473081647E-05,4.21875,0,0
-2.10156649700366E-05,1.85410717676859E-05,4.21875,0,0
-1.80823553819209E-05,1.74454762600362E-05,4.21875,0,0
-2.10147463803878E-05,1.83859374374151E-05,4.21875,0,0
-2.02435458049877E-05,1.40049542096676E-05,4.21875,0,0
-2.31774229177972E-05,1.18063908303156E-05,4.21875,0,0
-2.38142092712224E-05,7.86340115155326E-06,4.21875,0,0
-2.31664580496727E-05,6.88551835992257E-06,4.21875,0,0
-2.21607297135051E-05,9.18978730624076E-06,4.21875,0,0
-2.04999050765764E-05,1.07222513179295E-05,4.21875,0,0
-2.00870672415476E-05,1.35831824081833E-05,4.21875,0,0
-1.83978354471037E-05,1.70326238730922E-05,4.21875,0,0
-1.9540388166206E-05,2.08992096304428E-05,4.21875,0,0
-1.99994592549047E-05,1.977904321393E-05,4.21875,0,0
-2.24813538807211E-05,1.76145040313713E-05,4.21875,0,0
-2.28722201427445E-05,1.31762126329704E-05,4.21875,0,0
-2.4549559384468E-05,1.11998542706715E-05,4.21875,0,0
-2.45398405240849E-05,9.85456154012354E-06,4.21875,0,0
-2.54230944847222E-05,1.17399385999306E-05,4.21875,0,0
-2.52450263360515E-05,1.37811584863812E-05,4.21875,0,0
-2.48739816015586E-05,1.53427736222511E-05,4.21875,0,0
-2.28534954658244E-05,1.62002143042628E-05,4.21875,0,0
-2.19961766561028E-05,1.57458362082252E-05,4.21875,0,0
-2.21786249312572E-05,1.19141404866241E-05,4.21875,0,0
-2.24013529077638E-05,1.06837023849948E-05,4.21875,0,0
-1.82564253918827E-05,1.10488717837143E-05,4.21875,0,0
-2.69706524704816E-05,1.70988842000952E-05,4.21875,0,0
-2.25678159040399E-05,1.39427356771193E-05,4.21875,0,0
-2.85238747892436E-05,1.67923444678308E-05,4.21875,0,0
-2.46224990405608E-05,1.33964522319729E-05,4.21875,0,0
-2.69228967226809E-05,1.01262394309742E-05,4.21875,0,0
-2.66940587607678E-05,6.85110535414424E-06,4.21875,0,0
-2.83905483229319E-05,5.28770897290087E-06,4.21875,0,0
-2.71776589215733E-05,1.85266776497883E-06,4.21875,0,0
-2.65152011706959E-05,2.17954607251158E-06,4.21875,0,0
-2.59340467891889E-05,5.02619559483719E-06,4.21875,0,0
-2.43721879087389E-05,6.19565207671258E-06,6.6796875,0,0
-2.43171125475783E-05,6.54277209832799E-06,6.6796875,0,0
-2.36711912293686E-05,5.43849500900251E-06,6.6796875,0,0
-2.53020643867785E-05,6.52701692160917E-06,6.6796875,0,0
-2.52153658948373E-05,8.82862968865084E-06,6.6796875,0,0
-2.70721484412206E-05,1.13190089905402E-05,6.6796875,0,0
-2.68840849457774E-05,9.57734391704435E-06,6.6796875,0,0
-2.8171456506243E-05,7.52862069930416E-06,6.6796875,0,0
-2.79085033980664E-05,6.19236880083918E-06,6.6796875,0,0
-2.96858088404406E-05,8.27272560854908E-06,6.6796875,0,0
-3.05796711472794E-05,1.0453964023327E-05,6.6796875,0,0
-3.06254369206727E-05,1.10593546196469E-05,6.6796875,0,0
-2.85837159026414E-05,9.03207364899572E-06,6.6796875,0,0
-2.81682096101576E-05,6.17202067587641E-06,6.6796875,0,0
-2.84511788777309E-05,3.0121486815915E-06,6.6796875,0,0
-2.90078005491523E-05,6.21281515122973E-07,6.6796875,0,0
-2.38247885135934E-05,-2.47715320256248E-07,6.6796875,0,0
-3.50499940395821E-05,-1.6413972403484E-08,6.6796875,0,0
-2.84126635961002E-05,2.07205016522494E-06,6.6796875,0,0
-3.51617200067267E-05,5.00956684845733E-06,6.6796875,0,0
-3.04570730804699E-05,6.96775123287807E-06,6.6796875,0,0
-3.38991158059798E-05,7.64272772357799E-06,6.6796875,0,0
-3.19888240483124E-05,9.4509223345085E-06,6.6796875,0,0
-3.28877358697355E-05,9.64780156209599E-06,6.6796875,0,0
-3.06615911540575E-05,7.74475302023347E-06,6.6796875,0,0
-2.92941185762174E-05,8.80757306731539E-06,6.6796875,0,0
-2.80854073935188E-05,1.18881307571428E-05,6.6796875,0,0
-2.56857929343823E-05,1.37423603518982E-05,6.6796875,0,0
-2.5552364604664E-05,1.45877165778074E-05,6.6796875,0,0
-2.45992432610365E-05,1.43585475598229E-05,6.6796875,0,0
-2.66962069872534E-05,1.21755610962282E-05,6.6796875,0,0
-2.63405745499767E-05,9.72830002865521E-06,6.6796875,0,0
-2.81251795968274E-05,1.09801485450589E-05,6.6796875,0,0
-2.6408026315039E-05,1.49724119182792E-05,6.6796875,0,0
-2.59432254097192E-05,1.62312171596568E-05,6.6796875,0,0
-2.38931861531455E-05,1.46042102642241E-05,6.6796875,0,0
-2.45737501245458E-05,1.29554018712952E-05,6.6796875,0,0
-2.32450092880754E-05,1.16823885036865E-05,6.6796875,0,0
-2.28509361477336E-05,1.21376579045318E-05,6.6796875,0,0
-2.17387841985328E-05,1.29107402244699E-05,6.6796875,0,0
-2.10644720937125E-05,1.31474316731328E-05,6.6796875,0,0
-1.96762139239581E-05,1.35168884298764E-05,6.6796875,0,0
-1.89615184353897E-05,1.15779030238627E-05,6.6796875,0,0
-1.32291761474335E-05,8.42395456857048E-06,6.6796875,0,0
-1.58563525474165E-05,1.45145977512584E-05,6.6796875,0,0
-8.35562877909979E-06,1.35115687953657E-05,6.6796875,0,0
-9.90930038824445E-06,1.48928129419801E-05,6.6796875,0,0
-5.24161259818356E-06,1.17611534733442E-05,6.6796875,0,0
-7.11386792318081E-06,1.04488444776507E-05,6.6796875,0,0
-5.49235210201005E-06,9.15031432668911E-06,6.6796875,0,0
-8.01519854576327E-06,9.80165987130022E-06,6.6796875,0,0
-1.0089470379171E-05,8.29234340926632E-06,6.6796875,0,0
-1.28765323097468E-05,7.39183815312572E-06,6.6796875,0,0
-1.58256771101151E-05,7.92809714766918E-06,6.6796875,0,0
-1.77129459189018E-05,7.61065439291997E-06,6.6796875,0,0
-2.10565976885846E-05,8.50179731060052E-06,6.6796875,0,0
-2.32506044994807E-05,1.03465690699522E-05,6.6796875,0,0
-2.66983479377814E-05,1.16111905299476E-05,6.6796875,0,0
-2.76277532975655E-05,1.04164701042464E-05,6.6796875,0,0
-3.02969074255088E-05,9.13019903237E-06,6.6796875,0,0
-3.20049148285761E-05,7.34351897335728E-06,6.6796875,0,0
-3.48709909303579E-05,6.35284686723026E-06,6.6796875,0,0
-3.51289927493781E-05,5.24116239830619E-06,6.6796875,0,0
-3.54022631654516E-05,6.14407781540649E-06,6.6796875,0,0
-3.47321692970581E-05,5.92841024626978E-06,6.6796875,0,0
-3.44480504281819E-05,5.67294637221494E-06,6.6796875,0,0
-3.19881801260635E-05,7.93001709098462E-06,6.6796875,0,0
-3.04141103697475E-05,1.13443738882779E-05,6.6796875,0,0
-2.97442602459341E-05,1.25255073726294E-05,6.6796875,0,0
-2.93482771667186E-05,1.20333061204292E-05,6.6796875,0,0
-2.50440534728114E-05,8.29712644190295E-06,6.6796875,0,0
-3.64013139915187E-05,1.1813428500318E-05,6.6796875,0,0
-2.65075013885507E-05,1.15180082502775E-05,6.6796875,0,0
-2.92463282676181E-05,1.66814006661298E-05,6.6796875,0,0
-2.11864717130084E-05,1.42271092045121E-05,6.6796875,0,0
-2.26977317652199E-05,1.20204213089892E-05,6.6796875,0,0
-1.90810296771815E-05,1.05883427750086E-05,6.6796875,0,0
-1.85928511200473E-05,1.44043806358241E-05,6.6796875,0,0
-1.50904215843184E-05,1.39005014716531E-05,6.6796875,0,0
-1.27666180560482E-05,1.29102809296455E-05,6.6796875,0,0
-1.16648870971403E-05,1.34992624225561E-05,6.6796875,0,0
-1.01338991953526E-05,1.43221968755824E-05,6.6796875,0,0
-1.04867667687358E-05,1.59568844537716E-05,6.6796875,0,0
-9.2305372163537E-06,1.59645824169274E-05,6.6796875,0,0
-1.16722976599704E-05,1.54501049109967E-05,6.6796875,0,0
-1.21027469504043E-05,1.27136117953341E-05,6.6796875,0,0
-1.47098617162555E-05,1.08109934444656E-05,6.6796875,0,0
-1.38424311444396E-05,8.59420197230065E-06,6.6796875,0,0
-1.42527360367239E-05,9.04292846826138E-06,6.6796875,0,0
-1.30781845655292E-05,9.54812821873929E-06,6.6796875,0,0
-1.54436984303175E-05,1.10637938632863E-05,6.6796875,0,0
-1.69558770721778E-05,1.19147734949365E-05,6.6796875,0,0
-1.91491526493337E-05,1.18961406769813E-05,6.6796875,0,0
-1.87682380783372E-05,9.67873347690329E-06,6.6796875,0,0
-1.85038788913516E-05,6.83022199154948E-06,6.6796875,0,0
-1.88861195056234E-05,4.85856753584812E-06,6.6796875,0,0
-2.03188901650719E-05,5.88885222896351E-06,6.6796875,0,0
-1.81421801244142E-05,6.69783366902266E-06,6.6796875,0,0
-2.62275789282285E-05,9.97993265627883E-06,6.6796875,0,0
-2.1301686501829E-05,7.13376311978209E-06,6.6796875,0,0
-2.76364426099462E-05,7.39508504921105E-06,6.6796875,0,0
-2.46375766437268E-05,4.87225906908861E-06,6.6796875,0,0
-2.67534433078254E-05,4.05661830882309E-06,6.6796875,0,0
-2.50448174483608E-05,4.72022975372965E-06,6.6796875,0,0
-2.66265051322989E-05,6.18913327343762E-06,6.6796875,0,0
-2.68461662926711E-05,3.37931214744458E-06,6.6796875,0,0
-2.6168983822572E-05,3.18868342219503E-06,6.6796875,0,0
-2.6152973077842E-05,7.36293759473483E-06,6.6796875,0,0
-2.69238953478634E-05,1.00922252386226E-05,6.6796875,0,0
-2.93943285214482E-05,1.15302764243097E-05,6.6796875,0,0
-2.89648905891227E-05,1.16019637061981E-05,6.6796875,0,0
-2.97225724352757E-05,1.14330086944392E-05,6.6796875,0,0
-2.88631126750261E-05,1.07088135337108E-05,6.6796875,0,0
-2.930774280685E-05,1.10466025944334E-05,6.6796875,0,0
-2.77433355222456E-05,1.02707044788986E-05,6.6796875,0,0
-2.77510534942849E-05,9.85548285825644E-06,6.6796875,0,0
-2.56835683103418E-05,9.16603767109336E-06,6.6796875,0,0
-2.47584575845394E-05,9.71186545939418E-06,6.6796875,0,0
-2.29257875616895E-05,1.1367898878234E-05,6.6796875,0,0
-2.23060069401981E-05,1.35300251713488E-05,6.6796875,0,0
-2.22712042159401E-05,1.50616779137636E-05,6.6796875,0,0
-2.39542569033802E-05,1.54947156261187E-05,6.6796875,0,0
-2.55632239714032E-05,1.57838530867593E-05,6.6796875,0,0
-2.69261363428086E-05,1.68011647474486E-05,6.6796875,0,0
-2.24668910959736E-05,1.22411183838267E-05,6.6796875,0,0
-3.16638688673265E-05,1.59834035002859E-05,6.6796875,0,0
-2.30716705118539E-05,1.11599611045676E-05,6.6796875,0,0
-2.83030913124094E-05,1.48894196172478E-05,6.6796875,0,0
-2.40106801356887E-05,1.14560016299947E-05,6.6796875,0,0
-2.80653875961434E-05,1.22088349598926E-05,6.6796875,0,0
-2.68443272943841E-05,1.03717884485377E-05,6.6796875,0,0
-2.88503015326569E-05,1.08684298538719E-05,6.6796875,0,0
-2.84690177068114E-05,8.38417872728314E-06,6.6796875,0,0
-2.84394809568767E-05,7.30265446691192E-06,6.6796875,0,0
-2.77689505310263E-05,6.70319786877371E-06,6.6796875,0,0
-2.59129010373726E-05,3.95772485717316E-06,6.6796875,0,0
-2.67019077000441E-05,2.82707514998037E-06,6.6796875,0,0
-2.6400624847156E-05,1.88036551662663E-06,6.6796875,0,0
-2.88529863610165E-05,1.63954837262281E-06,6.6796875,0,0
-2.83111094177002E-05,7.73045769619785E-07,6.6796875,0,0
-2.95698337140493E-05,4.51002506451914E-06,6.6796875,0,0
-2.83323224721244E-05,8.87048099684762E-06,6.6796875,0,0
-2.93095981760416E-05,1.43795723488438E-05,6.6796875,0,0
-2.80483163805911E-05,1.66825520864222E-05,6.6796875,0,0
-2.79158830380766E-05,1.80273327714531E-05,6.6796875,0,0
-2.64391728705959E-05,1.84003802132793E-05,6.6796875,0,0
-2.68225376203191E-05,1.87634213943966E-05,6.6796875,0,0
-2.64129921561107E-05,1.7186919649248E-05,6.6796875,0,0
-2.76703776762588E-05,1.59843712026486E-05,6.6796875,0,0
-3.03368742606835E-05,1.36615808514762E-05,6.6796875,0,0
-3.20139843097422E-05,1.18689895316493E-05,6.6796875,0,0
-2.38194534176728E-05,7.36870970285963E-06,6.6796875,0,0
-3.17696540150791E-05,7.80404025135795E-06,6.6796875,0,0
-2.28730004891986E-05,1.63058382440795E-06,6.6796875,0,0
-3.09018105326686E-05,2.88917499347008E-06,6.6796875,0,0
-2.65123817371205E-05,2.21798677557672E-06,6.6796875,0,0
-3.11289586534258E-05,2.7286441763863E-06,6.6796875,0,0
-2.95559548249003E-05,7.63012167226407E-07,6.6796875,0,0
-3.23958265653346E-05,2.58233990280132E-06,6.6796875,0,0
-3.25463806802873E-05,5.12625911142095E-06,6.6796875,0,0
-3.25135588354897E-05,7.89463229011744E-06,6.6796875,0,0
-3.18431011692155E-05,9.43967188504757E-06,6.6796875,0,0
-2.84211673715618E-05,9.26422580960207E-06,6.6796875,0,0
-2.60750057350378E-05,8.71403062774334E-06,6.6796875,0,0
-2.30223431572085E-05,7.25225118003436E-06,9.31640625,0,0
-2.46719318965916E-05,8.04149658506503E-06,9.31640625,0,0
-2.38684933719924E-05,1.02689828054281E-05,9.31640625,0,0
-2.49493004957912E-05,1.35157861222979E-05,9.31640625,0,0
-2.25827352551278E-05,1.39523581310641E-05,9.31640625,0,0
-2.2909238396096E-05,1.38289206006448E-05,9.31640625,0,0
-2.16915268538287E-05,1.3018213394389E-05,9.31640625,0,0
-2.19756857404718E-05,1.4793787158851E-05,9.31640625,0,0
-1.95909469766775E-05,1.65043093147688E-05,9.31640625,0,0
-1.78420032170834E-05,1.57184622366913E-05,9.31640625,0,0
-1.60254603542853E-05,1.3280994608067E-05,9.31640625,0,0
-1.78716818481917E-05,1.30585249280557E-05,9.31640625,0,0
-2.05155993171502E-05,1.44642535815365E-05,9.31640625,0,0
-2.2186295609572E-05,1.58880102389958E-05,9.31640625,0,0
-1.85447570402175E-05,1.12882898974931E-05,9.31640625,0,0
-2.56312996498309E-05,1.31812939798692E-05,9.31640625,0,0
-1.95128886844032E-05,6.76417766953819E-06,9.31640625,0,0
-2.60920151049504E-05,1.44416462717345E-05,9.31640625,0,0
-2.30902678595157E-05,1.71752526512137E-05,9.31640625,0,0
-2.50721914198948E-05,1.90096579899546E-05,9.31640625,0,0
-2.39597793552093E-05,1.67663856700528E-05,9.31640625,0,0
-2.65093694906682E-05,1.64024422701914E-05,9.31640625,0,0
-2.57771116594085E-05,1.27391876958427E-05,9.31640625,0,0
-2.49712538789026E-05,9.24754749576095E-06,9.31640625,0,0
-2.44457660301123E-05,7.53161475586239E-06,9.31640625,0,0
-2.38182310567936E-05,5.86616442888044E-06,9.31640625,0,0
-2.50081156991655E-05,6.68812708681799E-06,9.31640625,0,0
-2.4414352083113E-05,7.18313458492048E-06,9.31640625,0,0
-2.5796432964853E-05,7.61345654609613E-06,9.31640625,0,0
-2.5501740310574E-05,6.34672005617176E-06,9.31640625,0,0
-2.73977311735507E-05,8.45908562041586E-06,9.31640625,0,0
-2.67663290287601E-05,1.05273611552548E-05,9.31640625,0,0
-2.75351503660204E-05,1.2072101526428E-05,9.31640625,0,0
-2.681268415472E-05,1.13432761281729E-05,9.31640625,0,0
-2.7591799153015E-05,1.07205141830491E-05,9.31640625,0,0
-2.66627739620162E-05,9.46973523241468E-06,9.31640625,0,0
-2.71728949883254E-05,9.51798938331194E-06,9.31640625,0,0
-2.67637569777435E-05,9.93160483631073E-06,9.31640625,0,0
-2.58215368376113E-05,1.20653166959528E-05,9.31640625,0,0
-2.46132949541789E-05,1.47096579894423E-05,9.31640625,0,0
-2.37850435951259E-05,1.64335633598967E-05,9.31640625,0,0
-1.71637657331303E-05,1.26668437587796E-05,9.31640625,0,0
-2.25339008466108E-05,1.75987152033485E-05,9.31640625,0,0
-1.40199917950667E-05,1.23869076560368E-05,9.31640625,0,0
-1.69846935023088E-05,1.5855597666814E-05,9.31640625,0,0
-1.36903081511264E-05,1.44378655022592E-05,9.31640625,0,0
-1.73028183780843E-05,1.59145256475313E-05,9.31640625,0,0
-1.50806399688008E-05,1.44692085086717E-05,9.31640625,0,0
-1.53965866047656E-05,1.64959565154277E-05,9.31640625,0,0
-1.28674219013192E-05,1.61141215357929E-05,9.31640625,0,0
-1.05758008430712E-05,1.48783092299709E-05,9.31640625,0,0
-1.03814327303553E-05,1.3085794307699E-05,9.31640625,0,0
-1.03394186226069E-05,1.09328429971356E-05,9.31640625,0,0
-1.13017540570581E-05,1.15331959023024E-05,9.31640625,0,0
-1.11106455733534E-05,1.31982205857639E-05,9.31640625,0,0
-1.33225394165493E-05,1.49309362313943E-05,9.31640625,0,0
-1.37890738187707E-05,1.16137671284378E-05,9.31640625,0,0
-1.53868859342765E-05,9.01883231563261E-06,9.31640625,0,0
-1.3084153579257E-05,7.87666704127332E-06,9.31640625,0,0
-1.23678128147731E-05,9.45680312725017E-06,9.31640625,0,0
-1.26351578728645E-05,9.22153230931144E-06,9.31640625,0,0
-1.54892968566855E-05,9.76887531578541E-06,9.31640625,0,0
-1.62037322297692E-05,1.03568163467571E-05,9.31640625,0,0
-1.69548075064085E-05,1.15890270535601E-05,9.31640625,0,0
-1.55118250404485E-05,1.22335422929609E-05,9.31640625,0,0
-1.49041852637311E-05,1.41807722684462E-05,9.31640625,0,0
-1.68095357366838E-05,1.43761581057333E-05,9.31640625,0,0
-2.06025288207456E-05,1.4297901543614E-05,9.31640625,0,0
-1.88001813512528E-05,1.2945561138622E-05,9.31640625,0,0
-2.66922234004596E-05,1.83709453267511E-05,9.31640625,0,0
-2.06200729735428E-05,1.40254296638886E-05,9.31640625,0,0
-2.67912546405569E-05,1.88836966117378E-05,9.31640625,0,0
-2.38885859289439E-05,1.63849836098962E-05,9.31640625,0,0
-2.6480358428671E-05,1.47828905028291E-05,9.31640625,0,0
-2.56977509707212E-05,1.03670845419401E-05,9.31640625,0,0
-2.84490342892241E-05,9.06117475096835E-06,9.31640625,0,0
-2.84994948742678E-05,7.62301988288527E-06,9.31640625,0,0
-2.86312733805971E-05,7.68432710174238E-06,9.31640625,0,0
-2.97975238936488E-05,8.76544436323456E-06,9.31640625,0,0
-3.13623240799643E-05,9.3949547590455E-06,9.31640625,0,0
-3.38874706358183E-05,1.04650553112151E-05,9.31640625,0,0
-3.29187423631083E-05,8.39607400848763E-06,9.31640625,0,0
-3.29301437886897E-05,6.73289150654455E-06,9.31640625,0,0
-3.11417898046784E-05,5.93182585362229E-06,9.31640625,0,0
-3.12336887873244E-05,8.74652960192179E-06,9.31640625,0,0
-2.92547701974399E-05,1.0282245966664E-05,9.31640625,0,0
-3.04233872157056E-05,1.14360545921954E-05,9.31640625,0,0
-3.09952811221592E-05,1.04082082543755E-05,9.31640625,0,0
-3.14890494337305E-05,9.48862179939169E-06,9.31640625,0,0
-2.84006746369414E-05,6.63145783619257E-06,9.31640625,0,0
-2.64291520579718E-05,3.97967369281105E-06,9.31640625,0,0
-2.49705626629293E-05,2.43398949351104E-06,9.31640625,0,0
-2.50880075327586E-05,3.73226839656127E-06,9.31640625,0,0
-2.57864521699958E-05,5.63919002161128E-06,9.31640625,0,0
-2.63074507529382E-05,7.07491972207208E-06,9.31640625,0,0
-2.0966805095668E-05,7.51350262362394E-06,9.31640625,0,0
-2.94069905066863E-05,1.06160523500876E-05,9.31640625,0,0
-2.17606866499409E-05,4.84996462546405E-06,9.31640625,0,0
-2.71355747827329E-05,4.80067319585942E-06,9.31640625,0,0
-2.36693504120922E-05,6.32162436886574E-06,9.31640625,0,0
-2.80344884231454E-05,1.05892368083005E-05,9.31640625,0,0
-2.58733343798667E-05,1.38674522531801E-05,9.31640625,0,0
-2.60323340626201E-05,1.5097812138265E-05,9.31640625,0,0
-2.46905055973912E-05,1.21277480502613E-05,9.31640625,0,0
-2.47099960688502E-05,1.09961565613048E-05,9.31640625,0,0
-2.49043077928945E-05,1.36630014822003E-05,9.31640625,0,0
-2.46198851527879E-05,1.61423013196327E-05,9.31640625,0,0
-2.6745747163659E-05,1.77448800968705E-05,9.31640625,0,0
-2.68783951469231E-05,1.66671015904285E-05,9.31640625,0,0
-2.71891130978474E-05,1.41510599860339E-05,9.31640625,0,0
-2.39786295423983E-05,1.13302257886971E-05,9.31640625,0,0
-2.46463005169062E-05,1.21171051432611E-05,9.31640625,0,0
-2.5711984562804E-05,1.6045125448727E-05,9.31640625,0,0
-2.90540028800024E-05,2.00555805349723E-05,9.31640625,0,0
-2.90917214442743E-05,1.91257076949114E-05,9.31640625,0,0
-3.06116162391845E-05,1.59304290718865E-05,9.31640625,0,0
-3.04186323774047E-05,1.33589628603659E-05,9.31640625,0,0
-2.88427818304626E-05,1.33222965814639E-05,9.31640625,0,0
-2.48821925197262E-05,1.31503102238639E-05,9.31640625,0,0
-2.36540799960494E-05,1.16066585178487E-05,9.31640625,0,0
-2.37567401200067E-05,1.01666510090581E-05,9.31640625,0,0
-2.42956575675635E-05,7.90278318163473E-06,9.31640625,0,0
-1.89388974831672E-05,5.45474040336558E-06,9.31640625,0,0
-2.55695686064428E-05,8.65207493916387E-06,9.31640625,0,0
-1.80994738911977E-05,5.97916687183897E-06,9.31640625,0,0
-2.38603624893585E-05,4.55361578133306E-06,9.31640625,0,0
-2.04542138817487E-05,2.55632676271489E-06,9.31640625,0,0
-2.27575274038827E-05,3.8211351238715E-06,9.31640625,0,0
-2.0705405404442E-05,6.08782329436508E-06,9.31640625,0,0
-2.30584482778795E-05,9.69615484791575E-06,9.31640625,0,0
-2.56534240179462E-05,8.05468243925134E-06,9.31640625,0,0
-3.03627821267582E-05,4.96118673254387E-06,9.31640625,0,0
-3.38749705406372E-05,5.21779020346003E-06,9.31640625,0,0
-3.44049440172967E-05,5.00708802064764E-06,9.31640625,0,0
-3.44244435837027E-05,5.18665456183953E-06,9.31640625,0,0
-3.22811465593986E-05,5.86266969548888E-06,9.31640625,0,0
-3.30004077113699E-05,6.56427391731995E-06,9.31640625,0,0
-3.25010514643509E-05,7.15365831638337E-06,9.31640625,0,0
-3.46641609212384E-05,9.10046856006375E-06,9.31640625,0,0
-3.38938334607519E-05,1.00050592664047E-05,9.31640625,0,0
-3.39568214258179E-05,9.87519615591737E-06,9.31640625,0,0
-3.27696725435089E-05,8.56599763210397E-06,9.31640625,0,0
-3.34184951498173E-05,8.90190494828857E-06,9.31640625,0,0
-3.08072339976206E-05,1.08914255179116E-05,9.31640625,0,0
-2.83142526313895E-05,1.21136354209739E-05,9.31640625,0,0
-2.55060094787041E-05,1.21438333735568E-05,9.31640625,0,0
-2.36896321439417E-05,1.35408290589112E-05,9.31640625,0,0
-2.18956720345886E-05,1.2760058780259E-05,9.31640625,0,0
-2.05275919142878E-05,8.72218788572354E-06,9.31640625,0,0
-1.44405885293963E-05,6.39679092273582E-06,9.31640625,0,0
-1.56372188939713E-05,1.185957898997E-05,9.31640625,0,0
-4.15290833188919E-06,1.30881708173547E-05,9.31640625,0,0
-5.36128254680079E-06,1.68067253980553E-05,9.31640625,0,0
-1.66297081705125E-06,1.73379066836787E-05,9.31640625,0,0
-5.59035606784164E-06,1.51323147292715E-05,9.31640625,0,0
-6.37716993878712E-06,1.14932099677389E-05,9.31640625,0,0
-9.36447213462088E-06,1.3116226909915E-05,9.31640625,0,0
-1.07168634713162E-05,1.36435774038546E-05,9.31640625,0,0
-1.33239091155701E-05,1.31859096654807E-05,9.31640625,0,0
-1.55378747876966E-05,1.14408685476519E-05,9.31640625,0,0
-1.55524958245223E-05,8.59066494740546E-06,9.31640625,0,0
-1.60115469043376E-05,7.86166947364109E-06,9.31640625,0,0
-1.53639430209296E-05,7.1557756200491E-06,9.31640625,0,0
-1.79094786290079E-05,6.33703439234523E-06,9.31640625,0,0
-1.96323762793327E-05,4.71503062726697E-06,9.31640625,0,0
-2.1837071471964E-05,3.29862041326123E-06,9.31640625,0,0
-2.05295218620449E-05,1.74147169218486E-06,9.31640625,0,0
-2.1079569705762E-05,1.94364042727102E-06,9.31640625,0,0
-2.08155524887843E-05,2.48843207373284E-06,9.31640625,0,0
-2.21550217247568E-05,6.34518892184133E-06,9.31640625,0,0
-2.30492114496883E-05,1.31888009491377E-05,9.31640625,0,0
-2.51023793680361E-05,1.91938488569576E-05,9.31640625,0,0
-2.53140606218949E-05,2.2956810425967E-05,9.31640625,0,0
-2.46113686444005E-05,2.40242934523849E-05,9.31640625,0,0
-2.51697274507023E-05,2.12675040529575E-05,9.31640625,0,0
-2.67909545073053E-05,1.76113644556608E-05,9.31640625,0,0
-2.13709372474113E-05,1.25256547107711E-05,9.31640625,0,0
-3.06501060549635E-05,1.89873517228989E-05,9.31640625,0,0
-2.37846234085737E-05,1.45265912578907E-05,9.31640625,0,0
-2.99917865049792E-05,1.71078245330136E-05,9.31640625,0,0
-2.63812253251672E-05,1.53169439727208E-05,9.31640625,0,0
-2.93582834274275E-05,1.66970530699473E-05,9.31640625,0,0
-2.66284969256958E-05,1.59268129209522E-05,9.31640625,0,0
-2.72427441814216E-05,1.64126267918618E-05,9.31640625,0,0
-2.61077657341957E-05,1.414997404936E-05,9.31640625,0,0
-2.53340149356518E-05,1.29916043078993E-05,9.31640625,0,0
-2.37100775848376E-05,1.22232986541349E-05,9.31640625,0,0
-2.22135804506252E-05,8.55047983350232E-06,9.31640625,0,0
-2.39510409301147E-05,5.53592371943523E-06,9.31640625,0,0
-2.38472748606E-05,4.98583949593012E-06,9.31640625,0,0
-2.33440878218971E-05,8.61759053805145E-06,9.31640625,0,0
-1.96825203602202E-05,1.1574404197745E-05,9.31640625,0,0
-1.93295327335363E-05,1.36149856189149E-05,9.31640625,0,0
-1.78705813596025E-05,1.17586450869567E-05,9.31640625,0,0
-2.06797885766719E-05,1.06606048575486E-05,9.31640625,0,0
-2.27832551900065E-05,1.00721190392505E-05,9.31640625,0,0
-2.50510001933435E-05,1.10375794974971E-05,9.31640625,0,0
-2.42421210714383E-05,1.15172451842227E-05,9.31640625,0,0
-2.40913977904711E-05,1.12353900476592E-05,9.31640625,0,0
-2.23835886572488E-05,9.0767425717786E-06,9.31640625,0,0
-2.21547525143251E-05,7.96019594417885E-06,9.31640625,0,0
-2.29344695981126E-05,8.55051530379569E-06,9.31640625,0,0
-2.4638487957418E-05,1.18170873975032E-05,9.31640625,0,0
-2.04320458578877E-05,1.10318087536143E-05,9.31640625,0,0
-2.70432228717254E-05,1.54085137182847E-05,9.31640625,0,0
-1.81340856215684E-05,1.05550543594291E-05,9.31640625,0,0
-2.41867819568142E-05,1.18450388981728E-05,9.31640625,0,0
-2.05073956749402E-05,8.27297208161326E-06,9.31640625,0,0
-2.33368009503465E-05,9.05882370716427E-06,9.31640625,0,0
-2.03112813323969E-05,1.07528330772766E-05,9.31640625,0,0
-1.99901805899572E-05,1.60576582857175E-05,9.31640625,0,0
-1.89769289136166E-05,1.67279267770937E-05,9.31640625,0,0
-2.10797261388507E-05,1.61970219778595E-05,9.31640625,0,0
-2.42263486143202E-05,1.5042283848743E-05,9.31640625,0,0
-2.49988352152286E-05,1.31880979097332E-05,9.31640625,0,0
-2.6515011995798E-05,1.21478415167076E-05,9.31640625,0,0
-2.60460474237334E-05,8.41880591906374E-06,9.31640625,0,0
-2.80258482234785E-05,5.07182585351984E-06,9.31640625,0,0
-2.73396362899803E-05,1.83817223842198E-06,9.31640625,0,0
-2.80257099802839E-05,2.57841929851566E-06,9.31640625,0,0
-2.51652090810239E-05,4.48150603915565E-06,9.31640625,0,0
-2.46090094151441E-05,8.34519414638635E-06,9.31640625,0,0
-2.46265408350155E-05,9.19588910619495E-06,9.31640625,0,0
-2.66722909145756E-05,9.49215882428689E-06,9.31640625,0,0
-2.46596064243931E-05,9.2869167929166E-06,9.31640625,0,0
-2.22573726205155E-05,8.17397813079879E-06,9.31640625,0,0
-2.06702952709747E-05,5.79179140913766E-06,9.31640625,0,0
-2.00752620003186E-05,4.74771286462783E-06,9.31640625,0,0
-1.83151987585006E-05,4.26811493525747E-06,9.31640625,0,0
-1.71857536770403E-05,4.85833470520447E-06,9.31640625,0,0
-1.43318075060961E-05,4.23879919253523E-06,9.31640625,0,0
-2.2387695935322E-05,4.5339102143771E-06,9.31640625,0,0
-2.02191804419272E-05,1.09898189748492E-06,9.31640625,0,0
-2.34859726333525E-05,2.92256004286173E-06,9.31640625,0,0
-2.00162103283219E-05,3.38106406161387E-06,9.31640625,0,0
-2.33534356084419E-05,3.84022496291436E-06,9.31640625,0,0
-2.45767969317967E-05,5.2852105909551E-06,9.31640625,0,0
-2.78292591247009E-05,8.471723049297E-06,9.31640625,0,0
-2.86225767922588E-05,9.87436396826524E-06,9.31640625,0,0
-2.78759689535946E-05,1.09907496153028E-05,9.31640625,0,0
-2.72387842414901E-05,1.1036594514735E-05,9.31640625,0,0
-2.7436875825515E-05,1.00644392659888E-05,9.31640625,0,0
-2.86090344161494E-05,1.05295066532562E-05,9.31640625,0,0
-2.79143605439458E-05,1.18313546408899E-05,9.31640625,0,0
-2.90648695226992E-05,1.36264661705354E-05,9.31640625,0,0
-2.90588686766569E-05,1.51348403960583E-05,9.31640625,0,0
-2.96125326713081E-05,1.69519316841615E-05,9.31640625,0,0
-2.7494130335981E-05,1.62853157235077E-05,9.31640625,0,0
-2.73951354756719E-05,1.41938335218583E-05,9.31640625,0,0
-2.70884247584036E-05,1.1991175597359E-05,9.31640625,0,0
-2.75165275525069E-05,1.14928971015615E-05,9.31640625,0,0
-2.69648044195492E-05,1.237279320776E-05,9.31640625,0,0
-2.77094841294456E-05,1.52979391714325E-05,11.6015625,0,0
-2.82335968222469E-05,1.7164016753668E-05,11.6015625,0,0
-2.84222132904688E-05,1.77168585651089E-05,11.6015625,0,0
-2.80579279205995E-05,1.90357295650756E-05,11.6015625,0,0
-2.82769869954791E-05,1.84676991921151E-05,11.6015625,0,0
-2.2991491277935E-05,1.23697263916256E-05,11.6015625,0,0
-3.2721694879001E-05,1.61835705512203E-05,11.6015625,0,0
-2.47816915361909E-05,1.18079378808034E-05,11.6015625,0,0
-3.13396485580597E-05,1.53461533045629E-05,11.6015625,0,0
-2.77765102509875E-05,1.00721626949962E-05,11.6015625,0,0
-3.17345766234212E-05,9.27856399357552E-06,11.6015625,0,0
-2.98651011689799E-05,8.01588885224191E-06,11.6015625,0,0
-3.20403087243903E-05,1.10790342660039E-05,11.6015625,0,0
-3.17183657898568E-05,9.32290822674986E-06,11.6015625,0,0
-3.17341182380915E-05,7.53627364247222E-06,11.6015625,0,0
-3.16263867716771E-05,6.74156353852595E-06,11.6015625,0,0
-3.11321709887125E-05,5.05640218761982E-06,11.6015625,0,0
-3.26497138303239E-05,6.22454990661936E-06,11.6015625,0,0
-3.1868305086391E-05,7.21521018931526E-06,11.6015625,0,0
-3.27964226016775E-05,9.05501019587973E-06,11.6015625,0,0
-3.01582404063083E-05,9.49934928939911E-06,11.6015625,0,0
-2.93788416456664E-05,1.11666895463713E-05,11.6015625,0,0
-2.66318984358804E-05,8.76332251209533E-06,11.6015625,0,0
-2.73020687018288E-05,8.39772292238195E-06,11.6015625,0,0
-2.66194383584661E-05,1.04289347291342E-05,11.6015625,0,0
-2.74935828201706E-05,1.3445106560539E-05,11.6015625,0,0
-2.54130172834266E-05,1.34772008095752E-05,11.6015625,0,0
-2.2938951588003E-05,1.51837248267839E-05,11.6015625,0,0
-1.90562368516112E-05,1.5146664736676E-05,11.6015625,0,0
-1.67021644301713E-05,1.23230083772796E-05,11.6015625,0,0
-1.46481906995177E-05,9.36667220230447E-06,11.6015625,0,0
-1.33251924125943E-05,8.20023160486016E-06,11.6015625,0,0
-9.97877305053407E-06,7.5131511039217E-06,11.6015625,0,0
-1.32977393150213E-05,1.08799440567964E-05,11.6015625,0,0
-9.66031893767649E-06,7.12859446139191E-06,11.6015625,0,0
-1.19796268336358E-05,6.47300885248114E-06,11.6015625,0,0
-1.00612714959425E-05,2.41301654568815E-06,11.6015625,0,0
-1.23396303024492E-05,1.93471828424663E-06,11.6015625,0,0
-1.12890866148518E-05,3.26743816003727E-06,11.6015625,0,0
-1.39305466291262E-05,5.12225642523845E-06,11.6015625,0,0
-1.69664654094959E-05,3.07946720567998E-06,11.6015625,0,0
-1.75431887328159E-05,1.35757670705061E-06,11.6015625,0,0
-1.63393287948566E-05,1.06647853215236E-07,11.6015625,0,0
-1.62245014507789E-05,-2.3715001589153E-06,11.6015625,0,0
-1.85448916454334E-05,-1.24011341995356E-06,11.6015625,0,0
-2.03084164240863E-05,2.59086232290429E-06,11.6015625,0,0
-2.27612072194461E-05,6.97079531164491E-06,11.6015625,0,0
-2.2270640329225E-05,7.85862994234776E-06,11.6015625,0,0
-2.15393883991055E-05,6.687004770356E-06,11.6015625,0,0
-1.93064388440689E-05,5.21960964761092E-06,11.6015625,0,0
-1.87063997145742E-05,7.06187393006985E-06,11.6015625,0,0
-1.84240398084512E-05,8.66331629367778E-06,11.6015625,0,0
-2.01196035050089E-05,8.86490579432575E-06,11.6015625,0,0
-2.09966547117801E-05,8.80540392245166E-06,11.6015625,0,0
-2.18001005123369E-05,1.06156176116201E-05,11.6015625,0,0
-2.04900916287443E-05,1.17448407763732E-05,11.6015625,0,0
-1.80364841071423E-05,1.19943006211543E-05,11.6015625,0,0
-1.65508663485525E-05,1.29306281451136E-05,11.6015625,0,0
-1.67915441124933E-05,1.48415456351358E-05,11.6015625,0,0
-1.45638505273382E-05,1.34654574139859E-05,11.6015625,0,0
-2.16305797948735E-05,1.91705748875393E-05,11.6015625,0,0
-1.73666412592866E-05,1.39568855956895E-05,11.6015625,0,0
-2.10729776881635E-05,1.63921649800614E-05,11.6015625,0,0
-1.95555803657044E-05,1.24497737488127E-05,11.6015625,0,0
-2.33493665291462E-05,1.33322128021973E-05,11.6015625,0,0
-2.31131652981276E-05,1.23282852655393E-05,11.6015625,0,0
-2.47870157181751E-05,1.44674850162119E-05,11.6015625,0,0
-2.40509270952316E-05,1.31551023514476E-05,11.6015625,0,0
-2.31466001423541E-05,1.18129846669035E-05,11.6015625,0,0
-2.1571326215053E-05,1.12122479549726E-05,11.6015625,0,0
-2.03655017685378E-05,7.87238968769088E-06,11.6015625,0,0
-2.17658780456986E-05,5.83456494496204E-06,11.6015625,0,0
-2.24085579247912E-05,5.36295601705206E-06,11.6015625,0,0
-2.41195684793638E-05,8.86805173649918E-06,11.6015625,0,0
-2.36218911595643E-05,1.30639418784995E-05,11.6015625,0,0
-2.49251297645969E-05,1.93485029740259E-05,11.6015625,0,0
-2.47844272962539E-05,2.14085503102979E-05,11.6015625,0,0
-2.57317915384192E-05,2.05995529540814E-05,11.6015625,0,0
-2.50908160523977E-05,1.58894381456776E-05,11.6015625,0,0
-2.64635909843491E-05,1.16750061351922E-05,11.6015625,0,0
-2.75972470262786E-05,9.86448230833048E-06,11.6015625,0,0
-2.76255032076733E-05,1.26475060824305E-05,11.6015625,0,0
-2.5937071768567E-05,1.47683585964842E-05,11.6015625,0,0
-2.58794880210189E-05,1.499424524809E-05,11.6015625,0,0
-2.56375060416758E-05,1.43398765430902E-05,11.6015625,0,0
-2.47892494371627E-05,1.47748232848244E-05,11.6015625,0,0
-2.042359119514E-05,1.29416130221216E-05,11.6015625,0,0
-2.9418839403661E-05,1.87707264558412E-05,11.6015625,0,0
-2.21939262701198E-05,1.18076504804776E-05,11.6015625,0,0
-2.74703706963919E-05,1.17896533993189E-05,11.6015625,0,0
-2.35006373259239E-05,1.01077121144044E-05,11.6015625,0,0
-2.63335041381652E-05,1.40093761729077E-05,11.6015625,0,0
-2.45614028244745E-05,1.57782615133328E-05,11.6015625,0,0
-2.53194975812221E-05,1.86241504707141E-05,11.6015625,0,0
-2.46375275310129E-05,1.75915465661092E-05,11.6015625,0,0
-2.46562449319754E-05,1.67916623468045E-05,11.6015625,0,0
-2.60609704128001E-05,1.70156436070101E-05,11.6015625,0,0
-2.67520790657727E-05,1.5939951481414E-05,11.6015625,0,0
-2.71324061031919E-05,1.48946082845214E-05,11.6015625,0,0
-2.50470839091577E-05,1.45890253406833E-05,11.6015625,0,0
-2.69155480054906E-05,1.63687600434059E-05,11.6015625,0,0
-2.81773627648363E-05,1.62750384333776E-05,11.6015625,0,0
-3.05779394693673E-05,1.76733083208092E-05,11.6015625,0,0
-2.9809032639605E-05,1.66415411513299E-05,11.6015625,0,0
-3.08719281747472E-05,1.45440872074687E-05,11.6015625,0,0
-3.02602547890274E-05,1.25639899124508E-05,11.6015625,0,0
-3.058345100726E-05,1.41242935569608E-05,11.6015625,0,0
-2.91648084385088E-05,1.47516338984133E-05,11.6015625,0,0
-2.82254241028568E-05,1.33053436002228E-05,11.6015625,0,0
-2.77556937362533E-05,1.03919874163694E-05,11.6015625,0,0
-2.91606957034674E-05,1.05762110251817E-05,11.6015625,0,0
-2.86052054434549E-05,1.22403780551394E-05,11.6015625,0,0
-2.56074526987504E-05,1.37267015816178E-05,11.6015625,0,0
-1.93521809705999E-05,1.03585425677011E-05,11.6015625,0,0
-2.69327756541315E-05,1.27234743558802E-05,11.6015625,0,0
-1.95681150216842E-05,6.58519684293424E-06,11.6015625,0,0
-2.46271665673703E-05,1.1241352694924E-05,11.6015625,0,0
-2.17049655475421E-05,1.20136310215457E-05,11.6015625,0,0
-2.53552843787475E-05,1.3724520613323E-05,11.6015625,0,0
-2.31541107496014E-05,1.49388406498474E-05,11.6015625,0,0
-2.34273265959928E-05,1.74960387084866E-05,11.6015625,0,0
-2.23994520638371E-05,1.55182569869794E-05,11.6015625,0,0
-2.17843698919751E-05,1.32719687826466E-05,11.6015625,0,0
-2.08265373657923E-05,1.13647929538274E-05,11.6015625,0,0
-1.96051787497709E-05,9.81000266619958E-06,11.6015625,0,0
-2.05823962460272E-05,1.04834471130744E-05,11.6015625,0,0
-1.99414880626136E-05,1.10929804577609E-05,11.6015625,0,0
-2.18343411688693E-05,1.1570104106795E-05,11.6015625,0,0
-2.19323992496356E-05,9.16113822313491E-06,11.6015625,0,0
-2.34135568462079E-05,7.03905334376032E-06,11.6015625,0,0
-2.23412807827117E-05,6.07816537012695E-06,11.6015625,0,0
-2.25656767725013E-05,9.98223458736902E-06,11.6015625,0,0
-1.98629968508612E-05,1.20456643344369E-05,11.6015625,0,0
-1.78938571480103E-05,9.98090854409384E-06,11.6015625,0,0
-1.61195257533109E-05,5.29021099282545E-06,11.6015625,0,0
-1.7695376300253E-05,3.70075349565013E-06,11.6015625,0,0
-1.97729859792162E-05,3.56475015905744E-06,11.6015625,0,0
-2.21887039515423E-05,2.9310592708498E-06,11.6015625,0,0
-2.35038551181788E-05,3.79300649910874E-06,11.6015625,0,0
-2.49394470301922E-05,7.02154375176178E-06,11.6015625,0,0
-2.1395091607701E-05,5.18914748681709E-06,11.6015625,0,0
-2.98341601592256E-05,7.07722892911988E-06,11.6015625,0,0
-2.05168453248916E-05,5.86669330004952E-06,11.6015625,0,0
-2.45208157139132E-05,8.94691584107932E-06,11.6015625,0,0
-2.11561946343863E-05,8.26987979962723E-06,11.6015625,0,0
-2.54870574281085E-05,7.10595122654922E-06,11.6015625,0,0
-2.38053617067635E-05,6.44042893327423E-06,11.6015625,0,0
-2.49246331804898E-05,8.23793379822746E-06,11.6015625,0,0
-2.3299318854697E-05,8.65872971189674E-06,11.6015625,0,0
-2.22267262870446E-05,9.7712299975683E-06,11.6015625,0,0
-2.21003538172226E-05,8.90868250280619E-06,11.6015625,0,0
-2.22008184209699E-05,6.26115161139751E-06,11.6015625,0,0
-2.46575855271658E-05,6.48604009256815E-06,11.6015625,0,0
-2.36702799156774E-05,8.19905835669488E-06,11.6015625,0,0
-2.35495481319958E-05,8.6596837718389E-06,11.6015625,0,0
-2.18158984353067E-05,7.21437481843168E-06,11.6015625,0,0
-2.46388572122669E-05,7.56118242861703E-06,11.6015625,0,0
-2.56847670243587E-05,7.63592743169283E-06,11.6015625,0,0
-2.76136797765503E-05,7.4394097282493E-06,11.6015625,0,0
-2.69863794528646E-05,6.15722092334181E-06,11.6015625,0,0
-2.83241952274693E-05,5.30691659150762E-06,11.6015625,0,0
-2.86341019091196E-05,4.48468563263305E-06,11.6015625,0,0
-2.94429810310248E-05,3.35800154971366E-06,11.6015625,0,0
-2.93960474664345E-05,1.87051477951172E-06,11.6015625,0,0
-2.97393453365657E-05,3.26764734381868E-06,11.6015625,0,0
-2.92011700366857E-05,6.45322052150732E-06,11.6015625,0,0
-2.82688070001313E-05,9.73711303231539E-06,11.6015625,0,0
-2.08326127904002E-05,8.56768292578636E-06,11.6015625,0,0
-2.85561127384426E-05,1.22022511277464E-05,11.6015625,0,0
-2.20488964259857E-05,8.26783798402175E-06,11.6015625,0,0
-2.90098632831359E-05,1.24987191156833E-05,11.6015625,0,0
-2.42246387642808E-05,1.43186134664575E-05,11.6015625,0,0
-2.67937048192834E-05,1.48717035699519E-05,11.6015625,0,0
-2.41284433286637E-05,1.28770170704229E-05,11.6015625,0,0
-2.60439701378345E-05,1.20015702123055E-05,11.6015625,0,0
-2.66597944573732E-05,1.04963974081329E-05,11.6015625,0,0
-2.79686919384403E-05,1.22793526315945E-05,11.6015625,0,0
-2.87085458694492E-05,1.34036054078024E-05,11.6015625,0,0
-2.86997565126512E-05,9.30395708564902E-06,11.6015625,0,0
-3.03064862237079E-05,5.80650521442294E-06,11.6015625,0,0
-2.93658249574946E-05,6.09172457188834E-06,11.6015625,0,0
-3.10483483190183E-05,7.55244991523796E-06,11.6015625,0,0
-3.06603324133903E-05,6.73267959427903E-06,11.6015625,0,0
-3.21970837831032E-05,7.64762626204174E-06,11.6015625,0,0
-3.03512333630351E-05,8.43553698359756E-06,11.6015625,0,0
-2.99765106319683E-05,8.42334065964678E-06,11.6015625,0,0
-2.81941356661264E-05,6.91678951625363E-06,11.6015625,0,0
-2.93741140922066E-05,6.1478785937652E-06,11.6015625,0,0
-2.93013945338316E-05,4.40144049207447E-06,11.6015625,0,0
-2.95766458293656E-05,3.94733342545806E-06,11.6015625,0,0
-2.84849320451031E-05,5.9381413848314E-06,11.6015625,0,0
-2.80438362096902E-05,9.08642050490016E-06,11.6015625,0,0
-2.64524496742524E-05,9.81766334007261E-06,11.6015625,0,0
-2.53280777542386E-05,9.50706908042775E-06,11.6015625,0,0
-2.01641323656077E-05,6.80136326991487E-06,11.6015625,0,0
-2.69155843852786E-05,9.68346284935251E-06,11.6015625,0,0
-1.88564263225999E-05,8.37783409224357E-06,11.6015625,0,0
-2.59105254372116E-05,1.10622395368409E-05,11.6015625,0,0
-2.21582158701494E-05,8.52082030178281E-06,11.6015625,0,0
-2.31988160521723E-05,7.61116416470031E-06,11.6015625,0,0
-2.05309170269175E-05,6.79164622852113E-06,11.6015625,0,0
-2.21116606553551E-05,1.03017709989217E-05,11.6015625,0,0
-2.14497467823094E-05,1.39590338221751E-05,11.6015625,0,0
-2.16080516111106E-05,1.69602280948311E-05,11.6015625,0,0
-2.16304215427954E-05,1.65972378454171E-05,11.6015625,0,0
-2.01914772333112E-05,1.25412370834965E-05,11.6015625,0,0
-1.99903133761836E-05,1.10913397293189E-05,11.6015625,0,0
-1.88567646546289E-05,1.19823089335114E-05,11.6015625,0,0
-2.10533780773403E-05,1.20948607218452E-05,11.6015625,0,0
-2.03613853955176E-05,1.00654688139912E-05,11.6015625,0,0
-2.06938766496023E-05,1.05338813227718E-05,11.6015625,0,0
-1.9716875613085E-05,1.20273634820478E-05,11.6015625,0,0
-2.28260105359368E-05,1.35738073367975E-05,11.6015625,0,0
-2.44155999098439E-05,1.38533032441046E-05,11.6015625,0,0
-2.65911785390927E-05,1.48233284562593E-05,11.6015625,0,0
-2.7500693249749E-05,1.36454209496151E-05,11.6015625,0,0
-2.96292018902022E-05,1.14063604996772E-05,11.6015625,0,0
-3.05400135403033E-05,9.60330453381175E-06,11.6015625,0,0
-3.19057762681041E-05,9.79523065325338E-06,11.6015625,0,0
-3.13077980536036E-05,1.08461044874275E-05,11.6015625,0,0
-2.91676551569253E-05,1.18414654934895E-05,11.6015625,0,0
-2.15233558265027E-05,1.02087951745489E-05,11.6015625,0,0
-3.04332170344424E-05,1.59627543325769E-05,11.6015625,0,0
-2.3627808332094E-05,1.45504318425083E-05,11.6015625,0,0
-2.88739920506487E-05,1.91950039152289E-05,11.6015625,0,0
-2.28141580009833E-05,1.79827475221828E-05,11.6015625,0,0
-2.51817236858187E-05,1.72972686414141E-05,11.6015625,0,0
-2.36254127230495E-05,1.71350129676284E-05,11.6015625,0,0
-2.64195714407833E-05,2.15790842048591E-05,11.6015625,0,0
-2.53115558734862E-05,2.06713921215851E-05,11.6015625,0,0
-2.33211685554124E-05,1.69057366292691E-05,11.6015625,0,0
-2.19605153688462E-05,1.55516372615239E-05,11.6015625,0,0
-2.0404262613738E-05,1.53667642734945E-05,11.6015625,0,0
-2.0913264961564E-05,1.6637295630062E-05,11.6015625,0,0
-2.00183894776274E-05,1.73844036908122E-05,11.6015625,0,0
-2.11167771340115E-05,1.5646503015887E-05,11.6015625,0,0
-1.86896249942947E-05,1.13070291263284E-05,11.6015625,0,0
-1.87950663530501E-05,1.18789739644853E-05,11.6015625,0,0
-1.70036128110951E-05,1.48419094330166E-05,11.6015625,0,0
-1.67432954185642E-05,1.76816665771184E-05,11.6015625,0,0
-1.42351600516122E-05,1.4819200259808E-05,11.6015625,0,0
-1.39628064061981E-05,1.02629883258487E-05,11.6015625,0,0
-1.29399004435982E-05,9.3111311798566E-06,11.6015625,0,0
-1.37060906126862E-05,1.12660372906248E-05,11.6015625,0,0
-1.45505473483354E-05,9.44752173381858E-06,11.6015625,0,0
-1.69873419508804E-05,7.66415814723587E-06,11.6015625,0,0
-1.82831190613797E-05,8.40798929857556E-06,11.6015625,0,0
-1.92982042790391E-05,8.66652317199623E-06,11.6015625,0,0
-1.6500966012245E-05,5.31660907654441E-06,13.18359375,0,0
-2.33880273299292E-05,7.01568751537707E-06,13.18359375,0,0
-1.81261202669702E-05,7.14391853762208E-06,13.18359375,0,0
-2.24433788389433E-05,1.13431042336742E-05,13.18359375,0,0
-1.93802516150754E-05,8.85448480403284E-06,13.18359375,0,0
-2.29446904995712E-05,6.10981669524335E-06,13.18359375,0,0
-2.19484954868676E-05,4.51528148914804E-06,13.18359375,0,0
-2.40052577282768E-05,7.76905471866485E-06,13.18359375,0,0
-2.51105138886487E-05,9.02013471204555E-06,13.18359375,0,0
-2.52199060923886E-05,9.80473487288691E-06,13.18359375,0,0
-2.48733795160661E-05,1.09277907540672E-05,13.18359375,0,0
-2.43320191657403E-05,9.74708382273093E-06,13.18359375,0,0
-2.55674403888406E-05,1.02881976999925E-05,13.18359375,0,0
-2.51855690294178E-05,1.23854906632914E-05,13.18359375,0,0
-2.63999627350131E-05,1.33068906507106E-05,13.18359375,0,0
-2.43753693212057E-05,1.16801566036884E-05,13.18359375,0,0
-2.24097566388082E-05,1.28807205328485E-05,13.18359375,0,0
-1.90223090612562E-05,1.55163925228408E-05,13.18359375,0,0
-1.92527604667703E-05,1.72489981196122E-05,13.18359375,0,0
-1.97472072613891E-05,1.6028398022172E-05,13.18359375,0,0
-2.16491225728532E-05,1.47697019201587E-05,13.18359375,0,0
-2.05756241484778E-05,1.19267078844132E-05,13.18359375,0,0
-1.89847360161366E-05,8.41684504848672E-06,13.18359375,0,0
-1.73022017406765E-05,5.98063434154028E-06,13.18359375,0,0
-1.62942469614791E-05,5.98371661908459E-06,13.18359375,0,0
-1.64507237059297E-05,9.54989172896603E-06,13.18359375,0,0
-1.84974669537041E-05,1.47892678796779E-05,13.18359375,0,0
-1.70286075444892E-05,1.40044357976876E-05,13.18359375,0,0
-2.48359137913212E-05,2.0213838070049E-05,13.18359375,0,0
-1.96550263353856E-05,1.27706935018068E-05,13.18359375,0,0
-2.4184013454942E-05,1.26475115393987E-05,13.18359375,0,0
-2.10397174669197E-05,1.02891362985247E-05,13.18359375,0,0
-2.3831255020923E-05,1.33708417706657E-05,13.18359375,0,0
-2.23844854190247E-05,1.06822408270091E-05,13.18359375,0,0
-2.25148032768629E-05,9.48591059568571E-06,13.18359375,0,0
-2.10844955290668E-05,7.91592083260184E-06,13.18359375,0,0
-2.0565785234794E-05,8.06459320301656E-06,13.18359375,0,0
-2.04840562219033E-05,7.5100215326529E-06,13.18359375,0,0
-2.00195754587185E-05,5.78089702685247E-06,13.18359375,0,0
-2.01496586669236E-05,6.16297393207788E-06,13.18359375,0,0
-1.82871372089721E-05,5.64205447517452E-06,13.18359375,0,0
-1.89815200428711E-05,6.80992798152147E-06,13.18359375,0,0
-1.94384938367875E-05,8.82862332218792E-06,13.18359375,0,0
-2.27049695240567E-05,1.45435869853827E-05,13.18359375,0,0
-2.46306008193642E-05,1.86339657375356E-05,13.18359375,0,0
-2.77282197203022E-05,2.04564330488211E-05,13.18359375,0,0
-2.85230944427894E-05,1.75899713212857E-05,13.18359375,0,0
-3.02664066111902E-05,1.59792034537531E-05,13.18359375,0,0
-2.98631421173923E-05,1.50729001688887E-05,13.18359375,0,0
-2.91662454401376E-05,1.53289129229961E-05,13.18359375,0,0
-2.74530284514185E-05,1.43719626066741E-05,13.18359375,0,0
-2.76426235359395E-05,1.28826723084785E-05,13.18359375,0,0
-2.8345491955406E-05,9.98775158222998E-06,13.18359375,0,0
-2.7757179850596E-05,6.82679637975525E-06,13.18359375,0,0
-1.94502626982285E-05,5.0699336497928E-06,13.18359375,0,0
-2.61164896073751E-05,9.49512741499348E-06,13.18359375,0,0
-1.82703479367774E-05,1.17075705929892E-05,13.18359375,0,0
-2.27534910663962E-05,1.50671312439954E-05,13.18359375,0,0
-1.80208389792824E-05,1.31336610138533E-05,13.18359375,0,0
-2.17103552131448E-05,9.50805679167388E-06,13.18359375,0,0
-1.92664829228306E-05,8.47390401759185E-06,13.18359375,0,0
-2.00448594114278E-05,1.2092955330445E-05,13.18359375,0,0
-1.90870723599801E-05,1.3065934581391E-05,13.18359375,0,0
-1.99967453227146E-05,1.37736851684167E-05,13.18359375,0,0
-2.10966318263672E-05,1.51023696162156E-05,13.18359375,0,0
-1.97678909898968E-05,1.44006726259249E-05,13.18359375,0,0
-1.90194969036384E-05,1.45775857163244E-05,13.18359375,0,0
-1.69424638443161E-05,1.57054455485195E-05,13.18359375,0,0
-1.81254326889757E-05,1.59480150614399E-05,13.18359375,0,0
-1.72448199009523E-05,1.38056420837529E-05,13.18359375,0,0
-1.86550350917969E-05,1.27888561110012E-05,13.18359375,0,0
-1.92148436326534E-05,1.31251581478864E-05,13.18359375,0,0
-2.25568292080425E-05,1.41312793857651E-05,13.18359375,0,0
-2.24464602069929E-05,1.28463052533334E-05,13.18359375,0,0
-2.22453672904521E-05,1.14690437840181E-05,13.18359375,0,0
-2.0820649297093E-05,1.20611048259889E-05,13.18359375,0,0
-2.19196208490757E-05,1.44785281008808E-05,13.18359375,0,0
-2.2358473870554E-05,1.68177302839467E-05,13.18359375,0,0
-2.31728354265215E-05,1.82891581061995E-05,13.18359375,0,0
-2.44569273490924E-05,1.77053789229831E-05,13.18359375,0,0
-2.89643048745347E-05,1.56143578351475E-05,13.18359375,0,0
-2.84521283901995E-05,1.23744366646861E-05,13.18359375,0,0
-4.17596602346748E-05,1.70973526110174E-05,13.18359375,0,0
