biceps_emg, triceps_emg, subject_position, position_estimate, brace_position
3.81230256607523E-06,-1.58997027028818E-05,1.40625,0,0
3.98514475818956E-06,-1.33073726829025E-05,1.40625,0,0
3.92973106499994E-06,-1.17730351121281E-05,1.40625,0,0
3.30988450514269E-06,-1.02123085525818E-05,1.40625,0,0
1.73713112872065E-06,-1.13188334580627E-05,1.40625,0,0
-4.35635087114861E-07,-1.23561840155162E-05,1.40625,0,0
-1.13687985958677E-06,-1.27631692521391E-05,1.40625,0,0
-1.25157146158017E-06,-1.12569041448296E-05,1.40625,0,0
-1.22368919619475E-06,-1.05278659248143E-05,1.40625,0,0
-7.18446131031669E-07,-1.27126959341695E-05,1.40625,0,0
9.72637167251378E-07,-1.91316867130809E-05,1.40625,0,0
1.78985180809832E-06,-2.66962179011898E-05,1.40625,0,0
1.20389881885785E-06,-3.23202766594477E-05,1.40625,0,0
8.05469824172178E-07,-3.41514278261457E-05,1.40625,0,0
2.34203344007256E-06,-3.38474274030887E-05,1.40625,0,0
3.14144062940613E-06,-2.51413275691448E-05,1.40625,0,0
5.4931747399678E-06,-3.38752870447934E-05,1.40625,0,0
6.06726280238945E-06,-2.43746435444336E-05,1.40625,0,0
7.47432250136626E-06,-3.15194884024095E-05,1.40625,0,0
6.97571385899209E-06,-2.5041090339073E-05,1.40625,0,0
6.83111784383073E-06,-2.88520222966326E-05,1.40625,0,0
5.77019363845466E-06,-2.51434394158423E-05,1.40625,0,0
5.46989667782327E-06,-2.45669143623672E-05,1.40625,0,0
4.76410241390113E-06,-2.19156481762184E-05,1.40625,0,0
4.42045848103589E-06,-1.97483623196604E-05,1.40625,0,0
3.800629883699E-06,-1.68563747138251E-05,1.40625,0,0
2.37287713389378E-06,-1.47051605381421E-05,1.40625,0,0
2.05649689632992E-06,-1.57348040374927E-05,1.40625,0,0
2.83482268059743E-06,-1.33959474624135E-05,1.40625,0,0
3.82791540687322E-06,-1.30228381749475E-05,1.40625,0,0
3.42075645676232E-06,-1.06493407656671E-05,1.40625,0,0
2.63014317170018E-06,-1.20462955237599E-05,1.40625,0,0
1.49261984461191E-06,-9.68706899584504E-06,1.40625,0,0
1.17637728180853E-06,-9.49568402575096E-06,1.40625,0,0
2.21146774492809E-06,-8.5475467130891E-06,1.40625,0,0
4.73071213491494E-06,-1.15171442303108E-05,1.40625,0,0
5.93089316680562E-06,-1.19439446280012E-05,1.40625,0,0
5.91046091358294E-06,-1.19443229777971E-05,1.40625,0,0
6.38335313851712E-06,-9.6435451268917E-06,1.40625,0,0
6.55020539852558E-06,-8.87294118001591E-06,1.40625,0,0
5.22937216373975E-06,-7.96885797171853E-06,1.40625,0,0
3.98052179662045E-06,-6.87895999362809E-06,1.40625,0,0
3.13897135129082E-06,-6.59810075376299E-06,1.40625,0,0
6.54840096103726E-06,-1.10660030259169E-05,1.40625,0,0
8.34971069707535E-06,-1.18393591037602E-05,1.40625,0,0
8.59377450979082E-06,-1.54454100993462E-05,1.40625,0,0
6.53748520562658E-06,-1.54107638081769E-05,1.40625,0,0
6.16915031059762E-06,-1.34398751470144E-05,1.40625,0,0
5.72879798710346E-06,-8.88178965396946E-06,1.40625,0,0
6.08894970355323E-06,-7.73269493947737E-06,1.40625,0,0
4.43230283053708E-06,-7.6331380114425E-06,1.40625,0,0
2.35836228057451E-06,-8.61024182086112E-06,1.40625,0,0
1.26550764889544E-06,-1.0641521839716E-05,1.40625,0,0
5.48975435776811E-07,-1.25502010632772E-05,1.40625,0,0
-1.1097853191977E-10,-1.42018843689584E-05,1.40625,0,0
8.61672901919519E-08,-1.53563796629896E-05,1.40625,0,0
1.82798578407528E-06,-1.72632462636102E-05,1.40625,0,0
3.36231619257887E-06,-1.74513697857037E-05,1.40625,0,0
4.2869041863014E-06,-1.77896999957738E-05,1.40625,0,0
4.11663859267719E-06,-1.73191692738328E-05,1.40625,0,0
3.14057979267091E-06,-1.71521314769052E-05,1.40625,0,0
8.74382976689958E-07,-1.66324152814923E-05,1.40625,0,0
-8.78068021847866E-07,-1.72000618476886E-05,1.40625,0,0
-4.48857974788552E-07,-1.70565763255581E-05,1.40625,0,0
2.59370835919981E-06,-1.6428020899184E-05,1.40625,0,0
4.22422317569726E-06,-1.63542754307855E-05,1.40625,0,0
3.7653462641174E-06,-1.77829024323728E-05,1.40625,0,0
3.0110329589661E-06,-1.9085980966338E-05,1.40625,0,0
2.87092348116857E-06,-1.96056207641959E-05,1.40625,0,0
1.22813696634694E-06,-1.64580469572684E-05,1.40625,0,0
1.87235423254606E-06,-2.29038087127265E-05,1.40625,0,0
2.40309077526035E-06,-1.70697003341047E-05,1.40625,0,0
2.8817971724493E-06,-2.08967212529387E-05,1.40625,0,0
8.74745921919384E-07,-1.7034682969097E-05,1.40625,0,0
-1.80261139348659E-07,-2.0663575924118E-05,1.40625,0,0
7.1103173127085E-08,-2.01841630769195E-05,1.40625,0,0
1.62779451784445E-06,-2.21672817133367E-05,1.40625,0,0
1.73137038927962E-06,-2.24239392991876E-05,1.40625,0,0
6.25947677690419E-07,-2.38970587815857E-05,1.40625,0,0
-2.32027616675623E-07,-2.41378729697317E-05,1.40625,0,0
-4.84418194446334E-07,-2.09964382520411E-05,1.40625,0,0
7.26621749436163E-07,-1.90396240213886E-05,1.40625,0,0
1.83753491000971E-06,-1.68141450558323E-05,1.40625,0,0
1.89681122719776E-06,-1.74050655914471E-05,1.40625,0,0
1.44515661304467E-06,-1.74133583641378E-05,1.40625,0,0
1.90650064268993E-06,-1.96996006707195E-05,1.40625,0,0
2.15930390368158E-06,-1.88738813449163E-05,1.40625,0,0
1.95537290892389E-06,-1.89917209354462E-05,1.40625,0,0
2.35524998970504E-06,-1.6541956938454E-05,1.40625,0,0
3.45574267157645E-06,-1.50885643961374E-05,1.40625,0,0
2.59027501670062E-06,-1.3947570550954E-05,1.40625,0,0
-1.34144627850219E-07,-1.51763424582896E-05,1.40625,0,0
-1.49363017953874E-06,-1.55030502355658E-05,1.40625,0,0
-1.08390952391346E-06,-1.61921852850355E-05,1.40625,0,0
9.79885470542285E-08,-1.64241118909558E-05,1.40625,0,0
1.70934811194456E-06,-1.48012586578261E-05,1.40625,0,0
1.22247058698122E-06,-1.10469463834306E-05,1.40625,0,0
2.98329780434869E-07,-1.59185310621979E-05,1.40625,0,0
-2.16763373828144E-06,-1.28534993564244E-05,1.40625,0,0
-1.94521180674201E-06,-1.39621060952777E-05,1.40625,0,0
-2.31101853387372E-06,-8.78554510563845E-06,1.40625,0,0
-1.45163687648164E-06,-8.88177601154894E-06,1.40625,0,0
4.95431493163778E-07,-7.28200711819227E-06,1.40625,0,0
9.29586633446888E-07,-1.00424704214674E-05,1.40625,0,0
-2.62205873013954E-07,-1.18192665468086E-05,1.40625,0,0
-8.7069741994128E-07,-1.23451236504479E-05,1.40625,0,0
5.51161747353035E-08,-1.29382015074953E-05,1.40625,0,0
2.06063373298093E-06,-1.37556771733216E-05,1.40625,0,0
3.31636169903504E-06,-1.58482271217508E-05,1.40625,0,0
3.15601528200204E-06,-1.64511566254077E-05,1.40625,0,0
3.8114251310617E-06,-1.83698957698653E-05,1.40625,0,0
4.33189006798784E-06,-1.88538851944031E-05,1.40625,0,0
3.27860516335932E-06,-1.9727134713321E-05,1.40625,0,0
1.67167831932602E-06,-1.82568110176362E-05,1.40625,0,0
1.10237249373313E-06,-1.76893481693696E-05,1.40625,0,0
9.30529722609208E-07,-1.66654735949123E-05,1.40625,0,0
1.3845282182956E-06,-1.62094256666023E-05,1.40625,0,0
2.17454407902551E-06,-1.43621291499585E-05,1.40625,0,0
1.91880349120765E-06,-1.35667924041627E-05,1.40625,0,0
1.65798951456964E-06,-1.23215149869793E-05,1.40625,0,0
3.04614945889625E-06,-1.12290499600931E-05,1.40625,0,0
3.73346506421512E-06,-1.01031855592737E-05,1.40625,0,0
3.06198239741207E-06,-1.0609070159262E-05,1.40625,0,0
1.7646964352025E-06,-1.11762601591181E-05,1.40625,0,0
4.23290111939423E-06,-1.67750658874866E-05,1.40625,0,0
6.66684263705974E-06,-1.31918022816535E-05,1.40625,0,0
7.49709852243541E-06,-1.60745294124354E-05,1.40625,0,0
5.22200934938155E-06,-1.51585118146613E-05,1.40625,0,0
3.77652145289176E-06,-1.65930960065452E-05,1.40625,0,0
3.35688741870399E-06,-1.56295755004976E-05,1.40625,0,0
4.74585976917297E-06,-1.729987343424E-05,1.40625,0,0
4.81747656522202E-06,-1.76754310814431E-05,1.40625,0,0
3.57110457116505E-06,-1.83008851308841E-05,1.40625,0,0
1.64180517003842E-06,-1.88620779226767E-05,1.40625,0,0
5.9599386759146E-07,-1.98080433619907E-05,1.40625,0,0
1.74635556504654E-06,-2.30417517741444E-05,1.40625,0,0
2.4055023004621E-06,-2.37811655097175E-05,1.40625,0,0
2.0556517483783E-06,-2.25690764636965E-05,1.40625,0,0
1.80686618023174E-06,-1.98308407561854E-05,1.40625,0,0
2.54736005445011E-06,-2.01185011974303E-05,1.40625,0,0
3.41324971486756E-06,-2.04404841497308E-05,1.40625,0,0
4.33856939707766E-06,-2.21792033698875E-05,1.40625,0,0
4.25138387072366E-06,-2.32364618568681E-05,1.40625,0,0
2.81298639492888E-06,-2.52166555583244E-05,1.40625,0,0
1.48517165143858E-06,-2.59551961789839E-05,1.40625,0,0
2.76250693787006E-06,-2.71750977844931E-05,1.40625,0,0
4.30658019467955E-06,-2.82519395113923E-05,1.40625,0,0
3.27010775436065E-06,-2.83239241980482E-05,1.40625,0,0
1.61621653660404E-06,-2.69952015514718E-05,1.40625,0,0
2.01596230908763E-06,-2.43451195274247E-05,1.40625,0,0
3.26924009641516E-06,-1.82313087861985E-05,1.40625,0,0
4.2461992961762E-06,-2.58114814641885E-05,1.40625,0,0
1.3273023569127E-06,-1.77897454705089E-05,1.40625,0,0
1.61891904326694E-07,-2.03625313588418E-05,1.40625,0,0
-1.04742639450706E-06,-1.67150155903073E-05,1.40625,0,0
-5.37824803359399E-07,-1.99846199393505E-05,1.40625,0,0
-1.31166552819195E-06,-1.83270549314329E-05,1.40625,0,0
-2.32607317229849E-06,-2.10907164728269E-05,1.40625,0,0
-3.0952805900597E-06,-2.18284476432018E-05,1.40625,0,0
-2.28560725190619E-06,-2.09346380870556E-05,1.40625,0,0
-2.0848413839758E-07,-2.02689352590824E-05,1.40625,0,0
1.11877784547687E-06,-2.00288359337719E-05,1.40625,0,0
1.12438419819227E-06,-2.17193010030314E-05,1.40625,0,0
1.42786021228858E-07,-2.09646204893943E-05,1.40625,0,0
3.80587891868345E-07,-2.09239424293628E-05,1.40625,0,0
9.52715652147162E-07,-1.81857612915337E-05,1.40625,0,0
1.27492603496648E-06,-1.74028500623535E-05,1.40625,0,0
1.13513158339629E-06,-1.58528418978676E-05,1.40625,0,0
1.27532246096962E-06,-1.87259629456094E-05,1.40625,0,0
1.14115459837194E-06,-2.17878769035451E-05,1.40625,0,0
2.54502901952947E-06,-2.4612236302346E-05,1.40625,0,0
4.16654438595288E-06,-2.32754719036166E-05,1.40625,0,0
4.04894717576099E-06,-2.07501088880235E-05,1.40625,0,0
3.09718484459154E-06,-1.81354898813879E-05,1.40625,0,0
2.67249674834602E-06,-1.75721943378448E-05,1.40625,0,0
3.14261296807672E-06,-1.71933661476942E-05,1.40625,0,0
5.00448641105322E-06,-1.65789879247313E-05,1.40625,0,0
6.2668682403455E-06,-1.26861496028141E-05,1.40625,0,0
8.36882645671722E-06,-1.81046216312097E-05,1.40625,0,0
4.13194175052922E-06,-1.49424058690784E-05,1.40625,0,0
2.94048277282855E-06,-1.83461252163397E-05,1.40625,0,0
1.48611491113115E-06,-1.56066089402884E-05,1.40625,0,0
3.66987956113007E-06,-1.93203068192815E-05,1.40625,0,0
3.68202040590404E-06,-1.88186713785399E-05,1.40625,0,0
5.50777394892066E-06,-1.98273482965305E-05,1.40625,0,0
6.74103239362012E-06,-2.008056435443E-05,1.40625,0,0
6.7339465203986E-06,-2.00354115804657E-05,1.40625,0,0
5.31579917151248E-06,-1.93843370652758E-05,1.40625,0,0
2.90102434519213E-06,-1.75954737642314E-05,1.40625,0,0
2.83604731521336E-06,-1.80737952177878E-05,1.40625,0,0
4.15464774050633E-06,-1.82217245310312E-05,1.40625,0,0
5.04467334394576E-06,-1.90635400940664E-05,1.40625,0,0
3.90533477911958E-06,-1.71057999978075E-05,1.40625,0,0
3.76766593035427E-06,-1.60249401233159E-05,1.40625,0,0
3.60931016984978E-06,-1.46638931255438E-05,1.40625,0,0
4.03861440645414E-06,-1.55685811478179E-05,1.40625,0,0
3.18858928949339E-06,-1.58096499944804E-05,1.40625,0,0
2.89942772724316E-06,-1.73524749698117E-05,1.40625,0,0
3.46871956935502E-06,-1.74158467416419E-05,1.40625,0,0
4.30494355896371E-06,-1.73079679370858E-05,1.40625,0,0
2.53201255873137E-06,-1.63308759510983E-05,1.40625,0,0
1.14956628749496E-06,-1.54633708007168E-05,1.40625,0,0
2.16152534449066E-06,-1.44492132676532E-05,1.40625,0,0
4.71722523798235E-06,-1.33515895868186E-05,1.40625,0,0
5.04190484207356E-06,-9.95151731331134E-06,1.40625,0,0
5.57637849851744E-06,-1.35883965413086E-05,1.40625,0,0
1.27506314129278E-06,-1.00146689874236E-05,1.40625,0,0
1.79409005340858E-06,-1.42495809996035E-05,1.40625,0,0
7.69805922118394E-07,-1.29177042254014E-05,1.40625,0,0
2.12454415304819E-06,-1.27246876218123E-05,1.40625,0,0
2.72941588264075E-06,-1.0695339369704E-05,1.40625,0,0
2.8832350835728E-06,-1.0223582648905E-05,1.40625,0,0
2.06221375265159E-06,-9.03097406990128E-06,1.40625,0,0
3.18580532621127E-06,-9.45326883083908E-06,1.40625,0,0
4.95729682370438E-06,-1.14720614874386E-05,1.40625,0,0
3.43370629707351E-06,-1.42071849040804E-05,1.40625,0,0
1.35422396851936E-06,-1.72688160091639E-05,1.40625,0,0
1.22463666230033E-06,-1.83926658792188E-05,1.40625,0,0
3.02124340123555E-06,-1.85668050107779E-05,1.40625,0,0
3.2079851735034E-06,-1.80232018465176E-05,1.40625,0,0
2.7774942736869E-06,-1.88958820217522E-05,1.40625,0,0
1.57007582402002E-06,-1.70954281202285E-05,1.40625,0,0
1.64925268109073E-06,-1.66583795362385E-05,1.40625,0,0
2.64766140389838E-06,-1.81190462171799E-05,1.40625,0,0
4.0798872760206E-06,-2.18889072129969E-05,1.40625,0,0
4.55503823104664E-06,-2.45968185481615E-05,1.40625,0,0
4.53635266239871E-06,-2.60199813055806E-05,1.40625,0,0
3.78601453121519E-06,-2.39776072703535E-05,1.40625,0,0
3.29477597915684E-06,-2.01731781999115E-05,1.40625,0,0
3.40634255735495E-06,-1.58227776410058E-05,1.40625,0,0
3.30794728142791E-06,-1.36291373564745E-05,1.40625,0,0
6.21943607725939E-09,-1.07570149339153E-05,1.40625,0,0
-2.10768007491424E-06,-1.5549221643596E-05,1.40625,0,0
-3.68532732863969E-06,-1.35535074150539E-05,1.40625,0,0
-1.881476350718E-06,-1.76715930138016E-05,1.40625,0,0
-6.12808491951E-07,-1.39375606522663E-05,1.40625,0,0
-5.12893905124656E-07,-1.46486672747415E-05,1.40625,0,0
-5.18431136242725E-07,-1.516960128356E-05,1.40625,0,0
-2.7015232717531E-07,-1.69952272699447E-05,1.40625,0,0
-4.75918028541855E-07,-1.61822026711889E-05,1.40625,0,0
-5.76718093725503E-07,-1.5325991626014E-05,1.40625,0,0
-5.97005850977439E-07,-1.49947863974376E-05,1.40625,0,0
6.34737432392285E-07,-1.37292436193093E-05,1.40625,0,0
2.48798323809751E-06,-1.29040708998218E-05,1.40625,0,0
3.29881663674314E-06,-1.21322718769079E-05,1.40625,0,0
3.68350356438896E-06,-1.41600512506557E-05,1.40625,0,0
3.58343436346331E-06,-1.54461849888321E-05,1.40625,0,0
2.57695432992477E-06,-1.697206425888E-05,1.40625,0,0
1.12541965791024E-06,-1.55801462824456E-05,1.40625,0,0
1.22863582419086E-06,-1.46142119774595E-05,1.40625,0,0
2.73930845651194E-06,-1.358718782285E-05,1.40625,0,0
4.26841961598257E-06,-1.43882652992033E-05,1.40625,0,0
4.13833640777739E-06,-1.45628036989365E-05,1.40625,0,0
2.53170355790644E-06,-1.59966821229318E-05,1.40625,0,0
8.0491832932239E-07,-1.83638530870667E-05,1.40625,0,0
-4.2407873479533E-07,-1.88514786714222E-05,1.40625,0,0
-5.07068307342706E-07,-1.58567563630641E-05,1.40625,0,0
3.92082341704736E-07,-1.36001299324562E-05,1.40625,0,0
1.63611161951849E-06,-1.17136532935547E-05,1.40625,0,0
3.63437334272021E-06,-1.82151634362526E-05,1.40625,0,0
3.80828737434058E-06,-1.54858880705433E-05,1.40625,0,0
4.49379786005011E-06,-1.69988379639108E-05,1.40625,0,0
5.59160207558307E-06,-1.2767399311997E-05,1.40625,0,0
5.92720380154788E-06,-1.28575456983526E-05,1.40625,0,0
5.73037277717958E-06,-1.13437035906827E-05,1.40625,0,0
5.61905198992463E-06,-1.22311439554323E-05,1.40625,0,0
5.23400149177178E-06,-1.23559857456712E-05,1.40625,0,0
4.47216007160023E-06,-1.3336126357899E-05,1.40625,0,0
3.66419135389151E-06,-1.30927583086304E-05,1.40625,0,0
3.27000566358038E-06,-1.27732682813075E-05,1.40625,0,0
3.42390762853029E-06,-1.63838121807203E-05,1.40625,0,0
3.61197862730478E-06,-2.06658514798619E-05,1.40625,0,0
3.14456474370672E-06,-2.41052857745672E-05,1.40625,0,0
2.22307426156476E-06,-2.30586265388411E-05,1.40625,0,0
1.53795235746657E-06,-2.08288274734514E-05,1.40625,0,0
1.58035879849194E-06,-1.70664261531783E-05,1.40625,0,0
2.89172089651402E-06,-1.56606183736585E-05,1.40625,0,0
4.62213574792258E-06,-1.47997161548119E-05,1.40625,0,0
6.29916712568956E-06,-1.6775171388872E-05,1.40625,0,0
7.03433761373162E-06,-1.7944610590348E-05,1.40625,0,0
6.2500175772584E-06,-1.70378552866168E-05,1.40625,0,0
5.89688761465368E-06,-1.49113029692671E-05,1.40625,0,0
7.43457258067792E-06,-1.40852780532441E-05,1.40625,0,0
8.75441310199676E-06,-1.36320468300255E-05,1.40625,0,0
9.00771283340873E-06,-1.51771873788675E-05,1.40625,0,0
8.56074711919064E-06,-1.45742860695464E-05,1.40625,0,0
1.2074105143256E-05,-2.09605441341409E-05,1.40625,0,0
8.07683409220772E-06,-1.7818400010583E-05,1.40625,0,0
9.06608238437912E-06,-2.54204333032249E-05,1.40625,0,0
6.19568754700595E-06,-2.3714803319308E-05,1.40625,0,0
5.62048899155343E-06,-2.25429703277769E-05,1.40625,0,0
3.88916396332206E-06,-1.70602343132487E-05,1.40625,0,0
4.53498569186195E-06,-1.45129606607952E-05,1.40625,0,0
4.17312958234106E-06,-1.20443955893279E-05,1.40625,0,0
3.99656437366502E-06,-1.18748657769174E-05,1.40625,0,0
4.2887236304523E-06,-1.29866548377322E-05,1.40625,0,0
3.83551605409593E-06,-1.39568146551028E-05,1.40625,0,0
3.90024251828436E-06,-1.56360492837848E-05,1.40625,0,0
4.8458346100233E-06,-1.43165798363043E-05,1.40625,0,0
6.54116820442141E-06,-1.34931342472555E-05,1.40625,0,0
6.08286563874572E-06,-1.16375676952885E-05,1.40625,0,0
6.06526964475052E-06,-1.3127452803019E-05,1.40625,0,0
5.83513246965595E-06,-1.30376874949434E-05,1.40625,0,0
7.24617029845831E-06,-1.30554453789955E-05,1.40625,0,0
7.20616117177997E-06,-1.20827353384811E-05,1.40625,0,0
6.48382547296933E-06,-1.35633526952006E-05,1.40625,0,0
5.54052257939475E-06,-1.44528876262484E-05,1.40625,0,0
6.42902159597725E-06,-1.46439151649247E-05,1.40625,0,0
6.30985505267745E-06,-1.42598719321541E-05,1.40625,0,0
5.02159718962503E-06,-1.54519311763579E-05,1.40625,0,0
3.83761425837292E-06,-1.61901443789247E-05,1.40625,0,0
4.00843828174402E-06,-1.55769303091802E-05,1.40625,0,0
3.42271005138173E-06,-1.32274180941749E-05,1.40625,0,0
4.42361078967224E-06,-1.91428098332835E-05,1.40625,0,0
2.50184803007869E-06,-1.42697999763186E-05,1.40625,0,0
2.93448988486489E-06,-1.70473958860384E-05,1.40625,0,0
1.77977324256062E-06,-1.45791182148969E-05,1.40625,0,0
1.74568356214877E-06,-1.70014136529062E-05,1.40625,0,0
1.41479961257573E-06,-1.74090400832938E-05,1.40625,0,0
2.36484106608259E-06,-1.88842896022834E-05,1.40625,0,0
3.31808405462652E-06,-1.78374102688394E-05,1.40625,0,0
2.8275387649046E-06,-1.6277388567687E-05,1.40625,0,0
1.77893434738507E-06,-1.56398236867972E-05,1.40625,0,0
9.3197616024554E-07,-1.6382648027502E-05,1.40625,0,0
8.46479338179051E-07,-1.91288672795054E-05,1.40625,0,0
-2.65485056161197E-07,-2.01979146368103E-05,1.40625,0,0
-2.02146543415438E-06,-2.06906679522945E-05,1.40625,0,0
-3.47276909451466E-06,-1.85967146535404E-05,1.40625,0,0
-3.18601564686105E-06,-1.81181985681178E-05,1.40625,0,0
-2.93519428851141E-06,-1.76904395630118E-05,1.40625,0,0
-3.3469384561613E-06,-1.82877301995177E-05,1.40625,0,0
-4.21730010202737E-06,-1.70580024132505E-05,1.40625,0,0
-4.03815329264035E-06,-1.80218812602106E-05,1.40625,0,0
-3.5112514069624E-06,-1.87407040357357E-05,1.40625,0,0
-3.1956483326212E-06,-1.94726453628391E-05,1.40625,0,0
-4.00694580093841E-06,-2.1134494090802E-05,1.40625,0,0
-3.95612005377188E-06,-2.42198057094356E-05,1.40625,0,0
-2.9125124001439E-06,-2.45961855398491E-05,1.40625,0,0
-1.77097888354183E-06,-2.41068009927403E-05,1.40625,0,0
9.61267232924001E-07,-1.90471655514557E-05,1.40625,0,0
1.7388690594089E-06,-2.64485734078335E-05,1.40625,0,0
9.82356027634523E-08,-1.9933164367103E-05,1.40625,0,0
-1.6347925111404E-06,-2.48575288424036E-05,1.40625,0,0
-3.35034570753123E-07,-1.89787679119036E-05,1.40625,0,0
2.11007522921136E-06,-2.17921606235905E-05,1.40625,0,0
2.61795003098086E-06,-2.10974631045247E-05,1.40625,0,0
2.2669305508316E-06,-2.20554302359233E-05,1.40625,0,0
2.3960894850461E-06,-2.03609979507746E-05,1.40625,0,0
2.51342476076388E-06,-2.04132720682537E-05,1.40625,0,0
3.21325228469505E-06,-2.19746889342787E-05,1.40625,0,0
3.64160450772033E-06,-2.22679027501727E-05,1.40625,0,0
2.72958232017118E-06,-2.36162231885828E-05,1.40625,0,0
2.16577609535307E-06,-2.22495036723558E-05,1.40625,0,0
2.67093605543778E-06,-2.16174030356342E-05,1.40625,0,0
3.71790542885719E-06,-1.94551339518512E-05,1.40625,0,0
5.16324735144735E-06,-2.09184872801416E-05,1.40625,0,0
6.26499740974396E-06,-1.9504584997776E-05,1.40625,0,0
6.47522074359586E-06,-1.85786120709963E-05,1.40625,0,0
5.97395728618721E-06,-1.60558920470066E-05,1.40625,0,0
5.00338273923262E-06,-1.56739206431666E-05,1.40625,0,0
3.86422743758885E-06,-1.4503119928122E-05,1.40625,0,0
3.71264673049154E-06,-1.40622914841515E-05,1.40625,0,0
4.69242650069646E-06,-1.38485311254044E-05,1.40625,0,0
4.68034977529896E-06,-1.61437328642933E-05,1.40625,0,0
2.91032597488083E-06,-1.69596623891266E-05,1.40625,0,0
1.31424644678191E-06,-1.55671532411361E-05,1.40625,0,0
2.59804482993786E-06,-1.26900704344735E-05,1.40625,0,0
5.24103415955324E-06,-1.84938508027699E-05,1.40625,0,0
4.85528971694293E-06,-1.47620821735472E-05,1.40625,0,0
4.16286638937891E-06,-1.94791664398508E-05,1.40625,0,0
3.27405837197148E-06,-1.92104689631378E-05,1.40625,0,0
2.53789198723098E-06,-2.16263561014785E-05,1.40625,0,0
3.93612282323375E-07,-2.07262964977417E-05,1.40625,0,0
-1.76127343820554E-06,-2.18009972741129E-05,1.40625,0,0
-2.53129451266432E-06,-2.19533994822996E-05,1.40625,0,0
-1.99290298041888E-06,-2.1302619643393E-05,1.40625,0,0
-2.2219363415843E-07,-1.94222739082761E-05,1.40625,0,0
4.02167813717824E-07,-1.87256082426757E-05,1.40625,0,0
-1.89795073879395E-07,-2.02346236619633E-05,1.40625,0,0
-5.54049563561421E-07,-1.94194817595417E-05,1.40625,0,0
-7.1070991225497E-07,-1.88604990398744E-05,1.40625,0,0
-1.88322292160592E-06,-1.71049669006607E-05,1.40625,0,0
-3.02421312881052E-06,-1.7079162716982E-05,1.40625,0,0
-3.53509381056938E-06,-1.63018648891011E-05,1.40625,0,0
-3.28890769196732E-06,-1.67183134180959E-05,1.40625,0,0
-2.75381285064213E-06,-1.56677942868555E-05,1.40625,0,0
-2.80873996416631E-06,-1.55931975314161E-05,1.40625,0,0
-3.57395379069203E-06,-1.42717808557791E-05,1.40625,0,0
-3.93356731365202E-06,-1.30968301164103E-05,1.40625,0,0
-3.37656911142403E-06,-1.19242140499409E-05,1.40625,0,0
-1.6460497818116E-06,-1.31073229567846E-05,1.40625,0,0
7.07339381733618E-07,-1.5519819498877E-05,1.40625,0,0
2.13432781492884E-06,-1.7000606021611E-05,1.40625,0,0
1.90611547168373E-06,-1.42944345498108E-05,1.40625,0,0
3.36746961693279E-06,-2.0056602807017E-05,1.40625,0,0
3.6504889067146E-06,-1.54842364281649E-05,1.40625,0,0
4.62869547845912E-06,-1.89344682439696E-05,1.40625,0,0
4.99116231367225E-06,-1.50865480463835E-05,1.40625,0,0
6.20884429736179E-06,-1.68819151440402E-05,1.40625,0,0
6.45153613731964E-06,-1.45909989441861E-05,1.40625,0,0
5.65872096558451E-06,-1.44434188769083E-05,1.40625,0,0
4.65021366835572E-06,-1.26420536616934E-05,1.40625,0,0
5.29477210875484E-06,-1.15441489469958E-05,1.40625,0,0
6.43182056592195E-06,-1.08066742541268E-05,1.40625,0,0
6.93965466780355E-06,-9.4657980298507E-06,1.40625,0,0
7.46555360819912E-06,-8.8929928097059E-06,1.40625,0,0
8.12919188319938E-06,-7.18762839824194E-06,1.40625,0,0
8.60032741911709E-06,-8.26333871373208E-06,1.40625,0,0
7.90968806541059E-06,-8.77992533787619E-06,1.40625,0,0
6.26461314823246E-06,-1.13809983304236E-05,1.40625,0,0
4.61163335785386E-06,-1.20203294500243E-05,1.40625,0,0
4.97149358125171E-06,-1.38197065098211E-05,1.40625,0,0
7.0151900217752E-06,-1.4887939869368E-05,1.40625,0,0
9.076027708943E-06,-1.72060445038369E-05,1.40625,0,0
8.5420542745851E-06,-1.88519006769639E-05,1.40625,0,0
6.24854737907299E-06,-2.44120546994964E-05,1.40625,0,0
4.10272559747682E-06,-3.22104096994735E-05,1.40625,0,0
2.74778494713246E-06,-3.79736884497106E-05,1.40625,0,0
3.34608671437309E-06,-3.76276148017496E-05,1.40625,0,0
4.85560940433061E-06,-3.33702664647717E-05,1.40625,0,0
4.08355026593199E-06,-2.08146138902521E-05,1.40625,0,0
4.35836955148261E-06,-2.48919623118127E-05,1.40625,0,0
1.82073995347309E-06,-1.32703644339927E-05,1.40625,0,0
4.31708986070589E-06,-1.87676396308234E-05,1.40625,0,0
5.81111453357153E-06,-1.50504301927867E-05,1.40625,0,0
7.42034308132133E-06,-1.93674331967486E-05,1.40625,0,0
5.91841399000259E-06,-1.42686440085527E-05,1.40625,0,0
5.78097478864947E-06,-1.26577342598466E-05,1.40625,0,0
6.08279651714838E-06,-1.09373886516551E-05,1.40625,0,0
6.642142579949E-06,-1.23738873298862E-05,1.40625,0,0
5.92428841628134E-06,-1.46590018630377E-05,1.40625,0,0
3.49790298059816E-06,-1.34923566292855E-05,1.40625,0,0
1.94917242879455E-06,-1.28639203467174E-05,1.40625,0,0
1.88400247225218E-06,-1.12521865958115E-05,1.40625,0,0
4.35997935710475E-06,-1.31498136397568E-05,1.40625,0,0
5.32693911736715E-06,-1.28195779325324E-05,1.40625,0,0
4.34910452895565E-06,-1.4838647985016E-05,1.40625,0,0
2.3091372440831E-06,-1.3115424735588E-05,1.40625,0,0
1.71658859926538E-06,-1.36834369186545E-05,1.40625,0,0
1.13694102310546E-06,-1.37220313263242E-05,1.40625,0,0
8.80964648786176E-07,-1.64718094310956E-05,1.40625,0,0
2.96508517294569E-07,-1.71326937561389E-05,1.40625,0,0
-3.29915167185391E-07,-1.67443686223123E-05,1.40625,0,0
-1.08839628865098E-06,-1.51879457916948E-05,1.40625,0,0
-5.65070308766735E-07,-1.63319145940477E-05,1.40625,0,0
1.30149837573867E-08,-1.682872971287E-05,1.40625,0,0
-1.70808590382876E-07,-1.58075017679948E-05,1.40625,0,0
8.356350917893E-07,-1.1069692845922E-05,1.40625,0,0
2.85179430647986E-06,-1.51083841046784E-05,1.40625,0,0
3.38466907123802E-06,-1.27398907352472E-05,1.40625,0,0
2.54554129242024E-06,-1.97787394426996E-05,1.40625,0,0
3.03295246339985E-06,-2.16020471270895E-05,1.40625,0,0
3.32987929141382E-06,-2.42253099713707E-05,1.40625,0,0
2.49584581979434E-06,-2.04158950509736E-05,1.40625,0,0
1.52015309140552E-06,-1.76835201273207E-05,1.40625,0,0
2.81038046523463E-06,-1.47852033478557E-05,1.40625,0,0
3.96956284021144E-06,-1.27249286379083E-05,1.40625,0,0
2.48273045144742E-06,-1.06652623799164E-05,1.40625,0,0
1.42961005167308E-06,-8.96088204171974E-06,1.40625,0,0
1.8861480839405E-06,-1.12862771857181E-05,1.40625,0,0
2.42566375163733E-06,-1.50321011460619E-05,1.40625,0,0
3.16947398459888E-06,-1.90628779819235E-05,1.40625,0,0
4.76736386190169E-06,-1.80380302481353E-05,1.40625,0,0
5.731791134167E-06,-1.59948849614011E-05,1.40625,0,0
5.27792326465715E-06,-1.36061280500144E-05,1.40625,0,0
4.51417554359068E-06,-1.54496756294975E-05,1.40625,0,0
4.23174060415477E-06,-1.80031256604707E-05,1.40625,0,0
3.77169294552004E-06,-1.93943851627409E-05,1.40625,0,0
3.06080369227857E-06,-1.85749740921892E-05,1.40625,0,0
2.55069107879535E-06,-1.90115661098389E-05,1.40625,0,0
3.10649875245872E-06,-1.88676876859972E-05,1.40625,0,0
3.88417265639873E-06,-1.82284748007078E-05,1.40625,0,0
3.75056674783991E-06,-1.66811714734649E-05,1.40625,0,0
4.53610664408188E-06,-1.44530731631676E-05,1.40625,0,0
3.93733307646471E-06,-1.04915188785526E-05,1.40625,0,0
4.04442289436702E-06,-1.48934923345223E-05,1.40625,0,0
2.48307492256572E-06,-1.22486326290527E-05,1.40625,0,0
5.50437471247278E-06,-1.7151729480247E-05,1.40625,0,0
4.81266806673375E-06,-1.67459329531994E-05,1.40625,0,0
4.13871839555213E-06,-1.80720053322148E-05,1.40625,0,0
1.8866411437557E-06,-1.52253123815171E-05,1.40625,0,0
2.90324737761694E-06,-1.4476581782219E-05,1.40625,0,0
3.98816246161005E-06,-1.36633225338301E-05,1.40625,0,0
3.57064095624082E-06,-1.45391722981003E-05,1.40625,0,0
3.34818173541862E-06,-1.66887857631082E-05,1.40625,0,0
3.66224230674561E-06,-1.73267053469317E-05,1.40625,0,0
4.70784880235442E-06,-1.77267647814006E-05,1.40625,0,0
4.53925940746558E-06,-1.83567899512127E-05,1.40625,0,0
3.89225579056074E-06,-2.15799373108894E-05,1.40625,0,0
2.71418684860691E-06,-2.24799623538274E-05,1.40625,0,0
2.15715135709615E-06,-2.29324014071608E-05,1.40625,0,0
5.97576160998869E-07,-2.13337680179393E-05,1.40625,0,0
-1.30774367335107E-07,-1.99772202904569E-05,1.40625,0,0
-6.71023599352338E-07,-1.69951508723898E-05,1.40625,0,0
-9.49307775499619E-07,-1.4813820598647E-05,1.40625,0,0
-1.89019317531347E-06,-1.2646803043026E-05,1.40625,0,0
-1.83237295914296E-06,-1.28118990687653E-05,1.40625,0,0
-1.89854301169134E-08,-1.43831530294847E-05,1.40625,0,0
2.13514135793957E-06,-1.54461540660122E-05,1.40625,0,0
2.60227830040094E-06,-1.55917332449462E-05,1.40625,0,0
3.33196817337011E-06,-1.53068904182874E-05,1.40625,0,0
3.13428790832404E-06,-1.12954157884815E-05,1.40625,0,0
3.3957487630687E-06,-1.47520822793012E-05,1.40625,0,0
1.10920245788293E-06,-1.04537894003442E-05,1.40625,0,0
1.88907517895132E-06,-1.62417982210172E-05,1.40625,0,0
1.46385559673945E-06,-1.6345195035683E-05,1.40625,0,0
1.62949754667352E-06,-1.77610836544773E-05,1.40625,0,0
4.35137707199829E-07,-1.45332005558885E-05,1.40625,0,0
7.07119284015789E-07,-1.48586323120981E-05,1.40625,0,0
1.71843453244946E-06,-1.5908128261799E-05,1.40625,0,0
2.46953413807205E-06,-1.62169053510297E-05,1.40625,0,0
2.70968666882254E-06,-1.53715918713715E-05,1.40625,0,0
2.48713035944093E-06,-1.38867562782252E-05,1.40625,0,0
1.93705682249856E-06,-1.26480917970184E-05,1.40625,0,0
1.2905603625768E-06,-9.33413684833795E-06,1.40625,0,0
1.26909844766487E-06,-8.83147458807798E-06,1.40625,0,0
1.01456657830568E-06,-1.05956605693791E-05,1.40625,0,0
1.2806951872335E-06,-1.45754129334819E-05,1.40625,0,0
1.18090656542336E-06,-1.45620551847969E-05,1.40625,0,0
6.77526941217366E-07,-1.29173477034783E-05,1.40625,0,0
-2.62865938793766E-07,-1.12022053144756E-05,1.40625,0,0
2.03388424324658E-07,-1.3338483768166E-05,1.40625,0,0
4.08186650702191E-07,-1.46880993270315E-05,1.40625,0,0
1.02609249097441E-06,-1.46613219840219E-05,1.40625,0,0
2.2579918095289E-06,-1.37914457809529E-05,1.40625,0,0
2.92017739411676E-06,-1.43438255690853E-05,1.40625,0,0
2.97082851830055E-06,-1.56935566337779E-05,1.40625,0,0
3.20319009006198E-06,-1.68650021805661E-05,1.40625,0,0
1.49934419368947E-06,-1.37491442728788E-05,1.40625,0,0
2.86064278043341E-07,-2.05999403988244E-05,1.40625,0,0
-1.8076433434544E-06,-1.74318956851494E-05,1.40625,0,0
-4.8197540536421E-07,-2.12537124752998E-05,1.40625,0,0
-7.31004888621101E-07,-1.86614252015715E-05,1.40625,0,0
-6.05010725962529E-08,-2.10926991712768E-05,1.40625,0,0
1.70420094036672E-06,-1.95310585695552E-05,1.40625,0,0
3.5475211461744E-06,-1.96638338820776E-05,1.40625,0,0
3.27831185131799E-06,-1.80318202183116E-05,1.40625,0,0
2.58527825280908E-06,-1.66436275321757E-05,1.40625,0,0
3.21060360874981E-06,-1.49499055623892E-05,1.40625,0,0
4.10559232477681E-06,-1.35675054480089E-05,1.40625,0,0
5.10076642967761E-06,-1.59377304953523E-05,1.40625,0,0
4.84799920741352E-06,-1.79635571839754E-05,1.40625,0,0
4.47135380454711E-06,-1.97360568563454E-05,1.40625,0,0
4.6903223847039E-06,-2.02492155949585E-05,1.40625,0,0
5.75004514757893E-06,-2.35732077271678E-05,1.40625,0,0
5.57442490389803E-06,-2.44322327489499E-05,1.40625,0,0
4.92530898554833E-06,-2.54828555625863E-05,1.40625,0,0
4.82308632854256E-06,-2.52111440204317E-05,1.40625,0,0
4.75850447401172E-06,-2.48324613494333E-05,1.40625,0,0
4.18010995417717E-06,-2.22687940549804E-05,1.40625,0,0
4.00871977035422E-06,-2.09847330552293E-05,1.40625,0,0
4.91259561385959E-06,-2.15006821235875E-05,1.40625,0,0
6.05574996370706E-06,-2.47567641054047E-05,1.40625,0,0
5.63975072509493E-06,-2.57487045018934E-05,1.40625,0,0
4.26163524025469E-06,-2.39624350797385E-05,1.40625,0,0
2.17133060687047E-06,-1.86427605513018E-05,1.40625,0,0
2.44728107645642E-06,-2.54679689533077E-05,1.40625,0,0
3.8341033814504E-07,-1.81655686901649E-05,1.40625,0,0
9.32930106500862E-07,-2.3447011699318E-05,1.40625,0,0
2.36826053878758E-06,-1.89977236004779E-05,1.40625,0,0
3.7123425045138E-06,-2.10221242014086E-05,1.40625,0,0
2.48289325099904E-06,-1.97318950085901E-05,1.40625,0,0
1.20034678730008E-06,-2.05682445084676E-05,1.40625,0,0
1.090209167387E-07,-1.88056219485588E-05,1.40625,0,0
4.89949400162004E-07,-1.85960398084717E-05,1.40625,0,0
5.23732524015941E-07,-1.86708148248727E-05,1.40625,0,0
-2.18524462525238E-07,-1.72963864315534E-05,1.40625,0,0
6.97180155384558E-07,-1.75290551851504E-05,1.40625,0,0
2.86659360426711E-06,-1.70152070495533E-05,1.40625,0,0
4.37645121564856E-06,-1.85012340807589E-05,1.40625,0,0
4.4695316319121E-06,-1.77634556166595E-05,1.40625,0,0
4.31692296842812E-06,-1.88131598406471E-05,1.40625,0,0
3.11567578137328E-06,-1.88210306077963E-05,1.40625,0,0
1.75710306393739E-06,-2.21615937334718E-05,1.40625,0,0
9.91091496871377E-07,-2.19171870412538E-05,1.40625,0,0
1.3512982377506E-06,-2.09844802157022E-05,1.40625,0,0
1.84137070391444E-06,-1.92277384485351E-05,1.40625,0,0
2.39655378209136E-06,-1.88954072655179E-05,1.40625,0,0
2.42116743720544E-06,-1.8329024896957E-05,1.40625,0,0
2.01718808057194E-06,-1.90281643881463E-05,1.40625,0,0
1.23767040349776E-06,-1.89121401490411E-05,1.40625,0,0
3.05002845379931E-06,-1.83752654265845E-05,1.40625,0,0
5.30349507243955E-06,-1.3222998859419E-05,1.40625,0,0
7.55166865928913E-06,-1.73084972630022E-05,1.40625,0,0
4.23051005782327E-06,-1.18421949082403E-05,1.40625,0,0
3.80477558792336E-06,-1.67948401212925E-05,1.40625,0,0
1.30807222831208E-06,-1.41026184792281E-05,1.40625,0,0
2.98779610830024E-07,-1.47060372910346E-05,1.40625,0,0
-7.41493295208784E-07,-1.30726184579544E-05,1.40625,0,0
-3.82027479872704E-07,-1.32778059196426E-05,1.40625,0,0
-5.24751264663337E-08,-1.11770659714239E-05,1.40625,0,0
9.74607928583282E-07,-8.74551005836111E-06,1.40625,0,0
2.81916845779051E-06,-6.54411041978165E-06,1.40625,0,0
3.70051338904887E-06,-5.3502558330365E-06,1.40625,0,0
3.80538108402106E-06,-7.49238915886963E-06,1.40625,0,0
3.34431501869403E-06,-9.14858264877694E-06,1.40625,0,0
3.14565090775432E-06,-1.06645020423457E-05,1.40625,0,0
1.57011959345255E-06,-9.56428266363218E-06,1.40625,0,0
-2.05054476509758E-07,-1.06784846138908E-05,1.40625,0,0
-1.69323527643428E-06,-1.10210485217976E-05,1.40625,0,0
-1.11212295905716E-06,-1.24648358905688E-05,1.40625,0,0
5.68180780646799E-07,-1.45821941259783E-05,1.40625,0,0
1.65967651355459E-06,-2.20683687075507E-05,1.40625,0,0
1.35081521079883E-07,-3.04759669234045E-05,1.40625,0,0
-1.78661434802052E-06,-3.59873120032717E-05,1.40625,0,0
-3.01488262266503E-06,-3.37300552928355E-05,1.40625,0,0
-3.67042252946703E-06,-2.56994990195381E-05,1.40625,0,0
-3.56002396983968E-06,-1.67673006217228E-05,1.40625,0,0
-1.57479360041179E-06,-1.24332818813855E-05,1.40625,0,0
9.74565978140163E-07,-1.21360380944679E-05,1.40625,0,0
3.43694796356431E-06,-1.98320758499904E-05,1.40625,0,0
4.86691897094715E-06,-1.84844775503734E-05,1.40625,0,0
4.06436447519809E-06,-2.37625772570027E-05,1.40625,0,0
2.99308680951071E-06,-2.58689578913618E-05,1.40625,0,0
2.49860613621422E-06,-3.1276107620215E-05,1.40625,0,0
4.26353653892875E-06,-3.19002538162749E-05,1.40625,0,0
6.78552578392555E-06,-3.1733994546812E-05,1.40625,0,0
7.0890851020522E-06,-3.03741853713291E-05,1.40625,0,0
6.38514075035346E-06,-2.80603708233684E-05,1.40625,0,0
7.09518781150109E-06,-2.37040003412403E-05,1.40625,0,0
8.23628488433314E-06,-1.95136617548997E-05,1.40625,0,0
8.39904532767832E-06,-1.86400502570905E-05,1.40625,0,0
8.09029279480455E-06,-1.84428390639368E-05,1.40625,0,0
8.08424829301657E-06,-1.9643948689918E-05,1.40625,0,0
8.32069417810999E-06,-1.8827551684808E-05,1.40625,0,0
8.07341257313965E-06,-1.78211339516565E-05,1.40625,0,0
7.53021186028491E-06,-1.46125830724486E-05,1.40625,0,0
6.89957869326463E-06,-1.24268408399075E-05,1.40625,0,0
6.40194730294752E-06,-9.79146079771454E-06,1.40625,0,0
6.53590313959285E-06,-8.27773419587174E-06,1.40625,0,0
7.21097785572056E-06,-7.43771943234606E-06,1.40625,0,0
7.2916659519251E-06,-9.2705031420337E-06,1.40625,0,0
5.53819972992642E-06,-1.09455368146882E-05,1.40625,0,0
2.79290748039784E-06,-1.01008081401233E-05,1.40625,0,0
2.57183683061157E-06,-7.52444202589686E-06,1.40625,0,0
4.56195493825362E-06,-6.35508786217542E-06,1.40625,0,0
3.66624999514897E-06,-5.73769648326561E-06,1.40625,0,0
5.10420613863971E-06,-9.55508039623965E-06,1.40625,0,0
3.65329242413281E-06,-9.95748268906027E-06,1.40625,0,0
4.9946265789913E-06,-1.25219712572289E-05,1.40625,0,0
3.84731629310409E-06,-1.25925243992242E-05,1.40625,0,0
2.63195670413552E-06,-1.49703519127797E-05,1.40625,0,0
1.61281309374317E-06,-1.54918070620624E-05,1.40625,0,0
3.2153443498828E-06,-1.55660945893032E-05,1.40625,0,0
4.18525814893655E-06,-1.49118668559822E-05,1.40625,0,0
4.78373931400711E-06,-1.56817332026549E-05,1.40625,0,0
6.24057656750665E-06,-1.70627718034666E-05,1.40625,0,0
6.91438162903069E-06,-1.55896377691533E-05,1.40625,0,0
6.19151342107216E-06,-1.22239580377936E-05,1.40625,0,0
5.12307860844885E-06,-1.0654992365744E-05,1.40625,0,0
5.15566534886602E-06,-1.24132411656319E-05,1.40625,0,0
4.54913151770597E-06,-1.45895819514408E-05,1.40625,0,0
4.18350919062505E-06,-1.62129254022148E-05,1.40625,0,0
3.38219979312271E-06,-1.51441035995958E-05,1.40625,0,0
2.4394989850407E-06,-1.39429585033213E-05,1.40625,0,0
1.77709603121912E-06,-1.33829107653582E-05,1.40625,0,0
2.23769689000619E-06,-1.44262303365394E-05,1.40625,0,0
1.56804571815883E-06,-1.50979458339862E-05,1.40625,0,0
-9.4415426588057E-08,-1.63764962053392E-05,1.40625,0,0
-1.5146214309425E-06,-1.75013101397781E-05,1.40625,0,0
-1.09480936316686E-06,-1.8368438759353E-05,1.40625,0,0
-1.15679739565167E-07,-1.84115433512488E-05,1.40625,0,0
3.82588126512928E-07,-1.84933905984508E-05,1.40625,0,0
1.36638971071079E-06,-1.64499670063378E-05,1.40625,0,0
2.45558885580976E-06,-2.76482860499527E-05,1.40625,0,0
2.6240356874041E-06,-2.89906765829073E-05,1.40625,0,0
3.23755898534728E-06,-3.74919727619272E-05,1.40625,0,0
3.58762986252259E-06,-3.27759662468452E-05,1.40625,0,0
4.52805079476093E-06,-2.80517087958287E-05,1.40625,0,0
5.01458407597966E-06,-2.03594663616968E-05,1.40625,0,0
5.63772164241527E-06,-1.80079514393583E-05,1.40625,0,0
5.13514851263608E-06,-1.72660747921327E-05,1.40625,0,0
3.3380413242412E-06,-2.03944600798422E-05,1.40625,0,0
1.84182022167079E-06,-2.35245643125381E-05,1.40625,0,0
7.0565995713423E-08,-2.33149785344722E-05,1.40625,0,0
-1.215150518874E-06,-2.24991235882044E-05,1.40625,0,0
-1.17964839319029E-06,-2.05531196115771E-05,1.40625,0,0
-1.96696063881063E-07,-2.01331167772878E-05,1.40625,0,0
5.20080732258066E-07,-1.64865432452643E-05,1.40625,0,0
6.49340904601559E-07,-1.40949023261783E-05,1.40625,0,0
2.79449153595124E-07,-1.1697531590471E-05,1.40625,0,0
-6.15454496255552E-08,-1.14885679067811E-05,1.40625,0,0
1.80255369741644E-07,-9.46869658946525E-06,1.40625,0,0
1.14742465484596E-06,-9.25507993088104E-06,1.40625,0,0
1.88548460755555E-06,-9.17419038160006E-06,1.40625,0,0
2.33427272178233E-06,-9.5702944236109E-06,1.40625,0,0
2.26354654841998E-06,-8.38874257169664E-06,1.40625,0,0
1.54991698764206E-06,-8.3634304246516E-06,1.40625,0,0
7.80236518949096E-07,-9.77122817857889E-06,1.40625,0,0
-3.08913485014273E-07,-1.11710951387067E-05,1.40625,0,0
-5.33322690898785E-07,-9.00432587513933E-06,1.40625,0,0
-3.91303018432154E-07,-1.20958729894483E-05,1.40625,0,0
1.13347380192863E-06,-8.79816070664674E-06,1.40625,0,0
1.52220025029237E-06,-1.24432681332109E-05,1.40625,0,0
1.48364733831841E-06,-1.09743532448192E-05,1.40625,0,0
2.19936418943689E-06,-1.24640600915882E-05,1.40625,0,0
2.37715380535519E-06,-1.37429842652637E-05,1.40625,0,0
1.69551799444889E-06,-1.53243909153389E-05,1.40625,0,0
2.87804414256243E-06,-1.33435660245596E-05,1.40625,0,0
6.05804416409228E-06,-1.24892731037107E-05,1.40625,0,0
7.69814778323052E-06,-1.45100157169509E-05,1.40625,0,0
5.23511380379205E-06,-1.60023137141252E-05,1.40625,0,0
1.00845386441506E-06,-1.6781865269877E-05,1.40625,0,0
-1.01632701898779E-06,-1.63241402333369E-05,1.40625,0,0
8.49681725867413E-07,-1.85705175681505E-05,1.40625,0,0
4.41012889496051E-06,-2.11918559216429E-05,1.40625,0,0
5.73604347664514E-06,-2.2960741262068E-05,1.40625,0,0
4.25150074079284E-06,-2.09543832170311E-05,1.40625,0,0
2.58574141298595E-06,-1.98513862414984E-05,1.40625,0,0
2.46319564212172E-06,-1.94966414710507E-05,1.40625,0,0
2.52510858445021E-06,-1.97647477762075E-05,1.40625,0,0
2.30350042329519E-06,-1.85792305273935E-05,1.40625,0,0
2.18601371670957E-06,-1.71121191669954E-05,1.40625,0,0
1.89237152881105E-06,-1.65765413839836E-05,1.40625,0,0
1.21782909445756E-06,-1.84169293788727E-05,1.40625,0,0
1.71732108356082E-06,-1.9980650904472E-05,1.40625,0,0
3.43464148500061E-06,-1.89116071851458E-05,1.40625,0,0
2.85542046185583E-06,-1.37454262585379E-05,1.40625,0,0
3.67356346941961E-06,-1.87616169569083E-05,1.40625,0,0
2.14034821510722E-06,-1.39986896101618E-05,1.40625,0,0
2.72346437668602E-06,-1.92404440895189E-05,1.40625,0,0
3.36760240315925E-06,-1.73072457982926E-05,1.40625,0,0
5.23475227964809E-06,-1.99275364138884E-05,1.40625,0,0
4.59964439869509E-06,-1.955016523425E-05,1.40625,0,0
3.88327907785424E-06,-2.04234893317334E-05,1.40625,0,0
2.11544670492003E-06,-1.81806535692886E-05,1.40625,0,0
1.36907351588889E-06,-1.6805543054943E-05,1.40625,0,0
1.94392873709148E-06,-1.66467307280982E-05,1.40625,0,0
2.26118572754785E-06,-1.63111726578791E-05,1.40625,0,0
3.29775298268942E-06,-1.73097723745741E-05,1.40625,0,0
4.5659708121093E-06,-1.57875219883863E-05,1.40625,0,0
5.4904553508095E-06,-1.53274959302507E-05,1.40625,0,0
5.00761916555348E-06,-1.49338848132174E-05,1.40625,0,0
5.23051858181134E-06,-1.74221113411477E-05,1.40625,0,0
5.23318158229813E-06,-1.82714611582924E-05,1.40625,0,0
4.57165151601657E-06,-1.99804599105846E-05,1.40625,0,0
3.71650889974262E-06,-1.91313320101472E-05,1.40625,0,0
3.13794794237765E-06,-1.85682001756504E-05,1.40625,0,0
2.42744908973691E-06,-1.78326135937823E-05,1.40625,0,0
3.66746598956524E-06,-1.7220158042619E-05,1.40625,0,0
4.29399142376496E-06,-1.64599678100785E-05,1.40625,0,0
2.4994424165925E-06,-1.70711628015852E-05,1.40625,0,0
1.02608953511663E-06,-1.74217202584259E-05,1.40625,0,0
1.42792680435377E-06,-2.04233601834858E-05,1.40625,0,0
1.23229608561815E-06,-1.98747056856519E-05,1.40625,0,0
1.20899539979291E-06,-2.75963302556193E-05,1.40625,0,0
4.43563777707823E-07,-1.7543225112604E-05,1.40625,0,0
1.46615855101118E-06,-2.00669746845961E-05,1.40625,0,0
1.93041159946006E-06,-1.55435864144238E-05,1.40625,0,0
3.38792688125977E-06,-1.78060581674799E-05,1.40625,0,0
6.07073661740287E-06,-1.54703939188039E-05,1.40625,0,0
7.69293001212645E-06,-1.56852747750236E-05,1.40625,0,0
5.12999258717173E-06,-1.53593991853995E-05,1.40625,0,0
2.01290458790027E-06,-1.70300008903723E-05,1.40625,0,0
2.26267752623244E-06,-1.80493861989817E-05,1.40625,0,0
4.5621254685102E-06,-1.59441751748091E-05,1.40625,0,0
6.47165734335431E-06,-1.32392096929834E-05,1.40625,0,0
6.26950941295945E-06,-8.90719729795819E-06,1.40625,0,0
5.33448837813921E-06,-1.04615801319596E-05,1.40625,0,0
4.83125586470123E-06,-1.45096246342291E-05,1.40625,0,0
4.78897118227906E-06,-2.10814432648476E-05,1.40625,0,0
4.5200577005744E-06,-2.26578576985048E-05,1.40625,0,0
4.49673598268419E-06,-2.44991842919262E-05,1.40625,0,0
4.00370845454745E-06,-2.54858714470174E-05,1.40625,0,0
2.87422312794661E-06,-2.64890222752001E-05,1.40625,0,0
2.48037781602761E-06,-2.24437499127816E-05,1.40625,0,0
3.25808036905073E-06,-1.93823616427835E-05,1.40625,0,0
3.25285463986802E-06,-1.88217163668014E-05,1.40625,0,0
2.83683652924083E-06,-2.03502258955268E-05,1.40625,0,0
1.69473867117631E-06,-2.05204560188577E-05,1.40625,0,0
1.70064353710586E-07,-2.0997384126531E-05,1.40625,0,0
-2.74593219273811E-07,-1.72889122040942E-05,1.40625,0,0
5.37232892838801E-07,-2.28688713832526E-05,1.40625,0,0
2.55474537880218E-06,-1.57415943249362E-05,1.40625,0,0
4.1653765947558E-06,-2.15868785744533E-05,1.40625,0,0
4.40522308053914E-06,-1.84659766091499E-05,1.40625,0,0
2.41357315644564E-06,-2.01234997803112E-05,1.40625,0,0
1.22349365483387E-06,-1.7311791452812E-05,1.40625,0,0
2.46477975451853E-06,-1.72743766597705E-05,1.40625,0,0
4.59763941762503E-06,-1.4224715414457E-05,1.40625,0,0
6.52190874461667E-06,-1.22083711175947E-05,1.40625,0,0
6.87683359501534E-06,-1.22516948977136E-05,1.40625,0,0
5.96298332311562E-06,-1.25567639770452E-05,1.40625,0,0
5.66932703804923E-06,-1.46439651871333E-05,1.40625,0,0
5.97813459535246E-06,-1.43125780596165E-05,1.40625,0,0
5.47621311852708E-06,-1.47163427755004E-05,1.40625,0,0
3.80231654162344E-06,-1.29933596326737E-05,1.40625,0,0
1.60128752213495E-06,-1.43497591125197E-05,1.40625,0,0
1.06785284970101E-06,-1.57343984028557E-05,1.40625,0,0
2.05697551791673E-06,-1.9933353542001E-05,1.40625,0,0
2.89963645627722E-06,-2.04262832994573E-05,1.40625,0,0
1.82087524080998E-06,-1.81570703716716E-05,1.40625,0,0
-8.21848175291962E-07,-1.43601973832119E-05,1.40625,0,0
-1.84603129582683E-06,-1.47938126247027E-05,1.40625,0,0
-1.29001978166343E-06,-1.74848501046654E-05,1.40625,0,0
2.39388299405618E-07,-2.08993769774679E-05,1.40625,0,0
1.97205918084364E-06,-2.07592856895644E-05,1.40625,0,0
2.20214587898226E-06,-2.02107075892854E-05,1.40625,0,0
1.22088010812149E-07,-1.78549071279122E-05,1.40625,0,0
-1.3691636695512E-06,-2.63820729742292E-05,1.40625,0,0
-2.91832679977233E-06,-2.04890584427631E-05,1.40625,0,0
-3.33685557052377E-06,-2.28394128498621E-05,1.40625,0,0
-3.2995003493852E-06,-1.58757484314265E-05,1.40625,0,0
-1.40214592647681E-06,-1.47169730553287E-05,1.40625,0,0
-5.90170046166349E-08,-1.08132444438525E-05,1.40625,0,0
1.52205223002966E-06,-1.02143721960601E-05,1.40625,0,0
2.22878225031309E-06,-9.23462994251167E-06,1.40625,0,0
2.79145206150133E-06,-1.04775199361029E-05,1.40625,0,0
3.24408006235899E-06,-1.1731916856661E-05,1.40625,0,0
2.81089569398318E-06,-1.142644941865E-05,1.40625,0,0
2.8656131689786E-06,-1.31363376567606E-05,1.40625,0,0
3.42846010426001E-06,-1.4334802472149E-05,1.40625,0,0
3.43532087754284E-06,-1.66557656484656E-05,1.40625,0,0
2.0121144643781E-06,-1.60875551955542E-05,1.40625,0,0
6.37358141375444E-07,-1.71875926753273E-05,1.40625,0,0
-1.25864971778356E-07,-1.6918127585086E-05,1.40625,0,0
-3.38356812790153E-07,-1.77992442331743E-05,1.40625,0,0
-6.08152902259462E-07,-1.60497238539392E-05,1.40625,0,0
-8.61631690440845E-07,-1.52743468788685E-05,1.40625,0,0
-1.180327444672E-06,-1.41247637657216E-05,1.40625,0,0
-9.69653910942725E-07,-1.36315593408654E-05,1.40625,0,0
8.21766761305298E-08,-1.13362775664427E-05,1.40625,0,0
6.97052030318446E-07,-9.90391436062055E-06,1.40625,0,0
-9.83811332844198E-07,-1.032414547808E-05,1.40625,0,0
-2.52501695285901E-06,-1.16262044684845E-05,1.40625,0,0
-5.31562761807436E-07,-1.10724149635644E-05,1.40625,0,0
6.5806250404421E-07,-1.65486035257345E-05,1.40625,0,0
3.54963390236662E-06,-1.29505024233367E-05,1.40625,0,0
5.37331015948439E-06,-1.45772100950126E-05,1.40625,0,0
4.65705716123921E-06,-1.30857642943738E-05,1.40625,0,0
1.85277542641415E-06,-1.65372912306339E-05,1.40625,0,0
2.1258449578454E-06,-1.68829355970956E-05,1.40625,0,0
4.00288217861089E-06,-1.65157744049793E-05,1.40625,0,0
5.33362663190928E-06,-1.5365058061434E-05,1.40625,0,0
5.24718734595808E-06,-1.62670185090974E-05,1.40625,0,0
4.76066043120227E-06,-1.82260482688434E-05,1.40625,0,0
4.70651093564811E-06,-2.00235899683321E-05,1.40625,0,0
4.9257555474469E-06,-2.15646450669738E-05,1.40625,0,0
4.06919070883305E-06,-2.03326599148568E-05,1.40625,0,0
2.48647324951889E-06,-2.00785507331602E-05,1.40625,0,0
2.99149883176142E-06,-1.95990869542584E-05,1.40625,0,0
4.37234393757535E-06,-2.04462994588539E-05,1.40625,0,0
4.01398301619338E-06,-2.11390288313851E-05,1.40625,0,0
2.2743406589143E-06,-2.32905113080051E-05,1.40625,0,0
2.63544484369049E-06,-2.28741537284805E-05,1.40625,0,0
4.16066359321121E-06,-2.14679002965568E-05,1.40625,0,0
4.08041250921087E-06,-1.89204602065729E-05,1.40625,0,0
3.4397146464471E-06,-1.71639476320706E-05,1.40625,0,0
3.32289573634625E-06,-1.50174382724799E-05,1.40625,0,0
2.5203976292687E-06,-1.46093379953527E-05,1.40625,0,0
1.85057524504373E-06,-1.5332770999521E-05,1.40625,0,0
1.25081726309872E-06,-1.46144639074919E-05,1.40625,0,0
1.4950471722841E-06,-1.1034633644158E-05,1.40625,0,0
1.86651516287384E-06,-1.61944735737052E-05,1.40625,0,0
1.02389158485039E-07,-1.36016678879969E-05,1.40625,0,0
-9.51439858454251E-07,-1.81208160938695E-05,1.40625,0,0
-1.61691446010082E-06,-1.90510018001078E-05,1.40625,0,0
-7.65296022109396E-08,-2.39062774198828E-05,1.40625,0,0
2.52637300945935E-06,-2.35237494052853E-05,1.40625,0,0
4.25896678279969E-06,-2.12803242902737E-05,1.40625,0,0
4.1226726352761E-06,-1.67754551512189E-05,1.40625,0,0
4.19769230575184E-06,-1.48406916196109E-05,1.40625,0,0
5.53733116248623E-06,-1.41193504532566E-05,1.40625,0,0
6.12388294030097E-06,-1.40277661557775E-05,1.40625,0,0
5.43376290806918E-06,-1.64369721460389E-05,1.40625,0,0
4.70276427222416E-06,-1.85900826181751E-05,1.40625,0,0
4.30038107879227E-06,-2.1721034499933E-05,1.40625,0,0
3.47913237419561E-06,-2.21990630961955E-05,1.40625,0,0
2.91065634883125E-06,-2.21587015403202E-05,1.40625,0,0
2.64946447714465E-06,-2.05280539375963E-05,1.40625,0,0
2.15415684579057E-06,-2.06437198357889E-05,1.40625,0,0
1.55445638938545E-06,-1.88187204912538E-05,1.40625,0,0
2.17362685361877E-06,-1.63515924214153E-05,1.40625,0,0
2.6695895485318E-06,-1.46073416544823E-05,1.40625,0,0
3.19184437103104E-06,-1.58095026563387E-05,1.40625,0,0
4.01791749027325E-06,-1.66767367772991E-05,1.40625,0,0
4.99518682772759E-06,-1.71301689988468E-05,1.40625,0,0
5.04891977470834E-06,-1.65699366334593E-05,1.40625,0,0
4.57665919384453E-06,-1.51389867824037E-05,1.40625,0,0
4.47877437181887E-06,-9.66927655099425E-06,1.40625,0,0
5.60942908123252E-06,-1.21605780805112E-05,1.40625,0,0
3.45815101354674E-06,-7.42135944165057E-06,1.40625,0,0
5.51991251995787E-06,-1.05929902929347E-05,1.40625,0,0
5.22030040883692E-06,-1.07171163108433E-05,1.40625,0,0
5.65116170037072E-06,-1.55140915012453E-05,1.40625,0,0
4.76723698739079E-06,-1.60042345669353E-05,1.40625,0,0
4.56951647720416E-06,-1.68239403137704E-05,1.40625,0,0
4.30989075539401E-06,-1.7227315765922E-05,1.40625,0,0
5.29078943145578E-06,-1.89833244803594E-05,1.40625,0,0
6.29403530183481E-06,-2.0838047930738E-05,1.40625,0,0
5.64776610190165E-06,-2.12803970498499E-05,1.40625,0,0
3.89734350392246E-06,-2.03822037292412E-05,1.40625,0,0
1.90649848264002E-06,-1.57537342602154E-05,1.40625,0,0
1.74619015069766E-06,-1.23506042655208E-05,1.40625,0,0
2.52305335379788E-06,-1.13895566755673E-05,1.40625,0,0
4.22389894083608E-06,-1.44184059536201E-05,1.40625,0,0
4.41954898633412E-06,-1.50520536408294E-05,1.40625,0,0
4.43688077211846E-06,-1.45293179230066E-05,1.40625,0,0
4.41634756498388E-06,-1.28673436847748E-05,1.40625,0,0
4.56899488199269E-06,-1.25375372590497E-05,1.40625,0,0
3.45430248671619E-06,-1.26269542306545E-05,1.40625,0,0
2.93188941213884E-06,-1.41414175232057E-05,1.40625,0,0
2.19939420276205E-06,-1.50955966091715E-05,1.40625,0,0
1.83011229637486E-06,-1.53154705913039E-05,1.40625,0,0
3.19516743729764E-06,-1.58573548105778E-05,1.40625,0,0
4.67032623419072E-06,-1.77780511876335E-05,1.40625,0,0
3.27052111970261E-06,-1.42888093250804E-05,1.40625,0,0
4.51071218776633E-06,-1.87481546163326E-05,1.40625,0,0
3.9829842535255E-06,-1.31886408780701E-05,1.40625,0,0
5.56290706299478E-06,-1.79715825652238E-05,1.40625,0,0
3.83563383365981E-06,-1.57672602654202E-05,1.40625,0,0
3.99331111111678E-06,-1.88485919352388E-05,1.40625,0,0
4.44910801888909E-06,-1.66603767866036E-05,1.40625,0,0
4.21869708588929E-06,-1.63443619385362E-05,1.40625,0,0
4.0097634155245E-06,-1.4203325008566E-05,1.40625,0,0
5.1286724556121E-06,-1.40395904963952E-05,1.40625,0,0
5.60524085813086E-06,-1.54731988004642E-05,1.40625,0,0
3.96801260649227E-06,-1.56171226990409E-05,1.40625,0,0
2.09180052479496E-06,-1.55158813868184E-05,1.40625,0,0
7.13892973180918E-07,-1.26567774714204E-05,1.40625,0,0
1.44599971463322E-06,-1.25742089949199E-05,1.40625,0,0
3.15506736114912E-06,-1.26871391330496E-05,1.40625,0,0
4.48156197307981E-06,-1.47973842103966E-05,1.40625,0,0
4.11166229241644E-06,-1.50577752719983E-05,1.40625,0,0
3.21510515277623E-06,-1.90996815945255E-05,1.40625,0,0
2.31510125558998E-06,-2.28266981139313E-05,1.40625,0,0
2.41344400819798E-06,-2.56533548963489E-05,1.40625,0,0
2.54080396189238E-06,-2.52412228292087E-05,1.40625,0,0
2.79265623248648E-06,-2.29021134146024E-05,1.40625,0,0
2.4707669581403E-06,-1.9858853193E-05,1.40625,0,0
1.80486881617981E-06,-1.93768210010603E-05,1.40625,0,0
2.25314875024196E-06,-1.92332481674384E-05,1.40625,0,0
3.16549358103657E-06,-2.06562726816628E-05,1.40625,0,0
3.68367591363494E-06,-1.76992143678945E-05,1.40625,0,0
4.82067889606697E-06,-2.5026201910805E-05,1.40625,0,0
2.0288512132538E-06,-1.87282112165121E-05,1.40625,0,0
1.20553636406839E-06,-2.32192232942907E-05,1.40625,0,0
3.8204512975426E-07,-2.00864724320127E-05,1.40625,0,0
1.79348546680558E-06,-2.352806586714E-05,1.40625,0,0
1.31536535263876E-06,-2.21835143747739E-05,1.40625,0,0
7.6814103522338E-07,-2.34011877182638E-05,1.40625,0,0
-7.80681972400998E-08,-2.09225599974161E-05,1.40625,0,0
-7.67141102642199E-07,-1.8506305423216E-05,1.40625,0,0
-4.9687696446199E-07,-1.70318289747229E-05,1.40625,0,0
-5.81769882046501E-07,-1.43674915307201E-05,1.40625,0,0
-1.11292126803164E-06,-1.52279326357529E-05,1.40625,0,0
-2.4382934498135E-06,-1.57821632456034E-05,1.40625,0,0
-2.84530619865109E-06,-1.74400593095925E-05,1.40625,0,0
-1.86937734270032E-06,-1.6048275938374E-05,1.40625,0,0
8.24381743314007E-07,-1.56091227836441E-05,1.40625,0,0
2.03457807401719E-06,-1.34578549477737E-05,1.40625,0,0
1.83550707788527E-06,-1.50184459926095E-05,1.40625,0,0
9.62054286901548E-07,-1.70280472957529E-05,1.40625,0,0
1.03445222521259E-06,-2.04419538931688E-05,1.40625,0,0
1.91646950042923E-06,-2.20278379856609E-05,1.40625,0,0
3.8235471038206E-06,-2.35122315643821E-05,1.40625,0,0
5.99430677539203E-06,-2.32194179261569E-05,1.40625,0,0
5.29513317815145E-06,-2.10821926884819E-05,1.40625,0,0
2.36045070778346E-06,-1.74835895450087E-05,1.40625,0,0
2.42071536149524E-07,-1.64914727065479E-05,1.40625,0,0
2.22574385588814E-08,-1.59561914188089E-05,1.40625,0,0
1.81916641395219E-06,-2.49799722951138E-05,1.40625,0,0
4.46481908511487E-06,-2.16065855056513E-05,1.40625,0,0
4.83952953800326E-06,-2.43740105361212E-05,1.40625,0,0
4.98699091622257E-06,-1.81501927727368E-05,1.40625,0,0
4.82841323901084E-06,-1.68754468177212E-05,1.40625,0,0
3.27517091136542E-06,-1.37170354719274E-05,1.40625,0,0
1.58054035637178E-06,-1.38905452331528E-05,1.40625,0,0
1.18907109936117E-06,-1.43131510412786E-05,1.40625,0,0
1.89640002190572E-06,-1.64566499734065E-05,1.40625,0,0
2.82740688817285E-06,-1.84021919267252E-05,1.40625,0,0
2.75637353297498E-06,-1.74158612935571E-05,1.40625,0,0
2.21876030082058E-06,-1.61621937877499E-05,1.40625,0,0
1.06912409592042E-06,-1.28503397718305E-05,1.40625,0,0
-1.17337350502567E-07,-1.22686060421984E-05,1.40625,0,0
-2.74007419420741E-07,-1.24303569464246E-05,1.40625,0,0
4.33890612328014E-08,-1.39394915095181E-05,1.40625,0,0
1.09125790004327E-06,-1.25554834085051E-05,1.40625,0,0
2.86093290924327E-06,-1.30359339891584E-05,1.40625,0,0
4.24751124228351E-06,-1.34649226311012E-05,1.40625,0,0
4.17045976064401E-06,-1.58295224537142E-05,1.40625,0,0
2.5418000859645E-06,-1.75896402652143E-05,1.40625,0,0
1.98505375692548E-07,-1.90821647265693E-05,1.40625,0,0
-7.14875966423278E-07,-1.89433194464073E-05,1.40625,0,0
-9.05136460005451E-07,-1.70835355675081E-05,1.40625,0,0
-1.87076398106001E-06,-1.45386702570249E-05,1.40625,0,0
-2.13056500797393E-06,-1.41682876346749E-05,1.40625,0,0
-1.31440557993301E-07,-1.21318480523769E-05,1.40625,0,0
1.905750991682E-06,-1.78659611265175E-05,1.40625,0,0
3.41729537467472E-06,-1.33353560158866E-05,1.40625,0,0
1.62704236572608E-06,-1.37567631099955E-05,1.40625,0,0
9.58842633735912E-07,-1.01966625152272E-05,1.40625,0,0
6.02640852775949E-07,-1.42912658702699E-05,1.40625,0,0
-1.11756946807873E-06,-1.74306460394291E-05,1.40625,0,0
-1.8679191953197E-06,-2.25572439376265E-05,1.40625,0,0
-2.01748076023023E-08,-2.47272710112156E-05,1.40625,0,0
1.76727314737946E-06,-2.43731683440274E-05,1.40625,0,0
2.8976653538848E-06,-2.20436068048002E-05,1.40625,0,0
3.35436720888538E-06,-1.93931646208512E-05,1.40625,0,0
3.66428298548271E-06,-2.03981344384374E-05,1.40625,0,0
2.89196009362058E-06,-2.17320703086443E-05,1.40625,0,0
2.58794841556664E-07,-2.28813460125821E-05,1.40625,0,0
-1.16520197934733E-06,-2.15509626286803E-05,1.40625,0,0
5.40555049610703E-07,-2.18082259380026E-05,1.40625,0,0
3.46279921359383E-06,-2.14942538150353E-05,1.40625,0,0
4.37065455116681E-06,-2.21121808863245E-05,1.40625,0,0
3.04807576867461E-06,-2.13242365134647E-05,1.40625,0,0
4.98779400004423E-07,-2.05104806809686E-05,1.40625,0,0
-2.99863813779666E-07,-1.78500031324802E-05,1.40625,0,0
3.56474146201435E-07,-1.73480129888048E-05,1.40625,0,0
1.2970018588021E-06,-1.82036383193918E-05,1.40625,0,0
1.19695187095203E-06,-1.89667134691263E-05,1.40625,0,0
9.89577188192925E-07,-1.86593679245561E-05,1.40625,0,0
2.95198560706922E-06,-1.82854546437738E-05,1.40625,0,0
4.90035972688929E-06,-1.42916442200658E-05,1.40625,0,0
8.41301061882405E-06,-1.92708648683038E-05,1.40625,0,0
7.15697342457133E-06,-1.29433692563907E-05,1.40625,0,0
7.39226970836171E-06,-1.4628552889917E-05,1.40625,0,0
5.75468948227353E-06,-8.99188125913497E-06,1.40625,0,0
4.14134638049291E-06,-1.15795692181564E-05,1.40625,0,0
1.64152709203336E-06,-1.17938307084842E-05,1.40625,0,0
1.20683102977637E-06,-1.17400941235246E-05,1.40625,0,0
2.43438921643246E-06,-8.70931216923054E-06,1.40625,0,0
5.15475858264836E-06,-7.52540790927014E-06,1.40625,0,0
5.9589465308818E-06,-7.76947672420647E-06,1.40625,0,0
3.68293854080548E-06,-7.00684904586524E-06,1.40625,0,0
1.61826574185397E-06,-8.31675879453542E-06,1.40625,0,0
-1.70487183481782E-07,-9.30905025597895E-06,1.40625,0,0
-1.04777950582502E-06,-1.01112273114268E-05,1.40625,0,0
-1.83116173957387E-06,-7.749024007353E-06,1.40625,0,0
-1.64364405463857E-06,-8.69873929332243E-06,1.40625,0,0
-1.10270127606782E-06,-1.01011210063007E-05,1.40625,0,0
3.30338963294707E-07,-1.28131005112664E-05,1.40625,0,0
1.61401635523362E-06,-1.35194022732321E-05,1.40625,0,0
4.78388346891734E-06,-1.42812559715821E-05,1.40625,0,0
8.191220331355E-06,-1.31804717966588E-05,1.40625,0,0
8.99334918358363E-06,-1.43815277624526E-05,1.40625,0,0
8.08417462394573E-06,-1.63892364071216E-05,1.40625,0,0
6.55318581266329E-06,-1.9118719137623E-05,1.40625,0,0
4.82916630062391E-06,-2.27560849452857E-05,1.40625,0,0
4.43948147221818E-06,-2.55428585660411E-05,1.40625,0,0
5.03914134242223E-06,-2.19133289647289E-05,1.40625,0,0
7.55127894080943E-06,-3.03712004097179E-05,1.40625,0,0
4.38919551015715E-06,-2.09531117434381E-05,1.40625,0,0
3.08385870084749E-06,-2.4748886062298E-05,1.40625,0,0
2.44202692556428E-06,-1.85545923159225E-05,1.40625,0,0
5.4980978347885E-06,-2.05366341106128E-05,1.40625,0,0
6.3184988903231E-06,-1.88351023098221E-05,1.40625,0,0
5.26075245943503E-06,-2.16298285522498E-05,1.40625,0,0
3.76527714252006E-06,-2.15042655327125E-05,1.40625,0,0
3.89725119021023E-06,-2.02788360184059E-05,1.40625,0,0
4.08559571951628E-06,-1.82988260348793E-05,1.40625,0,0
2.71059934675577E-06,-1.52366801557946E-05,1.40625,0,0
1.23369432003528E-06,-1.38421110023046E-05,1.40625,0,0
1.10744724679535E-06,-1.14122140075779E-05,1.40625,0,0
2.80106314676232E-06,-1.21813136502169E-05,1.40625,0,0
3.27274415212742E-06,-1.2070055163349E-05,1.40625,0,0
3.27141015077359E-06,-1.6023985153879E-05,1.40625,0,0
2.69993142865133E-06,-1.70092262123944E-05,1.40625,0,0
2.22538506022829E-06,-1.85148783202749E-05,1.40625,0,0
1.2495360124376E-06,-1.76268458744744E-05,1.40625,0,0
1.30586363411567E-06,-1.82583225978306E-05,1.40625,0,0
1.48946242006787E-06,-1.71166666405043E-05,1.40625,0,0
1.923147465277E-06,-1.72694872162538E-05,1.40625,0,0
2.20543324758182E-06,-1.64358298206935E-05,1.40625,0,0
2.9532866392401E-06,-1.7101529010688E-05,1.40625,0,0
4.41386509919539E-06,-1.73957869264996E-05,1.40625,0,0
5.80898586122203E-06,-1.61195657710778E-05,1.40625,0,0
4.21984805143438E-06,-1.11948802441475E-05,1.40625,0,0
6.26426799499313E-06,-1.37334400278633E-05,1.40625,0,0
7.22814183973242E-06,-7.93135222920682E-06,1.40625,0,0
9.63300954026636E-06,-1.09305465230136E-05,1.40625,0,0
7.25357358533074E-06,-9.60577654041117E-06,1.40625,0,0
8.00301222625421E-06,-1.52761749632191E-05,1.40625,0,0
9.02809006220195E-06,-2.044365828624E-05,1.40625,0,0
1.04166128949146E-05,-2.51988767558942E-05,1.40625,0,0
9.07333105715225E-06,-2.32414804486325E-05,1.40625,0,0
7.76514025346842E-06,-1.85189455805812E-05,1.40625,0,0
7.65251297707437E-06,-1.43898005262599E-05,1.40625,0,0
6.37543371340143E-06,-1.15759357868228E-05,1.40625,0,0
5.25789118910325E-06,-1.04126193036791E-05,1.40625,0,0
5.94054745306494E-06,-7.82866391091375E-06,1.40625,0,0
8.48358649818692E-06,-8.72783130034804E-06,1.40625,0,0
8.1553116615396E-06,-1.05264552985318E-05,1.40625,0,0
5.13144232172635E-06,-1.29194304463454E-05,1.40625,0,0
1.64183381912153E-06,-1.18273201223928E-05,1.40625,0,0
1.68373981068726E-06,-1.18543175631203E-05,1.40625,0,0
3.16397267852153E-06,-1.23686941151391E-05,1.40625,0,0
5.05191701449803E-06,-1.37697434183792E-05,1.40625,0,0
5.67638653592439E-06,-1.3460486115946E-05,1.40625,0,0
5.00930900670937E-06,-1.36168991957675E-05,1.40625,0,0
2.84342286249739E-06,-1.31550896185217E-05,1.40625,0,0
2.93601118528386E-07,-1.37155984702986E-05,1.40625,0,0
-1.06530842458596E-06,-1.58378225023625E-05,1.40625,0,0
2.14910627960307E-07,-1.80908446054673E-05,1.40625,0,0
1.77995684680354E-06,-1.5793033526279E-05,1.40625,0,0
1.84689849902497E-06,-2.2315891328617E-05,1.40625,0,0
-3.72291246719669E-08,-1.61593125085346E-05,1.40625,0,0
1.4524812286254E-06,-2.01346738322172E-05,1.40625,0,0
2.67078462456993E-06,-1.75542136275908E-05,1.40625,0,0
1.28339604543726E-06,-1.99032620002981E-05,1.40625,0,0
1.06619708617472E-07,-1.85679855349008E-05,1.40625,0,0
1.28755402784009E-06,-2.07828961720224E-05,1.40625,0,0
2.45781916419219E-06,-2.17953929677606E-05,1.40625,0,0
3.04395121020207E-06,-2.15265463339165E-05,1.40625,0,0
2.69332008429046E-06,-2.00977210624842E-05,1.40625,0,0
1.80356119017233E-06,-1.83358934009448E-05,1.40625,0,0
1.63226832228247E-06,-1.80497627297882E-05,1.40625,0,0
1.34869537760096E-06,-1.62680044013541E-05,1.40625,0,0
7.31972875200881E-07,-1.65092587849358E-05,1.40625,0,0
-2.87406663801448E-07,-1.51859276229516E-05,1.40625,0,0
-1.15700345304504E-06,-1.50187051985995E-05,1.40625,0,0
-1.55668976731249E-06,-1.23199988593115E-05,1.40625,0,0
-9.51887500377779E-07,-1.18387033580802E-05,1.40625,0,0
-4.35593392467126E-07,-1.28290375869256E-05,1.40625,0,0
-5.11470375386125E-07,-1.66446334333159E-05,1.40625,0,0
-1.00762099464191E-06,-1.84694345080061E-05,1.40625,0,0
-1.59928822540678E-06,-1.82622698048363E-05,1.40625,0,0
-1.7040752027242E-06,-1.66537683981005E-05,1.40625,0,0
-2.01195945237487E-07,-1.77388446900295E-05,1.40625,0,0
1.43585361911391E-06,-1.99596343009034E-05,1.40625,0,0
1.86487125120038E-06,-2.32269521802664E-05,1.40625,0,0
1.22711753647309E-06,-2.2328733393806E-05,1.40625,0,0
1.21392804430798E-06,-3.31807241309434E-05,1.40625,0,0
9.45153601605853E-07,-2.42667283600895E-05,1.40625,0,0
1.98175393961719E-06,-2.55745890171966E-05,1.40625,0,0
9.96340304482146E-07,-1.79996641236357E-05,1.40625,0,0
-2.6740144676296E-07,-1.86185316124465E-05,1.40625,0,0
-1.18861544251558E-06,-1.57933627633611E-05,1.40625,0,0
-7.03179523497965E-07,-1.77209021785529E-05,1.40625,0,0
4.64616704221044E-07,-1.79756698344136E-05,1.40625,0,0
1.05319850263186E-06,-1.94989006558899E-05,1.40625,0,0
1.09887551502652E-07,-2.21726040763315E-05,1.40625,0,0
-3.62355791594382E-07,-2.33592563745333E-05,1.40625,0,0
4.01982788389432E-07,-2.41375710174907E-05,1.40625,0,0
1.3149863207218E-06,-2.12967370316619E-05,1.40625,0,0
1.75714080796752E-06,-2.01477396331029E-05,1.40625,0,0
1.29023101180792E-06,-1.71734245668631E-05,1.40625,0,0
1.34513334160147E-06,-1.70647945196833E-05,1.40625,0,0
2.25398389375187E-06,-1.51584436025587E-05,1.40625,0,0
4.2365290937596E-06,-1.63411677931435E-05,1.40625,0,0
6.66859523335006E-06,-1.63745753525291E-05,1.40625,0,0
8.7492007878609E-06,-1.71756091731368E-05,1.40625,0,0
8.47273713588947E-06,-1.58109378389781E-05,1.40625,0,0
7.43740019970573E-06,-1.49800989674986E-05,1.40625,0,0
6.43896783003584E-06,-1.31880979097332E-05,1.40625,0,0
5.07977483721334E-06,-1.38485675051925E-05,1.40625,0,0
5.36857078259345E-06,-1.47279770317255E-05,1.40625,0,0
6.41732822259655E-06,-1.55042416736251E-05,1.40625,0,0
4.62331217931933E-06,-1.45917238114635E-05,1.40625,0,0
6.19092497800011E-06,-2.05487795028603E-05,1.40625,0,0
4.30950558438781E-06,-1.51112053572433E-05,1.40625,0,0
4.75923525300459E-06,-1.77399888343643E-05,1.40625,0,0
3.53307177647366E-06,-1.37519227791927E-05,1.40625,0,0
5.19350396643858E-06,-1.66149329743348E-05,1.40625,0,0
4.80504195365938E-06,-1.79990729520796E-05,1.40625,0,0
5.5721493481542E-06,-2.02767605514964E-05,1.40625,0,0
4.83176972920774E-06,-1.84480304596946E-05,1.40625,0,0
3.80308597414114E-06,-1.65923902386567E-05,1.40625,0,0
4.67794143332867E-06,-1.62915384862572E-05,1.40625,0,0
5.99742725171382E-06,-1.6908170437091E-05,1.40625,0,0
6.87324154569069E-06,-1.8484899555915E-05,1.40625,0,0
5.97069902141811E-06,-1.6954732927843E-05,1.40625,0,0
5.57022758584935E-06,-1.6054866136983E-05,1.40625,0,0
5.2980872169428E-06,-1.36710423248587E-05,1.40625,0,0
6.21147592028137E-06,-1.33538160298485E-05,1.40625,0,0
5.85017141929711E-06,-1.28264773593401E-05,1.40625,0,0
4.34426647188957E-06,-1.47190767165739E-05,1.40625,0,0
2.48260494117858E-06,-1.40241309054545E-05,1.40625,0,0
2.61691707237333E-06,-1.50221485455404E-05,1.40625,0,0
2.7088324259239E-06,-1.88189351320034E-05,1.40625,0,0
2.34304479818093E-06,-2.43441190832527E-05,1.40625,0,0
1.63218396664888E-06,-2.56372750300216E-05,1.40625,0,0
1.20695540317683E-06,-2.40413883147994E-05,1.40625,0,0
9.74590989244462E-07,-2.21150457946351E-05,1.40625,0,0
5.73995407648908E-07,-2.15576292248443E-05,1.40625,0,0
1.38253915338282E-06,-1.94724325410789E-05,1.40625,0,0
2.83342342299875E-06,-2.96402267849771E-05,1.40625,0,0
2.96027496915485E-06,-2.48460764851188E-05,1.40625,0,0
3.05049161397619E-06,-2.83546596619999E-05,1.40625,0,0
1.72504928741546E-06,-2.14343890547752E-05,1.40625,0,0
-1.16580913811504E-07,-2.16501484828768E-05,1.40625,0,0
-8.22353001694864E-07,-1.93037449207623E-05,1.40625,0,0
-3.6070940012678E-08,-2.06967179110507E-05,1.40625,0,0
2.06075151254481E-06,-1.97587178263348E-05,1.40625,0,0
3.67225857189624E-06,-1.9644043277367E-05,1.40625,0,0
3.30200487042021E-06,-1.96286600839812E-05,1.40625,0,0
7.90765625424683E-07,-1.80098631972214E-05,1.40625,0,0
-6.20564605924301E-07,-1.91530325537315E-05,1.40625,0,0
-4.36293589700654E-07,-2.12924242077861E-05,1.40625,0,0
7.58564567604481E-07,-2.54297719948227E-05,1.40625,0,0
1.95435563909996E-06,-2.46970685111592E-05,1.40625,0,0
2.83646886600764E-06,-2.39776127273217E-05,1.40625,0,0
3.74789806301123E-06,-2.04861171368975E-05,1.40625,0,0
4.51217192676268E-06,-1.86430625035428E-05,1.40625,0,0
5.06048854731489E-06,-1.5012613403087E-05,1.40625,0,0
5.26627218278009E-06,-1.30083835756523E-05,1.40625,0,0
5.51785433344776E-06,-1.11793251562631E-05,1.40625,0,0
5.55087990505854E-06,-1.21333951028646E-05,1.40625,0,0
5.53456220586668E-06,-1.26477998492192E-05,1.40625,0,0
5.50742652194458E-06,-1.2075382983312E-05,1.40625,0,0
5.27889324075659E-06,-1.11509980342817E-05,1.40625,0,0
5.436694209493E-06,-1.24672124002245E-05,1.40625,0,0
3.11404346575728E-06,-1.13258029159624E-05,1.40625,0,0
3.41886152455118E-06,-1.47201344589121E-05,1.40625,0,0
1.84337352493458E-06,-1.07394798760652E-05,1.40625,0,0
4.99070301884785E-06,-1.5250222531904E-05,1.40625,0,0
6.26316978014074E-06,-1.29985710373148E-05,1.40625,0,0
6.88793124936637E-06,-1.43785555337672E-05,1.40625,0,0
6.78523292663158E-06,-1.25058577395976E-05,1.40625,0,0
8.09517223387957E-06,-1.0933396879409E-05,1.40625,0,0
7.97823304310441E-06,-8.40578559291316E-06,1.40625,0,0
5.76614684177912E-06,-7.93269009591313E-06,1.40625,0,0
2.92418303615705E-06,-9.3376520453603E-06,1.40625,0,0
1.32169691369199E-06,-1.11858125819708E-05,1.40625,0,0
1.19141998311534E-06,-1.33280664158519E-05,1.40625,0,0
2.2929116312298E-06,-1.29227228171658E-05,1.40625,0,0
3.45028706760786E-06,-1.29061600091518E-05,1.40625,0,0
3.25148698721023E-06,-1.14314370875945E-05,1.40625,0,0
3.68959854313289E-06,-1.1118865586468E-05,1.40625,0,0
3.17832518703653E-06,-1.12994557639468E-05,1.40625,0,0
1.08745837223978E-06,-1.58883322001202E-05,1.40625,0,0
-2.1940604710835E-06,-1.95247102965368E-05,1.40625,0,0
-4.36589652963448E-06,-2.08049859793391E-05,1.40625,0,0
-5.68242785448092E-06,-1.83883093995973E-05,1.40625,0,0
-5.42152520210948E-06,-1.57469730766024E-05,1.40625,0,0
-3.76572711502376E-06,-1.32028271764284E-05,1.40625,0,0
-2.48155788540316E-06,-1.26913264466566E-05,1.40625,0,0
-3.63492449650948E-06,-1.45203512147418E-05,1.40625,0,0
-4.04725687985774E-06,-1.67310972756241E-05,1.40625,0,0
-6.63723767502233E-07,-1.266557683266E-05,1.40625,0,0
1.96305961708276E-07,-1.6678926840541E-05,1.40625,0,0
-6.43254054466524E-07,-1.10506152850576E-05,1.40625,0,0
-3.01574073091615E-06,-1.34702486320748E-05,1.40625,0,0
-1.65689016284887E-06,-1.09996781247901E-05,1.40625,0,0
-6.82775919358392E-07,-1.47184655361343E-05,1.40625,0,0
9.38751497869816E-07,-1.36200733322767E-05,1.40625,0,0
1.05160495422751E-06,-1.46887714436161E-05,1.40625,0,0
-5.67020720154687E-07,-1.71398369275266E-05,1.40625,0,0
-1.5619983741999E-06,-2.20953406824265E-05,1.40625,0,0
-1.48965705193405E-06,-2.59383505181177E-05,1.40625,0,0
-2.15531258618284E-06,-2.6705454729381E-05,1.40625,0,0
-2.43629983742721E-06,-2.54920869338093E-05,1.40625,0,0
-8.7847149643494E-07,-2.12516333704116E-05,1.40625,0,0
9.16403621431527E-07,-2.06116546905832E-05,1.40625,0,0
1.98771590476099E-06,-2.207087163697E-05,1.40625,0,0
1.59287003498321E-06,-2.46523213718319E-05,1.40625,0,0
1.13940188839479E-06,-2.26576194108929E-05,1.40625,0,0
4.81631388993264E-07,-2.1222291252343E-05,1.40625,0,0
-2.53213187306756E-07,-1.96797063836129E-05,1.40625,0,0
-3.07942144672779E-07,-1.98602938326076E-05,1.40625,0,0
8.99003850918234E-07,-1.85579447133932E-05,1.40625,0,0
1.36050527999032E-06,-1.755360608513E-05,1.40625,0,0
5.90409968026506E-07,-1.70885305124102E-05,1.40625,0,0
-9.19073954719352E-07,-1.73062635440147E-05,1.40625,0,0
-1.5272916016329E-06,-1.60208201123169E-05,1.40625,0,0
-1.19626304240228E-06,-1.52570737554925E-05,1.40625,0,0
-9.55969539973012E-07,-1.19913847811404E-05,1.40625,0,0
-1.35142556700885E-06,-1.64930952450959E-05,1.40625,0,0
-1.49911500102462E-07,-1.28581532408134E-05,1.40625,0,0
2.46815670834621E-06,-1.70970906765433E-05,1.40625,0,0
4.27843178840703E-06,-1.50609157572035E-05,1.40625,0,0
3.12854194817191E-06,-1.76402627403149E-05,1.40625,0,0
2.97061865239812E-06,-1.74110427906271E-05,1.40625,0,0
3.44340401170484E-06,-1.72062354977243E-05,1.40625,0,0
4.76558125228621E-06,-1.31650267576333E-05,1.40625,0,0
6.72498708809144E-06,-1.03644188129692E-05,1.40625,0,0
8.66310983838048E-06,-9.88584088190692E-06,1.40625,0,0
9.8880891528097E-06,-1.02437461464433E-05,1.40625,0,0
9.61362820817158E-06,-1.05472272480256E-05,1.40625,0,0
9.38292851060396E-06,-8.60875297803432E-06,1.40625,0,0
8.92316347744782E-06,-9.38212451728759E-06,1.40625,0,0
8.25116694613826E-06,-9.28682220546762E-06,1.40625,0,0
7.37748769097379E-06,-9.83056725090137E-06,1.40625,0,0
6.92908270139014E-06,-9.40987229114398E-06,1.40625,0,0
6.78085098115844E-06,-1.21027160275844E-05,1.40625,0,0
7.55820701670018E-06,-1.40763904710184E-05,1.40625,0,0
8.08084496384254E-06,-1.40630118039553E-05,1.40625,0,0
6.71775296723354E-06,-1.09828906715848E-05,1.40625,0,0
4.46589365310501E-06,-9.66840252658585E-06,1.40625,0,0
4.09931408285047E-06,-1.08597096186713E-05,1.40625,0,0
6.40277630736819E-06,-1.69742961588781E-05,1.40625,0,0
8.20041896076873E-06,-2.37915992329363E-05,1.40625,0,0
8.10058918432333E-06,-2.47497773671057E-05,1.40625,0,0
5.96871404923149E-06,-1.70177318068454E-05,1.40625,0,0
7.22063214197988E-06,-2.10339021577965E-05,1.40625,0,0
3.04245577353868E-06,-1.08177109723329E-05,1.40625,0,0
3.48424032381445E-06,-1.62841170094907E-05,1.40625,0,0
7.46304294807487E-07,-1.70132188941352E-05,1.40625,0,0
5.53028939975775E-07,-2.23658680624794E-05,1.40625,0,0
9.33276226078306E-07,-2.11446767934831E-05,1.40625,0,0
3.22782329931215E-06,-2.2091078790254E-05,1.40625,0,0
2.98296959044819E-06,-2.05559426831314E-05,1.40625,0,0
1.69847623965325E-06,-1.83691099664429E-05,1.40625,0,0
1.68489225416124E-06,-1.66092377185123E-05,1.40625,0,0
1.83459656000196E-06,-1.46993097587256E-05,1.40625,0,0
2.05185483537207E-06,-1.5065775187395E-05,1.40625,0,0
1.36618461965554E-06,-1.526619962533E-05,1.40625,0,0
1.28183739889209E-06,-1.76981502590934E-05,1.40625,0,0
2.16181956602668E-06,-1.74740871443646E-05,1.40625,0,0
4.30003046858474E-06,-1.86503511940828E-05,1.40625,0,0
4.65856101072859E-06,-1.83136926352745E-05,1.40625,0,0
5.22161872140714E-06,-1.97073786694091E-05,1.40625,0,0
5.92360265727621E-06,-1.93741507246159E-05,1.40625,0,0
6.56334168525063E-06,-1.99817386601353E-05,1.40625,0,0
5.81081303607789E-06,-1.94224248843966E-05,1.40625,0,0
5.92366950513679E-06,-2.06033109861892E-05,1.40625,0,0
5.6993444559339E-06,-2.30293153435923E-05,1.40625,0,0
4.81772440252826E-06,-2.72374472842785E-05,1.40625,0,0
4.03604553866899E-06,-2.82893743133172E-05,1.40625,0,0
4.60333967566839E-06,-2.43711019720649E-05,1.40625,0,0
4.22966058977181E-06,-1.55377711053006E-05,1.40625,0,0
4.67347808807972E-06,-2.19144349102862E-05,1.40625,0,0
1.15635600650421E-06,-1.71416068042163E-05,1.40625,0,0
1.18879347610346E-06,-2.20086749322945E-05,1.40625,0,0
3.29291822254163E-07,-1.95584707398666E-05,1.40625,0,0
2.27304917643778E-06,-2.29545512411278E-05,1.40625,0,0
3.0891649203113E-06,-2.15347627090523E-05,1.40625,0,0
3.50737968801695E-06,-2.05527339858236E-05,1.40625,0,0
3.42141879627889E-06,-1.79219769051997E-05,1.40625,0,0
3.42203634318139E-06,-1.78720201802207E-05,1.40625,0,0
3.57625526703487E-06,-2.02305982384132E-05,1.40625,0,0
3.70239717994991E-06,-2.11800052056788E-05,1.40625,0,0
4.33840841651545E-06,-1.94879194168607E-05,1.40625,0,0
4.37336166214664E-06,-1.47811661008745E-05,1.40625,0,0
3.53613177139778E-06,-1.28483816297376E-05,1.40625,0,0
1.61420302902116E-06,-1.09786769826314E-05,1.40625,0,0
9.19986689496E-07,-1.16204873847892E-05,1.40625,0,0
6.02674333549658E-07,-1.13963606054313E-05,1.40625,0,0
1.3023689007241E-06,-1.30113339764648E-05,1.40625,0,0
2.39909354604606E-06,-1.22503643069649E-05,1.40625,0,0
3.80069695893326E-06,-1.26466602523578E-05,1.40625,0,0
3.15443003273685E-06,-1.28325364130433E-05,1.40625,0,0
1.28585941183701E-06,-1.41356213134713E-05,1.40625,0,0
-5.70845202219061E-07,-1.4553265827999E-05,1.40625,0,0
-1.28834130919131E-06,-1.55792386067333E-05,1.40625,0,0
-2.13697930462331E-07,-1.68703936651582E-05,1.40625,0,0
1.20273557513428E-06,-1.66939880728023E-05,1.40625,0,0
4.23234183699606E-07,-1.29561603898765E-05,1.40625,0,0
9.61508249019971E-07,-1.88870326383039E-05,1.40625,0,0
2.41923066823801E-06,-1.53041874000337E-05,1.40625,0,0
4.27896520704962E-06,-2.02291885216255E-05,1.40625,0,0
4.32339993494679E-06,-1.86566430784296E-05,1.40625,0,0
2.24588916353241E-06,-1.87172372534405E-05,1.40625,0,0
9.32270893372333E-07,-1.55153484229231E-05,1.40625,0,0
1.43527688578615E-06,-1.51605290739099E-05,1.40625,0,0
2.03008153221163E-06,-1.46859110827791E-05,1.40625,0,0
3.14899102704658E-06,-1.64691773534287E-05,1.40625,0,0
3.68024529961986E-06,-1.93220075743739E-05,1.40625,0,0
3.78872800865793E-06,-2.07214307010872E-05,1.40625,0,0
3.695939994941E-06,-2.25666080950759E-05,1.40625,0,0
2.96903158414352E-06,-2.30158784688683E-05,1.40625,0,0
1.92715833691182E-06,-2.31826925300993E-05,1.40625,0,0
1.94187646229693E-06,-1.99529440578772E-05,1.40625,0,0
2.41838006331818E-06,-1.86740107892547E-05,1.40625,0,0
1.77566755610314E-06,-1.774823613232E-05,1.40625,0,0
1.20405832149117E-06,-1.7606862456887E-05,1.40625,0,0
2.09570453080232E-06,-1.60443523782305E-05,1.40625,0,0
3.43890133081004E-06,-1.64334105647868E-05,1.40625,0,0
3.41505369760853E-06,-1.64865832630312E-05,1.40625,0,0
4.40423582404037E-06,-1.65196615853347E-05,1.40625,0,0
6.43239491182612E-06,-1.61526586452965E-05,1.40625,0,0
7.13868303137133E-06,-1.55294801515993E-05,1.40625,0,0
7.09355617800611E-06,-1.36545113491593E-05,1.40625,0,0
6.71879797664587E-06,-1.2918376341986E-05,1.40625,0,0
4.07760762755061E-06,-1.10465589386877E-05,1.40625,0,0
4.49700701210531E-06,-1.57871545525268E-05,1.40625,0,0
2.88942828774452E-06,-1.21565126391943E-05,1.40625,0,0
5.55267070012633E-06,-1.65808087331243E-05,1.40625,0,0
5.74150908505544E-06,-1.55018824443687E-05,1.40625,0,0
6.61907006360707E-06,-1.52148450069944E-05,1.40625,0,0
4.34023240813985E-06,-1.19367568913731E-05,1.40625,0,0
3.29298313772597E-06,-1.25216502055991E-05,1.40625,0,0
2.61981335825112E-06,-1.50223058881238E-05,1.40625,0,0
2.2072538286011E-06,-1.71041556313867E-05,1.40625,0,0
1.47408525208448E-06,-1.72333984664874E-05,1.40625,0,0
5.49558649254323E-07,-1.6403260815423E-05,1.40625,0,0
1.93545224647096E-06,-1.67156376846833E-05,1.40625,0,0
3.91356934414944E-06,-1.60106501425616E-05,1.40625,0,0
4.77946150567732E-06,-1.6426636648248E-05,1.40625,0,0
3.36549874191405E-06,-1.54392146214377E-05,1.40625,0,0
2.57926672020403E-06,-1.54386762005743E-05,1.40625,0,0
2.09031941267313E-06,-1.51084095705301E-05,1.40625,0,0
2.87808893517649E-06,-1.70452713064151E-05,1.40625,0,0
4.29195824835915E-06,-1.84252239705529E-05,1.40625,0,0
6.77620982969529E-06,-1.86073484655935E-05,1.40625,0,0
7.58717942517251E-06,-1.59586252266308E-05,1.40625,0,0
6.43360635876888E-06,-1.41768514367868E-05,1.40625,0,0
3.58181819137826E-06,-1.45317690112279E-05,1.40625,0,0
2.0030229279655E-06,-1.68558362929616E-05,1.40625,0,0
1.79489643414854E-06,-1.93862397281919E-05,1.40625,0,0
6.87031104007474E-07,-1.98192064999603E-05,1.40625,0,0
-1.48628600982192E-06,-1.42889311973704E-05,1.40625,0,0
-2.00619274437486E-06,-1.91430572158424E-05,1.40625,0,0
1.48589674608957E-06,-1.31276556203375E-05,1.40625,0,0
3.67815437130048E-06,-1.82082440005615E-05,1.40625,0,0
2.89080617221771E-06,-1.73692733369535E-05,1.40625,0,0
1.63646870987577E-06,-1.95603170141112E-05,1.40625,0,0
1.95713641915063E-06,-1.73548978636973E-05,1.40625,0,0
2.44514490077563E-06,-1.94875865417998E-05,1.40625,0,0
5.43386761364673E-07,-2.00263475562679E-05,1.40625,0,0
-1.21808784570021E-06,-1.89683250937378E-05,1.40625,0,0
-9.49032497032931E-08,-1.75503573700553E-05,1.40625,0,0
1.86048077921441E-06,-1.63810855156044E-05,1.40625,0,0
3.11324379254074E-06,-1.65975870913826E-05,1.40625,0,0
3.86988949685474E-06,-1.70468592841644E-05,1.40625,0,0
2.86829003925959E-06,-2.01855709747178E-05,1.40625,0,0
3.74572579175947E-07,-2.02951687242603E-05,1.40625,0,0
-1.34544677621307E-06,-2.00435897568241E-05,1.40625,0,0
-1.0356969823988E-06,-1.83297888725065E-05,1.40625,0,0
-2.18306595911599E-07,-1.88666472240584E-05,1.40625,0,0
5.79872676098603E-07,-1.81414343387587E-05,1.40625,0,0
1.0807212902364E-06,-1.840321419877E-05,1.40625,0,0
6.8139434006298E-07,-1.8624632502906E-05,1.40625,0,0
6.41139536128321E-07,-2.12299928534776E-05,1.40625,0,0
1.43784939155012E-06,-2.17358719964977E-05,1.40625,0,0
1.90685898360243E-06,-2.02837036340497E-05,1.40625,0,0
1.80257177362364E-06,-1.74236956809182E-05,1.40625,0,0
-5.25559187281033E-08,-1.50621926877648E-05,1.40625,0,0
-2.30275577450811E-06,-1.21338907774771E-05,1.40625,0,0
-3.30071725329617E-06,-1.66784520843066E-05,1.40625,0,0
-8.52190851219348E-07,-1.08638787423843E-05,1.40625,0,0
5.36724201083416E-07,-1.34566425913363E-05,1.40625,0,0
3.7658782048311E-07,-1.20653585327091E-05,1.40625,0,0
-5.30743989202165E-07,-1.40868851303821E-05,1.40625,0,0
4.70991636802864E-07,-1.30828975670738E-05,1.40625,0,0
1.23920403893862E-06,-1.38557206810219E-05,1.40625,0,0
1.46326192407287E-06,-1.40816446219105E-05,1.40625,0,0
1.38756774958892E-06,-1.57029826368671E-05,1.40625,0,0
2.06574441108387E-06,-1.82631010829937E-05,1.40625,0,0
2.60006640928623E-06,-2.06668082682882E-05,1.40625,0,0
3.28596570398076E-06,-2.20721594814677E-05,1.40625,0,0
4.39786981587531E-06,-1.86425440915627E-05,1.40625,0,0
4.57321675639832E-06,-1.45547910506139E-05,1.40625,0,0
3.58015995516325E-06,-1.10272976598935E-05,1.40625,0,0
2.92237677967933E-06,-1.15197090053698E-05,1.40625,0,0
4.59929015050875E-06,-1.14995773401461E-05,1.40625,0,0
6.59309034745093E-06,-1.27420162243652E-05,1.40625,0,0
7.26623920854763E-06,-1.3317999218998E-05,1.40625,0,0
5.14162684339681E-06,-1.47451164593804E-05,1.40625,0,0
2.51038682108629E-06,-1.42736571433488E-05,1.40625,0,0
1.99498822439637E-06,-1.28065066746785E-05,1.40625,0,0
2.86751173916855E-06,-1.21406828839099E-05,1.40625,0,0
2.84433485830959E-06,-1.49636725836899E-05,1.40625,0,0
2.88779074253398E-06,-1.70158473338233E-05,1.40625,0,0
3.27696807289612E-06,-1.58412003656849E-05,1.40625,0,0
2.98026452583144E-06,-1.2125477041991E-05,1.40625,0,0
4.00934641220374E-06,-1.90563750948058E-05,1.40625,0,0
2.97485985356616E-06,-2.01078928512288E-05,1.40625,0,0
3.45593139172706E-06,-2.70295822701883E-05,1.40625,0,0
1.64886705533718E-06,-2.39088349189842E-05,1.40625,0,0
1.29068951082445E-06,-2.38797329075169E-05,1.40625,0,0
4.47744582743326E-07,-2.15989930438809E-05,1.40625,0,0
1.60140336902259E-06,-2.17580691241892E-05,1.40625,0,0
2.34715503211191E-06,-2.21761001739651E-05,1.40625,0,0
1.81735708792985E-06,-2.42230762523832E-05,1.40625,0,0
7.08728407516901E-07,-2.53446178248851E-05,1.40625,0,0
-1.25501685488416E-06,-2.4527305868105E-05,1.40625,0,0
-1.78918764959235E-06,-2.42465521296253E-05,1.40625,0,0
-1.03679258245393E-06,-2.28920889639994E-05,1.40625,0,0
-3.5369811257624E-07,-2.29772886086721E-05,1.40625,0,0
-1.62794719926751E-06,-2.15645413845778E-05,1.40625,0,0
-3.10945324599743E-06,-2.03466534003383E-05,1.40625,0,0
-3.42982389156532E-06,-1.67012112797238E-05,1.40625,0,0
-1.42704880090605E-06,-1.52400607476011E-05,1.40625,0,0
4.12681458783482E-07,-1.48173630805104E-05,1.40625,0,0
2.29071201829356E-06,-1.73505359271076E-05,1.40625,0,0
3.86013834940968E-06,-1.90928221854847E-05,1.40625,0,0
4.30603586210054E-06,-2.06733238883317E-05,1.40625,0,0
3.8091945953056E-06,-2.10349826375023E-05,1.40625,0,0
2.97107931146456E-06,-2.02835853997385E-05,1.40625,0,0
1.81386224085145E-06,-1.89425027201651E-05,1.40625,0,0
1.41646899010084E-06,-1.851349043136E-05,1.40625,0,0
2.04462389774562E-06,-1.45560770761222E-05,1.40625,0,0
4.08373944082996E-06,-2.05872547667241E-05,1.40625,0,0
4.31233183917357E-06,-1.53242217493244E-05,1.40625,0,0
4.54390465165488E-06,-1.97370463865809E-05,1.40625,0,0
3.66458789358148E-06,-1.72550408024108E-05,1.40625,0,0
3.63681033377361E-06,-1.84052205440821E-05,1.40625,0,0
4.141547378822E-06,-1.63566965056816E-05,1.40625,0,0
4.89218837174121E-06,-1.78356749529485E-05,1.40625,0,0
5.8243858802598E-06,-1.71073770616204E-05,1.40625,0,0
6.30825479674968E-06,-1.549638909637E-05,1.40625,0,0
5.95761821386986E-06,-1.38786954266834E-05,1.40625,0,0
5.01669455843512E-06,-1.24013522508903E-05,1.40625,0,0
5.16199679623242E-06,-1.32873974507675E-05,1.40625,0,0
6.70028884997009E-06,-1.35050140670501E-05,1.40625,0,0
7.69394500821363E-06,-1.39291178129497E-05,1.40625,0,0
6.78464948578039E-06,-1.22604678836069E-05,1.40625,0,0
5.71100781598943E-06,-1.41340324262273E-05,1.40625,0,0
5.39396387466695E-06,-1.58300590555882E-05,1.40625,0,0
4.89744070364395E-06,-1.80016195372446E-05,1.40625,0,0
4.03317608288489E-06,-1.68416518135928E-05,1.40625,0,0
4.66861501990934E-06,-1.52030879689846E-05,1.40625,0,0
6.0657762332994E-06,-1.32651093736058E-05,1.40625,0,0
5.82518623559736E-06,-1.47095352076576E-05,1.40625,0,0
3.90031391361845E-06,-1.60329964273842E-05,1.40625,0,0
2.68200665232143E-06,-1.74211600096896E-05,1.40625,0,0
2.53382904702448E-06,-2.01173115783604E-05,1.40625,0,0
2.50404718826758E-06,-2.22276066779159E-05,1.40625,0,0
1.62835351602553E-06,-1.76903922692873E-05,1.58203125,0,0
3.11799431074178E-06,-2.35871739278082E-05,1.58203125,0,0
4.17269939134712E-06,-1.49773977682344E-05,1.58203125,0,0
6.57574992146692E-06,-1.75449840753572E-05,1.58203125,0,0
6.66277810523752E-06,-1.22916517284466E-05,1.58203125,0,0
4.60188766737701E-06,-1.43562374432804E-05,1.58203125,0,0
3.27981342707062E-06,-1.2656007129408E-05,1.58203125,0,0
4.79672416986432E-06,-1.41613754749415E-05,1.58203125,0,0
6.06932144364691E-06,-1.34900792545523E-05,1.58203125,0,0
7.09878804627806E-06,-1.38194327519159E-05,1.58203125,0,0
7.96039512351854E-06,-1.62284304678906E-05,1.58203125,0,0
7.8416715041385E-06,-1.89850743481657E-05,1.58203125,0,0
7.69022426538868E-06,-2.06150834856089E-05,1.58203125,0,0
7.08599327481352E-06,-1.76559788087616E-05,1.58203125,0,0
6.33364834357053E-06,-1.60280160343973E-05,1.58203125,0,0
5.7852225836541E-06,-1.39010198836331E-05,1.58203125,0,0
5.79450716031715E-06,-1.53459459397709E-05,1.58203125,0,0
5.63635921935202E-06,-1.46564007081906E-05,1.58203125,0,0
5.73049965169048E-06,-1.45253325172234E-05,1.58203125,0,0
7.18466390026151E-06,-1.22359369925107E-05,1.58203125,0,0
8.76234207680682E-06,-1.1928343155887E-05,1.58203125,0,0
7.98205473984126E-06,-1.18386778922286E-05,1.58203125,0,0
5.51179073227104E-06,-1.37066872412106E-05,1.58203125,0,0
2.8179185846966E-06,-1.35282953124261E-05,1.58203125,0,0
1.17256399789767E-06,-1.36514072437421E-05,1.58203125,0,0
2.39942835378315E-07,-1.39365920404089E-05,1.58203125,0,0
-4.37746301429343E-08,-1.4484016901406E-05,1.58203125,0,0
2.59046606387869E-09,-1.33705043481314E-05,1.58203125,0,0
-7.91740546901565E-07,-1.93289724848E-05,1.58203125,0,0
-2.53445182352152E-06,-1.55637917487184E-05,1.58203125,0,0
-3.58362512997701E-06,-1.85562294063857E-05,1.58203125,0,0
-3.80468213734275E-06,-1.43845791171771E-05,1.58203125,0,0
-3.88057469535852E-06,-1.42581075124326E-05,1.58203125,0,0
-3.52624260813172E-06,-1.1045307473978E-05,1.58203125,0,0
-2.62233265857503E-06,-1.15385391836753E-05,1.58203125,0,0
-1.36096628011728E-06,-1.08844233182026E-05,1.58203125,0,0
-1.35869356654439E-06,-9.8904001788469E-06,1.58203125,0,0
-3.11035410049954E-06,-1.028378301271E-05,1.58203125,0,0
-4.20876131101977E-06,-1.10478076749132E-05,1.58203125,0,0
-3.27640509567573E-06,-1.3482843314705E-05,1.58203125,0,0
-2.18776790461561E-06,-1.5132465705392E-05,1.58203125,0,0
-2.63648144027684E-06,-1.73018852365203E-05,1.58203125,0,0
-3.51641961060523E-06,-1.6055979358498E-05,1.58203125,0,0
-4.02725436288165E-06,-1.54463050421327E-05,1.58203125,0,0
-3.68204177902953E-06,-1.41665050250595E-05,1.58203125,0,0
-1.42524140755995E-06,-1.52621305460343E-05,1.58203125,0,0
1.69823567830463E-06,-1.5044131941977E-05,1.58203125,0,0
4.01433862862177E-06,-1.53261062223464E-05,1.58203125,0,0
5.53868176211836E-06,-1.42716799018672E-05,1.58203125,0,0
7.14524276190787E-06,-1.35728514578659E-05,1.58203125,0,0
8.17156706034439E-06,-1.40375332193798E-05,1.58203125,0,0
8.36166600493016E-06,-1.67323705682065E-05,1.58203125,0,0
7.74348609411391E-06,-1.8581824406283E-05,1.58203125,0,0
6.81165147398133E-06,-1.89404509001179E-05,1.58203125,0,0
7.47138801671099E-06,-1.63436870934675E-05,1.58203125,0,0
1.38150517159374E-05,-2.40037861658493E-05,1.58203125,0,0
1.28049014165299E-05,-1.92313473235117E-05,1.58203125,0,0
1.20719696496963E-05,-2.44582261075266E-05,1.58203125,0,0
7.84101757744793E-06,-2.14293904718943E-05,1.58203125,0,0
5.48973184777424E-06,-2.13994517253013E-05,1.58203125,0,0
4.37621110904729E-06,-1.67616053659003E-05,1.58203125,0,0
6.01192414251273E-06,-1.48618364619324E-05,1.58203125,0,0
6.24273570792866E-06,-1.30349953906261E-05,1.58203125,0,0
5.90802301303484E-06,-1.37904444272863E-05,1.58203125,0,0
6.02003819949459E-06,-1.54505469254218E-05,1.58203125,0,0
6.13024531048723E-06,-1.57179274538066E-05,1.58203125,0,0
6.47247543383855E-06,-1.65038163686404E-05,1.58203125,0,0
6.41586348137935E-06,-1.51092863234226E-05,1.58203125,0,0
6.81993242324097E-06,-1.49162888192222E-05,1.58203125,0,0
6.54445693726302E-06,-1.4330975318444E-05,1.58203125,0,0
6.27101462669089E-06,-1.79637736437144E-05,1.58203125,0,0
5.72396857023705E-06,-1.99320911633549E-05,1.58203125,0,0
6.96015831636032E-06,-2.06099284696393E-05,1.58203125,0,0
7.41399662729236E-06,-1.76186003955081E-05,1.58203125,0,0
6.57993405184243E-06,-1.61753341672011E-05,1.58203125,0,0
5.58827423446928E-06,-1.53704331751214E-05,1.58203125,0,0
6.34009074929054E-06,-1.55941070261179E-05,1.58203125,0,0
5.96342761127744E-06,-1.5210921446851E-05,1.58203125,0,0
4.05341097575729E-06,-1.56683727254858E-05,1.58203125,0,0
2.67200721282279E-06,-1.61495081556495E-05,1.58203125,0,0
1.34721165068186E-06,-1.73918706423137E-05,1.58203125,0,0
2.46515750035314E-08,-1.757925383572E-05,1.58203125,0,0
-6.83356347508379E-07,-2.59955413639545E-05,1.58203125,0,0
-8.0149635550697E-07,-1.95633729163092E-05,1.58203125,0,0
7.49760147300549E-07,-2.29829220188549E-05,1.58203125,0,0
1.7866362895802E-06,-2.06581644306425E-05,1.58203125,0,0
7.89248019827937E-07,-2.44677939917892E-05,1.58203125,0,0
2.52510488962798E-07,-2.50677494477713E-05,1.58203125,0,0
2.319678742424E-06,-2.76820210274309E-05,1.58203125,0,0
5.02668672197615E-06,-2.71854787570192E-05,1.58203125,0,0
5.50165714230388E-06,-2.58344425674295E-05,1.58203125,0,0
3.8970310924924E-06,-2.37907042901497E-05,1.58203125,0,0
1.33701712456968E-06,-2.17384585994296E-05,1.58203125,0,0
8.36142319826649E-08,-2.25257826969028E-05,1.58203125,0,0
7.97640268501709E-07,-2.15540767385392E-05,1.58203125,0,0
1.66759696185181E-06,-2.06718759727664E-05,1.58203125,0,0
1.50608195781388E-06,-1.77607289515436E-05,1.58203125,0,0
9.61904561336269E-07,-1.81006707862252E-05,1.58203125,0,0
5.80467030886211E-07,-1.74416545632994E-05,1.58203125,0,0
7.29219664208358E-07,-1.84476975846337E-05,1.58203125,0,0
8.89058412667509E-07,-1.79570652107941E-05,1.58203125,0,0
5.07904530877568E-07,-1.81034611159703E-05,1.58203125,0,0
3.21353326171447E-07,-1.71496321854647E-05,1.58203125,0,0
3.20200257419856E-07,-1.68042242876254E-05,1.58203125,0,0
1.01757166248717E-07,-1.67575690284139E-05,1.58203125,0,0
-5.17301089075772E-07,-1.97589324670844E-05,1.58203125,0,0
-1.44126966006297E-06,-2.06838176382007E-05,1.58203125,0,0
-1.86709212357528E-06,-1.87898185686208E-05,1.58203125,0,0
-1.49278389471874E-06,-1.45833764690906E-05,1.58203125,0,0
-2.65961421064276E-06,-2.13485927815782E-05,1.58203125,0,0
-3.64641755368211E-06,-1.68764199770521E-05,1.58203125,0,0
-4.87384022562765E-06,-1.91100825759349E-05,1.58203125,0,0
-3.70082307199482E-06,-1.53044202306774E-05,1.58203125,0,0
-2.31716080634214E-06,-1.84903874469455E-05,1.58203125,0,0
-4.55211676353429E-07,-1.81684208655497E-05,1.58203125,0,0
9.24967537230259E-07,-1.87998539331602E-05,1.58203125,0,0
1.67332132150477E-06,-1.65819710673532E-05,1.58203125,0,0
1.28736473925528E-06,-1.65129968081601E-05,1.58203125,0,0
2.10938182476639E-07,-1.76211560756201E-05,1.58203125,0,0
-1.15481475404522E-06,-1.68249462149106E-05,1.58203125,0,0
-2.18185573430674E-06,-1.71283627423691E-05,1.58203125,0,0
-2.76086620942806E-06,-1.71223055076553E-05,1.58203125,0,0
-3.95122879126575E-06,-1.84297732630512E-05,1.58203125,0,0
-5.12944370711921E-06,-1.78507580130827E-05,1.58203125,0,0
-4.48979972134111E-06,-2.05554297281196E-05,1.58203125,0,0
-1.37656297738431E-06,-2.19241337617859E-05,1.58203125,0,0
8.23837922325765E-07,-2.28983844863251E-05,1.58203125,0,0
1.08049493974249E-06,-2.11511069210246E-05,1.58203125,0,0
7.86882480952045E-07,-2.00045833480544E-05,1.58203125,0,0
2.01893885787285E-06,-1.84838991117431E-05,1.58203125,0,0
3.64481093129143E-06,-1.94808108062716E-05,1.58203125,0,0
5.09351229993626E-06,-2.02886003535241E-05,1.58203125,0,0
7.53930271457648E-06,-1.99105925275944E-05,1.58203125,0,0
1.04982536868192E-05,-1.78615428012563E-05,1.58203125,0,0
1.27244993564091E-05,-1.71032133948756E-05,1.58203125,0,0
9.62842477747472E-06,-1.32046097860439E-05,1.58203125,0,0
1.14113918243675E-05,-1.6669317119522E-05,1.58203125,0,0
4.71955945613445E-06,-9.73106671153801E-06,1.58203125,0,0
6.13017436990049E-06,-1.41224672915996E-05,1.58203125,0,0
4.67497557110619E-06,-1.29538611872704E-05,1.58203125,0,0
7.64180276746629E-06,-1.56275418703444E-05,1.58203125,0,0
4.63157675767434E-06,-1.52678840095177E-05,1.58203125,0,0
2.25865414904547E-06,-1.67687776411185E-05,1.58203125,0,0
1.47680475492962E-06,-1.61912503244821E-05,1.58203125,0,0
2.93926791528065E-06,-1.62655996973626E-05,1.58203125,0,0
4.37786411566776E-06,-1.65130095410859E-05,1.58203125,0,0
3.99640521209221E-06,-1.62108954100404E-05,1.58203125,0,0
4.25655298386118E-06,-1.59215051098727E-05,1.58203125,0,0
3.64168295163836E-06,-1.40390266096801E-05,1.58203125,0,0
3.4222325666633E-06,-1.40159700094955E-05,1.58203125,0,0
2.06865502150322E-06,-1.2635229722946E-05,1.58203125,0,0
2.0703523659904E-06,-1.40404081321321E-05,1.58203125,0,0
1.36850360377139E-06,-1.46309557749191E-05,1.58203125,0,0
2.43021509049868E-06,-1.52541560964892E-05,1.58203125,0,0
2.1468742943398E-06,-1.39745852720807E-05,1.58203125,0,0
1.79057133209426E-06,-1.50931500684237E-05,1.58203125,0,0
6.81255187373608E-07,-1.52335251186742E-05,1.58203125,0,0
-7.67603353324375E-07,-1.56484038598137E-05,1.58203125,0,0
-2.39975634030998E-06,-1.55507204908645E-05,1.58203125,0,0
-1.06594018234318E-06,-1.54244862642372E-05,1.58203125,0,0
1.61980051416322E-06,-1.63614240591414E-05,1.58203125,0,0
3.05057687910448E-06,-1.79844009835506E-05,1.58203125,0,0
3.5706698326976E-06,-1.38823133966071E-05,1.58203125,0,0
5.26161875313846E-06,-1.80341867235256E-05,1.58203125,0,0
4.37673406850081E-06,-1.10386054075207E-05,1.58203125,0,0
5.34908576810267E-06,-1.42771914397599E-05,1.58203125,0,0
4.793304924533E-06,-1.21791708806995E-05,1.58203125,0,0
5.53199515707092E-06,-1.59718456416158E-05,1.58203125,0,0
5.69912572245812E-06,-1.73465468833456E-05,1.58203125,0,0
5.7052952797676E-06,-2.01610437216004E-05,1.58203125,0,0
4.75636807095725E-06,-1.85083463293267E-05,1.58203125,0,0
3.65152345693787E-06,-1.70697003341047E-05,1.58203125,0,0
3.51231597051083E-06,-1.592209264345E-05,1.58203125,0,0
3.20320145874575E-06,-1.33337671286426E-05,1.58203125,0,0
2.87487387140573E-06,-1.23614227049984E-05,1.58203125,0,0
2.6431150672579E-06,-1.18629268399673E-05,1.58203125,0,0
2.90539651359722E-06,-1.39730955197592E-05,1.58203125,0,0
2.14743340620771E-06,-1.48336011989159E-05,1.58203125,0,0
1.16053161036689E-06,-1.64672037499258E-05,1.58203125,0,0
-4.63622711777134E-07,-1.4600132999476E-05,1.58203125,0,0
-8.88257716269436E-07,-1.42051612783689E-05,1.58203125,0,0
-8.30623250180906E-08,-1.44840896609821E-05,1.58203125,0,0
8.85867507349758E-07,-1.66672198247397E-05,1.58203125,0,0
-2.11521211213039E-07,-1.65315050253412E-05,1.58203125,0,0
-1.99274700207752E-06,-1.46868060255656E-05,1.58203125,0,0
-2.32820411838475E-06,-1.26145987451309E-05,1.58203125,0,0
-7.89392743172357E-07,-1.33329667733051E-05,1.58203125,0,0
2.09033237297263E-06,-1.47802147694165E-05,1.58203125,0,0
4.78384617963457E-06,-1.71129122463753E-05,1.58203125,0,0
3.66588574252091E-06,-1.54025201482E-05,1.58203125,0,0
4.44766146756592E-06,-2.13216426345753E-05,1.58203125,0,0
3.20369031214796E-06,-1.59233932208736E-05,1.58203125,0,0
4.39428367826622E-06,-2.02460269065341E-05,1.58203125,0,0
1.91334765986539E-06,-1.70055918715661E-05,1.58203125,0,0
1.13650855837477E-06,-1.92242114280816E-05,1.58203125,0,0
2.79931327895611E-07,-1.8334767446504E-05,1.58203125,0,0
1.44998921314254E-06,-1.99047135538422E-05,1.58203125,0,0
3.69174972547626E-06,-1.89222646440612E-05,1.58203125,0,0
6.22987954557175E-06,-1.79873386514373E-05,1.58203125,0,0
6.14323562331265E-06,-1.8934884792543E-05,1.58203125,0,0
3.94999233321869E-06,-2.15060390473809E-05,1.58203125,0,0
3.03183696814813E-06,-2.54303577094106E-05,1.58203125,0,0
3.5415796446614E-06,-2.489358666935E-05,1.58203125,0,0
4.24389372710721E-06,-2.20401652768487E-05,1.58203125,0,0
2.831935944414E-06,-1.71012507053092E-05,1.58203125,0,0
2.10821031032538E-06,-1.69354152603773E-05,1.58203125,0,0
2.78639436146477E-06,-1.7388914784533E-05,1.58203125,0,0
5.04553827340715E-06,-1.87559562618844E-05,1.58203125,0,0
5.70833708479768E-06,-1.78175287146587E-05,1.58203125,0,0
4.95346921525197E-06,-1.82128696906148E-05,1.58203125,0,0
3.6893632113788E-06,-1.69774339155992E-05,1.58203125,0,0
3.10288942273473E-06,-1.63106342370156E-05,1.58203125,0,0
2.79232608590974E-06,-1.50828018377069E-05,1.58203125,0,0
3.01707063954382E-06,-1.50000887515489E-05,1.58203125,0,0
4.06292065235903E-06,-1.54981371451868E-05,1.58203125,0,0
5.63284766030847E-06,-1.50712894537719E-05,1.58203125,0,0
3.94867356590112E-06,-1.07726900751004E-05,1.58203125,0,0
3.77069773094263E-06,-1.43507568282075E-05,1.58203125,0,0
2.11127166949154E-06,-1.09638222056674E-05,1.58203125,0,0
6.4105797719094E-06,-1.58406928676413E-05,1.58203125,0,0
7.83624000177952E-06,-1.50034566104296E-05,1.58203125,0,0
7.97022039478179E-06,-1.70163039001636E-05,1.58203125,0,0
5.39108623343054E-06,-1.69678278325591E-05,1.58203125,0,0
5.23902235727292E-06,-2.06638305826345E-05,1.58203125,0,0
5.57065732209594E-06,-2.26243955694372E-05,1.58203125,0,0
5.95969868300017E-06,-2.31093490583589E-05,1.58203125,0,0
5.67586130273412E-06,-2.21801947191125E-05,1.58203125,0,0
4.59656530438224E-06,-1.95151660591364E-05,1.58203125,0,0
4.85600548927323E-06,-1.82572675839765E-05,1.58203125,0,0
5.44015119885444E-06,-1.75354034581687E-05,1.58203125,0,0
5.36290963282227E-06,-1.82422609213972E-05,1.58203125,0,0
3.66432686860207E-06,-1.70185103343101E-05,1.58203125,0,0
3.67538063983375E-06,-1.63308304763632E-05,1.58203125,0,0
5.07330969412578E-06,-1.36922089950531E-05,1.58203125,0,0
6.90248361934209E-06,-1.25613723866991E-05,1.58203125,0,0
6.27053532298305E-06,-1.1165766409249E-05,1.58203125,0,0
6.05353807259235E-06,-1.18176312753349E-05,1.58203125,0,0
6.14365308138076E-06,-1.4055455721973E-05,1.58203125,0,0
4.98206418342306E-06,-1.75156601471826E-05,1.58203125,0,0
3.93684740629396E-06,-1.74027445609681E-05,1.58203125,0,0
5.14080738867051E-06,-1.51592648762744E-05,1.58203125,0,0
5.92596870774287E-06,-1.44065252243308E-05,1.58203125,0,0
6.41826682112878E-06,-1.57729591592215E-05,1.58203125,0,0
4.214855380269E-06,-1.37533606903162E-05,1.58203125,0,0
2.58540444519895E-06,-2.00683753064368E-05,1.58203125,0,0
-2.67341624748951E-06,-1.43971619763761E-05,1.58203125,0,0
-1.71570707152569E-06,-1.62805354193551E-05,1.58203125,0,0
-2.45329306380881E-06,-1.43018341987045E-05,1.58203125,0,0
-1.25650217341899E-06,-1.76887551788241E-05,1.58203125,0,0
-1.51089352584677E-06,-1.78727550519397E-05,1.58203125,0,0
-9.33587671170244E-07,-1.83377578650834E-05,1.58203125,0,0
-2.01341777028574E-06,-1.6432388292742E-05,1.58203125,0,0
-2.88057549369114E-06,-1.69571067090146E-05,3.8671875,0,0
-2.55313898378517E-06,-1.80315291800071E-05,3.8671875,0,0
-2.25438316192594E-06,-1.77527144842315E-05,3.8671875,0,0
-1.28412500544073E-06,-1.79069666046416E-05,3.8671875,0,0
-1.20293520922132E-06,-1.78586105903378E-05,3.8671875,0,0
-9.3932965228305E-07,-1.91787094081519E-05,3.8671875,0,0
-1.64980667705095E-06,-1.79820308403578E-05,3.8671875,0,0
-1.38038637942373E-06,-1.79982689587632E-05,3.8671875,0,0
-2.03367767426244E-06,-1.70118764799554E-05,3.8671875,0,0
-2.89437548417482E-06,-1.76563262357377E-05,3.8671875,0,0
-3.4617855817487E-06,-1.73307598743122E-05,3.8671875,0,0
-1.54151587139495E-06,-1.95069642359158E-05,3.8671875,0,0
1.65137896601664E-06,-2.06796103157103E-05,3.8671875,0,0
3.60456533599063E-06,-1.89353522728197E-05,3.8671875,0,0
3.37126994054415E-06,-1.38464147312334E-05,3.8671875,0,0
2.5696042484924E-06,-1.07087098513148E-05,3.8671875,0,0
3.67424135561123E-08,-1.00724118965445E-05,3.8671875,0,0
-2.13758244171913E-06,-1.07886125988443E-05,3.8671875,0,0
-1.74655292539683E-06,-1.03657876024954E-05,3.8671875,0,0
-2.80200833913113E-06,-1.63969980349066E-05,3.8671875,0,0
-2.52947074841359E-06,-1.34575639094692E-05,3.8671875,0,0
-2.72061220130126E-06,-1.52596021507634E-05,3.8671875,0,0
-1.9998276457045E-06,-1.35678674269002E-05,3.8671875,0,0
-2.33976993513352E-06,-1.53126347868238E-05,3.8671875,0,0
-1.8588749526316E-06,-1.53989767568419E-05,3.8671875,0,0
-1.28468775528745E-06,-1.66230529430322E-05,3.8671875,0,0
7.8000130088185E-07,-1.75538789335405E-05,3.8671875,0,0
2.66424558503786E-06,-1.87502610060619E-05,3.8671875,0,0
3.49604351868038E-06,-1.86645884241443E-05,3.8671875,0,0
4.57119631391834E-06,-1.58710863615852E-05,3.8671875,0,0
5.76317916056723E-06,-1.44645855471026E-05,3.8671875,0,0
6.5274657572445E-06,-1.51807398651727E-05,3.8671875,0,0
5.53836161998333E-06,-1.79395101440605E-05,3.8671875,0,0
3.79491234525631E-06,-1.93851701624226E-05,3.8671875,0,0
2.94305846182397E-06,-2.08144483622164E-05,3.8671875,0,0
4.47305683337618E-06,-1.94653785001719E-05,3.8671875,0,0
5.75904732613708E-06,-1.80504375748569E-05,3.8671875,0,0
5.38511949343956E-06,-1.6781761587481E-05,3.8671875,0,0
5.04832132719457E-06,-1.57888607645873E-05,3.8671875,0,0
6.00984776610858E-06,-1.37340248329565E-05,3.8671875,0,0
5.89071851209155E-06,-1.28886031234288E-05,3.8671875,0,0
3.75711806555046E-06,-1.20412032629247E-05,3.8671875,0,0
9.52438711010473E-07,-1.25384012790164E-05,3.8671875,0,0
-2.18570193055712E-07,-1.35965719891828E-05,3.8671875,0,0
-5.70419445011794E-07,-1.38765726660495E-05,3.8671875,0,0
8.22298886760109E-07,-1.14315025712131E-05,3.8671875,0,0
3.12672409563675E-06,-1.69181967066834E-05,3.8671875,0,0
4.00908174924552E-06,-1.43500537888031E-05,3.8671875,0,0
2.9882573926443E-06,-1.82921266969061E-05,3.8671875,0,0
1.22354720133444E-06,-1.74424403667217E-05,3.8671875,0,0
-3.94858318486513E-07,-2.01627117348835E-05,3.8671875,0,0
5.42109205525776E-07,-1.70163293660153E-05,3.8671875,0,0
2.17050978790212E-06,-1.45194135257043E-05,3.8671875,0,0
2.34385470321286E-06,-1.23431873362279E-05,3.8671875,0,0
7.50200285892788E-07,-1.36063117679441E-05,3.8671875,0,0
5.10524102992349E-07,-1.70705552591244E-05,3.8671875,0,0
1.77541448920238E-06,-1.9241517293267E-05,3.8671875,0,0
3.10451036966697E-06,-2.10422640520846E-05,3.8671875,0,0
4.02774503527326E-06,-2.14359461097047E-05,3.8671875,0,0
3.11260305352334E-06,-2.27631335292244E-05,3.8671875,0,0
1.12192822143697E-06,-2.24641880777199E-05,3.8671875,0,0
3.54419825043806E-07,-2.31767480727285E-05,3.8671875,0,0
1.34572019305779E-06,-2.19971188926138E-05,3.8671875,0,0
2.77502954304509E-06,-2.11795995710418E-05,3.8671875,0,0
4.01232591684675E-06,-1.94880867638858E-05,3.8671875,0,0
4.69377664558124E-06,-2.02278733922867E-05,3.8671875,0,0
5.6324788602069E-06,-2.15907657548087E-05,3.8671875,0,0
6.40832786302781E-06,-2.21661848627264E-05,3.8671875,0,0
6.77507796353893E-06,-1.99995229195338E-05,3.8671875,0,0
6.14157215750311E-06,-1.90876926353667E-05,3.8671875,0,0
4.32255274063209E-06,-2.02429691853467E-05,3.8671875,0,0
2.90343859887798E-06,-2.19783050852129E-05,3.8671875,0,0
2.71716203315009E-06,-1.75468576344429E-05,3.8671875,0,0
4.13826637668535E-06,-2.2612170141656E-05,3.8671875,0,0
2.82120231531735E-06,-1.4436512174143E-05,3.8671875,0,0
4.5565820983029E-06,-1.8087228454533E-05,3.8671875,0,0
5.27680640516337E-06,-1.21137445603381E-05,3.8671875,0,0
4.80480548503692E-06,-1.4121554158919E-05,3.8671875,0,0
4.15955992139061E-06,-1.28359342852491E-05,3.8671875,0,0
4.52706399300951E-06,-1.54170520545449E-05,3.8671875,0,0
6.47637443762505E-06,-1.66788213391555E-05,3.8671875,0,0
9.2602413133136E-06,-1.80615206772927E-05,3.8671875,0,0
1.06462748590275E-05,-1.78315603989176E-05,3.8671875,0,0
1.00231081887614E-05,-1.55788911797572E-05,3.8671875,0,0
9.15820146474289E-06,-1.59378378157271E-05,3.8671875,0,0
8.6586569523206E-06,-1.54423069034237E-05,3.8671875,0,0
9.06161858438281E-06,-1.58816437760834E-05,3.8671875,0,0
9.31588328967337E-06,-1.37002316478174E-05,3.8671875,0,0
9.36317155719735E-06,-1.44906807690859E-05,3.8671875,0,0
8.30744829727337E-06,-1.39804087666562E-05,3.8671875,0,0
6.80761695548426E-06,-1.49567167682108E-05,3.8671875,0,0
6.13334896115703E-06,-1.37407841975801E-05,3.8671875,0,0
5.97761300014099E-06,-1.41753243951825E-05,3.8671875,0,0
5.40721475772443E-06,-1.40843958433834E-05,3.8671875,0,0
4.74766420666128E-06,-1.40112033477635E-05,3.8671875,0,0
4.37646349382703E-06,-1.18006519187475E-05,3.8671875,0,0
3.56269811163656E-06,-1.13774676719913E-05,3.8671875,0,0
2.21901132135827E-06,-1.17260133265518E-05,3.8671875,0,0
1.5488565168198E-06,-1.29151749206358E-05,3.8671875,0,0
1.09357165456458E-06,-1.24250800581649E-05,3.8671875,0,0
2.99187672681001E-06,-1.80986426130403E-05,3.8671875,0,0
4.29310512117809E-06,-1.39696594487759E-05,3.8671875,0,0
3.04620812130452E-06,-1.66477911989205E-05,3.8671875,0,0
1.33523133172275E-06,-1.39428057082114E-05,3.8671875,0,0
2.48969490712625E-06,-1.47405944517232E-05,3.8671875,0,0
2.66642882706947E-06,-1.31685146698146E-05,3.8671875,0,0
1.04620869478822E-06,-1.56794467329746E-05,3.8671875,0,0
-2.26544507597737E-08,-2.05614087462891E-05,3.8671875,0,0
3.29105461105428E-07,-2.63880720012821E-05,3.8671875,0,0
3.17508238367736E-07,-3.01116069749696E-05,3.8671875,0,0
-9.74526528807473E-07,-2.98698450933443E-05,3.8671875,0,0
-3.1806041533855E-06,-2.6851024813368E-05,3.8671875,0,0
-4.4391849769454E-06,-2.18217064684723E-05,3.8671875,0,0
-3.33222806148115E-06,-1.97956742340466E-05,3.8671875,0,0
-7.56841302518296E-07,-1.86836678039981E-05,3.8671875,0,0
3.95841567524258E-07,-2.02373503270792E-05,3.8671875,0,0
-6.4815674249985E-07,-2.03436720767058E-05,3.8671875,0,0
-8.55823884648999E-07,-2.03249419428175E-05,3.8671875,0,0
6.35644767044141E-07,-1.77815345523413E-05,3.8671875,0,0
2.91059131996008E-06,-1.60185918502975E-05,3.8671875,0,0
2.98141685561859E-06,-1.47160235428601E-05,3.8671875,0,0
8.86500686192448E-07,-1.476654142607E-05,3.8671875,0,0
5.74035652789462E-07,-1.52932116179727E-05,3.8671875,0,0
1.32036939248792E-06,-1.51486174218007E-05,3.8671875,0,0
5.36041341092641E-07,-1.29174040921498E-05,3.8671875,0,0
-2.69660688445583E-07,-1.24467551358975E-05,3.8671875,0,0
4.16774241784879E-07,-1.25439582916442E-05,3.8671875,0,0
1.09673692350043E-06,-1.97559238586109E-05,3.8671875,0,0
5.84096540023893E-07,-1.64529628818855E-05,3.8671875,0,0
-6.54915652376076E-07,-1.81437626451952E-05,3.8671875,0,0
-1.0907085652434E-06,-1.47995015140623E-05,3.8671875,0,0
-4.14596911468834E-07,-1.52578268171055E-05,3.8671875,0,0
7.54972518279828E-07,-1.42149847306428E-05,3.8671875,0,0
2.20588458432758E-06,-1.52611100929789E-05,3.8671875,0,0
3.05976959680265E-06,-1.34481670102105E-05,3.8671875,0,0
2.01578336600505E-06,-1.22912861115765E-05,3.8671875,0,0
1.36627795654931E-06,-1.31275464809733E-05,3.8671875,0,0
1.47690411722579E-06,-1.35422624225612E-05,3.8671875,0,0
2.77400977211073E-06,-1.42012122523738E-05,3.8671875,0,0
4.56617954114336E-06,-1.36327425934724E-05,3.8671875,0,0
5.84228791922214E-06,-1.47692171594827E-05,3.8671875,0,0
6.44804958938039E-06,-1.52951542986557E-05,3.8671875,0,0
6.41393080513808E-06,-1.74612232513027E-05,3.8671875,0,0
5.94698303757468E-06,-1.89687561942264E-05,3.8671875,0,0
4.90815091325203E-06,-2.05800533876754E-05,3.8671875,0,0
4.22268794864067E-06,-2.01163747988176E-05,3.8671875,0,0
4.49558137916029E-06,-2.04810039576842E-05,3.8671875,0,0
4.86338012706256E-06,-1.95170596271055E-05,3.8671875,0,0
4.5984452299308E-06,-1.94306976482039E-05,3.8671875,0,0
4.92004164698301E-06,-1.95682659978047E-05,3.8671875,0,0
4.64487811768777E-06,-1.98835132323438E-05,3.8671875,0,0
4.53245229437016E-06,-2.02314640773693E-05,3.8671875,0,0
5.87067370361183E-06,-2.03476956812665E-05,3.8671875,0,0
6.11477844358888E-06,-1.61969310283894E-05,3.8671875,0,0
9.77197942120256E-06,-2.27697873924626E-05,3.8671875,0,0
7.89939804235473E-06,-1.7671378373052E-05,3.8671875,0,0
8.12164580565877E-06,-2.15761410800042E-05,3.8671875,0,0
5.85665111429989E-06,-1.49044144563959E-05,3.8671875,0,0
6.99022575645358E-06,-1.46882384797209E-05,3.8671875,0,0
7.91521961218677E-06,-1.24183097796049E-05,3.8671875,0,0
7.686950993957E-06,-1.38531113407225E-05,3.8671875,0,0
5.27358542967704E-06,-1.56283058458939E-05,3.8671875,0,0
3.77240371562948E-06,-1.77014535438502E-05,3.8671875,0,0
3.317958316984E-06,-1.77114325197181E-05,3.8671875,0,0
2.04731622943655E-06,-1.60443687491352E-05,3.8671875,0,0
1.08072036653084E-07,-1.77784622792387E-05,3.8671875,0,0
-1.00482282050507E-06,-2.04037205548957E-05,3.8671875,0,0
3.38030361035635E-07,-2.36333034990821E-05,3.8671875,0,0
1.96252335626923E-06,-2.28554381465074E-05,3.8671875,0,0
3.94107746615191E-06,-2.35176466958364E-05,3.8671875,0,0
4.54876317235176E-06,-2.24163577513536E-05,3.8671875,0,0
4.90081629322958E-06,-2.20704878302058E-05,3.8671875,0,0
4.09212498198031E-06,-1.92869065358536E-05,3.8671875,0,0
3.87905947718536E-06,-1.81576997420052E-05,3.8671875,0,0
3.38894437845738E-06,-1.79783837666037E-05,3.8671875,0,0
2.04654406843474E-06,-1.97988229047041E-05,3.8671875,0,0
-2.52932021993502E-08,-2.03037507162662E-05,3.8671875,0,0
-1.08407698462543E-06,-2.01100137928734E-05,3.8671875,0,0
-8.91167019290151E-07,-1.98942452698248E-05,3.8671875,0,0
-2.1006242434396E-07,-2.00034537556348E-05,3.8671875,0,0
6.96742119998817E-07,-1.59387145686196E-05,3.8671875,0,0
1.87137652574165E-06,-2.26318607019493E-05,3.8671875,0,0
3.35596291733964E-06,-1.82777621375863E-05,3.8671875,0,0
4.92915614813683E-06,-2.24932355195051E-05,3.8671875,0,0
5.26361691299826E-06,-1.62963242473779E-05,3.8671875,0,0
3.70278871741903E-06,-1.62208034453215E-05,3.8671875,0,0
2.55942518379015E-06,-1.55060170072829E-05,3.8671875,0,0
4.00433600589167E-06,-1.8790296962834E-05,3.8671875,0,0
5.15804367751116E-06,-1.83460870175622E-05,3.8671875,0,0
4.77312869406887E-06,-1.61907446454279E-05,3.8671875,0,0
4.13212319472223E-06,-1.50854912135401E-05,3.8671875,0,0
3.2400828331447E-06,-1.54797107825289E-05,3.8671875,0,0
2.42596934185713E-06,-1.82836138264975E-05,3.8671875,0,0
1.96510677596962E-06,-1.94707445189124E-05,3.8671875,0,0
2.32608613259799E-06,-2.01285565708531E-05,3.8671875,0,0
2.44153466155694E-06,-1.75188724824693E-05,3.8671875,0,0
2.64412938122405E-06,-1.74037013493944E-05,3.8671875,0,0
3.44150771525165E-06,-1.65800211107126E-05,3.8671875,0,0
4.26353244620259E-06,-1.69943050423171E-05,3.8671875,0,0
4.53030907010543E-06,-1.46352158481022E-05,3.8671875,0,0
4.03347621613648E-06,-1.35460195451742E-05,3.8671875,0,0
2.08652409128263E-06,-1.23104355225223E-05,3.8671875,0,0
4.46923820618395E-07,-1.27993162095663E-05,3.8671875,0,0
9.16323756428028E-07,-1.25241649584495E-05,3.8671875,0,0
9.12431858068885E-07,-1.34656647787779E-05,3.8671875,0,0
-7.52786149860185E-07,-1.52851989696501E-05,3.8671875,0,0
-2.84718180409982E-06,-1.55395209731068E-05,3.8671875,0,0
-1.20906145184563E-06,-1.24071257232572E-05,3.8671875,0,0
1.13445287297509E-06,-1.78543996298686E-05,3.8671875,0,0
3.39504708790628E-06,-1.47078371810494E-05,3.8671875,0,0
5.58971066766389E-07,-1.87931709660916E-05,3.8671875,0,0
-1.09907580281288E-06,-1.58134826051537E-05,3.8671875,0,0
-1.66053985140024E-06,-1.70582607097458E-05,3.8671875,0,0
-5.09448000229895E-07,-1.55151647049934E-05,3.8671875,0,0
9.31039920715193E-08,-1.56744608830195E-05,3.8671875,0,0
1.09033510398149E-06,-1.44349951369804E-05,3.8671875,0,0
1.13046689875773E-06,-1.3436048902804E-05,3.8671875,0,0
8.3166469266871E-07,-1.32811428557034E-05,3.8671875,0,0
3.58167994818359E-07,-1.31411752590793E-05,3.8671875,0,0
1.16991323295679E-07,-1.50146533997031E-05,3.8671875,0,0
2.3936078719089E-07,-1.56922651513014E-05,3.8671875,0,0
2.14129684650288E-07,-1.73479747900274E-05,3.8671875,0,0
4.66980765168046E-07,-1.67836933542276E-05,3.8671875,0,0
9.12347957182647E-08,-1.66649697348475E-05,3.8671875,0,0
7.02126044416218E-07,-1.64412813319359E-05,3.8671875,0,0
1.73542321135756E-06,-1.82509738806402E-05,3.8671875,0,0
2.11854762710573E-06,-1.82585808943259E-05,3.8671875,0,0
3.8906782151571E-07,-1.91443596122554E-05,3.8671875,0,0
-2.66963724016023E-07,-1.93694449990289E-05,3.8671875,0,0
7.96477820586006E-07,-2.05591622943757E-05,3.8671875,0,0
2.71717158284446E-06,-2.20468864426948E-05,3.8671875,0,0
4.91513173983549E-06,-2.26427309826249E-05,3.8671875,0,0
6.49518733553123E-06,-2.04504503926728E-05,3.8671875,0,0
6.14692453382304E-06,-1.68940259754891E-05,3.8671875,0,0
4.88325576952775E-06,-1.33503663164447E-05,3.8671875,0,0
7.37903474146151E-06,-1.94814292626688E-05,3.8671875,0,0
7.63635944167618E-06,-1.35821383082657E-05,3.8671875,0,0
9.59395401878282E-06,-1.40631200338248E-05,3.8671875,0,0
7.27190627003438E-06,-1.11252475107904E-05,3.8671875,0,0
8.01621081336634E-06,-1.45328467624495E-05,3.8671875,0,0
7.61157070883201E-06,-1.31960659928154E-05,3.8671875,0,0
8.01938494987553E-06,-1.1992764484603E-05,3.8671875,0,0
7.55259225115879E-06,-1.14403574116295E-05,3.8671875,0,0
7.43335021979874E-06,-1.22241763165221E-05,3.8671875,0,0
7.81984363129595E-06,-1.1139652087877E-05,3.8671875,0,0
7.36641140974825E-06,-9.4925744633656E-06,3.8671875,0,0
7.10404810888576E-06,-1.1537676982698E-05,3.8671875,0,0
6.59268971503479E-06,-1.40587208079523E-05,3.8671875,0,0
6.44279134576209E-06,-1.59400660777465E-05,7.55859375,0,0
5.00179748996743E-06,-1.49785746543785E-05,7.55859375,0,0
3.07479535877064E-06,-1.60093695740215E-05,7.55859375,0,0
8.93889762210165E-07,-1.55512680066749E-05,7.55859375,0,0
1.66057998285396E-06,-1.63103741215309E-05,7.55859375,0,0
2.2899005216459E-06,-1.69542454386828E-05,7.55859375,0,0
4.98666338444309E-07,-1.79842718353029E-05,7.55859375,0,0
-3.5614098123915E-06,-1.63136592163937E-05,7.55859375,0,0
-5.34827131559723E-06,-1.42089720611693E-05,7.55859375,0,0
-3.7457512007677E-06,-1.32285986182978E-05,7.55859375,0,0
-6.88373461343872E-07,-1.59441842697561E-05,7.55859375,0,0
6.06208345743653E-08,-1.85580684046727E-05,7.55859375,0,0
-9.51600270582276E-07,-2.01512630155776E-05,7.55859375,0,0
-2.03014087674092E-06,-1.67426551342942E-05,7.55859375,0,0
-3.04473678625072E-06,-2.51222099905135E-05,7.55859375,0,0
-6.2262193978313E-07,-2.11828719329787E-05,7.55859375,0,0
9.44251212331437E-07,-2.63903384620789E-05,7.55859375,0,0
1.93771279555222E-06,-2.26097508857492E-05,7.55859375,0,0
1.76331514012418E-06,-2.45349274337059E-05,7.55859375,0,0
1.23786355743505E-06,-2.35369316214928E-05,7.55859375,0,0
1.07923949599353E-06,-2.50883458647877E-05,7.55859375,0,0
1.77623599029175E-06,-2.43510712607531E-05,7.55859375,0,0
2.67782229457225E-06,-2.24089872062905E-05,7.55859375,0,0
2.840260776793E-06,-2.00925605895463E-05,7.55859375,0,0
2.44993429987517E-06,-1.82230796781369E-05,7.55859375,0,0
2.00968565877702E-06,-1.84671753231669E-05,7.55859375,0,0
1.1611467698458E-06,-1.63566073752008E-05,7.55859375,0,0
-2.31494624358675E-07,-1.60636336659081E-05,7.55859375,0,0
-8.67904702772648E-07,-1.57111462613102E-05,7.55859375,0,0
-4.73918589705136E-07,-1.75433833646821E-05,7.55859375,0,0
1.36930304961425E-06,-1.60761483130045E-05,7.55859375,0,0
3.58287024937454E-06,-1.41552000059164E-05,7.55859375,0,0
4.62294519820716E-06,-1.16556675493484E-05,7.55859375,0,0
3.41119152835745E-06,-1.3149733604223E-05,7.55859375,0,0
2.72496686193335E-06,-1.3816913451592E-05,7.55859375,0,0
5.67725419386989E-06,-1.31560536829056E-05,7.55859375,0,0
1.06266015791334E-05,-1.2232630069775E-05,7.55859375,0,0
1.41132077260409E-05,-1.24154839795665E-05,7.55859375,0,0
1.46220299939159E-05,-1.25049991765991E-05,7.55859375,0,0
1.33967414512881E-05,-1.32149589262553E-05,7.55859375,0,0
1.01850246210233E-05,-1.07775431388291E-05,7.55859375,0,0
1.32235409182613E-05,-1.47398695844458E-05,7.55859375,0,0
7.48448928789003E-06,-1.01501263998216E-05,7.55859375,0,0
9.71882582234684E-06,-1.27519533634768E-05,7.55859375,0,0
8.87884561961982E-06,-1.16466299004969E-05,7.55859375,0,0
1.10025348476483E-05,-1.45552639878588E-05,7.55859375,0,0
9.29668385651894E-06,-1.36786939037847E-05,7.55859375,0,0
8.81570758792805E-06,-1.39001494972035E-05,7.55859375,0,0
6.04790875513572E-06,-1.37362876557745E-05,7.55859375,0,0
3.94729931940674E-06,-1.49782217704342E-05,7.55859375,0,0
2.34552612710104E-06,-1.65028523042565E-05,7.55859375,0,0
-1.86638935417704E-08,-1.60482195497025E-05,7.55859375,0,0
-1.14408487661422E-06,-1.59888841153588E-05,7.55859375,0,0
-1.69925476711796E-06,-1.60719609993976E-05,7.55859375,0,0
-2.27338020408752E-07,-1.88148969755275E-05,7.55859375,0,0
-2.47564400979172E-07,-1.93464584299363E-05,7.55859375,0,0
5.71379530356353E-07,-1.80760562216165E-05,7.55859375,0,0
-2.93835768161443E-07,-1.41385271490435E-05,7.55859375,0,0
-1.08041842850071E-06,-1.3280829989526E-05,7.55859375,0,0
-2.3428274289472E-06,-1.47900400406797E-05,7.55859375,0,0
-1.38796860937873E-06,-1.78609152499121E-05,7.55859375,0,0
-7.17653961146425E-07,-1.78256468643667E-05,7.55859375,0,0
6.07643499961341E-08,-1.59854644152801E-05,7.55859375,0,0
-4.38934577573491E-08,-1.54043827933492E-05,7.55859375,0,0
-1.70864709048146E-07,-1.76054891198874E-05,7.55859375,0,0
-1.82666917680763E-06,-1.96584405784961E-05,7.55859375,0,0
-1.8953951439471E-06,-1.9604309272836E-05,7.55859375,0,0
7.19150705208449E-07,-1.62017531692982E-05,7.55859375,0,0
2.2431142951973E-06,-2.57904066529591E-05,7.55859375,0,0
2.05290325538954E-06,-2.29502184083685E-05,7.55859375,0,0
1.07008361283079E-06,-2.54895930993371E-05,7.55859375,0,0
2.24607902055141E-06,-1.94199037650833E-05,7.55859375,0,0
2.87484567706997E-06,-2.03180643438827E-05,7.55859375,0,0
1.8760797502182E-06,-1.93830273929052E-05,7.55859375,0,0
2.11194205235188E-07,-2.14983865589602E-05,7.55859375,0,0
-7.11917721218924E-07,-2.17725864786189E-05,7.55859375,0,0
-1.9732142391149E-06,-2.10067537409486E-05,7.55859375,0,0
-2.43530666921288E-06,-1.97556128114229E-05,7.55859375,0,0
-1.28212445815734E-06,-1.82864623639034E-05,7.55859375,0,0
7.50604215227213E-07,-1.85366061487002E-05,7.55859375,0,0
1.99282385437982E-06,-1.91929193533724E-05,7.55859375,0,0
2.10068174055777E-06,-2.3193711967906E-05,7.55859375,0,0
1.85631404292508E-06,-2.56219900620636E-05,7.55859375,0,0
7.22974959899148E-07,-2.78227435046574E-05,7.55859375,0,0
-1.41867008096597E-06,-2.60664292000001E-05,7.55859375,0,0
-3.2460966394865E-06,-2.45711980824126E-05,7.55859375,0,0
-2.79481014331395E-06,-2.18289278564043E-05,7.55859375,0,0
-6.64137928652053E-07,-2.14594929275336E-05,7.55859375,0,0
7.81146027861723E-08,-2.14894171222113E-05,7.55859375,0,0
-4.31701010938923E-07,-2.08858982659876E-05,7.55859375,0,0
7.44050794310169E-07,-1.77571364474716E-05,7.55859375,0,0
2.80909989669453E-06,-1.56327005242929E-05,7.55859375,0,0
3.9530782487418E-06,-1.49434654304059E-05,7.55859375,0,0
3.64538846042706E-06,-1.62403630383778E-05,7.55859375,0,0
3.25105270349013E-06,-1.55372345034266E-05,7.55859375,0,0
5.5816408348619E-06,-2.19099420064595E-05,7.55859375,0,0
5.23884727954282E-06,-1.66442350746365E-05,7.55859375,0,0
5.18618480782607E-06,-2.12418908631662E-05,7.55859375,0,0
3.68619748769561E-06,-1.88503836398013E-05,7.55859375,0,0
3.51897301698045E-06,-2.05851883947616E-05,7.55859375,0,0
3.97189069190063E-06,-1.80722599907313E-05,7.55859375,0,0
6.1609071053681E-06,-1.85011813300662E-05,7.55859375,0,0
5.4047864068707E-06,-1.78142672666581E-05,7.55859375,0,0
3.72708336726646E-06,-1.72799627762288E-05,7.55859375,0,0
3.29985186908743E-06,-1.6670561308274E-05,7.55859375,0,0
3.64873835678736E-06,-1.63306758622639E-05,7.55859375,0,0
3.24483153235633E-06,-1.76199100678787E-05,7.55859375,0,0
1.06115078324365E-06,-1.7283146007685E-05,7.55859375,0,0
-9.68135509538115E-07,-1.72395793924807E-05,7.55859375,0,0
-2.89406716547091E-06,-1.392618924001E-05,7.55859375,0,0
-3.91172125091543E-06,-1.22818728414131E-05,7.55859375,0,0
-3.02226203530154E-06,-9.96791823126841E-06,7.55859375,0,0
2.6218862103633E-07,-1.12868920041365E-05,7.55859375,0,0
2.32975344260922E-06,-1.26137656479841E-05,7.55859375,0,0
2.4992239104904E-06,-1.48055114550516E-05,7.55859375,0,0
1.47929733884666E-06,-1.5095082744665E-05,7.55859375,0,0
9.19139495181298E-07,-1.56816277012695E-05,7.55859375,0,0
5.24417259839538E-07,-1.49458946907544E-05,7.55859375,0,0
1.20139452519652E-06,-1.43044053402264E-05,7.55859375,0,0
1.90690821000317E-06,-1.45943886309396E-05,7.55859375,0,0
1.64497055266111E-06,-1.50262885654229E-05,7.55859375,0,0
-2.64240100023017E-07,-1.05010140032391E-05,7.55859375,0,0
-1.31455306018324E-06,-1.39639678309322E-05,7.55859375,0,0
-2.13131693271862E-06,-1.16802311822539E-05,7.55859375,0,0
-1.68918177223532E-06,-1.64979483088246E-05,7.55859375,0,0
8.8836281975091E-07,-1.37598290166352E-05,7.55859375,0,0
3.45851390193275E-06,-1.51679660120863E-05,7.55859375,0,0
3.60854392056353E-06,-1.51563945109956E-05,7.55859375,0,0
2.10800658351218E-06,-1.76738740265137E-05,7.55859375,0,0
2.65820460754185E-07,-1.88432059076149E-05,7.55859375,0,0
1.3247782817416E-06,-1.97557910723845E-05,7.55859375,0,0
4.49199114882504E-06,-1.82748517545406E-05,7.55859375,0,0
6.39389872958418E-06,-1.52093962242361E-05,7.55859375,0,0
6.31494094704976E-06,-1.47836926771561E-05,7.55859375,0,0
5.25685663887998E-06,-1.53694782056846E-05,7.55859375,0,0
3.83717724616872E-06,-1.79881208168808E-05,7.55859375,0,0
2.87205239146715E-06,-1.81347568286583E-05,7.55859375,0,0
2.67758309746569E-06,-1.7556274542585E-05,7.55859375,0,0
3.55606016455567E-06,-1.52799493662314E-05,7.55859375,0,0
4.50189054390648E-06,-1.5872203221079E-05,7.55859375,0,0
3.80375058739446E-06,-1.65127839863999E-05,7.55859375,0,0
2.69842735178827E-06,-1.7392638255842E-05,7.55859375,0,0
1.83544489118503E-06,-1.65834899235051E-05,7.55859375,0,0
1.56069063450559E-06,-1.84714408533182E-05,7.55859375,0,0
1.80292522600212E-06,-2.14197752939072E-05,7.55859375,0,0
1.85262592822255E-06,-2.17838787648361E-05,7.55859375,0,0
1.60128479365085E-06,-1.83091051439988E-05,7.55859375,0,0
2.4803816813801E-06,-1.55697234731633E-05,7.55859375,0,0
4.21747472501011E-06,-1.32060831674607E-05,7.55859375,0,0
5.99927989242133E-06,-1.95595821423922E-05,7.55859375,0,0
4.06812296205317E-06,-1.70977273228345E-05,7.55859375,0,0
