biceps_emg, triceps_emg, subject_position, position_estimate, brace_position
-1.63514268933795E-05,1.78388781932881E-05,0.3515625,0,0
-1.69410468515707E-05,1.64045268320479E-05,0.3515625,0,0
-1.65158526215237E-05,1.34709489429952E-05,0.3515625,0,0
-1.76553530764068E-05,1.33306475618156E-05,0.3515625,0,0
-1.66441659530392E-05,1.3795367522107E-05,0.3515625,0,0
-1.8134413039661E-05,1.67027901625261E-05,0.3515625,0,0
-1.74142442119773E-05,1.7249813026865E-05,0.3515625,0,0
-1.73451626324095E-05,1.65035253303358E-05,0.3515625,0,0
-1.56888254423393E-05,1.2274907930987E-05,0.3515625,0,0
-1.72865693457425E-05,7.72023395256838E-06,0.3515625,0,0
-1.88384601642611E-05,3.26626309288258E-06,0.3515625,0,0
-2.03471317945514E-05,2.13827206607675E-06,0.3515625,0,0
-1.93893938558176E-05,4.15012482335442E-06,0.3515625,0,0
-1.78129703272134E-05,9.069050065591E-06,0.3515625,0,0
-1.69274590007262E-05,1.2574522770592E-05,0.3515625,0,0
-1.7526948795421E-05,1.37661299959291E-05,0.3515625,0,0
-1.44518426168361E-05,1.17134377433104E-05,0.3515625,0,0
-1.9571476514102E-05,1.61116040544584E-05,0.3515625,0,0
-1.3685530575458E-05,9.39415622269735E-06,0.3515625,0,0
-1.82985295396065E-05,9.10449216462439E-06,0.3515625,0,0
-1.59595056175021E-05,4.96074926559231E-06,0.3515625,0,0
-1.75752866198309E-05,5.26701933267759E-06,0.3515625,0,0
-1.67099333339138E-05,2.9399702725641E-06,0.3515625,0,0
-1.8603492208058E-05,4.45010891780839E-06,0.3515625,0,0
-1.93096275324933E-05,6.15649742030655E-06,0.3515625,0,0
-2.15202599065378E-05,7.36485708330292E-06,0.3515625,0,0
-2.48817232204601E-05,9.45620831771521E-06,0.3515625,0,0
-2.66008191829314E-05,1.09611810330534E-05,0.3515625,0,0
-2.73794830718543E-05,1.13149544631597E-05,0.3515625,0,0
-2.58959644270362E-05,9.39355049922597E-06,0.3515625,0,0
-2.54225105891237E-05,9.26830307435011E-06,0.3515625,0,0
-2.37650911003584E-05,8.57373561302666E-06,0.3515625,0,0
-2.56233561231056E-05,7.5925868259219E-06,0.3515625,0,0
-2.75895945378579E-05,3.43914348377439E-06,0.3515625,0,0
-3.03236047329847E-05,1.45191199862893E-06,0.3515625,0,0
-2.97889419016428E-05,2.29022816711222E-06,0.3515625,0,0
-2.95648169412743E-05,5.21501806360902E-06,0.3515625,0,0
-2.84942198049976E-05,5.01440717926016E-06,0.3515625,0,0
-2.70048949460033E-05,4.20560854763607E-06,0.3515625,0,0
-2.44826260313857E-05,3.38814925271436E-06,0.3515625,0,0
-2.40768658841262E-05,2.33855462283827E-06,0.3515625,0,0
-2.46012750722002E-05,9.37713309667743E-07,0.3515625,0,0
-2.48495980486041E-05,2.07405651053705E-06,0.3515625,0,0
-1.94623153220164E-05,7.10821404936723E-06,0.3515625,0,0
-2.86016056634253E-05,1.46341326399124E-05,0.3515625,0,0
-2.3935901481309E-05,1.53950695676031E-05,0.3515625,0,0
-3.00606825476279E-05,1.52933334902627E-05,0.3515625,0,0
-2.62672147073317E-05,1.46926731758867E-05,0.3515625,0,0
-2.99340663332259E-05,1.6941003195825E-05,0.3515625,0,0
-2.94800302071963E-05,1.93673440662678E-05,0.3515625,0,0
-3.21265397360548E-05,2.15989548451034E-05,0.3515625,0,0
-3.18988604703918E-05,1.99182304640999E-05,0.3515625,0,0
-3.2542124245083E-05,1.72105555975577E-05,0.3515625,0,0
-3.48894536728039E-05,1.66945446835598E-05,0.3515625,0,0
-3.62548780685756E-05,1.70363000506768E-05,0.3515625,0,0
-3.69194058293942E-05,1.65575474966317E-05,0.3515625,0,0
-3.49753026966937E-05,1.4404749890673E-05,0.3515625,0,0
-3.5808581742458E-05,1.34059619085747E-05,0.3515625,0,0
-3.55228767148219E-05,1.36049256980186E-05,0.3515625,0,0
-3.73501934518572E-05,1.44067826113314E-05,0.3515625,0,0
-3.65161795343738E-05,1.33214916786528E-05,0.3515625,0,0
-3.78883414668962E-05,1.23599775179173E-05,0.3515625,0,0
-3.68459950550459E-05,1.11691106212675E-05,0.3515625,0,0
-3.54618932760786E-05,9.30590886127902E-06,0.3515625,0,0
-3.27645211655181E-05,6.95818789608893E-06,0.3515625,0,0
-3.19888968078885E-05,5.30513671037625E-06,0.3515625,0,0
-3.11345829686616E-05,3.16179011861095E-06,0.3515625,0,0
-3.0955587135395E-05,2.70348596131953E-06,0.3515625,0,0
-2.95941572403535E-05,5.60681837669108E-06,0.3515625,0,0
-2.90075477096252E-05,9.94957918010186E-06,0.3515625,0,0
-2.3554966901429E-05,8.96818528417498E-06,0.3515625,0,0
-3.36080447596032E-05,1.10804376163287E-05,0.3515625,0,0
-2.59612243098672E-05,7.36163337933249E-06,0.3515625,0,0
-3.14347344101407E-05,1.25615570141235E-05,0.3515625,0,0
-2.59558037214447E-05,1.17850959213683E-05,0.3515625,0,0
-3.04417226288933E-05,1.28614392451709E-05,0.3515625,0,0
-2.87026959995274E-05,1.33988478410174E-05,0.3515625,0,0
-2.94014098471962E-05,1.55692996486323E-05,0.3515625,0,0
-2.69639167527203E-05,1.45199310281896E-05,0.3515625,0,0
-2.64877835434163E-05,1.3672706700163E-05,0.3515625,0,0
-2.86739068542374E-05,1.3563147149398E-05,0.3515625,0,0
-2.92839504254516E-05,1.25687402032781E-05,0.3515625,0,0
-2.95650643238332E-05,1.27866451293812E-05,0.3515625,0,0
-2.73758996627294E-05,1.38028372020926E-05,0.3515625,0,0
-2.80811600532616E-05,1.61074895004276E-05,0.3515625,0,0
-2.56596758845262E-05,1.55410252773436E-05,0.3515625,0,0
-2.51437722909031E-05,1.51230142364511E-05,0.3515625,0,0
-2.18125860556029E-05,1.44494424603181E-05,0.3515625,0,0
-2.03456420422299E-05,1.47361888593878E-05,0.3515625,0,0
-1.74605684151175E-05,1.29536474560155E-05,0.3515625,0,0
-1.70289931702428E-05,1.13902387965936E-05,0.3515625,0,0
-1.48765502672177E-05,9.13088479137514E-06,0.3515625,0,0
-1.40654801725759E-05,9.38771154324058E-06,0.3515625,0,0
-1.20571103252587E-05,1.22516921692295E-05,0.3515625,0,0
-1.13103742478415E-05,1.299951600231E-05,0.3515625,0,0
-1.0210905202257E-05,9.57991596806096E-06,0.3515625,0,0
-8.71634802024346E-06,6.40263851892087E-06,0.3515625,0,0
-6.45853651803918E-06,3.96384530176874E-06,0.3515625,0,0
-9.56229359871941E-06,6.78147398502915E-06,0.3515625,0,0
-8.76482590683736E-06,7.65239474276314E-06,0.3515625,0,0
-1.25047336041462E-05,9.1134743342991E-06,0.3515625,0,0
-1.39879311973345E-05,5.81396852794569E-06,0.3515625,0,0
-1.7004991605063E-05,2.72349643637426E-06,0.3515625,0,0
-1.85590397450142E-05,-3.50235779933428E-07,0.3515625,0,0
-2.03701383725274E-05,-1.6245755887212E-06,0.3515625,0,0
-2.07253124244744E-05,4.65666204263471E-07,0.3515625,0,0
-2.03178951778682E-05,5.91905427427264E-06,0.3515625,0,0
-1.93449432117632E-05,1.09107477328507E-05,0.3515625,0,0
-1.84138480108231E-05,1.46924994623987E-05,0.3515625,0,0
-1.89989495993359E-05,1.82266921910923E-05,0.3515625,0,0
-1.89929287444102E-05,1.90241353266174E-05,0.3515625,0,0
-1.84857599379029E-05,1.59869796334533E-05,0.3515625,0,0
-1.68528003996471E-05,1.13740497909021E-05,0.3515625,0,0
-1.71106548805255E-05,9.70630571828224E-06,0.3515625,0,0
-1.77884485310642E-05,1.1071257176809E-05,0.3515625,0,0
-1.82638978003524E-05,1.40925203595543E-05,0.3515625,0,0
-1.79003236553399E-05,1.55344769154908E-05,0.3515625,0,0
-1.85222561412957E-05,1.62525138875935E-05,0.3515625,0,0
-1.90789123735158E-05,1.76739631569944E-05,0.3515625,0,0
-2.04351854335982E-05,1.93197174667148E-05,0.3515625,0,0
-2.14528718061047E-05,1.89296952157747E-05,0.3515625,0,0
-2.19056310015731E-05,1.64198263519211E-05,0.3515625,0,0
-2.12031009141356E-05,1.33059284053161E-05,0.3515625,0,0
-1.97491826838814E-05,1.20172762763104E-05,0.3515625,0,0
-1.64605680765817E-05,1.06187544588465E-05,0.3515625,0,0
-2.44798065978102E-05,1.6540239812457E-05,0.3515625,0,0
-1.91085619007936E-05,1.41113878271426E-05,0.3515625,0,0
-2.13444345718017E-05,1.45327458085376E-05,0.3515625,0,0
-1.57882750499994E-05,8.16663032310316E-06,0.3515625,0,0
-1.79434973688331E-05,7.37818436391535E-06,0.3515625,0,0
-1.95455741049955E-05,7.38354810891906E-06,0.3515625,0,0
-2.48657961492427E-05,9.10494418349117E-06,0.3515625,0,0
-2.74243648163974E-05,8.86395355337299E-06,0.3515625,0,0
-2.88973533315584E-05,8.05056788522052E-06,0.3515625,0,0
-2.80075491900789E-05,5.98382348471205E-06,0.3515625,0,0
-2.47907482844312E-05,3.99417513108347E-06,0.3515625,0,0
-2.42694313783431E-05,5.32113881490659E-06,0.3515625,0,0
-2.50980865530437E-05,7.12429800842074E-06,0.3515625,0,0
-2.84831003227737E-05,8.75705609360011E-06,0.3515625,0,0
-2.91805172309978E-05,7.94745756138582E-06,0.3515625,0,0
-3.11034164042212E-05,8.55445978231728E-06,0.3515625,0,0
-3.06683323287871E-05,8.69666655489709E-06,0.3515625,0,0
-3.0179518944351E-05,8.4143184722052E-06,0.3515625,0,0
-2.74233225354692E-05,5.15112287757802E-06,0.3515625,0,0
-2.66717943304684E-05,3.1470390240429E-06,0.3515625,0,0
-2.63367346633459E-05,4.60029605164891E-06,0.3515625,0,0
-2.77440685749752E-05,1.05889230326284E-05,0.3515625,0,0
-2.75528109341394E-05,1.48682047438342E-05,0.3515625,0,0
-2.67876966972835E-05,1.52877801156137E-05,0.3515625,0,0
-2.63868969341274E-05,1.21672974273679E-05,0.3515625,0,0
-2.71849330601981E-05,9.30972237256356E-06,0.3515625,0,0
-2.29989564104471E-05,9.27682049223222E-06,0.3515625,0,0
-3.31080191244837E-05,1.39260018841014E-05,0.3515625,0,0
-2.43505437538261E-05,1.08192125480855E-05,0.3515625,0,0
-2.78418392554158E-05,1.25479227790493E-05,0.3515625,0,0
-2.28036133194109E-05,1.04375785667798E-05,0.3515625,0,0
-2.67703653662466E-05,1.14272625069134E-05,0.3515625,0,0
-2.43495978793362E-05,1.11640538307256E-05,0.3515625,0,0
-2.59193784586387E-05,1.05099861684721E-05,0.3515625,0,0
-2.53083235293161E-05,7.4870645221381E-06,0.3515625,0,0
-2.45575865847059E-05,6.99610927767935E-06,0.3515625,0,0
-2.30658370128367E-05,1.03652882899041E-05,0.3515625,0,0
-2.12777613342041E-05,1.23450254250201E-05,0.3515625,0,0
-2.14975134440465E-05,1.22671517601702E-05,0.3515625,0,0
-2.05857359105721E-05,1.10318042061408E-05,0.3515625,0,0
-2.2267688109423E-05,1.07422383734956E-05,0.3515625,0,0
-2.04166262847139E-05,8.68186907609925E-06,0.3515625,0,0
-2.0095998479519E-05,9.00309987628134E-06,0.3515625,0,0
-1.74397137016058E-05,1.13006926767412E-05,0.3515625,0,0
-1.72676063812105E-05,1.41701957545592E-05,0.3515625,0,0
-1.4399827705347E-05,1.40759411806357E-05,0.3515625,0,0
-1.42028429763741E-05,1.48021199493087E-05,0.3515625,0,0
-1.45139965752605E-05,1.69626891874941E-05,0.3515625,0,0
-1.73651715158485E-05,1.99059086298803E-05,0.3515625,0,0
-1.74018950929167E-05,2.04676907742396E-05,0.3515625,0,0
-1.61085445142817E-05,1.8567878214526E-05,0.3515625,0,0
-1.40344182000263E-05,1.57722515723435E-05,0.3515625,0,0
-1.42458238769905E-05,1.35262280309689E-05,0.3515625,0,0
-1.21405919344397E-05,1.04794289654819E-05,0.3515625,0,0
-1.50944388224161E-05,1.38516879815143E-05,0.3515625,0,0
-9.33801766223041E-06,9.06824425328523E-06,0.3515625,0,0
-1.36361823024345E-05,1.37509086926002E-05,0.3515625,0,0
-1.16410528789856E-05,1.43879024108173E-05,0.3515625,0,0
-1.28251031128457E-05,1.74450942722615E-05,0.3515625,0,0
-1.21494986160542E-05,1.60228464665124E-05,0.3515625,0,0
-1.7129741536337E-05,1.40959728014423E-05,0.3515625,0,0
-2.21918180614011E-05,1.25221740745474E-05,0.3515625,0,0
-2.58179152297089E-05,1.29367863337393E-05,0.3515625,0,0
-2.74058747891104E-05,1.38410196086625E-05,0.3515625,0,0
-2.73260375251994E-05,1.40581187224598E-05,0.3515625,0,0
-2.84248471871251E-05,1.50759187818039E-05,0.3515625,0,0
-2.80049061984755E-05,1.34941010401235E-05,0.3515625,0,0
-2.90013595076744E-05,1.01252817330533E-05,0.3515625,0,0
-2.8654820198426E-05,5.21856554769329E-06,0.3515625,0,0
-2.88999472104479E-05,3.15191937261261E-06,0.3515625,0,0
-2.71165245067095E-05,1.44766897847148E-06,0.3515625,0,0
-2.77010603895178E-05,1.39642770591308E-06,0.3515625,0,0
-2.87967832264258E-05,7.39179768061149E-07,0.3515625,0,0
-3.10485302179586E-05,3.46196344480632E-07,0.3515625,0,0
-3.05775247397833E-05,-3.35094966885663E-07,0.3515625,0,0
-3.0124319891911E-05,-9.13562914206523E-08,0.3515625,0,0
-3.00764804705977E-05,-5.91553316553473E-07,0.3515625,0,0
-3.07214468193706E-05,-5.14860971634334E-07,0.3515625,0,0
-3.14602330035996E-05,1.83099655259866E-06,0.3515625,0,0
-3.08626658807043E-05,6.15853059571236E-06,0.3515625,0,0
-2.29829292948125E-05,7.09685309630004E-06,0.3515625,0,0
-3.08895869238768E-05,1.0703189218475E-05,0.3515625,0,0
-2.27332584472606E-05,8.13422229839489E-06,0.3515625,0,0
-3.2259264116874E-05,8.55331745697185E-06,0.3515625,0,0
-2.98543436656473E-05,6.70842791805626E-06,0.3515625,0,0
-3.47028508258518E-05,7.95516007201513E-06,0.3515625,0,0
-3.24503707815893E-05,8.98965663509443E-06,0.3515625,0,0
-3.24915745295584E-05,1.17754452730878E-05,0.3515625,0,0
-2.98935356113361E-05,1.20206177598448E-05,0.3515625,0,0
-2.83498884527944E-05,1.00231463875389E-05,0.3515625,0,0
-2.82934452116024E-05,7.4559279710229E-06,0.3515625,0,0
-2.82874352706131E-05,6.63800938127679E-06,0.3515625,0,0
-2.96457728836685E-05,9.00780923984712E-06,0.3515625,0,0
-2.89536419586511E-05,1.15180346256238E-05,0.3515625,0,0
-3.09424103761557E-05,1.40813308462384E-05,0.3515625,0,0
-2.99355997412931E-05,1.55221659952076E-05,0.3515625,0,0
-3.08107373712119E-05,1.77349520527059E-05,0.3515625,0,0
-2.89789695671061E-05,1.81925715878606E-05,0.3515625,0,0
-2.99022922263248E-05,1.62322085088817E-05,0.3515625,0,0
-2.9381395506789E-05,9.76658066065283E-06,0.3515625,0,0
-3.08898925140966E-05,3.44320483236515E-06,0.3515625,0,0
-2.98168179142522E-05,-3.25737374851087E-08,0.3515625,0,0
-2.92105341941351E-05,-9.43156237553922E-08,0.3515625,0,0
-2.83662448055111E-05,2.21656637222623E-06,0.3515625,0,0
-2.92322274617618E-05,5.01792510476662E-06,0.3515625,0,0
-2.86744307231857E-05,4.99557881994406E-06,0.3515625,0,0
-2.73317273240536E-05,3.85795419788337E-06,0.3515625,0,0
-2.20783531403868E-05,3.82389953301754E-06,0.3515625,0,0
-3.27733396261465E-05,7.11626944394084E-06,0.3515625,0,0
-2.66477909462992E-05,8.01434725872241E-06,0.3515625,0,0
-3.30388720612973E-05,7.45090301279561E-06,0.3515625,0,0
-2.93016764771892E-05,3.47069385497889E-06,0.3515625,0,0
-3.20391518471297E-05,2.56259363595746E-06,0.3515625,0,0
-2.96946327580372E-05,2.27615396397596E-06,0.3515625,0,0
-3.07009577227291E-05,3.81717973141349E-06,0.3515625,0,0
-2.87241837213514E-05,6.54847781333956E-06,0.3515625,0,0
-2.56525072472868E-05,9.40630070545012E-06,0.3515625,0,0
-2.40458866755944E-05,1.10060436782078E-05,0.3515625,0,0
-2.4254912204924E-05,1.25399628814193E-05,0.3515625,0,0
-2.67292762146099E-05,1.68853566719918E-05,0.3515625,0,0
-2.54301121458411E-05,2.09850149985868E-05,0.3515625,0,0
-2.50080283876741E-05,2.27490854740608E-05,0.3515625,0,0
-2.24047671508743E-05,2.20853489736328E-05,0.3515625,0,0
-2.19594967347803E-05,2.13396560866386E-05,0.3515625,0,0
-1.91383860510541E-05,2.09799291042145E-05,0.3515625,0,0
-1.8816670490196E-05,2.17499527934706E-05,0.3515625,0,0
-1.80474999069702E-05,2.24200230150018E-05,0.3515625,0,0
-1.90839182323543E-05,2.25531512114685E-05,0.3515625,0,0
-1.6803627659101E-05,2.23795905185398E-05,0.3515625,0,0
-1.43904344440671E-05,2.21344271267299E-05,0.3515625,0,0
-1.2511440218077E-05,2.18283385038376E-05,0.3515625,0,0
-1.37858150992543E-05,2.41206271311967E-05,0.3515625,0,0
-1.56371024786495E-05,2.76847113127587E-05,0.3515625,0,0
-1.56992828124203E-05,2.88920418825001E-05,0.3515625,0,0
-1.10548326119897E-05,2.27034233830636E-05,0.3515625,0,0
-1.48605922731804E-05,3.16921141347848E-05,0.3515625,0,0
-1.1583702871576E-05,2.1746767743025E-05,0.3515625,0,0
-1.38673240144271E-05,2.63809906755341E-05,0.3515625,0,0
-8.29080181574682E-06,2.1042143998784E-05,0.3515625,0,0
-8.16179635876324E-06,2.42635396716651E-05,0.3515625,0,0
-7.07855497239507E-06,2.35539991990663E-05,0.3515625,0,0
-8.73905082698911E-06,2.57653900916921E-05,0.3515625,0,0
-9.20744332688628E-06,2.44654693233315E-05,0.3515625,0,0
-1.19260830615531E-05,2.40626650338527E-05,0.3515625,0,0
-1.68707010743674E-05,2.45485734922113E-05,0.3515625,0,0
-1.97655645024497E-05,2.35094303207006E-05,0.3515625,0,0
-2.02334376808722E-05,2.31711983360583E-05,0.3515625,0,0
-1.87524801731342E-05,2.03761665034108E-05,0.3515625,0,0
-2.03518375201384E-05,1.99302830878878E-05,0.3515625,0,0
-2.22838898480404E-05,1.85150220204378E-05,0.3515625,0,0
-2.46136914938688E-05,2.17842607526109E-05,0.3515625,0,0
-2.33089049288537E-05,2.23187998926733E-05,0.3515625,0,0
-2.25795483856928E-05,2.24234245251864E-05,0.3515625,0,0
-2.14397914533038E-05,1.86188008228783E-05,0.3515625,0,0
-2.15503459912725E-05,1.56517326104222E-05,0.3515625,0,0
-1.98097732209135E-05,1.1622348210949E-05,0.3515625,0,0
-1.76752400875557E-05,1.09549237095052E-05,0.3515625,0,0
-1.58392540470231E-05,1.16498767965822E-05,0.3515625,0,0
-1.5184703443083E-05,1.20651529869065E-05,0.3515625,0,0
-1.33966887005954E-05,9.97345796349691E-06,0.3515625,0,0
-1.14855929496116E-05,7.56567760618054E-06,0.3515625,0,0
-9.54573624767363E-06,3.99342934542801E-06,0.3515625,0,0
-1.57667927851435E-05,5.83251312491484E-06,0.3515625,0,0
-1.58607854245929E-05,4.69799942948157E-06,0.3515625,0,0
-2.04803454835201E-05,5.58829015062656E-06,0.3515625,0,0
-2.05324558919529E-05,3.99005330109503E-06,0.3515625,0,0
-2.31271933444077E-05,8.04307887847244E-07,0.3515625,0,0
-2.33607388508972E-05,-2.75291858997662E-06,0.3515625,0,0
-2.60357046499848E-05,-2.25457779379212E-06,0.3515625,0,0
-2.90500429400709E-05,2.93549447860642E-07,0.3515625,0,0
-3.12971606035717E-05,3.70265615856624E-06,0.3515625,0,0
-3.26270783261862E-05,6.38726214674534E-06,0.3515625,0,0
-3.36275625159033E-05,7.7728273026878E-06,0.3515625,0,0
-3.572339846869E-05,8.04351748229237E-06,0.3515625,0,0
-3.72536051145289E-05,7.37953268981073E-06,0.3515625,0,0
-4.0529113903176E-05,6.4655464484531E-06,0.3515625,0,0
-4.29025785706472E-05,5.45656530448468E-06,0.3515625,0,0
-4.43967583123595E-05,5.23679636899033E-06,0.3515625,0,0
-4.32484339398798E-05,4.18281933889375E-06,0.3515625,0,0
-4.29815590905491E-05,4.29227611675742E-06,0.3515625,0,0
-4.24844583903905E-05,5.4848674153618E-06,0.3515625,0,0
-4.22461598645896E-05,7.02863826518296E-06,0.3515625,0,0
-4.15272479585838E-05,6.91258355800528E-06,0.3515625,0,0
-4.1159331885865E-05,6.29265105089871E-06,0.3515625,0,0
-4.09906278946437E-05,6.10477673035348E-06,0.3515625,0,0
-4.13588313676883E-05,5.86284158998751E-06,0.3515625,0,0
-4.11121072829701E-05,4.78433094031061E-06,0.3515625,0,0
-4.12575354857836E-05,4.3258896766929E-06,0.3515625,0,0
-3.30295952153392E-05,6.27458803137415E-06,0.3515625,0,0
-4.39205032307655E-05,1.11222479972639E-05,0.3515625,0,0
-2.96908874588553E-05,1.05528788481024E-05,0.3515625,0,0
-3.95266542909667E-05,1.05120980151696E-05,0.3515625,0,0
-3.19036153086927E-05,9.14588235900737E-06,0.3515625,0,0
-3.38922545779496E-05,1.12511788756819E-05,0.3515625,0,0
-2.81957727565896E-05,1.13954165499308E-05,0.3515625,0,0
-3.03170436382061E-05,1.14388003567001E-05,0.3515625,0,0
-2.84735506284051E-05,1.08455824374687E-05,0.3515625,0,0
-2.6734667699202E-05,9.9548824437079E-06,0.3515625,0,0
-2.5827002900769E-05,8.77661932463525E-06,0.3515625,0,0
-2.35251627600519E-05,6.28720545137185E-06,0.3515625,0,0
-2.49081349465996E-05,3.46695105690742E-06,0.3515625,0,0
-2.42975293076597E-05,1.09358927602443E-06,0.3515625,0,0
-2.54321967076976E-05,1.24720077110396E-06,0.3515625,0,0
-2.1246713004075E-05,2.93211064672505E-06,0.3515625,0,0
-2.22202397708315E-05,6.97298082741327E-06,0.3515625,0,0
-2.02230330614839E-05,7.75098214944592E-06,0.3515625,0,0
-2.05291926249629E-05,3.59585578735278E-06,0.3515625,0,0
-1.86807101272279E-05,-1.50596849834983E-06,0.3515625,0,0
-2.07593620871194E-05,-1.9486294604576E-06,0.3515625,0,0
-1.9403747501201E-05,9.05098431758233E-07,0.3515625,0,0
-1.92715815501288E-05,6.08251730227494E-06,0.3515625,0,0
-1.78658683580579E-05,1.08474750959431E-05,0.3515625,0,0
-1.67237139976351E-05,1.25554179248866E-05,0.3515625,0,0
-1.53524033521535E-05,9.3440139607992E-06,0.3515625,0,0
-1.52888096636161E-05,2.13026828532747E-06,0.3515625,0,0
-1.13707892523962E-05,-1.06489505924401E-06,0.3515625,0,0
-1.45453132063267E-05,1.71691669947904E-06,0.3515625,0,0
-1.0716022188717E-05,7.15556370778359E-06,0.3515625,0,0
-1.67090602190001E-05,9.11861570784822E-06,0.3515625,0,0
-1.66381942108274E-05,1.12593170342734E-05,0.3515625,0,0
-1.78673835762311E-05,1.21426401165081E-05,0.3515625,0,0
-1.60342824528925E-05,1.21560069601401E-05,0.3515625,0,0
-1.74409924511565E-05,1.20560216601007E-05,0.3515625,0,0
-1.81722571142018E-05,1.2017799235764E-05,0.3515625,0,0
-1.94941658264725E-05,1.01525329228025E-05,0.3515625,0,0
-2.14745032280916E-05,8.8942242655321E-06,0.3515625,0,0
-2.12722716241842E-05,1.05300678114872E-05,0.3515625,0,0
-2.10095549846301E-05,1.32349196064752E-05,0.3515625,0,0
-2.10451271414058E-05,1.48508415804827E-05,0.3515625,0,0
-2.32875227084151E-05,1.35024201881606E-05,0.3515625,0,0
-2.45020346483216E-05,1.15426410047803E-05,0.3515625,0,0
-2.71569933829596E-05,1.09169031929923E-05,0.3515625,0,0
-2.78111765510403E-05,1.23911631817464E-05,0.3515625,0,0
-2.86328486254206E-05,1.38079985845252E-05,0.3515625,0,0
-2.79323357972316E-05,1.36281760205748E-05,0.3515625,0,0
-2.76876489806455E-05,1.19627711683279E-05,0.3515625,0,0
-2.68603034783155E-05,1.05041390270344E-05,0.3515625,0,0
-2.69932315859478E-05,9.84511279966682E-06,0.3515625,0,0
-2.5635352358222E-05,1.13377391244285E-05,0.3515625,0,0
-2.23984206968453E-05,1.40297024699976E-05,0.3515625,0,0
-1.71464998857118E-05,1.65818619279889E-05,0.3515625,0,0
-1.39305357151898E-05,1.63604418048635E-05,0.3515625,0,0
-1.21289340313524E-05,1.11387444121647E-05,0.3515625,0,0
-1.87889090739191E-05,1.48411145346472E-05,0.3515625,0,0
-1.56818696268601E-05,8.77154980116757E-06,0.3515625,0,0
-1.83809806912905E-05,8.56481347000226E-06,0.3515625,0,0
-1.65496148838429E-05,2.88838214146381E-06,0.3515625,0,0
-1.83234460564563E-05,4.02648902309011E-06,0.3515625,0,0
-1.63139538926771E-05,4.01392571802717E-06,0.3515625,0,0
-1.49240240716608E-05,4.54172277386533E-06,0.3515625,0,0
-1.26247123262146E-05,3.30058787767484E-06,0.3515625,0,0
-1.14864706119988E-05,4.63958303953405E-06,0.3515625,0,0
-1.14456270239316E-05,6.69310065859463E-06,0.3515625,0,0
-1.13246624096064E-05,6.23886944595142E-06,0.3515625,0,0
-1.14188278530492E-05,6.14850614510942E-06,0.3515625,0,0
-1.13471087388461E-05,5.57044859306188E-06,0.3515625,0,0
-1.45049370985362E-05,5.79803418077063E-06,0.3515625,0,0
-1.71916362887714E-05,3.96713812733651E-06,0.3515625,0,0
-1.93043306353502E-05,3.25869382322708E-06,0.3515625,0,0
-1.85051376320189E-05,2.22279300032824E-06,0.3515625,0,0
-1.83754709723871E-05,3.21191600960447E-06,0.3515625,0,0
-1.81505929504056E-05,3.85168959837756E-06,0.3515625,0,0
-1.89892671187408E-05,7.20025946066016E-06,0.3515625,0,0
-1.80798579094699E-05,9.72350517258747E-06,0.3515625,0,0
-1.8738077415037E-05,7.79623678681673E-06,0.3515625,0,0
-2.10552680073306E-05,3.41457734975847E-06,0.3515625,0,0
-2.44436250795843E-05,3.10183281726495E-06,0.3515625,0,0
-2.61405311903218E-05,4.43771796199144E-06,0.3515625,0,0
-2.63456022366881E-05,5.47487297808402E-06,0.3515625,0,0
-2.08098917937605E-05,4.92656681672088E-06,0.3515625,0,0
-3.04186869470868E-05,7.59911381464917E-06,0.3515625,0,0
-2.54603146458976E-05,7.55351857151254E-06,0.3515625,0,0
-3.17711928801145E-05,1.0922015462711E-05,0.3515625,0,0
-2.71472072199686E-05,1.14924305307795E-05,0.3515625,0,0
-3.14122989948373E-05,1.04570272014826E-05,0.3515625,0,0
-3.09407259919681E-05,7.64630203775596E-06,0.3515625,0,0
-3.29518043145072E-05,9.04779881238937E-06,0.3515625,0,0
-3.12948213831987E-05,1.17268791655079E-05,0.3515625,0,0
-3.07858463202138E-05,1.50483583638561E-05,0.3515625,0,0
-3.24564352922607E-05,1.82449748535873E-05,0.3515625,0,0
-3.49915972037707E-05,1.84609380085021E-05,0.3515625,0,0
-3.92341571568977E-05,1.69154209288536E-05,0.3515625,0,0
-3.96457326132804E-05,1.5485205949517E-05,0.3515625,0,0
-3.96601790271234E-05,2.08711553568719E-05,0.3515625,0,0
-3.61093043466099E-05,3.76041971321683E-05,0.3515625,0,0
-3.55163865606301E-05,6.12247749813832E-05,0.3515625,0,0
-3.35287077177782E-05,7.91872444096953E-05,0.3515625,0,0
-3.3574895496713E-05,8.84235414559953E-05,0.3515625,0,0
-3.11745461658575E-05,8.96724523045123E-05,0.3515625,0,0
-3.12091178784613E-05,8.66425834828988E-05,0.3515625,0,0
-3.10350224026479E-05,8.57497288961895E-05,0.3515625,0,0
-3.13329437631182E-05,8.94689947017469E-05,0.3515625,0,0
-2.90348507405724E-05,9.22164545045234E-05,0.3515625,0,0
-2.74061349045951E-05,9.36070864554495E-05,0.3515625,0,0
-2.7336236598785E-05,9.28436274989508E-05,0.3515625,0,0
-2.7189395041205E-05,8.92163589014672E-05,0.3515625,0,0
-2.02957889996469E-05,6.81852543493733E-05,0.3515625,0,0
-2.80357435258338E-05,9.33596311369911E-05,0.3515625,0,0
-2.03325562324608E-05,6.24629537924193E-05,0.3515625,0,0
-2.61793811660027E-05,7.42234333301894E-05,0.3515625,0,0
-2.27824766625417E-05,5.34650826011784E-05,0.3515625,0,0
-2.62623689195607E-05,5.80122978135478E-05,0.3515625,0,0
-2.42944897763664E-05,4.73321888421196E-05,0.3515625,0,0
-2.48153464781353E-05,4.93304432893638E-05,0.3515625,0,0
-2.37136664509308E-05,4.18325689679477E-05,0.3515625,0,0
-2.31419344345341E-05,3.46747947332915E-05,0.3515625,0,0
-2.30263340199599E-05,2.92709901259514E-05,0.3515625,0,0
-2.21763857553015E-05,2.36398482229561E-05,0.3515625,0,0
-2.22629623749526E-05,2.22991020564223E-05,0.3515625,0,0
-2.12953345908318E-05,1.28772235257202E-05,0.3515625,0,0
-2.34433719015215E-05,1.12232801257051E-05,0.3515625,0,0
-2.42804417212028E-05,4.7175108193187E-06,0.3515625,0,0
-2.67676150542684E-05,6.44356305201654E-06,0.3515625,0,0
-2.62607318290975E-05,-6.40767041204526E-07,0.3515625,0,0
-2.67664363491349E-05,-1.92924585462606E-06,0.3515625,0,0
-2.54847145697568E-05,-8.83208940649638E-06,0.3515625,0,0
-2.67113500740379E-05,-8.10654910310404E-06,0.3515625,0,0
-2.66544902842725E-05,-1.13904270619969E-05,0.3515625,0,0
-2.71348217211198E-05,-1.2368926036288E-05,0.3515625,0,0
-2.55006616498576E-05,-1.80881033884361E-05,0.3515625,0,0
-2.35504285228672E-05,-2.13554085348733E-05,0.3515625,0,0
-2.02863520826213E-05,-2.32405345741427E-05,0.3515625,0,0
-1.64084594871383E-05,-2.20556376007153E-05,0.3515625,0,0
-9.97327060758835E-06,-1.97722165466985E-05,0.3515625,0,0
-1.35679129016353E-05,-3.1710704206489E-05,0.3515625,0,0
-9.78047501121182E-06,-2.5712079150253E-05,0.3515625,0,0
-1.23974841699237E-05,-2.75488946499536E-05,0.3515625,0,0
-1.13225451059407E-05,-2.08936198760057E-05,0.3515625,0,0
-1.34344572870759E-05,-2.40863864746643E-05,0.3515625,0,0
-1.12166326289298E-05,-2.1721327357227E-05,0.3515625,0,0
-1.07253472378943E-05,-2.3296537619899E-05,0.3515625,0,0
-1.1032956535928E-05,-2.4551605747547E-05,0.3515625,0,0
-1.30537637232919E-05,-2.62032881437335E-05,0.3515625,0,0
-1.52121283463202E-05,-2.64801383309532E-05,0.3515625,0,0
-1.73042699316284E-05,-2.65682247118093E-05,0.3515625,0,0
-2.03928648261353E-05,-2.80499061773298E-05,0.3515625,0,0
-2.09553745662561E-05,-2.82856035482837E-05,0.3515625,0,0
-2.1516154447454E-05,-3.17615449603181E-05,0.3515625,0,0
-2.20478650589939E-05,-3.3814965718193E-05,0.3515625,0,0
-2.55203831329709E-05,-3.53096329490654E-05,0.3515625,0,0
-2.7647489332594E-05,-3.19044702337123E-05,0.3515625,0,0
-2.87657967419364E-05,-3.05979883705731E-05,0.3515625,0,0
-2.73828063654946E-05,-3.01201671391027E-05,0.3515625,0,0
-2.61144505202537E-05,-3.21915467793588E-05,0.3515625,0,0
-2.51339733949862E-05,-2.9780536351609E-05,0.3515625,0,0
-2.64870686805807E-05,-2.71420722128823E-05,0.3515625,0,0
-2.62639732682146E-05,-2.51568890234921E-05,0.3515625,0,0
-2.28316512220772E-05,-2.44477632804774E-05,0.3515625,0,0
-1.78845784830628E-05,-2.20857364183757E-05,0.3515625,0,0
-1.5153243111854E-05,-1.9499180780258E-05,0.3515625,0,0
-1.26663217088208E-05,-1.53926412167493E-05,0.3515625,0,0
-1.94389958778629E-05,-2.23831611947389E-05,0.3515625,0,0
-1.77184319909429E-05,-2.02254868781893E-05,0.3515625,0,0
-2.27610998990713E-05,-2.81529428320937E-05,0.3515625,0,0
-1.83316769835074E-05,-2.45414885284845E-05,0.3515625,0,0
-1.65457113325829E-05,-2.30448222282575E-05,0.3515625,0,0
-1.45314052133472E-05,-1.72580985235982E-05,0.3515625,0,0
-1.60009403771255E-05,-1.51622552948538E-05,0.3515625,0,0
-1.59866667672759E-05,-1.49840498124831E-05,0.3515625,0,0
-1.56487494678004E-05,-1.62989999807905E-05,0.3515625,0,0
-1.6414443962276E-05,-1.70071380125592E-05,0.3515625,0,0
-1.65390538313659E-05,-1.51597332660458E-05,0.3515625,0,0
-1.81480863830075E-05,-1.25690194181516E-05,0.3515625,0,0
-1.96538094314747E-05,-7.99544068286195E-06,0.3515625,0,0
-2.16677035496105E-05,-6.13635256740963E-06,0.3515625,0,0
-2.12575305340579E-05,-3.85930843549431E-06,0.3515625,0,0
-2.24787308980012E-05,-4.52143922302639E-06,0.3515625,0,0
-2.35038423852529E-05,-4.34774801760796E-06,0.3515625,0,0
-2.54263959504897E-05,-6.25331267656293E-06,0.3515625,0,0
-2.55804516200442E-05,-6.6626653278945E-06,0.3515625,0,0
-2.56720122706611E-05,-6.03521448283573E-06,0.3515625,0,0
-2.43689737544628E-05,-2.51534083872684E-06,0.3515625,0,0
-2.33439859584905E-05,-3.91614349837255E-07,0.3515625,0,0
-2.22639155254001E-05,-4.74115637416617E-07,0.3515625,0,0
-2.29776269407012E-05,-1.74618014625594E-06,0.3515625,0,0
-2.42114620050415E-05,-2.93393873107561E-06,0.3515625,0,0
-2.35238549066707E-05,-5.7335105339007E-06,0.3515625,0,0
-1.74138676811708E-05,-5.61506612939411E-06,0.3515625,0,0
-2.38630473177182E-05,-4.74371199743473E-06,0.3515625,0,0
-1.74021242855815E-05,4.32024035035283E-06,0.3515625,0,0
-2.25179555854993E-05,9.63772890827386E-06,0.3515625,0,0
-2.00839112949325E-05,1.37609094963409E-05,0.3515625,0,0
-2.53213656833395E-05,1.18870329970377E-05,0.3515625,0,0
-2.61039403994801E-05,1.20713593787514E-05,0.3515625,0,0
-2.79034393315669E-05,1.34224592329701E-05,0.3515625,0,0
-2.51052861131029E-05,1.41138989420142E-05,0.3515625,0,0
-2.35040715779178E-05,1.40518650368904E-05,0.3515625,0,0
-2.48770647885976E-05,1.37517590701464E-05,0.3515625,0,0
-2.66769620793639E-05,1.44497762448736E-05,0.3515625,0,0
-2.93100474664243E-05,1.51173308040597E-05,0.3515625,0,0
-3.03645774692995E-05,1.63175518537173E-05,0.3515625,0,0
-3.39185535267461E-05,1.69207614817424E-05,0.3515625,0,0
-3.45980406564195E-05,1.70164730661782E-05,0.3515625,0,0
-3.57623684976716E-05,1.59548180818092E-05,0.3515625,0,0
-3.49220536008943E-05,1.56486075866269E-05,0.3515625,0,0
-3.56967175321188E-05,1.43139432111639E-05,0.3515625,0,0
-3.31171686411835E-05,1.3527819646697E-05,0.3515625,0,0
-3.12635165755637E-05,1.27966350191855E-05,0.3515625,0,0
-2.95896334137069E-05,1.24575999507215E-05,0.3515625,0,0
-2.9722235922236E-05,1.22708688650164E-05,0.3515625,0,0
-2.81977372651454E-05,1.27299254017998E-05,0.3515625,0,0
-2.69158299488481E-05,1.40613610710716E-05,0.3515625,0,0
-2.57454412349034E-05,1.68864899023902E-05,0.3515625,0,0
-2.5440844183322E-05,1.91075323527912E-05,0.3515625,0,0
-2.20620840991614E-05,1.47865084727528E-05,0.3515625,0,0
-3.22620653605554E-05,1.87788737093797E-05,0.3515625,0,0
-2.47323405346833E-05,9.42612496146467E-06,0.3515625,0,0
-2.96601592708612E-05,1.13106416392839E-05,0.3515625,0,0
-2.66860442934558E-05,1.00710994956899E-05,0.3515625,0,0
-3.21528459608089E-05,1.67260022863047E-05,0.3515625,0,0
-3.09184833895415E-05,1.79356175067369E-05,0.3515625,0,0
-3.21264160447754E-05,2.06458698812639E-05,0.3515625,0,0
-3.24756438203622E-05,2.06196491490118E-05,0.3515625,0,0
-3.43772735504899E-05,2.05625947273802E-05,0.3515625,0,0
-3.55599731847178E-05,2.03427116503008E-05,0.3515625,0,0
-3.37418787239585E-05,1.91418748727301E-05,0.3515625,0,0
-3.24491375067737E-05,2.01477505470393E-05,0.3515625,0,0
-2.86877857433865E-05,2.00263839360559E-05,0.3515625,0,0
-2.7516874979483E-05,2.10819143831031E-05,0.3515625,0,0
-2.46421277552145E-05,1.98468424059683E-05,0.3515625,0,0
-2.46974977926584E-05,1.97588778974023E-05,0.3515625,0,0
-2.34162871493027E-05,1.95777593035018E-05,0.3515625,0,0
-2.55903960351134E-05,2.4062319425866E-05,0.3515625,0,0
-2.69704978563823E-05,2.61775767285144E-05,0.3515625,0,0
-2.95242170977872E-05,2.59454645856749E-05,0.3515625,0,0
-2.97279730148148E-05,2.40349145315122E-05,0.3515625,0,0
-3.02851312881103E-05,2.48147953243461E-05,0.3515625,0,0
-2.98380073218141E-05,2.54171864071395E-05,0.3515625,0,0
-2.98831801046617E-05,2.42803907894995E-05,0.3515625,0,0
-2.99436596833402E-05,2.10032649192726E-05,0.3515625,0,0
-3.0374554626178E-05,1.64646644407185E-05,0.3515625,0,0
-2.39666387642501E-05,1.18662146633142E-05,0.3515625,0,0
-3.35288677888457E-05,1.85236021934543E-05,0.3515625,0,0
-2.38054872170324E-05,1.622022864467E-05,0.3515625,0,0
-2.84198504232336E-05,1.7031865354511E-05,0.3515625,0,0
-2.32167440117337E-05,1.19202550195041E-05,0.3515625,0,0
-2.68604489974678E-05,1.36498174470034E-05,0.3515625,0,0
-2.34975595958531E-05,1.41772561619291E-05,0.3515625,0,0
-2.36594569287263E-05,1.60036834131461E-05,0.3515625,0,0
-2.26310075959191E-05,1.63261320267338E-05,0.3515625,0,0
-2.25880849029636E-05,1.63347121997504E-05,0.3515625,0,0
-2.19606081373058E-05,1.43896950248745E-05,0.3515625,0,0
-1.99814239749685E-05,1.17758308988414E-05,0.3515625,0,0
-1.99431106011616E-05,1.28921974464902E-05,0.3515625,0,0
-1.85261706064921E-05,1.59386108862236E-05,0.3515625,0,0
-2.01107341126772E-05,2.114913877449E-05,0.3515625,0,0
-1.89344682439696E-05,2.42203714151401E-05,0.3515625,0,0
-1.92131992662326E-05,2.63175206782762E-05,0.3515625,0,0
-1.68943679454969E-05,2.55300947173964E-05,0.3515625,0,0
-1.77256879396737E-05,2.55551331065362E-05,0.3515625,0,0
-1.72288491739891E-05,2.45285791606875E-05,0.3515625,0,0
-1.9793187675532E-05,2.45041628659237E-05,0.3515625,0,0
-2.09429053938948E-05,2.46146373683587E-05,0.3515625,0,0
-2.33632836170727E-05,2.47704047069419E-05,0.3515625,0,0
-2.47474854404572E-05,2.29694724112051E-05,0.3515625,0,0
-2.63961592281703E-05,2.0768808099092E-05,0.3515625,0,0
-2.69199917966034E-05,1.6264546502498E-05,0.3515625,0,0
-2.6164949304075E-05,1.00042643680354E-05,0.3515625,0,0
-1.97594090423081E-05,3.16168825520435E-06,0.3515625,0,0
-2.7647723982227E-05,4.95035374115105E-06,0.3515625,0,0
-2.19688317883993E-05,7.72161092754686E-06,0.3515625,0,0
-2.70014970737975E-05,1.23919289762853E-05,0.3515625,0,0
-2.00702997972257E-05,1.34044657897903E-05,0.3515625,0,0
-2.15046311495826E-05,1.57677186507499E-05,0.3515625,0,0
-1.93647119886009E-05,1.7098247553804E-05,0.3515625,0,0
-2.0790052076336E-05,1.83683623617981E-05,0.3515625,0,0
-1.97491408471251E-05,1.6466861779918E-05,0.3515625,0,0
-1.99031255760929E-05,1.31517517729662E-05,0.3515625,0,0
-2.17321194213582E-05,1.17514391604345E-05,0.3515625,0,0
-2.26025949814357E-05,1.28562396639609E-05,0.3515625,0,0
-2.33780720009236E-05,1.4327263670566E-05,0.3515625,0,0
-2.08324836421525E-05,1.35026239149738E-05,0.3515625,0,0
-2.12963386729825E-05,1.13473306555534E-05,0.3515625,0,0
-2.11279384529917E-05,9.00025042938069E-06,0.3515625,0,0
-2.34249109780649E-05,7.91573256719857E-06,0.3515625,0,0
-2.36068117374089E-05,5.90886838836013E-06,0.3515625,0,0
-2.59765001828782E-05,3.9280666896957E-06,0.3515625,0,0
-2.57657666224986E-05,3.67476968676783E-06,0.3515625,0,0
-2.6714555133367E-05,6.52122844257974E-06,0.3515625,0,0
-2.67470895778388E-05,9.64560786087532E-06,0.3515625,0,0
-2.75771108135814E-05,1.20503409561934E-05,0.3515625,0,0
-2.60571541730314E-05,1.15096972876927E-05,0.3515625,0,0
-2.42062706092838E-05,9.65246999840019E-06,0.3515625,0,0
-2.29486613534391E-05,9.11025745153893E-06,0.3515625,0,0
-2.29841298278188E-05,1.00608449429274E-05,0.3515625,0,0
-1.83990687219193E-05,9.93204503174638E-06,0.3515625,0,0
-2.43949507421348E-05,1.4920806279406E-05,0.3515625,0,0
-1.55519228428602E-05,1.35533173306612E-05,0.3515625,0,0
-2.04728457902092E-05,1.77263736986788E-05,0.3515625,0,0
-1.79033540916862E-05,1.53670262079686E-05,0.3515625,0,0
-2.08440324058756E-05,1.48926128531457E-05,0.3515625,0,0
-1.93244395632064E-05,1.18003990792204E-05,0.3515625,0,0
-2.12534232559847E-05,1.19515589176444E-05,0.3515625,0,0
-2.21151658479357E-05,1.32494906210923E-05,0.3515625,0,0
-2.30506357183913E-05,1.46620686791721E-05,0.3515625,0,0
-2.32200272876071E-05,1.38320710902917E-05,0.3515625,0,0
-2.19691482925555E-05,1.16314122351469E-05,0.3515625,0,0
-2.3029548174236E-05,1.07156974991085E-05,0.3515625,0,0
-2.39126002270496E-05,8.40191751194652E-06,0.3515625,0,0
-2.72427969321143E-05,6.60692785459105E-06,0.3515625,0,0
-2.7786118153017E-05,4.98531244375044E-06,0.3515625,0,0
-2.86420545307919E-05,7.9707915574545E-06,0.3515625,0,0
-2.70572636509314E-05,1.24196358228801E-05,0.3515625,0,0
-2.85885853372747E-05,1.60877352755051E-05,0.3515625,0,0
-2.94151050184155E-05,1.50491750900983E-05,0.3515625,0,0
-3.07748377963435E-05,1.29642576212063E-05,0.3515625,0,0
-3.01805775961839E-05,1.23582458400051E-05,0.3515625,0,0
-2.94428791676182E-05,1.58276834554272E-05,0.3515625,0,0
-2.74128669843776E-05,1.84638756763889E-05,0.3515625,0,0
-2.80192343780072E-05,1.85985172720393E-05,0.3515625,0,0
-2.89784275082638E-05,1.71167066582711E-05,0.3515625,0,0
-2.85983442154247E-05,1.66488262038911E-05,0.3515625,0,0
-2.2190199160832E-05,1.45632511703297E-05,0.3515625,0,0
-3.25988512486219E-05,2.14992687688209E-05,0.3515625,0,0
-2.68275853159139E-05,1.64166540344013E-05,0.3515625,0,0
-3.25294349750038E-05,1.74829001480248E-05,0.3515625,0,0
-2.70800301223062E-05,1.28249293993576E-05,0.3515625,0,0
-3.10305149469059E-05,1.5654102753615E-05,0.3515625,0,0
-2.98779141303385E-05,1.3414606655715E-05,0.3515625,0,0
-3.04466211673571E-05,1.04674481917755E-05,0.3515625,0,0
-2.7460440833238E-05,7.34489458409371E-06,0.3515625,0,0
-2.54914739343803E-05,9.52156915445812E-06,0.3515625,0,0
-2.44623006437905E-05,1.43747611218714E-05,0.3515625,0,0
-2.30316945817322E-05,1.67740126926219E-05,0.3515625,0,0
-2.33374066738179E-05,1.6890095139388E-05,0.3515625,0,0
-2.2024723875802E-05,1.3486938769347E-05,0.3515625,0,0
-2.2237911252887E-05,1.17533872980857E-05,0.3515625,0,0
-1.92698753380682E-05,1.02631438494427E-05,0.3515625,0,0
-2.02303453988861E-05,1.22063438539044E-05,0.3515625,0,0
-2.12335035030264E-05,1.34380170493387E-05,0.3515625,0,0
-2.54079550359165E-05,1.45117301144637E-05,0.3515625,0,0
-2.79497980955057E-05,1.08106287370902E-05,0.3515625,0,0
-3.18140737363137E-05,6.82007703289855E-06,0.3515625,0,0
-3.18178172165062E-05,4.73190493721631E-06,0.3515625,0,0
-3.06576293951366E-05,4.04687807531445E-06,0.3515625,0,0
-2.75294878520072E-05,6.31730259215146E-08,0.3515625,0,0
-2.58892614510842E-05,-1.63993240676064E-06,0.3515625,0,0
-2.5923945941031E-05,3.69261101695884E-07,0.3515625,0,0
-2.69379615929211E-05,3.26123767990794E-06,0.3515625,0,0
-2.24773611989804E-05,4.80254630019772E-06,0.3515625,0,0
-3.24424399877898E-05,9.76106275629718E-06,0.3515625,0,0
-2.49863605858991E-05,1.19914075185079E-05,0.3515625,0,0
-3.1052728445502E-05,1.31788456201321E-05,0.3515625,0,0
-2.88849569187732E-05,1.14808472062577E-05,0.3515625,0,0
-3.45503103744704E-05,1.27782022900647E-05,0.3515625,0,0
-3.20406979881227E-05,1.38474761115503E-05,0.3515625,0,0
-3.11386065732222E-05,1.41090386023279E-05,0.3515625,0,0
-2.87960338027915E-05,1.41025147968321E-05,0.3515625,0,0
-2.78113202512031E-05,1.371957387164E-05,0.3515625,0,0
-2.59597618423868E-05,1.29991303765564E-05,0.3515625,0,0
-2.27310138143366E-05,1.2145824257459E-05,0.3515625,0,0
-2.25329531531315E-05,1.02661215350963E-05,0.3515625,0,0
-2.08796445804182E-05,7.92315313447034E-06,0.3515625,0,0
-2.09449826797936E-05,8.10188339528395E-06,0.3515625,0,0
-1.87859841389582E-05,1.01788182291784E-05,0.3515625,0,0
-2.07472203328507E-05,1.28335659610457E-05,0.3515625,0,0
-2.11274818866514E-05,1.35649270305294E-05,0.3515625,0,0
-2.20250312850112E-05,1.32000122903264E-05,0.3515625,0,0
-1.92861243704101E-05,1.30496255223989E-05,0.3515625,0,0
-1.84286000148859E-05,1.36225553433178E-05,0.3515625,0,0
-1.7916190699907E-05,1.19866899694898E-05,0.3515625,0,0
-2.02183782676002E-05,8.98839880392188E-06,0.3515625,0,0
-2.159801988455E-05,5.9452218010847E-06,0.3515625,0,0
-2.13780367630534E-05,3.63472599929082E-06,0.3515625,0,0
-1.88117428479018E-05,2.82128303297213E-06,0.3515625,0,0
-1.81347222678596E-05,2.87106377072632E-06,0.3515625,0,0
-1.55505749717122E-05,4.23468782173586E-06,0.3515625,0,0
-2.26888914767187E-05,7.03415435054922E-06,0.3515625,0,0
-1.83025986189023E-05,6.11793211646727E-06,0.3515625,0,0
-2.33770424529212E-05,5.65464324608911E-06,0.3515625,0,0
-2.01298717001919E-05,1.42045439588401E-06,0.3515625,0,0
-2.13563507713843E-05,-1.85294413768133E-06,0.3515625,0,0
-2.07413177122362E-05,-1.31137858261354E-06,0.3515625,0,0
-2.17831457121065E-05,3.76930233869643E-06,0.3515625,0,0
-2.00187714654021E-05,7.49705213820562E-06,0.3515625,0,0
-1.97220979316626E-05,9.16280805540737E-06,0.3515625,0,0
-2.14435603993479E-05,1.03739512269385E-05,0.3515625,0,0
-2.25788135139737E-05,1.03022812254494E-05,0.3515625,0,0
-2.4819059035508E-05,9.13089934329037E-06,0.3515625,0,0
-2.47063471761066E-05,5.88916054766742E-06,0.3515625,0,0
-2.48918640863849E-05,4.26592168878415E-06,0.3515625,0,0
-2.29363085963996E-05,5.72385988562019E-06,0.3515625,0,0
-2.29347660933854E-05,9.38266566663515E-06,0.3515625,0,0
-2.23924726014957E-05,1.21379589472781E-05,0.3515625,0,0
-2.46115814661607E-05,1.31651495394181E-05,0.3515625,0,0
-2.66922543232795E-05,1.16993642222951E-05,0.3515625,0,0
-2.98922095680609E-05,1.06019178929273E-05,0.3515625,0,0
-3.14501121465582E-05,1.07679779830505E-05,0.3515625,0,0
-3.26995432260446E-05,1.19584965432296E-05,0.3515625,0,0
-3.34885808115359E-05,1.39858575494145E-05,0.3515625,0,0
-3.34478063450661E-05,1.585426798556E-05,0.3515625,0,0
-3.03444376186235E-05,1.77602723852033E-05,0.3515625,0,0
-2.63477049884386E-05,1.84113541763509E-05,0.3515625,0,0
-1.89184956980171E-05,1.34528245325782E-05,0.3515625,0,0
-2.61169407167472E-05,1.97119661606848E-05,0.3515625,0,0
-1.83350148290629E-05,1.6727666661609E-05,0.3515625,0,0
-2.22690287046134E-05,2.12426512007369E-05,0.3515625,0,0
-1.83143110916717E-05,1.72163508977974E-05,0.3515625,0,0
-2.08486471819924E-05,1.6914093066589E-05,0.3515625,0,0
-1.83918564289343E-05,1.40382726385724E-05,0.3515625,0,0
-1.95388201973401E-05,1.42992257678998E-05,0.3515625,0,0
-1.83400607056683E-05,1.16521005111281E-05,0.3515625,0,0
-1.90999380720314E-05,9.18176192499232E-06,0.3515625,0,0
-2.03919171326561E-05,8.36058461572975E-06,0.3515625,0,0
-2.03805830096826E-05,9.36706510401564E-06,0.3515625,0,0
-2.07292978302576E-05,1.29355748867965E-05,0.3515625,0,0
-1.77818365045823E-05,1.42753096952219E-05,0.3515625,0,0
-1.57133035827428E-05,1.59156752488343E-05,0.3515625,0,0
-1.22903302326449E-05,1.66928330145311E-05,0.3515625,0,0
-1.28868496176437E-05,1.85781791515183E-05,0.3515625,0,0
-1.22311057566549E-05,1.75613349711057E-05,0.3515625,0,0
-1.334255830443E-05,1.72193358594086E-05,0.3515625,0,0
-1.18442831080756E-05,1.49424231494777E-05,0.3515625,0,0
-1.13987589429598E-05,1.28868459796649E-05,0.3515625,0,0
-8.98790040082531E-06,1.01971627373132E-05,0.3515625,0,0
-7.34574632588192E-06,1.03668799056322E-05,0.3515625,0,0
-6.61020112602273E-06,1.11618146547698E-05,0.3515625,0,0
-8.95103494258365E-06,1.39942530950066E-05,0.3515625,0,0
-1.12657271529315E-05,1.94699350686278E-05,0.3515625,0,0
-1.22379433378228E-05,2.22937214857666E-05,0.3515625,0,0
-9.56258736550808E-06,1.45563981277519E-05,0.3515625,0,0
-1.28561714518582E-05,1.70371095009614E-05,0.3515625,0,0
-9.9078406492481E-06,1.01697351055918E-05,0.3515625,0,0
-1.30685320982593E-05,1.56934547703713E-05,0.3515625,0,0
-1.06796005638898E-05,1.28171050164383E-05,0.3515625,0,0
-1.16550918392022E-05,1.7109656255343E-05,0.3515625,0,0
-1.06078487078776E-05,1.7394175301888E-05,0.3515625,0,0
-1.15178027044749E-05,1.79629168997053E-05,0.3515625,0,0
-1.10610126284882E-05,1.30028211060562E-05,0.3515625,0,0
-1.06511433841661E-05,9.81307493930217E-06,0.3515625,0,0
-1.0980029401253E-05,1.05163398984587E-05,0.3515625,0,0
-1.14470431071823E-05,1.12605011963751E-05,0.3515625,0,0
-1.25870110423421E-05,1.29284926515538E-05,0.3515625,0,0
-1.18565676530125E-05,1.25917449622648E-05,0.3515625,0,0
-1.17179970402503E-05,1.26537424876005E-05,0.3515625,0,0
-1.02127687569009E-05,9.93939738691552E-06,0.3515625,0,0
-1.07639625639422E-05,8.65138190420112E-06,0.3515625,0,0
-1.30490270748851E-05,5.96398740526638E-06,0.3515625,0,0
-1.84344753506593E-05,6.72355645292555E-06,0.3515625,0,0
-2.2907277525519E-05,6.91821242071455E-06,0.3515625,0,0
-2.68988060270203E-05,6.87817737343721E-06,0.3515625,0,0
-2.87436287180753E-05,4.33233890362317E-06,0.3515625,0,0
-3.18373240588699E-05,3.99750751967076E-06,0.3515625,0,0
-3.58586912625469E-05,5.0350740821159E-06,0.3515625,0,0
-3.95729111914989E-05,8.07706419436727E-06,0.3515625,0,0
-4.18369309045374E-05,9.692897037894E-06,0.3515625,0,0
-4.20424912590533E-05,8.69170526129892E-06,0.3515625,0,0
-3.42615276167635E-05,3.43929286827915E-06,0.3515625,0,0
-5.01279937452637E-05,4.01693023377447E-06,0.3515625,0,0
-3.96629948227201E-05,3.96203267882811E-06,0.3515625,0,0
-4.80184207845014E-05,6.83463349560043E-06,0.3515625,0,0
-3.7961082853144E-05,7.69458347349428E-06,0.3515625,0,0
-3.91129942727275E-05,1.19827891467139E-05,0.3515625,0,0
-3.28263522533234E-05,1.52963857544819E-05,0.3515625,0,0
-3.27533234667499E-05,1.58094426296884E-05,0.3515625,0,0
-2.99374569294741E-05,1.30846701722476E-05,0.3515625,0,0
-2.90948501060484E-05,1.28863230202114E-05,0.3515625,0,0
-2.9919128792244E-05,1.42310636874754E-05,0.3515625,0,0
-2.87405127892271E-05,1.44094101415249E-05,0.3515625,0,0
-2.97398128168425E-05,1.52456887008157E-05,0.3515625,0,0
-2.79332980426261E-05,1.76511057361495E-05,0.3515625,0,0
-3.00707997666905E-05,2.11212136491667E-05,0.3515625,0,0
-2.9668988645426E-05,2.24442392209312E-05,0.3515625,0,0
-3.29392714775167E-05,2.3917353246361E-05,0.3515625,0,0
-3.1196959753288E-05,2.45337050728267E-05,0.3515625,0,0
-3.08351955027319E-05,2.40949684666703E-05,0.3515625,0,0
-2.74127596640028E-05,2.24356208491372E-05,0.3515625,0,0
-2.82170640275581E-05,2.09030786209041E-05,0.3515625,0,0
-2.7391020921641E-05,1.84724867722252E-05,0.3515625,0,0
-2.78533825621707E-05,1.68650840350892E-05,0.3515625,0,0
-2.72532233793754E-05,1.63284094014671E-05,0.3515625,0,0
-2.84392899629893E-05,1.83070060302271E-05,0.3515625,0,0
-2.91640390059911E-05,2.12331833608914E-05,0.3515625,0,0
-2.94700348604238E-05,2.13807597901905E-05,0.3515625,0,0
-2.44060447585071E-05,1.67137914104387E-05,0.3515625,0,0
-3.43395149684511E-05,2.46244890149683E-05,0.3515625,0,0
-2.44104703597259E-05,1.95064349099994E-05,0.3515625,0,0
-2.86161211988656E-05,2.31600442930358E-05,0.3515625,0,0
-2.30556561291451E-05,1.83970623766072E-05,0.3515625,0,0
-2.60074339166749E-05,1.91993822227232E-05,0.3515625,0,0
-2.20685396925546E-05,1.59933078975882E-05,0.3515625,0,0
-2.29369634325849E-05,1.6345195035683E-05,0.3515625,0,0
-2.45128430833574E-05,1.51328522406402E-05,0.3515625,0,0
-2.72810211754404E-05,1.48667249959544E-05,0.3515625,0,0
-2.7660038540489E-05,1.4979512343416E-05,0.3515625,0,0
-2.44516486418433E-05,1.29815507534659E-05,0.3515625,0,0
-2.44545117311645E-05,1.007757964544E-05,0.3515625,0,0
-2.44814709731145E-05,4.9342220336257E-06,0.3515625,0,0
-2.74823778454447E-05,4.09883932661614E-06,0.3515625,0,0
-2.73639689112315E-05,5.34878336111433E-06,0.3515625,0,0
-2.94444071187172E-05,8.91570289240917E-06,0.3515625,0,0
-2.95612717309268E-05,8.18062198959524E-06,0.3515625,0,0
-3.15941615554038E-05,7.31599493519752E-06,0.3515625,0,0
-2.95900408673333E-05,6.08838990956428E-06,0.3515625,0,0
-2.87039765680674E-05,7.7924760262249E-06,0.3515625,0,0
-2.6959971364704E-05,8.48991021484835E-06,0.3515625,0,0
-2.73112727882108E-05,8.23487243906129E-06,0.3515625,0,0
-2.66463302978082E-05,4.25047664975864E-06,0.3515625,0,0
-2.59192456724122E-05,1.15731495498039E-06,0.3515625,0,0
-2.62350622506347E-05,4.08749343705495E-07,0.3515625,0,0
-2.75863749266136E-05,-5.03120283212866E-08,0.3515625,0,0
-2.35728875850327E-05,-4.94134496875631E-07,0.3515625,0,0
-3.25360160786659E-05,3.60007049948763E-07,0.3515625,0,0
-2.23043552978197E-05,3.20006802212447E-06,0.3515625,0,0
-2.68865278485464E-05,4.43732733401703E-06,0.3515625,0,0
-2.22253092942992E-05,4.66745996163809E-06,0.3515625,0,0
-2.55685699812602E-05,4.89308558826451E-06,0.3515625,0,0
-2.17495799006429E-05,7.45309171179542E-06,0.3515625,0,0
-2.14790998143144E-05,9.92992681858595E-06,0.3515625,0,0
-2.01991915673716E-05,1.09603788587265E-05,0.3515625,0,0
-2.05790965992492E-05,1.14621288958006E-05,0.3515625,0,0
-2.0962212147424E-05,1.19103051474667E-05,0.3515625,0,0
-1.86083525477443E-05,1.39838612085441E-05,0.3515625,0,0
-1.78100199264009E-05,1.63284275913611E-05,0.3515625,0,0
-1.72784348251298E-05,1.55258185259299E-05,0.3515625,0,0
-2.22828166442923E-05,1.26540799101349E-05,0.3515625,0,0
-2.55022423516493E-05,1.1711520528479E-05,0.3515625,0,0
-2.91438591375481E-05,1.38942323246738E-05,0.3515625,0,0
-2.71538283413975E-05,1.69994091265835E-05,0.3515625,0,0
-2.64400550804567E-05,1.84909422387136E-05,0.3515625,0,0
-2.49929325946141E-05,1.82829080586089E-05,0.3515625,0,0
-2.63084803009406E-05,1.81080267793732E-05,0.3515625,0,0
-2.59588596236426E-05,1.90145601663971E-05,0.3515625,0,0
-2.62300036411034E-05,2.0287810912123E-05,0.3515625,0,0
-2.55132144957315E-05,2.09181089303456E-05,0.3515625,0,0
-2.66932056547375E-05,2.04321222554427E-05,0.3515625,0,0
-2.762115218502E-05,2.0778039470315E-05,0.3515625,0,0
-2.71078279183712E-05,2.2329950297717E-05,0.3515625,0,0
-2.0846477127634E-05,1.77867987076752E-05,0.3515625,0,0
-2.74874691967852E-05,2.25051317102043E-05,0.3515625,0,0
-1.71238298207754E-05,1.15327484309091E-05,0.3515625,0,0
-2.06340373551939E-05,1.17498784675263E-05,0.3515625,0,0
-1.55253874254413E-05,3.70865336662973E-06,0.3515625,0,0
-1.938014611369E-05,5.60539774596691E-06,0.3515625,0,0
-1.80292990989983E-05,5.00923124491237E-06,0.3515625,0,0
-1.96030687220627E-05,6.58648059470579E-06,0.3515625,0,0
-1.89955189853208E-05,4.56374482382671E-06,0.3515625,0,0
-1.73757198353997E-05,4.58795057056705E-06,0.3515625,0,0
-1.46817919812747E-05,6.00717658016947E-06,0.3515625,0,0
-1.19060869110399E-05,5.02615466757561E-06,0.3515625,0,0
-1.34981346491259E-05,4.28455587098142E-06,0.3515625,0,0
-1.48319422805798E-05,2.31605781664257E-06,0.3515625,0,0
-1.76441953954054E-05,2.97677934213425E-06,0.3515625,0,0
-1.64761822816217E-05,2.55614850175334E-06,0.3515625,0,0
-1.77471392817097E-05,5.18490560352802E-06,0.3515625,0,0
-1.89461752597708E-05,5.17008038514177E-06,0.3515625,0,0
-2.39168948610313E-05,5.64382617085357E-06,0.3515625,0,0
-2.66028382611694E-05,2.73231648861838E-06,0.3515625,0,0
-2.90743791993009E-05,1.7095829889513E-06,0.3515625,0,0
-2.85514288407285E-05,2.50892799158464E-06,0.3515625,0,0
-2.81239754258422E-05,5.39982420377783E-06,0.3515625,0,0
-2.73991990979994E-05,7.00920145391137E-06,0.3515625,0,0
-2.92924214591039E-05,1.0113712050952E-05,0.3515625,0,0
-3.15471334033646E-05,1.17403560579987E-05,0.3515625,0,0
-3.24140492011793E-05,1.12737034214661E-05,0.3515625,0,0
-2.43663689616369E-05,8.60578893480124E-06,0.3515625,0,0
-3.240907608415E-05,1.37426777655492E-05,0.3515625,0,0
-2.1124536942807E-05,1.29989675770048E-05,0.3515625,0,0
-2.68182229774538E-05,1.54157442011638E-05,0.3515625,0,0
-2.2025647922419E-05,1.19561045721639E-05,0.3515625,0,0
-2.58075397141511E-05,1.10754690467729E-05,0.3515625,0,0
-2.17337510548532E-05,9.51906986301765E-06,0.3515625,0,0
-2.06058357434813E-05,1.00842971733073E-05,0.3515625,0,0
-1.79039561771788E-05,1.03608754216111E-05,0.3515625,0,0
-1.79087619471829E-05,8.86540146893822E-06,0.3515625,0,0
-1.95699030882679E-05,6.46512353341677E-06,0.3515625,0,0
-2.04297375603346E-05,5.45086322745192E-06,0.3515625,0,0
-2.19297817238839E-05,6.08517848377232E-06,0.3515625,0,0
-1.99048754438991E-05,6.20985974819632E-06,0.3515625,0,0
-2.0274928829167E-05,9.01894509297563E-06,0.3515625,0,0
-1.83568718057359E-05,1.11086983451969E-05,0.3515625,0,0
-2.05020460271044E-05,1.09099237306509E-05,0.3515625,0,0
-2.16177759284619E-05,7.60529201215832E-06,0.3515625,0,0
-2.54667083936511E-05,6.21799563305103E-06,0.3515625,0,0
-2.49667518801289E-05,5.66137759960839E-06,0.3515625,0,0
-2.36775194935035E-05,6.49798084850772E-06,0.3515625,0,0
-2.09943482332164E-05,8.55507641972508E-06,0.3515625,0,0
-2.34395592997316E-05,1.001612872642E-05,0.3515625,0,0
-2.65054350165883E-05,8.26481300464366E-06,0.3515625,0,0
-2.91839569399599E-05,5.76344837099896E-06,0.3515625,0,0
-3.03337728837505E-05,4.25949292548466E-06,0.3515625,0,0
-3.00717783829896E-05,3.82979260393768E-06,0.3515625,0,0
-2.2605729100178E-05,3.55496877091355E-06,0.3515625,0,0
-3.10677896777634E-05,6.72693977321615E-06,0.3515625,0,0
-2.29585311899427E-05,8.85960344021441E-06,0.3515625,0,0
-2.98825780191692E-05,1.21822786240955E-05,0.3515625,0,0
-2.51620640483452E-05,1.18417128760484E-05,0.3515625,0,0
-2.83800036413595E-05,1.20021895781974E-05,0.3515625,0,0
-2.55071445280919E-05,1.31506867546705E-05,0.3515625,0,0
-2.5108387490036E-05,1.4290914805315E-05,0.3515625,0,0
-2.33089740504511E-05,1.33271059894469E-05,0.3515625,0,0
-2.37254753301386E-05,1.27108942251652E-05,0.3515625,0,0
-2.5329070922453E-05,1.29923664644593E-05,0.3515625,0,0
-2.5689938411233E-05,1.33485309561365E-05,0.3515625,0,0
-2.67191044258652E-05,1.45323128890595E-05,0.3515625,0,0
-2.49343847826822E-05,1.56827809405513E-05,0.3515625,0,0
-2.56067360169254E-05,1.65888777701184E-05,0.3515625,0,0
-2.48366759478813E-05,1.64186349138618E-05,0.3515625,0,0
-2.61623044934822E-05,1.56427104229806E-05,0.3515625,0,0
-2.36278119700728E-05,1.44345058288309E-05,0.3515625,0,0
-2.30744044529274E-05,1.54322679009056E-05,0.3515625,0,0
-2.09209647437092E-05,1.57201156980591E-05,0.3515625,0,0
-2.06321947189281E-05,1.22688225019374E-05,0.3515625,0,0
-1.89934307854855E-05,7.63994648877997E-06,0.3515625,0,0
-1.82105395651888E-05,7.04434160070377E-06,0.3515625,0,0
-1.73532098415308E-05,1.0691893294279E-05,0.3515625,0,0
-1.80961142177694E-05,1.48530734804808E-05,0.3515625,0,0
-1.74264150700765E-05,1.69569411809789E-05,0.3515625,0,0
-1.53445598698454E-05,1.81362775037996E-05,0.3515625,0,0
-1.10815417428967E-05,1.26202776300488E-05,0.3515625,0,0
-1.56207315740176E-05,1.40946849569445E-05,0.3515625,0,0
-1.01014902611496E-05,7.44117960493895E-06,0.3515625,0,0
-1.00464994829963E-05,1.25953647511778E-05,0.3515625,0,0
-7.31649970475701E-06,9.89315321930917E-06,0.3515625,0,0
-9.55589348450303E-06,1.36639582706266E-05,0.3515625,0,0
-9.52537084231153E-06,1.30553689814406E-05,0.3515625,0,0
-1.09915436041774E-05,1.39744124680874E-05,0.3515625,0,0
-1.09433131001424E-05,1.44462728712824E-05,0.3515625,0,0
-1.0828716767719E-05,1.6755680917413E-05,0.3515625,0,0
-1.27955036077765E-05,1.80153365363367E-05,0.3515625,0,0
-1.6879845134099E-05,1.67318630701629E-05,0.3515625,0,0
-2.26003667194163E-05,1.65906822076067E-05,0.3515625,0,0
-2.65877642959822E-05,1.61049883899977E-05,0.3515625,0,0
-3.03126489598071E-05,1.78268510353519E-05,0.3515625,0,0
-3.12618758471217E-05,1.75740697159199E-05,0.3515625,0,0
-3.23317217407748E-05,1.89919683180051E-05,0.3515625,0,0
-3.23702406603843E-05,1.73301941686077E-05,0.3515625,0,0
-3.39756188623142E-05,1.49919287650846E-05,0.3515625,0,0
-3.52526112692431E-05,1.1827642993012E-05,0.3515625,0,0
-3.66317399311811E-05,1.27599178085802E-05,0.3515625,0,0
-3.56584241671953E-05,1.38828627314069E-05,0.3515625,0,0
-3.40870465151966E-05,1.43855322676245E-05,0.3515625,0,0
-3.22002379107289E-05,1.29238242152496E-05,0.3515625,0,0
-3.07355512632057E-05,1.23419758892851E-05,0.3515625,0,0
-2.87927468889393E-05,1.15323291538516E-05,0.3515625,0,0
-2.7558880901779E-05,8.61327771417564E-06,0.3515625,0,0
-2.17630349652609E-05,3.42761040883488E-06,0.3515625,0,0
-2.96676444122568E-05,4.02760406359448E-06,0.3515625,0,0
-2.05311316676671E-05,1.42153487558971E-06,0.3515625,0,0
-2.5224235287169E-05,7.62894160288852E-07,0.3515625,0,0
-1.9589344447013E-05,7.59729061883263E-07,0.3515625,0,0
-2.28931421588641E-05,5.03351748193381E-06,0.3515625,0,0
-2.04794250748819E-05,9.59951830736827E-06,0.3515625,0,0
-2.02654882741626E-05,1.18172438305919E-05,0.3515625,0,0
-1.83196170837618E-05,1.11790168375592E-05,0.3515625,0,0
-1.78870413947152E-05,1.18260004455806E-05,0.3515625,0,0
-1.73322114278562E-05,1.04983264463954E-05,0.3515625,0,0
-1.55610650836024E-05,8.34031015983783E-06,0.3515625,0,0
-1.47082428156864E-05,6.88080854160944E-06,0.3515625,0,0
-1.15060192911187E-05,5.62258537684102E-06,0.3515625,0,0
-1.11416511572315E-05,5.73162515138392E-06,0.3515625,0,0
-9.66348306974396E-06,6.96816368872533E-06,0.3515625,0,0
-1.19613678180031E-05,1.07270216176403E-05,0.3515625,0,0
-1.22295741675771E-05,1.27572975543444E-05,0.3515625,0,0
-1.4492946320388E-05,1.28291321743745E-05,0.3515625,0,0
-1.45743242683238E-05,1.27784232972772E-05,0.3515625,0,0
-1.66405989148188E-05,1.37451525006327E-05,0.3515625,0,0
-1.76332523551537E-05,1.38342875288799E-05,0.3515625,0,0
-1.95734628505306E-05,1.38554096338339E-05,0.3515625,0,0
-2.00010636035586E-05,1.31558499560924E-05,0.3515625,0,0
-2.18144414247945E-05,1.40505326271523E-05,0.3515625,0,0
-2.31579761020839E-05,1.48103017636458E-05,0.3515625,0,0
-2.38674801948946E-05,1.51751992234495E-05,0.3515625,0,0
-2.03015424631303E-05,1.33156136143953E-05,0.3515625,0,0
-2.98698323604185E-05,1.78064019564772E-05,0.3515625,0,0
-2.45311166509055E-05,1.05611970866448E-05,0.3515625,0,0
-3.02885564451572E-05,1.23647241707658E-05,0.3515625,0,0
-2.71299468295183E-05,8.45663544168929E-06,0.3515625,0,0
-3.23174754157662E-05,9.61093337537022E-06,0.3515625,0,0
-3.34756550728343E-05,7.91026195656741E-06,0.3515625,0,0
-3.66114727512468E-05,8.26002906251233E-06,0.3515625,0,0
-3.62182508979458E-05,8.47744013299234E-06,0.3515625,0,0
-3.62033060810063E-05,1.02482135844184E-05,0.3515625,0,0
-3.63011786248535E-05,1.09344928205246E-05,0.3515625,0,0
-3.6216813896317E-05,8.96454457688378E-06,0.3515625,0,0
-3.74881965399254E-05,9.1514348241617E-06,0.52734375,0,0
-3.56186028511729E-05,1.16979117592564E-05,0.52734375,0,0
-3.56605523847975E-05,1.77726360561792E-05,0.52734375,0,0
-3.58360521204304E-05,2.0463477994781E-05,0.52734375,0,0
-3.94188537029549E-05,2.0966426745872E-05,0.52734375,0,0
-3.85970779461786E-05,1.78878945007455E-05,0.52734375,0,0
-3.8456328184111E-05,1.52917236846406E-05,0.52734375,0,0
-3.72454051102977E-05,1.19435289889225E-05,0.52734375,0,0
-3.82277430617251E-05,1.13867499749176E-05,0.52734375,0,0
-3.83230762963649E-05,1.16632691060659E-05,0.52734375,0,0
-3.96334435208701E-05,1.13679670903366E-05,0.52734375,0,0
-3.87249456252903E-05,9.22463641472859E-06,0.52734375,0,0
-3.7007441278547E-05,9.98989344225265E-06,0.52734375,0,0
-3.38753961841576E-05,1.26717468447168E-05,0.52734375,0,0
-3.03084179904545E-05,1.33981484395918E-05,0.52734375,0,0
-2.30090408877004E-05,8.31407578516519E-06,0.52734375,0,0
-3.30988514178898E-05,9.69325355981709E-06,0.52734375,0,0
-2.6763114874484E-05,5.56856912226067E-06,0.52734375,0,0
-3.38476893375628E-05,9.08252422959777E-06,0.52734375,0,0
-2.83751214738004E-05,8.86760972207412E-06,0.52734375,0,0
-3.04783970932476E-05,1.16349210657063E-05,0.52734375,0,0
-2.79457526630722E-05,1.13711294034147E-05,0.52734375,0,0
-3.00192987197079E-05,1.21750117614283E-05,0.52734375,0,0
-2.97135175060248E-05,1.09212996903807E-05,0.52734375,0,0
-3.12579250021372E-05,1.01750574685866E-05,0.52734375,0,0
-3.41318191203754E-05,9.48628985497635E-06,0.52734375,0,0
-3.53003451891709E-05,8.78044738783501E-06,0.52734375,0,0
-3.6671834095614E-05,9.98996620182879E-06,0.52734375,0,0
-3.54928270098753E-05,1.10850405690144E-05,0.52734375,0,0
-3.72860922652762E-05,1.30094686028315E-05,0.52734375,0,0
-3.5762059269473E-05,1.27944786072476E-05,0.52734375,0,0
-3.56181626557373E-05,1.24356929518399E-05,0.52734375,0,0
-3.22630803566426E-05,1.01749883469893E-05,0.52734375,0,0
-3.12947122438345E-05,8.93579272087663E-06,0.52734375,0,0
-2.90924363071099E-05,6.93548508934327E-06,0.52734375,0,0
-3.048333019251E-05,5.4375414038077E-06,0.52734375,0,0
-3.14809840347152E-05,3.97610665459069E-06,0.52734375,0,0
-3.13619384542108E-05,5.82271241000853E-06,0.52734375,0,0
-2.81389202427818E-05,8.45677459437866E-06,0.52734375,0,0
-2.61610257439315E-05,9.41684811550658E-06,0.52734375,0,0
-2.50455741479527E-05,7.68273366702488E-06,0.52734375,0,0
-2.53746475209482E-05,5.04648824062315E-06,0.52734375,0,0
-2.05738888325868E-05,3.96978794015013E-06,0.52734375,0,0
-2.77584622381255E-05,8.35288119560573E-06,0.52734375,0,0
-1.85417829925427E-05,1.0329516044294E-05,0.52734375,0,0
-2.31202538998332E-05,1.20772501759348E-05,0.52734375,0,0
-1.72417967405636E-05,1.14831918835989E-05,0.52734375,0,0
-1.69779996213038E-05,1.07966407085769E-05,0.52734375,0,0
-1.15987959361519E-05,8.78566606843378E-06,0.52734375,0,0
-1.03211350506172E-05,8.19004890217911E-06,0.52734375,0,0
-8.6899999587331E-06,8.4688508650288E-06,0.52734375,0,0
-9.36381820793031E-06,7.23723633200279E-06,0.52734375,0,0
-1.04927512438735E-05,5.66639937460423E-06,0.52734375,0,0
-8.56520546221873E-06,6.3108045651461E-06,0.52734375,0,0
-8.30908811622066E-06,8.83878237800673E-06,0.52734375,0,0
-7.24896472092951E-06,9.67086634773295E-06,0.52734375,0,0
-8.57949726196239E-06,8.29727378004463E-06,0.52734375,0,0
-8.63446257426403E-06,6.9707416514575E-06,0.52734375,0,0
-1.23488553072093E-05,7.68643349147169E-06,0.52734375,0,0
-1.33180838020053E-05,8.26483119453769E-06,0.52734375,0,0
-1.44560799526516E-05,7.92115315562114E-06,0.52734375,0,0
-1.43914858199423E-05,7.15033138476429E-06,0.52734375,0,0
-1.68099595612148E-05,5.89577894061222E-06,0.52734375,0,0
-1.73895114130573E-05,4.03904914492159E-06,0.52734375,0,0
-1.82927196874516E-05,4.56222187494859E-06,0.52734375,0,0
-1.78546506504063E-05,6.46605622023344E-06,0.52734375,0,0
-1.82367639354197E-05,7.32830858396483E-06,0.52734375,0,0
-2.03587442229036E-05,7.83903396950336E-06,0.52734375,0,0
-2.4249886337202E-05,7.18177216185723E-06,0.52734375,0,0
-2.27506261580857E-05,4.08590949518839E-06,0.52734375,0,0
-3.28274036291987E-05,6.98941130394815E-06,0.52734375,0,0
-2.37657241086708E-05,7.91202182881534E-06,0.52734375,0,0
-2.72093620878877E-05,1.0107164598594E-05,0.52734375,0,0
-2.23006372834789E-05,9.36938704398926E-06,0.52734375,0,0
-2.61853438132675E-05,9.66378956945846E-06,0.52734375,0,0
-2.58725958701689E-05,8.58769817568827E-06,0.52734375,0,0
-2.79239466181025E-05,8.0391700976179E-06,0.52734375,0,0
-2.60455162788276E-05,6.88442969476455E-06,0.52734375,0,0
-2.61567402048968E-05,6.43721250526141E-06,0.52734375,0,0
-2.81985830952181E-05,6.85554414303624E-06,0.52734375,0,0
-2.8005246349494E-05,7.48742104406119E-06,0.52734375,0,0
-2.67297564278124E-05,8.20397872303147E-06,0.52734375,0,0
-2.27499240281759E-05,8.07837568572722E-06,0.52734375,0,0
-2.15502786886645E-05,7.14968700776808E-06,0.52734375,0,0
-1.85590688488446E-05,5.21745596415713E-06,0.52734375,0,0
-1.83161846507574E-05,5.25800396644627E-06,0.52734375,0,0
-1.67734906426631E-05,7.29280054656556E-06,0.52734375,0,0
-1.8296210328117E-05,1.06991719803773E-05,0.52734375,0,0
-1.72571435541613E-05,1.28042556752916E-05,0.52734375,0,0
-1.68900314747589E-05,1.38460545713315E-05,0.52734375,0,0
-1.46558159030974E-05,1.27399434859399E-05,0.52734375,0,0
-1.40941319841659E-05,1.15391985673341E-05,0.52734375,0,0
-1.37485358209233E-05,1.25114947877591E-05,0.52734375,0,0
-1.45892508953693E-05,1.3922535799793E-05,0.52734375,0,0
-1.49643747135997E-05,1.37605666168383E-05,0.52734375,0,0
-1.50223413584172E-05,1.33108796944725E-05,0.52734375,0,0
-1.24326979857869E-05,1.07430769276107E-05,0.52734375,0,0
-1.83550855581416E-05,1.34570382215315E-05,0.52734375,0,0
-1.51161739267991E-05,8.08545428299112E-06,0.52734375,0,0
-1.83175252459478E-05,1.25493279483635E-05,0.52734375,0,0
-1.52434695337433E-05,1.23603385873139E-05,0.52734375,0,0
-1.72234085766831E-05,1.39465819302131E-05,0.52734375,0,0
-1.83622469194233E-05,1.27884322864702E-05,0.52734375,0,0
-2.09704903681995E-05,1.51957719936036E-05,0.52734375,0,0
-2.14756619243417E-05,1.52575603351579E-05,0.52734375,0,0
-2.21279424295062E-05,1.41959208121989E-05,0.52734375,0,0
-2.35525985772256E-05,1.40680522235925E-05,0.52734375,0,0
-2.42567457462428E-05,1.40737920446554E-05,0.52734375,0,0
-2.54529477388132E-05,1.4674371414003E-05,0.52734375,0,0
-2.57387255260255E-05,1.52286902448395E-05,0.52734375,0,0
-2.75891525234329E-05,1.72724085132359E-05,0.52734375,0,0
-2.677233715076E-05,1.60056024469668E-05,0.52734375,0,0
-2.58210657193558E-05,1.39496214615065E-05,0.52734375,0,0
-2.40954032051377E-05,1.07451432995731E-05,0.52734375,0,0
-2.49201511905994E-05,1.01985251603764E-05,0.52734375,0,0
-2.5555231331964E-05,1.00079032563372E-05,0.52734375,0,0
-2.65303351625334E-05,1.16805194920744E-05,0.52734375,0,0
-2.6152954887948E-05,1.1852677744173E-05,0.52734375,0,0
-2.61540462815901E-05,1.10812989078113E-05,0.52734375,0,0
-2.60246815741993E-05,1.00527722679544E-05,0.52734375,0,0
-2.68091334874043E-05,9.79534524958581E-06,0.52734375,0,0
-2.70038890448632E-05,8.7086737039499E-06,0.52734375,0,0
-2.59695625572931E-05,7.67356686992571E-06,0.52734375,0,0
-2.19128050957806E-05,6.83577218296705E-06,0.52734375,0,0
-3.48455323546659E-05,1.16193941721576E-05,0.52734375,0,0
-3.21192819683347E-05,1.1405068107706E-05,0.52734375,0,0
-3.85290550184436E-05,1.27315288409591E-05,0.52734375,0,0
-3.3874785003718E-05,1.06626966953627E-05,0.52734375,0,0
-3.66412132279947E-05,9.75726379692787E-06,0.52734375,0,0
-3.32101117237471E-05,9.20891670830315E-06,0.52734375,0,0
-3.11292787955608E-05,1.22255951282568E-05,0.52734375,0,0
-2.69508636847604E-05,1.36591988848522E-05,0.52734375,0,0
-2.64905829681084E-05,1.32722107082373E-05,0.52734375,0,0
-2.7747741114581E-05,1.20862659969134E-05,0.52734375,0,0
-2.70584496320225E-05,1.02673084256821E-05,0.52734375,0,0
-2.69731572188903E-05,8.94262302608695E-06,0.52734375,0,0
-2.50960711127846E-05,8.70186340762302E-06,0.52734375,0,0
-2.63130350504071E-05,9.452869562665E-06,0.52734375,0,0
-2.63611127593322E-05,8.92447224032367E-06,0.52734375,0,0
-2.91556298179785E-05,8.98800044524251E-06,0.52734375,0,0
-2.95556583296275E-05,9.20600632525748E-06,0.52734375,0,0
-3.11801341013052E-05,9.97733604890527E-06,0.52734375,0,0
-3.05526191368699E-05,9.11973984329961E-06,0.52734375,0,0
-3.2263713364955E-05,8.20197055872995E-06,0.52734375,0,0
-3.27252200804651E-05,6.8283607106423E-06,0.52734375,0,0
-3.30772454617545E-05,6.40851521893637E-06,0.52734375,0,0
-3.11224430333823E-05,6.61438207316678E-06,0.52734375,0,0
-2.90682510240003E-05,8.54329755384242E-06,0.52734375,0,0
-2.64077825704589E-05,1.14449176180642E-05,0.52734375,0,0
-2.38794073084136E-05,1.48045328387525E-05,0.52734375,0,0
-1.73037442436907E-05,1.292153592658E-05,0.52734375,0,0
-2.298583422089E-05,1.70805906236637E-05,0.52734375,0,0
-1.45543663165881E-05,1.03204120023292E-05,0.52734375,0,0
-1.73409061972052E-05,1.31899751067976E-05,0.52734375,0,0
-1.2398779290379E-05,1.17439121822827E-05,0.52734375,0,0
-1.52762186189648E-05,1.448572766094E-05,0.52734375,0,0
-1.43578727147542E-05,1.28928249978344E-05,0.52734375,0,0
-1.40107795232325E-05,1.41450718729175E-05,0.52734375,0,0
-1.22361871035537E-05,1.51025124068838E-05,0.52734375,0,0
-1.24220969155431E-05,1.51121803355636E-05,0.52734375,0,0
-1.16612291094498E-05,1.40178781293798E-05,0.52734375,0,0
-7.69253983889939E-06,1.35100854095072E-05,0.52734375,0,0
-4.69941733172163E-06,1.53368418978062E-05,0.52734375,0,0
-2.63069523498416E-06,1.57420781761175E-05,0.52734375,0,0
-4.47234015155118E-06,1.58511375047965E-05,0.52734375,0,0
-4.71237035526428E-06,1.29231157188769E-05,0.52734375,0,0
-5.89596174904727E-06,1.13821151899174E-05,0.52734375,0,0
-5.13526674694731E-06,1.03136353573063E-05,0.52734375,0,0
-7.92057744547492E-06,1.25900041894056E-05,0.52734375,0,0
-1.12647367132013E-05,1.33461398945656E-05,0.52734375,0,0
-1.57416870933957E-05,1.3200312423578E-05,0.52734375,0,0
-1.81349678314291E-05,1.16297869681148E-05,0.52734375,0,0
-2.20404181163758E-05,1.26602626551175E-05,0.52734375,0,0
-2.62851208390202E-05,1.51284166349797E-05,0.52734375,0,0
-3.06687506963499E-05,1.79195903911022E-05,0.52734375,0,0
-3.31478258885909E-05,1.89907186722849E-05,0.52734375,0,0
-3.38626196025871E-05,1.75868426595116E-05,0.52734375,0,0
-2.54486658377573E-05,1.18493207992287E-05,0.52734375,0,0
-3.54110234184191E-05,1.57801332534291E-05,0.52734375,0,0
-2.81929224001942E-05,1.02950862128637E-05,0.52734375,0,0
-3.6936533433618E-05,1.27763541968307E-05,0.52734375,0,0
-3.05872672470286E-05,1.04037844721461E-05,0.52734375,0,0
-3.22356027027126E-05,1.2378657629597E-05,0.52734375,0,0
-2.82353175862227E-05,1.03105503512779E-05,0.52734375,0,0
-3.09058414131869E-05,9.10313065105584E-06,0.52734375,0,0
-3.18394122587051E-05,7.10500398781733E-06,0.52734375,0,0
-3.31830669892952E-05,7.60187549531111E-06,0.52734375,0,0
-3.23666754411533E-05,8.40148732095258E-06,0.52734375,0,0
-2.94922501780093E-05,7.40493396733655E-06,0.52734375,0,0
-2.92513377644354E-05,8.25066399556817E-06,0.52734375,0,0
-2.8022586775478E-05,9.6596031653462E-06,0.52734375,0,0
-3.01366144412896E-05,1.14982385639451E-05,0.52734375,0,0
-2.88310511677992E-05,1.08188623926253E-05,0.52734375,0,0
-3.04567092825891E-05,1.19983478725771E-05,0.52734375,0,0
-2.98297090921551E-05,1.2433743904694E-05,0.52734375,0,0
-3.21476145472843E-05,1.2992849406146E-05,0.52734375,0,0
-3.24466018355452E-05,1.06637262433651E-05,0.52734375,0,0
-3.47385721397586E-05,9.74191789282486E-06,0.52734375,0,0
-3.31756818923168E-05,1.01362993518705E-05,0.52734375,0,0
-3.17200865538325E-05,1.06119505289826E-05,0.52734375,0,0
-2.91535525320796E-05,8.4569483078667E-06,0.52734375,0,0
-2.84485504380427E-05,8.00296311354032E-06,0.52734375,0,0
-2.73715359071502E-05,9.57648080657236E-06,0.52734375,0,0
-2.65447852143552E-05,1.05825920400093E-05,0.52734375,0,0
-2.04488314921036E-05,8.86776160768932E-06,0.52734375,0,0
-2.75541333394358E-05,1.20331478683511E-05,0.52734375,0,0
-1.87842724699294E-05,8.84322162164608E-06,0.52734375,0,0
-2.26423544518184E-05,1.1921072655241E-05,0.52734375,0,0
-1.63606273417827E-05,9.32546390686184E-06,0.52734375,0,0
-1.67785165103851E-05,9.90769967756933E-06,0.52734375,0,0
-1.29668560475693E-05,1.0011819540523E-05,0.52734375,0,0
-1.45154990605079E-05,9.81130506261252E-06,0.52734375,0,0
-1.38229388539912E-05,9.22437811823329E-06,0.52734375,0,0
-1.36510134325363E-05,1.07935302366968E-05,0.52734375,0,0
-1.46600059451885E-05,1.19674323286745E-05,0.52734375,0,0
-1.53507044160506E-05,1.12535226435284E-05,0.52734375,0,0
-1.7361315258313E-05,1.05027056633844E-05,0.52734375,0,0
-1.62672349688364E-05,8.28058819024591E-06,0.52734375,0,0
-1.74456472450402E-05,6.52437074677437E-06,0.52734375,0,0
-1.76833309524227E-05,4.39994164480595E-06,0.52734375,0,0
-2.03698127734242E-05,4.38810775449383E-06,0.52734375,0,0
-1.95884422282688E-05,4.98519102620776E-06,0.52734375,0,0
-2.10502603295026E-05,6.80814218867454E-06,0.52734375,0,0
-2.11069091164973E-05,6.7377150116954E-06,0.52734375,0,0
-2.19640442082891E-05,6.74022749080905E-06,0.52734375,0,0
-2.07176708499901E-05,7.4411532295926E-06,0.52734375,0,0
-2.17008200706914E-05,9.60985198616982E-06,0.52734375,0,0
-2.30004352488322E-05,9.49876175582176E-06,0.52734375,0,0
-2.3136259187595E-05,8.11234804132255E-06,0.52734375,0,0
-2.18377481360221E-05,7.59143858886091E-06,0.52734375,0,0
-2.17576834984357E-05,7.95207324699732E-06,0.52734375,0,0
-1.81298728421098E-05,6.67696122036432E-06,0.52734375,0,0
-2.6504460038268E-05,9.8716245702235E-06,0.52734375,0,0
-2.15419368032599E-05,6.91820787324104E-06,0.52734375,0,0
-2.76415285043186E-05,6.42026452624123E-06,0.52734375,0,0
-2.58109848800814E-05,3.35970480591641E-06,0.52734375,0,0
-2.80388649116503E-05,3.29532804244081E-06,0.52734375,0,0
-2.54672013397794E-05,3.3627918583079E-06,0.52734375,0,0
-2.74669873761013E-05,5.48387333765277E-06,0.52734375,0,0
-2.69318679784192E-05,5.92025799051044E-06,0.52734375,0,0
-2.46471754508093E-05,6.48304194328375E-06,0.52734375,0,0
-2.18414461414795E-05,6.81499068377889E-06,0.52734375,0,0
-2.06899603654165E-05,5.91058051213622E-06,0.52734375,0,0
-2.38608408835717E-05,6.76091576679028E-06,0.52734375,0,0
-2.57787469308823E-05,8.8478500401834E-06,0.52734375,0,0
-2.74168960459065E-05,1.0660182852007E-05,0.52734375,0,0
-2.50242974288994E-05,1.00119023045409E-05,0.52734375,0,0
-2.46069648710545E-05,1.05227345557068E-05,0.52734375,0,0
-2.29339730140055E-05,1.21364118967904E-05,0.52734375,0,0
-2.41940178966615E-05,1.44606874528108E-05,0.52734375,0,0
-2.50456905632745E-05,1.46379052239354E-05,0.52734375,0,0
-2.6323785277782E-05,1.4909796846041E-05,0.52734375,0,0
-2.39783203141997E-05,1.56759197125211E-05,1.58203125,0,0
-2.24313789658481E-05,1.67911239259411E-05,1.58203125,0,0
-2.1626750822179E-05,1.58831462613307E-05,1.58203125,0,0
-2.23488168558106E-05,1.44655159601825E-05,1.58203125,0,0
-2.59017251664773E-05,1.51588628796162E-05,1.58203125,0,0
-3.0694376619067E-05,1.69931481650565E-05,1.58203125,0,0
-2.68120584223652E-05,1.37326642288826E-05,1.58203125,0,0
-3.90516652259976E-05,1.85110948223155E-05,1.58203125,0,0
-3.16487239615526E-05,1.19598898891127E-05,1.58203125,0,0
-3.91080284316558E-05,1.45565145430737E-05,1.58203125,0,0
-3.2604206353426E-05,9.6486246548011E-06,1.58203125,0,0
-3.58063734893221E-05,9.13430812943261E-06,1.58203125,0,0
-3.30174043483566E-05,7.03109890309861E-06,1.58203125,0,0
-3.32445670210291E-05,8.28341944725253E-06,1.58203125,0,0
-2.91592259600293E-05,9.48571414483013E-06,1.58203125,0,0
-2.69578522420488E-05,1.26315335364779E-05,1.58203125,0,0
-2.70365308097098E-05,1.44077876029769E-05,1.58203125,0,0
-2.54579044849379E-05,1.23369345601532E-05,1.58203125,0,0
-2.50065550062573E-05,1.11654007923789E-05,1.58203125,0,0
-2.35482093557948E-05,1.10002874862403E-05,1.58203125,0,0
-2.59798016486457E-05,1.388791588397E-05,1.58203125,0,0
-2.51939491136E-05,1.49733177750022E-05,1.58203125,0,0
-2.68665917246835E-05,1.51638378156349E-05,1.58203125,0,0
-2.51828096224926E-05,1.25024180306355E-05,1.58203125,0,0
-2.66634433501167E-05,1.24395519378595E-05,1.58203125,0,0
-2.68984094873304E-05,1.25561109598493E-05,1.58203125,0,0
-2.83710105577484E-05,1.34876136144157E-05,1.58203125,0,0
-2.50592056545429E-05,1.29845184346777E-05,1.58203125,0,0
-2.19746252696496E-05,1.30297821669956E-05,1.58203125,0,0
-1.93425548786763E-05,1.31953274831176E-05,1.58203125,0,0
-1.82238090928877E-05,1.4252400433179E-05,1.58203125,0,0
-1.77759138750844E-05,1.26905651995912E-05,1.58203125,0,0
-1.77519686985761E-05,9.34947729547275E-06,1.58203125,0,0
-1.27061321109068E-05,5.33064167029806E-06,1.58203125,0,0
-1.74280121427728E-05,6.47510933049489E-06,1.58203125,0,0
-1.27404864542768E-05,4.49693106929772E-06,1.58203125,0,0
-1.67880352819338E-05,6.68561779093579E-06,1.58203125,0,0
-1.59227674885187E-05,4.8160027290578E-06,1.58203125,0,0
-1.99814785446506E-05,5.64141100767301E-06,1.58203125,0,0
-2.23901952267624E-05,7.43968712413334E-06,1.58203125,0,0
-2.69443899014732E-05,1.10285400296561E-05,1.58203125,0,0
-2.75399015663425E-05,1.28080846479861E-05,1.58203125,0,0
-2.57783140114043E-05,1.20367021736456E-05,1.58203125,0,0
-2.51368328463286E-05,9.96579728962388E-06,1.58203125,0,0
-2.65272738033673E-05,9.1855499704252E-06,1.58203125,0,0
-2.91813794319751E-05,1.0873992323468E-05,1.58203125,0,0
-2.91637352347607E-05,1.18949947136571E-05,1.58203125,0,0
-2.85749374597799E-05,1.2156824595877E-05,1.58203125,0,0
-2.57867450272897E-05,1.08845788417966E-05,1.58203125,0,0
-2.51395140367094E-05,9.93980393104721E-06,1.58203125,0,0
-2.3790962586645E-05,9.08091442397563E-06,1.58203125,0,0
-2.34081689995946E-05,9.74998602032429E-06,1.58203125,0,0
-2.17426440940471E-05,1.02007943496574E-05,1.58203125,0,0
-2.19641897274414E-05,1.16685669127037E-05,1.58203125,0,0
-2.23937331611523E-05,1.22307656056364E-05,1.58203125,0,0
-2.41010948229814E-05,1.22690835269168E-05,1.58203125,0,0
-2.56789262493839E-05,1.22645733426907E-05,1.58203125,0,0
-2.71853714366443E-05,1.24744901768281E-05,1.58203125,0,0
-2.6481688109925E-05,1.30195912788622E-05,1.58203125,0,0
-2.45844712480903E-05,1.13584674181766E-05,1.58203125,0,0
-1.91829985851655E-05,5.30602574144723E-06,1.58203125,0,0
-2.63784240814857E-05,6.5012800405384E-06,1.58203125,0,0
-2.05862670554779E-05,7.12749579179217E-06,1.58203125,0,0
-2.92180156975519E-05,1.21308594316361E-05,1.58203125,0,0
-2.74803205684293E-05,1.14949334601988E-05,1.58203125,0,0
-3.0877814424457E-05,1.32035029309918E-05,1.58203125,0,0
-2.82834498648299E-05,1.2619160770555E-05,1.58203125,0,0
-2.84602429019287E-05,1.2816233720514E-05,1.58203125,0,0
-2.71494409389561E-05,1.17106883408269E-05,1.58203125,0,0
-2.69256270257756E-05,1.18671123345848E-05,1.58203125,0,0
-2.8062830097042E-05,1.19142177936737E-05,1.58203125,0,0
-2.89136041828897E-05,1.07777796074515E-05,1.58203125,0,0
-3.06587498926092E-05,9.88293322734535E-06,1.58203125,0,0
-2.97245187539374E-05,8.0810832514544E-06,1.58203125,0,0
-3.06538604490925E-05,6.79897129884921E-06,1.58203125,0,0
-2.97263577522244E-05,5.58338933842606E-06,1.58203125,0,0
-3.14583921863232E-05,6.60518935546861E-06,1.58203125,0,0
-3.24512147926725E-05,6.68110715196235E-06,1.58203125,0,0
-3.62882710760459E-05,7.74918771639932E-06,1.58203125,0,0
-3.7454316043295E-05,9.65634626481915E-06,1.58203125,0,0
-3.76280986529309E-05,1.23451900435612E-05,1.58203125,0,0
-3.37035889970139E-05,1.3552205018641E-05,1.58203125,0,0
-2.97776678053197E-05,1.48202252603369E-05,1.58203125,0,0
-2.67212799371919E-05,1.56248406710802E-05,1.58203125,0,0
-2.71124627033714E-05,1.71723731909879E-05,1.58203125,0,0
-2.71106819127453E-05,1.84724794962676E-05,1.58203125,0,0
-2.45347528107231E-05,1.84421242011013E-05,1.58203125,0,0
-1.75758432305884E-05,1.36058370117098E-05,1.58203125,0,0
-2.29775560001144E-05,1.94931290025124E-05,1.58203125,0,0
-1.50376881720149E-05,1.53084747580579E-05,1.58203125,0,0
-1.89952152140904E-05,1.73844873643247E-05,1.58203125,0,0
-1.45944359246641E-05,1.21117736853193E-05,1.58203125,0,0
-1.7363483493682E-05,1.40037736855447E-05,1.58203125,0,0
-1.51302001540898E-05,1.32618888528668E-05,1.58203125,0,0
-1.47441214721766E-05,1.53613327711355E-05,1.58203125,0,0
-1.25117867355584E-05,1.59477876877645E-05,1.58203125,0,0
-1.14512258733157E-05,1.52126540342579E-05,1.58203125,0,0
-1.16338778752834E-05,1.15412203740561E-05,1.58203125,0,0
-1.19932037705439E-05,7.22053573554149E-06,1.58203125,0,0
-1.41908813020564E-05,8.44330043037189E-06,1.58203125,0,0
-1.5843679648242E-05,1.00674396890099E-05,1.58203125,0,0
-2.09723330044653E-05,1.13789483293658E-05,1.58203125,0,0
-2.36063624470262E-05,9.77411036728881E-06,1.58203125,0,0
-2.53639409493189E-05,9.7478405223228E-06,1.58203125,0,0
-2.40888093685498E-05,8.81823052623076E-06,1.58203125,0,0
-2.67641753453063E-05,9.35320349526592E-06,1.58203125,0,0
-2.89029158011545E-05,8.82128369994462E-06,1.58203125,0,0
-2.96198450087104E-05,1.01421610452235E-05,1.58203125,0,0
-2.56989660556428E-05,1.07283121906221E-05,1.58203125,0,0
-2.20471647480736E-05,1.13945097837131E-05,1.58203125,0,0
-1.78820446308237E-05,1.13057021735585E-05,1.58203125,0,0
-1.52528855323908E-05,1.25555052363779E-05,1.58203125,0,0
-1.35993341245921E-05,1.34119327412918E-05,1.58203125,0,0
-1.31017723106197E-05,1.13309861262678E-05,1.58203125,0,0
-1.03797801784822E-05,8.06291882327059E-06,1.58203125,0,0
-1.53330656758044E-05,1.34918545882101E-05,1.58203125,0,0
-1.30793641801574E-05,1.35557293106103E-05,1.58203125,0,0
-1.64795328601031E-05,1.51133353938349E-05,1.58203125,0,0
-1.37910265038954E-05,1.31449460241129E-05,1.58203125,0,0
-1.26217337310663E-05,1.53881101141451E-05,1.58203125,0,0
-9.55879659159109E-06,1.64995981322136E-05,1.58203125,0,0
-1.08163585537113E-05,1.85395274456823E-05,1.58203125,0,0
-1.33789362735115E-05,1.89149432117119E-05,1.58203125,0,0
-1.66487443493679E-05,1.93343912542332E-05,1.58203125,0,0
-1.85468561539892E-05,1.92725819943007E-05,1.58203125,0,0
-1.77125893969787E-05,1.99801816052059E-05,1.58203125,0,0
-1.6563728422625E-05,2.26375104830367E-05,1.58203125,0,0
-1.56401547428686E-05,2.39239034272032E-05,1.58203125,0,0
-1.70692455867538E-05,2.25943349505542E-05,1.58203125,0,0
-1.76290923263878E-05,1.70075854839524E-05,1.58203125,0,0
-1.94430012925295E-05,1.2826483725803E-05,1.58203125,0,0
-2.15109957935056E-05,1.09175571196829E-05,1.58203125,0,0
-2.523377770558E-05,1.13995220090146E-05,1.58203125,0,0
-2.63213732978329E-05,9.56045096245361E-06,1.58203125,0,0
-2.65121179836569E-05,7.058026312734E-06,1.58203125,0,0
-2.56872390309582E-05,5.60418448003475E-06,1.58203125,0,0
-2.61949589912547E-05,6.92798721502186E-06,1.58203125,0,0
-2.71357530436944E-05,9.45373267313698E-06,1.58203125,0,0
-2.78988100035349E-05,1.35675945784897E-05,1.58203125,0,0
-2.80910644505639E-05,1.712957964628E-05,1.58203125,0,0
-2.72224460786674E-05,1.85919761861442E-05,1.58203125,0,0
-2.05362866836367E-05,1.25035412565921E-05,1.58203125,0,0
-2.89802301267628E-05,1.40133133754716E-05,1.58203125,0,0
-2.16136704693781E-05,5.98484757574624E-06,1.58203125,0,0
-2.73088789981557E-05,8.33673948363867E-06,1.58203125,0,0
-2.45395203819498E-05,3.38394079335558E-06,1.58203125,0,0
-2.83920326182852E-05,4.8026417971414E-06,1.58203125,0,0
-2.50210468948353E-05,4.46643571194727E-06,1.58203125,0,0
-2.55685899901437E-05,6.56068959870026E-06,1.58203125,0,0
-2.58151521848049E-05,5.72669569010031E-06,1.58203125,0,0
-2.72378492809366E-05,4.21179447585018E-06,1.58203125,0,0
-2.86198173853336E-05,2.08010874303E-06,1.58203125,0,0
-2.93402335955761E-05,9.71698341345473E-07,1.58203125,0,0
-3.06994807033334E-05,2.63883748630178E-06,1.58203125,0,0
-2.83759927697247E-05,3.47816626344866E-06,1.58203125,0,0
-2.67758623522241E-05,5.62191462449846E-06,1.58203125,0,0
-2.30807345360518E-05,5.37629784957971E-06,1.58203125,0,0
-2.31421618082095E-05,6.91229115545866E-06,1.58203125,0,0
-2.22535363718634E-05,6.21293838776182E-06,1.58203125,0,0
-2.22353519347962E-05,5.45859302292229E-06,1.58203125,0,0
-1.89200163731584E-05,4.37584139945102E-06,1.58203125,0,0
-1.87722944247071E-05,6.67700487611E-06,1.58203125,0,0
-1.8625623852131E-05,8.64682533574523E-06,1.58203125,0,0
-1.91829112736741E-05,1.0104334251082E-05,1.58203125,0,0
-1.82359926839126E-05,9.73521218838869E-06,1.58203125,0,0
-1.68768528965302E-05,1.0912759535131E-05,1.58203125,0,0
-1.54527133418014E-05,1.1675802852551E-05,1.58203125,0,0
-1.67259295267286E-05,1.11779845610727E-05,1.58203125,0,0
-1.65091023518471E-05,8.87728856469039E-06,1.58203125,0,0
-2.56136354437331E-05,1.36033831950044E-05,1.58203125,0,0
-2.20148813241394E-05,1.26582863231306E-05,1.58203125,0,0
-2.54351834882982E-05,1.60990875883726E-05,1.58203125,0,0
-2.0978241082048E-05,1.40963129524607E-05,1.58203125,0,0
-2.37272051890614E-05,1.39221792778699E-05,1.58203125,0,0
-2.60182805504883E-05,1.0597039363347E-05,1.58203125,0,0
-3.06310867017601E-05,9.11488041310804E-06,1.58203125,0,0
-3.24121101584751E-05,8.54172685649246E-06,1.58203125,0,0
-3.30934744852129E-05,9.04050375538645E-06,1.58203125,0,0
-3.31754454236943E-05,8.87493933987571E-06,1.58203125,0,0
-3.29114809574094E-05,6.1040932450851E-06,1.58203125,0,0
-3.48742869391572E-05,4.0823993003869E-06,1.58203125,0,0
-3.54332842107397E-05,3.04753734781116E-06,1.58203125,0,0
-3.65023624908645E-05,4.34202320320765E-06,1.58203125,0,0
-3.47148088621907E-05,4.97255132358987E-06,1.58203125,0,0
-3.42697858286556E-05,7.3001842793019E-06,1.58203125,0,0
-3.23360436595976E-05,9.44045132200699E-06,1.58203125,0,0
-3.17812955472618E-05,1.24809021144756E-05,1.58203125,0,0
-2.96243179036537E-05,1.36019380079233E-05,1.58203125,0,0
-2.72535107797012E-05,1.3631636647915E-05,1.58203125,0,0
-2.30432033276884E-05,1.40765150717925E-05,1.58203125,0,0
-2.05456235562451E-05,1.5322935723816E-05,1.58203125,0,0
-1.83604970516171E-05,1.51494677993469E-05,1.58203125,0,0
-1.79853777808603E-05,1.46412003232399E-05,1.58203125,0,0
-1.90100217878353E-05,1.52102693391498E-05,1.58203125,0,0
-2.05400010599988E-05,1.54557801579358E-05,1.58203125,0,0
-1.91994604392676E-05,1.07566911538015E-05,1.58203125,0,0
-2.87281000055373E-05,1.37097258630092E-05,1.58203125,0,0
-2.35334355238592E-05,8.72744294611039E-06,1.58203125,0,0
-2.8956039386685E-05,1.31004680952174E-05,1.58203125,0,0
-2.552032492531E-05,1.23761756185559E-05,1.58203125,0,0
-2.71918197540799E-05,1.56252081069397E-05,1.58203125,0,0
-2.48804044531425E-05,1.69237428053748E-05,1.58203125,0,0
-2.76626742561348E-05,1.67157741088886E-05,1.58203125,0,0
-3.07636219076812E-05,1.20741497084964E-05,1.58203125,0,0
-3.43510291713756E-05,8.66910067998106E-06,1.58203125,0,0
-3.58979123120662E-05,8.25024653750006E-06,1.58203125,0,0
-3.45979387930129E-05,1.06034704003832E-05,1.58203125,0,0
-3.31903902406339E-05,1.53946311911568E-05,1.58203125,0,0
-2.91236992779886E-05,1.81328014150495E-05,1.58203125,0,0
-2.71761200565379E-05,1.81526356755057E-05,1.58203125,0,0
-2.47158186539309E-05,1.50336982187582E-05,1.58203125,0,0
-2.48514734266791E-05,1.51377817019238E-05,1.58203125,0,0
-2.32387574214954E-05,1.48504141179728E-05,1.58203125,0,0
-2.4787565052975E-05,1.4440976883634E-05,1.58203125,0,0
-2.62511312030256E-05,1.29029658637592E-05,1.58203125,0,0
-2.86027152469615E-05,1.28142146422761E-05,1.58203125,0,0
-2.85330443148268E-05,1.27995272123371E-05,1.58203125,0,0
-2.96486123261275E-05,1.49232155308709E-05,1.58203125,0,0
-3.01525105896872E-05,1.62734831974376E-05,1.58203125,0,0
-3.13002783514094E-05,1.60013441927731E-05,1.58203125,0,0
-3.07425943901762E-05,1.51007152453531E-05,1.58203125,0,0
-2.87192906398559E-05,1.64236807904672E-05,1.58203125,0,0
-2.2055397494114E-05,1.56518253788818E-05,1.58203125,0,0
-3.12186675728299E-05,2.27839009312447E-05,1.58203125,0,0
-2.30687328439672E-05,1.70897237694589E-05,1.58203125,0,0
-2.71908083959715E-05,2.04048519663047E-05,1.58203125,0,0
-2.0830155335716E-05,1.73611315403832E-05,1.58203125,0,0
-2.36135128943715E-05,1.90844275493873E-05,1.58203125,0,0
-2.26590145757655E-05,1.79544804268517E-05,1.58203125,0,0
-2.52695881499676E-05,1.89048259926494E-05,1.58203125,0,0
-2.49038494075648E-05,1.62380456458777E-05,1.58203125,0,0
-2.54011411016108E-05,1.53643140947679E-05,1.58203125,0,0
-2.64685240836116E-05,1.67029393196572E-05,1.58203125,0,0
-2.56474468187662E-05,1.73309854289982E-05,1.58203125,0,0
-2.49942331720376E-05,1.77901220013155E-05,1.58203125,0,0
-2.30121258937288E-05,1.52473267007736E-05,1.58203125,0,0
-2.49162294494454E-05,1.40937154355925E-05,1.58203125,0,0
-2.47045227297349E-05,1.35348400363E-05,1.58203125,0,0
-2.56855382758658E-05,1.68031292560045E-05,1.58203125,0,0
-2.33615919569274E-05,1.77107885974692E-05,1.58203125,0,0
-2.26972879318055E-05,1.92039478861261E-05,1.58203125,0,0
-2.05580017791362E-05,1.97327844944084E-05,1.58203125,0,0
-2.11285369005054E-05,2.07479606615379E-05,1.58203125,0,0
-1.94165277207503E-05,1.93297437363071E-05,1.58203125,0,0
-1.8278022253071E-05,1.7966864106711E-05,1.58203125,0,0
-1.75125642272178E-05,1.57801841851324E-05,1.58203125,0,0
-1.866255843197E-05,1.4677454601042E-05,1.58203125,0,0
-1.88648955372628E-05,1.51266031025443E-05,1.58203125,0,0
-1.95921147678746E-05,1.65488927450497E-05,4.921875,0,0
-1.75888872036012E-05,1.34936035465216E-05,4.921875,0,0
-2.49358035944169E-05,1.86169581866125E-05,4.921875,0,0
-1.9054694348597E-05,1.3599563317257E-05,4.921875,0,0
-2.26814918278251E-05,1.66981917573139E-05,4.921875,0,0
-1.75105251400964E-05,1.32270097310538E-05,4.921875,0,0
-1.89590082300128E-05,1.39722669700859E-05,4.921875,0,0
-1.55211164383218E-05,1.09576676550205E-05,4.921875,0,0
-1.48723083839286E-05,1.07597043097485E-05,4.921875,0,0
-1.46723778016167E-05,8.76373087521642E-06,4.921875,0,0
-1.6696078091627E-05,7.48298998587416E-06,4.921875,0,0
-1.8774295313051E-05,6.89769558448461E-06,4.921875,0,0
-1.89220590982586E-05,5.57869816475431E-06,4.921875,0,0
-2.03883100766689E-05,5.58670808459283E-06,4.921875,0,0
-1.99682453967398E-05,4.5554802454717E-06,4.921875,0,0
-2.11380556720542E-05,5.0982266657229E-06,4.921875,0,0
-2.03415802388918E-05,3.52676579495892E-06,4.921875,0,0
-2.20945512410253E-05,3.79458606403205E-06,4.921875,0,0
-2.22740363824414E-05,3.67151028513035E-06,4.921875,0,0
-2.30412242672173E-05,5.78375420445809E-06,4.921875,0,0
-2.12373088288587E-05,6.53873530609417E-06,4.921875,0,0
-2.11802416743012E-05,8.10928759165108E-06,4.921875,0,0
-2.01913298951695E-05,8.97299651114736E-06,4.921875,0,0
-1.94348212971818E-05,1.06359084384167E-05,4.921875,0,0
-1.89969032362569E-05,1.09843249447295E-05,4.921875,0,0
-1.99045407498488E-05,1.05265653473907E-05,4.921875,0,0
-2.02313385671005E-05,9.23572406463791E-06,4.921875,0,0
-2.03297149710124E-05,6.81640449329279E-06,4.921875,0,0
-1.62184987857472E-05,2.61100922216428E-06,4.921875,0,0
-2.32752317970153E-05,2.07656285056146E-06,4.921875,0,0
-1.90867976925801E-05,-1.99914484255714E-06,4.921875,0,0
-2.41941943386337E-05,-3.31396927322203E-06,4.921875,0,0
-2.13434814213542E-05,-1.7687949593892E-06,4.921875,0,0
-2.48663418460637E-05,3.11437452182872E-06,4.921875,0,0
-2.36569412663812E-05,6.46796797809657E-06,4.921875,0,0
-2.43816593865631E-05,8.42911776999244E-06,4.921875,0,0
-2.37869408010738E-05,7.52308096707566E-06,4.921875,0,0
-2.51454948738683E-05,5.91425077800523E-06,4.921875,0,0
-2.84372763417196E-05,4.18374611399486E-06,4.921875,0,0
-3.11514304485172E-05,2.4505284272891E-06,4.921875,0,0
-3.38218196702655E-05,2.6866596272157E-06,4.921875,0,0
-3.34957767336164E-05,4.85314103571E-06,4.921875,0,0
-3.32778618030716E-05,6.73703880238463E-06,4.921875,0,0
-2.98911618301645E-05,4.57204350823304E-06,4.921875,0,0
-2.7872189093614E-05,7.37264542749472E-07,4.921875,0,0
-2.46737181441858E-05,-1.60956699346571E-06,4.921875,0,0
-2.5311946956208E-05,-1.25850431231811E-06,4.921875,0,0
-2.70563850790495E-05,-2.41250972976559E-07,4.921875,0,0
-2.92598306259606E-05,7.76639126343071E-07,4.921875,0,0
-2.72745965048671E-05,1.03896218206501E-06,4.921875,0,0
-2.56387156696292E-05,1.65061703683023E-06,4.921875,0,0
-2.471444895491E-05,2.56986209024035E-06,4.921875,0,0
-2.57037409028271E-05,3.94188646168914E-06,4.921875,0,0
-2.69248630502261E-05,5.6848780332075E-06,4.921875,0,0
-2.69201900664484E-05,6.31703005637974E-06,4.921875,0,0
-2.32854072237387E-05,1.89823458640603E-06,4.921875,0,0
-3.49259498761967E-05,-8.31285490221489E-07,4.921875,0,0
-2.90394800686045E-05,-4.99859152114368E-06,4.921875,0,0
-3.60288941010367E-05,-6.96356573826051E-06,4.921875,0,0
-3.26165172737092E-05,-1.41154296215973E-05,4.921875,0,0
-3.56792770617176E-05,-2.05753258342156E-05,4.921875,0,0
-3.06674883177038E-05,-2.48765554715646E-05,4.921875,0,0
-2.75421625701711E-05,-2.52104600804159E-05,4.921875,0,0
-2.35094394156476E-05,-2.65651433437597E-05,4.921875,0,0
-2.22695598495193E-05,-2.98176855721977E-05,4.921875,0,0
-2.22695034608478E-05,-3.43574756698217E-05,4.921875,0,0
-2.1141737306607E-05,-3.86655883630738E-05,4.921875,0,0
-2.21452883124584E-05,-4.10481807193719E-05,4.921875,0,0
-2.23962742893491E-05,-4.24202953581698E-05,4.921875,0,0
-2.55786471825559E-05,-4.1824379877653E-05,4.921875,0,0
-2.55110335274367E-05,-3.86707579309586E-05,4.921875,0,0
-2.66073548118584E-05,-3.31272931362037E-05,4.921875,0,0
-2.5048982934095E-05,-2.86633112409618E-05,4.921875,0,0
-2.65203507296974E-05,-2.46706240432104E-05,4.921875,0,0
-2.57997307926416E-05,-2.14257252082461E-05,4.921875,0,0
-2.635404416651E-05,-1.7469450540375E-05,4.921875,0,0
-2.69700958597241E-05,-1.34432011691388E-05,4.921875,0,0
-2.93867778964341E-05,-1.07112909972784E-05,4.921875,0,0
-2.97914575639879E-05,-9.41772668738849E-06,4.921875,0,0
-3.14640856231563E-05,-8.00317684479523E-06,4.921875,0,0
-3.3961099688895E-05,-5.49419382878114E-06,4.921875,0,0
-3.57575008820277E-05,-1.40934093906253E-06,4.921875,0,0
-2.89883591904072E-05,2.33194600696152E-06,4.921875,0,0
-4.08356645493768E-05,5.50656113773584E-06,4.921875,0,0
-3.17168814945035E-05,8.17591717350297E-06,4.921875,0,0
-4.09569911425933E-05,1.19041969810496E-05,4.921875,0,0
-3.54837538907304E-05,1.50742143887328E-05,4.921875,0,0
-3.96932482544798E-05,1.81469531526091E-05,4.921875,0,0
-3.56995078618638E-05,2.03617055376526E-05,4.921875,0,0
-3.62020546162967E-05,2.19359681068454E-05,4.921875,0,0
-3.36629818775691E-05,2.36206215049606E-05,4.921875,0,0
-3.19755017699208E-05,2.61856130236993E-05,4.921875,0,0
-3.0972787499195E-05,2.92733075184515E-05,4.921875,0,0
-2.85594323941041E-05,3.01982363453135E-05,4.921875,0,0
-2.79206233244622E-05,2.99731600534869E-05,4.921875,0,0
-2.46515974140493E-05,3.08721137116663E-05,4.921875,0,0
-2.53953130595619E-05,3.29803478962276E-05,4.921875,0,0
-2.27058226300869E-05,3.47127534041647E-05,4.921875,0,0
-2.2825110136182E-05,3.45413282047957E-05,4.921875,0,0
-2.04942898562877E-05,3.21403422276489E-05,4.921875,0,0
-2.17891247302759E-05,3.06577640003525E-05,4.921875,0,0
-2.08219717023894E-05,3.14402022922877E-05,4.921875,0,0
-2.13570529012941E-05,3.27785819536075E-05,4.921875,0,0
-1.85262560989941E-05,3.37094388669357E-05,4.921875,0,0
-1.81909999810159E-05,3.40050210070331E-05,4.921875,0,0
-1.91443123185309E-05,3.33806601702236E-05,4.921875,0,0
-2.02801675186493E-05,3.28768765029963E-05,4.921875,0,0
-1.80695878952974E-05,3.37119745381642E-05,4.921875,0,0
-1.55705220095115E-05,3.42057646776084E-05,4.921875,0,0
-1.27232151498902E-05,2.68994735961314E-05,4.921875,0,0
-1.83293304871768E-05,3.95582683268003E-05,4.921875,0,0
-1.52361062646378E-05,3.22543382935692E-05,4.921875,0,0
-1.99986789084505E-05,3.86140563932713E-05,4.921875,0,0
-1.90939317690209E-05,2.98494906019187E-05,4.921875,0,0
-2.18160621443531E-05,3.1365856557386E-05,4.921875,0,0
-2.04578554985346E-05,2.84776051557856E-05,4.921875,0,0
-1.90970731637208E-05,3.24405336868949E-05,4.921875,0,0
-1.59675455506658E-05,3.34110918629449E-05,4.921875,0,0
-1.55501056724461E-05,3.4562708606245E-05,4.921875,0,0
-1.83508109330432E-05,3.44576219504233E-05,4.921875,0,0
-2.03043855435681E-05,3.22157902701292E-05,4.921875,0,0
-2.11673523153877E-05,3.22420019074343E-05,4.921875,0,0
-1.99756195797818E-05,2.94873862003442E-05,4.921875,0,0
-2.11790829780512E-05,2.85616824839963E-05,4.921875,0,0
-2.1342628315324E-05,2.49725344474427E-05,4.921875,0,0
-2.15502586797811E-05,2.67101004283177E-05,4.921875,0,0
-1.95504071598407E-05,2.76167156698648E-05,4.921875,0,0
-1.95915654330747E-05,3.13693417410832E-05,4.921875,0,0
-1.93692485481733E-05,3.05102203128627E-05,4.921875,0,0
-2.0185454559396E-05,2.97281494567869E-05,4.921875,0,0
-2.00761496671475E-05,2.63544297922635E-05,4.921875,0,0
-1.98904144781409E-05,2.34478884522105E-05,4.921875,0,0
-1.9293642253615E-05,1.81168397830334E-05,4.921875,0,0
-1.97160534298746E-05,1.28800702441367E-05,4.921875,0,0
-2.07688663067529E-05,9.11296592676081E-06,4.921875,0,0
-2.20121128222672E-05,8.51842742122244E-06,4.921875,0,0
-1.78263908310328E-05,8.50816741149174E-06,4.921875,0,0
-2.45709579758113E-05,1.28495194076095E-05,4.921875,0,0
-1.81661016540602E-05,1.23211175377946E-05,4.921875,0,0
-2.35246388911037E-05,1.87696678040084E-05,4.921875,0,0
-2.03772578970529E-05,2.07835255423561E-05,4.921875,0,0
-2.33378086704761E-05,2.20806650759187E-05,4.921875,0,0
-2.12695304071531E-05,2.14136507565854E-05,4.921875,0,0
-2.32317506743129E-05,2.17675533349393E-05,4.921875,0,0
-2.38277225435013E-05,2.02905175683554E-05,4.921875,0,0
-2.36342384596355E-05,1.87602563528344E-05,4.921875,0,0
-2.26595875574276E-05,1.9502876966726E-05,4.921875,0,0
-2.07428365683882E-05,2.00435133592691E-05,4.921875,0,0
-2.04193165700417E-05,1.99944624910131E-05,4.921875,0,0
-1.888439146569E-05,1.79094640770927E-05,4.921875,0,0
-1.93422565644141E-05,1.78388272615848E-05,4.921875,0,0
-1.80073639057809E-05,1.91035342140822E-05,4.921875,0,0
-1.84066466317745E-05,1.99673431779956E-05,4.921875,0,0
-1.58490602188976E-05,1.76552421180531E-05,4.921875,0,0
-1.3911447240389E-05,1.68680271599442E-05,4.921875,0,0
-1.05170929600718E-05,1.71085375768598E-05,4.921875,0,0
-1.0994131116604E-05,1.77582442120183E-05,4.921875,0,0
-1.25079886856838E-05,1.75169279827969E-05,4.921875,0,0
-1.48557001011795E-05,1.58952916535782E-05,4.921875,0,0
-1.53581331687747E-05,1.39640224006143E-05,4.921875,0,0
-1.62728683790192E-05,1.48652352436329E-05,4.921875,0,0
-1.61783300427487E-05,1.66477784659946E-05,4.921875,0,0
-1.61714342539199E-05,1.77674082806334E-05,4.921875,0,0
-1.32243167172419E-05,1.37289416670683E-05,4.921875,0,0
-1.95429365703603E-05,1.87802215805277E-05,4.921875,0,0
-1.68594960996415E-05,1.44848509080475E-05,4.921875,0,0
-2.11310198210413E-05,2.00156082428293E-05,4.921875,0,0
-1.89393995242426E-05,1.71946812770329E-05,4.921875,0,0
-2.23154274863191E-05,1.92272145795869E-05,4.921875,0,0
-2.38809061556822E-05,1.84773816727102E-05,8.4375,0,0
-2.83090939774411E-05,1.90388072951464E-05,8.4375,0,0
-3.0410970794037E-05,1.65577803272754E-05,8.4375,0,0
-3.19448081427254E-05,1.39474313982646E-05,8.4375,0,0
-3.34169963025488E-05,1.24432654047268E-05,8.4375,0,0
-3.40234437317122E-05,1.28890424093697E-05,8.4375,0,0
-3.43204301316291E-05,1.6524973034393E-05,8.4375,0,0
-3.30896546074655E-05,1.71379615494516E-05,8.4375,0,0
-3.4325013984926E-05,1.60151157615473E-05,8.4375,0,0
-3.49045949405991E-05,1.4324921721709E-05,8.4375,0,0
-3.50164555129595E-05,1.64833872986492E-05,8.4375,0,0
-3.11430922010913E-05,1.75133918673964E-05,8.4375,0,0
-2.90020816464676E-05,1.92614643310662E-05,8.4375,0,0
-2.7544096155907E-05,1.96447545022238E-05,8.4375,0,0
-2.80183157883585E-05,2.04908774321666E-05,8.4375,0,0
-2.79429623333272E-05,1.88200720003806E-05,8.4375,0,0
-2.89887429971714E-05,1.93545638467185E-05,8.4375,0,0
-2.90374337055255E-05,2.12642335100099E-05,8.4375,0,0
-2.97543210763251E-05,2.08481851586839E-05,8.4375,0,0
-3.05779612972401E-05,1.62162032211199E-05,8.4375,0,0
-3.00553037959617E-05,1.21232733363286E-05,8.4375,0,0
-2.24455125135137E-05,9.41323105507763E-06,8.4375,0,0
-3.03709366562543E-05,1.43850584208849E-05,8.4375,0,0
-2.11407950700959E-05,1.19762462418294E-05,8.4375,0,0
-2.57332576438785E-05,1.3495063285518E-05,8.4375,0,0
-1.87494370038621E-05,1.02624089777237E-05,8.4375,0,0
-2.08000201382674E-05,1.19992801046465E-05,8.4375,0,0
-1.7955680959858E-05,1.41888385769562E-05,8.4375,0,0
-2.01554921659408E-05,1.6705025700503E-05,8.4375,0,0
-2.06725962925702E-05,1.74707420228515E-05,8.4375,0,0
-2.20974634430604E-05,1.90662540262565E-05,8.4375,0,0
-2.36401756410487E-05,2.03792696993332E-05,8.4375,0,0
-2.2534415620612E-05,1.92446404980728E-05,8.4375,0,0
-2.03519102797145E-05,1.74188644450624E-05,8.4375,0,0
-1.59465762408217E-05,1.54484368977137E-05,8.4375,0,0
-1.64551420311909E-05,1.45858866744675E-05,8.4375,0,0
-1.64091834449209E-05,1.16570672616945E-05,8.4375,0,0
-1.84684813575586E-05,1.01336117950268E-05,8.4375,0,0
-1.66507397807436E-05,9.23086827242514E-06,8.4375,0,0
-1.70223429449834E-05,8.89717102836585E-06,8.4375,0,0
-1.67035595950438E-05,7.93273102317471E-06,8.4375,0,0
-1.93166943063261E-05,9.17682064027758E-06,8.4375,0,0
-1.94878193724435E-05,1.04678438219707E-05,8.4375,0,0
-2.02254941541469E-05,1.12218594949809E-05,8.4375,0,0
-1.97958688659128E-05,1.01368259493029E-05,8.4375,0,0
-1.99911537492881E-05,8.11261725175427E-06,8.4375,0,0
-1.90330392797478E-05,6.95199696565396E-06,8.4375,0,0
-1.82679596036905E-05,7.10414178684005E-06,8.4375,0,0
-1.5965391867212E-05,6.14724922343157E-06,8.4375,0,0
-2.37873082369333E-05,9.47647822613362E-06,8.4375,0,0
-2.00242411665386E-05,7.29633893570281E-06,8.4375,0,0
-2.56353923759889E-05,6.44253350401414E-06,8.4375,0,0
-2.28512817557203E-05,3.37718529408448E-06,8.4375,0,0
-2.40154677157989E-05,3.3944820643228E-06,8.4375,0,0
-2.24676441575866E-05,3.4465126645955E-06,8.4375,0,0
-2.31724279728951E-05,4.84903648612089E-06,8.4375,0,0
-2.32218717428623E-05,4.77322373626521E-06,8.4375,0,0
-2.47258049057564E-05,4.97207565786084E-06,8.4375,0,0
-2.63541787717259E-05,6.0383581512724E-06,8.4375,0,0
-2.63794590864563E-05,7.31065074432991E-06,8.4375,0,0
-2.79042578767985E-05,8.45914473757148E-06,8.4375,0,0
-2.7685659006238E-05,8.47024602990132E-06,8.4375,0,0
-2.73910100077046E-05,7.93276285548927E-06,8.4375,0,0
-2.50541015702765E-05,6.23420874035219E-06,8.4375,0,0
-2.57435076491674E-05,4.97797509524389E-06,8.4375,0,0
-2.71284206974087E-05,3.7214608710201E-06,8.4375,0,0
-2.98905852105236E-05,4.35728861702955E-06,8.4375,0,0
-2.95956815534737E-05,5.50870390725322E-06,8.4375,0,0
-3.1507144740317E-05,7.45483202990727E-06,8.4375,0,0
-3.48182220477611E-05,7.68598602007842E-06,8.4375,0,0
-3.77265496354084E-05,7.69879716244759E-06,8.4375,0,0
-3.72137255908456E-05,7.26537291484419E-06,8.4375,0,0
-3.63954786735121E-05,6.46892840450164E-06,8.4375,0,0
-3.57073477061931E-05,7.29159228285425E-06,8.4375,0,0
-3.56035561708268E-05,8.34745696920436E-06,8.4375,0,0
-3.18360471283086E-05,4.0834011088009E-06,8.4375,0,0
-4.78008114441764E-05,3.3094167974923E-06,8.4375,0,0
-3.93875270674471E-05,2.88255421310168E-07,8.4375,0,0
-4.81908282381482E-05,2.15419618143642E-06,8.4375,0,0
-4.15334725403227E-05,2.85753071693762E-06,8.4375,0,0
-4.42017299064901E-05,5.83140763410483E-06,8.4375,0,0
-3.80604578822386E-05,4.53964594271383E-06,8.4375,0,0
-3.70711350115016E-05,3.54378312295012E-06,8.4375,0,0
-3.63166182069108E-05,2.07701100407576E-06,8.4375,0,0
-3.68495566362981E-05,1.18245748126355E-06,8.4375,0,0
-3.58779107045848E-05,1.07402581761562E-06,8.4375,0,0
-3.2687523344066E-05,1.72170246059977E-06,8.4375,0,0
-3.15318320645019E-05,2.97438919005799E-06,8.4375,0,0
-2.6969351893058E-05,2.45159799305839E-06,8.4375,0,0
-2.49919412453892E-05,1.31902231714776E-06,8.4375,0,0
-2.03673262149096E-05,2.7506283117873E-07,8.4375,0,0
-1.92519182746764E-05,1.72631087025366E-06,8.4375,0,0
-1.4640632798546E-05,1.63548611453734E-06,8.4375,0,0
-1.44765435834415E-05,-1.2125993009704E-07,8.4375,0,0
-1.3483431757777E-05,-2.06867707674974E-06,8.4375,0,0
-1.40471902341233E-05,-1.9215854081267E-06,8.4375,0,0
-1.20971317301155E-05,-2.83903364106664E-06,8.4375,0,0
-1.37057213578373E-05,-4.65279163108789E-06,8.4375,0,0
-1.50044752444956E-05,-7.71209488448221E-06,8.4375,0,0
-1.58545990416314E-05,-1.05086583062075E-05,8.4375,0,0
-1.48757435454172E-05,-9.47041826293571E-06,8.4375,0,0
-1.31369561131578E-05,-6.075420515117E-06,8.4375,0,0
-1.02798840089235E-05,-3.50632535628392E-06,8.4375,0,0
-1.48387107401504E-05,-5.06567130287294E-06,8.4375,0,0
-1.17026693260414E-05,-3.80054780180217E-06,8.4375,0,0
-1.35448481159983E-05,-4.07751258535427E-06,8.4375,0,0
-1.13826999950106E-05,-2.5588692551537E-06,8.4375,0,0
-1.29733534777188E-05,-2.69093948190857E-06,8.4375,0,0
-1.15142538561486E-05,-9.72423549683299E-07,8.4375,0,0
-1.02992471511243E-05,2.87430140133438E-07,8.4375,0,0
-8.21558478492079E-06,-3.68544590401143E-08,8.4375,0,0
-7.20631987860543E-06,-2.33935770665994E-06,8.4375,0,0
-7.16913473297609E-06,-3.36800076183863E-06,8.4375,0,0
-7.36359515940421E-06,-3.56809232471278E-06,8.4375,0,0
-8.50586457090685E-06,-3.08081189359655E-06,8.4375,0,0
-8.95764060260262E-06,-1.09660538782919E-06,8.4375,0,0
-1.04327964436379E-05,6.25389702690882E-07,8.4375,0,0
-1.04104628917412E-05,2.02205887944729E-06,8.4375,0,0
-1.17290173875517E-05,2.83290478364506E-06,8.4375,0,0
-1.32224222397781E-05,4.73526870337082E-06,8.4375,0,0
-1.67806192621356E-05,5.9120075093233E-06,8.4375,0,0
-1.94059994100826E-05,6.54462837701431E-06,8.4375,0,0
-2.25629883061629E-05,6.09656035521766E-06,8.4375,0,0
-2.56003095273627E-05,6.19039610683103E-06,8.4375,0,0
-2.81252559943823E-05,7.2347252171312E-06,8.4375,0,0
-2.98409904644359E-05,8.91243689693511E-06,8.4375,0,0
-3.35025943059009E-05,1.02125468401937E-05,8.4375,0,0
-3.57329336111434E-05,1.07418281913851E-05,8.4375,0,0
-3.47017012245487E-05,1.08973317765049E-05,8.4375,0,0
-2.55662616837071E-05,9.62632293521892E-06,8.4375,0,0
-3.54913645423949E-05,1.64117700478528E-05,8.4375,0,0
-2.49681143031921E-05,1.57647027663188E-05,8.4375,0,0
-3.03285432892153E-05,1.80935894604772E-05,8.4375,0,0
-2.46999370574486E-05,1.41420587169705E-05,8.4375,0,0
-2.82386208709795E-05,1.20835611596704E-05,8.4375,0,0
-2.41319703491172E-05,9.75688999460544E-06,8.4375,0,0
-2.45174596784636E-05,1.16723886094405E-05,8.4375,0,0
-2.22774069698062E-05,1.26246377476491E-05,8.4375,0,0
-2.10516736842692E-05,1.27995326693053E-05,8.4375,0,0
-2.09518930205377E-05,1.17344879981829E-05,8.4375,0,0
-2.03291474463185E-05,9.07550929696299E-06,8.4375,0,0
-2.18867589865113E-05,8.68887673277641E-06,8.4375,0,0
-2.06942459044512E-05,9.79659580480075E-06,8.4375,0,0
-2.17000415432267E-05,1.1282087143627E-05,8.4375,0,0
-2.07454486371716E-05,1.02015465017757E-05,8.4375,0,0
-2.36402029258898E-05,8.83668872120325E-06,8.4375,0,0
-2.41322341025807E-05,6.86400562699419E-06,8.4375,0,0
-2.73286659648875E-05,6.63938726574997E-06,8.4375,0,0
-2.85461155726807E-05,5.747620434704E-06,8.4375,0,0
-3.07219124806579E-05,4.67945665150182E-06,8.4375,0,0
-2.92303338937927E-05,2.22084736378747E-06,8.4375,0,0
-2.84487086901208E-05,-7.15958037744713E-07,8.4375,0,0
-2.77171784546226E-05,-3.45544299307221E-06,8.4375,0,0
-2.93648645310896E-05,-3.40243127538997E-06,8.4375,0,0
-3.0678365874337E-05,-3.08667063109169E-06,8.4375,0,0
-3.29225513269193E-05,-4.3247628127574E-06,8.4375,0,0
-2.95593308692332E-05,-4.59535158370272E-06,8.4375,0,0
-4.32904635090381E-05,-7.66563789511565E-06,8.4375,0,0
-3.3426327718189E-05,-8.40607026475482E-06,8.4375,0,0
-4.08048035751563E-05,-1.22456358440104E-05,8.4375,0,0
-3.58269717253279E-05,-1.0825356184796E-05,8.4375,0,0
-3.91488647437654E-05,-8.36306389828678E-06,8.4375,0,0
-3.48548237525392E-05,-6.73015574648161E-06,8.4375,0,0
-3.46450979122892E-05,-8.66053142090095E-06,8.4375,0,0
-3.16897385346238E-05,-1.12795169115998E-05,8.4375,0,0
-3.01722138829064E-05,-1.14639551611617E-05,8.4375,0,0
-3.01323707390111E-05,-8.95825360203162E-06,8.4375,0,0
-2.92783279292053E-05,-6.84478163748281E-06,11.07421875,0,0
-2.98986215057084E-05,-6.57978489471134E-06,11.07421875,0,0
-2.69849351752782E-05,-8.00078032625606E-06,11.07421875,0,0
-2.60249944403768E-05,-1.05231711131637E-05,11.07421875,0,0
-2.26574757107301E-05,-1.21898101497209E-05,11.07421875,0,0
-2.38772936427267E-05,-1.37515180540504E-05,11.07421875,0,0
-2.22902854147833E-05,-1.35086211230373E-05,11.07421875,0,0
-2.31426874961471E-05,-1.2579298527271E-05,11.07421875,0,0
-2.23677834583214E-05,-1.10577084342367E-05,11.07421875,0,0
-2.44460898102261E-05,-9.56679105001967E-06,11.07421875,0,0
-2.26251449930714E-05,-8.54538302519359E-06,11.07421875,0,0
-2.03549207071774E-05,-8.86882480699569E-06,11.07421875,0,0
-1.75408913491992E-05,-8.52493940328714E-06,11.07421875,0,0
-1.70651801454369E-05,-8.13108090369496E-06,11.07421875,0,0
-1.75521236087661E-05,-8.24158723844448E-06,11.07421875,0,0
-1.79241051228018E-05,-7.46399700801703E-06,11.07421875,0,0
-1.40649653985747E-05,-4.76643117508502E-06,11.07421875,0,0
-1.97594781639054E-05,-7.29831981516327E-06,11.07421875,0,0
-1.54197041410953E-05,-7.57092811909388E-06,11.07421875,0,0
-2.0259540178813E-05,-7.89727528172079E-06,11.07421875,0,0
-1.97427343664458E-05,-3.99106238546665E-06,11.07421875,0,0
-2.40104527620133E-05,-3.70900011148478E-06,11.07421875,0,0
-2.39013716054615E-05,-2.39018118008971E-06,11.07421875,0,0
-2.60063843597891E-05,-3.37870187649969E-06,11.07421875,0,0
-2.77636827377137E-05,-3.60893795914308E-06,11.07421875,0,0
-3.00840747513575E-05,-2.71859312306333E-06,11.07421875,0,0
-3.07148329738993E-05,-2.59436910710065E-06,11.07421875,0,0
-2.9439384888974E-05,-2.1130563254701E-06,11.07421875,0,0
-2.97705955745187E-05,-6.32649857834622E-07,11.07421875,0,0
-2.96146972686984E-05,1.7286895399593E-06,11.07421875,0,0
-3.07702539430466E-05,3.8613789001829E-06,11.07421875,0,0
-2.9928274670965E-05,7.19360787115875E-06,11.07421875,0,0
-3.04309542116243E-05,1.01093792181928E-05,11.07421875,0,0
-2.95773297693813E-05,1.34473775688093E-05,11.07421875,0,0
-3.08257003780454E-05,1.55539437400876E-05,11.07421875,0,0
-3.06065740005579E-05,1.78634127223631E-05,11.07421875,0,0
-3.03243105008733E-05,2.00308440980734E-05,11.07421875,0,0
-2.83848639810458E-05,2.16683438338805E-05,11.07421875,0,0
-2.77620893029962E-05,2.13976018130779E-05,11.07421875,0,0
-2.84512098005507E-05,2.20765141420998E-05,11.07421875,0,0
-2.90457992377924E-05,2.31861613428919E-05,11.07421875,0,0
-2.58045201917412E-05,2.31068715947913E-05,11.07421875,0,0
-2.10779398912564E-05,2.26211504923413E-05,11.07421875,0,0
-1.3209250937507E-05,1.85880271601491E-05,11.07421875,0,0
-1.69290251506027E-05,2.76279952231562E-05,11.07421875,0,0
-1.03679203675711E-05,2.2935282686376E-05,11.07421875,0,0
-1.33406128952629E-05,2.78099541901611E-05,11.07421875,0,0
-8.93712513061473E-06,2.20407109736698E-05,11.07421875,0,0
-8.25201914267382E-06,2.3904736735858E-05,11.07421875,0,0
-5.42882753507001E-06,2.23407350858906E-05,11.07421875,0,0
-6.85142731526867E-06,2.44102193391882E-05,11.07421875,0,0
-7.07604249328142E-06,2.28572371270275E-05,11.07421875,0,0
-6.43763905827655E-06,1.98872112378012E-05,11.07421875,0,0
-5.89334240430617E-06,1.83078536792891E-05,11.07421875,0,0
-7.12718474460416E-06,1.88367266673595E-05,11.07421875,0,0
-1.14197346192668E-05,2.25402200157987E-05,11.07421875,0,0
-1.44640644066385E-05,2.33404607570264E-05,11.07421875,0,0
-1.65076162375044E-05,2.29683100769762E-05,11.07421875,0,0
-1.55859434016747E-05,1.89104648598004E-05,11.07421875,0,0
-1.67466132552363E-05,1.831312692957E-05,11.07421875,0,0
-1.79968938027741E-05,1.84789041668409E-05,11.07421875,0,0
-2.17564993363339E-05,2.14892315852921E-05,11.07421875,0,0
-2.310208765266E-05,2.12202376133064E-05,11.07421875,0,0
-2.3974513169378E-05,2.09478293982102E-05,11.07421875,0,0
-2.37426556850551E-05,2.00991198653355E-05,11.07421875,0,0
-2.3907603463158E-05,2.07674947887426E-05,11.07421875,0,0
-2.28902936214581E-05,2.02511509996839E-05,11.07421875,0,0
-2.24550603888929E-05,2.06285367312375E-05,11.07421875,0,0
-2.1172929336899E-05,2.18854165723315E-05,11.07421875,0,0
-1.91654326044954E-05,2.35240167967277E-05,11.07421875,0,0
-1.45727772178361E-05,1.78318441612646E-05,11.07421875,0,0
-2.12271770578809E-05,2.19349603867158E-05,11.07421875,0,0
-1.69292543432675E-05,1.34691845232737E-05,11.07421875,0,0
-2.0196403056616E-05,2.06594722840237E-05,11.07421875,0,0
-1.62586457008729E-05,1.86274191946723E-05,11.07421875,0,0
-1.92576117115095E-05,2.18613495235331E-05,11.07421875,0,0
-2.04713760467712E-05,1.93174146261299E-05,11.07421875,0,0
-2.19991434278199E-05,1.76609519257909E-05,11.07421875,0,0
-1.99323876586277E-05,1.26386703414028E-05,11.07421875,0,0
-1.89682759810239E-05,1.23202180475346E-05,11.07421875,0,0
-1.90541195479454E-05,1.79348317033146E-05,11.07421875,0,0
-1.91901854122989E-05,2.21647478610976E-05,11.07421875,0,0
-2.06220192922046E-05,2.37901658692863E-05,11.07421875,0,0
-2.07580960704945E-05,2.1653115254594E-05,11.07421875,0,0
-2.33265545830363E-05,2.08072924579028E-05,11.07421875,0,0
-2.50638058787445E-05,1.9354412870598E-05,11.07421875,0,0
-2.69837219093461E-05,2.30776440730551E-05,11.07421875,0,0
-2.54246551776305E-05,2.58543277595891E-05,11.07421875,0,0
-2.63138572336175E-05,2.89048311969964E-05,11.07421875,0,0
-2.8110844141338E-05,2.80701806332218E-05,11.07421875,0,0
-3.13685814035125E-05,2.73904133791802E-05,11.07421875,0,0
-3.328238017275E-05,2.5862476832117E-05,11.07421875,0,0
-3.5393844882492E-05,2.78448387689423E-05,11.07421875,0,0
-3.49344627466053E-05,3.01861182379071E-05,11.07421875,0,0
-3.37244855472818E-05,3.17018675559666E-05,11.07421875,0,0
-3.35218501277268E-05,2.91417691187235E-05,11.07421875,0,0
-3.43223073286936E-05,2.44430611928692E-05,11.07421875,0,0
-2.92504901153734E-05,1.88087087735767E-05,11.07421875,0,0
-4.14928726968355E-05,2.77355557045667E-05,11.07421875,0,0
-3.2262658351101E-05,2.24087343667634E-05,11.07421875,0,0
-4.11941036873031E-05,2.87231068796245E-05,11.07421875,0,0
-3.4121152566513E-05,2.83075059996918E-05,11.07421875,0,0
-3.56928685505409E-05,3.53282011928968E-05,11.07421875,0,0
-3.11405601678416E-05,3.67184766218998E-05,11.07421875,0,0
-3.26283297908958E-05,3.79563825845253E-05,11.07421875,0,0
-2.97141486953478E-05,3.6542031011777E-05,11.07421875,0,0
-2.65483195107663E-05,3.55799929820932E-05,11.07421875,0,0
-2.51048768404871E-05,3.48943794961087E-05,11.07421875,0,0
-2.3830538339098E-05,3.35938893840648E-05,11.07421875,0,0
-2.4931756342994E-05,3.5665842005983E-05,11.07421875,0,0
-2.23847800953081E-05,3.54687908838969E-05,11.07421875,0,0
-2.35845745919505E-05,3.41478735208511E-05,11.07421875,0,0
-2.28097069339128E-05,3.12173215206712E-05,11.07421875,0,0
-2.50910234171897E-05,3.37160636263434E-05,11.07421875,0,0
-2.26680240302812E-05,3.60315352736507E-05,11.07421875,0,0
-2.22042526729638E-05,3.86741594411433E-05,11.07421875,0,0
-2.04160369321471E-05,3.82148464268539E-05,11.07421875,0,0
-2.30252699111588E-05,3.764914436033E-05,11.07421875,0,0
-2.3322356355493E-05,3.64219667972066E-05,11.07421875,0,0
-2.42810056079179E-05,3.79234661522787E-05,11.07421875,0,0
-2.59535572695313E-05,3.83195219910704E-05,11.07421875,0,0
-2.93539596896153E-05,3.71102141798474E-05,11.07421875,0,0
-3.04621516988846E-05,3.45357548212633E-05,11.07421875,0,0
-2.95129993901355E-05,3.27754460158758E-05,11.07421875,0,0
-2.27654436457669E-05,2.65392100118333E-05,11.07421875,0,0
-3.17626363539603E-05,3.82711587008089E-05,11.07421875,0,0
-2.36414689425146E-05,3.09062525047921E-05,11.07421875,0,0
-2.96560101560317E-05,4.17618794017471E-05,11.07421875,0,0
-2.44830298470333E-05,3.94942799175624E-05,11.07421875,0,0
-2.63712936430238E-05,4.10227730753832E-05,11.07421875,0,0
-2.34201597777428E-05,3.57741482730489E-05,11.07421875,0,0
-2.56958592217416E-05,3.74206501874141E-05,11.07421875,0,0
-2.65172493527643E-05,3.44322506862227E-05,11.07421875,0,0
-2.79544237855589E-05,3.14911703753751E-05,11.07421875,0,0
-3.01238051179098E-05,3.0079398129601E-05,11.07421875,0,0
-3.05066678265575E-05,2.88568207906792E-05,11.07421875,0,0
-3.04540517390706E-05,3.13137898046989E-05,11.07421875,0,0
-2.84646393993171E-05,3.16379919240717E-05,11.07421875,0,0
-2.95830050163204E-05,3.27389898302499E-05,11.07421875,0,0
-2.77089093287941E-05,2.9951641408843E-05,11.07421875,0,0
-2.70675845968071E-05,3.11331714328844E-05,11.07421875,0,0
-2.40884037339129E-05,3.0146064091241E-05,11.07421875,0,0
-2.60547658399446E-05,3.14397875627037E-05,11.07421875,0,0
-2.85283422272187E-05,3.07166228594724E-05,11.07421875,0,0
-3.2487980206497E-05,3.23536987707485E-05,11.07421875,0,0
-3.19497048621997E-05,3.14328353852034E-05,11.07421875,0,0
-3.05649518850259E-05,3.24066604662221E-05,11.07421875,0,0
-2.97783062706003E-05,3.14195567625575E-05,11.07421875,0,0
-3.12578704324551E-05,2.91682044917252E-05,11.07421875,0,0
-3.1617619242752E-05,2.71468870778335E-05,11.07421875,0,0
-3.05681351164822E-05,2.73177865892649E-05,11.07421875,0,0
-2.24712566705421E-05,2.22054295591079E-05,11.07421875,0,0
-3.0609193345299E-05,3.10039831674658E-05,11.07421875,0,0
-2.14192932617152E-05,2.36692321777809E-05,11.07421875,0,0
-2.70376604021294E-05,3.01219188258983E-05,11.07421875,0,0
-2.25917228817707E-05,2.52098107011989E-05,11.07421875,0,0
-2.72235520242248E-05,2.83677381958114E-05,11.07421875,0,0
-2.69370648311451E-05,2.65782236965606E-05,11.07421875,0,0
-2.80021868093172E-05,2.68054263869999E-05,11.07421875,0,0
-2.39321161643602E-05,2.38498341786908E-05,11.07421875,0,0
-2.12410195672419E-05,2.33656628552126E-05,11.07421875,0,0
-1.99723690457176E-05,2.43734793912154E-05,11.07421875,0,0
-1.72914660652168E-05,2.44386355916504E-05,11.07421875,0,0
-1.69760060089175E-05,2.53736980084796E-05,11.07421875,0,0
-1.64919547387399E-05,2.3519456590293E-05,13.53515625,0,0
-1.88326484931167E-05,2.37076019402593E-05,13.53515625,0,0
-1.81206614797702E-05,2.16675107367337E-05,13.53515625,0,0
-1.95661596080754E-05,2.15768122870941E-05,13.53515625,0,0
-1.87084060598863E-05,1.76573521457613E-05,13.53515625,0,0
-2.05592623387929E-05,1.51987251229002E-05,13.53515625,0,0
-2.03251638595248E-05,1.25033811855246E-05,13.53515625,0,0
-2.21339741983684E-05,1.39446747198235E-05,13.53515625,0,0
-2.25227540795458E-05,1.30369526232244E-05,13.53515625,0,0
-2.42061341850786E-05,1.12016086859512E-05,13.53515625,0,0
-2.61164950643433E-05,7.48600905353669E-06,13.53515625,0,0
-2.7854839572683E-05,5.39293205292779E-06,13.53515625,0,0
-2.6766680093715E-05,4.51418600277975E-06,13.53515625,0,0
-2.56817020272138E-05,5.09064011566807E-06,13.53515625,0,0
-2.08471155929146E-05,5.50725326320389E-06,13.53515625,0,0
-2.98539835057454E-05,8.99380847840803E-06,13.53515625,0,0
-2.27111831918592E-05,9.13454368856037E-06,13.53515625,0,0
-2.66580409515882E-05,1.17622630568803E-05,13.53515625,0,0
-2.08608726097737E-05,9.56476378632942E-06,13.53515625,0,0
-2.41050292970613E-05,5.31301793671446E-06,13.53515625,0,0
-2.36136165767675E-05,1.69508098224469E-07,13.53515625,0,0
-2.52190093306126E-05,-1.47247078530199E-06,13.53515625,0,0
-2.30210298468592E-05,-6.43471878447599E-07,13.53515625,0,0
-2.08296787604922E-05,-3.69241313080693E-08,13.53515625,0,0
-1.93239557120251E-05,1.72236434536899E-06,13.53515625,0,0
-1.78325353772379E-05,4.68490634375485E-06,13.53515625,0,0
-1.85891003638972E-05,7.79312267695786E-06,13.53515625,0,0
-1.86075267265551E-05,8.59695592225762E-06,13.53515625,0,0
-2.24981195060536E-05,7.62668696552282E-06,13.53515625,0,0
-2.44600432779407E-05,6.24065251031425E-06,13.53515625,0,0
-2.66328661382431E-05,7.07265053279116E-06,13.53515625,0,0
-2.5190194719471E-05,8.11301742942305E-06,13.53515625,0,0
-2.58825748460367E-05,7.48316961107776E-06,13.53515625,0,0
-2.51916590059409E-05,5.50156119061285E-06,13.53515625,0,0
-2.65592752839439E-05,3.785431090364E-06,13.53515625,0,0
-2.67784726020182E-05,1.6175617929548E-06,13.53515625,0,0
-2.78023690043483E-05,6.36933066289203E-07,13.53515625,0,0
-2.6821870051208E-05,1.63901052019355E-06,13.53515625,0,0
-2.58869131357642E-05,4.44961369794328E-06,13.53515625,0,0
-2.43408103415277E-05,6.22563538854592E-06,13.53515625,0,0
-2.25021685764659E-05,7.07834533386631E-06,13.53515625,0,0
-1.67652888194425E-05,6.12598387306207E-06,13.53515625,0,0
-2.29946472245501E-05,7.52511778046028E-06,13.53515625,0,0
-1.70138409885112E-05,4.1596331357141E-06,13.53515625,0,0
-2.1179028408369E-05,6.26734481556923E-06,13.53515625,0,0
-1.59849259944167E-05,4.17904720961815E-06,13.53515625,0,0
-1.7546741219121E-05,3.04405762108217E-06,13.53515625,0,0
-1.69883514899993E-05,3.40125461661955E-06,13.53515625,0,0
-1.93776722881012E-05,6.48243076284416E-06,13.53515625,0,0
-1.944784889929E-05,7.1848648985906E-06,13.53515625,0,0
-2.00468475668458E-05,6.45204454485793E-06,13.53515625,0,0
-2.05221022042679E-05,6.08678283242625E-06,13.53515625,0,0
-1.97395511349896E-05,6.61331068840809E-06,13.53515625,0,0
-2.05862743314356E-05,6.441105142585E-06,13.53515625,0,0
-1.99815258383751E-05,3.77086666958348E-06,13.53515625,0,0
-1.9440785763436E-05,1.79350445250748E-06,13.53515625,0,0
-1.6041392882471E-05,2.03564582079707E-07,13.53515625,0,0
-1.54157223732909E-05,8.02432680302445E-08,13.53515625,0,0
-1.32654340632143E-05,-3.38820115075578E-07,13.53515625,0,0
-1.22836545415339E-05,-7.5993779091732E-07,13.53515625,0,0
-1.01967316368246E-05,-1.78369714376458E-06,13.53515625,0,0
-1.04851078503998E-05,7.3787815857429E-09,13.53515625,0,0
-9.91991691989824E-06,2.088537257805E-06,13.53515625,0,0
-1.0732627742982E-05,4.11389237342519E-06,13.53515625,0,0
-1.18062025649124E-05,6.23284358880483E-06,13.53515625,0,0
-1.44762871059356E-05,6.82234303894802E-06,13.53515625,0,0
-1.81620544026373E-05,5.35756635144935E-06,13.53515625,0,0
-2.09036534215556E-05,4.62102207166026E-06,13.53515625,0,0
-1.48433873619069E-05,4.77230196338496E-06,13.53515625,0,0
-2.00411450350657E-05,5.97462758378242E-06,13.53515625,0,0
-1.65712135640206E-05,2.76259629572451E-06,13.53515625,0,0
-2.32926231547026E-05,4.84294287161902E-06,13.53515625,0,0
-1.97568770090584E-05,5.31792738911463E-06,13.53515625,0,0
-1.97029512492009E-05,6.41815540802781E-06,13.53515625,0,0
-1.43812339956639E-05,6.00068005951471E-06,13.53515625,0,0
-1.38129144033883E-05,3.49378433384118E-06,13.53515625,0,0
-1.41143518703757E-05,-6.25940060672292E-07,13.53515625,0,0
-1.54916324390797E-05,-2.42200940192561E-06,13.53515625,0,0
-1.6396301361965E-05,6.7420202753965E-08,13.53515625,0,0
-1.65622677741339E-05,1.75835657501011E-06,13.53515625,0,0
-1.76718640432227E-05,1.12120039830188E-06,13.53515625,0,0
-1.69989889400313E-05,-6.88467196141573E-07,13.53515625,0,0
-1.89953752851579E-05,-1.53306484662608E-06,13.53515625,0,0
-2.05565011128783E-05,-2.41436941905704E-06,13.53515625,0,0
-2.33707014558604E-05,-1.62339711096138E-06,13.53515625,0,0
-2.20293895836221E-05,-3.08274543669995E-08,13.53515625,0,0
-2.15274540096289E-05,1.11452072815155E-06,13.53515625,0,0
-2.12608556466876E-05,8.00623013219592E-07,13.53515625,0,0
-2.30139194172807E-05,1.42506701195089E-06,13.53515625,0,0
-2.23757433559513E-05,4.14731903219945E-06,13.53515625,0,0
-2.2386911950889E-05,5.76372895011446E-06,13.53515625,0,0
-2.32269321713829E-05,4.55461395176826E-06,13.53515625,0,0
-2.49409713433124E-05,3.97756684833439E-06,13.53515625,0,0
-2.43970134761184E-05,4.99870702697081E-06,13.53515625,0,0
-2.30623845709488E-05,5.0574913075252E-06,13.53515625,0,0
-1.94783006008947E-05,9.53936591940874E-07,13.53515625,0,0
-2.8187656425871E-05,-1.40519739488809E-06,13.53515625,0,0
-2.11074693652336E-05,-1.5878094927757E-06,13.53515625,0,0
-2.60713022726122E-05,4.83576195620117E-06,13.53515625,0,0
-2.37609474424971E-05,8.35805712995352E-06,13.53515625,0,0
-2.69616975856479E-05,7.86373948358232E-06,13.53515625,0,0
-2.53081125265453E-05,5.69794156035641E-06,13.53515625,0,0
