biceps_emg, triceps_emg, subject_position, position_estimate, brace_position
-2.07531629712321E-05,8.17750333226286E-06,0.703125,0,0.00887535063113605
-2.44645598286297E-05,1.03164975371328E-05,0.703125,0,0.00887535063113605
-2.08195724553661E-05,9.37025197345065E-06,0.703125,0,0.00887535063113605
-2.44968086917652E-05,1.04801256384235E-05,0.703125,0,0.00887535063113605
-2.47388015850447E-05,9.61303976509953E-06,0.703125,0,0.00887535063113605
-2.70349319180241E-05,1.00263869171613E-05,0.703125,0,0.00887535063113605
-2.64527443505358E-05,1.08701369754272E-05,0.703125,0,0.00887535063113605
-2.50397370109567E-05,1.05613798950799E-05,0.703125,0,0.00887535063113605
-2.41181805904489E-05,9.85838141787099E-06,0.703125,0,0.00887535063113605
-2.38817756326171E-05,9.9541130111902E-06,0.703125,0,0.00887535063113605
-2.54476490226807E-05,1.06359311757842E-05,0.703125,0,0.00887535063113605
-2.39671626331983E-05,1.0541089977778E-05,0.703125,0,0.00887535063113605
-2.39087657973869E-05,1.18804346129764E-05,0.703125,0,0.00887535063113605
-2.25153071369277E-05,1.22078627100564E-05,0.703125,0,0.00887535063113605
-2.3898588551674E-05,1.1568402442208E-05,0.703125,0,0.00887535063113605
-2.38993252423825E-05,1.04467853816459E-05,0.703125,0,0.00887535063113605
-2.46097624767572E-05,1.02326212072512E-05,0.703125,0,0.00887535063113605
-2.27314376388676E-05,8.59924330143258E-06,0.703125,0,0.00887535063113605
-2.24052455450874E-05,7.54256643631379E-06,0.703125,0,0.00887535063113605
-2.20154706767062E-05,6.99276552040828E-06,0.703125,0,0.00887535063113605
-2.23546467168489E-05,6.91776858730009E-06,0.703125,0,0.00887535063113605
-2.11067454074509E-05,6.77826847095275E-06,0.703125,0,0.00887535063113605
-2.19813700823579E-05,6.49380581307923E-06,0.703125,0,0.00887535063113605
-2.3787681129761E-05,7.99598637968302E-06,0.703125,0,0.00887535063113605
-2.45785267907195E-05,1.04800701592467E-05,0.703125,0,0.00887535063113605
-2.08355995710008E-05,9.12160066945944E-06,0.703125,0,0.00887535063113605
-3.0786464776611E-05,1.23074423754588E-05,0.703125,0,0.00887535063113605
-2.41617035499075E-05,8.80215884535573E-06,0.703125,0,0.00887535063113605
-2.75428847089643E-05,9.65966864896473E-06,0.703125,0,0.00887535063113605
-2.11301648960216E-05,6.0927313825232E-06,0.703125,0,0.00887535063113605
-2.33506470976863E-05,9.80456661636708E-06,0.703125,0,0.00887535063113605
-2.26861266128253E-05,1.05991748569068E-05,0.703125,0,0.00887535063113605
-2.58379623119254E-05,9.15789405553369E-06,0.703125,0,0.00887535063113605
-2.67539708147524E-05,6.85267195876804E-06,0.703125,0,0.00887535063113605
-2.68691419478273E-05,7.18117371434346E-06,0.703125,0,0.00887535063113605
-2.51420005952241E-05,8.2938686318812E-06,0.703125,0,0.00887535063113605
-2.27147193072597E-05,8.45832983031869E-06,0.703125,0,0.00887535063113605
-2.30290552281076E-05,8.8843216872192E-06,0.703125,0,0.00887535063113605
-2.22088365262607E-05,8.29968485049903E-06,0.703125,0,0.00887535063113605
-2.39692180912243E-05,8.83420671016211E-06,0.703125,0,0.00887535063113605
-2.45363316935254E-05,8.65008405526169E-06,0.703125,0,0.00887535063113605
-2.66741517407354E-05,1.02406293081003E-05,0.703125,0,0.00887535063113605
-2.44416387431556E-05,1.06269008028903E-05,0.703125,0,0.00887535063113605
-2.37592466874048E-05,1.10726714410703E-05,0.703125,0,0.00887535063113605
-2.32547281484585E-05,1.10271512312465E-05,0.703125,0,0.00887535063113605
-2.62837529589888E-05,1.39002968353452E-05,0.703125,0,0.00887535063113605
-2.69926786131691E-05,1.61579100677045E-05,0.703125,0,0.00887535063113605
-2.662366568984E-05,1.53850069182226E-05,0.703125,0,0.00887535063113605
-2.43995236814953E-05,1.19971855383483E-05,0.703125,0,0.00887535063113605
-2.31729227380129E-05,1.1049650311179E-05,0.703125,0,0.00887535063113605
-2.34753915719921E-05,1.27178873299272E-05,0.703125,0,0.00887535063113605
-2.33345599554013E-05,1.36658863993944E-05,0.703125,0,0.00887535063113605
-1.81234136107378E-05,1.021478419716E-05,0.703125,0,0.00887535063113605
-2.63793081103358E-05,1.29314767036703E-05,0.703125,0,0.00887535063113605
-2.17246124520898E-05,7.88983197708149E-06,0.703125,0,0.00887535063113605
-2.68483527179342E-05,1.14965769171249E-05,0.703125,0,0.00887535063113605
-2.2817162971478E-05,1.04765149444574E-05,0.703125,0,0.00887535063113605
-2.60148499364732E-05,1.201151371788E-05,0.703125,0,0.00887535063113605
-2.42009682551725E-05,1.07912992461934E-05,0.703125,0,0.00887535063113605
-2.39744804275688E-05,1.16064993562759E-05,0.703125,0,0.00887535063113605
-2.23387469304726E-05,1.08433196146507E-05,0.703125,0,0.00887535063113605
-2.2349035134539E-05,1.12267789518228E-05,0.703125,0,0.00887535063113605
-2.32590700761648E-05,1.28182655316778E-05,0.703125,0,0.00887535063113605
-2.29013548960211E-05,1.25446922538686E-05,0.703125,0,0.00887535063113605
-2.28295739361783E-05,1.15232178359292E-05,0.703125,0,0.00887535063113605
-2.05856158572715E-05,1.01414325399674E-05,0.703125,0,0.00887535063113605
-2.14439533010591E-05,1.18496118375333E-05,0.703125,0,0.00887535063113605
-2.13639395951759E-05,1.16612936835736E-05,0.703125,0,0.00887535063113605
-2.25826624955516E-05,1.06055949800066E-05,0.703125,0,0.00887535063113605
-2.11374808714027E-05,8.46637612994527E-06,0.703125,0,0.00887535063113605
-2.21683931158623E-05,8.97190329851583E-06,0.703125,0,0.00887535063113605
-2.27273976634024E-05,9.924513506121E-06,0.703125,0,0.00887535063113605
-2.4259910787805E-05,1.09468292066595E-05,0.703125,0,0.00887535063113605
-2.40333029069006E-05,9.95579102891497E-06,0.703125,0,0.00887535063113605
-2.45193641603692E-05,1.02824924397282E-05,0.703125,0,0.00887535063113605
-2.39422861341154E-05,1.18253237815225E-05,0.703125,0,0.00887535063113605
-2.45627834374318E-05,1.36443250084994E-05,0.703125,0,0.00887535063113605
-2.50888897426194E-05,1.41124928632053E-05,0.703125,0,0.00887535063113605
-2.4759447114775E-05,1.30225162138231E-05,0.703125,0,0.00887535063113605
-1.89317324839067E-05,9.27431483432883E-06,0.703125,0,0.00887535063113605
-2.71560602413956E-05,1.16957489808556E-05,0.703125,0,0.00887535063113605
-2.0127361494815E-05,9.0854164227494E-06,0.703125,0,0.00887535063113605
-2.40762510657078E-05,1.38528685056372E-05,0.703125,0,0.00887535063113605
-2.0570103515638E-05,1.12367188194185E-05,0.703125,0,0.00887535063113605
-2.30647438002052E-05,1.01278401416494E-05,0.703125,0,0.00887535063113605
-2.09167137654731E-05,7.98466771811945E-06,0.703125,0,0.00887535063113605
-2.28331591642927E-05,1.05327781056985E-05,0.703125,0,0.00887535063113605
-2.32621969189495E-05,1.14346657937858E-05,0.703125,0,0.00887535063113605
-2.4381510229432E-05,1.05822346085915E-05,0.703125,0,0.00887535063113605
-2.49552394961938E-05,1.01010391517775E-05,0.703125,0,0.00887535063113605
-2.44366237893701E-05,1.085765507014E-05,0.703125,0,0.00887535063113605
-2.50144712481415E-05,1.25022188512958E-05,0.703125,0,0.00887535063113605
-2.39576402236708E-05,1.19161604743567E-05,0.703125,0,0.00887535063113605
-2.530968413339E-05,1.20956001410377E-05,0.703125,0,0.00887535063113605
-2.5148527129204E-05,1.06748402686208E-05,0.703125,0,0.00887535063113605
-2.6359881303506E-05,9.91916840575868E-06,0.703125,0,0.00887535063113605
-2.4804905478959E-05,8.52530774864135E-06,0.703125,0,0.00887535063113605
-2.50974335358478E-05,8.50459491630318E-06,0.703125,0,0.00887535063113605
-2.40656972891884E-05,7.52842151996447E-06,0.703125,0,0.00887535063113605
-2.46928393607959E-05,8.86105954123195E-06,0.703125,0,0.00887535063113605
-2.39879427681444E-05,9.72677025856683E-06,0.703125,0,0.00887535063113605
-2.41879770328524E-05,9.68877520790556E-06,0.703125,0,0.00887535063113605
-2.32898401009152E-05,8.45018530526431E-06,0.703125,0,0.00887535063113605
-2.30380665016128E-05,7.2512416409154E-06,0.703125,0,0.00887535063113605
-2.31397443712922E-05,6.21785648036166E-06,0.703125,0,0.00887535063113605
-2.31438116315985E-05,5.2882105592289E-06,0.703125,0,0.00887535063113605
-1.88089270523051E-05,3.97086751036113E-06,0.703125,0,0.00887535063113605
-2.81307566183386E-05,7.56337931306916E-06,0.703125,0,0.00887535063113605
-2.29798461077735E-05,9.05771867110161E-06,0.703125,0,0.00887535063113605
-2.77169037872227E-05,1.01398336482816E-05,0.703125,0,0.00887535063113605
-2.32349411817268E-05,8.70286021381617E-06,0.703125,0,0.00887535063113605
-2.43840022449149E-05,9.23033712751931E-06,0.703125,0,0.00887535063113605
-2.18624008994084E-05,9.67724372458179E-06,0.703125,0,0.00887535063113605
-2.3075024728314E-05,1.10028868220979E-05,0.703125,0,0.00887535063113605
-2.29333018069156E-05,1.21828616101993E-05,0.703125,0,0.00887535063113605
-2.28748886001995E-05,1.45390895340825E-05,0.703125,0,0.00887535063113605
-2.40292647504248E-05,1.52673801494529E-05,0.703125,0,0.00887535063113605
-2.45070004893932E-05,1.28482670334051E-05,0.703125,0,0.00887535063113605
-2.49027125391876E-05,1.08838476080564E-05,0.703125,0,0.00887535063113605
-2.27885411732132E-05,1.12696588985273E-05,0.703125,0,0.00887535063113605
-2.3076476281858E-05,1.30620428535622E-05,0.703125,0,0.00887535063113605
-2.21392037929036E-05,1.21041430247715E-05,0.703125,0,0.00887535063113605
-2.34915478358744E-05,1.02410813269671E-05,0.703125,0,0.00887535063113605
-2.33084138017148E-05,9.24559208215214E-06,0.703125,0,0.00887535063113605
-2.46827912633307E-05,9.82298570306739E-06,0.703125,0,0.00887535063113605
-2.41990146605531E-05,9.13593066798057E-06,0.703125,0,0.00887535063113605
-2.54166734521277E-05,8.11819609225495E-06,0.703125,0,0.00887535063113605
-2.57922401942778E-05,9.11569077288732E-06,0.703125,0,0.00887535063113605
-2.65369271801319E-05,1.13188916657236E-05,0.703125,0,0.00887535063113605
-2.72553861577762E-05,1.13769865492941E-05,0.703125,0,0.00887535063113605
-2.87049242615467E-05,1.04829496194725E-05,0.703125,0,0.00887535063113605
-2.87257553281961E-05,1.05892349893111E-05,0.703125,0,0.00887535063113605
-2.84951838693814E-05,1.17449926619884E-05,0.703125,0,0.00887535063113605
-2.23202678171219E-05,9.51329639065079E-06,0.703125,0,0.00887535063113605
-2.97718252113555E-05,1.22483379527694E-05,0.703125,0,0.00887535063113605
-2.05582527996739E-05,7.51257903175429E-06,0.703125,0,0.00887535063113605
-2.7221916752751E-05,9.19864032766782E-06,0.703125,0,0.00887535063113605
-2.28247208724497E-05,7.07827393853222E-06,0.703125,0,0.00887535063113605
-2.60251072177198E-05,1.1103492397524E-05,0.703125,0,0.00887535063113605
-2.34541366808116E-05,1.22369319797144E-05,0.703125,0,0.00887535063113605
-2.455406684021E-05,1.3211340046837E-05,0.703125,0,0.00887535063113605
-2.46764138864819E-05,1.22609453683253E-05,0.703125,0,0.00887535063113605
-2.68987496383488E-05,1.11076669782051E-05,0.703125,0,0.00887535063113605
-2.78863808489405E-05,1.05122690001735E-05,0.703125,0,0.00887535063113605
-2.6180572604062E-05,1.02130761661101E-05,0.703125,0,0.00887535063113605
-2.62331941485172E-05,1.09646616692771E-05,0.703125,0,0.00887535063113605
-2.50482517003547E-05,1.07152927739662E-05,0.703125,0,0.00887535063113605
-2.628789661685E-05,1.24735561257694E-05,0.703125,0,0.00887535063113605
-2.44734492298448E-05,1.4979841580498E-05,0.703125,0,0.00887535063113605
-2.52544050454162E-05,1.82556450454285E-05,0.703125,0,0.00887535063113605
-2.35648840316571E-05,1.77490601345198E-05,0.703125,0,0.00887535063113605
-2.37088843277888E-05,1.63808290380985E-05,0.703125,0,0.00887535063113605
-2.19859266508138E-05,1.45951980812242E-05,0.703125,0,0.00887535063113605
-2.2626378267887E-05,1.4267011465563E-05,0.703125,0,0.00887535063113605
-2.15693598875077E-05,1.31269698613323E-05,0.703125,0,0.00887535063113605
-2.23601127800066E-05,1.28622141346568E-05,0.703125,0,0.00887535063113605
-2.31091289606411E-05,1.18185189421638E-05,0.703125,0,0.00887535063113605
-2.49298318522051E-05,1.06311263152747E-05,0.703125,0,0.00887535063113605
-2.47913449129555E-05,9.9253838925506E-06,0.703125,0,0.00887535063113605
-2.23010192712536E-05,9.86484792520059E-06,0.703125,0,0.00887535063113605
-1.60931667778641E-05,8.04047795099905E-06,0.703125,0,0.00887535063113605
-2.39923556364374E-05,1.24624821182806E-05,0.703125,0,0.00887535063113605
-2.10435100598261E-05,1.21330494948779E-05,0.703125,0,0.00887535063113605
-2.61831646639621E-05,1.53396504174452E-05,0.703125,0,0.00887535063113605
-2.17452670767671E-05,1.32236327772262E-05,0.703125,0,0.00887535063113605
-2.37306103372248E-05,1.50082087202463E-05,0.703125,0,0.00887535063113605
-2.32323618547525E-05,1.42096396302804E-05,0.703125,0,0.00887535063113605
-2.39056098507717E-05,1.3006597328058E-05,0.703125,0,0.00887535063113605
-2.28856351895956E-05,1.23879053717246E-05,0.703125,0,0.00887535063113605
-2.33405735343695E-05,1.33055646074354E-05,0.703125,0,0.00887535063113605
-2.42024016188225E-05,1.4321572962217E-05,0.703125,0,0.00887535063113605
-2.43027698161313E-05,1.38709492603084E-05,0.703125,0,0.00887535063113605
-2.51261280936887E-05,1.36218159241253E-05,0.703125,0,0.00887535063113605
-2.39845867326949E-05,1.334568423772E-05,0.703125,0,0.00887535063113605
-2.45696646743454E-05,1.42609678732697E-05,0.703125,0,0.00887535063113605
-2.39539112953935E-05,1.43039469548967E-05,0.703125,0,0.00887535063113605
-2.49284057645127E-05,1.49997958942549E-05,0.703125,0,0.00887535063113605
-2.375706571911E-05,1.420399894414E-05,0.703125,0,0.00887535063113605
-2.34421713685151E-05,1.33118255689624E-05,0.703125,0,0.00887535063113605
-2.19926241697976E-05,1.13062214950332E-05,0.703125,0,0.00887535063113605
-2.30341174756177E-05,1.13006644824054E-05,0.703125,0,0.00887535063113605
-2.3044030967867E-05,1.24531889014179E-05,0.703125,0,0.00887535063113605
-2.25145613512723E-05,1.28905558085535E-05,0.703125,0,0.00887535063113605
-2.13109124160837E-05,1.17120216600597E-05,0.703125,0,0.00887535063113605
-2.14115352719091E-05,9.80151526164263E-06,0.703125,0,0.00887535063113605
-2.25087296712445E-05,6.34293883194914E-06,0.703125,0,0.00887535063113605
-2.48276937782066E-05,2.51206915891089E-06,0.703125,0,0.00887535063113605
-2.0831390429521E-05,1.38591883569461E-06,0.703125,0,0.00887535063113605
-2.9343866117415E-05,2.83064514405851E-06,0.703125,0,0.00887535063113605
-2.15523741644574E-05,4.22794937549043E-06,0.703125,0,0.00887535063113605
-2.57511328527471E-05,5.29921771885711E-06,0.703125,0,0.00887535063113605
-2.12023805943318E-05,3.45383114108699E-06,0.703125,0,0.00887535063113605
-2.5320867280243E-05,1.81175164470915E-06,0.703125,0,0.00887535063113605
-2.44849634327693E-05,1.73709418049839E-06,0.703125,0,0.00887535063113605
-2.65064718405483E-05,3.47016384694143E-06,0.703125,0,0.00887535063113605
-2.49284876190359E-05,6.24301810603356E-06,0.703125,0,0.00887535063113605
-2.38507600442972E-05,7.93800336396089E-06,0.703125,0,0.00887535063113605
-2.46118288487196E-05,8.62225351738743E-06,0.703125,0,0.00887535063113605
-2.5228931917809E-05,8.10367146186763E-06,0.703125,0,0.00887535063113605
-2.51996534643695E-05,7.37312166165793E-06,0.703125,0,0.00887535063113605
-2.11342521652114E-05,6.85584609527723E-06,0.703125,0,0.00887535063113605
-1.99899441213347E-05,7.29583098291187E-06,0.703125,0,0.00887535063113605
-1.9341043298482E-05,8.70131680130726E-06,0.703125,0,0.00887535063113605
-2.26874981308356E-05,1.09594402601942E-05,0.703125,0,0.00887535063113605
-2.25367293751333E-05,1.32333379951888E-05,0.703125,0,0.00887535063113605
-2.26250576815801E-05,1.48418403114192E-05,0.703125,0,0.00887535063113605
-2.02952942345291E-05,1.43332663355977E-05,0.703125,0,0.00887535063113605
-2.00639842660166E-05,1.2084751688235E-05,0.703125,0,0.00887535063113605
-1.95657466974808E-05,1.10064584077918E-05,0.703125,0,0.00887535063113605
-2.13234961847775E-05,1.03672864497639E-05,0.703125,0,0.00887535063113605
-2.14537976717111E-05,1.00341048892005E-05,0.703125,0,0.00887535063113605
-2.11202204809524E-05,1.05010467450484E-05,0.703125,0,0.00887535063113605
-2.08143119380111E-05,9.83608333626762E-06,0.703125,0,0.00887535063113605
-2.16603402805049E-05,9.19949980016099E-06,0.703125,0,0.00887535063113605
-1.81249997694977E-05,7.20148545951815E-06,0.703125,0,0.00887535063113605
-2.46671206696192E-05,1.04033579191309E-05,0.703125,0,0.00887535063113605
-1.810794492485E-05,8.11805057310266E-06,0.703125,0,0.00887535063113605
-2.38065367739182E-05,9.5989180408651E-06,0.703125,0,0.00887535063113605
-2.09602112590801E-05,7.84478652349208E-06,0.703125,0,0.00887535063113605
-2.44687598751625E-05,8.63174136611633E-06,0.703125,0,0.00887535063113605
-2.30920959438663E-05,6.41943188384175E-06,0.703125,0,0.00887535063113605
-2.44362181547331E-05,6.54093901175656E-06,0.703125,0,0.00887535063113605
-2.33643495448632E-05,7.49887385609327E-06,0.703125,0,0.00887535063113605
-2.31498852372169E-05,8.51680488267448E-06,0.703125,0,0.00887535063113605
-2.41178713622503E-05,8.97555946721695E-06,0.703125,0,0.00887535063113605
-2.34911967709195E-05,9.18728164833738E-06,0.703125,0,0.00887535063113605
-2.36126379604684E-05,9.35284060687991E-06,0.703125,0,0.00887535063113605
-2.28604403673671E-05,8.32703699416015E-06,0.703125,0,0.00887535063113605
-2.46688559855102E-05,9.08836591406725E-06,0.703125,0,0.00887535063113605
-2.43872200371698E-05,1.00796978586004E-05,0.703125,0,0.00887535063113605
-2.571937693574E-05,1.16601004265249E-05,0.703125,0,0.00887535063113605
-2.39632918237476E-05,1.21649318316486E-05,0.703125,0,0.00887535063113605
-2.34745912166545E-05,1.29393511087983E-05,0.703125,0,0.00887535063113605
-2.25479343498591E-05,1.26367140182992E-05,0.703125,0,0.00887535063113605
-2.39877608692041E-05,1.32583581944345E-05,0.703125,0,0.00887535063113605
-2.41868638113374E-05,1.37024162540911E-05,0.703125,0,0.00887535063113605
-2.5336896214867E-05,1.37110309879063E-05,0.703125,0,0.00887535063113605
-2.41689576796489E-05,1.21461589515093E-05,0.703125,0,0.00887535063113605
-2.2784442990087E-05,1.09442489701905E-05,0.703125,0,0.00887535063113605
-2.221133945568E-05,9.91648903436726E-06,0.703125,0,0.00887535063113605
-2.32609709200915E-05,9.12972518563038E-06,0.703125,0,0.00887535063113605
-2.0157967810519E-05,6.4026557993202E-06,0.703125,0,0.00887535063113605
-2.81049433397129E-05,9.09271511773113E-06,0.703125,0,0.00887535063113605
-2.01891671167687E-05,9.21121318242513E-06,0.703125,0,0.00887535063113605
-2.47543084697099E-05,1.21441698865965E-05,0.703125,0,0.00887535063113605
-2.06975182663882E-05,9.90529497357784E-06,0.703125,0,0.00887535063113605
-2.44102720898809E-05,1.26793893286958E-05,0.703125,0,0.00887535063113605
-2.41508168983273E-05,1.35078089442686E-05,0.703125,0,0.00887535063113605
-2.60299802903319E-05,1.33306666612043E-05,0.703125,0,0.00887535063113605
-2.4125109121087E-05,1.1784008165705E-05,0.703125,0,0.00887535063113605
-2.30392397497781E-05,1.18382340588141E-05,0.703125,0,0.00887535063113605
-2.31411540880799E-05,1.19529422590858E-05,0.703125,0,0.00887535063113605
-2.40251465584151E-05,9.51978745433735E-06,0.703125,0,0.00887535063113605
-2.70025229838211E-05,6.46657099423464E-06,0.703125,0,0.00887535063113605
-2.70566997642163E-05,4.30900445280713E-06,0.703125,0,0.00887535063113605
-2.85252299363492E-05,6.54499808661058E-06,0.703125,0,0.00887535063113605
-2.80239182757214E-05,9.199966370943E-06,0.703125,0,0.00887535063113605
-2.92429394903593E-05,9.84531379799591E-06,0.703125,0,0.00887535063113605
-2.69679167104186E-05,7.00467762726475E-06,0.703125,0,0.00887535063113605
-2.64683512796182E-05,6.32868841421441E-06,0.703125,0,0.00887535063113605
-2.5922219720087E-05,8.03594866738422E-06,0.703125,0,0.00887535063113605
-2.89825948129874E-05,1.04125938378274E-05,0.703125,0,0.00887535063113605
-2.9608538170578E-05,9.98188261291943E-06,0.703125,0,0.00887535063113605
-2.9117507438059E-05,8.94942695595091E-06,0.703125,0,0.00887535063113605
-2.73054156423314E-05,8.15201019577216E-06,0.703125,0,0.00887535063113605
-2.61929999396671E-05,7.85588690632721E-06,0.703125,0,0.00887535063113605
-2.56322728091618E-05,6.97030918672681E-06,0.703125,0,0.00887535063113605
-2.61225213762373E-05,6.34608841210138E-06,0.703125,0,0.00887535063113605
-2.19309949898161E-05,5.86589476370136E-06,0.703125,0,0.00887535063113605
-3.03537399304332E-05,1.14672284325934E-05,0.703125,0,0.00887535063113605
-2.10965445148759E-05,1.30825274027302E-05,0.703125,0,0.00887535063113605
-2.68652620434295E-05,1.3595711607195E-05,0.703125,0,0.00887535063113605
-2.31024841923499E-05,1.10445353129762E-05,0.703125,0,0.00887535063113605
-2.50363245868357E-05,1.26776340039214E-05,0.703125,0,0.00887535063113605
-2.23279621422989E-05,1.30717571664718E-05,0.703125,0,0.00887535063113605
-2.40657918766374E-05,1.44073483170359E-05,0.703125,0,0.00887535063113605
-2.25371004489716E-05,1.60064555529971E-05,0.703125,0,0.00887535063113605
-1.97114823095035E-05,1.60084273375105E-05,0.703125,0,0.00887535063113605
-1.86068427865393E-05,1.45602443808457E-05,0.703125,0,0.00887535063113605
-1.96335931832436E-05,1.19707665362512E-05,0.703125,0,0.00887535063113605
-2.17849064938491E-05,9.96973994915606E-06,0.703125,0,0.00887535063113605
-1.91858398466138E-05,8.36544131743722E-06,0.703125,0,0.00887535063113605
-1.93070936802542E-05,9.82821347861318E-06,0.703125,0,0.00887535063113605
-1.96397395484382E-05,1.28312840388389E-05,0.703125,0,0.00887535063113605
-2.27147538680583E-05,1.48674880620092E-05,0.703125,0,0.00887535063113605
-2.17473734664964E-05,1.28480351122562E-05,0.703125,0,0.00887535063113605
-2.20406873268075E-05,9.80743334366707E-06,0.703125,0,0.00887535063113605
-2.1955871488899E-05,7.44924227547017E-06,0.703125,0,0.00887535063113605
-2.44012298935559E-05,5.55739507035469E-06,0.703125,0,0.00887535063113605
-2.42210280703148E-05,2.80681911135616E-06,0.703125,0,0.00887535063113605
-2.37795011344133E-05,1.10706537270744E-06,0.703125,0,0.00887535063113605
-2.22627040784573E-05,2.34838830692752E-06,0.703125,0,0.00887535063113605
-2.22607395699015E-05,6.36450840829639E-06,0.703125,0,0.00887535063113605
-2.14797983062454E-05,9.55549603531836E-06,0.703125,0,0.00887535063113605
-1.90587634278927E-05,1.04648843262112E-05,0.703125,0,0.00887535063113605
-1.48724911923637E-05,1.00660190582857E-05,0.703125,0,0.00887535063113605
-2.27707769226981E-05,1.47218825077289E-05,0.703125,0,0.00887535063113605
-1.98537891265005E-05,1.00891129477532E-05,0.703125,0,0.00887535063113605
-2.35721709032077E-05,1.06278630482848E-05,0.703125,0,0.00887535063113605
-2.08967339858646E-05,8.60636919242097E-06,0.703125,0,0.00887535063113605
-2.37221938732546E-05,1.1884284504049E-05,0.703125,0,0.00887535063113605
-2.16797434404725E-05,1.26151217045845E-05,0.703125,0,0.00887535063113605
-2.11381284316303E-05,1.30270318550174E-05,0.703125,0,0.00887535063113605
-2.07525754376547E-05,1.18260004455806E-05,0.703125,0,0.00887535063113605
-2.17864781006938E-05,1.11550216388423E-05,0.703125,0,0.00887535063113605
-2.171402957174E-05,1.0265222954331E-05,0.703125,0,0.00887535063113605
-2.0449342628126E-05,8.27031908556819E-06,0.703125,0,0.00887535063113605
-2.1049499991932E-05,7.73066221881891E-06,0.703125,0,0.00887535063113605
-2.06692438950995E-05,7.53058202462853E-06,0.703125,0,0.00887535063113605
-2.19424564420478E-05,1.05120680018445E-05,0.703125,0,0.00887535063113605
-2.25219482672401E-05,1.41587825055467E-05,0.703125,0,0.00887535063113605
-2.50522280111909E-05,1.76653393282322E-05,0.703125,0,0.00887535063113605
-2.52980717050377E-05,1.71199299074942E-05,0.703125,0,0.00887535063113605
-2.62252215179615E-05,1.56676142069045E-05,0.703125,0,0.00887535063113605
-2.52804275078233E-05,1.41663058457198E-05,0.703125,0,0.00887535063113605
-2.52349618676817E-05,1.49272264025058E-05,0.703125,0,0.00887535063113605
-2.47082480200334E-05,1.6200765458052E-05,0.703125,0,0.00887535063113605
-2.51609308179468E-05,1.75829809450079E-05,0.703125,0,0.00887535063113605
-2.41271900449647E-05,1.87691530300071E-05,0.703125,0,0.00887535063113605
-2.24894538405351E-05,2.17393990169512E-05,0.703125,0,0.00887535063113605
-2.16473363252589E-05,2.50476041401271E-05,0.703125,0,0.00887535063113605
-2.2369345970219E-05,2.60096712736413E-05,0.703125,0,0.00887535063113605
-1.9743560187635E-05,1.80828592419857E-05,0.703125,0,0.00887535063113605
-2.89765703200828E-05,2.15549935091985E-05,0.703125,0,0.00887535063113605
-2.24737395910779E-05,9.4330689535127E-06,0.703125,0,0.00887535063113605
-2.59489370364463E-05,1.09397979031201E-05,0.703125,0,0.00887535063113605
-2.02778519451385E-05,5.03921955896658E-06,0.703125,0,0.00887535063113605
-2.2900989279151E-05,8.12685539131053E-06,0.703125,0,0.00887535063113605
-2.24004688789137E-05,6.06030152994208E-06,0.703125,0,0.00887535063113605
-2.37253243540181E-05,7.12094561095E-06,0.703125,0,0.00887535063113605
-2.24835275730584E-05,6.67878657623078E-06,0.703125,0,0.00887535063113605
-2.30022014875431E-05,6.25559323452762E-06,0.703125,0,0.00887535063113605
-2.45235223701457E-05,5.4854795052961E-06,0.703125,0,0.00887535063113605
-2.51605506491615E-05,4.24131712861708E-06,0.703125,0,0.00887535063113605
-2.67614705080632E-05,5.2220875659259E-06,0.703125,0,0.00887535063113605
-2.60499255091418E-05,3.45623971043096E-06,0.703125,0,0.00887535063113605
-2.67487666860688E-05,1.57769250108686E-06,0.703125,0,0.00887535063113605
-2.54940259765135E-05,-1.94048379853484E-06,0.703125,0,0.00887535063113605
-2.66906463366468E-05,-3.61535455795092E-07,0.703125,0,0.00887535063113605
-2.55640316026984E-05,1.57211118789746E-07,0.703125,0,0.00887535063113605
-2.50092780333944E-05,8.61984972289065E-07,0.703125,0,0.00887535063113605
-2.25504700210877E-05,-4.24948012778259E-07,0.703125,0,0.00887535063113605
-2.29170964303194E-05,1.22389167245274E-06,0.703125,0,0.00887535063113605
-2.32031306950375E-05,2.2009344320395E-06,0.703125,0,0.00887535063113605
-2.62493485934101E-05,3.32967420035857E-06,0.703125,0,0.00887535063113605
-2.88505252683535E-05,2.3641391635465E-06,0.703125,0,0.00887535063113605
-2.9992695999681E-05,3.41497047884332E-06,0.703125,0,0.00887535063113605
-2.85650003206683E-05,6.39212385067367E-06,0.703125,0,0.00887535063113605
-2.60859342233744E-05,1.02012945717433E-05,0.703125,0,0.00887535063113605
-1.98852394532878E-05,1.02469984994968E-05,0.703125,0,0.00887535063113605
-2.77190429187613E-05,1.57932390720816E-05,0.703125,0,0.00887535063113605
-2.03986637643538E-05,1.52823795360746E-05,0.703125,0,0.00887535063113605
-2.51436977123376E-05,1.93582109204726E-05,0.703125,0,0.00887535063113605
-2.01747207029257E-05,1.6472726201755E-05,0.703125,0,0.00887535063113605
-2.3044012777973E-05,1.70028051797999E-05,0.703125,0,0.00887535063113605
-2.17948399949819E-05,1.46438296724227E-05,0.703125,0,0.00887535063113605
-2.27709606406279E-05,1.30940998133156E-05,0.703125,0,0.00887535063113605
-2.10060225072084E-05,1.27678931676201E-05,0.703125,0,0.00887535063113605
-2.05499600269832E-05,1.45386520671309E-05,0.703125,0,0.00887535063113605
-2.22895887418417E-05,1.51008453030954E-05,0.703125,0,0.00887535063113605
-2.43805570789846E-05,1.2547923688544E-05,0.703125,0,0.00887535063113605
-2.73344157903921E-05,1.02016083474155E-05,0.703125,0,0.00887535063113605
-2.73146979452576E-05,7.84232634032378E-06,0.703125,0,0.00887535063113605
-2.78529441857245E-05,7.80115533416392E-06,0.703125,0,0.00887535063113605
-2.51347173616523E-05,7.02183842804516E-06,0.703125,0,0.00887535063113605
-2.4832599592628E-05,8.01040641817963E-06,0.703125,0,0.00887535063113605
-2.3349559342023E-05,8.59065767144784E-06,0.703125,0,0.00887535063113605
-2.499450056348E-05,9.87966268439777E-06,0.703125,0,0.00887535063113605
-2.42521437030518E-05,9.72174257185543E-06,0.703125,0,0.00887535063113605
-2.32813872571569E-05,9.43300892686239E-06,0.703125,0,0.00887535063113605
-2.07905486604432E-05,8.44849091663491E-06,0.703125,0,0.00887535063113605
-2.09279442060506E-05,8.84480050444836E-06,0.703125,0,0.00887535063113605
-2.16454427572899E-05,1.09605443867622E-05,0.703125,0,0.00887535063113605
-2.32728307310026E-05,1.4287773410615E-05,0.703125,0,0.00887535063113605
-2.37443855439778E-05,1.63670774782076E-05,0.703125,0,0.00887535063113605
-2.38631455431459E-05,1.56006226461614E-05,0.703125,0,0.00887535063113605
-1.91996387002291E-05,9.94470428850036E-06,0.703125,0,0.00887535063113605
-2.68887179117883E-05,1.28074789245147E-05,0.703125,0,0.00887535063113605
-2.04784482775722E-05,9.11350252863485E-06,0.703125,0,0.00887535063113605
-2.62972189375432E-05,1.42234839586308E-05,0.703125,0,0.00887535063113605
-2.1004596419516E-05,1.50799896800891E-05,0.703125,0,0.00887535063113605
-2.26068405027036E-05,1.88265621545725E-05,0.703125,0,0.00887535063113605
-2.13792554859538E-05,1.67472680914216E-05,0.703125,0,0.00887535063113605
-2.2716438252246E-05,1.48026247188682E-05,0.703125,0,0.00887535063113605
-2.257925189042E-05,1.37721190185403E-05,0.703125,0,0.00887535063113605
-2.33132850553375E-05,1.44550040204194E-05,0.703125,0,0.00887535063113605
-2.35627594520338E-05,1.552319554321E-05,0.703125,0,0.00887535063113605
-2.25387211685302E-05,1.58268958330154E-05,0.703125,0,0.00887535063113605
-2.36577525356552E-05,1.55403431563172E-05,0.703125,0,0.00887535063113605
-2.35949501075083E-05,1.30481539599714E-05,0.703125,0,0.00887535063113605
-2.47183943429263E-05,1.26869972518762E-05,0.703125,0,0.00887535063113605
-2.29629004024901E-05,1.28304882309749E-05,0.703125,0,0.00887535063113605
-2.37978510995163E-05,1.44985415317933E-05,0.703125,0,0.00887535063113605
-2.32996753766201E-05,1.41574109875364E-05,0.703125,0,0.00887535063113605
-2.54864607995842E-05,1.3917961041443E-05,0.703125,0,0.00887535063113605
-2.6429373974679E-05,1.29379131976748E-05,0.703125,0,0.00887535063113605
-2.83070949080866E-05,1.38747436722042E-05,0.703125,0,0.00887535063113605
-2.84931538772071E-05,1.41475702548632E-05,0.703125,0,0.00887535063113605
-2.84646557702217E-05,1.29740637930809E-05,0.703125,0,0.00887535063113605
-2.72179750027135E-05,1.1343797268637E-05,0.703125,0,0.00887535063113605
-2.78759762295522E-05,1.21764396681101E-05,0.703125,0,0.00887535063113605
-2.87681959889596E-05,1.28855763250613E-05,0.703125,0,0.00887535063113605
-2.81685443042079E-05,1.1891176654899E-05,0.703125,0,0.00887535063113605
-2.11005917662987E-05,8.58501243783394E-06,0.703125,0,0.00887535063113605
-2.94724777631927E-05,1.28426399896853E-05,0.703125,0,0.00887535063113605
-2.20925739995437E-05,1.08838412415935E-05,0.703125,0,0.00887535063113605
-2.81046377494931E-05,1.28896863316186E-05,0.703125,0,0.00887535063113605
-2.40709941863315E-05,8.49946081871167E-06,0.703125,0,0.00887535063113605
-2.71341596089769E-05,7.56232020648895E-06,0.703125,0,0.00887535063113605
-2.41335164901102E-05,7.82042025093688E-06,0.703125,0,0.00887535063113605
-2.43099402723601E-05,9.88782085187268E-06,0.703125,0,0.00887535063113605
-2.33913469855906E-05,1.05959388747578E-05,0.703125,0,0.00887535063113605
-2.46491254074499E-05,1.07078831206309E-05,0.703125,0,0.00887535063113605
-2.53553007496521E-05,9.44701241678558E-06,0.703125,0,0.00887535063113605
-2.33674436458386E-05,6.41513088339707E-06,0.703125,0,0.00887535063113605
-2.32240945479134E-05,3.67200232176401E-06,0.703125,0,0.00887535063113605
-2.29108627536334E-05,2.78477318715886E-06,0.703125,0,0.00887535063113605
-2.51042929448886E-05,7.07069511918235E-06,0.703125,0,0.00887535063113605
-2.4313987523783E-05,1.11029594336287E-05,0.703125,0,0.00887535063113605
-2.524042611185E-05,1.20733684525476E-05,0.703125,0,0.00887535063113605
-2.35213883570395E-05,8.74150191521039E-06,0.703125,0,0.00887535063113605
-2.47181433223886E-05,6.96568849889445E-06,0.703125,0,0.00887535063113605
-2.47037496592384E-05,7.45085708331317E-06,0.703125,0,0.00887535063113605
-2.59840253420407E-05,9.22971048566978E-06,0.703125,0,0.00887535063113605
-2.5101815481321E-05,8.84368910192279E-06,0.703125,0,0.00887535063113605
-2.46371218963759E-05,7.99460667622043E-06,0.703125,0,0.00887535063113605
-2.22649396164343E-05,7.60475313654752E-06,0.703125,0,0.00887535063113605
-2.02631763386307E-05,7.55520522943698E-06,0.703125,0,0.00887535063113605
-1.88307931239251E-05,8.16165265860036E-06,0.703125,0,0.00887535063113605
-1.85798544407589E-05,1.0043822840089E-05,0.703125,0,0.00887535063113605
-1.62297583301552E-05,8.44138048705645E-06,0.703125,0,0.00887535063113605
-2.47089083131868E-05,1.08143021861906E-05,0.703125,0,0.00887535063113605
-2.03144718398107E-05,7.1734252742317E-06,0.703125,0,0.00887535063113605
-2.32925976888509E-05,1.06285269794171E-05,0.703125,0,0.00887535063113605
-1.87980767805129E-05,9.6993117040256E-06,0.703125,0,0.00887535063113605
-2.09900626941817E-05,1.021571461024E-05,0.703125,0,0.00887535063113605
-2.1006548195146E-05,7.60048806114355E-06,0.703125,0,0.00887535063113605
-2.33135469898116E-05,7.7317363320617E-06,0.703125,0,0.00887535063113605
-2.45316423388431E-05,8.38838423078414E-06,0.703125,0,0.00887535063113605
-2.48381347773829E-05,8.6901027316344E-06,0.703125,0,0.00887535063113605
-2.32964302995242E-05,7.87734097684734E-06,0.703125,0,0.00887535063113605
-2.0987039533793E-05,6.29149781161686E-06,0.703125,0,0.00887535063113605
-2.20434103539446E-05,5.78158233111026E-06,0.703125,0,0.00887535063113605
-2.21576920012012E-05,5.25230871062377E-06,0.703125,0,0.00887535063113605
-2.30056157306535E-05,6.70287636239664E-06,0.703125,0,0.00887535063113605
-2.22130238398677E-05,7.4157323979307E-06,0.703125,0,0.00887535063113605
-2.34180697589181E-05,8.11828704172513E-06,0.703125,0,0.00887535063113605
-2.33788796322187E-05,6.34650223219069E-06,0.703125,0,0.00887535063113605
-2.47541029239073E-05,5.0728567657643E-06,0.703125,0,0.00887535063113605
-2.46023118961602E-05,4.46578678747755E-06,0.703125,0,0.00887535063113605
-2.51917845162097E-05,5.61796559850336E-06,0.703125,0,0.00887535063113605
-2.47168118221452E-05,6.61273634250392E-06,0.703125,0,0.00887535063113605
-2.50531611527549E-05,8.14555096440017E-06,0.703125,0,0.00887535063113605
-2.47395728365518E-05,7.73837382439524E-06,0.703125,0,0.00887535063113605
-2.53024372796062E-05,7.57224597691675E-06,0.703125,0,0.00887535063113605
-2.60480210272362E-05,1.09045595308999E-05,0.703125,0,0.00887535063113605
-2.62601588474354E-05,1.49262514241855E-05,0.703125,0,0.00887535063113605
-2.17713313759305E-05,1.19768537842901E-05,0.703125,0,0.00887535063113605
-2.97898186545353E-05,1.37448960231268E-05,0.703125,0,0.00887535063113605
-2.07320390472887E-05,6.05386367169558E-06,0.703125,0,0.00887535063113605
-2.57280753430678E-05,9.4479446488549E-06,0.703125,0,0.00887535063113605
-2.12723753065802E-05,8.15667317510815E-06,0.703125,0,0.00887535063113605
-2.49762506427942E-05,1.19838887258084E-05,0.703125,0,0.00887535063113605
-2.31844242080115E-05,1.09976836029091E-05,0.703125,0,0.00887535063113605
-2.5302535505034E-05,9.80705681286054E-06,0.703125,0,0.00887535063113605
-2.48277956416132E-05,8.85961708263494E-06,0.703125,0,0.00887535063113605
-2.47499865508871E-05,1.04559903775225E-05,0.703125,0,0.00887535063113605
-2.51109868258936E-05,1.14019039756386E-05,0.703125,0,0.00887535063113605
-2.42776350205531E-05,1.02705334938946E-05,0.703125,0,0.00887535063113605
-2.43896702158963E-05,9.19091598916566E-06,0.703125,0,0.00887535063113605
-2.32501188293099E-05,7.41118810765329E-06,0.703125,0,0.00887535063113605
-2.60891611105762E-05,9.0991125034634E-06,0.703125,0,0.00887535063113605
-2.66015194938518E-05,1.13490596049814E-05,0.703125,0,0.00887535063113605
-2.7752361347666E-05,1.42253265948966E-05,0.703125,0,0.00887535063113605
-2.47156986006303E-05,1.34458341563004E-05,0.703125,0,0.00887535063113605
-2.3494345441577E-05,1.36555818244233E-05,0.703125,0,0.00887535063113605
-2.12394279515138E-05,1.33018447741051E-05,0.703125,0,0.00887535063113605
-2.23583247134229E-05,1.37745464598993E-05,0.703125,0,0.00887535063113605
-2.29397446673829E-05,1.30898151837755E-05,0.703125,0,0.00887535063113605
-2.38806696870597E-05,1.34918418552843E-05,0.703125,0,0.00887535063113605
-2.28101616812637E-05,1.36356366056134E-05,0.703125,0,0.00887535063113605
-2.27847649512114E-05,1.30907419588766E-05,0.703125,0,0.00887535063113605
-2.2664709831588E-05,1.18559428301523E-05,0.703125,0,0.00887535063113605
-2.34980070672464E-05,1.14872937047039E-05,0.703125,0,0.00887535063113605
-2.03079653147142E-05,9.41815414989833E-06,0.703125,0,0.00887535063113605
-2.98634622595273E-05,1.30645621538861E-05,0.703125,0,0.00887535063113605
-2.3271804820979E-05,9.56719759415137E-06,0.703125,0,0.00887535063113605
-2.74249287031125E-05,1.17224517452996E-05,0.703125,0,0.00887535063113605
-2.31944432016462E-05,9.7563042800175E-06,0.703125,0,0.00887535063113605
-2.60288488789229E-05,1.1150481441291E-05,0.703125,0,0.00887535063113605
-2.37493331951555E-05,9.88356168818427E-06,0.703125,0,0.00887535063113605
-2.41233410633868E-05,8.92056414159015E-06,0.703125,0,0.00887535063113605
-2.31474914471619E-05,6.75553110340843E-06,0.703125,0,0.00887535063113605
-2.36492232943419E-05,6.25703205514583E-06,0.703125,0,0.00887535063113605
-2.41652960539795E-05,7.89039222581778E-06,0.703125,0,0.00887535063113605
-2.27271266339812E-05,1.07160203697276E-05,0.703125,0,0.00887535063113605
-2.24653722398216E-05,1.35978516482282E-05,0.703125,0,0.00887535063113605
-2.10081398108741E-05,1.40536394610535E-05,0.703125,0,0.00887535063113605
-2.23113365791505E-05,1.53934724949067E-05,0.703125,0,0.00887535063113605
-2.22302714973921E-05,1.5647634427296E-05,0.703125,0,0.00887535063113605
-2.38429329328937E-05,1.55055477080168E-05,0.703125,0,0.00887535063113605
-2.29526358452858E-05,1.30025055113947E-05,0.703125,0,0.00887535063113605
-2.40356384892948E-05,1.1974588232988E-05,0.703125,0,0.00887535063113605
-2.29031629714882E-05,1.15221973828739E-05,0.703125,0,0.00887535063113605
-2.27018754230812E-05,1.20965669339057E-05,0.703125,0,0.00887535063113605
-2.13306047953665E-05,1.04862338048406E-05,0.703125,0,0.00887535063113605
-2.15568579733372E-05,8.71701558935456E-06,0.703125,0,0.00887535063113605
-2.21762475121068E-05,8.80535117175896E-06,0.703125,0,0.00887535063113605
-2.37322856264655E-05,1.01818714028923E-05,0.703125,0,0.00887535063113605
-2.3913562472444E-05,9.58498549152864E-06,0.703125,0,0.00887535063113605
-2.32845304708462E-05,8.03987131803297E-06,0.703125,0,0.00887535063113605
-1.92177576536778E-05,5.0522867240943E-06,0.703125,0,0.00887535063113605
-2.67365576291922E-05,7.41003077564528E-06,0.703125,0,0.00887535063113605
-1.99303249246441E-05,7.49511355024879E-06,0.703125,0,0.00887535063113605
-2.55582599493209E-05,1.07494915937423E-05,0.703125,0,0.00887535063113605
-2.21378413698403E-05,1.05665048977244E-05,0.703125,0,0.00887535063113605
-2.40955778281204E-05,1.25146061691339E-05,0.703125,0,0.00887535063113605
-2.10998969123466E-05,1.33032217490836E-05,0.703125,0,0.00887535063113605
-2.23898914555321E-05,1.44935638672905E-05,0.703125,0,0.00887535063113605
-2.21332902583526E-05,1.47653390740743E-05,0.703125,0,0.00887535063113605
-2.22330581891583E-05,1.43793677125359E-05,0.703125,0,0.00887535063113605
-2.31005287787411E-05,1.39559397211997E-05,0.703125,0,0.00887535063113605
-2.32142701861449E-05,1.33752619149163E-05,0.703125,0,0.00887535063113605
-2.39125420193886E-05,1.19526775961276E-05,0.703125,0,0.00887535063113605
-2.22706294152886E-05,1.0173452210438E-05,0.703125,0,0.00887535063113605
-2.27051750698593E-05,1.10291130113183E-05,0.703125,0,0.00887535063113605
-2.08887631742982E-05,1.32472541736206E-05,0.703125,0,0.00887535063113605
-2.16210828511976E-05,1.49178495121305E-05,0.703125,0,0.00887535063113605
-2.13149742194219E-05,1.35015525302151E-05,0.703125,0,0.00887535063113605
-2.42133355641272E-05,1.26152935990831E-05,0.703125,0,0.00887535063113605
-2.59183998423396E-05,1.20093827717938E-05,0.703125,0,0.00887535063113605
-2.76444588962477E-05,1.17481140478048E-05,0.703125,0,0.00887535063113605
-2.64076843450312E-05,1.17148947538226E-05,0.703125,0,0.00887535063113605
-2.50930006586714E-05,1.25503356684931E-05,0.703125,0,0.00887535063113605
-2.27707732847193E-05,1.36925982587854E-05,0.703125,0,0.00887535063113605
-2.28272838285193E-05,1.39947169373045E-05,0.703125,0,0.00887535063113605
-2.41987636400154E-05,1.25408014355344E-05,0.703125,0,0.00887535063113605
-2.55952672887361E-05,1.0972905329254E-05,0.703125,0,0.00887535063113605
-2.05681772058597E-05,7.21619562682463E-06,0.703125,0,0.00887535063113605
-2.86855265585473E-05,9.46742693486158E-06,0.703125,0,0.00887535063113605
-1.97441622731276E-05,7.30386045688647E-06,0.703125,0,0.00887535063113605
-2.3987931854208E-05,1.06252973637311E-05,0.703125,0,0.00887535063113605
-2.06816494028317E-05,9.71342979028123E-06,0.703125,0,0.00887535063113605
-2.47177904384444E-05,1.15477605504566E-05,0.703125,0,0.00887535063113605
-2.42627666011686E-05,1.02104759207577E-05,0.703125,0,0.00887535063113605
-2.58145209954819E-05,8.62134675116977E-06,0.703125,0,0.00887535063113605
-2.3583197616972E-05,7.03398018231383E-06,0.703125,0,0.00887535063113605
-2.30941586778499E-05,6.8767117227253E-06,0.703125,0,0.00887535063113605
-2.41191737586632E-05,6.96258939569816E-06,0.703125,0,0.00887535063113605
-2.39646487898426E-05,7.23045695849578E-06,0.703125,0,0.00887535063113605
-2.45011051447364E-05,8.38201503938762E-06,0.703125,0,0.00887535063113605
-2.32133879762841E-05,8.63322657096433E-06,0.703125,0,0.00887535063113605
-2.46462968789274E-05,9.77332456386648E-06,0.703125,0,0.00887535063113605
-2.38177308347076E-05,9.77553645498119E-06,0.703125,0,0.00887535063113605
-2.46727031480987E-05,1.00227280199761E-05,0.703125,0,0.00887535063113605
-2.35930310736876E-05,9.26896973396651E-06,0.703125,0,0.00887535063113605
-2.50519569817698E-05,9.52219488681294E-06,0.703125,0,0.00887535063113605
-2.52077097684378E-05,9.36897686187876E-06,0.703125,0,0.00887535063113605
-2.72427387244534E-05,1.00877969089197E-05,0.703125,0,0.00887535063113605
-2.77095405181171E-05,1.11281797217089E-05,0.703125,0,0.00887535063113605
-2.82742421404691E-05,1.25031610878068E-05,0.703125,0,0.00887535063113605
-2.68680978479097E-05,1.27191224237322E-05,0.703125,0,0.00887535063113605
-2.614822187752E-05,1.16508135761251E-05,0.703125,0,0.00887535063113605
-2.60104970948305E-05,8.57365012052469E-06,0.703125,0,0.00887535063113605
-2.68704661721131E-05,5.84131294090184E-06,0.703125,0,0.00887535063113605
-2.15132931771223E-05,5.61571141588502E-06,0.703125,0,0.00887535063113605
-2.95219451800222E-05,1.11872868728824E-05,0.703125,0,0.00887535063113605
-2.05117612495087E-05,1.14856920845341E-05,0.703125,0,0.00887535063113605
-2.45847986661829E-05,1.0602851943986E-05,0.703125,0,0.00887535063113605
-1.9062415958615E-05,8.83900793269277E-06,0.703125,0,0.00887535063113605
-2.29426332225557E-05,1.03110896816361E-05,0.703125,0,0.00887535063113605
-2.20578094740631E-05,1.09711054392392E-05,0.703125,0,0.00887535063113605
-2.37449203268625E-05,1.08782151073683E-05,0.703125,0,0.00887535063113605
-2.2669028112432E-05,1.15969887701795E-05,0.703125,0,0.00887535063113605
-2.24917257583002E-05,1.37797960633179E-05,0.703125,0,0.00887535063113605
-2.26697993639391E-05,1.56040096044308E-05,0.703125,0,0.00887535063113605
-2.19113171624485E-05,1.64003813551972E-05,0.703125,0,0.00887535063113605
-2.34428807743825E-05,1.69161212397739E-05,0.703125,0,0.00887535063113605
-2.32360835070722E-05,1.76012745214393E-05,0.703125,0,0.00887535063113605
-2.44035800278652E-05,1.86079560080543E-05,0.703125,0,0.00887535063113605
-2.3334878278547E-05,1.76929024746642E-05,0.703125,0,0.00887535063113605
-2.56473031186033E-05,1.52317907122779E-05,0.703125,0,0.00887535063113605
-2.52474928856827E-05,1.18051111712703E-05,0.703125,0,0.00887535063113605
-2.55348113569198E-05,9.87399380392162E-06,0.703125,0,0.00887535063113605
-2.34574381465791E-05,9.15058080863673E-06,0.703125,0,0.00887535063113605
-2.39631608565105E-05,9.22939943848178E-06,0.703125,0,0.00887535063113605
-2.44120492425282E-05,9.17756642593304E-06,0.703125,0,0.00887535063113605
-2.6504450943321E-05,1.03521379060112E-05,0.703125,0,0.00887535063113605
-2.60382275882876E-05,1.00582192317233E-05,0.703125,0,0.00887535063113605
-2.36579035117757E-05,7.40254608899704E-06,0.703125,0,0.00887535063113605
-2.16806038224604E-05,6.40679036223446E-06,0.703125,0,0.00887535063113605
-2.3364966182271E-05,7.98737801233074E-06,0.703125,0,0.00887535063113605
-1.9347295165062E-05,7.75150510889944E-06,0.703125,0,0.00887535063113605
-2.69398624368478E-05,1.06436491478235E-05,0.703125,0,0.00887535063113605
-2.03185645659687E-05,7.44799899621285E-06,0.703125,0,0.00887535063113605
-2.67407503997674E-05,7.9965939221438E-06,0.703125,0,0.00887535063113605
-2.37471995205851E-05,3.3276776321145E-06,0.703125,0,0.00887535063113605
-2.57838546531275E-05,3.50198251908296E-06,0.703125,0,0.00887535063113605
-2.25548283196986E-05,5.02904777022195E-06,0.703125,0,0.00887535063113605
-2.36182058870327E-05,8.30503813631367E-06,0.703125,0,0.00887535063113605
-2.33051359828096E-05,1.02190315374173E-05,0.703125,0,0.00887535063113605
-2.24111918214476E-05,1.02800559034222E-05,0.703125,0,0.00887535063113605
-2.08909150387626E-05,7.6780752351624E-06,0.703125,0,0.00887535063113605
-1.98402267415076E-05,4.2462252167752E-06,0.703125,0,0.00887535063113605
-2.16449006984476E-05,2.86683894046291E-06,0.703125,0,0.00887535063113605
-2.11611859413097E-05,3.95161896449281E-06,0.703125,0,0.00887535063113605
-2.18319983105175E-05,8.64874346007127E-06,0.703125,0,0.00887535063113605
-2.08753317565424E-05,1.25952547023189E-05,0.703125,0,0.00887535063113605
-2.30700916290516E-05,1.5721823729109E-05,0.703125,0,0.00887535063113605
-2.30917066801339E-05,1.67294765560655E-05,0.703125,0,0.00887535063113605
-2.44078419200378E-05,1.74634387803962E-05,0.703125,0,0.00887535063113605
-2.41214183915872E-05,1.62221876962576E-05,0.703125,0,0.00887535063113605
-2.54921924351947E-05,1.46693810165743E-05,0.703125,0,0.00887535063113605
-2.49216936936136E-05,1.20616350614E-05,0.703125,0,0.00887535063113605
-2.45821065618657E-05,1.02969861472957E-05,0.703125,0,0.00887535063113605
-2.39101846091216E-05,9.2755781224696E-06,0.703125,0,0.00887535063113605
-2.47806638071779E-05,9.88972078630468E-06,0.703125,0,0.00887535063113605
-2.55679788097041E-05,1.07011328509543E-05,0.703125,0,0.00887535063113605
-2.58769123320235E-05,1.26912100313348E-05,0.703125,0,0.00887535063113605
-2.11142159969313E-05,1.34734946186654E-05,0.703125,0,0.00887535063113605
-2.86668164335424E-05,1.99496789718978E-05,0.703125,0,0.00887535063113605
-1.99539026652928E-05,1.53665259858826E-05,0.703125,0,0.00887535063113605
-2.49475979217095E-05,1.59551364049548E-05,0.703125,0,0.00887535063113605
-2.0087965822313E-05,9.38143875828246E-06,0.703125,0,0.00887535063113605
-2.25491730816429E-05,9.08252513909247E-06,0.703125,0,0.00887535063113605
-2.05020223802421E-05,7.0395349212049E-06,0.703125,0,0.00887535063113605
-2.24159466597484E-05,7.54334450903116E-06,0.703125,0,0.00887535063113605
-2.15881027543219E-05,7.70724818721646E-06,0.703125,0,0.00887535063113605
-2.15829441003734E-05,9.12569612410152E-06,0.703125,0,0.00887535063113605
-2.20921629079385E-05,1.1133089174109E-05,0.703125,0,0.00887535063113605
-2.19066387217026E-05,1.26635159176658E-05,0.703125,0,0.00887535063113605
-2.35565785260405E-05,1.4019997252035E-05,0.703125,0,0.00887535063113605
-2.32035035878653E-05,1.28654892250779E-05,0.703125,0,0.00887535063113605
-2.45731662289472E-05,1.34259207698051E-05,0.703125,0,0.00887535063113605
-2.28939661610639E-05,1.33701960294275E-05,0.703125,0,0.00887535063113605
-2.38659031310817E-05,1.57475060404977E-05,0.703125,0,0.00887535063113605
-2.34361959883245E-05,1.72609397850465E-05,0.703125,0,0.00887535063113605
-2.56322837230982E-05,1.98128218471538E-05,0.703125,0,0.00887535063113605
-2.47663629124872E-05,2.04803727683611E-05,0.703125,0,0.00887535063113605
-2.504122130631E-05,1.95453721971717E-05,0.703125,0,0.00887535063113605
-2.49433524004417E-05,1.56424175656866E-05,0.703125,0,0.00887535063113605
-2.59180033026496E-05,1.42456547109759E-05,0.703125,0,0.00887535063113605
-2.39097007579403E-05,1.48821463881177E-05,0.703125,0,0.00887535063113605
-2.24754494411172E-05,1.62756514328066E-05,0.703125,0,0.00887535063113605
-2.27369182539405E-05,1.51105432451004E-05,0.703125,0,0.00887535063113605
-2.33017781283706E-05,1.31313909150776E-05,0.703125,0,0.00887535063113605
-1.88061621884117E-05,1.00863771876902E-05,0.703125,0,0.00887535063113605
-2.68189123744378E-05,1.45726071423269E-05,0.703125,0,0.00887535063113605
-2.1320816813386E-05,1.02929934655549E-05,0.703125,0,0.00887535063113605
-2.79357955150772E-05,1.10313931145356E-05,0.703125,0,0.00887535063113605
-2.58667078014696E-05,8.42413828650024E-06,0.703125,0,0.00887535063113605
-2.89551044261316E-05,9.40533027460333E-06,0.703125,0,0.00887535063113605
-2.68886324192863E-05,7.13723829903756E-06,0.703125,0,0.00887535063113605
-2.73461519100238E-05,5.69696476304671E-06,0.703125,0,0.00887535063113605
-2.51290202868404E-05,3.95466031477554E-06,0.703125,0,0.00887535063113605
-2.38788379647303E-05,4.24611062044278E-06,0.703125,0,0.00887535063113605
-2.33464652410476E-05,4.98095232615015E-06,0.703125,0,0.00887535063113605
-2.29035958909662E-05,4.55906547358609E-06,0.703125,0,0.00887535063113605
-2.38595912378514E-05,5.07929962623166E-06,0.703125,0,0.00887535063113605
-2.27649961743737E-05,6.74335115036229E-06,0.703125,0,0.00887535063113605
-2.37550666497555E-05,9.41496455197921E-06,0.703125,0,0.00887535063113605
-2.34649814956356E-05,9.39131768973311E-06,0.703125,0,0.00887535063113605
-2.64612954197219E-05,9.29992529563606E-06,0.703125,0,0.00887535063113605
-2.70413147518411E-05,7.91419552115258E-06,0.703125,0,0.00887535063113605
-2.7283971576253E-05,6.75010915074381E-06,0.703125,0,0.00887535063113605
-2.43642116402043E-05,4.10516076954082E-06,0.703125,0,0.00887535063113605
-2.33595274039544E-05,3.90162222174695E-06,0.703125,0,0.00887535063113605
-2.23096758418251E-05,4.77817320643226E-06,0.703125,0,0.00887535063113605
-2.27309610636439E-05,6.37162747807452E-06,0.703125,0,0.00887535063113605
-2.20738929783693E-05,6.41170208837138E-06,0.703125,0,0.00887535063113605
-2.18018685700372E-05,6.59267607261427E-06,0.703125,0,0.00887535063113605
-2.11376682273112E-05,7.43282316761906E-06,0.703125,0,0.00887535063113605
-2.15583677345421E-05,7.33611841496895E-06,0.703125,0,0.00887535063113605
-1.7579641280463E-05,3.41055806529766E-06,0.703125,0,0.00887535063113605
-2.42892874666722E-05,3.51804237652686E-06,0.703125,0,0.00887535063113605
-1.80880579137011E-05,1.40182419272605E-06,0.703125,0,0.00887535063113605
-2.31604135478847E-05,1.30950252241746E-06,0.703125,0,0.00887535063113605
-1.93857267731801E-05,-3.49639805108382E-07,0.703125,0,0.00887535063113605
-2.16380303754704E-05,2.0165634850855E-06,0.703125,0,0.00887535063113605
-2.00916729227174E-05,4.0696022551856E-06,0.703125,0,0.00887535063113605
-2.14084811887005E-05,6.55415215078392E-06,0.703125,0,0.00887535063113605
-2.13959483517101E-05,7.31297404854558E-06,0.703125,0,0.00887535063113605
-2.29000179388095E-05,7.36784249966149E-06,0.703125,0,0.00887535063113605
-2.39896435232367E-05,7.34113245925982E-06,0.703125,0,0.00887535063113605
-2.30813475354807E-05,7.63772459322354E-06,0.703125,0,0.00887535063113605
-2.3641479856451E-05,8.5447236415348E-06,0.703125,0,0.00887535063113605
-2.29573142860318E-05,9.48007527767913E-06,0.703125,0,0.00887535063113605
-2.34347862715367E-05,1.09510601760121E-05,0.703125,0,0.00887535063113605
-2.1787087462144E-05,1.10503888208768E-05,0.703125,0,0.00887535063113605
-2.29044144361978E-05,1.12158104457194E-05,0.703125,0,0.00887535063113605
-2.26136617129669E-05,1.1201932466065E-05,0.703125,0,0.00887535063113605
-2.38367556448793E-05,1.23927829918102E-05,0.703125,0,0.00887535063113605
-2.34402214118745E-05,1.33759358504904E-05,0.703125,0,0.00887535063113605
-2.4253262381535E-05,1.44229434226872E-05,0.703125,0,0.00887535063113605
-2.24259492824785E-05,1.59677274496062E-05,0.703125,0,0.00887535063113605
-2.19983085116837E-05,1.83526899490971E-05,0.703125,0,0.00887535063113605
-2.29540928557981E-05,1.87909990927437E-05,0.703125,0,0.00887535063113605
-2.48680262302514E-05,1.67711095855339E-05,0.703125,0,0.00887535063113605
-2.5733963411767E-05,1.4272244698077E-05,0.703125,0,0.00887535063113605
-2.51595429290319E-05,1.33528110382031E-05,0.703125,0,0.00887535063113605
-1.86547367775347E-05,9.38526773097692E-06,0.703125,0,0.00887535063113605
-2.50628727371804E-05,1.25736896734452E-05,0.703125,0,0.00887535063113605
-1.73489952430828E-05,1.00328907137737E-05,0.703125,0,0.00887535063113605
-2.26127340283711E-05,1.35315267471015E-05,0.703125,0,0.00887535063113605
-1.96692799363518E-05,9.62782178248744E-06,0.703125,0,0.00887535063113605
-2.32497441174928E-05,8.04552928457269E-06,0.703125,0,0.00887535063113605
-2.14707870327402E-05,4.60920728073688E-06,0.703125,0,0.00887535063113605
-2.23767092393246E-05,5.68288851354737E-06,0.703125,0,0.00887535063113605
-2.10542075365083E-05,7.20264324627351E-06,0.703125,0,0.00887535063113605
-2.20175134018064E-05,8.8705737653072E-06,0.703125,0,0.00887535063113605
-2.42499227169901E-05,1.05892195279012E-05,0.703125,0,0.00887535063113605
-2.43862432398601E-05,1.13897785922745E-05,0.703125,0,0.00887535063113605
-2.52851386903785E-05,1.18534544526483E-05,0.703125,0,0.00887535063113605
-2.44253733399091E-05,1.04091968751163E-05,0.703125,0,0.00887535063113605
-2.51850633503636E-05,9.87404291663552E-06,0.703125,0,0.00887535063113605
-2.3930384486448E-05,8.78554965311196E-06,0.703125,0,0.00887535063113605
-2.53963589784689E-05,9.3897178885527E-06,0.703125,0,0.00887535063113605
-2.46402232733089E-05,9.17228408070514E-06,0.703125,0,0.00887535063113605
-2.47593070525909E-05,1.02810454336577E-05,0.703125,0,0.00887535063113605
-2.3168488041847E-05,1.05121807791875E-05,0.703125,0,0.00887535063113605
-2.53693924605614E-05,1.10231048893183E-05,0.703125,0,0.00887535063113605
-2.75564725598088E-05,9.29269390326226E-06,0.703125,0,0.00887535063113605
-2.87664570350898E-05,7.84873373049777E-06,0.703125,0,0.00887535063113605
-2.72522229352035E-05,7.53991571400547E-06,0.703125,0,0.00887535063113605
-2.67842751782155E-05,8.37783500173828E-06,0.703125,0,0.00887535063113605
-2.68533840426244E-05,1.00812012533424E-05,0.703125,0,0.00887535063113605
-2.75604706985177E-05,1.18351845230791E-05,0.703125,0,0.00887535063113605
-2.19174598896643E-05,8.98817324923584E-06,0.703125,0,0.00887535063113605
-2.95803292829078E-05,1.29026275317301E-05,0.703125,0,0.00887535063113605
-2.04404768737732E-05,1.08104686660226E-05,0.703125,0,0.00887535063113605
-2.55237573583145E-05,1.46815054904437E-05,0.703125,0,0.00887535063113605
-2.09696518140845E-05,1.40380598168122E-05,0.703125,0,0.00887535063113605
-2.47755815507844E-05,1.49400775626418E-05,0.703125,0,0.00887535063113605
-2.18209825106896E-05,1.23579529827111E-05,0.703125,0,0.00887535063113605
-2.32922138820868E-05,1.30531097966013E-05,0.703125,0,0.00887535063113605
-2.33391801884864E-05,1.44143277793773E-05,0.703125,0,0.00887535063113605
-2.33944974752376E-05,1.52843713294715E-05,0.703125,0,0.00887535063113605
-2.27308100875234E-05,1.44950699905166E-05,0.703125,0,0.00887535063113605
-2.14542778849136E-05,1.36474000100861E-05,0.703125,0,0.00887535063113605
-2.31461453950033E-05,1.47140135595691E-05,0.703125,0,0.00887535063113605
-2.25778767344309E-05,1.4541789823852E-05,0.703125,0,0.00887535063113605
-2.34427552641137E-05,1.46073525684187E-05,0.703125,0,0.00887535063113605
-2.18591867451323E-05,1.27721705212025E-05,0.703125,0,0.00887535063113605
-2.33817372645717E-05,1.09670418169117E-05,0.703125,0,0.00887535063113605
-2.33248465519864E-05,8.52531229611486E-06,0.703125,0,0.00887535063113605
-2.60007400356699E-05,8.67773451318499E-06,0.703125,0,0.00887535063113605
-2.51340461545624E-05,9.98948689812096E-06,0.703125,0,0.00887535063113605
-2.36940832110122E-05,1.18147627290455E-05,0.703125,0,0.00887535063113605
-2.08872570510721E-05,1.10969131128513E-05,0.703125,0,0.00887535063113605
-2.18626992136706E-05,1.01455225376412E-05,0.703125,0,0.00887535063113605
-2.23668430407997E-05,9.16590761335101E-06,0.703125,0,0.00887535063113605
-2.26888623728883E-05,8.84752262209076E-06,0.703125,0,0.00887535063113605
-2.23276401811745E-05,6.51010623187176E-06,0.703125,0,0.00887535063113605
-2.16775006265379E-05,4.30938098361366E-06,0.703125,0,0.00887535063113605
-1.75876866705948E-05,4.10080338042462E-06,0.703125,0,0.00887535063113605
-2.50698449235642E-05,7.49939908928354E-06,0.703125,0,0.00887535063113605
-1.98746402020333E-05,8.31251691124635E-06,0.703125,0,0.00887535063113605
-2.53581511060474E-05,8.9089480752591E-06,0.703125,0,0.00887535063113605
-2.14523170143366E-05,7.55901282900595E-06,0.703125,0,0.00887535063113605
-2.3717981093796E-05,8.50490323500708E-06,0.703125,0,0.00887535063113605
-2.31988906307379E-05,7.92750324762892E-06,0.703125,0,0.00887535063113605
-2.47515854425728E-05,7.32321768737165E-06,0.703125,0,0.00887535063113605
-2.37958138313843E-05,6.15049111729604E-06,0.703125,0,0.00887535063113605
-2.37695821851958E-05,5.01884505865746E-06,0.703125,0,0.00887535063113605
-2.5190298401867E-05,4.7361031647597E-06,0.703125,0,0.00887535063113605
-2.57894025708083E-05,5.62520608582417E-06,0.703125,0,0.00887535063113605
-2.64417976723053E-05,7.02109218764235E-06,0.703125,0,0.00887535063113605
-2.50240718742134E-05,7.49456103221746E-06,0.703125,0,0.00887535063113605
-2.53226935456041E-05,7.66096673032735E-06,0.703125,0,0.00887535063113605
-2.41261841438245E-05,6.90891147314687E-06,0.703125,0,0.00887535063113605
-2.58717027463717E-05,7.63537082093535E-06,0.703125,0,0.00887535063113605
-2.56391122093191E-05,9.62693229666911E-06,0.703125,0,0.00887535063113605
-2.54777496593306E-05,1.21582079373184E-05,0.703125,0,0.00887535063113605
-2.34416056628106E-05,1.31153574329801E-05,0.703125,0,0.00887535063113605
-2.42937167058699E-05,1.43843690239009E-05,0.703125,0,0.00887535063113605
-2.46014897129498E-05,1.64176617545309E-05,0.703125,0,0.00887535063113605
-2.44820948864799E-05,1.79535090865102E-05,0.703125,0,0.00887535063113605
-2.32782222155947E-05,1.72536292666337E-05,0.703125,0,0.00887535063113605
-2.36364667216549E-05,1.58142102009151E-05,0.703125,0,0.00887535063113605
-2.33954033319606E-05,1.53081527969334E-05,0.703125,0,0.00887535063113605
-2.29432716878364E-05,1.55385714606382E-05,0.703125,0,0.00887535063113605
-1.86569432116812E-05,1.29118125187233E-05,0.703125,0,0.00887535063113605
-2.6506902941037E-05,1.74844790308271E-05,0.703125,0,0.00887535063113605
-1.98308698600158E-05,1.17699864858878E-05,0.703125,0,0.00887535063113605
-2.42163332586642E-05,1.41173832162167E-05,0.703125,0,0.00887535063113605
-2.084240259137E-05,1.16883911687182E-05,0.703125,0,0.00887535063113605
-2.54283586400561E-05,1.49327133840416E-05,0.703125,0,0.00887535063113605
-2.48384840233484E-05,1.36755870698835E-05,0.703125,0,0.00887535063113605
-2.5829445803538E-05,1.44037840072997E-05,0.703125,0,0.00887535063113605
-2.5127783374046E-05,1.37783672471414E-05,0.703125,0,0.00887535063113605
-2.46314484684262E-05,1.30943753902102E-05,0.703125,0,0.00887535063113605
-2.46378913288936E-05,1.17401241368498E-05,0.703125,0,0.00887535063113605
-2.45803603320383E-05,1.00990982900839E-05,0.703125,0,0.00887535063113605
-2.57711180893239E-05,9.80894492386142E-06,0.703125,0,0.00887535063113605
-2.42322039412102E-05,9.72988709690981E-06,0.703125,0,0.00887535063113605
-2.39564633375267E-05,1.2126565707149E-05,0.703125,0,0.00887535063113605
-2.26408974413062E-05,1.1947781786148E-05,0.703125,0,0.00887535063113605
-2.43883532675682E-05,1.22186875159969E-05,0.703125,0,0.00887535063113605
-2.40463468799135E-05,1.15157226900919E-05,0.703125,0,0.00887535063113605
-2.46935724135255E-05,1.29545451272861E-05,0.703125,0,0.00887535063113605
-2.32036927627632E-05,1.26522318169009E-05,0.703125,0,0.00887535063113605
-2.34160888794577E-05,1.2945984963153E-05,0.703125,0,0.00887535063113605
-2.32853853958659E-05,1.16721184895141E-05,0.703125,0,0.00887535063113605
-2.43331905949162E-05,1.10395185402012E-05,0.703125,0,0.00887535063113605
-2.47009375016205E-05,9.63929323916091E-06,0.703125,0,0.00887535063113605
-2.46386116486974E-05,8.69597442942904E-06,0.703125,0,0.00887535063113605
-2.33913797273999E-05,8.79315302881878E-06,0.703125,0,0.00887535063113605
-2.38345583056798E-05,9.10118615138344E-06,0.703125,0,0.00887535063113605
-2.02941337192897E-05,8.60538420965895E-06,0.703125,0,0.00887535063113605
-2.88250339508522E-05,1.3081649740343E-05,0.703125,0,0.00887535063113605
-2.08459550776752E-05,9.77363924903329E-06,0.703125,0,0.00887535063113605
-2.52829904638929E-05,1.02904623417999E-05,0.703125,0,0.00887535063113605
-2.19266676140251E-05,8.11749941931339E-06,0.703125,0,0.00887535063113605
-2.65308935922803E-05,8.05808485893067E-06,0.703125,0,0.00887535063113605
-2.64474729192443E-05,7.28567192709306E-06,0.703125,0,0.00887535063113605
-2.89489507849794E-05,9.56475923885591E-06,0.703125,0,0.00887535063113605
-2.91511423711199E-05,1.06427423816058E-05,0.703125,0,0.00887535063113605
-2.87176371784881E-05,1.04871432995424E-05,0.703125,0,0.00887535063113605
-2.85990809061332E-05,9.47406806517392E-06,0.703125,0,0.00887535063113605
-2.81693191936938E-05,8.37229708849918E-06,0.703125,0,0.00887535063113605
-2.90770713036181E-05,9.37932054512203E-06,0.703125,0,0.00887535063113605
-2.73226087301737E-05,1.01050300145289E-05,0.703125,0,0.00887535063113605
-2.7206226150156E-05,1.16508117571357E-05,0.703125,0,0.00887535063113605
-2.6122497729375E-05,1.19488340715179E-05,0.703125,0,0.00887535063113605
-2.7619096726994E-05,1.220743979502E-05,0.703125,0,0.00887535063113605
-2.64767422777368E-05,1.16050805445411E-05,0.703125,0,0.00887535063113605
-2.72059824055759E-05,1.16693981908611E-05,0.703125,0,0.00887535063113605
-2.654333729879E-05,1.00154666142771E-05,0.703125,0,0.00887535063113605
-2.68414587480947E-05,9.33388855628436E-06,0.703125,0,0.00887535063113605
-2.53635189437773E-05,1.01043042377569E-05,0.703125,0,0.00887535063113605
-2.56350958807161E-05,1.11361414383282E-05,0.703125,0,0.00887535063113605
-2.74089179583825E-05,1.1269031347183E-05,0.703125,0,0.00887535063113605
-2.95677637041081E-05,1.05203716884716E-05,0.703125,0,0.00887535063113605
-2.98599516099785E-05,8.59991178003838E-06,0.703125,0,0.00887535063113605
-2.98475806630449E-05,8.05580475571333E-06,0.703125,0,0.00887535063113605
-2.34258150157984E-05,6.41253109279205E-06,0.703125,0,0.00887535063113605
-3.11707590299193E-05,1.11881190605345E-05,0.703125,0,0.00887535063113605
-2.11860678973608E-05,1.10069349830155E-05,0.703125,0,0.00887535063113605
-2.80778567685047E-05,1.15560596896103E-05,0.703125,0,0.00887535063113605
-2.36417126870947E-05,8.92002299224259E-06,0.703125,0,0.00887535063113605
-2.57588617387228E-05,1.03589472928434E-05,0.703125,0,0.00887535063113605
-2.20476558752125E-05,1.24314638014766E-05,0.703125,0,0.00887535063113605
-2.32963666348951E-05,1.4020914932189E-05,0.703125,0,0.00887535063113605
-2.27258260565577E-05,1.29610170915839E-05,0.703125,0,0.00887535063113605
-2.31224767048843E-05,1.20127251648228E-05,0.703125,0,0.00887535063113605
-2.32605470955605E-05,1.08619988168357E-05,0.703125,0,0.00887535063113605
-2.26225456572138E-05,8.79143226484302E-06,0.703125,0,0.00887535063113605
-2.43573849729728E-05,8.01605710876174E-06,0.703125,0,0.00887535063113605
-2.33422415476525E-05,8.03225702838972E-06,0.703125,0,0.00887535063113605
-2.43177728407318E-05,8.82909353094874E-06,0.703125,0,0.00887535063113605
-2.33181071962463E-05,8.44686655909754E-06,0.703125,0,0.00887535063113605
-2.47717234742595E-05,8.33846934256144E-06,0.703125,0,0.00887535063113605
-2.26287793338997E-05,8.22089350549504E-06,0.703125,0,0.00887535063113605
-2.24630566663109E-05,8.3610711953952E-06,0.703125,0,0.00887535063113605
-2.07244684133912E-05,7.96600852481788E-06,0.703125,0,0.00887535063113605
-2.22443632083014E-05,9.47413718677126E-06,0.703125,0,0.00887535063113605
-2.19548055611085E-05,1.09498796518892E-05,0.703125,0,0.00887535063113605
-2.20849524339428E-05,1.0736970580183E-05,0.703125,0,0.00887535063113605
-2.05610867851647E-05,1.037870424625E-05,0.703125,0,0.00887535063113605
-1.9276008970337E-05,1.23635454656323E-05,0.703125,0,0.00887535063113605
-1.81144387170207E-05,1.39098383442615E-05,0.703125,0,0.00887535063113605
-1.77882866410073E-05,1.24521275211009E-05,0.703125,0,0.00887535063113605
-1.51526246554567E-05,6.93804895490757E-06,0.703125,0,0.00887535063113605
-2.3412461814587E-05,8.16673764347797E-06,0.703125,0,0.00887535063113605
-2.11718615901191E-05,5.66522567169159E-06,0.703125,0,0.00887535063113605
-2.6145156880375E-05,9.58187956712209E-06,0.703125,0,0.00887535063113605
-2.20850015466567E-05,9.03098043636419E-06,0.703125,0,0.00887535063113605
-2.26286829274613E-05,1.10005457827356E-05,0.703125,0,0.00887535063113605
-2.11822571145603E-05,9.68646145338425E-06,0.703125,0,0.00887535063113605
-2.18943096115254E-05,9.47145963436924E-06,0.703125,0,0.00887535063113605
-2.130717257387E-05,1.04347218439216E-05,0.703125,0,0.00887535063113605
-2.13085932045942E-05,1.16802548291162E-05,0.703125,0,0.00887535063113605
-2.22340495383833E-05,1.0383653716417E-05,0.703125,0,0.00887535063113605
-2.22757480514701E-05,8.43748603074346E-06,0.703125,0,0.00887535063113605
-2.27949440159136E-05,7.60802595323185E-06,0.703125,0,0.00887535063113605
-2.1261488655E-05,6.67284348310204E-06,0.703125,0,0.00887535063113605
-2.14719475479797E-05,6.78007654641988E-06,0.703125,0,0.00887535063113605
-2.04849311558064E-05,5.89055025557172E-06,0.703125,0,0.00887535063113605
-2.10116741072852E-05,6.58355747873429E-06,0.703125,0,0.00887535063113605
-2.04633342946181E-05,6.59165425531683E-06,0.703125,0,0.00887535063113605
-2.15497766475892E-05,7.00614873494487E-06,0.703125,0,0.00887535063113605
-2.14690790016903E-05,6.26956762062036E-06,0.703125,0,0.00887535063113605
-2.21765112655703E-05,7.44729504731367E-06,0.703125,0,0.00887535063113605
-2.15988693526015E-05,9.57447173277615E-06,0.703125,0,0.00887535063113605
-2.1051997464383E-05,1.19129126687767E-05,0.703125,0,0.00887535063113605
-2.16257340071024E-05,1.20200438686879E-05,0.703125,0,0.00887535063113605
-2.39352903008694E-05,1.03894190033316E-05,0.703125,0,0.00887535063113605
-2.43394824792631E-05,9.07471167010954E-06,0.703125,0,0.00887535063113605
-2.34087165154051E-05,9.48440174397547E-06,0.703125,0,0.00887535063113605
-1.86519664566731E-05,9.1308666014811E-06,0.703125,0,0.00887535063113605
-2.57224892266095E-05,1.45334743137937E-05,0.703125,0,0.00887535063113605
-1.88080321095185E-05,1.26891618492664E-05,0.703125,0,0.00887535063113605
-2.38741849898361E-05,1.41121781780384E-05,0.703125,0,0.00887535063113605
-1.99954665731639E-05,1.03908223536564E-05,0.703125,0,0.00887535063113605
-2.33839255088242E-05,9.82893834589049E-06,0.703125,0,0.00887535063113605
-2.20095880649751E-05,8.02443173597567E-06,0.703125,0,0.00887535063113605
-2.34278486459516E-05,7.15109126758762E-06,0.703125,0,0.00887535063113605
-2.34381550399121E-05,6.86636894897674E-06,0.703125,0,0.00887535063113605
-2.34964936680626E-05,7.22521372154006E-06,0.703125,0,0.00887535063113605
-2.37166568695102E-05,6.59874240227509E-06,0.703125,0,0.00887535063113605
-2.36571286222897E-05,5.22807977176853E-06,0.703125,0,0.00887535063113605
-2.55308768828399E-05,4.89616604681942E-06,0.703125,0,0.00887535063113605
-2.60240994975902E-05,5.24993220096803E-06,0.703125,0,0.00887535063113605
-2.74971243925393E-05,8.01905753178289E-06,0.703125,0,0.00887535063113605
-2.54019978456199E-05,9.91451361187501E-06,0.703125,0,0.00887535063113605
-2.46261370193679E-05,1.20407275971957E-05,0.703125,0,0.00887535063113605
-2.26046486204723E-05,1.33348094095709E-05,0.703125,0,0.00887535063113605
-2.34472900046967E-05,1.48985936903046E-05,0.703125,0,0.00887535063113605
-2.31050707952818E-05,1.4454691154242E-05,0.703125,0,0.00887535063113605
-2.37350795941893E-05,1.38880914164474E-05,0.703125,0,0.00887535063113605
-2.24150080612162E-05,1.25842079796712E-05,0.703125,0,0.00887535063113605
-2.39319233514834E-05,1.11278250187752E-05,0.703125,0,0.00887535063113605
-2.55430913966848E-05,9.29479392652866E-06,0.703125,0,0.00887535063113605
-2.6067798899021E-05,1.02874555523158E-05,0.703125,0,0.00887535063113605
-2.42982714553364E-05,1.4756428754481E-05,0.703125,0,0.00887535063113605
-2.17957913264399E-05,1.82037620106712E-05,0.703125,0,0.00887535063113605
-1.85328735824442E-05,1.46908305396209E-05,0.703125,0,0.00887535063113605
-2.81405391433509E-05,1.92024399439106E-05,0.703125,0,0.00887535063113605
-2.16113912756555E-05,1.34361607706524E-05,0.703125,0,0.00887535063113605
-2.41323959926376E-05,1.69176400959259E-05,0.703125,0,0.00887535063113605
-2.1260875655571E-05,1.11362169263884E-05,0.703125,0,0.00887535063113605
-2.46598283411004E-05,1.11330391519004E-05,0.703125,0,0.00887535063113605
-2.26427637244342E-05,8.08704226074042E-06,0.703125,0,0.00887535063113605
-2.2893191271578E-05,9.26559187064413E-06,0.703125,0,0.00887535063113605
-2.24943942157552E-05,9.13165240490343E-06,0.703125,0,0.00887535063113605
-2.3601849534316E-05,8.62260094436351E-06,0.703125,0,0.00887535063113605
-2.46768431679811E-05,8.37727293401258E-06,0.703125,0,0.00887535063113605
-2.37548247241648E-05,8.5334349932964E-06,0.703125,0,0.00887535063113605
-2.36136493185768E-05,9.90002627077047E-06,0.703125,0,0.00887535063113605
-2.23569422814762E-05,1.05458793768776E-05,0.703125,0,0.00887535063113605
-2.42415826505749E-05,1.35637401399435E-05,0.703125,0,0.00887535063113605
-2.52347672358155E-05,1.37914894366986E-05,0.703125,0,0.00887535063113605
-2.72033175860997E-05,1.43388760989183E-05,0.703125,0,0.00887535063113605
-2.52496793109458E-05,1.25654923976981E-05,0.703125,0,0.00887535063113605
-2.39399105339544E-05,1.28751407828531E-05,0.703125,0,0.00887535063113605
-2.23096976696979E-05,1.16195915325079E-05,0.703125,0,0.00887535063113605
-2.33476002904354E-05,1.08316389741958E-05,0.703125,0,0.00887535063113605
-2.36149317061063E-05,8.84480687091127E-06,0.703125,0,0.00887535063113605
-2.48650430876296E-05,1.04487717180746E-05,0.703125,0,0.00887535063113605
-2.52357549470617E-05,1.37405077111907E-05,0.703125,0,0.00887535063113605
-2.45354240178131E-05,1.59997216542251E-05,0.703125,0,0.00887535063113605
-2.38278425968019E-05,1.59126138896681E-05,0.703125,0,0.00887535063113605
-2.49925615207758E-05,1.56392616190715E-05,0.703125,0,0.00887535063113605
-2.11027527257102E-05,1.26813474707888E-05,0.703125,0,0.00887535063113605
-2.9731580070802E-05,1.75817858689697E-05,0.703125,0,0.00887535063113605
-2.22265553020407E-05,1.12666793938843E-05,0.703125,0,0.00887535063113605
-2.75346847047331E-05,1.23161398732918E-05,0.703125,0,0.00887535063113605
-2.37411131820409E-05,9.9456456155167E-06,0.703125,0,0.00887535063113605
-2.71333592536394E-05,1.42046555993147E-05,0.703125,0,0.00887535063113605
-2.38926095335046E-05,1.59582905325806E-05,0.703125,0,0.00887535063113605
-2.44760722125648E-05,1.68010283232434E-05,0.703125,0,0.00887535063113605
-2.3567186872242E-05,1.42849839903647E-05,0.703125,0,0.00887535063113605
-2.38561678997939E-05,1.21679713629419E-05,0.703125,0,0.00887535063113605
-2.45474202529294E-05,1.12575589810149E-05,0.703125,0,0.00887535063113605
-2.39168803091161E-05,1.22576529975049E-05,0.703125,0,0.00887535063113605
-2.49281747528585E-05,1.51416925291414E-05,0.703125,0,0.00887535063113605
-2.40067565755453E-05,1.56147780216997E-05,0.703125,0,0.00887535063113605
-2.50035591307096E-05,1.55693178385263E-05,0.703125,0,0.00887535063113605
-2.28197695832932E-05,1.36147318698931E-05,0.703125,0,0.00887535063113605
-2.29420020332327E-05,1.36889266286744E-05,0.703125,0,0.00887535063113605
-2.18542318179971E-05,1.21547882372397E-05,0.703125,0,0.00887535063113605
-2.33332193602109E-05,1.09545098894159E-05,0.703125,0,0.00887535063113605
-2.27717628149549E-05,8.60902673593955E-06,0.703125,0,0.00887535063113605
-2.32479469559621E-05,8.25037568574771E-06,0.703125,0,0.00887535063113605
-2.18029163079336E-05,7.39242250347161E-06,0.703125,0,0.00887535063113605
-2.17017168324674E-05,7.38356357032899E-06,0.703125,0,0.00887535063113605
-2.02192477445351E-05,8.29936561785871E-06,0.703125,0,0.00887535063113605
-1.96404744201573E-05,8.79854269442149E-06,0.703125,0,0.00887535063113605
-1.91593317140359E-05,8.92915159056429E-06,0.703125,0,0.00887535063113605
-2.02552782866405E-05,1.01850901046419E-05,0.703125,0,0.00887535063113605
-1.77121146407444E-05,8.59805095387856E-06,0.703125,0,0.00887535063113605
-2.50129305641167E-05,1.138088737207E-05,0.703125,0,0.00887535063113605
-1.96273613255471E-05,7.53562153477105E-06,0.703125,0,0.00887535063113605
-2.50122411671327E-05,9.09496793610742E-06,0.703125,0,0.00887535063113605
-2.14415522350464E-05,6.49313278699992E-06,0.703125,0,0.00887535063113605
-2.34266371990088E-05,6.98625399309094E-06,0.703125,0,0.00887535063113605
-2.13975090446183E-05,5.8257746786694E-06,0.703125,0,0.00887535063113605
-2.30164514505304E-05,6.8335662035679E-06,0.703125,0,0.00887535063113605
-2.20880083361408E-05,7.41786789149046E-06,0.703125,0,0.00887535063113605
-2.15563995880075E-05,7.69906182540581E-06,0.703125,0,0.00887535063113605
-2.17810811591335E-05,8.49603111419128E-06,0.703125,0,0.00887535063113605
-2.2066684323363E-05,1.10664796011406E-05,0.703125,0,0.00887535063113605
-2.32705333473859E-05,1.40092924993951E-05,0.703125,0,0.00887535063113605
-2.18957065953873E-05,1.34139008878265E-05,0.703125,0,0.00887535063113605
-2.27654254558729E-05,1.22074361570412E-05,0.703125,0,0.00887535063113605
-2.22492108150618E-05,1.07981204564567E-05,0.703125,0,0.00887535063113605
-2.32163001783192E-05,1.07382693386171E-05,0.703125,0,0.00887535063113605
-2.19841531361453E-05,8.61235002957983E-06,0.703125,0,0.00887535063113605
-2.36051328101894E-05,8.24337348603876E-06,0.703125,0,0.00887535063113605
-2.35864081332693E-05,8.27516305434983E-06,0.703125,0,0.00887535063113605
-2.42740334215341E-05,7.78905359766213E-06,0.703125,0,0.00887535063113605
-2.40175104408991E-05,4.73093814434833E-06,0.703125,0,0.00887535063113605
-2.46877498284448E-05,2.10658413379861E-06,0.703125,0,0.00887535063113605
-2.48283777182223E-05,1.90709238268028E-06,0.703125,0,0.00887535063113605
-2.58308500633575E-05,4.15369322581682E-06,0.703125,0,0.00887535063113605
-2.62800385826267E-05,6.82895597492461E-06,0.703125,0,0.00887535063113605
-2.726040656853E-05,8.54832160257502E-06,0.703125,0,0.00887535063113605
-2.32882193813566E-05,6.27327062829863E-06,0.703125,0,0.00887535063113605
-3.4135391615564E-05,8.62921751831891E-06,0.703125,0,0.00887535063113605
-2.59964454016881E-05,5.77839091420174E-06,0.703125,0,0.00887535063113605
-2.96290381811559E-05,5.98013821218046E-06,0.703125,0,0.00887535063113605
-2.3749285901431E-05,4.43316321252496E-06,0.703125,0,0.00887535063113605
-2.70042673946591E-05,7.72302337281872E-06,0.703125,0,0.00887535063113605
-2.54320384556195E-05,9.19811554922489E-06,0.703125,0,0.00887535063113605
-2.75586517091142E-05,9.22929211810697E-06,0.703125,0,0.00887535063113605
-2.70907003141474E-05,7.75828993937466E-06,0.703125,0,0.00887535063113605
-2.70279833785025E-05,7.5472116805031E-06,0.703125,0,0.00887535063113605
-2.71010412689066E-05,8.93043034011498E-06,0.703125,0,0.00887535063113605
-2.66964289039606E-05,1.03934062281041E-05,0.703125,0,0.00887535063113605
-2.79540126939537E-05,1.04513974292786E-05,0.703125,0,0.00887535063113605
-2.70122654910665E-05,8.81843334354926E-06,0.703125,0,0.00887535063113605
-2.76539176411461E-05,8.83458233147394E-06,0.703125,0,0.00887535063113605
-2.49511758738663E-05,9.65682647802169E-06,0.703125,0,0.00887535063113605
-2.52904465014581E-05,1.19099568109959E-05,0.703125,0,0.00887535063113605
-2.39964483625954E-05,1.26828726934036E-05,0.703125,0,0.00887535063113605
-2.4561950340285E-05,1.2846977369918E-05,0.703125,0,0.00887535063113605
-2.24518280447228E-05,1.21263592518517E-05,0.703125,0,0.00887535063113605
-2.23733768507373E-05,1.12464267658652E-05,0.703125,0,0.00887535063113605
-2.19723042391706E-05,8.49584830575623E-06,0.703125,0,0.00887535063113605
-2.29161869356176E-05,7.52244113755296E-06,0.703125,0,0.00887535063113605
-2.23528713831911E-05,9.33007140702102E-06,0.703125,0,0.00887535063113605
-2.28278677241178E-05,1.21299954116694E-05,0.703125,0,0.00887535063113605
-2.22017915803008E-05,1.46435131682665E-05,0.703125,0,0.00887535063113605
-2.13237217394635E-05,1.63514414452948E-05,0.703125,0,0.00887535063113605
-1.64973826031201E-05,1.15494613055489E-05,0.703125,0,0.00887535063113605
-2.41826764977304E-05,1.43695424412726E-05,0.703125,0,0.00887535063113605
-1.95171141967876E-05,8.95077482709894E-06,0.703125,0,0.00887535063113605
-2.34851213463116E-05,1.22359715533094E-05,0.703125,0,0.00887535063113605
-1.92261759366374E-05,8.77738420967944E-06,0.703125,0,0.00887535063113605
-2.23335991904605E-05,1.09693537524436E-05,0.703125,0,0.00887535063113605
-2.35686657106271E-05,1.04795126389945E-05,0.703125,0,0.00887535063113605
-2.59199496213114E-05,1.11487288450007E-05,0.703125,0,0.00887535063113605
-2.49414715653984E-05,9.4513316071243E-06,0.703125,0,0.00887535063113605
-2.5052886485355E-05,7.90350077295443E-06,0.703125,0,0.00887535063113605
-2.60133620031411E-05,7.42772044759477E-06,0.703125,0,0.00887535063113605
-2.55342019954696E-05,6.93004267304786E-06,0.703125,0,0.00887535063113605
-2.55296417890349E-05,6.24341555521823E-06,0.703125,0,0.00887535063113605
-2.35911102208775E-05,3.55791416950524E-06,0.703125,0,0.00887535063113605
-2.37130661844276E-05,2.88628712041827E-06,0.703125,0,0.00887535063113605
-2.32714992307592E-05,2.51099004344724E-06,0.703125,0,0.00887535063113605
-2.55375416600145E-05,3.23512404065696E-06,0.703125,0,0.00887535063113605
-2.53637008427177E-05,1.31091314869991E-06,0.703125,0,0.00887535063113605
-2.48860596911982E-05,2.32503634833847E-06,0.703125,0,0.00887535063113605
-2.29735396715114E-05,4.95628501084866E-06,0.703125,0,0.00887535063113605
-2.30781606660457E-05,8.50863216328435E-06,0.703125,0,0.00887535063113605
-2.18806089833379E-05,8.95040011528181E-06,0.703125,0,0.00887535063113605
-2.16241387533955E-05,8.53234087117016E-06,0.703125,0,0.00887535063113605
-2.19868907151977E-05,7.06647779225023E-06,0.703125,0,0.00887535063113605
-2.27189284487395E-05,7.10050881025381E-06,0.703125,0,0.00887535063113605
-2.2315061869449E-05,9.35994466999546E-06,0.703125,0,0.00887535063113605
-2.19955491047585E-05,1.19445458039991E-05,0.703125,0,0.00887535063113605
-1.79786675289506E-05,1.03594456959399E-05,0.703125,0,0.00887535063113605
-2.51417513936758E-05,1.45627554957173E-05,0.703125,0,0.00887535063113605
-1.91570816241438E-05,1.05252938737976E-05,0.703125,0,0.00887535063113605
-2.4638487957418E-05,1.25490159916808E-05,0.703125,0,0.00887535063113605
-2.13526400330011E-05,9.41145572141977E-06,0.703125,0,0.00887535063113605
-2.38925404119072E-05,1.02985759440344E-05,0.703125,0,0.00887535063113605
-2.24317045649514E-05,9.93760568235302E-06,0.703125,0,0.00887535063113605
-2.38890570471995E-05,1.20188042274094E-05,0.703125,0,0.00887535063113605
-2.3017053536023E-05,1.41678192449035E-05,0.703125,0,0.00887535063113605
-2.34162962442497E-05,1.54622975969687E-05,0.703125,0,0.00887535063113605
-2.43126505665714E-05,1.51103977259481E-05,0.703125,0,0.00887535063113605
-2.41028028540313E-05,1.39915018735337E-05,0.703125,0,0.00887535063113605
-2.4372873667744E-05,1.35586842588964E-05,0.703125,0,0.00887535063113605
-2.28113403863972E-05,1.19034293675213E-05,0.703125,0,0.00887535063113605
-2.42305395659059E-05,1.21923703773064E-05,0.703125,0,0.00887535063113605
-2.44612838287139E-05,1.2668382623815E-05,0.703125,0,0.00887535063113605
-2.60906163020991E-05,1.38243794935988E-05,0.703125,0,0.00887535063113605
-2.5696370357764E-05,1.19509732030565E-05,0.703125,0,0.00887535063113605
-2.69814936473267E-05,1.01025843832758E-05,0.703125,0,0.00887535063113605
-2.57618776231539E-05,8.65557740326039E-06,0.703125,0,0.00887535063113605
-2.62761295743985E-05,1.02065796454553E-05,0.703125,0,0.00887535063113605
-2.62227331404574E-05,1.26564846141264E-05,0.703125,0,0.00887535063113605
-2.73880341410404E-05,1.56285022967495E-05,0.703125,0,0.00887535063113605
-2.65248290816089E-05,1.70255043485668E-05,0.703125,0,0.00887535063113605
-2.5425559215364E-05,1.62439755513333E-05,0.703125,0,0.00887535063113605
-2.45078117586672E-05,1.34987622004701E-05,0.703125,0,0.00887535063113605
-2.40186273003928E-05,1.24486696222448E-05,0.703125,0,0.00887535063113605
-1.82472140295431E-05,1.21236707855132E-05,0.703125,0,0.00887535063113605
-2.52710560744163E-05,1.82665244210511E-05,0.703125,0,0.00887535063113605
-1.91903909581015E-05,1.54224871948827E-05,0.703125,0,0.00887535063113605
-2.55093964369735E-05,2.03590698220069E-05,0.703125,0,0.00887535063113605
-2.2378153516911E-05,1.98107427422656E-05,0.703125,0,0.00887535063113605
-2.51069013756933E-05,2.07420889637433E-05,0.703125,0,0.00887535063113605
-2.41352154262131E-05,1.76132925844286E-05,0.703125,0,0.00887535063113605
-2.59423759416677E-05,1.50033201862243E-05,0.703125,0,0.00887535063113605
-2.51199617196107E-05,1.03124966699397E-05,0.703125,0,0.00887535063113605
-2.52270747296279E-05,7.32242733647581E-06,0.703125,0,0.00887535063113605
-2.5392009774805E-05,6.950581791898E-06,0.703125,0,0.00887535063113605
-2.41708148678299E-05,8.22048696136335E-06,0.703125,0,0.00887535063113605
-2.36686719290446E-05,1.13357755253674E-05,0.703125,0,0.00887535063113605
-2.14169795071939E-05,1.18932439363562E-05,0.703125,0,0.00887535063113605
-2.18365748878568E-05,1.1985131095571E-05,0.703125,0,0.00887535063113605
-2.12212744372664E-05,1.1421588169469E-05,0.703125,0,0.00887535063113605
-2.35076931858202E-05,1.28921592477127E-05,0.703125,0,0.00887535063113605
-2.38559296121821E-05,1.2006927136099E-05,0.703125,0,0.00887535063113605
-2.5036610168172E-05,1.16318333311938E-05,0.703125,0,0.00887535063113605
-2.33701612160075E-05,1.2546645848488E-05,0.703125,0,0.00887535063113605
-2.27202181122266E-05,1.67302077898057E-05,0.703125,0,0.00887535063113605
-2.09605750569608E-05,1.94790827663383E-05,0.703125,0,0.00887535063113605
-2.11415899684653E-05,1.88656613318017E-05,0.703125,0,0.00887535063113605
-2.11808783205925E-05,1.49378820424317E-05,0.703125,0,0.00887535063113605
-2.23008446482709E-05,1.30723956317524E-05,0.703125,0,0.00887535063113605
-2.31513495236868E-05,1.38193363454775E-05,0.703125,0,0.00887535063113605
-2.31366193474969E-05,1.48894368976471E-05,0.703125,0,0.00887535063113605
-1.87942041520728E-05,1.1712624655047E-05,0.703125,0,0.00887535063113605
-2.63040237769019E-05,1.61130119522568E-05,0.703125,0,0.00887535063113605
-1.94082858797628E-05,1.11639237729833E-05,0.703125,0,0.00887535063113605
-2.4190378098865E-05,1.4055300198379E-05,0.703125,0,0.00887535063113605
-1.96661094378214E-05,1.24890502775088E-05,0.703125,0,0.00887535063113605
-2.13623170566279E-05,1.49905699800001E-05,0.703125,0,0.00887535063113605
-1.90029659279389E-05,1.37609986268217E-05,0.703125,0,0.00887535063113605
-2.08488399948692E-05,1.38247269205749E-05,0.703125,0,0.00887535063113605
-2.16987555177184E-05,1.31380202219589E-05,0.703125,0,0.00887535063113605
-2.2979100322118E-05,1.28774927361519E-05,0.703125,0,0.00887535063113605
-2.42963469645474E-05,1.20884515126818E-05,0.703125,0,0.00887535063113605
-2.3800590497558E-05,9.81857374426909E-06,0.703125,0,0.00887535063113605
-2.41459238168318E-05,7.12745350028854E-06,0.703125,0,0.00887535063113605
-2.24836530833272E-05,3.73485295313003E-06,0.703125,0,0.00887535063113605
-2.36059022427071E-05,3.5100847526337E-06,0.703125,0,0.00887535063113605
-2.44192960963119E-05,3.70580937669729E-06,0.703125,0,0.00887535063113605
-2.72267061518505E-05,4.94523465022212E-06,0.703125,0,0.00887535063113605
-2.5996616386692E-05,4.00202725359122E-06,0.703125,0,0.00887535063113605
-2.51507699431386E-05,4.27243639933295E-06,0.703125,0,0.00887535063113605
-2.34929284488317E-05,5.04485615238082E-06,0.703125,0,0.00887535063113605
-2.46682138822507E-05,7.94828065409092E-06,0.703125,0,0.00887535063113605
-2.46738072746666E-05,9.09257232706295E-06,0.703125,0,0.00887535063113605
-2.53374637395609E-05,9.68633412412601E-06,0.703125,0,0.00887535063113605
-2.51766559813404E-05,9.32137663767207E-06,0.703125,0,0.00887535063113605
-2.48923315666616E-05,8.18479747977108E-06,0.703125,0,0.00887535063113605
-2.40401568589732E-05,5.36490733793471E-06,0.703125,0,0.00887535063113605
-2.36341384152183E-05,3.25962014358083E-06,0.703125,0,0.00887535063113605
-2.0023648175993E-05,1.93275354831712E-06,0.703125,0,0.00887535063113605
-3.00145784422057E-05,1.76189121248171E-06,0.703125,0,0.00887535063113605
-2.37283293245127E-05,2.14711212720431E-06,0.703125,0,0.00887535063113605
-2.74256199190859E-05,6.00034536546445E-06,0.703125,0,0.00887535063113605
-2.29916004172992E-05,8.66649043018697E-06,0.703125,0,0.00887535063113605
-2.55311479122611E-05,1.10771761683282E-05,0.703125,0,0.00887535063113605
-2.3264186893357E-05,1.06060879261349E-05,0.703125,0,0.00887535063113605
-2.391641100985E-05,9.5881432571332E-06,0.703125,0,0.00887535063113605
-2.34652416111203E-05,9.50014054978965E-06,0.703125,0,0.00887535063113605
-2.38892498600762E-05,1.0676367310225E-05,0.703125,0,0.00887535063113605
-2.49060285568703E-05,1.23261925182305E-05,0.703125,0,0.00887535063113605
-2.54414153459948E-05,1.35658119688742E-05,0.703125,0,0.00887535063113605
-2.65247726929374E-05,1.34534893732052E-05,0.703125,0,0.00887535063113605
-2.49744589382317E-05,1.19780806926428E-05,0.703125,0,0.00887535063113605
-2.48008618655149E-05,1.07165842564427E-05,0.703125,0,0.00887535063113605
-2.35301886277739E-05,9.89218187896768E-06,0.703125,0,0.00887535063113605
-2.55151699093403E-05,1.01940095191821E-05,0.703125,0,0.00887535063113605
-2.56136663665529E-05,9.65749586612219E-06,0.703125,0,0.00887535063113605
-2.69880911218934E-05,8.46116199682001E-06,0.703125,0,0.00887535063113605
-2.55439463217044E-05,7.56120516598457E-06,0.703125,0,0.00887535063113605
-2.46834988502087E-05,8.31114084576257E-06,0.703125,0,0.00887535063113605
-2.35769639402861E-05,9.92093555396423E-06,0.703125,0,0.00887535063113605
-2.44048587774159E-05,1.20430267998017E-05,0.703125,0,0.00887535063113605
-2.42305832216516E-05,1.32019949887763E-05,0.703125,0,0.00887535063113605
-2.49394797720015E-05,1.36990092869382E-05,0.703125,0,0.00887535063113605
-2.54102069447981E-05,1.43069855766953E-05,0.703125,0,0.00887535063113605
-2.5405221094843E-05,1.46768979902845E-05,0.703125,0,0.00887535063113605
-2.00219401449431E-05,1.07395544546307E-05,0.703125,0,0.00887535063113605
-2.87019302049885E-05,1.31994502226007E-05,0.703125,0,0.00887535063113605
-2.28291355597321E-05,7.57020461605862E-06,0.703125,0,0.00887535063113605
-2.82898217847105E-05,1.15833181553171E-05,0.703125,0,0.00887535063113605
-2.34593026107177E-05,1.10904265966383E-05,0.703125,0,0.00887535063113605
-2.58775780821452E-05,1.32923796627438E-05,0.703125,0,0.00887535063113605
-2.42140504269628E-05,1.02651110864826E-05,0.703125,0,0.00887535063113605
-2.65790440607816E-05,1.0354169717175E-05,0.703125,0,0.00887535063113605
-2.7434018193162E-05,1.28381589092896E-05,0.703125,0,0.00887535063113605
-2.78253610304091E-05,1.68644219229463E-05,0.703125,0,0.00887535063113605
-2.63109104707837E-05,1.94367257790873E-05,0.703125,0,0.00887535063113605
-2.39889432123164E-05,1.74653432623018E-05,0.703125,0,0.00887535063113605
-2.39688724832376E-05,1.31658798636636E-05,0.703125,0,0.00887535063113605
-2.28812968998682E-05,9.34464242163813E-06,0.703125,0,0.00887535063113605
-2.41172492678743E-05,1.01914374681655E-05,0.703125,0,0.00887535063113605
-2.29811030294513E-05,1.03813827081467E-05,0.703125,0,0.00887535063113605
-2.40039626078215E-05,9.92199238680769E-06,0.703125,0,0.00887535063113605
-2.32243528444087E-05,7.58890564611647E-06,0.703125,0,0.00887535063113605
-2.42923833866371E-05,8.03525108494796E-06,0.703125,0,0.00887535063113605
-2.26407173613552E-05,8.3792310761055E-06,0.703125,0,0.00887535063113605
-2.24184404942207E-05,9.08882884687046E-06,0.703125,0,0.00887535063113605
-2.19412140722852E-05,8.61739772517467E-06,0.703125,0,0.00887535063113605
-2.39035343838623E-05,8.4710563896806E-06,0.703125,0,0.00887535063113605
-2.43008689722046E-05,8.53501205710927E-06,0.703125,0,0.00887535063113605
-2.31333488045493E-05,9.83733389148256E-06,0.703125,0,0.00887535063113605
-2.09573499887483E-05,9.69271150097484E-06,0.703125,0,0.00887535063113605
-2.13953389902599E-05,7.80794744059676E-06,0.703125,0,0.00887535063113605
-1.92147290363209E-05,5.60727175979991E-06,0.703125,0,0.00887535063113605
-2.77923718385864E-05,1.00139614005457E-05,0.703125,0,0.00887535063113605
-2.08201545319753E-05,1.07687901618192E-05,0.703125,0,0.00887535063113605
-2.41178404394304E-05,1.34481815621257E-05,0.703125,0,0.00887535063113605
-1.90510527318111E-05,1.32081941046636E-05,0.703125,0,0.00887535063113605
-2.12518461921718E-05,1.33756539071328E-05,0.703125,0,0.00887535063113605
-1.91334474948235E-05,1.1769049706345E-05,0.703125,0,0.00887535063113605
-1.98725520021981E-05,1.17211529868655E-05,0.703125,0,0.00887535063113605
-1.93736577784875E-05,1.37176366479252E-05,0.703125,0,0.00887535063113605
-1.88213889487088E-05,1.43564584504929E-05,0.703125,0,0.00887535063113605
-1.8767232177197E-05,1.17377776405192E-05,0.703125,0,0.00887535063113605
-1.82968469744083E-05,8.75037130754208E-06,0.703125,0,0.00887535063113605
-1.80632396222791E-05,7.88350007496774E-06,0.703125,0,0.00887535063113605
-1.576561408001E-05,7.36143283575075E-06,0.703125,0,0.00887535063113605
-1.76288722286699E-05,6.34760544926394E-06,0.703125,0,0.00887535063113605
-1.89409802260343E-05,4.75489287055098E-06,0.703125,0,0.00887535063113605
-2.09081299544778E-05,4.48787341156276E-06,0.703125,0,0.00887535063113605
-1.99670412257547E-05,5.72205590287922E-06,0.703125,0,0.00887535063113605
-2.11621736525558E-05,9.08571018953808E-06,0.703125,0,0.00887535063113605
-2.09403842745814E-05,1.06177258203388E-05,0.703125,0,0.00887535063113605
-2.20735219045309E-05,1.03287638921756E-05,0.703125,0,0.00887535063113605
-2.16172775253654E-05,1.08246895251796E-05,0.703125,0,0.00887535063113605
-2.22507751459489E-05,1.29289064716431E-05,0.703125,0,0.00887535063113605
-2.35187380894786E-05,1.36615435621934E-05,0.703125,0,0.00887535063113605
-2.522362228774E-05,1.30346925288904E-05,0.703125,0,0.00887535063113605
-2.5292343707406E-05,1.2922935638926E-05,0.703125,0,0.00887535063113605
-2.47502484853612E-05,1.41084228744148E-05,0.703125,0,0.00887535063113605
-1.89309175766539E-05,1.2372820492601E-05,0.703125,0,0.00887535063113605
-2.57090559898643E-05,1.81520899786847E-05,0.703125,0,0.00887535063113605
-1.91683666344034E-05,1.25243659567786E-05,0.703125,0,0.00887535063113605
-2.58237450907473E-05,1.18309790195781E-05,0.703125,0,0.00887535063113605
-2.3484775738325E-05,7.35231878934428E-06,0.703125,0,0.00887535063113605
-2.67890136456117E-05,9.91646902548382E-06,0.703125,0,0.00887535063113605
-2.37952208408387E-05,8.83087795955362E-06,0.703125,0,0.00887535063113605
-2.50999582931399E-05,7.93169238022529E-06,0.703125,0,0.00887535063113605
-2.38424745475641E-05,6.13724978393293E-06,0.703125,0,0.00887535063113605
-2.23437127715442E-05,5.38588892595726E-06,0.703125,0,0.00887535063113605
-2.22599810513202E-05,4.88585055791191E-06,0.703125,0,0.00887535063113605
-2.24182695092168E-05,4.32421984442044E-06,0.703125,0,0.00887535063113605
-2.40657718677539E-05,5.10163863509661E-06,0.703125,0,0.00887535063113605
-2.27730870392406E-05,5.39626807949389E-06,0.703125,0,0.00887535063113605
-2.35947100009071E-05,6.75244427839061E-06,0.703125,0,0.00887535063113605
-2.31786361837294E-05,5.68114910493023E-06,0.703125,0,0.00887535063113605
-2.49582626565825E-05,5.01279055242776E-06,0.703125,0,0.00887535063113605
-2.37201820709743E-05,4.4898692976858E-06,0.703125,0,0.00887535063113605
-2.39234959735768E-05,7.86409782449482E-06,0.703125,0,0.00887535063113605
-2.18727072933689E-05,1.01150299087749E-05,0.703125,0,0.00887535063113605
-2.15871132240864E-05,1.08567028291873E-05,0.703125,0,0.00887535063113605
-2.13679104490438E-05,9.06539571587928E-06,0.703125,0,0.00887535063113605
-2.28570297622355E-05,9.13778785616159E-06,0.703125,0,0.00887535063113605
-2.29665656661382E-05,1.05053459265037E-05,0.703125,0,0.00887535063113605
-2.29270935960812E-05,1.16159962999518E-05,0.703125,0,0.00887535063113605
-2.38662196352379E-05,1.19223786896328E-05,0.703125,0,0.00887535063113605
-2.61517670878675E-05,1.24884727483732E-05,0.703125,0,0.00887535063113605
-2.26108186325291E-05,8.57428858580533E-06,0.703125,0,0.00887535063113605
-3.17172816721722E-05,1.24606494864565E-05,0.703125,0,0.00887535063113605
-2.21515783778159E-05,1.01709101727465E-05,0.703125,0,0.00887535063113605
-2.65213930106256E-05,1.22661740533658E-05,0.703125,0,0.00887535063113605
-2.23028346226783E-05,9.65104118222371E-06,0.703125,0,0.00887535063113605
-2.62744561041472E-05,1.00971665233374E-05,0.703125,0,0.00887535063113605
-2.53032794717001E-05,8.58616567711579E-06,0.703125,0,0.00887535063113605
-2.80615113297245E-05,9.74128124653362E-06,0.703125,0,0.00887535063113605
-2.79807154583978E-05,1.02463491202798E-05,0.703125,0,0.00887535063113605
-2.71943554253085E-05,9.82713936537039E-06,0.703125,0,0.00887535063113605
-2.65716662397608E-05,8.76357717061182E-06,0.703125,0,0.00887535063113605
-2.62002376985038E-05,8.72789951245068E-06,0.703125,0,0.00887535063113605
-2.7303782189847E-05,1.03811698863865E-05,0.703125,0,0.00887535063113605
-2.58767104241997E-05,1.13886690087384E-05,0.703125,0,0.00887535063113605
-2.69575593847549E-05,1.33373205244425E-05,0.703125,0,0.00887535063113605
-2.55623199336696E-05,1.36722474053386E-05,0.703125,0,0.00887535063113605
-2.61768236669013E-05,1.34565616463078E-05,0.703125,0,0.00887535063113605
-2.41315647144802E-05,1.12209936560248E-05,0.703125,0,0.00887535063113605
-2.47030147875194E-05,1.08382464532042E-05,0.703125,0,0.00887535063113605
-2.48481446760707E-05,1.11656945591676E-05,0.703125,0,0.00887535063113605
-2.71937278739642E-05,1.19920259749051E-05,0.703125,0,0.00887535063113605
-2.72711404250003E-05,1.16482478915714E-05,0.703125,0,0.00887535063113605
-2.80883668892784E-05,1.24421158034238E-05,0.703125,0,0.00887535063113605
-2.68447111011483E-05,1.26054392239894E-05,0.703125,0,0.00887535063113605
-2.57958563452121E-05,1.16168375825509E-05,0.703125,0,0.00887535063113605
-2.51251349254744E-05,1.03159190985025E-05,0.703125,0,0.00887535063113605
-2.45745213760529E-05,1.00106844911352E-05,0.703125,0,0.00887535063113605
-1.94889780686935E-05,8.5806850620429E-06,0.703125,0,0.00887535063113605
-2.63367619481869E-05,1.21873736134148E-05,0.703125,0,0.00887535063113605
-1.84442560566822E-05,8.66367099661147E-06,0.703125,0,0.00887535063113605
-2.49377699219622E-05,9.76739829638973E-06,0.703125,0,0.00887535063113605
-2.34168874158058E-05,7.54314442019677E-06,0.703125,0,0.00887535063113605
-2.75246347882785E-05,1.03102365756058E-05,0.703125,0,0.00887535063113605
-2.48937885771738E-05,1.14964013846475E-05,0.703125,0,0.00887535063113605
-2.44934999500401E-05,1.19072419693111E-05,0.703125,0,0.00887535063113605
-2.24615068873391E-05,1.04481378002674E-05,0.703125,0,0.00887535063113605
-2.17646756937029E-05,9.37182903726352E-06,0.703125,0,0.00887535063113605
-2.26222564378986E-05,9.08317178982543E-06,0.703125,0,0.00887535063113605
-2.30165369430324E-05,9.22121944313403E-06,0.703125,0,0.00887535063113605
-2.47081115958281E-05,1.07175010271021E-05,0.703125,0,0.00887535063113605
-2.40521203522803E-05,1.14479753392516E-05,0.703125,0,0.00887535063113605
-2.53476682701148E-05,1.22073861348326E-05,0.703125,0,0.00887535063113605
-2.47662828769535E-05,1.12606066977605E-05,0.703125,0,0.00887535063113605
-2.6563458959572E-05,1.17853687697789E-05,0.703125,0,0.00887535063113605
-2.58256350207375E-05,1.24681291708839E-05,0.703125,0,0.00887535063113605
-2.5921823180397E-05,1.39731982926605E-05,0.703125,0,0.00887535063113605
-2.3992759452085E-05,1.360463193123E-05,0.703125,0,0.00887535063113605
-2.45478022407042E-05,1.26165632536868E-05,0.703125,0,0.00887535063113605
-2.43465692619793E-05,1.12148718471872E-05,0.703125,0,0.00887535063113605
-2.44250222749542E-05,1.03075244624051E-05,0.703125,0,0.00887535063113605
-2.32469483307796E-05,9.93221965472912E-06,0.703125,0,0.00887535063113605
-2.31649628403829E-05,1.05034769148915E-05,0.703125,0,0.00887535063113605
-2.41785073740175E-05,1.04847467810032E-05,0.703125,0,0.00887535063113605
-2.50190460064914E-05,1.03249894891633E-05,0.703125,0,0.00887535063113605
-2.01614602701738E-05,6.40426878817379E-06,0.703125,0,0.00887535063113605
-2.84971411019797E-05,8.82991662365384E-06,0.703125,0,0.00887535063113605
-2.07629746000748E-05,8.06837670097593E-06,0.703125,0,0.00887535063113605
-2.45961455220822E-05,1.21740067697829E-05,0.703125,0,0.00887535063113605
-1.9377477656235E-05,1.17970093924669E-05,0.703125,0,0.00887535063113605
-2.15293894143542E-05,1.34916163005983E-05,0.703125,0,0.00887535063113605
-2.03965464606881E-05,1.23762702060048E-05,0.703125,0,0.00887535063113605
-2.31073972827289E-05,1.129755492002E-05,0.703125,0,0.00887535063113605
-2.2422715119319E-05,1.08743570308434E-05,0.703125,0,0.00887535063113605
-2.17851575143868E-05,1.18273574116756E-05,0.703125,0,0.00887535063113605
-2.22294020204572E-05,1.20701633932185E-05,0.703125,0,0.00887535063113605
-2.27985037781764E-05,1.15347193059279E-05,0.703125,0,0.00887535063113605
-2.3915288693388E-05,1.28808860608842E-05,0.703125,0,0.00887535063113605
-2.20498841372319E-05,1.54089502757415E-05,0.703125,0,0.00887535063113605
-2.2812380848336E-05,1.856021117419E-05,0.703125,0,0.00887535063113605
-2.22018297790783E-05,1.99213191081071E-05,0.703125,0,0.00887535063113605
-2.37077620113268E-05,2.05133474082686E-05,0.703125,0,0.00887535063113605
-2.3014583348413E-05,1.75177920027636E-05,0.703125,0,0.00887535063113605
-2.38656484725652E-05,1.3533769561036E-05,0.703125,0,0.00887535063113605
-2.18755412788596E-05,1.12151765279123E-05,0.703125,0,0.00887535063113605
-2.10496182262432E-05,1.24064918054501E-05,0.703125,0,0.00887535063113605
-1.98457601072732E-05,1.34442880153074E-05,0.703125,0,0.00887535063113605
-2.17764281842392E-05,1.3588398360298E-05,0.703125,0,0.00887535063113605
-2.31348603847437E-05,1.26504874060629E-05,0.703125,0,0.00887535063113605
-2.35596544371219E-05,1.18025755000417E-05,0.703125,0,0.00887535063113605
-2.28067892749095E-05,1.10889050120022E-05,0.703125,0,0.00887535063113605
-2.19068006117595E-05,1.09049024104024E-05,0.703125,0,0.00887535063113605
-1.62157957674935E-05,9.80541881290264E-06,0.703125,0,0.00887535063113605
-2.30158857448259E-05,1.51129534060601E-05,0.703125,0,0.00887535063113605
-1.90803075383883E-05,1.23413437904674E-05,0.703125,0,0.00887535063113605
-2.50726770900656E-05,1.2982236512471E-05,0.703125,0,0.00887535063113605
-2.14315441553481E-05,9.05733122635866E-06,0.703125,0,0.00887535063113605
-2.29394736379618E-05,9.55863743001828E-06,0.703125,0,0.00887535063113605
-2.06372715183534E-05,8.11534573585959E-06,0.703125,0,0.00887535063113605
-2.14061947190203E-05,8.97783138498198E-06,0.703125,0,0.00887535063113605
-2.07529774343129E-05,1.00362130979192E-05,0.703125,0,0.00887535063113605
-2.15663549170131E-05,9.98005361907417E-06,0.703125,0,0.00887535063113605
-2.39686651184456E-05,8.18970602267655E-06,0.703125,0,0.00887535063113605
-2.43911399593344E-05,5.11774078404414E-06,0.703125,0,0.00887535063113605
-2.39444943872513E-05,3.46341857948573E-06,0.703125,0,0.00887535063113605
-2.1887357434025E-05,2.5668125545053E-06,0.703125,0,0.00887535063113605
-2.31285685003968E-05,3.1608665267413E-06,0.703125,0,0.00887535063113605
-2.39788714679889E-05,2.30037653636828E-06,0.87890625,0,0.00887535063113605
-2.56151797657367E-05,3.00655824503338E-06,0.87890625,0,0.00887535063113605
-2.45072405959945E-05,3.57430917574675E-06,0.87890625,0,0.00887535063113605
-2.55334925896022E-05,5.62355626243516E-06,0.87890625,0,0.00887535063113605
-2.52877616730984E-05,7.098605237843E-06,0.87890625,0,0.00887535063113605
-2.55783270404208E-05,8.16930514702108E-06,0.87890625,0,0.00887535063113605
-2.41090674535371E-05,8.05242416390684E-06,0.87890625,0,0.00887535063113605
-2.4068580387393E-05,7.73991996538825E-06,0.87890625,0,0.00887535063113605
-2.4347838916583E-05,7.32451371732168E-06,0.87890625,0,0.00887535063113605
-2.57724241237156E-05,9.26002576306928E-06,0.87890625,0,0.00887535063113605
-2.60757879004814E-05,1.13422656795592E-05,0.87890625,0,0.00887535063113605
-2.56381954386598E-05,1.08577305582003E-05,0.87890625,0,0.00887535063113605
-2.04152020160109E-05,6.41014685243135E-06,0.87890625,0,0.00887535063113605
-2.95610534521984E-05,9.08650144992862E-06,0.87890625,0,0.00887535063113605
-2.37643344007665E-05,8.07721335149836E-06,0.87890625,0,0.00887535063113605
-2.94654510071268E-05,1.09291186163318E-05,0.87890625,0,0.00887535063113605
-2.43816775764572E-05,9.17175839276752E-06,0.87890625,0,0.00887535063113605
-2.6699779482442E-05,1.02626281659468E-05,0.87890625,0,0.00887535063113605
-2.44283382926369E-05,1.02039039120427E-05,0.87890625,0,0.00887535063113605
-2.53148336923914E-05,1.03951360870269E-05,0.87890625,0,0.00887535063113605
-2.4105298507493E-05,9.71530062088277E-06,0.87890625,0,0.00887535063113605
-2.39161927311216E-05,9.62358444667188E-06,0.87890625,0,0.00887535063113605
-2.37477834161837E-05,9.8301716207061E-06,0.87890625,0,0.00887535063113605
-2.24987361434614E-05,9.03574709809618E-06,0.87890625,0,0.00887535063113605
-2.31711746891961E-05,8.24817016109591E-06,0.87890625,0,0.00887535063113605
-2.14513966056984E-05,7.24875599189545E-06,0.87890625,0,0.00887535063113605
-2.20270776480902E-05,7.52410596760456E-06,0.87890625,0,0.00887535063113605
-2.15569252759451E-05,7.37001028028317E-06,0.87890625,0,0.00887535063113605
-2.3612343284185E-05,8.22983656689757E-06,0.87890625,0,0.00887535063113605
-2.28412609430961E-05,9.48403339862125E-06,0.87890625,0,0.00887535063113605
-2.36821761063766E-05,1.15466336865211E-05,0.87890625,0,0.00887535063113605
-2.28768403758295E-05,1.24009602586739E-05,0.87890625,0,0.00887535063113605
-2.43619870161638E-05,1.40221072797431E-05,0.87890625,0,0.00887535063113605
-2.43105914705666E-05,1.42742901516613E-05,0.87890625,0,0.00887535063113605
-2.43114500335651E-05,1.27243874885608E-05,0.87890625,0,0.00887535063113605
-2.43328449869296E-05,1.02697640613769E-05,0.87890625,0,0.00887535063113605
-2.60851284110686E-05,9.2124319053255E-06,0.87890625,0,0.00887535063113605
-2.62525554717286E-05,1.03795900940895E-05,0.87890625,0,0.00887535063113605
-2.53436010098085E-05,1.11670215119375E-05,0.87890625,0,0.00887535063113605
-2.13851890293881E-05,7.48255979488022E-06,0.87890625,0,0.00887535063113605
-3.01067611871986E-05,1.15720995381707E-05,0.87890625,0,0.00887535063113605
-2.3420458092005E-05,1.04499213193776E-05,0.87890625,0,0.00887535063113605
-3.10303985315841E-05,1.26666373034823E-05,0.87890625,0,0.00887535063113605
-2.71125045401277E-05,9.31126851355657E-06,0.87890625,0,0.00887535063113605
-2.85156966128852E-05,9.92691730061779E-06,0.87890625,0,0.00887535063113605
-2.55726954492275E-05,1.07754149212269E-05,0.87890625,0,0.00887535063113605
-2.77529507002328E-05,1.21429011414875E-05,0.87890625,0,0.00887535063113605
-2.9316955988179E-05,1.27346065710299E-05,0.87890625,0,0.00887535063113605
-3.09043389279395E-05,1.36914495669771E-05,0.87890625,0,0.00887535063113605
-3.04254936054349E-05,1.51912290675682E-05,0.87890625,0,0.00887535063113605
-2.78805000561988E-05,1.4900022506481E-05,0.87890625,0,0.00887535063113605
-2.74042740784353E-05,1.374549628963E-05,0.87890625,0,0.00887535063113605
-2.57211795542389E-05,1.21467019198462E-05,0.87890625,0,0.00887535063113605
-2.69707052211743E-05,1.12966245069401E-05,0.87890625,0,0.00887535063113605
-2.59045264101587E-05,9.24232517718337E-06,0.87890625,0,0.00887535063113605
-2.63914516835939E-05,8.83893517311662E-06,0.87890625,0,0.00887535063113605
-2.41093093791278E-05,9.03807995200623E-06,0.87890625,0,0.00887535063113605
-2.41091711359331E-05,9.49060631683096E-06,0.87890625,0,0.00887535063113605
-2.28115168283693E-05,9.76556930254446E-06,0.87890625,0,0.00887535063113605
-2.31096582865575E-05,1.13302630779799E-05,0.87890625,0,0.00887535063113605
-2.15871077671181E-05,1.23191966849845E-05,0.87890625,0,0.00887535063113605
-2.26886695600115E-05,1.30835414893227E-05,0.87890625,0,0.00887535063113605
-2.41047164308839E-05,1.23662930491264E-05,0.87890625,0,0.00887535063113605
-2.48008855123771E-05,1.18140496851993E-05,0.87890625,0,0.00887535063113605
-2.44986094912747E-05,1.17632907858933E-05,0.87890625,0,0.00887535063113605
-2.50599550781772E-05,1.03888132798602E-05,0.87890625,0,0.00887535063113605
-1.98875950445654E-05,7.34609193386859E-06,0.87890625,0,0.00887535063113605
-2.73233727057232E-05,9.00866234587738E-06,0.87890625,0,0.00887535063113605
-1.99527021322865E-05,4.84768315800466E-06,0.87890625,0,0.00887535063113605
-2.45192095462698E-05,7.61128421800095E-06,0.87890625,0,0.00887535063113605
-1.99191981664626E-05,8.03482998890104E-06,0.87890625,0,0.00887535063113605
-2.36218038480729E-05,1.15928269224241E-05,0.87890625,0,0.00887535063113605
-2.19734793063253E-05,1.21823941299226E-05,0.87890625,0,0.00887535063113605
-2.30947607633425E-05,1.14804452095996E-05,0.87890625,0,0.00887535063113605
-2.13192161027109E-05,9.57204520091182E-06,0.87890625,0,0.00887535063113605
-2.12571139854845E-05,8.74954730534228E-06,0.87890625,0,0.00887535063113605
-2.31547255680198E-05,8.47383489599451E-06,0.87890625,0,0.00887535063113605
-2.41194738919148E-05,8.4036519183428E-06,0.87890625,0,0.00887535063113605
-2.45832798100309E-05,9.08242054720176E-06,0.87890625,0,0.00887535063113605
-2.14572992263129E-05,8.97562404134078E-06,0.87890625,0,0.00887535063113605
-2.09839363378705E-05,1.0361924978497E-05,0.87890625,0,0.00887535063113605
-1.95124503079569E-05,1.11431590994471E-05,0.87890625,0,0.00887535063113605
-2.09155205084244E-05,1.18880398076726E-05,0.87890625,0,0.00887535063113605
-2.01062466658186E-05,1.04920518424478E-05,0.87890625,0,0.00887535063113605
-2.13779967452865E-05,9.35433035920141E-06,0.87890625,0,0.00887535063113605
-2.01528055185918E-05,8.82846870808862E-06,0.87890625,0,0.00887535063113605
-2.02021237782901E-05,1.03072279671323E-05,0.87890625,0,0.00887535063113605
-2.03266263270052E-05,1.15289412860875E-05,0.87890625,0,0.00887535063113605
-2.29416527872672E-05,1.24358866742114E-05,0.87890625,0,0.00887535063113605
-2.39853343373397E-05,1.18214620670187E-05,0.87890625,0,0.00887535063113605
-2.44169950747164E-05,9.88328611128964E-06,0.87890625,0,0.00887535063113605
-2.39651653828332E-05,6.79256436342257E-06,0.87890625,0,0.00887535063113605
-2.33897262660321E-05,5.73199804421165E-06,0.87890625,0,0.00887535063113605
-1.86712240974884E-05,5.59154568691156E-06,0.87890625,0,0.00887535063113605
-2.64924583461834E-05,8.18735588836716E-06,0.87890625,0,0.00887535063113605
-1.97185763681773E-05,6.31202510703588E-06,0.87890625,0,0.00887535063113605
-2.48643918894231E-05,6.65648076392245E-06,0.87890625,0,0.00887535063113605
-2.22420931095257E-05,5.36188417754602E-06,0.87890625,0,0.00887535063113605
-2.53425969276577E-05,8.83060511114309E-06,0.87890625,0,0.00887535063113605
-2.34248291235417E-05,1.00985425888211E-05,0.87890625,0,0.00887535063113605
-2.38567263295408E-05,1.00133402156644E-05,0.87890625,0,0.00887535063113605
-2.27133314183448E-05,9.35067146201618E-06,0.87890625,0,0.00887535063113605
-2.29494035011157E-05,8.70696021593176E-06,0.87890625,0,0.00887535063113605
-2.34156032092869E-05,8.65498532220954E-06,0.87890625,0,0.00887535063113605
-2.20542406168533E-05,1.00608685897896E-05,0.87890625,0,0.00887535063113605
-2.20239835471148E-05,1.36115613713628E-05,0.87890625,0,0.00887535063113605
-2.10518082894851E-05,1.5175377484411E-05,0.87890625,0,0.00887535063113605
-2.29032921197359E-05,1.47489472510642E-05,0.87890625,0,0.00887535063113605
-2.31083140533883E-05,1.31010301629431E-05,0.87890625,0,0.00887535063113605
-2.45849605562398E-05,1.38041823447566E-05,0.87890625,0,0.00887535063113605
-2.3218954083859E-05,1.45543135658954E-05,0.87890625,0,0.00887535063113605
-2.28321605391102E-05,1.4098367500992E-05,0.87890625,0,0.00887535063113605
-2.09167956199963E-05,1.29447025756235E-05,0.87890625,0,0.00887535063113605
-2.17098768189317E-05,1.36315702548018E-05,0.87890625,0,0.00887535063113605
-2.22038543142844E-05,1.4703086890222E-05,0.87890625,0,0.00887535063113605
-2.41714042203967E-05,1.48497629197664E-05,0.87890625,0,0.00887535063113605
-2.57204010267742E-05,1.51807644215296E-05,0.87890625,0,0.00887535063113605
-2.57234842138132E-05,1.73106182046467E-05,0.87890625,0,0.00887535063113605
-2.37493786698906E-05,1.90179180208361E-05,0.87890625,0,0.00887535063113605
-2.25168623728678E-05,1.75783497979864E-05,0.87890625,0,0.00887535063113605
-1.75706754816929E-05,1.10198998299893E-05,0.87890625,0,0.00887535063113605
-2.49567146966001E-05,1.33166158775566E-05,0.87890625,0,0.00887535063113605
-1.91584240383236E-05,9.51385482039768E-06,0.87890625,0,0.00887535063113605
-2.4959319489426E-05,1.55142770381644E-05,0.87890625,0,0.00887535063113605
-2.32534839597065E-05,1.32627037601196E-05,0.87890625,0,0.00887535063113605
-2.66460792772705E-05,1.43251099871122E-05,0.87890625,0,0.00887535063113605
-2.4441500499961E-05,1.12189081846736E-05,0.87890625,0,0.00887535063113605
-2.48746964643942E-05,1.02435324151884E-05,0.87890625,0,0.00887535063113605
-2.40157260122942E-05,9.87828661891399E-06,0.87890625,0,0.00887535063113605
-2.33734190260293E-05,1.07538344309432E-05,0.87890625,0,0.00887535063113605
-2.33594637393253E-05,1.15152570288046E-05,0.87890625,0,0.00887535063113605
-2.3677981516812E-05,1.11591816676082E-05,0.87890625,0,0.00887535063113605
-2.53789585258346E-05,1.16443861770676E-05,0.87890625,0,0.00887535063113605
-2.45419960265281E-05,1.0625157301547E-05,0.87890625,0,0.00887535063113605
-2.49883778451476E-05,1.08010344774812E-05,0.87890625,0,0.00887535063113605
-2.39621967921266E-05,9.77065974439029E-06,0.87890625,0,0.00887535063113605
-2.49219774559606E-05,1.06380630313652E-05,0.87890625,0,0.00887535063113605
-2.44188577198656E-05,1.12569696284481E-05,0.87890625,0,0.00887535063113605
-2.5716068194015E-05,1.32359427880147E-05,0.87890625,0,0.00887535063113605
-2.50996981776552E-05,1.3040198609815E-05,0.87890625,0,0.00887535063113605
-2.59288317465689E-05,1.32683308038395E-05,0.87890625,0,0.00887535063113605
-2.55101385846501E-05,1.22335995911271E-05,0.87890625,0,0.00887535063113605
-2.59577846009051E-05,1.16920864456915E-05,0.87890625,0,0.00887535063113605
-2.55305203609169E-05,1.06369225250091E-05,0.87890625,0,0.00887535063113605
-2.51470428338507E-05,1.05969347714563E-05,0.87890625,0,0.00887535063113605
-2.51353303610813E-05,1.16495566544472E-05,0.87890625,0,0.00887535063113605
-2.5919947802322E-05,1.35897489599301E-05,0.87890625,0,0.00887535063113605
-2.16465705307201E-05,1.32088853206369E-05,0.87890625,0,0.00887535063113605
-2.91896085400367E-05,1.88983194675529E-05,0.87890625,0,0.00887535063113605
-2.00245594896842E-05,1.37434735734132E-05,0.87890625,0,0.00887535063113605
-2.58112468145555E-05,1.52399979924667E-05,0.87890625,0,0.00887535063113605
-2.21688951569377E-05,1.08324020402506E-05,0.87890625,0,0.00887535063113605
-2.58610998571385E-05,1.15410039143171E-05,0.87890625,0,0.00887535063113605
-2.31687663472258E-05,7.81221297074808E-06,0.87890625,0,0.00887535063113605
-2.38918037211988E-05,5.3889125410933E-06,0.87890625,0,0.00887535063113605
-2.37439562624786E-05,3.59250225301366E-06,0.87890625,0,0.00887535063113605
-2.51387045864249E-05,3.94456492358586E-06,0.87890625,0,0.00887535063113605
-2.59464013652178E-05,6.01091460339376E-06,0.87890625,0,0.00887535063113605
-2.47781372308964E-05,8.80671086633811E-06,0.87890625,0,0.00887535063113605
-2.48798132815864E-05,1.14484573714435E-05,0.87890625,0,0.00887535063113605
-2.37777749134693E-05,9.72419638856081E-06,0.87890625,0,0.00887535063113605
-2.61019285971997E-05,7.70101269154111E-06,0.87890625,0,0.00887535063113605
-2.61133500316646E-05,5.2969076023146E-06,0.87890625,0,0.00887535063113605
-2.70687705778982E-05,5.88868761042249E-06,0.87890625,0,0.00887535063113605
-2.38457832892891E-05,5.98455153522082E-06,0.87890625,0,0.00887535063113605
-2.35013194469502E-05,6.42800523564802E-06,0.87890625,0,0.00887535063113605
-2.32570546359057E-05,4.46746116722352E-06,0.87890625,0,0.00887535063113605
-2.45477949647466E-05,5.31006617165986E-06,0.87890625,0,0.00887535063113605
-2.29374982154695E-05,7.0852415774425E-06,0.87890625,0,0.00887535063113605
-2.28421049541794E-05,8.51273671287345E-06,0.87890625,0,0.00887535063113605
-2.27981890930096E-05,9.29443012864795E-06,0.87890625,0,0.00887535063113605
-2.35711740970146E-05,1.15103175630793E-05,0.87890625,0,0.00887535063113605
-2.3165905076894E-05,1.24229645734886E-05,0.87890625,0,0.00887535063113605
-2.29606321227038E-05,1.01632585938205E-05,0.87890625,0,0.00887535063113605
-1.86754241440212E-05,6.15240878687473E-06,0.87890625,0,0.00887535063113605
-2.60935048572719E-05,1.02621206679032E-05,0.87890625,0,0.00887535063113605
-2.00363738258602E-05,1.09742413769709E-05,0.87890625,0,0.00887535063113605
-2.57304945989745E-05,1.35427280838485E-05,0.87890625,0,0.00887535063113605
-2.26476859097602E-05,1.33261237351689E-05,0.87890625,0,0.00887535063113605
-2.67193681793287E-05,1.61119951371802E-05,0.87890625,0,0.00887535063113605
-2.64164063992212E-05,1.58942148118513E-05,0.87890625,0,0.00887535063113605
-2.77608396572759E-05,1.45842195706791E-05,0.87890625,0,0.00887535063113605
-2.55471804848639E-05,1.20219392556464E-05,0.87890625,0,0.00887535063113605
-2.37201275012922E-05,9.72111774899531E-06,0.87890625,0,0.00887535063113605
-2.32052207138622E-05,7.81561993790092E-06,0.87890625,0,0.00887535063113605
-2.32194579439238E-05,7.40096356821596E-06,0.87890625,0,0.00887535063113605
-2.50758421316277E-05,9.45585543377092E-06,0.87890625,0,0.00887535063113605
-2.49575041380012E-05,1.03276661320706E-05,0.87890625,0,0.00887535063113605
-2.60408069152618E-05,1.03908178061829E-05,0.87890625,0,0.00887535063113605
-2.41423804254737E-05,9.98068026092369E-06,0.87890625,0,0.00887535063113605
-2.46398813033011E-05,1.09301736301859E-05,0.87890625,0,0.00887535063113605
-2.34773433476221E-05,1.04799373730202E-05,0.87890625,0,0.00887535063113605
-2.33729570027208E-05,8.67767721501878E-06,0.87890625,0,0.00887535063113605
-2.18617569771595E-05,5.84723284191568E-06,0.87890625,0,0.00887535063113605
-2.32898037211271E-05,4.65375796920853E-06,0.87890625,0,0.00887535063113605
-2.29970301006688E-05,4.02143996325322E-06,0.87890625,0,0.00887535063113605
-2.29698543989798E-05,4.84303336634184E-06,0.87890625,0,0.00887535063113605
-2.29338074859697E-05,5.53909330847091E-06,0.87890625,0,0.00887535063113605
-2.3301734472625E-05,6.53912593406858E-06,0.87890625,0,0.00887535063113605
-2.28951212193351E-05,8.49273419589736E-06,0.87890625,0,0.00887535063113605
-2.2435106075136E-05,9.64918035606388E-06,0.87890625,0,0.00887535063113605
-1.826521656767E-05,6.93305719323689E-06,0.87890625,0,0.00887535063113605
-2.68298208538909E-05,1.0144980478799E-05,0.87890625,0,0.00887535063113605
-2.08679666684475E-05,8.39550102682551E-06,0.87890625,0,0.00887535063113605
-2.42790574702667E-05,1.0310724064766E-05,0.87890625,0,0.00887535063113605
-2.02974897547392E-05,9.07848152564839E-06,0.87890625,0,0.00887535063113605
-2.37019103224156E-05,1.11044673758443E-05,0.87890625,0,0.00887535063113605
-2.25884468818549E-05,1.06337802208145E-05,0.87890625,0,0.00887535063113605
-2.35809638979845E-05,1.1266905858065E-05,0.87890625,0,0.00887535063113605
-2.21797745325603E-05,1.15968714453629E-05,0.87890625,0,0.00887535063113605
-2.11357273656176E-05,1.19094647743623E-05,0.87890625,0,0.00887535063113605
-2.09827867365675E-05,1.14741769721149E-05,0.87890625,0,0.00887535063113605
-2.0509323803708E-05,1.07633404695662E-05,0.87890625,0,0.00887535063113605
-2.22200906137004E-05,1.18439747893717E-05,0.87890625,0,0.00887535063113605
-2.23397710215067E-05,1.32482146000257E-05,0.87890625,0,0.00887535063113605
-2.37777876463952E-05,1.44485629789415E-05,0.87890625,0,0.00887535063113605
-2.20531419472536E-05,1.28784749904298E-05,0.87890625,0,0.00887535063113605
-2.1859126718482E-05,1.20905597214005E-05,0.87890625,0,0.00887535063113605
-2.07662997127045E-05,1.1757460924855E-05,0.87890625,0,0.00887535063113605
-2.2501704734168E-05,1.18338839456555E-05,0.87890625,0,0.00887535063113605
-2.23935385292862E-05,1.10535074782092E-05,0.87890625,0,0.00887535063113605
-2.25211588258389E-05,1.13966489152517E-05,0.87890625,0,0.00887535063113605
-2.1781268515042E-05,1.19030464702519E-05,0.87890625,0,0.00887535063113605
-2.27813670790056E-05,1.28637939269538E-05,0.87890625,0,0.00887535063113605
-2.30259229283547E-05,1.23947802421753E-05,0.87890625,0,0.00887535063113605
-2.27615710173268E-05,1.2923109352414E-05,0.87890625,0,0.00887535063113605
-2.26516640395857E-05,1.44088580782409E-05,0.87890625,0,0.00887535063113605
-2.32238198805135E-05,1.35539403345319E-05,0.87890625,0,0.00887535063113605
-1.97471053979825E-05,8.57295890455134E-06,0.87890625,0,0.00887535063113605
-2.88428673229646E-05,1.08816766442033E-05,0.87890625,0,0.00887535063113605
-2.27900272875559E-05,7.50375374991563E-06,0.87890625,0,0.00887535063113605
-2.78899660770549E-05,1.18417974590557E-05,0.87890625,0,0.00887535063113605
-2.42673286265926E-05,1.05894923763117E-05,0.87890625,0,0.00887535063113605
-2.79951073025586E-05,1.00299175755936E-05,0.87890625,0,0.00887535063113605
-2.68261428573169E-05,7.26895677871653E-06,0.87890625,0,0.00887535063113605
-2.76916689472273E-05,8.22802030597813E-06,0.87890625,0,0.00887535063113605
-2.56954317592317E-05,9.72736143012298E-06,0.87890625,0,0.00887535063113605
-2.39498112932779E-05,1.17609806693508E-05,0.87890625,0,0.00887535063113605
-2.35662701015826E-05,1.33529847516911E-05,0.87890625,0,0.00887535063113605
-2.30537152674515E-05,1.25951928566792E-05,0.87890625,0,0.00887535063113605
-2.43237536778906E-05,1.00719707916141E-05,0.87890625,0,0.00887535063113605
-2.39833680097945E-05,6.37494667898864E-06,0.87890625,0,0.00887535063113605
-2.49275180976838E-05,6.32552882962045E-06,0.87890625,0,0.00887535063113605
-2.35615698329639E-05,6.59395709590171E-06,0.87890625,0,0.00887535063113605
-2.48730975727085E-05,7.03991781847435E-06,0.87890625,0,0.00887535063113605
-2.44084440055303E-05,6.62112051941222E-06,0.87890625,0,0.00887535063113605
-2.52990921580931E-05,8.28653082862729E-06,0.87890625,0,0.00887535063113605
-2.41297948377905E-05,9.93444155028556E-06,0.87890625,0,0.00887535063113605
-2.44955936068436E-05,1.19529640869587E-05,0.87890625,0,0.00887535063113605
-2.32179554586764E-05,1.22163046398782E-05,0.87890625,0,0.00887535063113605
-2.21765858441358E-05,1.21589328045957E-05,0.87890625,0,0.00887535063113605
-2.02167120733066E-05,1.23231911857147E-05,0.87890625,0,0.00887535063113605
-1.9746097677853E-05,1.21712928375928E-05,0.87890625,0,0.00887535063113605
-2.14618648897158E-05,1.2054596481903E-05,0.87890625,0,0.00887535063113605
-2.41487377934391E-05,1.25352908071363E-05,0.87890625,0,0.00887535063113605
-2.05666237889091E-05,9.13179792405572E-06,0.87890625,0,0.00887535063113605
-2.88170431304025E-05,1.22989295050502E-05,0.87890625,0,0.00887535063113605
-2.18345994653646E-05,8.80898824107135E-06,0.87890625,0,0.00887535063113605
-2.64781483565457E-05,1.111231813411E-05,0.87890625,0,0.00887535063113605
-2.07667762879282E-05,9.26590473682154E-06,0.87890625,0,0.00887535063113605
-2.3372660507448E-05,1.14480317279231E-05,0.87890625,0,0.00887535063113605
-2.15599011426093E-05,9.01663406693842E-06,0.87890625,0,0.00887535063113605
-2.25778512685793E-05,6.66710366203915E-06,0.87890625,0,0.00887535063113605
-2.15765921893762E-05,5.16746649736888E-06,0.87890625,0,0.00887535063113605
-2.24588911805768E-05,5.80496907787165E-06,0.87890625,0,0.00887535063113605
-2.24553859879961E-05,7.9351357271662E-06,0.87890625,0,0.00887535063113605
-2.0511379261734E-05,9.53675862547243E-06,0.87890625,0,0.00887535063113605
-2.04833213501843E-05,1.14138802018715E-05,0.87890625,0,0.00887535063113605
-1.91746476048138E-05,1.16661549327546E-05,0.87890625,0,0.00887535063113605
-2.04977422981756E-05,1.13214073280687E-05,0.87890625,0,0.00887535063113605
-2.06635540962452E-05,8.62135220813798E-06,0.87890625,0,0.00887535063113605
-2.39943765336648E-05,7.39934921512031E-06,0.87890625,0,0.00887535063113605
-2.37013191508595E-05,7.13813551556086E-06,0.87890625,0,0.00887535063113605
-2.42203386733308E-05,8.63267541717505E-06,0.87890625,0,0.00887535063113605
-2.35066363529768E-05,7.77224977355218E-06,0.87890625,0,0.00887535063113605
-2.53731086559128E-05,6.55124631521176E-06,0.87890625,0,0.00887535063113605
-2.51045075856382E-05,6.75065575705958E-06,0.87890625,0,0.00887535063113605
-2.57776155194733E-05,9.25657695916016E-06,0.87890625,0,0.00887535063113605
-2.55213853961322E-05,1.08652520793839E-05,0.87890625,0,0.00887535063113605
-2.3690494344919E-05,1.15551174530992E-05,0.87890625,0,0.00887535063113605
-2.0644860342145E-05,9.97257484414149E-06,0.87890625,0,0.00887535063113605
-2.10366597457323E-05,8.18388889456401E-06,0.87890625,0,0.00887535063113605
