biceps_emg, triceps_emg, subject_position, position_estimate, brace_position
-1.68984424817609E-05,1.00928718893556E-05,0.703125,0,0
-2.64788941422012E-05,1.39060393848922E-05,0.703125,0,0
-2.44607144850306E-05,1.02356016213889E-05,0.703125,0,0
-2.92477125185542E-05,1.1346785868227E-05,0.703125,0,0
-2.46199251705548E-05,7.05506226950092E-06,0.703125,0,0
-2.57286719715921E-05,1.07168261820334E-05,0.703125,0,0
-2.37242620642064E-05,1.24287998914951E-05,0.703125,0,0
-2.6250754672219E-05,1.1437407010817E-05,0.703125,0,0
-2.77995659416774E-05,1.16460505523719E-05,0.703125,0,0
-2.83104218397057E-05,1.46104393934365E-05,0.703125,0,0
-2.81861757684965E-05,1.57050944835646E-05,0.703125,0,0
-2.84843972622184E-05,1.55836678459309E-05,0.703125,0,0
-3.04515961033758E-05,1.58989460032899E-05,0.703125,0,0
-3.04312652588123E-05,1.36321159516228E-05,0.703125,0,0
-3.12365555146243E-05,1.19118767543114E-05,0.703125,0,0
-2.99456423817901E-05,9.33136107050814E-06,0.703125,0,0
-3.09163697238546E-05,7.13860345058492E-06,0.703125,0,0
-2.99964667647146E-05,4.16607963416027E-06,0.703125,0,0
-2.96029465971515E-05,4.42160353486543E-06,0.703125,0,0
-2.71784301730804E-05,6.14402324572438E-06,0.703125,0,0
-2.70355012617074E-05,1.20155264085042E-05,0.703125,0,0
-2.72723427769961E-05,2.02722167159664E-05,0.703125,0,0
-2.82953660644125E-05,2.74655012617586E-05,0.703125,0,0
-2.80101266980637E-05,2.95124482363462E-05,0.703125,0,0
-2.72140841843793E-05,2.8944838049938E-05,0.703125,0,0
-2.56039747910108E-05,2.91476280835923E-05,0.703125,0,0
-2.48068299697479E-05,2.95301651931368E-05,0.703125,0,0
-2.00249414774589E-05,2.1895844838582E-05,0.703125,0,0
-2.89609888568521E-05,2.92079002974788E-05,0.703125,0,0
-2.19500598177547E-05,1.83272914000554E-05,0.703125,0,0
-2.64554073510226E-05,1.93095547729172E-05,0.703125,0,0
-2.19374542211881E-05,1.07298756120144E-05,0.703125,0,0
-2.50838074862259E-05,1.6179183148779E-05,0.703125,0,0
-2.57489882642403E-05,1.67811376741156E-05,0.703125,0,0
-2.83739555015927E-05,1.78645204869099E-05,0.703125,0,0
-2.68564908765256E-05,1.58586790348636E-05,0.703125,0,0
-2.53381531365449E-05,1.37058450491168E-05,0.703125,0,0
-2.46174022322521E-05,1.18957759696059E-05,0.703125,0,0
-2.39848541241372E-05,1.16915998660261E-05,0.703125,0,0
-2.48715587076731E-05,1.35081190819619E-05,0.703125,0,0
-2.41255493165227E-05,1.32198156279628E-05,0.703125,0,0
-2.64440968749113E-05,1.63559579959838E-05,0.703125,0,0
-2.75140646408545E-05,1.6374624465243E-05,0.703125,0,0
-2.99587336485274E-05,1.65099936566548E-05,0.703125,0,0
-2.89426916424418E-05,1.33526764329872E-05,0.703125,0,0
-2.90026709990343E-05,1.31591305034817E-05,0.703125,0,0
-2.74177928076824E-05,1.098523807741E-05,0.703125,0,0
-2.68922358372947E-05,1.04651253423071E-05,0.703125,0,0
-2.42806054302491E-05,8.82313725014683E-06,0.703125,0,0
-2.39081418840215E-05,9.52178197621834E-06,0.703125,0,0
-2.40410900005372E-05,9.93375215330161E-06,0.703125,0,0
-2.35052502830513E-05,1.19175365398405E-05,0.703125,0,0
-2.24919003812829E-05,1.33745434141019E-05,0.703125,0,0
-2.30444529734086E-05,1.37239585455973E-05,0.703125,0,0
-1.90711361938156E-05,1.10641694845981E-05,0.703125,0,0
-2.77396757155657E-05,1.56384630827233E-05,0.703125,0,0
-2.1105875930516E-05,1.14759131975006E-05,0.703125,0,0
-2.4230057533714E-05,1.33529092636309E-05,0.703125,0,0
-1.82959956873674E-05,9.08827223611297E-06,0.703125,0,0
-2.06381573661929E-05,9.76060709945159E-06,0.703125,0,0
-2.01690909307217E-05,8.43095222080592E-06,0.703125,0,0
-2.26423180720303E-05,7.71333452576073E-06,0.703125,0,0
-2.24798368435586E-05,9.06706281966763E-06,0.703125,0,0
-2.14426618185826E-05,1.04325672509731E-05,0.703125,0,0
-2.08757755899569E-05,1.01538298622472E-05,0.703125,0,0
-1.99441019503865E-05,1.05132030512323E-05,0.703125,0,0
-2.05941450985847E-05,1.1491069017211E-05,0.703125,0,0
-1.95677421288565E-05,9.35633215704001E-06,0.703125,0,0
-2.1356290744734E-05,8.59006013342878E-06,0.703125,0,0
-2.18819441215601E-05,7.50363005863619E-06,0.703125,0,0
-2.33998725889251E-05,7.58919395593693E-06,0.703125,0,0
-2.20485071622534E-05,6.63142100165715E-06,0.703125,0,0
-2.29630331887165E-05,7.12831706550787E-06,0.703125,0,0
-2.2856171199237E-05,7.57583393351524E-06,0.703125,0,0
-2.30693822231842E-05,8.86396901478292E-06,0.703125,0,0
-2.13176226679934E-05,9.67398773354944E-06,0.703125,0,0
-2.10943489946658E-05,1.09315751615213E-05,0.703125,0,0
-2.2015785361873E-05,1.03197917269426E-05,0.703125,0,0
-2.40178851527162E-05,8.53277742862701E-06,0.703125,0,0
-2.54833776125452E-05,6.99932297720807E-06,0.703125,0,0
-2.65408816630952E-05,6.02136151428567E-06,0.703125,0,0
-1.97426124941558E-05,6.14571990809054E-06,0.703125,0,0
-2.76669234153815E-05,1.06614861579146E-05,0.703125,0,0
-2.15682885027491E-05,1.16702540253755E-05,0.703125,0,0
-2.74295434792293E-05,1.27245093608508E-05,0.703125,0,0
-2.20162492041709E-05,8.29144573799567E-06,0.703125,0,0
-2.30213463510154E-05,8.27721760288114E-06,0.703125,0,0
-1.95906377484789E-05,9.13039366423618E-06,0.703125,0,0
-2.03042600332992E-05,1.11515928438166E-05,0.703125,0,0
-1.96274650079431E-05,1.27958537632367E-05,0.703125,0,0
-2.08633591682883E-05,1.2005606549792E-05,0.703125,0,0
-2.23581664613448E-05,1.05845838334062E-05,0.703125,0,0
-2.17859578697244E-05,1.08708118204959E-05,0.703125,0,0
-2.22107191802934E-05,1.13720971057774E-05,0.703125,0,0
-2.11265032703523E-05,9.1274278020137E-06,0.703125,0,0
-2.25365129153943E-05,8.49062325869454E-06,0.703125,0,0
-2.21556110773236E-05,9.51210131461266E-06,0.703125,0,0
-2.41978887061123E-05,9.93172398011666E-06,0.703125,0,0
-2.43004014919279E-05,7.91358525020769E-06,0.703125,0,0
-2.55930135608651E-05,7.47510193832568E-06,0.703125,0,0
-2.41920533881057E-05,7.40889299777336E-06,0.703125,0,0
-2.51030760409776E-05,6.03719672653824E-06,0.703125,0,0
-2.52573809120804E-05,3.32319132212433E-06,0.703125,0,0
-2.68236835836433E-05,1.30331352465873E-06,0.703125,0,0
-2.75555921689374E-05,8.80781669820863E-07,0.703125,0,0
-2.72841480182251E-05,3.13784858008148E-06,0.703125,0,0
-2.55836112046381E-05,5.5199529924721E-06,0.703125,0,0
-2.51136680162745E-05,5.10082418259117E-06,0.703125,0,0
-2.04310163098853E-05,4.64693130197702E-06,0.703125,0,0
-2.86235044768546E-05,8.00688667368377E-06,0.703125,0,0
-2.09273966902401E-05,7.13395547791151E-06,0.703125,0,0
-2.60142296610866E-05,5.68324412597576E-06,0.703125,0,0
-2.1586836737697E-05,4.19983098254306E-06,0.703125,0,0
-2.47821917582769E-05,8.87953592609847E-06,0.703125,0,0
-2.38797219935805E-05,9.53937615122413E-06,0.703125,0,0
-2.4855935407686E-05,6.51245090921293E-06,0.703125,0,0
-2.18527002289193E-05,7.02492525306297E-06,0.703125,0,0
-2.00961476366501E-05,1.06868483271683E-05,0.703125,0,0
-2.13172388612293E-05,1.29700083562057E-05,0.703125,0,0
-2.24231353058713E-05,1.3059932825854E-05,0.703125,0,0
-2.47592561208876E-05,1.37565830300446E-05,0.703125,0,0
-2.44764742092229E-05,1.46943493746221E-05,0.703125,0,0
-2.53667149081593E-05,1.61942825798178E-05,0.703125,0,0
-2.39664022956276E-05,1.59683040692471E-05,0.703125,0,0
-2.51925121119712E-05,1.44182831718354E-05,0.703125,0,0
-2.43993672484066E-05,1.26897366499179E-05,0.703125,0,0
-2.47875159402611E-05,1.34511392388958E-05,0.703125,0,0
-2.2772976080887E-05,1.472488293075E-05,0.703125,0,0
-2.30676341743674E-05,1.46667534863809E-05,0.703125,0,0
-2.41276629822096E-05,1.41355621963157E-05,0.703125,0,0
-2.67990453721723E-05,1.39933099490008E-05,0.703125,0,0
-2.75952352239983E-05,1.38045506901108E-05,0.703125,0,0
-2.84113793895813E-05,1.44861542139552E-05,0.703125,0,0
-2.71164462901652E-05,1.56872647494311E-05,0.703125,0,0
-2.45212886511581E-05,1.64346438396024E-05,0.703125,0,0
-1.97578046936542E-05,1.15479433588916E-05,0.703125,0,0
-2.93581033474766E-05,1.39764197228942E-05,0.703125,0,0
-2.35640873142984E-05,9.51584843278397E-06,0.703125,0,0
-2.75071797659621E-05,1.26345521493931E-05,0.703125,0,0
-2.18810291698901E-05,7.12755445420044E-06,0.703125,0,0
-2.40291210502619E-05,1.14253207357251E-05,0.703125,0,0
-2.31879275816027E-05,1.38282866828376E-05,0.703125,0,0
-2.47842453973135E-05,1.55678262672154E-05,0.703125,0,0
-2.3494421839132E-05,1.55581565195462E-05,0.703125,0,0
-2.22358903556596E-05,1.44683208418428E-05,0.703125,0,0
-2.18598379433388E-05,1.17578783829231E-05,0.703125,0,0
-2.22892376768868E-05,1.13750484160846E-05,0.703125,0,0
-2.50268676609267E-05,1.39665198730654E-05,0.703125,0,0
-2.54678288911236E-05,1.22635410662042E-05,0.703125,0,0
-2.66006463789381E-05,9.59195858740713E-06,0.703125,0,0
-2.42133664869471E-05,6.13903466728516E-06,0.703125,0,0
-2.2963062292547E-05,5.39695383849903E-06,0.703125,0,0
-2.1062152882223E-05,4.18107993027661E-06,0.703125,0,0
-2.30159585044021E-05,5.30471970705548E-06,0.703125,0,0
-2.30724890570855E-05,5.72669250686886E-06,0.703125,0,0
-2.28408989642048E-05,5.81490712647792E-06,0.703125,0,0
-2.09599384106696E-05,3.70513089364977E-06,0.703125,0,0
-2.17561591853155E-05,3.67832149095193E-06,0.703125,0,0
-2.19910743908258E-05,3.7530501231231E-06,0.703125,0,0
-2.14251613215311E-05,3.81819381800597E-06,0.703125,0,0
-2.09625632123789E-05,2.99820362670289E-06,0.703125,0,0
-2.11064834729768E-05,4.78717993246391E-06,0.703125,0,0
-1.79861526703462E-05,6.41628457742627E-06,0.703125,0,0
-2.72386769211153E-05,8.15644852991682E-06,0.703125,0,0
-2.17113993130624E-05,1.56501494075201E-06,0.703125,0,0
-2.46958952629939E-05,-3.81923382519744E-06,0.703125,0,0
-2.05325359274866E-05,-7.67616711527808E-06,0.703125,0,0
-2.29277247854043E-05,-2.11292149288056E-06,0.703125,0,0
-2.1462154109031E-05,4.86122780785081E-06,0.703125,0,0
-2.22107955778483E-05,1.12881662062136E-05,0.703125,0,0
-2.19799348997185E-05,1.52813372551464E-05,0.703125,0,0
-2.34939834626857E-05,1.66853715199977E-05,0.703125,0,0
-2.55999893852277E-05,1.51277163240593E-05,0.703125,0,0
-2.62314970314037E-05,1.50596224557376E-05,0.703125,0,0
-2.65272738033673E-05,1.76566445588833E-05,0.703125,0,0
-2.48779015237233E-05,1.94963286048733E-05,0.703125,0,0
-2.54628921538824E-05,2.01582843146753E-05,0.703125,0,0
-2.43103277171031E-05,1.65854380611563E-05,0.703125,0,0
-2.45823575824033E-05,1.13993028207915E-05,0.703125,0,0
-2.31640060519567E-05,8.09202992968494E-06,0.703125,0,0
-2.40361696342006E-05,1.13361484181951E-05,0.703125,0,0
-2.43633930949727E-05,1.69893228303408E-05,0.703125,0,0
-2.60781980614411E-05,2.11127844522707E-05,0.703125,0,0
-2.6079622330144E-05,2.03589279408334E-05,0.703125,0,0
-2.64354130194988E-05,1.64371449500322E-05,0.703125,0,0
-2.53060643444769E-05,1.22928313430748E-05,0.703125,0,0
-2.42859841819154E-05,1.11789831862552E-05,0.703125,0,0
-2.33143146033399E-05,1.06117040559184E-05,0.703125,0,0
-2.30079494940583E-05,9.33838782657404E-06,0.703125,0,0
-1.89328602573369E-05,8.99633960216306E-06,0.703125,0,0
-2.66262450168142E-05,1.59164392243838E-05,0.703125,0,0
-2.02558057935676E-05,1.6225547369686E-05,0.703125,0,0
-2.6975914806826E-05,1.73137177625904E-05,0.703125,0,0
-2.49712829827331E-05,1.42687895277049E-05,0.703125,0,0
-2.72157540166518E-05,1.73946027643979E-05,0.703125,0,0
-2.29232355195563E-05,1.82218554982683E-05,0.703125,0,0
-2.10038469958818E-05,1.77662877831608E-05,0.703125,0,0
-1.91465369425714E-05,1.7469779777457E-05,0.703125,0,0
-2.02918981813127E-05,1.5574576536892E-05,0.703125,0,0
-2.22698436118662E-05,1.21779585242621E-05,0.703125,0,0
-2.28160424740054E-05,1.22287947306177E-05,0.703125,0,0
-2.42367605096661E-05,1.52347129187547E-05,0.703125,0,0
-2.36820615100442E-05,1.47381433635019E-05,0.703125,0,0
-2.4356259018532E-05,1.44336372613907E-05,0.703125,0,0
-2.25910207518609E-05,1.56221994984662E-05,0.703125,0,0
-2.29455690714531E-05,1.72373620443977E-05,0.703125,0,0
-2.18498971662484E-05,1.66422069014516E-05,0.703125,0,0
-2.38372649619123E-05,1.7160640709335E-05,0.703125,0,0
-2.46831605181796E-05,1.66445643117186E-05,0.703125,0,0
-2.60040160355857E-05,1.59478640853195E-05,0.703125,0,0
-2.42834667005809E-05,1.52247766891378E-05,0.703125,0,0
-2.31664125749376E-05,1.51574795381748E-05,0.703125,0,0
-2.24745945160976E-05,1.41894879561733E-05,0.703125,0,0
-2.34518556680996E-05,1.27312014228664E-05,0.703125,0,0
-2.49634504143614E-05,1.13819814941962E-05,0.703125,0,0
-2.5162802558043E-05,1.0973984899465E-05,0.703125,0,0
-1.86576617124956E-05,8.56888073030859E-06,0.703125,0,0
-2.50599259743467E-05,1.25958194985287E-05,0.703125,0,0
-1.79846356331836E-05,1.14986460175714E-05,0.703125,0,0
-2.44033035414759E-05,1.45998783409595E-05,0.703125,0,0
-2.26675892918138E-05,1.05478429759387E-05,0.703125,0,0
-2.68075564235915E-05,9.82764140644576E-06,0.703125,0,0
-2.37729655054864E-05,7.04567719367333E-06,0.703125,0,0
-2.33491209655767E-05,5.76795673623565E-06,0.703125,0,0
-2.19355770241236E-05,5.84930285185692E-06,0.703125,0,0
-2.275225961057E-05,5.73900933886762E-06,0.703125,0,0
-2.4047430997598E-05,5.58573219677783E-06,0.703125,0,0
-2.29584729822818E-05,7.07782555764425E-06,0.703125,0,0
-2.21352056541946E-05,8.21077173895901E-06,0.703125,0,0
-1.89681632036809E-05,7.17582634024438E-06,0.703125,0,0
-1.90256650967058E-05,8.26568975753617E-06,0.703125,0,0
-1.99604219233152E-05,9.3443732112064E-06,0.703125,0,0
-2.42290789174149E-05,1.13285314000677E-05,0.703125,0,0
-2.38270004047081E-05,1.18301841212087E-05,0.703125,0,0
-2.31164176511811E-05,1.07459190985537E-05,0.703125,0,0
-2.1096797354403E-05,6.15322824160103E-06,0.703125,0,0
-2.21213776967488E-05,2.84498969449487E-06,0.703125,0,0
-2.3610165953869E-05,1.66189647643478E-06,0.703125,0,0
-2.62574521912029E-05,2.92528216050414E-06,0.703125,0,0
-2.65636153926607E-05,3.64653305950924E-06,0.703125,0,0
-2.59691150858998E-05,2.61105742538348E-06,0.703125,0,0
-2.44806760747451E-05,1.25569954434468E-06,0.703125,0,0
-2.3436441551894E-05,1.68820088219945E-06,0.703125,0,0
-1.86709912668448E-05,3.15289753416437E-06,0.703125,0,0
-2.87299699266441E-05,4.2956262404914E-06,0.703125,0,0
-2.5364270186401E-05,5.69003077544039E-07,0.703125,0,0
-2.99059283861425E-05,-2.58631257565867E-06,0.703125,0,0
-2.54791721090442E-05,-4.55353711004136E-06,0.703125,0,0
-2.79662381217349E-05,-2.05231503969117E-06,0.703125,0,0
-2.50410648732213E-05,2.18645755012403E-06,0.703125,0,0
-2.47937168751378E-05,5.16562340635573E-06,0.703125,0,0
-2.35383668041322E-05,7.06246282788925E-06,0.703125,0,0
-2.40916015172843E-05,7.94059997133445E-06,0.703125,0,0
-2.39640266954666E-05,7.87088083598064E-06,0.703125,0,0
-2.29304714594036E-05,7.88058423495386E-06,0.703125,0,0
-2.49707863986259E-05,7.30973670215462E-06,0.703125,0,0
-2.47929001488956E-05,6.64550998408231E-06,0.703125,0,0
-2.50130524364067E-05,7.71693794376915E-06,0.703125,0,0
-2.29332799790427E-05,9.4038259703666E-06,0.703125,0,0
-2.41047346207779E-05,1.09393286038539E-05,0.703125,0,0
-2.46949421125464E-05,1.17010058602318E-05,0.703125,0,0
-2.6361833079136E-05,1.27866178445402E-05,0.703125,0,0
-2.49746972258436E-05,1.39316380227683E-05,0.703125,0,0
-2.54596743616275E-05,1.39187386594131E-05,0.703125,0,0
-2.56079219980165E-05,1.25667129395879E-05,0.703125,0,0
-2.61497025348945E-05,1.2306273674767E-05,0.703125,0,0
-2.44653292611474E-05,1.26298973555095E-05,0.703125,0,0
-2.27144264499657E-05,1.30743073896156E-05,0.703125,0,0
-2.24591858568601E-05,1.19921542136581E-05,0.703125,0,0
-2.41148100030841E-05,9.17102624953259E-06,0.703125,0,0
-2.07003122341121E-05,4.75235810881713E-06,0.703125,0,0
-2.86183367279591E-05,4.1561702346371E-06,0.703125,0,0
-2.02684677788056E-05,6.98814574207063E-07,0.703125,0,0
-2.4881272111088E-05,4.07823927162099E-06,0.703125,0,0
-2.09676181839313E-05,6.74667171551846E-06,0.703125,0,0
-2.52440731856041E-05,1.28417614178034E-05,0.703125,0,0
-2.48347314482089E-05,1.38839923238265E-05,0.703125,0,0
-2.74282647296786E-05,1.26963132061064E-05,0.703125,0,0
-2.67112773144618E-05,1.26356881082756E-05,0.703125,0,0
-2.64236878138036E-05,1.25793103507021E-05,0.703125,0,0
-2.63505116890883E-05,1.08564436231973E-05,0.703125,0,0
-2.51963283517398E-05,1.00587258202722E-05,0.703125,0,0
-2.5538891350152E-05,1.02328058346757E-05,0.703125,0,0
-2.39755590882851E-05,9.37065215111943E-06,0.703125,0,0
-2.49254662776366E-05,9.92766490526265E-06,0.703125,0,0
-2.34470098803286E-05,1.04904938780237E-05,0.703125,0,0
-2.35952738876222E-05,1.05373519545537E-05,0.703125,0,0
-2.12052054848755E-05,8.73797216627281E-06,0.703125,0,0
-2.17998658627039E-05,8.60670661495533E-06,0.703125,0,0
-2.19157664105296E-05,1.0412805750093E-05,0.703125,0,0
-2.37386175285792E-05,1.32184695758042E-05,0.703125,0,0
-2.32413549383637E-05,1.30812659335788E-05,0.703125,0,0
-2.34529870795086E-05,1.22626606753329E-05,0.703125,0,0
-2.36571177083533E-05,1.24081789181218E-05,0.703125,0,0
-2.41223224293208E-05,1.24948064694763E-05,0.703125,0,0
-2.27016316785011E-05,1.3263949767861E-05,0.703125,0,0
-2.24233226617798E-05,1.71145038621034E-05,0.703125,0,0
-1.94965778064216E-05,1.52232778418693E-05,0.703125,0,0
-2.72486649919301E-05,2.11736296478193E-05,0.703125,0,0
-1.90303289855365E-05,1.66151821758831E-05,0.703125,0,0
-2.36304658756126E-05,2.13074799830792E-05,0.703125,0,0
-2.16889748116955E-05,1.68650440173224E-05,0.703125,0,0
-2.53038797382033E-05,2.11333790502977E-05,0.703125,0,0
-2.24199848162243E-05,2.07797929761E-05,0.703125,0,0
-2.32990914810216E-05,1.90468144865008E-05,0.703125,0,0
-2.32108959608013E-05,1.64301891345531E-05,0.703125,0,0
-2.24639661610127E-05,1.44644500323921E-05,0.703125,0,0
-2.2226719011087E-05,1.27238772620331E-05,0.703125,0,0
-2.21148238779278E-05,1.1269998140051E-05,0.703125,0,0
-2.42091773543507E-05,9.82443361863261E-06,0.703125,0,0
-2.43148679146543E-05,3.78779736820434E-06,0.703125,0,0
-2.48694650508696E-05,1.25274982565315E-06,0.703125,0,0
-2.23701263166731E-05,1.96473592950497E-06,0.703125,0,0
-2.26665033551399E-05,5.91342541156337E-06,0.703125,0,0
-2.21954342123354E-05,7.30261444914504E-06,0.703125,0,0
-2.35223615163704E-05,9.14631345949601E-06,0.703125,0,0
-2.26548345381161E-05,9.38370340008987E-06,0.703125,0,0
-2.35295792663237E-05,1.02543808679911E-05,0.703125,0,0
-2.3824597519706E-05,9.27265318750869E-06,0.703125,0,0
-2.42081514443271E-05,1.01845298559056E-05,0.703125,0,0
-2.26570864469977E-05,1.19671276479494E-05,0.703125,0,0
-2.2598233044846E-05,1.39512821988319E-05,0.703125,0,0
-2.22947801375994E-05,1.423641697329E-05,0.703125,0,0
-2.02211467694724E-05,1.38114319270244E-05,0.703125,0,0
-1.62258656928316E-05,1.13080186565639E-05,0.703125,0,0
-2.31339945457876E-05,1.4738490790478E-05,0.703125,0,0
-1.81482409971068E-05,9.58211148827104E-06,0.703125,0,0
-2.32643160416046E-05,1.3328008208191E-05,0.703125,0,0
-2.10577691177605E-05,1.1126136087114E-05,0.703125,0,0
-2.33298487728462E-05,1.32863933686167E-05,0.703125,0,0
-2.13513758353656E-05,1.10176761154435E-05,0.703125,0,0
-2.20704459934495E-05,9.12360701477155E-06,0.703125,0,0
-2.14059873542283E-05,1.11383833427681E-05,0.703125,0,0
-2.16355201700935E-05,1.33455368995783E-05,0.703125,0,0
-2.18268414755585E-05,1.10935452539707E-05,0.703125,0,0
-2.24139512283728E-05,8.1979424066958E-06,0.703125,0,0
-2.49182048719376E-05,9.6044568635989E-06,0.703125,0,0
-2.42642836383311E-05,1.01685500339954E-05,0.703125,0,0
-2.46464132942492E-05,1.16041665023658E-05,0.703125,0,0
-2.41109573835274E-05,1.25663273138343E-05,0.703125,0,0
-2.46031395363389E-05,1.2969861018064E-05,0.703125,0,0
-2.2836757125333E-05,7.40442783353501E-06,0.703125,0,0
-2.34199505939614E-05,-1.270556936106E-06,0.703125,0,0
-2.26157008000882E-05,-7.37176105758408E-06,0.703125,0,0
-2.26881766138831E-05,-3.17653143611096E-06,0.703125,0,0
-2.23331389861414E-05,5.48095795238623E-06,0.703125,0,0
-2.41681573243113E-05,1.27520142996218E-05,0.703125,0,0
-2.47067873715423E-05,1.45750964293256E-05,0.703125,0,0
-2.47926564043155E-05,1.08298918348737E-05,0.703125,0,0
-2.49110162258148E-05,7.02647275829804E-06,0.703125,0,0
-2.49022850766778E-05,7.48264756111894E-06,0.703125,0,0
-1.96086057258071E-05,8.18666467239382E-06,0.703125,0,0
-2.7073489036411E-05,1.14599070002441E-05,0.703125,0,0
-1.87050591193838E-05,8.55245525599457E-06,0.703125,0,0
-2.24866525968537E-05,1.02911471913103E-05,0.703125,0,0
-1.8233722585137E-05,8.26192808744963E-06,0.703125,0,0
-2.25471139856381E-05,1.04967175502679E-05,0.703125,0,0
-2.30516870942665E-05,1.06201978269382E-05,0.703125,0,0
-2.57026240433333E-05,1.07877467598883E-05,0.703125,0,0
-2.43807917286176E-05,1.07608466350939E-05,0.703125,0,0
-2.26918309635948E-05,1.06720526673598E-05,0.703125,0,0
-2.20446963794529E-05,9.99269650492352E-06,0.703125,0,0
-2.12851246033097E-05,8.8004480858217E-06,0.703125,0,0
-2.23361603275407E-05,8.09886751085287E-06,0.703125,0,0
-2.18585519178305E-05,6.80419543641619E-06,0.703125,0,0
-2.37817730521783E-05,8.94645381777082E-06,0.703125,0,0
-2.38435586652486E-05,1.19280066428473E-05,0.703125,0,0
-2.51962355832802E-05,1.43691213452257E-05,0.703125,0,0
-2.40781209868146E-05,1.40626789288945E-05,0.703125,0,0
-2.5798903152463E-05,1.43556862894911E-05,0.703125,0,0
-2.5949715563911E-05,1.40886777444393E-05,0.703125,0,0
-2.60843080468476E-05,1.56012847583042E-05,0.703125,0,0
-2.40719200519379E-05,1.74139186128741E-05,0.703125,0,0
-2.39940454775933E-05,1.86224351637065E-05,0.703125,0,0
-2.37225613091141E-05,1.87994392035762E-05,0.703125,0,0
-2.5063975044759E-05,1.73216121766018E-05,0.703125,0,0
-2.69747142738197E-05,1.41673162943334E-05,0.703125,0,0
-2.8662392651313E-05,1.14931099233218E-05,0.703125,0,0
-2.35477164096665E-05,8.16213196230819E-06,0.703125,0,0
-3.28263995470479E-05,1.16188793981564E-05,0.703125,0,0
-2.35432453337125E-05,1.04855917015811E-05,0.703125,0,0
-2.93858574877959E-05,1.31116366901551E-05,0.703125,0,0
-2.539300112403E-05,1.0770132575999E-05,0.703125,0,0
-2.90946154564153E-05,1.43521174322814E-05,0.703125,0,0
-2.61968216364039E-05,1.47942091643927E-05,0.703125,0,0
-2.73644564003916E-05,1.37017868837574E-05,0.703125,0,0
-2.64678983512567E-05,1.17354693429661E-05,0.703125,0,0
-2.64469072135398E-05,1.03325974123436E-05,0.703125,0,0
-2.67870418610983E-05,9.47457283473341E-06,0.703125,0,0
-2.65940361714456E-05,1.20152108138427E-05,0.703125,0,0
-2.78263596555917E-05,1.51865806401474E-05,0.703125,0,0
-2.6365105441073E-05,1.42828248499427E-05,0.703125,0,0
-2.78035422525136E-05,1.40716701935162E-05,0.703125,0,0
-2.73569676210172E-05,1.47659475260298E-05,0.703125,0,0
-2.86214890365954E-05,1.53161090565845E-05,0.703125,0,0
-2.64433947450016E-05,1.22830488180625E-05,0.703125,0,0
-2.75179681921145E-05,1.02039784906083E-05,0.703125,0,0
-2.77985964203253E-05,8.15137263998622E-06,0.703125,0,0
-2.92245276796166E-05,7.77774857851909E-06,0.703125,0,0
-2.72624492936302E-05,8.14425675343955E-06,0.703125,0,0
-2.62246994680027E-05,9.48150500335032E-06,0.703125,0,0
-2.54446949838893E-05,1.04083046608139E-05,0.703125,0,0
-2.60792239714647E-05,1.29765730889631E-05,0.703125,0,0
-2.51883957389509E-05,1.33206394821173E-05,0.703125,0,0
-2.43689555645688E-05,1.24453617900144E-05,0.703125,0,0
-1.88111971510807E-05,1.17079989649937E-05,0.703125,0,0
-2.56306338997092E-05,1.61139760166407E-05,0.703125,0,0
-1.87215737241786E-05,1.01538398666889E-05,0.703125,0,0
-2.41699035541387E-05,1.07191499409964E-05,0.703125,0,0
-2.1379148165579E-05,7.78639696363825E-06,0.703125,0,0
-2.53748094110051E-05,1.08024541987106E-05,0.703125,0,0
-2.35359584621619E-05,9.98207997326972E-06,0.703125,0,0
-2.48881933657685E-05,1.09099946712377E-05,0.703125,0,0
-2.46441413764842E-05,1.19784590424388E-05,0.703125,0,0
-2.5140125217149E-05,1.16131668619346E-05,0.703125,0,0
-2.49016466113972E-05,9.45926058193436E-06,0.703125,0,0
-2.21360078285215E-05,7.22604272596072E-06,0.703125,0,0
-2.05987143999664E-05,6.95804146744194E-06,0.703125,0,0
-1.91182771231979E-05,4.97580595038016E-06,0.703125,0,0
-2.24136674660258E-05,3.98229121856275E-06,0.703125,0,0
-2.48035412369063E-05,2.5225781428162E-06,0.703125,0,0
-2.72862744168378E-05,3.22870823765697E-06,0.703125,0,0
-2.42958012677263E-05,3.79437028641405E-06,0.703125,0,0
-2.25604071601992E-05,5.74043133383384E-06,0.703125,0,0
-2.07154025702039E-05,5.9788212638523E-06,0.703125,0,0
-2.14689316635486E-05,6.07813399255974E-06,0.703125,0,0
-2.13373314181808E-05,5.53578684048261E-06,0.703125,0,0
-2.20674373849761E-05,6.77510115565383E-06,0.703125,0,0
-2.15447271330049E-05,7.75867283664411E-06,0.703125,0,0
-2.10197376873111E-05,8.23463778942823E-06,0.703125,0,0
-1.91404869838152E-05,7.52071264287224E-06,0.703125,0,0
-1.89286711247405E-05,6.06105959377601E-06,0.703125,0,0
-1.67681373568485E-05,4.11309338232968E-06,0.703125,0,0
-2.39110104303109E-05,7.22489085092093E-06,0.703125,0,0
-1.81020168383839E-05,7.30857345843106E-06,0.703125,0,0
-2.17231190617895E-05,5.3486919568968E-06,0.703125,0,0
-1.74708056874806E-05,1.73744558651379E-06,0.703125,0,0
-1.90157152246684E-05,5.30794386577327E-06,0.703125,0,0
-1.70105395227438E-05,6.50799893264775E-06,0.703125,0,0
-1.81923114723759E-05,3.58126794708369E-06,0.703125,0,0
-1.84312502824469E-05,2.89232116301719E-06,0.703125,0,0
-1.93014529941138E-05,4.6975537770777E-06,0.703125,0,0
-2.00195827346761E-05,6.96292818247457E-06,0.703125,0,0
-1.95838802028447E-05,9.35563639359316E-06,0.703125,0,0
-1.98104735318339E-05,1.02592466646456E-05,0.703125,0,0
-1.78265436261427E-05,9.16080807655817E-06,0.703125,0,0
-1.7894342818181E-05,9.84459984465502E-06,0.703125,0,0
-1.76284120243508E-05,1.26207332868944E-05,0.703125,0,0
-1.95466818695422E-05,1.47522878251038E-05,0.703125,0,0
-1.84998098120559E-05,1.38545583467931E-05,0.703125,0,0
-1.76580051629571E-05,1.32955892695463E-05,0.703125,0,0
-1.55675115820486E-05,1.40946058309055E-05,0.703125,0,0
-1.59610899572726E-05,1.5326992070186E-05,0.703125,0,0
-1.59599730977789E-05,1.47132168422104E-05,0.703125,0,0
-1.75870663952082E-05,1.10727996798232E-05,0.703125,0,0
-1.81421273737215E-05,5.20772755407961E-06,0.703125,0,0
-1.89575166587019E-05,1.93950745597249E-06,0.703125,0,0
-1.96360142581398E-05,3.02277112496085E-06,0.703125,0,0
-1.97556091734441E-05,5.54774760530563E-06,0.703125,0,0
-1.67561574926367E-05,5.31145133209066E-06,0.703125,0,0
-2.45807350438554E-05,8.99294627743075E-06,0.703125,0,0
-2.00566046260064E-05,1.03823203971842E-05,0.703125,0,0
-2.55720569839468E-05,1.17302506623673E-05,0.703125,0,0
-2.25880285142921E-05,9.23065272218082E-06,0.703125,0,0
-2.48393953370396E-05,1.32194772959338E-05,0.703125,0,0
-2.47219522861997E-05,1.64602679433301E-05,0.703125,0,0
-2.67616032942897E-05,1.71602023328887E-05,0.703125,0,0
-2.59741755144205E-05,1.64967568707652E-05,0.703125,0,0
-2.51470646617236E-05,1.55611451191362E-05,0.703125,0,0
-2.44048987951828E-05,1.27494386106264E-05,0.703125,0,0
-2.34568869927898E-05,1.12926263682311E-05,0.703125,0,0
-2.38086831814144E-05,1.31866800074931E-05,0.703125,0,0
-2.2817208446213E-05,1.48659200931434E-05,0.703125,0,0
-2.41626457864186E-05,1.6165435226867E-05,0.703125,0,0
-2.42387395701371E-05,1.58200728037627E-05,0.703125,0,0
-2.60875640378799E-05,1.45716812767205E-05,0.703125,0,0
-2.59691933024442E-05,1.24035868793726E-05,0.703125,0,0
-2.66721781372325E-05,1.16658866318176E-05,0.703125,0,0
-2.52900845225668E-05,1.19462974907947E-05,0.703125,0,0
-2.53792677540332E-05,1.28122437672573E-05,0.703125,0,0
-2.47452735493425E-05,1.09761549538234E-05,0.703125,0,0
-2.55826798820635E-05,9.14789052330889E-06,0.703125,0,0
-2.61560144281248E-05,7.55476185076986E-06,0.703125,0,0
-2.62643643509364E-05,5.91053367315908E-06,0.703125,0,0
-2.55404756899225E-05,5.68505811315845E-06,0.703125,0,0
-2.56044550042134E-05,7.64629567129305E-06,0.703125,0,0
-2.09628979064291E-05,8.30964472697815E-06,0.703125,0,0
-2.95417739835102E-05,1.20609020086704E-05,0.703125,0,0
-2.25816420424962E-05,8.12111466075294E-06,0.703125,0,0
-2.87163420580328E-05,8.8742144725984E-06,0.703125,0,0
-2.47720436163945E-05,9.12221639737254E-06,0.703125,0,0
-2.83389163087122E-05,1.35102427520906E-05,0.703125,0,0
-2.64789123320952E-05,1.35177815536736E-05,0.703125,0,0
-2.74180711130612E-05,1.22387973533478E-05,0.703125,0,0
-2.61008644883987E-05,1.21858020065702E-05,0.703125,0,0
-2.64819973381236E-05,1.4292799278337E-05,0.703125,0,0
-2.80168696917826E-05,1.45732792589115E-05,0.703125,0,0
-2.75619731837651E-05,1.28011643028003E-05,0.703125,0,0
-2.67214909399627E-05,9.8082164186053E-06,0.703125,0,0
-2.28514254558831E-05,5.97565031057457E-06,0.703125,0,0
-2.20655729208374E-05,7.40437826607376E-06,0.703125,0,0
-2.11007954931119E-05,1.19544356493861E-05,0.703125,0,0
-2.36215728364186E-05,1.68893730005948E-05,0.703125,0,0
-2.37523545365548E-05,1.76197518158006E-05,0.703125,0,0
-2.5537277906551E-05,1.62832402565982E-05,0.703125,0,0
-2.49353270191932E-05,1.4740158803761E-05,0.703125,0,0
-2.61173918261193E-05,1.59393548528897E-05,0.703125,0,0
-2.72432789643062E-05,1.61257303261664E-05,0.703125,0,0
-2.9423044907162E-05,1.48853760038037E-05,0.703125,0,0
-2.83659755950794E-05,1.24879707072978E-05,0.703125,0,0
-2.62064477283275E-05,1.2751992471749E-05,0.703125,0,0
-2.43229824263835E-05,1.65407891472569E-05,0.703125,0,0
-2.38545617321506E-05,1.97977587959031E-05,0.703125,0,0
-1.97622903215233E-05,1.59081246238202E-05,0.703125,0,0
-2.90906409645686E-05,2.10843572858721E-05,0.703125,0,0
-2.4452165234834E-05,1.39328176373965E-05,0.703125,0,0
-3.06686379190069E-05,1.68559254234424E-05,0.703125,0,0
-2.77923463727348E-05,1.05907220131485E-05,0.703125,0,0
-3.23055719491094E-05,1.05438421087456E-05,0.703125,0,0
-3.13617492793128E-05,6.24060157861095E-06,0.703125,0,0
-3.2542142434977E-05,7.29801422494347E-06,0.703125,0,0
-3.10240648104809E-05,1.24307071018848E-05,0.703125,0,0
-3.09803253912833E-05,1.72021063917782E-05,0.703125,0,0
-3.23707536153961E-05,1.86195284186397E-05,0.703125,0,0
-3.19465470965952E-05,1.9260092813056E-05,0.703125,0,0
-3.14371536660474E-05,1.8874330635299E-05,0.703125,0,0
-2.88673891191138E-05,1.30729677039199E-05,0.703125,0,0
-2.91230462607928E-05,9.49492186919088E-06,0.703125,0,0
-2.77023591479519E-05,7.9576038842788E-06,0.703125,0,0
-2.82320488622645E-05,1.19164114948944E-05,0.703125,0,0
-2.62722496700007E-05,1.57768445205875E-05,0.703125,0,0
-2.65777634922415E-05,2.05854230443947E-05,0.703125,0,0
-2.60801098193042E-05,2.26946103794035E-05,0.703125,0,0
-2.73649729933823E-05,2.55355844274163E-05,0.703125,0,0
-2.67776777036488E-05,2.45258706854656E-05,0.703125,0,0
-2.65425569523359E-05,2.07754583243513E-05,0.703125,0,0
-2.55127979471581E-05,1.61487787408987E-05,0.703125,0,0
-2.5490358893876E-05,1.35700802275096E-05,0.703125,0,0
-2.55792547250167E-05,1.1391231964808E-05,0.703125,0,0
-2.57164647337049E-05,9.90507487586001E-06,0.703125,0,0
-2.08442870643921E-05,8.60362706589513E-06,0.703125,0,0
-2.98570339509752E-05,1.12425141196582E-05,0.703125,0,0
-2.28345379582606E-05,5.45440161658917E-06,0.703125,0,0
-2.78217867162311E-05,5.13581653649453E-06,0.703125,0,0
-2.28507287829416E-05,1.38816949402099E-06,0.703125,0,0
-2.54003516602097E-05,1.048616695698E-06,0.703125,0,0
-2.43574922933476E-05,1.46191143812757E-06,0.703125,0,0
-2.64145037363051E-05,3.49127935805882E-06,0.703125,0,0
-2.48554661084199E-05,4.13799762100098E-06,0.703125,0,0
-2.32997772400267E-05,3.68336895917309E-06,0.703125,0,0
-2.28074804908829E-05,2.56564931078174E-06,0.703125,0,0
-2.26820848183706E-05,1.93275036508567E-06,0.703125,0,0
-2.48363903665449E-05,2.16533157981758E-06,0.703125,0,0
-2.50619686994469E-05,1.01540251762344E-06,0.703125,0,0
-2.66731276497012E-05,1.98517682292731E-06,0.703125,0,0
-2.53429025178775E-05,3.51838980350294E-06,0.703125,0,0
-2.61161567323143E-05,4.95133690492366E-06,0.703125,0,0
-2.44470593315782E-05,4.77325193060096E-06,0.703125,0,0
-2.41685156652238E-05,7.03231489751488E-06,0.703125,0,0
-2.24207797145937E-05,9.54332335822983E-06,0.703125,0,0
-2.35661173064727E-05,9.38344783207867E-06,0.703125,0,0
-2.33448736253195E-05,5.76533057028428E-06,0.703125,0,0
-2.26731426664628E-05,3.95148708776105E-06,0.703125,0,0
-2.04343123186845E-05,4.47450429419405E-06,0.703125,0,0
-1.99952501134248E-05,5.58520923732431E-06,0.703125,0,0
-1.99346977751702E-05,4.7791190809221E-06,0.703125,0,0
-1.9069055269938E-05,4.90880256620585E-06,0.703125,0,0
-1.56838814291405E-05,7.36795027478365E-06,0.703125,0,0
-2.22259532165481E-05,1.4115302292339E-05,0.703125,0,0
-1.63573513418669E-05,1.53501860040706E-05,0.703125,0,0
-2.00189006136497E-05,1.50442319863942E-05,0.703125,0,0
-1.80834667844465E-05,9.64266928349389E-06,0.703125,0,0
-2.20647598325741E-05,9.99046460492536E-06,0.703125,0,0
-2.15537820622558E-05,1.17627751023974E-05,0.703125,0,0
-2.23392871703254E-05,1.22797955555143E-05,0.703125,0,0
-2.15918771573342E-05,1.22361670946702E-05,0.703125,0,0
-2.12320792343235E-05,1.33502699100063E-05,0.703125,0,0
-2.11492624657694E-05,1.45243084261892E-05,0.703125,0,0
-2.08679030038184E-05,1.50161167766782E-05,0.703125,0,0
-2.15949767152779E-05,1.44805262607406E-05,0.703125,0,0
-2.03953131858725E-05,1.21336342999712E-05,0.703125,0,0
-2.06753229576861E-05,1.10795454020263E-05,0.703125,0,0
-1.92884617717937E-05,1.05010612969636E-05,0.703125,0,0
-1.91463004739489E-05,1.03102829598356E-05,0.703125,0,0
-1.79989910975564E-05,9.85471069725463E-06,0.703125,0,0
-1.91699564311421E-05,1.07615214801626E-05,0.703125,0,0
-1.84761156560853E-05,1.1741053640435E-05,0.703125,0,0
-1.93173127627233E-05,1.22291703519295E-05,0.703125,0,0
-1.99160367628792E-05,9.81424091150984E-06,0.703125,0,0
-2.17972756217932E-05,6.58559702060302E-06,0.703125,0,0
-2.27440705202753E-05,5.92657352171955E-06,0.703125,0,0
-2.30355308303842E-05,9.99486655928195E-06,0.703125,0,0
-2.28876360779395E-05,1.45397889355081E-05,0.703125,0,0
-2.15625514101703E-05,1.56913265527692E-05,0.703125,0,0
-1.64806988323107E-05,1.10113205664675E-05,0.703125,0,0
-2.39343426073901E-05,1.25350425150828E-05,0.703125,0,0
-1.98820998775773E-05,7.85621796239866E-06,0.703125,0,0
-2.54208334808936E-05,1.26511331473012E-05,0.703125,0,0
-2.21423724724445E-05,9.46472482610261E-06,0.703125,0,0
-2.39203727687709E-05,1.27624844026286E-05,0.703125,0,0
-2.20596812141594E-05,1.24191637951299E-05,0.703125,0,0
-2.31423528020969E-05,1.3024352483626E-05,0.703125,0,0
-2.29642137128394E-05,1.30053176690126E-05,0.703125,0,0
-2.39698711084202E-05,1.28224564832635E-05,0.703125,0,0
-2.46929721470224E-05,1.22317196655786E-05,0.703125,0,0
-2.47055759245995E-05,1.16339506348595E-05,0.703125,0,0
-2.57304182014195E-05,1.18272855615942E-05,0.703125,0,0
-2.50506836891873E-05,1.06376382973394E-05,0.703125,0,0
-2.62040812231135E-05,1.36497128551127E-05,0.703125,0,0
-2.49580498348223E-05,1.5971625543898E-05,0.703125,0,0
-2.51132496487116E-05,1.58275634021265E-05,0.703125,0,0
-2.43584236159222E-05,1.05163580883527E-05,0.703125,0,0
-2.5812511012191E-05,8.1615171438898E-06,0.703125,0,0
-2.46876479650382E-05,7.21616834198358E-06,0.703125,0,0
-2.38262909988407E-05,6.80701532473904E-06,0.703125,0,0
-2.17397628148319E-05,5.65346954317647E-06,0.703125,0,0
-2.16614571399987E-05,6.66434425511397E-06,0.703125,0,0
-2.25125331780873E-05,8.86545512912562E-06,0.703125,0,0
-2.48441101575736E-05,1.15694738269667E-05,0.703125,0,0
-2.62583998846821E-05,1.25517335618497E-05,0.703125,0,0
-2.62437952187611E-05,1.25873484648764E-05,0.703125,0,0
-2.06931963475654E-05,9.40752943279222E-06,0.703125,0,0
-2.92840395559324E-05,1.25512369777425E-05,0.703125,0,0
-2.28589888138231E-05,1.03081029010355E-05,0.703125,0,0
-2.91848264168948E-05,1.24295593195711E-05,0.703125,0,0
-2.45856008405099E-05,1.01581645139959E-05,0.703125,0,0
-2.77303424809361E-05,1.53193850565003E-05,0.703125,0,0
-2.6267887733411E-05,1.48235940287123E-05,0.703125,0,0
-2.71155549853574E-05,1.3949781532574E-05,0.703125,0,0
-2.5583245587768E-05,1.38583181978902E-05,0.703125,0,0
-2.4516009943909E-05,1.50058185681701E-05,0.703125,0,0
-2.44010043388698E-05,1.5641562640667E-05,0.703125,0,0
-2.43833001150051E-05,1.7052279872587E-05,0.703125,0,0
-2.50412085733842E-05,2.02230803552084E-05,0.703125,0,0
-2.26652537094196E-05,2.07182965823449E-05,0.703125,0,0
-2.30990681302501E-05,1.98009838641156E-05,0.703125,0,0
-2.27230157179292E-05,1.54756125994027E-05,0.703125,0,0
-2.47439093072899E-05,1.17103527372819E-05,0.703125,0,0
-2.34878752962686E-05,9.16211320145521E-06,0.703125,0,0
-2.37781623582123E-05,1.15129478217568E-05,0.703125,0,0
-2.34631897910731E-05,1.30954576889053E-05,0.703125,0,0
-2.60853539657546E-05,1.27710654851398E-05,0.703125,0,0
-2.73870246019214E-05,1.02866097222432E-05,0.703125,0,0
-2.82211494777584E-05,9.38417269935599E-06,0.703125,0,0
-2.55459981417516E-05,9.09641130419914E-06,0.703125,0,0
-2.35128209169488E-05,1.02839467217564E-05,0.703125,0,0
-2.3448792489944E-05,1.16017708933214E-05,0.703125,0,0
-2.45372993958881E-05,1.15448692667997E-05,0.703125,0,0
-2.11166570807109E-05,8.04658247943735E-06,0.703125,0,0
-3.02428434224566E-05,1.14047779788962E-05,0.703125,0,0
-2.37644635490142E-05,8.71307111083297E-06,0.703125,0,0
-2.94933252007468E-05,9.60678789851954E-06,0.703125,0,0
-2.35534953390015E-05,7.47016520108446E-06,0.703125,0,0
-2.48533124249661E-05,9.92881723504979E-06,0.703125,0,0
-2.29707275138935E-05,7.50121807868709E-06,0.703125,0,0
-2.40749868680723E-05,5.34687978870352E-06,0.703125,0,0
-2.13835264730733E-05,6.05531249675551E-06,0.703125,0,0
-1.90328537428286E-05,8.7410435298807E-06,0.703125,0,0
-1.87350415217225E-05,1.12358566184412E-05,0.703125,0,0
-1.80777515197406E-05,1.25405576909543E-05,0.703125,0,0
-1.87760542758042E-05,1.16726469059358E-05,0.703125,0,0
-1.83237698365701E-05,7.80616392148659E-06,0.703125,0,0
-2.03849649551557E-05,6.79035747452872E-06,0.703125,0,0
-1.92736279132077E-05,8.23006575956242E-06,0.703125,0,0
-1.96558157767868E-05,1.08608592199744E-05,0.703125,0,0
-1.82821804628475E-05,1.10418704935E-05,0.703125,0,0
-1.98303423530888E-05,1.12125226223725E-05,0.703125,0,0
-2.02624323719647E-05,1.10972850961844E-05,0.703125,0,0
-2.31592257478042E-05,9.68009317148244E-06,0.703125,0,0
-2.43194426730042E-05,6.63876971884747E-06,0.703125,0,0
-2.40288682107348E-05,6.79178128848434E-06,0.703125,0,0
-2.13976072700461E-05,7.92561422713334E-06,0.703125,0,0
-1.96808505279478E-05,9.66056086326716E-06,0.703125,0,0
-1.89575475815218E-05,1.02120748124435E-05,0.703125,0,0
-2.01181246666238E-05,9.1952970251441E-06,0.703125,0,0
-1.7039559679688E-05,7.50334447729983E-06,0.703125,0,0
-2.4300041332026E-05,1.0890530575125E-05,0.703125,0,0
-1.95329794223653E-05,8.50957167131128E-06,0.703125,0,0
-2.47632051468827E-05,9.16616227186751E-06,0.703125,0,0
-2.09857716981787E-05,4.77073399451911E-06,0.703125,0,0
-2.35521256399807E-05,6.10472079642932E-06,0.703125,0,0
-2.14027786569204E-05,9.57250995270442E-06,0.703125,0,0
-2.10974794754293E-05,1.10877581391833E-05,0.703125,0,0
-2.05746237043059E-05,1.0404852218926E-05,0.703125,0,0
-2.21277605305659E-05,1.13675559987314E-05,0.703125,0,0
-2.3522567062173E-05,1.16422643259284E-05,0.703125,0,0
-2.27246546273818E-05,1.09465727291536E-05,0.703125,0,0
-2.32480215345277E-05,1.09233815237531E-05,0.703125,0,0
-2.29362358368235E-05,9.68019867286785E-06,0.703125,0,0
-2.45598293986404E-05,8.84870223671896E-06,0.703125,0,0
-2.29481174756074E-05,8.20904369902564E-06,0.703125,0,0
-2.27025830099592E-05,8.51117056299699E-06,0.703125,0,0
-2.14559549931437E-05,7.09349114913493E-06,0.703125,0,0
-2.20569927478209E-05,6.14298778600642E-06,0.703125,0,0
-2.14670362765901E-05,4.34095591117512E-06,0.703125,0,0
-2.29432571359212E-05,2.57050942309434E-06,0.703125,0,0
-2.42017213167856E-05,6.53703580155707E-07,0.703125,0,0
-2.628634138091E-05,1.43096372084983E-06,0.703125,0,0
-2.53554280789103E-05,4.18754916609032E-06,0.703125,0,0
-2.25358653551666E-05,4.68038933831849E-06,0.703125,0,0
-2.06866297958186E-05,3.3273304325121E-06,0.703125,0,0
-2.13160383282229E-05,5.14479279445368E-06,0.703125,0,0
-1.75695586221991E-05,6.67962603984051E-06,0.703125,0,0
-2.45630944846198E-05,8.81424239196349E-06,0.703125,0,0
-1.89647962542949E-05,4.89268768433249E-06,0.703125,0,0
-2.43471786234295E-05,4.9438644964539E-06,0.703125,0,0
-2.1462587028509E-05,3.68717314813694E-06,0.703125,0,0
-2.57608207903104E-05,4.71915427624481E-06,0.703125,0,0
-2.49635559157468E-05,-2.99070109122113E-07,0.703125,0,0
-2.59321313933469E-05,-2.19760090658383E-06,0.703125,0,0
-2.48951000685338E-05,2.35424840866472E-06,0.703125,0,0
-2.43115573539399E-05,6.84497035763343E-06,0.703125,0,0
-2.36870400840417E-05,7.6543792602024E-06,0.703125,0,0
-2.31318826990901E-05,6.13286829320714E-06,0.703125,0,0
-2.52029367402429E-05,6.03660009801388E-06,0.703125,0,0
-2.54789538303157E-05,6.21229992248118E-06,0.703125,0,0
-2.66527094936464E-05,8.89793318492593E-06,0.703125,0,0
-2.50604261964327E-05,1.29978634504369E-05,0.703125,0,0
-2.53973885264713E-05,1.63626318681054E-05,0.703125,0,0
-2.49867644015467E-05,1.53913988469867E-05,0.703125,0,0
-2.81672455457738E-05,1.35180080178543E-05,0.703125,0,0
-2.99792300211266E-05,1.24280204545357E-05,0.703125,0,0
-3.23681779264007E-05,1.30442176669021E-05,0.703125,0,0
-3.21951883961447E-05,1.34341435114038E-05,0.703125,0,0
-3.07619702653028E-05,1.47043756442145E-05,0.703125,0,0
-2.75367856374942E-05,1.63156582857482E-05,0.703125,0,0
-2.56273488048464E-05,1.94288058992242E-05,0.703125,0,0
-2.62228240899276E-05,2.23101033043349E-05,0.703125,0,0
-2.85029964288697E-05,2.24769046326401E-05,0.703125,0,0
-2.5324468879262E-05,1.45224266816513E-05,0.703125,0,0
-3.73060647689272E-05,1.70727325894404E-05,0.703125,0,0
-2.82069413515273E-05,1.03865786513779E-05,0.703125,0,0
-3.17551384796388E-05,1.59851060743677E-05,0.703125,0,0
-2.55537124758121E-05,1.15021384772263E-05,0.703125,0,0
-2.97050100925844E-05,1.50245823533623E-05,0.703125,0,0
-2.76325135928346E-05,1.49291599882417E-05,0.703125,0,0
-2.89220151898917E-05,1.63066633831477E-05,0.703125,0,0
-2.82033306575613E-05,1.67824528034544E-05,0.703125,0,0
-2.7258161935606E-05,1.80082533915993E-05,0.703125,0,0
-2.6076822905452E-05,1.79500020749401E-05,0.703125,0,0
-2.46486160904169E-05,1.72173022292554E-05,0.703125,0,0
-2.55654686043272E-05,1.85689477802953E-05,0.703125,0,0
-2.4455794118694E-05,1.77629117388278E-05,0.703125,0,0
-2.61615950876148E-05,1.74444758158643E-05,0.703125,0,0
-2.52162517426768E-05,1.53867968037957E-05,0.703125,0,0
-2.59021908277646E-05,1.554872142151E-05,0.703125,0,0
-2.32777802011697E-05,1.34062074721442E-05,0.703125,0,0
-2.30418972932966E-05,1.34039109980222E-05,0.703125,0,0
-2.16349872061983E-05,1.30544349303818E-05,0.703125,0,0
-2.39278306253254E-05,1.42564576890436E-05,0.703125,0,0
-2.55697395914467E-05,1.41777682074462E-05,0.703125,0,0
-2.65051603491884E-05,1.52761076606112E-05,0.703125,0,0
-2.38874035858316E-05,1.54478639160516E-05,0.703125,0,0
-2.27644177357433E-05,1.54862300405512E-05,0.703125,0,0
-2.26621341425925E-05,1.59723185788607E-05,0.703125,0,0
-2.32008806051454E-05,1.51545063999947E-05,0.703125,0,0
-1.97668759938097E-05,9.69189750321675E-06,0.703125,0,0
-2.77700619335519E-05,1.47685504998663E-05,0.703125,0,0
-2.00188242160948E-05,1.55624256876763E-05,0.703125,0,0
-2.39339624386048E-05,1.82809908437775E-05,0.703125,0,0
-1.98961370188044E-05,1.20240902106161E-05,0.703125,0,0
-2.32094771490665E-05,1.43232546179206E-05,0.703125,0,0
-2.17199831240578E-05,1.52124357555294E-05,0.703125,0,0
-2.27045748033561E-05,1.42516773848911E-05,0.703125,0,0
-2.15918389585568E-05,1.07415280581336E-05,0.703125,0,0
-2.12371378438547E-05,7.13370263838442E-06,0.703125,0,0
-2.06717686523916E-05,6.16250918028527E-06,0.703125,0,0
-1.93591986317188E-05,6.94164509695838E-06,0.703125,0,0
-1.98517755052308E-05,6.83576763549354E-06,0.703125,0,0
-1.89997372217476E-05,4.13239740737481E-06,0.703125,0,0
-1.97510325961048E-05,4.60689079773147E-06,0.703125,0,0
-1.73677253769711E-05,5.56605800738907E-06,0.703125,0,0
-1.810065623431E-05,7.10251424607122E-06,0.703125,0,0
-1.81511186383432E-05,7.69548023527022E-06,0.703125,0,0
-1.99385431187693E-05,9.53678136283997E-06,0.703125,0,0
-1.95277425518725E-05,9.31785962166032E-06,0.703125,0,0
-2.05256219487637E-05,1.04000991996145E-05,0.703125,0,0
-2.05201467906591E-05,1.29463523990125E-05,0.703125,0,0
-2.15563923120499E-05,1.45123867696384E-05,0.703125,0,0
-2.1251436919556E-05,1.2794602298527E-05,0.703125,0,0
-2.20188339881133E-05,1.10670480353292E-05,0.703125,0,0
-2.09769805223914E-05,9.42334554565605E-06,0.703125,0,0
-1.92954830708914E-05,9.34987929213094E-06,0.703125,0,0
-1.56780788529431E-05,9.13290114112897E-06,0.703125,0,0
-2.35491897910833E-05,1.15058364826837E-05,0.703125,0,0
-2.00275553652318E-05,6.53147753837402E-06,0.703125,0,0
-2.50193970714463E-05,9.23625702853315E-06,0.703125,0,0
-2.28505086852238E-05,8.52260109240888E-06,0.703125,0,0
-2.57323881669436E-05,1.10461733129341E-05,0.703125,0,0
-2.48698470386444E-05,1.04308464869973E-05,0.703125,0,0
-2.60380056715803E-05,1.10777018562658E-05,0.703125,0,0
-2.61219192907447E-05,1.26454369819839E-05,0.703125,0,0
-2.71531826001592E-05,1.37650977194426E-05,0.703125,0,0
-2.76969603874022E-05,1.4040560927242E-05,0.703125,0,0
-2.63633737631608E-05,1.51402582559967E-05,0.703125,0,0
-2.53959133260651E-05,1.83192205440719E-05,0.703125,0,0
-2.39633172895992E-05,1.93816431419691E-05,0.703125,0,0
-2.43443573708646E-05,1.87163532245904E-05,0.703125,0,0
-2.28272565436782E-05,1.58270268002525E-05,0.703125,0,0
-2.41633752011694E-05,1.55157958943164E-05,0.703125,0,0
-2.51654892053921E-05,1.61280622705817E-05,0.703125,0,0
-2.6310875909985E-05,1.75568347913213E-05,0.703125,0,0
-2.47124007728416E-05,1.67682228493504E-05,0.703125,0,0
-2.54361439147033E-05,1.56395453814184E-05,0.703125,0,0
-2.54149163083639E-05,1.42053904710338E-05,0.703125,0,0
-2.52416721195914E-05,1.32292725538719E-05,0.703125,0,0
-2.43229114857968E-05,1.30671869555954E-05,0.703125,0,0
-2.44446619035443E-05,1.35669188239262E-05,0.703125,0,0
-2.40955996559933E-05,1.20415297715226E-05,0.703125,0,0
-2.36009400396142E-05,1.1045832252421E-05,0.703125,0,0
-1.91891758731799E-05,8.58411476656329E-06,0.703125,0,0
-2.68981402768986E-05,1.24491443784791E-05,0.703125,0,0
-1.94577678485075E-05,1.11959807327366E-05,0.703125,0,0
-2.28518347284989E-05,1.33970452225185E-05,0.703125,0,0
-1.81976247404236E-05,6.24423364570248E-06,0.703125,0,0
-2.30470996029908E-05,4.05091304855887E-06,0.703125,0,0
-2.23555925913388E-05,4.59382272310904E-06,0.703125,0,0
-2.22984162974171E-05,7.36069387130556E-06,0.703125,0,0
-2.02612827706616E-05,9.36712967813946E-06,0.703125,0,0
-2.01687926164595E-05,8.6536292656092E-06,0.703125,0,0
-2.06575277843513E-05,7.05730144545669E-06,0.703125,0,0
-2.01629736693576E-05,7.40370023777359E-06,0.703125,0,0
-2.18970562855247E-05,7.83193354436662E-06,0.703125,0,0
-2.17047927435488E-05,5.98894393988303E-06,0.703125,0,0
-2.3127668100642E-05,6.32078354101395E-06,0.703125,0,0
-2.24406812776579E-05,7.08119978298782E-06,0.703125,0,0
-2.35262359638E-05,8.72244982019765E-06,0.703125,0,0
-2.22496801143279E-05,7.45200168239535E-06,0.703125,0,0
-2.26059491978958E-05,3.84427994504222E-06,0.703125,0,0
-2.21386526391143E-05,-6.08355662734539E-07,0.703125,0,0
-2.46957915805979E-05,-2.15656314139778E-06,0.703125,0,0
-2.45227874984266E-05,-1.57090732955112E-06,0.703125,0,0
-2.2170190277393E-05,1.00097429367452E-06,0.703125,0,0
-1.95594548131339E-05,1.74187698576134E-06,0.703125,0,0
-2.01422662939876E-05,9.48175795656425E-07,0.703125,0,0
-2.14605643122923E-05,9.30063265514036E-07,0.703125,0,0
-2.22087346628541E-05,3.13030250254087E-06,0.703125,0,0
-1.84019427251769E-05,5.18801516591338E-06,0.703125,0,0
-2.66279203060549E-05,9.57509109866805E-06,0.703125,0,0
-2.12033155548852E-05,8.98924190551043E-06,0.703125,0,0
-2.53863163379719E-05,7.63397929404164E-06,0.703125,0,0
-2.08446890610503E-05,3.68238579540048E-06,0.703125,0,0
-2.45700102823321E-05,4.25433700002031E-06,0.703125,0,0
-2.42609530687332E-05,6.51272648610757E-06,0.703125,0,0
-2.53365560638485E-05,7.77039622334996E-06,0.703125,0,0
-2.44017446675571E-05,7.11683696863474E-06,0.703125,0,0
-2.50936045631533E-05,4.26526094088331E-06,0.703125,0,0
-2.63713318418013E-05,1.60922536451835E-06,0.703125,0,0
-2.59255284618121E-05,1.93964478967246E-06,0.703125,0,0
-2.61400327872252E-05,2.66358711087378E-06,0.703125,0,0
-2.45831161009846E-05,6.27231315775134E-07,0.703125,0,0
-2.47891148319468E-05,1.98548221419514E-07,0.703125,0,0
-2.34857780014863E-05,3.16560567625856E-06,0.703125,0,0
-2.52226254815469E-05,6.39615336694987E-06,0.703125,0,0
-2.52950994763523E-05,4.93721336169983E-06,0.703125,0,0
-2.71069293376058E-05,2.26820407078776E-06,0.703125,0,0
-2.65858961938648E-05,1.78337938905315E-06,0.703125,0,0
-2.66907263721805E-05,-2.19177522353675E-07,0.703125,0,0
-2.54500555456616E-05,-4.3312284105923E-06,0.703125,0,0
-2.48428023041924E-05,-3.30372540702228E-06,0.703125,0,0
-2.38879802054726E-05,1.89260367733368E-06,0.703125,0,0
-2.41261896007927E-05,7.11070424586069E-06,0.703125,0,0
-2.45384599111276E-05,1.0109790309798E-05,0.703125,0,0
-2.44444763666252E-05,8.40358552522957E-06,0.703125,0,0
-1.89336478797486E-05,2.31178478315996E-06,0.703125,0,0
-2.68900475930423E-05,-1.24907415965936E-07,0.703125,0,0
-2.00026279344456E-05,-2.33446485253808E-06,0.703125,0,0
-2.43921513174428E-05,7.57319071453821E-07,0.703125,0,0
-2.14707688428462E-05,1.87600073786598E-06,0.703125,0,0
-2.60027882177383E-05,7.20657908459543E-06,0.703125,0,0
-2.47592997766333E-05,1.08058056866867E-05,0.703125,0,0
-2.59996249951655E-05,1.32438126456691E-05,0.703125,0,0
-2.59532625932479E-05,1.43009565363172E-05,0.703125,0,0
-2.59273183473852E-05,1.16204046207713E-05,0.703125,0,0
-2.47642037720652E-05,9.14534120965982E-06,0.703125,0,0
-2.25472213060129E-05,1.27202338262578E-05,0.703125,0,0
-2.30735331570031E-05,1.85660137503874E-05,0.703125,0,0
-2.26420543185668E-05,2.02318587980699E-05,0.703125,0,0
-2.40420704358257E-05,1.9392884496483E-05,0.703125,0,0
-2.33690152526833E-05,1.78508234967012E-05,0.703125,0,0
-2.46135459747165E-05,1.81832456291886E-05,0.703125,0,0
-2.43617541855201E-05,1.92998741113115E-05,0.703125,0,0
-2.67572759184986E-05,2.05107298825169E-05,0.703125,0,0
-2.70799373538466E-05,1.97367535292869E-05,0.703125,0,0
-2.75040638371138E-05,1.86982579180039E-05,0.703125,0,0
-2.61939494521357E-05,1.70810526469722E-05,0.703125,0,0
-2.67935647570994E-05,1.55403813550947E-05,0.703125,0,0
-2.72041233984055E-05,1.41927075674175E-05,0.703125,0,0
-2.66089809883852E-05,1.20539907584316E-05,0.703125,0,0
-2.45528663072037E-05,1.02827762020752E-05,0.703125,0,0
-2.33825467148563E-05,1.04907412605826E-05,0.703125,0,0
-1.97572153410874E-05,9.93449793895707E-06,0.703125,0,0
-2.97527858492685E-05,1.64976972882869E-05,0.703125,0,0
-2.35041388805257E-05,1.67295038409065E-05,0.703125,0,0
-2.59198186540743E-05,1.9144687030348E-05,0.703125,0,0
-2.03383606276475E-05,1.4713794371346E-05,0.703125,0,0
-2.36658997891936E-05,1.61007665155921E-05,0.703125,0,0
-2.37642670981586E-05,1.6786174455774E-05,0.703125,0,0
-2.54495516855968E-05,1.85470726137282E-05,0.703125,0,0
-2.35688803513767E-05,1.98505931621185E-05,0.703125,0,0
-2.27989003178664E-05,1.9103330487269E-05,0.703125,0,0
-2.43734175455756E-05,1.51028334585135E-05,0.703125,0,0
-2.55224240390817E-05,1.19013939183787E-05,0.703125,0,0
-2.60098113358254E-05,1.15788943730877E-05,0.703125,0,0
-2.34914714383194E-05,1.17495092126774E-05,0.703125,0,0
-2.29895831580507E-05,1.58618149725953E-05,0.703125,0,0
-2.10428825084819E-05,2.05582873604726E-05,0.703125,0,0
-2.19157045648899E-05,2.41873931372538E-05,0.703125,0,0
-2.128036612703E-05,2.32230668189004E-05,0.703125,0,0
-2.28511817113031E-05,2.09614445338957E-05,0.703125,0,0
-2.33458376897033E-05,1.87571731657954E-05,0.703125,0,0
-2.4507278794772E-05,2.02879218704766E-05,0.703125,0,0
-2.28171193157323E-05,2.25948315346614E-05,0.703125,0,0
-2.09796689887298E-05,2.34630260820268E-05,0.703125,0,0
-1.9082321159658E-05,1.96355485968525E-05,0.703125,0,0
-2.07513385248603E-05,1.46705388033297E-05,0.703125,0,0
-2.22576400119578E-05,1.19144533528015E-05,0.703125,0,0
-2.17408614844317E-05,1.14495533125591E-05,0.703125,0,0
-1.66229838214349E-05,8.29801956570009E-06,0.703125,0,0
-2.39916935242945E-05,9.44491239351919E-06,0.703125,0,0
-2.02216215257067E-05,4.66756046080263E-06,0.703125,0,0
-2.52895006269682E-05,5.12422093379428E-06,0.703125,0,0
-2.07552875508554E-05,1.08316498881322E-06,0.703125,0,0
-2.27859818551224E-05,3.46004071616335E-06,0.703125,0,0
-2.22379858314525E-05,3.67385177924007E-06,0.703125,0,0
-2.46062463702401E-05,4.82259156342479E-06,0.703125,0,0
-2.33587634284049E-05,5.75258036406012E-06,0.703125,0,0
-2.22832932195161E-05,6.8090971581114E-06,0.703125,0,0
-2.19187841139501E-05,5.86700980420574E-06,0.703125,0,0
-2.14208557736129E-05,6.02832460572245E-06,0.703125,0,0
-2.21452137338929E-05,7.15394935468794E-06,0.703125,0,0
-2.12692157219863E-05,5.70100564800669E-06,0.703125,0,0
-2.21013233385747E-05,7.03129353496479E-06,0.703125,0,0
-2.00574777409201E-05,1.05935478131869E-05,0.703125,0,0
-1.93948253581766E-05,1.51276017277269E-05,0.703125,0,0
-1.82953117473517E-05,1.51704171003075E-05,0.703125,0,0
-2.07628108910285E-05,1.38911045723944E-05,0.703125,0,0
-2.20606107177446E-05,1.12310726763099E-05,0.703125,0,0
-2.40639528783504E-05,1.13974620035151E-05,0.703125,0,0
-2.38825268752407E-05,1.37802762765205E-05,0.703125,0,0
-2.3501936084358E-05,1.7343249055557E-05,0.703125,0,0
-2.2330346837407E-05,1.85272838280071E-05,0.703125,0,0
-2.33326318266336E-05,1.78610553120961E-05,0.703125,0,0
-2.41003399423789E-05,1.44768064274103E-05,0.703125,0,0
-2.35922234423924E-05,1.15401189759723E-05,0.703125,0,0
-1.92077495739795E-05,9.27155906538246E-06,0.703125,0,0
-2.77999733953038E-05,1.19598444143776E-05,0.703125,0,0
-2.0685622075689E-05,7.0631576818414E-06,0.703125,0,0
-2.4423339709756E-05,8.98821235750802E-06,0.703125,0,0
-1.97536865016446E-05,8.04134924692335E-06,0.703125,0,0
-2.28800054173917E-05,1.19138576337718E-05,0.703125,0,0
-2.26470419875113E-05,1.30202215586905E-05,0.703125,0,0
-2.50306020461721E-05,1.52518705363036E-05,0.703125,0,0
-2.63043293671217E-05,1.59408700710628E-05,0.703125,0,0
-2.67570576397702E-05,1.15080802061129E-05,0.703125,0,0
-2.66500228462974E-05,5.23741391589283E-06,0.703125,0,0
-2.64882492047036E-05,3.22754613080178E-06,0.703125,0,0
-2.83406589005608E-05,5.59360751140048E-06,0.703125,0,0
-2.73278201348148E-05,6.78416108712554E-06,0.703125,0,0
-2.70008949883049E-05,8.6947711679386E-06,0.703125,0,0
-2.49744389293483E-05,9.15306827664608E-06,0.703125,0,0
-2.55912564171012E-05,9.1847296062042E-06,0.703125,0,0
-2.48937922151526E-05,7.60899092711043E-06,0.703125,0,0
-2.56575476669241E-05,6.37956691207364E-06,0.703125,0,0
-2.51712372119073E-05,3.07772688756813E-06,0.703125,0,0
-2.74744397756876E-05,9.57229389086933E-08,0.703125,0,0
-2.84913348878035E-05,-1.56591204358847E-06,0.703125,0,0
-2.87564944301266E-05,6.34189973425237E-07,0.703125,0,0
-2.69778338406468E-05,4.41696965935989E-06,0.703125,0,0
-2.57738447544398E-05,7.8756820585113E-06,0.703125,0,0
-2.60477099800482E-05,9.83254449238302E-06,0.703125,0,0
-2.74467893177643E-05,1.0683811524359E-05,0.703125,0,0
-2.36812738876324E-05,8.03636248747353E-06,0.703125,0,0
-3.24944667227101E-05,9.8361251730239E-06,0.703125,0,0
-2.19161138375057E-05,4.76911918667611E-06,0.703125,0,0
-2.80660806311062E-05,6.45799991616514E-06,0.703125,0,0
-2.51277851930354E-05,7.55273595132167E-06,0.703125,0,0
-2.95518711936893E-05,1.22517676572897E-05,0.703125,0,0
-2.66240695054876E-05,1.09180637082318E-05,0.703125,0,0
-2.65031630988233E-05,9.60571469477145E-06,0.703125,0,0
-2.50451448664535E-05,8.84166729520075E-06,0.703125,0,0
-2.4446044335491E-05,7.76101842347998E-06,0.703125,0,0
-2.41854977502953E-05,6.92267985868966E-06,0.703125,0,0
-2.42007190536242E-05,7.09197684045648E-06,0.703125,0,0
-2.61695749941282E-05,7.88016950536985E-06,0.703125,0,0
-2.39025812334148E-05,8.81462619872764E-06,0.703125,0,0
-2.34372946579242E-05,1.14262502393103E-05,0.703125,0,0
-2.15810996451182E-05,1.07929154182784E-05,0.703125,0,0
-2.28158660320332E-05,7.81227208790369E-06,0.703125,0,0
-2.17478282138472E-05,4.47002412329311E-06,0.703125,0,0
-2.37888907577144E-05,5.94094581174431E-06,0.703125,0,0
-2.40217341342941E-05,9.41736107051838E-06,0.703125,0,0
-2.52111822192091E-05,1.29405425468576E-05,0.703125,0,0
-2.39466644416098E-05,1.33243511299952E-05,0.703125,0,0
-2.36478008446284E-05,1.28202773339581E-05,0.703125,0,0
-2.35377028729999E-05,1.27448911371175E-05,0.703125,0,0
-2.44952552748146E-05,1.29493064378039E-05,0.703125,0,0
-2.39927194343181E-05,1.17860527097946E-05,0.703125,0,0
-2.24712093768176E-05,1.095387233363E-05,0.703125,0,0
-1.81356663233601E-05,8.58392286318121E-06,0.703125,0,0
-2.61032273556339E-05,1.28429128380958E-05,0.703125,0,0
-2.0597080947482E-05,1.20232289191335E-05,0.703125,0,0
-2.64970040007029E-05,1.65296987688635E-05,0.703125,0,0
-2.37012191064423E-05,1.48301523950067E-05,0.703125,0,0
-2.49431068368722E-05,1.51033709698822E-05,0.703125,0,0
-2.16872995224549E-05,1.34898118631099E-05,0.703125,0,0
-2.24512623390183E-05,1.42284734465647E-05,0.703125,0,0
-2.29187389777508E-05,1.73737462318968E-05,0.703125,0,0
-2.37407330132555E-05,1.99444984900765E-05,0.703125,0,0
-2.34227773034945E-05,2.00922277144855E-05,0.703125,0,0
-2.18312598008197E-05,2.0658297216869E-05,0.703125,0,0
-2.16050393646583E-05,2.20098518184386E-05,0.703125,0,0
-2.01154052774655E-05,2.05467531486647E-05,0.703125,0,0
-2.12907634704607E-05,1.86329580174061E-05,0.703125,0,0
-2.09326626645634E-05,1.66412373800995E-05,0.703125,0,0
-2.23481383727631E-05,1.78194004547549E-05,0.703125,0,0
-2.19004305108683E-05,2.02110404643463E-05,0.703125,0,0
-2.24969226110261E-05,2.23572933464311E-05,0.703125,0,0
-2.05699161597295E-05,2.0515490177786E-05,0.703125,0,0
-2.05806300073164E-05,1.83709707926027E-05,0.703125,0,0
-1.98784873646218E-05,1.69177965290146E-05,0.703125,0,0
-1.95326756511349E-05,1.70778894243995E-05,0.703125,0,0
-1.98281431948999E-05,1.76104131242028E-05,0.703125,0,0
-2.2445563445217E-05,1.81026662176009E-05,0.703125,0,0
-2.37534404732287E-05,1.65254041348817E-05,0.703125,0,0
-2.50473658525152E-05,1.29475529320189E-05,0.703125,0,0
-2.12358463613782E-05,9.3971084424993E-06,0.703125,0,0
-2.91389969788725E-05,1.38748991957982E-05,0.703125,0,0
-2.00871909328271E-05,1.04382334029651E-05,0.703125,0,0
-2.4274073439301E-05,1.03207821666729E-05,0.703125,0,0
-1.94360254681669E-05,6.84005181028624E-06,0.703125,0,0
-2.3566546587972E-05,1.04222817753907E-05,0.703125,0,0
-2.20961901504779E-05,1.11991575977299E-05,0.703125,0,0
-2.40421159105608E-05,9.42728365771472E-06,0.703125,0,0
-2.44058392127045E-05,4.6114237193251E-06,0.703125,0,0
-2.48283049586462E-05,-2.0530887923087E-06,0.703125,0,0
-2.57309820881346E-05,-7.66444463806693E-06,0.703125,0,0
-2.56904095294885E-05,-7.27704809833085E-06,0.703125,0,0
-2.66267634287942E-05,-1.16887190415582E-06,0.703125,0,0
-2.51491110248026E-05,4.14300257034483E-06,0.703125,0,0
-2.65599392150762E-05,8.6795871538925E-06,0.703125,0,0
-2.67425493802875E-05,1.01112527772784E-05,0.703125,0,0
-2.93864613922779E-05,9.40478275879286E-06,0.703125,0,0
-2.86504182440694E-05,6.17822024651105E-06,0.703125,0,0
-2.77383260254283E-05,6.21881736151408E-06,0.703125,0,0
-2.33599948842311E-05,7.48468892197707E-06,0.703125,0,0
-2.28688368224539E-05,8.36930303194094E-06,0.703125,0,0
-2.4699844288989E-05,7.17790044291178E-06,0.703125,0,0
-2.76907776424196E-05,6.06702360528288E-06,0.703125,0,0
-2.69989195658127E-05,6.44570627628127E-06,0.703125,0,0
-2.54186561505776E-05,8.26017549115932E-06,0.703125,0,0
-2.41236975853099E-05,9.93099001789233E-06,0.703125,0,0
-2.4456483515678E-05,1.04620494312258E-05,0.703125,0,0
-2.1112118702149E-05,7.50625258660875E-06,0.703125,0,0
-3.07742375298403E-05,9.57263182499446E-06,0.703125,0,0
-2.40157496591564E-05,6.47712477075402E-06,0.703125,0,0
-2.93446337309433E-05,8.20564673631452E-06,0.703125,0,0
-2.66931674559601E-05,7.30140027371817E-06,0.703125,0,0
-3.07919945043977E-05,1.19490223369212E-05,0.703125,0,0
-2.74680805887328E-05,1.28735800899449E-05,0.703125,0,0
-2.64587397396099E-05,1.15173170343041E-05,0.703125,0,0
-2.41654579440365E-05,1.02641906778445E-05,0.703125,0,0
-2.39572418649914E-05,1.19127253128681E-05,0.703125,0,0
-2.48427040787647E-05,1.4596824257751E-05,0.703125,0,0
-2.47442276304355E-05,1.69765480677597E-05,0.703125,0,0
-2.56192961387569E-05,1.75730092450976E-05,0.703125,0,0
-2.48883061431115E-05,1.53554174175952E-05,0.703125,0,0
-2.58786531048827E-05,1.59060091391439E-05,0.703125,0,0
-2.44494785874849E-05,1.7336524251732E-05,0.703125,0,0
-2.60036358668003E-05,1.75528348336229E-05,0.703125,0,0
-2.6019897632068E-05,1.44753030326683E-05,0.703125,0,0
-2.74414960586E-05,1.27983048514579E-05,0.703125,0,0
-2.57492611126509E-05,1.14336398837622E-05,0.703125,0,0
-2.56362618529238E-05,1.2124104614486E-05,0.703125,0,0
-2.48396409006091E-05,1.43212082548416E-05,0.703125,0,0
-2.65230373770464E-05,1.67009329743451E-05,0.703125,0,0
-2.70727050519781E-05,1.68153619597433E-05,0.703125,0,0
-2.71983772108797E-05,1.63726981554646E-05,0.703125,0,0
-2.65099679381819E-05,1.5835201338632E-05,0.703125,0,0
-2.51470046350732E-05,1.48208919199533E-05,0.703125,0,0
-1.93432788364589E-05,1.22628816825454E-05,0.703125,0,0
-2.72056331596104E-05,1.45091662488994E-05,0.703125,0,0
-1.93066789506702E-05,6.18212652625516E-06,0.703125,0,0
-2.32656002481235E-05,7.53184076529578E-06,0.703125,0,0
-2.01796865439974E-05,5.46856927030603E-06,0.703125,0,0
-2.4418106477242E-05,8.78715854923939E-06,0.703125,0,0
-2.24311515921727E-05,6.41306542092934E-06,0.703125,0,0
-2.12218328670133E-05,4.53108850706485E-06,0.703125,0,0
-1.80263286893023E-05,3.7929059999442E-06,0.703125,0,0
-1.6739377315389E-05,6.323323759716E-06,0.703125,0,0
-1.71038609551033E-05,8.0143945524469E-06,0.703125,0,0
-1.74440992850577E-05,7.27816404832993E-06,0.703125,0,0
-1.88835128938081E-05,6.64231765767909E-06,0.703125,0,0
-1.8494545656722E-05,3.69739541383751E-06,0.703125,0,0
-2.01753427973017E-05,3.59418072548578E-06,0.703125,0,0
-1.96932942344574E-05,5.32180592927034E-06,0.703125,0,0
-2.10152447834844E-05,9.7164947874262E-06,0.703125,0,0
-1.95702396013075E-05,1.04001746876747E-05,0.703125,0,0
-1.9489836631692E-05,9.31135127757443E-06,0.703125,0,0
-1.77252331923228E-05,6.04146225668956E-06,0.703125,0,0
-1.74418491951656E-05,5.95971960137831E-06,0.703125,0,0
-1.60237377713202E-05,8.04118099040352E-06,0.703125,0,0
-1.63837848958792E-05,9.94309448287822E-06,0.703125,0,0
-1.73080406966619E-05,7.65459390095202E-06,0.703125,0,0
-1.79953767656116E-05,5.10082190885441E-06,0.703125,0,0
-1.75425066117896E-05,4.36697655459284E-06,0.703125,0,0
-1.80910446943017E-05,6.11216410106863E-06,0.703125,0,0
-1.45920103022945E-05,7.52400956116617E-06,0.703125,0,0
-2.19984594878042E-05,1.24478656289284E-05,0.703125,0,0
-1.91028357221512E-05,1.18326133815572E-05,0.703125,0,0
-2.38048414757941E-05,1.19674223242328E-05,0.703125,0,0
-2.09046993404627E-05,9.06518835108727E-06,0.703125,0,0
-2.22355847654399E-05,1.13908254206763E-05,0.703125,0,0
-2.0877791030216E-05,1.05855388028431E-05,0.703125,0,0
-2.20259025809355E-05,1.07933774415869E-05,0.703125,0,0
-2.01487255253596E-05,1.37247343445779E-05,0.703125,0,0
-1.82601797860116E-05,1.47298587762634E-05,0.703125,0,0
-1.78854770638281E-05,1.23975742098992E-05,0.703125,0,0
-1.84203308890574E-05,1.07278283394407E-05,0.703125,0,0
-2.074685653497E-05,1.09849033833598E-05,0.703125,0,0
-2.11484093597392E-05,9.61595287662931E-06,0.703125,0,0
-2.22754097194411E-05,9.37021741265198E-06,0.703125,0,0
-2.17183078348171E-05,8.39048607303994E-06,0.703125,0,0
-2.22968265006784E-05,8.22045694803819E-06,0.703125,0,0
-2.06164731935132E-05,8.93314700078918E-06,0.703125,0,0
-2.08007313631242E-05,1.13308469735784E-05,0.703125,0,0
-2.07427237910451E-05,1.28046258396353E-05,0.703125,0,0
-2.15548498090357E-05,1.26047307276167E-05,0.703125,0,0
-2.13995390367927E-05,9.85568476608023E-06,0.703125,0,0
-2.30557270697318E-05,6.81201390761998E-06,0.703125,0,0
-2.42544301727321E-05,4.58244539913721E-06,0.703125,0,0
-2.38140510191442E-05,5.64708534511738E-06,0.703125,0,0
-2.15013478737092E-05,9.04892931430368E-06,0.703125,0,0
-2.03916388272773E-05,9.81218545348383E-06,0.703125,0,0
-1.8384665963822E-05,5.72587350688991E-06,0.703125,0,0
-2.69065840257099E-05,6.67515359964455E-06,0.703125,0,0
-2.04322532226797E-05,6.12405574429431E-06,0.703125,0,0
-2.55799259321066E-05,9.80609092948725E-06,0.703125,0,0
-2.33046084758826E-05,8.57365830597701E-06,0.703125,0,0
-2.65941253019264E-05,1.2426775356289E-05,0.703125,0,0
-2.67674822680419E-05,1.22541005111998E-05,0.703125,0,0
-2.92505937977694E-05,1.03373204183299E-05,0.703125,0,0
-2.84292309515877E-05,1.1073562745878E-05,0.703125,0,0
-2.65953058260493E-05,1.45661069836933E-05,0.703125,0,0
-2.63252222794108E-05,1.57681497512385E-05,0.703125,0,0
-2.65295620920369E-05,1.55358902702574E-05,0.703125,0,0
-2.79817995760823E-05,1.64407956617652E-05,0.703125,0,0
-2.74275844276417E-05,1.59804003487807E-05,0.703125,0,0
-2.83820772892796E-05,1.57119684445206E-05,0.703125,0,0
-2.78181814792333E-05,1.45644098665798E-05,0.703125,0,0
-2.91143060167087E-05,1.33064922920312E-05,0.703125,0,0
-2.8418229703675E-05,1.09336478999467E-05,0.703125,0,0
-2.93200828309637E-05,1.11784338514553E-05,0.703125,0,0
-2.82707078440581E-05,1.2400670129864E-05,0.703125,0,0
-2.77350663964171E-05,1.38589339258033E-05,0.703125,0,0
-2.63975762209157E-05,1.2906641131849E-05,0.703125,0,0
-2.56479270319687E-05,1.10775590655976E-05,0.703125,0,0
-2.43334416154539E-05,8.91773288458353E-06,0.703125,0,0
-2.50340399361448E-05,9.05303750187159E-06,0.703125,0,0
-2.56980019912589E-05,1.08110598375788E-05,0.703125,0,0
-2.44436978391605E-05,1.12757943497854E-05,0.703125,0,0
-1.81140112545108E-05,1.02148333098739E-05,0.703125,0,0
-2.62584871961735E-05,1.2928004252899E-05,0.703125,0,0
-2.20283582166303E-05,8.6555301095359E-06,0.703125,0,0
-2.78294628515141E-05,1.14044169094996E-05,0.703125,0,0
-2.35569605138153E-05,7.90263857197715E-06,0.703125,0,0
-2.62347512034466E-05,9.51987749431282E-06,0.703125,0,0
-2.5423476472497E-05,8.39543281472288E-06,0.703125,0,0
-2.8608343200176E-05,6.96924325893633E-06,0.703125,0,0
-2.92547138087684E-05,5.05840489495313E-06,0.703125,0,0
-2.92607328447048E-05,5.026276994613E-06,0.703125,0,0
-3.02212920360034E-05,6.12081839790335E-06,0.703125,0,0
-3.07199152302928E-05,7.7466656875913E-06,0.703125,0,0
-3.11991352646146E-05,8.74819670571014E-06,0.703125,0,0
-2.96432008326519E-05,7.03474279362126E-06,0.703125,0,0
-3.11024850816466E-05,9.01761541172164E-06,0.703125,0,0
-3.05769499391317E-05,1.15509783427115E-05,0.703125,0,0
-3.05625835608225E-05,1.28553419926902E-05,0.703125,0,0
-2.74580361292465E-05,1.02335898191086E-05,0.703125,0,0
-2.68700587184867E-05,9.16066528588999E-06,0.703125,0,0
-2.5824559998E-05,8.99987480806885E-06,0.703125,0,0
-2.63114216068061E-05,1.12874959086184E-05,0.703125,0,0
-2.50307966780383E-05,1.25275601021713E-05,0.703125,0,0
-2.49980112130288E-05,1.29202744574286E-05,0.703125,0,0
-2.61535569734406E-05,1.05241861092509E-05,0.703125,0,0
-2.78287570836255E-05,7.74967156758066E-06,0.703125,0,0
-2.67213417828316E-05,6.76099807606079E-06,0.703125,0,0
-2.48314117925474E-05,8.28900283522671E-06,0.703125,0,0
-1.89326947293011E-05,9.40123845794005E-06,0.703125,0,0
-2.68911771854619E-05,1.25540218505193E-05,0.703125,0,0
-2.12668546737405E-05,8.53681649459759E-06,0.703125,0,0
-2.76157406915445E-05,1.14869135359186E-05,0.703125,0,0
-2.42234673351049E-05,1.07670093711931E-05,0.703125,0,0
-2.56383773376001E-05,1.33425810417975E-05,0.703125,0,0
-2.15478503378108E-05,1.15986231321585E-05,0.703125,0,0
-2.17240849451628E-05,1.04638129414525E-05,0.703125,0,0
-2.16800963244168E-05,1.02747389973956E-05,0.703125,0,0
-2.23983151954599E-05,1.02531239463133E-05,0.703125,0,0
-2.24377781705698E-05,7.8562406997662E-06,0.703125,0,0
-2.16380522033433E-05,4.60828277937253E-06,0.703125,0,0
-2.18971981666982E-05,4.70305622002343E-06,0.703125,0,0
-1.94664644368459E-05,4.34361299994634E-06,0.703125,0,0
-1.88854755833745E-05,6.13158863416174E-06,0.703125,0,0
-1.69247232406633E-05,8.20286913949531E-06,0.703125,0,0
-1.81420709850499E-05,9.82154506345978E-06,0.703125,0,0
-1.86778543138644E-05,9.02810825209599E-06,0.703125,0,0
-2.09308727789903E-05,9.13787516765296E-06,0.703125,0,0
-1.98798406927381E-05,8.30894168757368E-06,0.703125,0,0
-2.0574074369506E-05,9.18450223252876E-06,0.703125,0,0
-2.18867426156066E-05,1.0257824214932E-05,0.703125,0,0
-2.38902248383965E-05,1.13115947897313E-05,0.703125,0,0
-2.2198515580385E-05,1.23890222312184E-05,0.703125,0,0
-2.05199339688988E-05,1.23147037811577E-05,0.703125,0,0
-2.0866382328677E-05,9.82835172180785E-06,0.703125,0,0
-2.20754172914894E-05,8.44164060254116E-06,0.703125,0,0
-1.77103120222455E-05,9.68196673056809E-06,0.703125,0,0
-2.39620239881333E-05,1.52993634401355E-05,0.703125,0,0
-1.75937439053087E-05,1.48071339935996E-05,0.703125,0,0
-2.33022074098699E-05,2.01364273380023E-05,0.703125,0,0
-2.09200843528379E-05,1.89069214684423E-05,0.703125,0,0
-2.61552995652892E-05,1.80614624696318E-05,0.703125,0,0
-2.56792591244448E-05,1.38088498715661E-05,0.703125,0,0
-2.66642746282741E-05,1.05604904092615E-05,0.703125,0,0
-2.58773961832048E-05,1.00375209513004E-05,0.703125,0,0
-2.61977147602011E-05,1.07630812635762E-05,0.703125,0,0
-2.71509998128749E-05,1.08243630165816E-05,0.703125,0,0
-2.60702963714721E-05,1.17190120363375E-05,0.703125,0,0
-2.62161447608378E-05,1.31778069771826E-05,0.703125,0,0
-2.53337220783578E-05,1.11511290015187E-05,0.703125,0,0
-2.65203234448563E-05,1.07276100607123E-05,0.703125,0,0
-2.58192776527721E-05,1.2371826414892E-05,0.703125,0,0
-2.73609803116415E-05,1.47687815115205E-05,0.703125,0,0
-2.63925594481407E-05,1.36373200803064E-05,0.703125,0,0
-2.71000499196816E-05,1.18143452709774E-05,0.703125,0,0
-2.75538168352796E-05,1.06257448351244E-05,0.703125,0,0
-2.95716927212197E-05,1.25779624795541E-05,0.703125,0,0
-2.84695543086855E-05,1.55034849740332E-05,0.703125,0,0
-2.80590629699873E-05,1.89239508472383E-05,0.703125,0,0
-2.80808653769782E-05,1.98377547349082E-05,0.703125,0,0
-2.82595665339613E-05,1.8360649846727E-05,0.703125,0,0
-2.66491479123943E-05,1.56914757099003E-05,0.703125,0,0
-2.44419370574178E-05,1.21007515190286E-05,0.703125,0,0
-1.97477529582102E-05,6.1235632529133E-06,0.703125,0,0
-2.84471861959901E-05,7.66234643378994E-06,0.703125,0,0
-2.07004686672008E-05,8.26500217954163E-06,0.703125,0,0
-2.40820554608945E-05,1.33675557663082E-05,0.703125,0,0
-1.99926253117155E-05,1.06143252196489E-05,0.703125,0,0
-2.29422057600459E-05,9.6556004791637E-06,0.703125,0,0
-2.09568370337365E-05,4.83204667034443E-06,0.703125,0,0
-2.23664901568554E-05,1.84351233656344E-06,0.703125,0,0
-2.21430782403331E-05,3.29939439325244E-06,0.703125,0,0
-2.21429254452232E-05,8.56196311360691E-06,0.703125,0,0
-2.32614693231881E-05,1.37393744807923E-05,0.703125,0,0
-2.44020975515014E-05,1.79672861122526E-05,0.703125,0,0
-2.58167146967025E-05,1.90612609003438E-05,0.703125,0,0
-2.44476177613251E-05,1.5488411008846E-05,0.703125,0,0
-2.56208149949089E-05,1.46171032611164E-05,0.703125,0,0
-2.49201020778855E-05,1.48011204146314E-05,0.703125,0,0
-2.5917928724084E-05,1.38906825668528E-05,0.703125,0,0
-2.51765995926689E-05,1.09576949398615E-05,0.703125,0,0
-2.64244990830775E-05,1.13390797196189E-05,0.703125,0,0
-2.53356483881362E-05,1.36487569761812E-05,0.703125,0,0
-2.47724819928408E-05,1.74555934790988E-05,0.703125,0,0
-2.30370460485574E-05,1.90076898434199E-05,0.703125,0,0
-2.37253116210923E-05,1.81914110726211E-05,0.703125,0,0
-2.40546232816996E-05,1.62162832566537E-05,0.703125,0,0
-2.34172766795382E-05,1.48181925396784E-05,0.703125,0,0
-2.17068663914688E-05,1.27359371617786E-05,0.703125,0,0
-2.09698791877599E-05,1.03691318145138E-05,0.703125,0,0
-1.7307369489572E-05,5.0289695536776E-06,0.703125,0,0
-2.58753389061894E-05,4.80441258332576E-06,0.703125,0,0
-2.16674416151363E-05,2.6405539301777E-06,0.703125,0,0
-2.53358848567586E-05,5.90443960390985E-06,0.703125,0,0
-1.98629441001685E-05,6.18631156612537E-06,0.703125,0,0
-2.18670356844086E-05,1.1144089512527E-05,0.703125,0,0
-2.05003580049379E-05,1.29765103338286E-05,0.703125,0,0
-2.2279578843154E-05,1.43266470331582E-05,0.703125,0,0
-2.3348729882855E-05,1.51899939737632E-05,0.703125,0,0
-2.47437546931906E-05,1.45112726386287E-05,0.703125,0,0
-2.59599783021258E-05,1.26281347547774E-05,0.703125,0,0
-2.50077409873484E-05,1.27211251310655E-05,0.703125,0,0
-2.45612791331951E-05,1.35402096930193E-05,0.703125,0,0
-2.26071078941459E-05,1.18936650324031E-05,0.703125,0,0
-2.29233501158888E-05,1.13905489342869E-05,0.703125,0,0
-2.15323616430396E-05,1.11652243504068E-05,0.703125,0,0
-2.20925776375225E-05,1.0653076969902E-05,0.703125,0,0
-2.10958678508177E-05,8.68619736138498E-06,0.703125,0,0
-2.14047431654762E-05,8.53298570291372E-06,0.703125,0,0
-2.04266161745181E-05,7.76883189246291E-06,0.703125,0,0
-2.14491719816579E-05,5.2682785280922E-06,0.703125,0,0
-2.1926960471319E-05,2.21989262172428E-06,0.703125,0,0
-2.26494557864498E-05,3.09957249555737E-06,0.703125,0,0
-2.23009719775291E-05,6.48214745524456E-06,0.703125,0,0
-2.29578672588104E-05,9.74996692093555E-06,0.703125,0,0
-2.30398800340481E-05,9.30399164644768E-06,0.703125,0,0
-2.26245647354517E-05,7.36656420485815E-06,0.703125,0,0
-1.92034294741461E-05,4.63832020614063E-06,0.703125,0,0
-2.74094181804685E-05,4.59736111224629E-06,0.703125,0,0
-2.1121868485352E-05,3.42677435583028E-06,0.703125,0,0
-2.54856931860559E-05,6.35682363281376E-06,0.703125,0,0
-2.06531913136132E-05,4.50805782747921E-06,0.703125,0,0
-2.27692326006945E-05,6.92018011250184E-06,0.703125,0,0
-2.06965341931209E-05,7.54787424739334E-06,0.703125,0,0
-2.17486576730153E-05,6.73438580633956E-06,0.703125,0,0
-2.02550490939757E-05,5.57569728698581E-06,0.703125,0,0
-1.93693213077495E-05,5.08369976159884E-06,0.703125,0,0
-1.83736137842061E-05,4.56271709481371E-06,0.703125,0,0
-1.67840316862566E-05,5.55920451006386E-06,0.703125,0,0
-1.62971919053234E-05,7.14662382961251E-06,0.703125,0,0
-1.47172086144565E-05,4.85170767206E-06,0.703125,0,0
-1.70593393704621E-05,2.63318270299351E-06,0.703125,0,0
-1.79133276105858E-05,2.86202725874318E-06,0.703125,0,0
-1.9928846086259E-05,5.21412903253804E-06,0.703125,0,0
-1.84214932232862E-05,5.69392523175338E-06,0.703125,0,0
-1.80683364305878E-05,5.94658877162146E-06,0.703125,0,0
-1.59470837388653E-05,4.97627252116217E-06,0.703125,0,0
-1.66583631653339E-05,3.70435896002164E-06,0.703125,0,0
-1.83692918653833E-05,2.42437931774475E-06,0.703125,0,0
-2.17992619582219E-05,2.56162638834212E-06,0.703125,0,0
-2.21679092646809E-05,2.48672699854069E-06,0.703125,0,0
-2.18583445530385E-05,3.47159198099689E-06,0.703125,0,0
-2.10422895179363E-05,3.40944211529859E-06,0.703125,0,0
-2.07395405595889E-05,2.85001783595362E-06,0.703125,0,0
-1.73083481058711E-05,3.68591190635925E-06,0.703125,0,0
-2.50845823757118E-05,6.79300228512147E-06,0.703125,0,0
-2.05246233235812E-05,7.29472412785981E-06,0.703125,0,0
-2.66207971435506E-05,9.71183362707961E-06,0.703125,0,0
-2.38806132983882E-05,1.03200763987843E-05,0.703125,0,0
-2.6109439204447E-05,1.28882184071699E-05,0.703125,0,0
-2.47696516453289E-05,1.54488570842659E-05,0.703125,0,0
-2.6705652999226E-05,1.57873528223718E-05,0.703125,0,0
-2.63943747995654E-05,1.59225201059598E-05,0.703125,0,0
-2.57024967140751E-05,1.57210142788244E-05,0.703125,0,0
-2.54651986324461E-05,1.56422083819052E-05,0.703125,0,0
-2.46127874561353E-05,1.71941392181907E-05,0.703125,0,0
-2.49132699536858E-05,1.90450282389065E-05,0.703125,0,0
-2.44655238930136E-05,1.75567438418511E-05,0.703125,0,0
-2.61917848547455E-05,1.54733170347754E-05,0.703125,0,0
-2.53362377407029E-05,1.41743876156397E-05,0.703125,0,0
-2.57897136179963E-05,1.23529425763991E-05,0.703125,0,0
-2.41082252614433E-05,1.02624544524588E-05,0.703125,0,0
-2.41484794969438E-05,1.12463167170063E-05,0.703125,0,0
-2.28175595111679E-05,1.50836385728326E-05,0.703125,0,0
-2.31880221690517E-05,1.76396442839177E-05,0.703125,0,0
-2.32578950090101E-05,1.68662791111274E-05,0.703125,0,0
-2.47002644755412E-05,1.42658991535427E-05,0.703125,0,0
-2.5947943868232E-05,1.20800204967964E-05,0.703125,0,0
-2.67171544692246E-05,1.3351902452996E-05,0.703125,0,0
-2.68609182967339E-05,1.77373567566974E-05,0.703125,0,0
-2.71150129265152E-05,2.11153073905734E-05,0.703125,0,0
-2.11044225579826E-05,1.88896119652782E-05,0.703125,0,0
-2.98624308925355E-05,2.57474421232473E-05,0.703125,0,0
-2.30498990276828E-05,1.60962536028819E-05,0.703125,0,0
-2.88714982161764E-05,1.75626628333703E-05,0.703125,0,0
-2.44705097429687E-05,1.12398010969628E-05,0.703125,0,0
-2.86914637399605E-05,1.40916317832307E-05,0.703125,0,0
-2.74356953013921E-05,1.34606852952857E-05,0.703125,0,0
-2.81898774119327E-05,1.58532602654304E-05,0.703125,0,0
-2.67768500634702E-05,1.62468386406545E-05,0.703125,0,0
-2.71504741249373E-05,1.47121509144199E-05,0.703125,0,0
-2.8861832106486E-05,1.32072455016896E-05,0.703125,0,0
-2.89820618490921E-05,1.4104799447523E-05,0.703125,0,0
-2.955836498586E-05,1.63661516126012E-05,0.703125,0,0
-2.77288290817523E-05,1.54674526129384E-05,0.703125,0,0
-2.76251394097926E-05,1.73085390997585E-05,0.703125,0,0
-2.53486905421596E-05,1.68925689649768E-05,0.703125,0,0
-2.62249486695509E-05,1.56699534272775E-05,0.703125,0,0
-2.53737052844372E-05,1.23082809295738E-05,0.703125,0,0
-2.66820279648528E-05,1.37603183247847E-05,0.703125,0,0
-2.53051712206798E-05,1.45336798595963E-05,0.703125,0,0
-2.47559182753321E-05,1.57332415255951E-05,0.703125,0,0
-2.35552488447865E-05,1.48204235301819E-05,0.703125,0,0
-2.4688368284842E-05,1.61910447786795E-05,0.703125,0,0
-2.49250460910844E-05,1.74191045516636E-05,0.703125,0,0
-2.5323459340143E-05,1.75744917214615E-05,0.703125,0,0
-2.4844310246408E-05,1.68489350471646E-05,0.703125,0,0
-2.34564722632058E-05,1.38760569825536E-05,0.703125,0,0
-1.77121419255855E-05,8.20692184788641E-06,0.703125,0,0
-2.51449764618883E-05,1.03887077784748E-05,0.703125,0,0
-1.90579048648942E-05,8.05570562079083E-06,0.703125,0,0
-2.34245399042265E-05,1.08280673885019E-05,0.703125,0,0
-2.01275797735434E-05,9.10952167032519E-06,0.703125,0,0
-2.28501212404808E-05,1.22967248898931E-05,0.703125,0,0
-2.13107941817725E-05,1.13090682134498E-05,0.703125,0,0
-2.32189340749756E-05,1.03040038084146E-05,0.703125,0,0
-2.31137928494718E-05,1.08522017399082E-05,0.703125,0,0
-2.33893297263421E-05,1.33504827317665E-05,0.703125,0,0
-2.31703379540704E-05,1.51771801029099E-05,0.703125,0,0
-2.24922332563438E-05,1.48695653479081E-05,0.703125,0,0
-2.37190979532897E-05,1.28221108752768E-05,0.703125,0,0
-2.33356513490435E-05,9.59445878834231E-06,0.703125,0,0
-2.4826442313497E-05,1.0721340913733E-05,0.703125,0,0
-2.47474054049235E-05,1.31976667034905E-05,0.703125,0,0
-2.66967726929579E-05,1.44557607200113E-05,0.703125,0,0
-2.62735338765197E-05,1.07015266621602E-05,0.703125,0,0
-2.64471273112576E-05,6.9281877586036E-06,0.703125,0,0
-2.26041574933333E-05,2.81194888884784E-06,0.703125,0,0
-1.97496574401157E-05,1.04164519143524E-06,0.703125,0,0
-1.89423390111187E-05,2.35672564485867E-06,0.703125,0,0
-2.10602902370738E-05,6.7961686909257E-06,0.703125,0,0
-2.08376586670056E-05,1.01123614513199E-05,0.703125,0,0
-2.02773226192221E-05,1.30370872284402E-05,0.703125,0,0
-2.03534164029406E-05,1.42872841024655E-05,0.703125,0,0
-2.21719164983369E-05,1.27448947750963E-05,0.703125,0,0
-2.0020659576403E-05,9.80653749138583E-06,0.703125,0,0
-2.89645704469876E-05,1.45865960803349E-05,0.703125,0,0
-2.22002927330323E-05,1.20837439681054E-05,0.703125,0,0
-2.6956216970575E-05,1.39885969474562E-05,0.703125,0,0
-2.33573991863523E-05,1.23380214063218E-05,0.703125,0,0
-2.67392551904777E-05,1.59352348418906E-05,0.703125,0,0
-2.52381923928624E-05,1.44487903526169E-05,0.703125,0,0
-2.64395239355508E-05,1.26092027130653E-05,0.703125,0,0
-2.51764740824001E-05,1.14975791802863E-05,0.703125,0,0
-2.41970647039125E-05,1.05502313090255E-05,0.703125,0,0
-2.3183169105323E-05,9.5253526524175E-06,0.703125,0,0
-2.14617411984364E-05,1.11948556877906E-05,0.703125,0,0
-2.13892162719276E-05,1.43034812936094E-05,0.703125,0,0
-2.01803795789601E-05,1.28434176076553E-05,0.703125,0,0
-2.19063149415888E-05,9.95307618723018E-06,0.703125,0,0
-2.1855326849618E-05,6.1902519519208E-06,0.703125,0,0
-2.34895069297636E-05,4.96408392791636E-06,0.703125,0,0
-2.18155328184366E-05,4.75477918371325E-06,0.703125,0,0
-2.13464882108383E-05,6.44934425508836E-06,0.703125,0,0
-1.92185871128459E-05,6.22675952399732E-06,0.703125,0,0
-1.97525787370978E-05,6.27895815341617E-06,0.703125,0,0
-2.06782260647742E-05,6.47558181299246E-06,0.703125,0,0
-2.30392342928099E-05,6.2081044234219E-06,0.703125,0,0
-2.28002154472051E-05,5.22733262187103E-06,0.703125,0,0
-2.17478482227307E-05,6.45968975732103E-06,0.703125,0,0
-2.21744776354171E-05,8.14414852357004E-06,0.703125,0,0
-2.3742912162561E-05,9.75360126176383E-06,0.703125,0,0
-1.81134037120501E-05,9.27262317418354E-06,0.703125,0,0
-2.46812942350516E-05,1.38014147523791E-05,0.703125,0,0
-1.85980206879321E-05,9.98644645733293E-06,0.703125,0,0
-2.42138885369059E-05,1.00082352219033E-05,0.703125,0,0
-2.005802707572E-05,7.0141131800483E-06,0.703125,0,0
-2.19349803955993E-05,9.06419154489413E-06,0.703125,0,0
-1.80453789653257E-05,8.33415651868563E-06,0.703125,0,0
-1.85850494744955E-05,8.14012400951469E-06,0.703125,0,0
-1.98460911633447E-05,1.12845173134701E-05,0.703125,0,0
-2.18987552216277E-05,1.45710146171041E-05,0.703125,0,0
-2.25389667320997E-05,1.36573298732401E-05,0.703125,0,0
-2.17169472307432E-05,1.25804463095847E-05,0.703125,0,0
-2.26608553930419E-05,1.36942344397539E-05,0.703125,0,0
-2.24165996769443E-05,1.29022564578918E-05,0.703125,0,0
-2.42114529100945E-05,1.26337008623523E-05,0.703125,0,0
-2.34706894843839E-05,1.25786955322837E-05,0.703125,0,0
-2.50734174187528E-05,1.3418949492916E-05,0.703125,0,0
-2.57746232819045E-05,1.31542337840074E-05,0.703125,0,0
-2.78222578344867E-05,1.41432765303762E-05,0.703125,0,0
-2.52460758929374E-05,1.4012339306646E-05,0.703125,0,0
-2.29911456699483E-05,1.37077659019269E-05,0.703125,0,0
-2.16113494388992E-05,1.23047393572051E-05,0.703125,0,0
-2.27226464630803E-05,1.05582075775601E-05,0.703125,0,0
-2.26026077143615E-05,9.78021762421122E-06,0.703125,0,0
-2.25088315346511E-05,1.21437888083165E-05,0.703125,0,0
-2.24396062549204E-05,1.41590289786109E-05,0.703125,0,0
-2.35317165788729E-05,1.34444062496186E-05,0.703125,0,0
-1.97537574422313E-05,9.392644642503E-06,0.703125,0,0
-2.83102162939031E-05,1.36184817165486E-05,0.703125,0,0
-2.25392359425314E-05,9.54199822444934E-06,0.703125,0,0
-2.85247842839453E-05,7.33262277208269E-06,0.703125,0,0
-2.3735745344311E-05,6.63178184368007E-07,0.703125,0,0
-2.56221592280781E-05,3.55083830072545E-06,0.703125,0,0
-2.44592374656349E-05,5.85538600716973E-06,0.703125,0,0
-2.66825445578434E-05,6.52475773676997E-06,0.703125,0,0
-2.64669488387881E-05,4.99681391374907E-06,0.703125,0,0
-2.65317157754907E-05,3.62292985300883E-06,0.703125,0,0
-2.69250613200711E-05,4.94485902891029E-06,0.703125,0,0
-2.58535201282939E-05,7.57806174078723E-06,0.703125,0,0
-2.57155606959714E-05,7.96010044723516E-06,0.703125,0,0
-2.54375736403745E-05,5.28629107066081E-06,0.703125,0,0
-2.82156579487491E-05,5.30551142219338E-06,0.703125,0,0
-2.78124625765486E-05,5.71717691855156E-06,0.703125,0,0
-2.83495719486382E-05,6.4620076045685E-06,0.703125,0,0
-2.69886768364813E-05,6.23103733232711E-06,0.703125,0,0
-2.81041902780999E-05,7.70730821386678E-06,0.703125,0,0
-2.72523993771756E-05,8.66029131429968E-06,0.703125,0,0
-2.76257014775183E-05,8.92455682333093E-06,0.703125,0,0
-2.66612987616099E-05,7.34900049792486E-06,0.703125,0,0
-2.65604903688654E-05,7.30952388039441E-06,0.703125,0,0
-2.58704840234714E-05,7.73730243963655E-06,0.703125,0,0
-2.62558951362735E-05,8.33959256851813E-06,0.703125,0,0
-2.74733974947594E-05,8.40069515106734E-06,0.703125,0,0
-2.872373079299E-05,7.62371337259538E-06,0.703125,0,0
-2.28778717428213E-05,4.77161938761128E-06,0.703125,0,0
-3.11896073981188E-05,4.53112352261087E-06,0.703125,0,0
-2.19901503442088E-05,1.5438815808011E-06,0.703125,0,0
-2.92315489787143E-05,4.52166796094389E-06,0.703125,0,0
-2.63858146354323E-05,3.09459323943884E-06,0.703125,0,0
-2.94608944386709E-05,3.58692227564461E-06,0.703125,0,0
-2.63553047261667E-05,3.99530563299777E-06,0.703125,0,0
-2.76442715403391E-05,3.21008315040672E-06,0.703125,0,0
-2.64175632764818E-05,2.32416527978785E-06,0.703125,0,0
-2.55357736023143E-05,3.29816202793154E-06,0.703125,0,0
-2.39624387177173E-05,3.83688256988535E-06,0.703125,0,0
-2.12929444387555E-05,3.58934835276159E-06,0.703125,0,0
-2.17587130464381E-05,3.212957381038E-06,0.703125,0,0
-2.11535134440055E-05,2.06585946216364E-06,0.703125,0,0
-2.28589997277595E-05,3.15233069159149E-06,0.703125,0,0
-2.22877188207349E-05,5.29211865796242E-06,1.58203125,0,0
-2.52854388236301E-05,8.25946608529193E-06,1.58203125,0,0
-2.56990824709646E-05,1.01909117802279E-05,1.58203125,0,0
-2.70471082330914E-05,1.14668182504829E-05,1.58203125,0,0
-2.5188242943841E-05,1.12022271423484E-05,1.58203125,0,0
-2.45946230279515E-05,1.07742635009345E-05,1.58203125,0,0
-2.28108456212794E-05,1.06277757367934E-05,1.58203125,0,0
-2.2958280169405E-05,1.18161260616034E-05,1.58203125,0,0
-2.19730882236036E-05,1.23300587802078E-05,1.58203125,0,0
-2.26894771913067E-05,1.31466204038588E-05,1.58203125,0,0
-2.49401546170702E-05,1.33850735437591E-05,1.58203125,0,0
-2.65099406533409E-05,1.34447527671E-05,1.58203125,0,0
-2.11209971894277E-05,1.29257068692823E-05,1.58203125,0,0
-2.97140450129518E-05,1.81264567800099E-05,1.58203125,0,0
-2.26227093662601E-05,1.3120578842063E-05,1.58203125,0,0
-2.90571060759248E-05,1.5172129678831E-05,1.58203125,0,0
-2.48872420343105E-05,1.10655782918911E-05,1.58203125,0,0
-2.64833761320915E-05,1.25766846394981E-05,1.58203125,0,0
-2.35392144531943E-05,9.11238021217287E-06,1.58203125,0,0
-2.4845969164744E-05,5.69051144339028E-06,1.58203125,0,0
-2.39504679484526E-05,3.58363217856095E-06,1.58203125,0,0
-2.37496788031422E-05,3.42591874868958E-06,1.58203125,0,0
-2.35694660659647E-05,4.06607114200597E-06,1.58203125,0,0
-2.24273280764464E-05,6.07274341746233E-06,1.58203125,0,0
-2.34597373491852E-05,8.17592808743939E-06,1.58203125,0,0
-2.39095443248516E-05,6.99246083968319E-06,1.58203125,0,0
-2.70931577688316E-05,7.30932470105472E-06,1.58203125,0,0
-2.6042444005725E-05,8.49259231472388E-06,1.58203125,0,0
-2.50955708906986E-05,1.282739231101E-05,1.58203125,0,0
-2.21015852730488E-05,1.49830784721416E-05,1.58203125,0,0
-2.29451907216571E-05,1.59591818373883E-05,1.58203125,0,0
-2.23161259782501E-05,1.52849206642713E-05,1.58203125,0,0
-2.20889742195141E-05,1.75155182660092E-05,1.58203125,0,0
-1.9956954929512E-05,1.91360395547235E-05,1.58203125,0,0
-1.96863365999889E-05,2.01770453713834E-05,1.58203125,0,0
-1.92146653716918E-05,1.99364494619658E-05,1.58203125,0,0
-1.976223938982E-05,1.86490506166592E-05,1.58203125,0,0
-1.91917570191436E-05,1.6593712643953E-05,1.58203125,0,0
-1.80006227310514E-05,1.60066610987997E-05,1.58203125,0,0
-1.48690487549175E-05,1.18549505714327E-05,1.58203125,0,0
-2.26425818254938E-05,1.60374656843487E-05,1.58203125,0,0
-1.89005277206888E-05,1.1947876373597E-05,1.58203125,0,0
-2.35085135500412E-05,1.4956551240175E-05,1.58203125,0,0
-2.21330465137726E-05,1.11250410554931E-05,1.58203125,0,0
-2.37561453104718E-05,1.30903263197979E-05,1.58203125,0,0
-2.18452059925767E-05,1.09037191577954E-05,1.58203125,0,0
-2.24455961870262E-05,1.0227348866465E-05,1.58203125,0,0
-2.09786903724307E-05,1.18565867524012E-05,1.58203125,0,0
-1.95620814338326E-05,1.17377412607311E-05,1.58203125,0,0
-1.91163489944302E-05,9.10530889086658E-06,1.58203125,0,0
-1.91289127542404E-05,9.17707075132057E-06,1.58203125,0,0
-2.07321336347377E-05,1.1567554793146E-05,1.58203125,0,0
-2.19269568333402E-05,1.09408219941542E-05,1.58203125,0,0
-2.48998076131102E-05,1.18407997433678E-05,1.58203125,0,0
-2.51676065090578E-05,1.3856171790394E-05,1.58203125,0,0
-2.55106151598739E-05,1.65854416991351E-05,1.58203125,0,0
-2.45504324993817E-05,1.46174115798203E-05,1.58203125,0,0
-2.56443781836424E-05,1.29312466015108E-05,1.58203125,0,0
-2.5275972802774E-05,1.20572858577361E-05,1.58203125,0,0
-2.59267635556171E-05,1.19010874186642E-05,1.58203125,0,0
-2.62881731032394E-05,9.05708202481037E-06,1.58203125,0,0
-2.65692160610342E-05,8.22827223601053E-06,1.58203125,0,0
-2.44667280639987E-05,9.58544842433184E-06,1.58203125,0,0
-2.22225244215224E-05,1.19451888167532E-05,1.58203125,0,0
-2.17407177842688E-05,1.34492611323367E-05,1.58203125,0,0
-2.28958233492449E-05,1.33905559778214E-05,1.58203125,0,0
-1.81008872459643E-05,8.31078341434477E-06,1.58203125,0,0
-2.42979494942119E-05,1.1275594260951E-05,1.58203125,0,0
-1.59909213834908E-05,1.05113840618287E-05,1.58203125,0,0
-2.11196838790784E-05,1.37530896608951E-05,1.58203125,0,0
-1.98504076251993E-05,9.17165561986621E-06,1.58203125,0,0
-2.41110737988492E-05,9.91729757515714E-06,1.58203125,0,0
-2.23866700252984E-05,8.11779591458617E-06,1.58203125,0,0
-2.3707654690952E-05,1.00687821031897E-05,1.58203125,0,0
-2.2593518224312E-05,1.30269609144307E-05,1.58203125,0,0
-2.17640917981043E-05,1.22180608741473E-05,1.58203125,0,0
-2.12819923035568E-05,1.08577542050625E-05,1.58203125,0,0
-2.0762452550116E-05,1.01165305750328E-05,1.58203125,0,0
-2.33264563576085E-05,9.72752968664281E-06,1.58203125,0,0
-2.44033599301474E-05,6.94338132234407E-06,1.58203125,0,0
-2.59232365351636E-05,5.81748099648394E-06,1.58203125,0,0
-2.47640964516904E-05,6.12387202636455E-06,1.58203125,0,0
-2.66293118329486E-05,8.10306664789096E-06,1.58203125,0,0
-2.68476815108443E-05,7.84914573159767E-06,1.58203125,0,0
-2.7926153052249E-05,8.54122299642768E-06,1.58203125,0,0
-2.62672456301516E-05,9.67070627666544E-06,1.58203125,0,0
-2.53176258411258E-05,1.09320317278616E-05,1.58203125,0,0
-2.36559044424212E-05,1.14914200821659E-05,1.58203125,0,0
-2.43420636252267E-05,1.2085511116311E-05,1.58203125,0,0
-2.5150988221867E-05,1.03241172837443E-05,1.58203125,0,0
-2.59862990787951E-05,7.45606394048082E-06,1.58203125,0,0
-2.61769000644563E-05,6.41110273136292E-06,1.58203125,0,0
-2.74885987892048E-05,8.41265955386916E-06,1.58203125,0,0
-2.24609284487087E-05,8.99654696695507E-06,1.58203125,0,0
-3.06184083456174E-05,1.39447101901169E-05,1.58203125,0,0
-2.21705449803267E-05,1.26015665955492E-05,1.58203125,0,0
-2.98768336506328E-05,1.39372541525518E-05,1.58203125,0,0
-2.61077384493547E-05,1.05158278529416E-05,1.58203125,0,0
-2.73368059424683E-05,1.39883741212543E-05,1.58203125,0,0
-2.33710470638471E-05,1.43214383570012E-05,1.58203125,0,0
-2.5275972802774E-05,1.11791223389446E-05,1.58203125,0,0
-2.4812901756377E-05,9.32854709390085E-06,1.58203125,0,0
-2.45729734160705E-05,1.06480902104522E-05,1.58203125,0,0
-2.47652769758133E-05,1.20013728519552E-05,1.58203125,0,0
-2.48339038080303E-05,1.34604533741367E-05,1.58203125,0,0
-2.57009160122834E-05,1.46320489875507E-05,1.58203125,0,0
-2.26015854423167E-05,1.34891688503558E-05,1.58203125,0,0
-2.19241574086482E-05,1.30363778225728E-05,1.58203125,0,0
-2.04913194465917E-05,1.19861942948774E-05,1.58203125,0,0
-2.28356966545107E-05,1.14619633677648E-05,1.58203125,0,0
-2.22987910092343E-05,9.85985479928786E-06,1.58203125,0,0
-2.36926080106059E-05,9.6650928753661E-06,1.58203125,0,0
-2.32853599300142E-05,1.01203286249074E-05,1.58203125,0,0
-2.45866394834593E-05,1.20031199912773E-05,1.58203125,0,0
-2.40129083977081E-05,1.16935898404336E-05,1.58203125,0,0
-2.46123927354347E-05,1.06387269624975E-05,1.58203125,0,0
-2.43308113567764E-05,1.11726913019083E-05,1.58203125,0,0
-2.47718435275601E-05,1.31037668325007E-05,1.58203125,0,0
-2.45792361965869E-05,1.20037993838196E-05,1.58203125,0,0
-2.38050051848404E-05,9.44277508097002E-06,1.58203125,0,0
-1.88152789633023E-05,6.27339932179893E-06,1.58203125,0,0
-2.6809384507942E-05,8.49705429573078E-06,1.58203125,0,0
-2.0318097085692E-05,7.73995452618692E-06,1.58203125,0,0
-2.47167172346963E-05,9.64230275712907E-06,1.58203125,0,0
-2.18179648072692E-05,5.20419825988938E-06,1.58203125,0,0
-2.55474933510413E-05,4.10195934819058E-06,1.58203125,0,0
-2.32980401051464E-05,1.90682317224855E-06,1.58203125,0,0
-2.31120484386338E-05,3.06908737002232E-06,1.58203125,0,0
-2.13658659049543E-05,7.56695317249978E-06,1.58203125,0,0
-2.20112542592688E-05,1.12863799586194E-05,1.58203125,0,0
-2.33521659538383E-05,1.25658270917484E-05,1.58203125,0,0
-2.24895957217086E-05,1.29989557535737E-05,1.58203125,0,0
-2.23604911298025E-05,1.14244849100942E-05,1.58203125,0,0
-2.13031180464895E-05,7.16843305781367E-06,1.58203125,0,0
-2.289873555128E-05,6.4820665102161E-06,1.58203125,0,0
-2.28145781875355E-05,8.56988390296465E-06,1.58203125,0,0
-2.46023155341391E-05,1.06349325506017E-05,1.58203125,0,0
-2.3760185285937E-05,1.01922651083441E-05,1.58203125,0,0
-2.46383679041173E-05,1.13295327537344E-05,1.58203125,0,0
-2.46719537244644E-05,1.32094655782566E-05,1.58203125,0,0
-2.69136198767228E-05,1.56245550897438E-05,1.58203125,0,0
-2.68585408775834E-05,1.70046259881929E-05,1.58203125,0,0
-2.60094275290612E-05,1.90891478268895E-05,1.58203125,0,0
-2.35171137319412E-05,2.03230829356471E-05,1.58203125,0,0
-2.21678037632955E-05,1.99415535462322E-05,1.58203125,0,0
-2.0867842977168E-05,1.81956165761221E-05,1.58203125,0,0
-2.16168082260992E-05,1.64188240887597E-05,1.58203125,0,0
-1.82458188646706E-05,1.34728725242894E-05,1.58203125,0,0
-2.46140225499403E-05,1.9951645299443E-05,1.58203125,0,0
-1.79833077709191E-05,1.70085386343999E-05,1.58203125,0,0
-2.55968861893052E-05,1.95042430277681E-05,1.58203125,0,0
-2.41980505961692E-05,1.2795032489521E-05,1.58203125,0,0
-2.61085569945863E-05,1.35522777782171E-05,1.58203125,0,0
-2.22575527004665E-05,1.20125796456705E-05,1.58203125,0,0
-2.28994631470414E-05,1.09844786493341E-05,1.58203125,0,0
-2.21610844164388E-05,1.04634082163102E-05,1.58203125,0,0
-2.16080843529198E-05,1.08940430436633E-05,1.58203125,0,0
-2.14532938116463E-05,9.67185678746318E-06,1.58203125,0,0
-2.13632483792026E-05,6.47107572149253E-06,1.58203125,0,0
-2.27773580263602E-05,2.47060597757809E-06,1.58203125,0,0
-2.13261519093066E-05,-3.55223050974018E-06,1.58203125,0,0
-2.17522156162886E-05,-3.95616689274902E-06,1.58203125,0,0
-2.10212328966009E-05,-1.70468103988242E-06,1.58203125,0,0
-2.24240520765306E-05,1.24927282740828E-06,1.58203125,0,0
-2.13190032809507E-05,8.21937817363505E-07,1.58203125,0,0
-2.22082271648105E-05,3.28379201164353E-06,1.58203125,0,0
-2.17114229599247E-05,7.65944696468068E-06,1.58203125,0,0
-2.22717499127612E-05,1.28604915516917E-05,1.58203125,0,0
-2.14002920984058E-05,1.42571389005752E-05,1.58203125,0,0
-2.18432560359361E-05,1.37249653562321E-05,1.58203125,0,0
-2.14608444366604E-05,1.18081898108358E-05,1.58203125,0,0
-2.13680723391008E-05,1.06911293187295E-05,1.58203125,0,0
-2.18264303839533E-05,1.04464788819314E-05,1.58203125,0,0
-2.26704778469866E-05,9.75305829342688E-06,1.58203125,0,0
-1.75762488652254E-05,5.87558906772756E-06,1.58203125,0,0
-2.33722821576521E-05,7.51281322663999E-06,1.58203125,0,0
-1.64953526109457E-05,7.49187984183664E-06,1.58203125,0,0
-2.1737951101386E-05,1.13467276605661E-05,1.58203125,0,0
-1.87395180546446E-05,1.03253123597824E-05,1.58203125,0,0
-2.22083908738568E-05,1.29350883071311E-05,1.58203125,0,0
-2.0274617781979E-05,1.41707887451048E-05,1.58203125,0,0
-2.13995426747715E-05,1.47561204357771E-05,1.58203125,0,0
-2.16043608816108E-05,1.17739318739041E-05,1.58203125,0,0
-2.30487494263798E-05,8.23184564069379E-06,1.58203125,0,0
-2.3731427063467E-05,5.32140438735951E-06,1.58203125,0,0
-2.25567182496889E-05,4.49466506324825E-06,1.58203125,0,0
-2.26306437980384E-05,4.58239492218127E-06,1.58203125,0,0
-2.11113474506419E-05,3.51582639268599E-06,1.58203125,0,0
-2.1514986656257E-05,4.40709527538274E-06,1.58203125,0,0
-2.01532511709956E-05,5.90409217693377E-06,1.58203125,0,0
-2.20099645957816E-05,8.49490515975049E-06,1.58203125,0,0
-2.22336348087993E-05,9.30907299334649E-06,1.58203125,0,0
-2.34924409596715E-05,1.07473542811931E-05,1.58203125,0,0
-2.3081191102392E-05,1.13500354927965E-05,1.58203125,0,0
-2.4978526198538E-05,1.17778681669733E-05,1.58203125,0,0
-2.54146707447944E-05,1.13603846330079E-05,1.58203125,0,0
-2.60828837781446E-05,1.12060333776753E-05,1.58203125,0,0
-2.58904856309528E-05,1.00088418548694E-05,1.58203125,0,0
-2.64704885921674E-05,1.06671777757583E-05,1.58203125,0,0
-2.68751973635517E-05,1.42831422635936E-05,1.58203125,0,0
-2.65043945546495E-05,1.76722605829127E-05,1.58203125,0,0
-2.08412093343213E-05,1.23729441838805E-05,1.58203125,0,0
-3.06499023281503E-05,1.47351120176609E-05,1.58203125,0,0
-2.52407717198366E-05,7.810941497155E-06,1.58203125,0,0
-3.03685210383264E-05,9.77613581198966E-06,1.58203125,0,0
-2.32164238695987E-05,5.74930845687049E-06,1.58203125,0,0
-2.34468607231975E-05,9.60983470577048E-06,1.58203125,0,0
-2.12523118534591E-05,9.35789194045356E-06,1.58203125,0,0
-2.33442424359964E-05,1.06614224932855E-05,1.58203125,0,0
-2.25260810111649E-05,1.25364504128811E-05,1.58203125,0,0
-2.18419409065973E-05,1.50010964716785E-05,1.58203125,0,0
-2.27748842007713E-05,1.66015288414201E-05,1.58203125,0,0
-2.37906879192451E-05,1.86318320629653E-05,1.58203125,0,0
-2.57084993791068E-05,2.01151942746947E-05,1.58203125,0,0
-2.42765581788262E-05,1.81760860868962E-05,1.58203125,0,0
-2.39500513998792E-05,1.9872195480275E-05,1.58203125,0,0
-2.29630422836635E-05,2.25387775572017E-05,1.58203125,0,0
-2.62322591879638E-05,2.54659717029426E-05,1.58203125,0,0
-2.64129157585558E-05,2.3779044568073E-05,1.58203125,0,0
-2.55859704338945E-05,2.12855575227877E-05,1.58203125,0,0
-2.12129616556922E-05,1.68454243976157E-05,1.58203125,0,0
-1.92497082025511E-05,1.49956122186268E-05,1.58203125,0,0
-1.91247945622308E-05,1.38643226819113E-05,1.58203125,0,0
-2.2038160750526E-05,1.35938571474981E-05,1.58203125,0,0
-2.35593834077008E-05,1.33414605443249E-05,1.58203125,0,0
-2.51254459726624E-05,1.36096650749096E-05,1.58203125,0,0
-2.47150583163602E-05,1.18587695396855E-05,1.58203125,0,0
-2.34030339925084E-05,1.0881073649216E-05,1.58203125,0,0
-1.94890653801849E-05,1.09224711195566E-05,1.58203125,0,0
-2.89671625068877E-05,1.74211199919228E-05,1.58203125,0,0
-2.37794392887736E-05,1.50753721754882E-05,1.58203125,0,0
-2.88620267383521E-05,1.60082436195808E-05,1.58203125,0,0
-2.51856145041529E-05,1.03186384876608E-05,1.58203125,0,0
-2.81285156233935E-05,9.70439305092441E-06,1.58203125,0,0
-2.69183165073628E-05,9.48572414927185E-06,1.58203125,0,0
-2.8719259717036E-05,8.68696952238679E-06,1.58203125,0,0
-2.79003688774537E-05,8.36332583276089E-06,1.58203125,0,0
-2.73351943178568E-05,1.01441128208535E-05,1.58203125,0,0
-2.72329398285365E-05,1.11785311673884E-05,1.58203125,0,0
-2.61158729699673E-05,1.14180802484043E-05,1.58203125,0,0
-2.61913828580873E-05,1.15165730676381E-05,1.58203125,0,0
-2.53416164923692E-05,1.03411257441621E-05,1.58203125,0,0
-2.60651177086402E-05,1.22663032016135E-05,1.58203125,0,0
-2.4415023290203E-05,1.51465101225767E-05,1.58203125,0,0
-2.59274074778659E-05,1.75889072124846E-05,1.58203125,0,0
-2.59388725680765E-05,1.59967403305927E-05,1.58203125,0,0
-2.69960328296293E-05,1.33869216369931E-05,1.58203125,0,0
-2.60332744801417E-05,8.51018376124557E-06,1.58203125,0,0
-2.69690790446475E-05,3.55677389052289E-06,1.58203125,0,0
-2.51411038334481E-05,7.55967050736217E-07,1.58203125,0,0
-2.33803057199111E-05,4.0432610148855E-06,1.58203125,0,0
-2.3036742277327E-05,9.3640683189733E-06,1.58203125,0,0
-2.33583541557891E-05,1.24512434922508E-05,3.33984375,0,0
-2.13627117773285E-05,1.22549845400499E-05,3.33984375,0,0
-1.94498115888564E-05,9.99894382402999E-06,3.33984375,0,0
-1.59542978508398E-05,4.76750710731721E-06,3.33984375,0,0
-2.28776389121776E-05,4.66879691884969E-06,3.33984375,0,0
-1.86777724593412E-05,3.49858419212978E-06,3.33984375,0,0
-2.49608583544614E-05,7.68533300288254E-06,3.33984375,0,0
-2.36445703194477E-05,7.11424991095555E-06,3.33984375,0,0
-2.58875443250872E-05,9.1358933786978E-06,3.33984375,0,0
-2.31212616199628E-05,8.00412271928508E-06,3.33984375,0,0
-2.34326635109028E-05,6.40762709736009E-06,3.33984375,0,0
-2.32760939979926E-05,4.88821251565241E-06,3.33984375,0,0
-2.32597212743713E-05,3.10920381707547E-06,3.33984375,0,0
-2.32450893236091E-05,2.11330848287616E-06,3.33984375,0,0
-2.37802596529946E-05,4.30024556408171E-06,3.33984375,0,0
-2.61465356743429E-05,8.5533911260427E-06,3.33984375,0,0
-2.66204369836487E-05,1.06500110632624E-05,3.33984375,0,0
-2.8158727218397E-05,1.17896797746653E-05,3.33984375,0,0
-2.72775960183935E-05,1.15422435555956E-05,3.33984375,0,0
-2.77124345302582E-05,1.04490163721493E-05,3.33984375,0,0
-2.71729131782195E-05,6.81184701534221E-06,3.33984375,0,0
-2.85870701191016E-05,4.38081360698561E-06,3.33984375,0,0
-2.78906754829222E-05,4.2680794649641E-06,3.33984375,0,0
-2.76641749223927E-05,8.01409078121651E-06,3.33984375,0,0
-2.54663409577915E-05,1.20342929221806E-05,3.33984375,0,0
-2.36680898524355E-05,1.42789240271668E-05,3.33984375,0,0
-2.21276422962546E-05,1.39050835059606E-05,3.33984375,0,0
-2.16574208025122E-05,9.91602064459585E-06,3.33984375,0,0
-2.01512393687153E-05,2.36359073824133E-06,3.33984375,0,0
-2.00913345906883E-05,-2.16218450077577E-06,3.33984375,0,0
-1.85264198080404E-05,-1.06631250673672E-06,3.33984375,0,0
-2.74896538030589E-05,6.64905428493512E-07,3.33984375,0,0
-2.10300604521763E-05,3.2254636153084E-06,3.33984375,0,0
-2.39555556618143E-05,2.63365927821724E-06,3.33984375,0,0
-1.94050717254868E-05,3.03536535284366E-06,3.33984375,0,0
-2.1423295038403E-05,5.3963717618899E-06,3.33984375,0,0
-1.92112984223058E-05,9.54790357354796E-06,3.33984375,0,0
-2.00610211322783E-05,1.00469942481141E-05,3.33984375,0,0
-2.07875873456942E-05,9.3121570898802E-06,3.33984375,0,0
-2.20926085603423E-05,8.79278650245396E-06,3.33984375,0,0
-2.25283201871207E-05,9.56476105784532E-06,3.33984375,0,0
-2.26361080422066E-05,1.1222103239561E-05,3.33984375,0,0
-2.48682208621176E-05,1.09340335257002E-05,3.33984375,0,0
-2.47120115091093E-05,8.70682470122119E-06,3.33984375,0,0
-2.5396480850759E-05,7.09738742443733E-06,3.33984375,0,0
-2.3072027033777E-05,8.13612223282689E-06,3.33984375,0,0
-2.1919464415987E-05,9.35665320866974E-06,3.33984375,0,0
-2.03004146897001E-05,1.11807466964819E-05,3.33984375,0,0
-2.19245521293487E-05,1.45441536005819E-05,3.33984375,0,0
-2.21580867219018E-05,2.00692902581068E-05,3.33984375,0,0
-2.35756906477036E-05,2.49022650677944E-05,3.33984375,0,0
-2.40957542700926E-05,2.61455152212875E-05,3.33984375,0,0
-2.59987682511564E-05,2.4674083761056E-05,3.33984375,0,0
-2.57079846051056E-05,2.25505846174201E-05,3.33984375,0,0
-2.3391132344841E-05,1.82475159817841E-05,3.33984375,0,0
-2.20664533117088E-05,1.34885531224427E-05,3.33984375,0,0
-2.39726050494937E-05,1.04020973594743E-05,3.33984375,0,0
-2.15105083043454E-05,5.27094061908429E-06,3.33984375,0,0
-3.14962926495355E-05,5.48415937373647E-06,3.33984375,0,0
-2.47658790613059E-05,3.66840959031833E-06,3.33984375,0,0
-2.98786453640787E-05,5.82745951760444E-06,3.33984375,0,0
-2.52965965046315E-05,2.67918858298799E-06,3.33984375,0,0
-2.82899709418416E-05,5.7385623222217E-06,3.33984375,0,0
-2.67294053628575E-05,7.16753584129037E-06,3.33984375,0,0
-2.84862489934312E-05,7.72632483858615E-06,3.33984375,0,0
-2.80243457382312E-05,7.02430543242372E-06,3.33984375,0,0
-2.85165169771062E-05,5.84052213525865E-06,3.33984375,0,0
-2.81682623608503E-05,4.80964536109241E-06,3.33984375,0,0
-2.60421948041767E-05,5.07244430991705E-06,3.33984375,0,0
-2.55647846643114E-05,6.34490834272583E-06,3.33984375,0,0
-2.27952095883666E-05,6.63999708194751E-06,3.33984375,0,0
-2.22656071855454E-05,8.33290596347069E-06,3.33984375,0,0
-2.07477696676506E-05,9.61445584835019E-06,3.33984375,0,0
-2.25870335270884E-05,1.10094515548553E-05,3.33984375,0,0
-2.21062618948054E-05,1.20316144602839E-05,3.33984375,0,0
-2.21385453187395E-05,1.44266314237029E-05,3.33984375,0,0
-1.91227190953214E-05,1.52883203554666E-05,3.33984375,0,0
-1.91661893040873E-05,1.61154239322059E-05,3.33984375,0,0
-1.97625759028597E-05,1.67544367286609E-05,3.33984375,0,0
-2.26341271627462E-05,1.58214861585293E-05,3.33984375,0,0
-2.42941023316234E-05,1.27871126096579E-05,3.33984375,0,0
-2.47018579102587E-05,1.32706827571383E-05,3.33984375,0,0
-2.35328316193772E-05,1.54999324877281E-05,3.33984375,0,0
-2.23849565372802E-05,1.65764649864286E-05,3.33984375,0,0
-1.85361841431586E-05,1.3194768143876E-05,3.33984375,0,0
-2.77440703939646E-05,1.64139873959357E-05,3.33984375,0,0
-2.14191586564993E-05,8.71097836352419E-06,3.33984375,0,0
-2.47350199060747E-05,9.6034336820594E-06,3.33984375,0,0
-2.22654725803295E-05,5.74645582673838E-06,3.33984375,0,0
-2.72313081950415E-05,1.05044100564555E-05,3.33984375,0,0
-2.67058658209862E-05,1.08977701529511E-05,3.33984375,0,0
-2.66333699983079E-05,1.1526475645951E-05,3.33984375,0,0
-2.53218404395739E-05,1.11614072011434E-05,3.33984375,0,0
-2.56593120866455E-05,1.16672354124603E-05,3.33984375,0,0
-2.5726778403623E-05,1.28490110000712E-05,3.33984375,0,0
-2.31139929383062E-05,1.45178564707749E-05,3.33984375,0,0
-2.10642920137616E-05,1.47534437928698E-05,3.33984375,0,0
-1.92949191841763E-05,1.15068269224139E-05,3.33984375,0,0
-2.19353878492257E-05,1.29028676383314E-05,3.33984375,0,0
-2.37245785683626E-05,1.600489122211E-05,3.33984375,0,0
-2.61904533545021E-05,2.07366883842042E-05,3.33984375,0,0
-2.47074403887382E-05,2.21856971620582E-05,3.33984375,0,0
-2.38522607105551E-05,2.24882733164122E-05,3.33984375,0,0
-2.2338672351907E-05,2.03575182240456E-05,3.33984375,0,0
-2.28937897190917E-05,2.15939999179682E-05,3.33984375,0,0
-2.22315720748156E-05,2.38143584283534E-05,3.33984375,0,0
-2.22667531488696E-05,2.57459232670954E-05,3.33984375,0,0
-2.14633964787936E-05,2.34228555200389E-05,3.33984375,0,0
-2.08398651011521E-05,1.98020388779696E-05,3.33984375,0,0
-2.08728943107417E-05,1.78964510268997E-05,3.33984375,0,0
-2.16251755773555E-05,1.87187597475713E-05,3.33984375,0,0
-1.5933153918013E-05,1.48361696119537E-05,3.33984375,0,0
-2.05347168957815E-05,1.8993468984263E-05,3.33984375,0,0
-1.39504945764202E-05,1.22585070130299E-05,3.33984375,0,0
-1.94336462300271E-05,1.5271707525244E-05,3.33984375,0,0
-1.61753214342752E-05,1.01671530501335E-05,3.33984375,0,0
-1.90931041288422E-05,1.32251998365973E-05,3.33984375,0,0
-1.7263570043724E-05,1.15093325803173E-05,3.33984375,0,0
-1.728932147671E-05,1.06288171082269E-05,3.33984375,0,0
-1.67904054251267E-05,9.45438023336465E-06,3.33984375,0,0
-1.78929203684675E-05,8.84380915522343E-06,3.33984375,0,0
-1.99179303308483E-05,7.98296423454303E-06,3.33984375,0,0
-2.11537026189035E-05,6.63342098050634E-06,3.33984375,0,0
-2.20414040086325E-05,6.21123672317481E-06,3.33984375,0,0
-1.98038378584897E-05,3.11346343551122E-06,3.33984375,0,0
-2.0800802303711E-05,2.90981438411109E-06,3.33984375,0,0
-2.19791782001266E-05,2.8689205464616E-06,3.33984375,0,0
-2.45766277657822E-05,4.64525010102079E-06,3.33984375,0,0
-2.34418384934543E-05,4.04221555072581E-06,3.33984375,0,0
-2.24604154936969E-05,5.12819315190427E-06,3.33984375,0,0
-2.06521926884307E-05,5.26512940268731E-06,3.33984375,0,0
-2.14327974390471E-05,6.49410276309936E-06,3.33984375,0,0
-2.14882566069718E-05,7.66281391406665E-06,3.33984375,0,0
-2.20279944187496E-05,1.05077133412124E-05,3.33984375,0,0
-2.25139683607267E-05,1.1988656297035E-05,3.33984375,0,0
-2.48921060119756E-05,1.30019279822591E-05,3.33984375,0,0
-2.54424103331985E-05,1.35165209940169E-05,3.33984375,0,0
-2.50787161348853E-05,1.36221351567656E-05,3.33984375,0,0
-2.02840692509199E-05,6.81508208799642E-06,3.33984375,0,0
-2.85733112832531E-05,3.49021138390526E-06,3.33984375,0,0
-2.09583195101004E-05,-1.84700945737859E-06,3.33984375,0,0
-2.55072609434137E-05,5.89069486522931E-06,3.33984375,0,0
-2.1202791685937E-05,8.22005949885352E-06,3.33984375,0,0
-2.42706064454978E-05,1.31957604025956E-05,3.33984375,0,0
-2.29010711336741E-05,1.20938848340302E-05,3.33984375,0,0
-2.53396956395591E-05,9.08566289581358E-06,3.33984375,0,0
-2.5379253202118E-05,7.45065835872083E-06,3.33984375,0,0
-2.55518843914615E-05,8.99611768545583E-06,3.33984375,0,0
-2.52854315476725E-05,1.11323624878423E-05,3.33984375,0,0
-2.45628434640821E-05,1.14481963464641E-05,3.33984375,0,0
-2.71438875643071E-05,1.07095866042073E-05,3.33984375,0,0
-3.00162337225629E-05,8.20224249764578E-06,3.33984375,0,0
-3.36441662511788E-05,9.88149349723244E-06,3.33984375,0,0
-3.15489196509589E-05,1.29056516016135E-05,3.33984375,0,0
-2.9795577574987E-05,1.40655056384276E-05,3.33984375,0,0
-2.64928821707144E-05,9.24426058190875E-06,3.33984375,0,0
-2.65266662609065E-05,4.73202908324311E-06,3.33984375,0,0
-2.56487292062957E-05,3.58004058398365E-06,3.33984375,0,0
-2.66342776740203E-05,6.31099237580202E-06,3.33984375,0,0
-2.57006522588199E-05,7.65422828408191E-06,3.33984375,0,0
-2.60159104072955E-05,6.64987464915612E-06,3.33984375,0,0
-2.6141893613385E-05,3.51274843524152E-06,3.33984375,0,0
-2.68593994405819E-05,1.81531072485086E-06,3.33984375,0,0
-2.70851851382758E-05,2.40538179241412E-06,3.33984375,0,0
-2.76782720902702E-05,3.18022102874238E-06,3.33984375,0,0
-2.23368951992597E-05,1.51896119859884E-06,3.33984375,0,0
-3.05431058222894E-05,1.05702304153965E-06,3.33984375,0,0
-2.28606895689154E-05,1.63168533617863E-06,3.33984375,0,0
-3.1136140023591E-05,4.16175362261129E-06,3.33984375,0,0
-2.80478143395158E-05,5.29124781678547E-06,3.33984375,0,0
-3.09230090351775E-05,8.60564887261717E-06,3.33984375,0,0
-2.64163754764013E-05,7.08847801433876E-06,3.33984375,0,0
-2.58923100773245E-05,2.46998615693883E-06,3.33984375,0,0
-2.58334639511304E-05,1.35522884647798E-06,3.33984375,0,0
-2.68391668214463E-05,2.94023698188539E-06,3.33984375,0,0
-2.62479170487495E-05,3.35509002979961E-06,3.33984375,0,0
-2.38995689869625E-05,3.63667663805245E-06,3.33984375,0,0
-2.42071582761128E-05,3.65763798981789E-06,3.33984375,0,0
-2.31355679716216E-05,3.06043125419819E-06,3.33984375,0,0
-2.41992001974722E-05,4.38377310274518E-06,3.33984375,0,0
-2.24913728743559E-05,5.60317857889459E-06,3.33984375,0,0
-2.37592939811293E-05,6.13065867582918E-06,3.33984375,0,0
-2.28154258365976E-05,6.31823377261753E-06,3.33984375,0,0
-2.3571788915433E-05,7.34945615477045E-06,3.33984375,0,0
-2.23036367970053E-05,8.0505606092629E-06,3.33984375,0,0
-2.35468378377846E-05,9.90854277915787E-06,3.33984375,0,0
-2.37516142078675E-05,1.35541285999352E-05,3.33984375,0,0
-2.50869525189046E-05,1.81298710231204E-05,3.33984375,0,0
-2.55462255154271E-05,2.10560119739966E-05,3.33984375,0,0
-2.47181342274416E-05,2.04957104870118E-05,3.33984375,0,0
-2.10376383620314E-05,1.95555676327785E-05,3.33984375,0,0
-1.93849282368319E-05,1.98444340639981E-05,3.33984375,0,0
-1.67795969900908E-05,1.48102772072889E-05,3.33984375,0,0
-2.42942278418923E-05,1.8755841665552E-05,3.33984375,0,0
-1.76731100509642E-05,1.13462101580808E-05,3.33984375,0,0
-2.02891515073134E-05,1.49695633808733E-05,3.33984375,0,0
-1.69499835465103E-05,1.15756811283063E-05,3.33984375,0,0
-1.92445822904119E-05,1.40442743941094E-05,3.33984375,0,0
-1.7255366401514E-05,1.11411136458628E-05,3.33984375,0,0
-1.73050248122308E-05,1.22489818750182E-05,3.33984375,0,0
-1.63842269103043E-05,1.47253704199102E-05,3.33984375,0,0
-1.70318562595639E-05,1.62224969244562E-05,3.33984375,0,0
-1.76041921804426E-05,1.43255210787174E-05,3.33984375,0,0
-1.77501915459288E-05,1.21126149679185E-05,3.33984375,0,0
-2.09262616408523E-05,1.23311156130512E-05,3.33984375,0,0
-2.19198318518465E-05,1.10837072497816E-05,3.33984375,0,0
-2.29787638090784E-05,1.21263292385265E-05,3.33984375,0,0
-2.18905588553753E-05,1.15580605779542E-05,3.33984375,0,0
-2.27354266826296E-05,1.25943170132814E-05,3.33984375,0,0
-2.20972815441201E-05,1.23354138850118E-05,3.33984375,0,0
-2.31792619160842E-05,1.31259484987822E-05,3.33984375,0,0
-2.29199813475134E-05,1.10269866127055E-05,3.33984375,0,0
-2.41697089222725E-05,1.05597700894577E-05,3.33984375,0,0
-2.44369875872508E-05,9.14344946068013E-06,3.33984375,0,0
-2.46535946644144E-05,8.60744330566376E-06,3.33984375,0,0
-2.41387006099103E-05,8.54826521390351E-06,3.33984375,0,0
-2.34982016991125E-05,8.69004725245759E-06,3.33984375,0,0
-2.18660024984274E-05,8.56504448165651E-06,3.33984375,0,0
-2.20401398109971E-05,9.71489225776168E-06,3.33984375,0,0
-1.91946364793694E-05,8.60077398101566E-06,3.33984375,0,0
-2.68927797151264E-05,1.16414275908028E-05,3.33984375,0,0
-2.06018394237617E-05,9.43813120102277E-06,3.33984375,0,0
-2.62451449088985E-05,1.25061733342591E-05,3.33984375,0,0
-2.25281419261592E-05,9.98434461507713E-06,3.33984375,0,0
-2.62496687355451E-05,1.1758576874854E-05,3.33984375,0,0
-2.41907109739259E-05,1.12370780698257E-05,3.33984375,0,0
-2.38033298955997E-05,1.21093862617272E-05,3.33984375,0,0
-2.23560327867744E-05,1.47142554851598E-05,3.33984375,0,0
-2.29105917242123E-05,1.81440791493515E-05,3.33984375,0,0
-2.39242399402428E-05,1.99898458959069E-05,3.33984375,0,0
-2.36430714721791E-05,2.08148539968533E-05,3.33984375,0,0
-2.39981673075818E-05,2.31814792641671E-05,3.33984375,0,0
-2.17783672269434E-05,2.32095444516744E-05,3.33984375,0,0
-2.1477362679434E-05,2.1825766452821E-05,3.33984375,0,0
-2.01439997908892E-05,1.79142807610333E-05,3.33984375,0,0
-2.22387297981186E-05,1.60154686454916E-05,3.33984375,0,0
-2.20412894123001E-05,1.52508673636476E-05,3.33984375,0,0
-2.2811258531874E-05,1.62822907441296E-05,3.33984375,0,0
-2.2142072339193E-05,1.65582678164355E-05,3.33984375,0,0
-2.37432650465053E-05,1.71867995959474E-05,3.33984375,0,0
-2.35656661971007E-05,1.6954534657998E-05,3.33984375,0,0
-2.33991122513544E-05,1.74902015714906E-05,3.33984375,0,0
-2.25741860049311E-05,1.8317832655157E-05,3.33984375,0,0
-2.34929102589376E-05,1.74701799551258E-05,3.33984375,0,0
-2.48522592301015E-05,1.59967839863384E-05,3.33984375,0,0
-2.59853495663265E-05,1.49895049617044E-05,3.33984375,0,0
-2.22064027184388E-05,1.17182844405761E-05,3.33984375,0,0
-3.23162821587175E-05,1.55794696183875E-05,3.33984375,0,0
-2.46962354140123E-05,1.05359886219958E-05,4.921875,0,0
-2.88368755718693E-05,1.26626810015296E-05,4.921875,0,0
-2.3032451281324E-05,9.96751168713672E-06,4.921875,0,0
-2.56217954301974E-05,1.67949619935825E-05,4.921875,0,0
-2.3854234314058E-05,2.00261347345077E-05,4.921875,0,0
-2.50109915214125E-05,1.84142591024283E-05,4.921875,0,0
-2.3756583686918E-05,1.58299972099485E-05,4.921875,0,0
-2.339644197491E-05,1.61574953381205E-05,4.921875,0,0
-2.37655240198364E-05,1.73691187228542E-05,4.921875,0,0
-2.42439728026511E-05,1.76770299731288E-05,4.921875,0,0
-2.64272712229285E-05,1.76099238160532E-05,4.921875,0,0
-2.52585450652987E-05,1.56139758473728E-05,4.921875,0,0
-2.56870698649436E-05,1.52049851749325E-05,4.921875,0,0
-2.43929043790558E-05,1.37742981678457E-05,4.921875,0,0
-2.66567822109209E-05,1.24750167742604E-05,4.921875,0,0
-2.6972587875207E-05,1.05830577012966E-05,4.921875,0,0
-2.84244943031808E-05,1.22885994642274E-05,4.921875,0,0
-2.72170454991283E-05,1.23779245768674E-05,4.921875,0,0
-2.79350533674005E-05,1.04400642157998E-05,4.921875,0,0
-2.79145533568226E-05,7.68255449656863E-06,4.921875,0,0
-2.80397307506064E-05,7.0485589276359E-06,4.921875,0,0
-2.56518433161546E-05,4.83184294353123E-06,4.921875,0,0
-2.42103651544312E-05,9.56126996243256E-07,4.921875,0,0
-2.41047473537037E-05,-2.61559398495592E-06,4.921875,0,0
-2.52151985478122E-05,-2.62620505964151E-06,4.921875,0,0
-2.13926814467413E-05,-5.08392759002163E-07,4.921875,0,0
-3.03637334582163E-05,-2.84454813481716E-07,4.921875,0,0
-2.26678548642667E-05,1.09511677237606E-06,4.921875,0,0
-2.8171672965982E-05,5.73245557689006E-08,4.921875,0,0
-2.57364827120909E-05,-1.1808973567895E-06,4.921875,0,0
-3.03262022498529E-05,8.9680804649106E-07,4.921875,0,0
-2.77885537798284E-05,3.25592623084958E-06,4.921875,0,0
-2.7184671125724E-05,2.80517701867211E-06,4.921875,0,0
-2.44156890403247E-05,2.1556991214311E-06,4.921875,0,0
-2.43101058003958E-05,7.06373668890592E-07,4.921875,0,0
-2.49521926889429E-05,9.93082153399882E-07,4.921875,0,0
-2.36080577451503E-05,5.5179521041282E-06,4.921875,0,0
-2.41320467466721E-05,9.66179322858807E-06,4.921875,0,0
-2.35829647863284E-05,1.07196492535877E-05,4.921875,0,0
-2.44007296714699E-05,1.09628190330113E-05,4.921875,0,0
-2.17668730329024E-05,1.06658753793454E-05,4.921875,0,0
-2.23776005441323E-05,1.032012005453E-05,4.921875,0,0
-2.31403100769967E-05,1.13059650175273E-05,4.921875,0,0
-2.5515128072584E-05,1.14877993837581E-05,4.921875,0,0
-2.27568161790259E-05,9.62932153925067E-06,4.921875,0,0
-2.19090816244716E-05,8.00193902250612E-06,4.921875,0,0
-2.20962774619693E-05,7.95665891928365E-06,4.921875,0,0
-2.35389597946778E-05,8.76917238201713E-06,4.921875,0,0
-2.31465546676191E-05,9.14720294531435E-06,4.921875,0,0
-2.30935838771984E-05,8.86639008967904E-06,4.921875,0,0
-2.2697475287714E-05,9.13680651137838E-06,4.921875,0,0
-2.33271057368256E-05,7.97035409050295E-06,4.921875,0,0
-2.03037798200967E-05,4.2031833800138E-06,4.921875,0,0
-2.97356491500977E-05,3.91271578337182E-06,4.921875,0,0
-2.40901590586873E-05,9.94366814666137E-07,4.921875,0,0
-2.95153677143389E-05,2.31383000937058E-06,4.921875,0,0
-2.51109740929678E-05,2.91765695692447E-06,4.921875,0,0
-2.67498326138593E-05,7.62059698899975E-06,4.921875,0,0
-2.32542060984997E-05,1.01879859357723E-05,4.921875,0,0
-2.4499160645064E-05,1.26098375403672E-05,4.921875,0,0
-2.5007739168359E-05,1.36991202452919E-05,4.921875,0,0
-2.57204646914033E-05,1.30785010696854E-05,4.921875,0,0
-2.65194776147837E-05,9.46881573327119E-06,4.921875,0,0
-2.64154787146254E-05,7.33372689865064E-06,4.921875,0,0
-2.66263832600089E-05,6.32350611340371E-06,4.921875,0,0
-2.45469309447799E-05,5.47864374311757E-06,4.921875,0,0
-2.52908594120527E-05,7.55640894567478E-06,4.921875,0,0
-2.44057391682873E-05,9.16327644517878E-06,4.921875,0,0
-2.58145191764925E-05,9.90498392638983E-06,4.921875,0,0
-2.51557721639983E-05,8.75307250680635E-06,4.921875,0,0
-2.63547481154092E-05,7.59738441047375E-06,4.921875,0,0
-2.50042612606194E-05,6.50718584438437E-06,4.921875,0,0
-2.44709535763832E-05,7.43849568607402E-06,4.921875,0,0
-2.25483145186445E-05,7.60476268624188E-06,4.921875,0,0
-2.17518427234609E-05,7.9624778663856E-06,4.921875,0,0
-2.02960909518879E-05,7.56659073886112E-06,4.921875,0,0
-2.08385736186756E-05,7.12059318175307E-06,4.921875,0,0
-2.29462384595536E-05,7.77501463744557E-06,4.921875,0,0
-2.4635197405587E-05,1.0048720469058E-05,4.921875,0,0
-1.89333313755924E-05,9.39771780394949E-06,4.921875,0,0
-2.51807923632441E-05,1.22949295473518E-05,4.921875,0,0
-1.68883871083381E-05,7.89779369370081E-06,4.921875,0,0
-2.28380231419578E-05,1.05714752862696E-05,4.921875,0,0
-2.02871815417893E-05,9.37372806220083E-06,4.921875,0,0
-2.34396866289899E-05,1.28134988699458E-05,4.921875,0,0
-2.16798634937732E-05,1.19580890896032E-05,4.921875,0,0
-2.28183598665055E-05,1.01038394859643E-05,4.921875,0,0
-2.22577673412161E-05,9.60602301347535E-06,4.921875,0,0
-2.22582293645246E-05,9.49319837673102E-06,4.921875,0,0
-2.19382072828012E-05,8.89726470632013E-06,4.921875,0,0
-2.11142050829949E-05,8.70076110004447E-06,4.921875,0,0
-2.22592934733257E-05,1.0081983418786E-05,4.921875,0,0
-2.16238058783347E-05,9.94954280031379E-06,4.921875,0,0
-2.31784979405347E-05,1.00292472779984E-05,4.921875,0,0
-2.34061426453991E-05,1.01723608167958E-05,4.921875,0,0
-2.61784516624175E-05,1.25095248222351E-05,4.921875,0,0
-2.58897507592337E-05,1.2644756679947E-05,4.921875,0,0
-2.64347290794831E-05,1.20529393825564E-05,4.921875,0,0
-2.57005012826994E-05,1.10166056401795E-05,4.921875,0,0
-2.71332410193281E-05,1.09147604234749E-05,4.921875,0,0
-2.65087546722498E-05,1.1115142115159E-05,4.921875,0,0
-2.53875223279465E-05,1.2297932698857E-05,4.921875,0,0
-2.31611556955613E-05,1.04641785583226E-05,4.921875,0,0
-2.21918380702846E-05,7.65203185437713E-06,4.921875,0,0
-2.24884806812042E-05,6.41805263512651E-06,4.921875,0,0
-2.48349078901811E-05,4.54296832685941E-06,4.921875,0,0
-2.12410814128816E-05,2.06791196433187E-06,4.921875,0,0
-2.90022289846092E-05,4.45692103312467E-06,4.921875,0,0
-2.00280446733814E-05,4.2712858885352E-06,4.921875,0,0
-2.52797690336593E-05,1.23956056086172E-06,4.921875,0,0
-2.1717969502788E-05,-1.64012351433485E-06,4.921875,0,0
-2.58796862908639E-05,1.62173591888859E-07,4.921875,0,0
-2.47659900196595E-05,2.23924735109904E-06,4.921875,0,0
-2.65522940026131E-05,3.17206786348834E-06,4.921875,0,0
-2.5418676159461E-05,4.56365842183004E-06,4.921875,0,0
-2.44477123487741E-05,5.40006112714764E-06,4.921875,0,0
-2.37897456827341E-05,7.61348519517924E-06,4.921875,0,0
-2.22207327169599E-05,1.15146212920081E-05,4.921875,0,0
-2.16823391383514E-05,1.3041900274402E-05,4.921875,0,0
-2.00057493202621E-05,1.32948325699545E-05,4.921875,0,0
-2.21443879127037E-05,1.59648934641154E-05,4.921875,0,0
-2.29577817663085E-05,1.75587520061526E-05,4.921875,0,0
-2.53446869464824E-05,1.46865986607736E-05,4.921875,0,0
-2.41599464061437E-05,1.13345440695412E-05,4.921875,0,0
-2.41529596678447E-05,1.09567117760889E-05,4.921875,0,0
-2.19512494368246E-05,1.14773674795288E-05,4.921875,0,0
-2.22033631871454E-05,1.05024764707196E-05,4.921875,0,0
-2.16288863157388E-05,9.25560834730277E-06,4.921875,0,0
-2.26337870117277E-05,9.70755445450777E-06,4.921875,0,0
-2.20297715713969E-05,1.05449635157129E-05,4.921875,0,0
