biceps_emg, triceps_emg, subject_position, position_estimate, brace_position
-2.71772514679469E-05,3.63750041287858E-06,0.703125,0,0
-2.62080666288966E-05,-3.47992340721248E-06,0.703125,0,0
-2.83762110484531E-05,-5.15193642058875E-06,0.703125,0,0
-2.73354908131296E-05,-3.65850792150013E-06,0.703125,0,0
-2.82222372334218E-05,1.92748507288343E-06,0.703125,0,0
-2.98626255244017E-05,8.08493405202171E-06,0.703125,0,0
-2.94680339720799E-05,1.20541872092872E-05,0.703125,0,0
-2.99123985314509E-05,1.42943372338777E-05,0.703125,0,0
-2.8683956770692E-05,1.25264714370132E-05,0.703125,0,0
-3.09181596094277E-05,1.21134908113163E-05,0.703125,0,0
-3.08569105982315E-05,1.20691456686473E-05,0.703125,0,0
-3.15029355988372E-05,1.53596338350326E-05,0.703125,0,0
-2.89763447653968E-05,1.63574422913371E-05,0.703125,0,0
-2.90693315037061E-05,1.62842607096536E-05,0.703125,0,0
-2.82712971966248E-05,1.38983268698212E-05,0.703125,0,0
-2.99047987937229E-05,1.43274601214216E-05,0.703125,0,0
-2.97206588584231E-05,1.61289954121457E-05,0.703125,0,0
-2.88341707346262E-05,1.93887517525582E-05,0.703125,0,0
-2.62225530605065E-05,2.00080867216457E-05,0.703125,0,0
-2.48562118940754E-05,1.93085870705545E-05,0.703125,0,0
-2.36013529502088E-05,1.67852940649027E-05,0.703125,0,0
-2.30704063142184E-05,1.5403858924401E-05,0.703125,0,0
-1.92261086340295E-05,1.484961467213E-05,0.703125,0,0
-2.94923174806172E-05,2.2396625354304E-05,0.703125,0,0
-2.47012267209357E-05,1.69856648426503E-05,0.703125,0,0
-2.82555483863689E-05,1.82851053978084E-05,0.703125,0,0
-2.4202336135204E-05,1.33913717945688E-05,0.703125,0,0
-2.74668600468431E-05,1.38178920678911E-05,0.703125,0,0
-2.65497274085647E-05,1.19232454380835E-05,0.703125,0,0
-2.79748692264548E-05,1.39153053169139E-05,0.703125,0,0
-2.69443826255156E-05,1.53564560605446E-05,0.703125,0,0
-2.73652840405703E-05,1.46448319355841E-05,0.703125,0,0
-2.82612490991596E-05,1.29689042296377E-05,0.703125,0,0
-2.72277557087364E-05,1.11319677671418E-05,0.703125,0,0
-2.66308143181959E-05,1.04951031971723E-05,0.703125,0,0
-2.58569725701818E-05,8.07273499958683E-06,0.703125,0,0
-2.76667651633034E-05,8.85150257090572E-06,0.703125,0,0
-2.59173248196021E-05,1.06321813291288E-05,0.703125,0,0
-2.5453460693825E-05,1.37582228489919E-05,0.703125,0,0
-2.52890149567975E-05,1.36467069751234E-05,0.703125,0,0
-2.90890384349041E-05,1.34214888021233E-05,0.703125,0,0
-2.94629044219619E-05,1.21842613225454E-05,0.703125,0,0
-2.85858313873177E-05,1.18917441795929E-05,0.703125,0,0
-2.65110174950678E-05,1.04434702734579E-05,0.703125,0,0
-2.69729880528757E-05,1.03199517980102E-05,0.703125,0,0
-2.75831316685071E-05,1.0232002750854E-05,0.703125,0,0
-2.84890702459961E-05,1.07415698948898E-05,0.703125,0,0
-2.77585768344579E-05,1.24725884234067E-05,0.703125,0,0
-2.65631515503628E-05,1.28069050333579E-05,0.703125,0,0
-2.13769926631358E-05,1.07817741081817E-05,0.703125,0,0
-3.06425972667057E-05,1.52595675899647E-05,0.703125,0,0
-2.37932526943041E-05,1.06684829006554E-05,0.703125,0,0
-3.02253411064157E-05,1.05350864032516E-05,0.703125,0,0
-2.58327600022312E-05,6.02067893851199E-06,0.703125,0,0
-2.77340059255948E-05,8.05995568953222E-06,0.703125,0,0
-2.48136857408099E-05,8.77752427186351E-06,0.703125,0,0
-2.49442091444507E-05,1.16120054372004E-05,0.703125,0,0
-2.37005097005749E-05,1.36442577058915E-05,0.703125,0,0
-2.40589506574906E-05,1.28275851238868E-05,0.703125,0,0
-2.39924138440983E-05,8.69771793077234E-06,0.703125,0,0
-2.23371334868716E-05,3.81921336156665E-06,0.703125,0,0
-2.35037805396132E-05,1.67920325111481E-06,0.703125,0,0
-2.40633235080168E-05,7.15996463895863E-07,0.703125,0,0
-2.63006641034735E-05,2.68029020844551E-06,0.703125,0,0
-2.48630276473705E-05,4.11429755331483E-06,0.703125,0,0
-2.47580155701144E-05,7.03099885868141E-06,0.703125,0,0
-2.26450556510827E-05,8.53299388836604E-06,0.703125,0,0
-2.34321287280181E-05,1.08152626125957E-05,0.703125,0,0
-2.26112260861555E-05,1.26746654132148E-05,0.703125,0,0
-2.32143720495515E-05,1.47471200762084E-05,0.703125,0,0
-2.22177295654546E-05,1.50871237565298E-05,0.703125,0,0
-2.24548603000585E-05,1.53384262375766E-05,0.703125,0,0
-2.26072970690439E-05,1.45347003126517E-05,0.703125,0,0
-2.29431643674616E-05,1.32807317640982E-05,0.703125,0,0
-2.24940831685672E-05,1.25105516417534E-05,0.703125,0,0
-2.28912740567466E-05,1.27703815451241E-05,0.703125,0,0
-1.7709367966745E-05,1.02244312074617E-05,0.703125,0,0
-2.37011718127178E-05,1.55537491082214E-05,0.703125,0,0
-1.70822931977455E-05,1.46237152875983E-05,0.703125,0,0
-2.36683554248884E-05,1.82190196937881E-05,0.703125,0,0
-2.13569965126226E-05,1.52701413753675E-05,0.703125,0,0
-2.3400882128044E-05,1.68836686498253E-05,0.703125,0,0
-2.10733287531184E-05,1.54656900122063E-05,0.703125,0,0
-2.36160103668226E-05,1.32167906485847E-05,0.703125,0,0
-2.46870840783231E-05,9.8201699074707E-06,0.703125,0,0
-2.53167017945088E-05,7.56172221372253E-06,0.703125,0,0
-2.48412106884643E-05,4.36611890108907E-06,0.703125,0,0
-2.42339483520482E-05,4.75059863447314E-07,0.703125,0,0
-2.63617839664221E-05,4.67527769387743E-07,0.703125,0,0
-2.65298949670978E-05,3.08072640109458E-06,0.703125,0,0
-2.69528882199666E-05,7.35950243324623E-06,0.703125,0,0
-2.46613271883689E-05,8.56017777550733E-06,0.703125,0,0
-2.51315123023232E-05,8.21731009637006E-06,0.703125,0,0
-2.4192000637413E-05,6.34694333712105E-06,0.703125,0,0
-2.4819577447488E-05,7.23270250091446E-06,0.703125,0,0
-2.4201533960877E-05,8.37253992358455E-06,0.703125,0,0
-2.57300544035388E-05,9.71955432760296E-06,0.703125,0,0
-2.50056236836826E-05,9.38374159886735E-06,0.703125,0,0
-2.46393701672787E-05,9.33685350901214E-06,0.703125,0,0
-2.37687690969324E-05,8.93029482540442E-06,0.703125,0,0
-2.38987358898157E-05,8.56485621625325E-06,0.703125,0,0
-2.28289263759507E-05,7.37968639441533E-06,0.703125,0,0
-2.17405686271377E-05,5.7279949032818E-06,0.703125,0,0
-1.71590800164267E-05,4.1090747799899E-06,0.703125,0,0
-2.34580602409551E-05,6.17517889622832E-06,0.703125,0,0
-1.73782082129037E-05,6.28708676231327E-06,0.703125,0,0
-2.2631877072854E-05,8.79137314768741E-06,0.703125,0,0
-1.86485922313295E-05,8.60876843944425E-06,0.703125,0,0
-2.04343650693772E-05,8.87281385075767E-06,0.703125,0,0
-1.77699730556924E-05,6.57713053442421E-06,0.703125,0,0
-1.79566341103055E-05,4.50391507911263E-06,0.703125,0,0
-1.73355801962316E-05,4.60408227809239E-06,0.703125,0,0
-1.84934324352071E-05,6.81834580973373E-06,0.703125,0,0
-2.07726043299772E-05,8.6508625827264E-06,0.703125,0,0
-2.16651842492865E-05,9.00527447811328E-06,0.703125,0,0
-2.28810331464047E-05,8.82913991517853E-06,0.703125,0,0
-2.20614874706371E-05,8.59961619426031E-06,0.703125,0,0
-2.32703296205727E-05,9.85914448392577E-06,0.703125,0,0
-2.35888310271548E-05,1.0973198186548E-05,0.703125,0,0
-2.58907766692573E-05,1.13958494694089E-05,0.703125,0,0
-2.55128798016813E-05,1.14619952000794E-05,0.703125,0,0
-2.59964072029106E-05,1.31552906168508E-05,0.703125,0,0
-2.45882929448271E-05,1.5674697351642E-05,0.703125,0,0
-2.54233327723341E-05,1.88836038432783E-05,0.703125,0,0
-2.5603132598917E-05,1.86962697625859E-05,0.703125,0,0
-2.6389121558168E-05,1.54178851516917E-05,0.703125,0,0
-2.69679803750478E-05,1.30327807710273E-05,0.703125,0,0
-2.78283951047342E-05,1.36113476401079E-05,0.703125,0,0
-2.75625116046285E-05,1.50482528624707E-05,0.703125,0,0
-2.68670864898013E-05,1.60387735377299E-05,0.703125,0,0
-1.98802481463645E-05,1.23663530757767E-05,0.703125,0,0
-2.73310215561651E-05,1.68446113093523E-05,0.703125,0,0
-1.96918554138392E-05,1.27586945382063E-05,0.703125,0,0
-2.4271188522107E-05,1.73136595549295E-05,0.703125,0,0
-1.89798320207046E-05,1.57522081281058E-05,0.703125,0,0
-2.12403938348871E-05,1.97795125131961E-05,0.703125,0,0
-1.81138802872738E-05,2.10218313441146E-05,0.703125,0,0
-1.83340944204247E-05,2.28170720220078E-05,0.703125,0,0
-1.77594174601836E-05,2.17205670196563E-05,0.703125,0,0
-1.87133427971276E-05,2.07483790291008E-05,0.703125,0,0
-2.03563140530605E-05,1.79722410393879E-05,0.703125,0,0
-2.13371040445054E-05,1.25900442071725E-05,0.703125,0,0
-2.37521016970277E-05,7.16709746484412E-06,0.703125,0,0
-2.33946284424746E-05,2.95033873953798E-06,0.703125,0,0
-2.43323684117058E-05,4.16176362705301E-06,0.703125,0,0
-2.31078065553447E-05,7.28870600141818E-06,0.703125,0,0
-2.40942645177711E-05,1.3447076526063E-05,0.703125,0,0
-2.26423635467654E-05,1.65167020895751E-05,0.703125,0,0
-2.32334914471721E-05,1.81267569132615E-05,0.703125,0,0
-2.27112705033505E-05,1.73742355400464E-05,0.703125,0,0
-2.39833607338369E-05,1.7089741959353E-05,0.703125,0,0
-2.34420967899496E-05,1.45934091051458E-05,0.703125,0,0
-2.39833752857521E-05,1.33014927996555E-05,0.703125,0,0
-2.33883638429688E-05,1.29751715576276E-05,0.703125,0,0
-2.23013284994522E-05,1.33844478114042E-05,0.703125,0,0
-2.10123489523539E-05,1.197596975544E-05,0.703125,0,0
-2.12083014048403E-05,6.19177762928302E-06,0.703125,0,0
-1.77169422386214E-05,-2.82540304397116E-06,0.703125,0,0
-2.4480914362357E-05,-5.67045844945824E-06,0.703125,0,0
-1.67194666573778E-05,7.1012760827216E-07,0.703125,0,0
-2.04704992938787E-05,9.21210084925406E-06,0.703125,0,0
-1.644245821808E-05,1.10258015411091E-05,0.703125,0,0
-1.78856589627685E-05,7.20142907084664E-06,0.703125,0,0
-1.5727944628452E-05,1.04580533388798E-06,0.703125,0,0
-1.72391464730026E-05,-3.65528148904559E-06,0.703125,0,0
-1.8490209185984E-05,-4.05054788643611E-06,0.703125,0,0
-2.01802104129456E-05,-1.77009553681273E-06,0.703125,0,0
-2.18160948861623E-05,-5.12319957124419E-07,0.703125,0,0
-2.3322505512624E-05,-6.40624691072844E-08,0.703125,0,0
-2.6181469365838E-05,-2.35494240996559E-07,0.703125,0,0
-2.61636050709058E-05,-3.63486321930395E-07,0.703125,0,0
-2.69290885626106E-05,4.28113168027267E-07,0.703125,0,0
-2.58835934801027E-05,1.96495398085972E-06,0.703125,0,0
-2.69144620688166E-05,3.99914097215515E-06,0.703125,0,0
-2.65555081568891E-05,6.56065049042809E-06,0.703125,0,0
-2.82070232060505E-05,8.79035906109493E-06,0.703125,0,0
-2.77022118098103E-05,8.73722365213325E-06,0.703125,0,0
-2.69304437097162E-05,7.91037291492103E-06,0.703125,0,0
-2.46126983256545E-05,7.80805112299277E-06,0.703125,0,0
-2.50612083618762E-05,7.3051573963312E-06,0.703125,0,0
-2.57757656072499E-05,5.74250589124858E-06,0.703125,0,0
-2.53878297371557E-05,5.45169632459874E-06,0.703125,0,0
-2.36707328440389E-05,6.46284297545208E-06,0.703125,0,0
-2.18382174352882E-05,7.50652407077723E-06,0.703125,0,0
-1.71671545103891E-05,8.01463374955347E-06,0.703125,0,0
-2.4501347070327E-05,1.19594669740763E-05,0.703125,0,0
-1.85345888894517E-05,9.19830836210167E-06,0.703125,0,0
-2.34984945564065E-05,1.00933048088336E-05,0.703125,0,0
-2.1774074411951E-05,7.43321970730904E-06,0.703125,0,0
-2.47791613219306E-05,8.56198130350094E-06,0.703125,0,0
-2.12290087802103E-05,8.17507861938793E-06,0.703125,0,0
-2.01941365958191E-05,9.12660289031919E-06,0.703125,0,0
-1.91830931726145E-05,9.70060955296503E-06,0.703125,0,0
-2.00535559997661E-05,1.02303893072531E-05,0.703125,0,0
-2.2804546460975E-05,1.02516614788328E-05,0.703125,0,0
-2.47809311986202E-05,9.82125948212342E-06,0.703125,0,0
-2.64033242274309E-05,1.03407392089139E-05,0.703125,0,0
-2.51590063271578E-05,1.03124739325722E-05,0.703125,0,0
-2.49492059083423E-05,1.15122547867941E-05,0.703125,0,0
-2.32345664699096E-05,1.21123011922464E-05,0.703125,0,0
-2.37524800468236E-05,1.35443333419971E-05,0.703125,0,0
-2.20626625377918E-05,1.3929144188296E-05,0.703125,0,0
-2.24167306441814E-05,1.50625073729316E-05,0.703125,0,0
-2.26385054702405E-05,1.60528543347027E-05,0.703125,0,0
-2.44339171331376E-05,1.79694361577276E-05,0.703125,0,0
-2.41657162405318E-05,1.8306554920855E-05,0.703125,0,0
-2.39278924709652E-05,1.7373016817146E-05,0.703125,0,0
-2.36217383644544E-05,1.64522625709651E-05,0.703125,0,0
-2.36663145187777E-05,1.69477389135864E-05,0.703125,0,0
-2.20683195948368E-05,1.72017062141094E-05,0.703125,0,0
-2.06941040232778E-05,1.61498028319329E-05,0.703125,0,0
-1.75771911017364E-05,1.12922216430889E-05,0.703125,0,0
-2.62634112004889E-05,1.65977817232488E-05,0.703125,0,0
-1.99378846446052E-05,1.34997071654652E-05,0.703125,0,0
-2.17123651964357E-05,1.51458143591299E-05,0.703125,0,0
-1.80038805410732E-05,9.94341644400265E-06,0.703125,0,0
-2.21017453441164E-05,9.71282497630455E-06,0.703125,0,0
-2.18212044273969E-05,8.04406045062933E-06,0.703125,0,0
-2.33166119869566E-05,1.02814956335351E-05,0.703125,0,0
-2.40149402088718E-05,1.40993215609342E-05,0.703125,0,0
-2.61455697909696E-05,1.76041321537923E-05,0.703125,0,0
-2.7485371902003E-05,1.62053929670947E-05,0.703125,0,0
-2.64964528469136E-05,1.10044020402711E-05,0.703125,0,0
-2.56208459177287E-05,7.01181579643162E-06,0.703125,0,0
-2.42019868892385E-05,5.25472387380432E-06,0.703125,0,0
-2.55137292697327E-05,7.35082721803337E-06,0.703125,0,0
-2.43034228333272E-05,8.59128886077087E-06,0.703125,0,0
-2.44271832343657E-05,9.90424086921848E-06,0.703125,0,0
-2.34465860557975E-05,7.97756456449861E-06,0.703125,0,0
-2.41153829847462E-05,6.23579535385943E-06,0.703125,0,0
-2.24881659960374E-05,4.63009155282634E-06,0.703125,0,0
-2.23729311983334E-05,5.35383924216148E-06,0.703125,0,0
-2.20657966565341E-05,5.97203325014561E-06,0.703125,0,0
-2.26206884690328E-05,6.66881214783643E-06,0.703125,0,0
-2.17831584450323E-05,6.10005054113572E-06,0.703125,0,0
-2.11436272365972E-05,7.43975260775187E-06,0.703125,0,0
-2.06976819754345E-05,1.06366369436728E-05,0.703125,0,0
-2.04207462957129E-05,1.34876117954263E-05,0.703125,0,0
-1.58074344653869E-05,1.10370838228846E-05,0.703125,0,0
-2.24337800318608E-05,1.59293686010642E-05,0.703125,0,0
-1.7754817235982E-05,1.43606039273436E-05,0.703125,0,0
-2.23475581151433E-05,1.80592687684111E-05,0.703125,0,0
-1.82507847057423E-05,1.07145642687101E-05,0.703125,0,0
-1.98532943613827E-05,6.10450160820619E-06,0.703125,0,0
-1.98921261471696E-05,3.26611143464106E-06,0.703125,0,0
-2.33322607527953E-05,6.14818418398499E-06,0.703125,0,0
-2.37324620684376E-05,8.51438107929425E-06,0.703125,0,0
-2.42330315813888E-05,1.08392305264715E-05,0.703125,0,0
-2.5747391191544E-05,1.41826203616802E-05,0.703125,0,0
-2.73903206107207E-05,1.59469345817342E-05,0.703125,0,0
-2.96275829896331E-05,1.30953949337709E-05,0.703125,0,0
-2.81520897260634E-05,4.70007807962247E-06,0.703125,0,0
-2.72399720415706E-05,1.61780235430342E-07,0.703125,0,0
-2.62547837337479E-05,1.71307931395859E-06,0.703125,0,0
-2.78245406661881E-05,8.88285376277054E-06,0.703125,0,0
-2.69798347289907E-05,1.33166249725036E-05,0.703125,0,0
-2.7370475436328E-05,1.36437874971307E-05,0.703125,0,0
-2.66455372184282E-05,9.67460437095724E-06,0.703125,0,0
-2.76683422271162E-05,7.29530893295305E-06,0.703125,0,0
-2.73768655461026E-05,6.55421536066569E-06,0.703125,0,0
-2.71949556918116E-05,8.12244525150163E-06,0.703125,0,0
-2.57395222433843E-05,9.25843687582528E-06,0.703125,0,0
-2.60376000369433E-05,1.09246439023991E-05,0.703125,0,0
-2.71043409156846E-05,1.22956134873675E-05,0.703125,0,0
-2.7081052394351E-05,1.41294003697112E-05,0.703125,0,0
-2.10953185160179E-05,1.18426487460965E-05,0.703125,0,0
-3.05293324345257E-05,1.65763431141386E-05,0.703125,0,0
-2.48806609306484E-05,1.21920920719276E-05,0.703125,0,0
-3.13143973471597E-05,1.43284523801412E-05,0.703125,0,0
-2.59433309111046E-05,9.6707362899906E-06,0.703125,0,0
-2.83239041891648E-05,1.06638708530227E-05,0.703125,0,0
-2.71885728579946E-05,1.08701897261199E-05,0.703125,0,0
-2.93832672468852E-05,1.22400397231104E-05,0.703125,0,0
-2.86494705505902E-05,1.1005920896423E-05,0.703125,0,0
-2.89989602606511E-05,9.86742634268012E-06,0.703125,0,0
-2.94815727102105E-05,9.60833494900726E-06,0.703125,0,0
-2.86171198240481E-05,1.01769328466617E-05,0.703125,0,0
-3.03064771287609E-05,1.22846313388436E-05,0.703125,0,0
-3.08627240883652E-05,1.33230651044869E-05,0.703125,0,0
-3.28298810927663E-05,1.55658763105748E-05,0.703125,0,0
-3.06493166135624E-05,1.62961114256177E-05,0.703125,0,0
-3.01709151244722E-05,1.75299228430958E-05,0.703125,0,0
-2.90061034320388E-05,1.659646659391E-05,0.703125,0,0
-3.08966991724446E-05,1.61252937687095E-05,0.703125,0,0
-3.01959207718028E-05,1.41024647746235E-05,0.703125,0,0
-3.06290676235221E-05,1.33770599859417E-05,0.703125,0,0
-2.98439481412061E-05,1.33138910314301E-05,0.703125,0,0
-2.94077926810132E-05,1.51525246110396E-05,0.703125,0,0
-2.80984277196694E-05,1.7069129171432E-05,0.703125,0,0
-2.97959650197299E-05,1.81381910806522E-05,0.703125,0,0
-3.22349333146121E-05,1.83973133971449E-05,0.703125,0,0
-3.35204931616317E-05,1.98283451027237E-05,0.703125,0,0
-2.59967728197807E-05,1.53767759911716E-05,0.703125,0,0
-3.35491567966528E-05,1.79290636879159E-05,0.703125,0,0
-2.11769292945974E-05,5.74585783397197E-06,0.703125,0,0
-2.83998761005932E-05,4.27083296017372E-06,0.703125,0,0
-2.43187769228825E-05,-2.65420453615661E-06,0.703125,0,0
-2.96716734737856E-05,-8.92491527793027E-07,0.703125,0,0
-2.6555142540019E-05,-2.56635144069151E-06,0.703125,0,0
-2.751389547484E-05,1.27247872683256E-07,0.703125,0,0
-2.57995907304576E-05,4.85192913401988E-06,0.703125,0,0
-2.41697962337639E-05,1.03799975477159E-05,0.703125,0,0
-2.30365785682807E-05,1.45808771776501E-05,0.703125,0,0
-2.13879575312603E-05,1.69641389220487E-05,0.703125,0,0
-2.19913436012575E-05,1.68965907505481E-05,0.703125,0,0
-2.03320178115973E-05,1.10910223156679E-05,0.703125,0,0
-2.24287796299905E-05,8.21028061182005E-06,0.703125,0,0
-2.17034703382524E-05,7.63195203035139E-06,0.703125,0,0
-2.28593362407992E-05,1.15572647700901E-05,0.703125,0,0
-2.0619731003535E-05,1.3415305147646E-05,0.703125,0,0
-2.13376497413265E-05,1.64614557434106E-05,0.703125,0,0
-1.87388104677666E-05,1.83411048055859E-05,0.703125,0,0
-1.77633100975072E-05,1.97340959857684E-05,0.703125,0,0
-1.54100853251293E-05,1.92669813259272E-05,0.703125,0,0
-1.53135497384937E-05,2.09701356652658E-05,0.703125,0,0
-1.47347391248331E-05,2.00741505977931E-05,0.703125,0,0
-1.57173308252823E-05,1.70192779478384E-05,0.703125,0,0
-1.71240117197158E-05,1.45715775943245E-05,0.703125,0,0
-1.73656171682524E-05,1.38429522849037E-05,0.703125,0,0
-1.43448769449606E-05,8.17288218968315E-06,0.703125,0,0
-2.07948160095839E-05,6.61196236251271E-06,0.703125,0,0
-1.65528490470024E-05,1.21666778341023E-06,0.703125,0,0
-2.04471543838736E-05,9.00969189387979E-06,0.703125,0,0
-1.8189886759501E-05,1.26127706607804E-05,0.703125,0,0
-2.00836184376385E-05,1.83083557203645E-05,0.703125,0,0
-1.84608106792439E-05,1.8955006453325E-05,0.703125,0,0
-2.02818846446462E-05,1.76327521330677E-05,0.703125,0,0
-2.10339148907224E-05,1.35322543428629E-05,0.703125,0,0
-2.06632885237923E-05,1.19205551527557E-05,0.703125,0,0
-2.05757260118844E-05,1.24010612125858E-05,0.703125,0,0
-2.08610199479153E-05,1.26528320834041E-05,0.703125,0,0
-2.26944102905691E-05,1.36248936541961E-05,0.703125,0,0
-2.304637018824E-05,1.40748406920466E-05,0.703125,0,0
-2.45091487158788E-05,1.48337785503827E-05,0.703125,0,0
-2.37139229284367E-05,1.37205188366352E-05,0.703125,0,0
-2.42230998992454E-05,1.51980602822732E-05,0.703125,0,0
-2.40912850131281E-05,1.67964844877133E-05,0.703125,0,0
-2.54087171924766E-05,1.83660704351496E-05,0.703125,0,0
-2.46194849751191E-05,1.67731013789307E-05,0.703125,0,0
-2.46576491917949E-05,1.5571096810163E-05,0.703125,0,0
-2.44124803430168E-05,1.44425621328992E-05,0.703125,0,0
-2.46232411882374E-05,1.57885460794205E-05,0.703125,0,0
-2.39086512010545E-05,1.72769541677553E-05,0.703125,0,0
-2.38752199948067E-05,1.702308509266E-05,0.703125,0,0
-2.36774249060545E-05,1.46635557030095E-05,0.703125,0,0
-2.3624224922969E-05,1.31880706248921E-05,0.703125,0,0
-1.79637136170641E-05,1.15748971438734E-05,0.703125,0,0
-2.52910867857281E-05,1.38125569719705E-05,0.703125,0,0
-1.99607402464608E-05,5.69149233342614E-06,0.703125,0,0
-2.55096292676171E-05,7.82686947786715E-06,0.703125,0,0
-2.28291992243612E-05,6.91883724357467E-06,0.703125,0,0
-2.77000799542293E-05,9.42714086704655E-06,0.703125,0,0
-2.713543108257E-05,7.47642479836941E-06,0.703125,0,0
-2.80659205600386E-05,7.14382986188866E-06,0.703125,0,0
-2.55687173194019E-05,7.21671676728874E-06,0.703125,0,0
-2.37734711845405E-05,8.36765138956252E-06,0.703125,0,0
-2.23706156248227E-05,9.29183352127438E-06,0.703125,0,0
-2.16520347748883E-05,9.69184929999756E-06,0.703125,0,0
-2.34398412430892E-05,1.03610836958978E-05,0.703125,0,0
-2.355292053835E-05,9.87222938420018E-06,0.703125,0,0
-2.5057515813387E-05,1.15587245090865E-05,0.703125,0,0
-2.44804741669213E-05,1.24877324196859E-05,0.703125,0,0
-2.65798953478225E-05,1.38372543005971E-05,0.703125,0,0
-2.74922840617364E-05,1.1774197446357E-05,0.703125,0,0
-2.97001570288558E-05,1.03322536233463E-05,0.703125,0,0
-2.8893664421048E-05,9.23147308640182E-06,0.703125,0,0
-3.03510605590418E-05,1.04997307062149E-05,0.703125,0,0
-3.05054600175936E-05,1.0746427506092E-05,0.703125,0,0
-2.96927573799621E-05,1.09352886283887E-05,0.703125,0,0
-2.68789717665641E-05,1.00302149803611E-05,0.703125,0,0
-2.56906223512487E-05,8.65449510456529E-06,0.703125,0,0
-2.57243500527693E-05,7.20481511962134E-06,0.703125,0,0
-2.60575525317108E-05,6.30690146863344E-06,0.703125,0,0
-2.1111185560585E-05,6.15887165622553E-06,0.703125,0,0
-3.02487878798274E-05,9.33125556912273E-06,0.703125,0,0
-2.35051447816659E-05,8.25967254058924E-06,0.703125,0,0
-2.91224678221624E-05,1.08894073491683E-05,0.703125,0,0
-2.42915830312995E-05,1.06843799585477E-05,0.703125,0,0
-2.73843870672863E-05,1.19933292808128E-05,0.703125,0,0
-2.66855622612638E-05,1.03001639217837E-05,0.703125,0,0
-2.86410613625776E-05,7.21363448974444E-06,0.703125,0,0
-2.80090571322944E-05,4.64364848085097E-06,0.703125,0,0
-2.82351156783989E-05,2.85803753286018E-06,0.703125,0,0
-2.78418956440873E-05,3.01521367873647E-06,0.703125,0,0
-2.57014962699031E-05,5.98494852965814E-06,0.703125,0,0
-2.5686034859973E-05,9.46968793869019E-06,0.703125,0,0
-2.42475816776278E-05,9.09350637812167E-06,0.703125,0,0
-2.482381023583E-05,7.28122950022225E-06,0.703125,0,0
-2.29672623390798E-05,6.48028890282149E-06,0.703125,0,0
-2.36268479056889E-05,9.15668260859093E-06,0.703125,0,0
-2.22655980905984E-05,1.18585012387484E-05,0.703125,0,0
-2.23222123167943E-05,1.28050405692193E-05,0.703125,0,0
-2.08472192753106E-05,1.07916002889397E-05,0.703125,0,0
-2.19997909880476E-05,8.94619734026492E-06,0.703125,0,0
-2.14016818063101E-05,7.41590974939754E-06,0.703125,0,0
-2.12253871723078E-05,5.33510319655761E-06,0.703125,0,0
-2.03529398277169E-05,4.3022964746342E-06,0.703125,0,0
-1.98174093384296E-05,5.93898630540934E-06,0.703125,0,0
-1.89674992725486E-05,8.15394560049754E-06,0.703125,0,0
-1.96611599676544E-05,8.42122608446516E-06,0.703125,0,0
-1.70451203302946E-05,5.3152175496507E-06,0.703125,0,0
-2.41619509324664E-05,8.5960709839128E-06,0.703125,0,0
-1.77043202711502E-05,9.30460191739257E-06,0.703125,0,0
-2.05745727726026E-05,1.33206949612941E-05,0.703125,0,0
-1.60657127707964E-05,1.39977164508309E-05,0.703125,0,0
-1.80542392627103E-05,1.59106366481865E-05,0.703125,0,0
-1.70308921951801E-05,1.62288051797077E-05,0.703125,0,0
-1.96963519556448E-05,1.61272546392865E-05,0.703125,0,0
-2.01843195100082E-05,1.53092514665332E-05,0.703125,0,0
-1.98507386812707E-05,1.48388753586914E-05,0.703125,0,0
-1.888503174996E-05,1.41784112202004E-05,0.703125,0,0
-1.76982357515953E-05,1.29787604237208E-05,0.703125,0,0
-1.93784580915235E-05,1.08658450699295E-05,0.703125,0,0
-2.00131926249014E-05,8.1387943282607E-06,0.703125,0,0
-2.18082332139602E-05,6.3033676269697E-06,0.703125,0,0
-2.11175702133914E-05,4.87009037897224E-06,0.703125,0,0
-2.17235774471192E-05,5.4295369409374E-06,0.703125,0,0
-2.01650582312141E-05,6.58530825603521E-06,0.703125,0,0
-2.07487428269815E-05,8.51667846291093E-06,0.703125,0,0
-2.13062339753378E-05,9.484674592386E-06,0.703125,0,0
-2.33115988521604E-05,9.90795706456993E-06,0.703125,0,0
-2.27474065468414E-05,9.38688117457787E-06,0.703125,0,0
-2.34798826568294E-05,9.83598147286102E-06,0.703125,0,0
-2.48660253419075E-05,1.0947611372103E-05,0.703125,0,0
-2.70894779532682E-05,1.0713863048295E-05,0.703125,0,0
-2.90916104859207E-05,9.21159244171577E-06,0.703125,0,0
-3.03043616440846E-05,8.93528613232775E-06,0.703125,0,0
-2.42223741224734E-05,7.49173659642111E-06,0.703125,0,0
-3.43268475262448E-05,9.58591135713505E-06,0.703125,0,0
-2.604913788673E-05,2.28916087507969E-06,0.703125,0,0
-3.15691031573806E-05,-3.47436230185849E-06,0.703125,0,0
-2.63345173152629E-05,-8.78564878803445E-06,0.703125,0,0
-3.13565105898306E-05,-5.46014189239941E-06,0.703125,0,0
-2.95641202683328E-05,-2.83810391010775E-06,0.703125,0,0
-3.02772459690459E-05,3.63217367294055E-07,0.703125,0,0
-2.70868113148026E-05,2.56256794273213E-06,0.703125,0,0
-2.59564640145982E-05,5.08335870108567E-06,0.703125,0,0
-2.75615566351917E-05,7.84122039476642E-06,0.703125,0,0
-2.84150119114202E-05,1.0051050594484E-05,0.703125,0,0
-2.9337794330786E-05,1.28531000882504E-05,0.703125,0,0
-2.71739190793596E-05,1.30745656861109E-05,0.703125,0,0
-2.84086327155819E-05,1.15446255222196E-05,0.703125,0,0
-2.74538306257455E-05,1.00091629064991E-05,0.703125,0,0
-2.88048104266636E-05,1.27943530969787E-05,0.703125,0,0
-2.6806301320903E-05,1.59488463395974E-05,0.703125,0,0
-2.73749337793561E-05,1.81610212166561E-05,0.703125,0,0
-2.67206578428159E-05,1.86075740202796E-05,0.703125,0,0
-2.85455789708067E-05,1.904385862872E-05,0.703125,0,0
-2.85160767816706E-05,1.71688370755874E-05,0.703125,0,0
-2.99051298497943E-05,1.43537263284088E-05,0.703125,0,0
-2.98480717901839E-05,1.10576829683851E-05,0.703125,0,0
-3.08211128867697E-05,8.1286871136399E-06,0.703125,0,0
-3.22389860230032E-05,7.37836808184511E-06,0.703125,0,0
-3.26184745063074E-05,7.37790014682105E-06,0.703125,0,0
-2.45102219196269E-05,5.59745603823103E-06,0.703125,0,0
-3.50948066625278E-05,9.23442075873027E-06,0.703125,0,0
-2.7814096029033E-05,8.22259335109266E-06,0.703125,0,0
-3.45467778970487E-05,5.74510613660095E-06,0.703125,0,0
-2.96830494335154E-05,-1.4887464203639E-06,0.703125,0,0
-3.3469645131845E-05,-3.34904666488001E-06,0.703125,0,0
-2.94426845357521E-05,-2.48983405981562E-06,0.703125,0,0
-2.81593529507518E-05,1.84693169558159E-06,0.703125,0,0
-2.49307267949916E-05,7.35516368877143E-06,0.703125,0,0
-2.46562758547952E-05,1.13783898996189E-05,0.703125,0,0
-2.49330259975977E-05,1.14652866614051E-05,0.703125,0,0
-2.45579067268409E-05,7.88489796832437E-06,0.703125,0,0
-2.6376203095424E-05,5.28961027157493E-06,0.703125,0,0
-2.64071823039558E-05,5.18188062414993E-06,0.703125,0,0
-2.92309432552429E-05,6.16154193266993E-06,0.703125,0,0
-2.81101583823329E-05,4.59563034382882E-06,0.703125,0,0
-2.75002748821862E-05,3.81485779143986E-06,0.703125,0,0
-2.33162536460441E-05,5.31645355295041E-06,0.703125,0,0
-2.29529705393361E-05,8.78714126884006E-06,0.703125,0,0
-2.17716878978536E-05,1.09623897515121E-05,0.703125,0,0
-2.27572127187159E-05,1.09016273199813E-05,0.703125,0,0
-2.16997741517844E-05,9.57956308411667E-06,0.703125,0,0
-2.17369397432776E-05,1.13849391709664E-05,0.703125,0,0
-1.9755234461627E-05,1.48418566823239E-05,0.703125,0,0
-1.86744509846903E-05,1.83795873454073E-05,0.703125,0,0
-1.85667577170534E-05,1.98697598534636E-05,0.703125,0,0
-1.96705350390403E-05,1.88540270755766E-05,0.703125,0,0
-1.59627979883226E-05,1.45409803735674E-05,0.703125,0,0
-2.2213620468392E-05,2.02070623345207E-05,0.703125,0,0
-1.5576735677314E-05,1.44852065204759E-05,0.703125,0,0
-1.73582575371256E-05,1.7829168427852E-05,0.703125,0,0
-1.24675289043807E-05,1.43681900226511E-05,0.703125,0,0
-1.44520436151652E-05,1.3976993614051E-05,0.703125,0,0
-1.37436181830708E-05,6.87086776451906E-06,0.703125,0,0
-1.62152336997679E-05,6.29171745458734E-06,0.703125,0,0
-1.71182036865503E-05,1.10621513158549E-05,0.703125,0,0
-1.85263361345278E-05,1.73499065567739E-05,0.703125,0,0
-1.96655546460534E-05,2.07127850444522E-05,0.703125,0,0
-1.98641646420583E-05,2.07293032872258E-05,0.703125,0,0
-2.07482571568107E-05,1.93796022358583E-05,0.703125,0,0
-1.97772551473463E-05,1.56093410623726E-05,0.703125,0,0
-2.00625181605574E-05,1.41426735353889E-05,0.703125,0,0
-1.90986283996608E-05,1.19608284876449E-05,0.703125,0,0
-2.02743703994202E-05,1.23739600894623E-05,0.703125,0,0
-1.92639254237292E-05,1.1245799214521E-05,0.703125,0,0
-2.01659113372443E-05,1.08791718957946E-05,0.703125,0,0
-2.00333670363761E-05,1.00507450042642E-05,0.703125,0,0
-2.06369331863243E-05,1.23308245747467E-05,0.703125,0,0
-1.88162175618345E-05,1.49354509630939E-05,0.703125,0,0
-1.70251023519086E-05,1.75082477653632E-05,0.703125,0,0
-1.43921288326965E-05,1.60333820531378E-05,0.703125,0,0
-1.3407482583716E-05,1.32339773699641E-05,0.703125,0,0
-1.41708414957975E-05,9.87985276879044E-06,0.703125,0,0
-1.53547080117278E-05,7.05283309798688E-06,0.703125,0,0
-1.28145284179482E-05,5.07012100570137E-06,0.703125,0,0
-1.7778504115995E-05,8.4433540905593E-06,0.703125,0,0
-1.38152490762877E-05,8.40834036353044E-06,0.703125,0,0
-1.9123461242998E-05,9.77137369773118E-06,0.703125,0,0
-1.83428874152014E-05,8.8311790022999E-06,0.703125,0,0
-2.11849528568564E-05,9.73645728663541E-06,0.703125,0,0
-2.10299931495683E-05,9.20140792004531E-06,0.703125,0,0
-2.29420493269572E-05,8.87952501216205E-06,0.703125,0,0
-2.19501816900447E-05,8.80996594787575E-06,0.703125,0,0
-2.00781269086292E-05,1.01681744126836E-05,0.703125,0,0
-1.94654858205467E-05,1.19625810839352E-05,0.703125,0,0
-2.00280228455085E-05,1.25807737276773E-05,0.703125,0,0
-2.22529088205192E-05,1.24866246551392E-05,0.703125,0,0
-2.2091737264418E-05,1.06635870906757E-05,0.703125,0,0
-2.21994978346629E-05,8.33474587125238E-06,0.703125,0,0
-2.08486981136957E-05,7.06985838405672E-06,0.703125,0,0
-2.16603730223142E-05,9.19262583920499E-06,0.703125,0,0
-2.19227713387227E-05,1.08575441117864E-05,0.703125,0,0
-2.34423714573495E-05,1.07490795926424E-05,0.703125,0,0
-2.3710323148407E-05,9.81126413535094E-06,0.703125,0,0
-2.53743146458874E-05,1.03742786450312E-05,0.703125,0,0
-2.60069627984194E-05,1.08506210381165E-05,0.703125,0,0
-2.68208332272479E-05,1.12330571937491E-05,0.703125,0,0
-2.84922807622934E-05,1.27206385514E-05,0.703125,0,0
-3.12624979414977E-05,1.4536019989464E-05,0.703125,0,0
-3.27029738400597E-05,1.45036929097841E-05,0.703125,0,0
-3.40616461471654E-05,1.42186472658068E-05,0.703125,0,0
-2.88372084469302E-05,1.10111632238841E-05,0.703125,0,0
-4.17082956118975E-05,1.38502364279702E-05,0.703125,0,0
-3.20709004881792E-05,8.24613289296394E-06,0.703125,0,0
-3.81668578484096E-05,1.12790294224396E-05,0.703125,0,0
-3.01489872072125E-05,1.05056988104479E-05,0.703125,0,0
-3.21482038998511E-05,1.48848603203078E-05,0.703125,0,0
-2.72704000963131E-05,1.44376890602871E-05,0.703125,0,0
-2.73527257377282E-05,1.54888693941757E-05,0.703125,0,0
-2.60859906120459E-05,1.59735245688353E-05,0.703125,0,0
-2.6507439542911E-05,1.5232424630085E-05,0.703125,0,0
-2.5583547540009E-05,1.24353255159804E-05,0.703125,0,0
-2.38130578509299E-05,9.02466490515508E-06,0.703125,0,0
-2.63666752289282E-05,7.85554402682465E-06,0.703125,0,0
-2.73201858362881E-05,7.47415788282524E-06,0.703125,0,0
-2.97458664135775E-05,9.7949814517051E-06,0.703125,0,0
-2.81501015706453E-05,1.13224132292089E-05,0.703125,0,0
-2.96820853691315E-05,1.37622582769836E-05,0.703125,0,0
-2.79551113635534E-05,1.3636714356835E-05,0.703125,0,0
-2.90462812699843E-05,1.33907415147405E-05,0.703125,0,0
-2.69270658463938E-05,1.19698561320547E-05,0.703125,0,0
-2.54947863140842E-05,1.18297793960664E-05,0.703125,0,0
-2.10535763471853E-05,1.12913166958606E-05,0.703125,0,0
-1.95171633095015E-05,1.20258373499382E-05,0.703125,0,0
-1.8833285139408E-05,1.18242869575624E-05,0.703125,0,0
-1.92511397472117E-05,1.16743094622507E-05,0.703125,0,0
-1.96374585357262E-05,1.04075579656637E-05,0.703125,0,0
-2.09224599529989E-05,9.6294916147599E-06,0.703125,0,0
-1.62433243531268E-05,8.18197986518499E-06,0.703125,0,0
-2.27246491704136E-05,1.08080630525365E-05,0.703125,0,0
-1.8853330402635E-05,6.83244616084266E-06,0.703125,0,0
-2.51770525210304E-05,7.68841891840566E-06,0.703125,0,0
-2.22016678890213E-05,6.1326159084274E-06,0.703125,0,0
-2.51215897151269E-05,8.7827511379146E-06,0.703125,0,0
-2.35320985666476E-05,8.53951132739894E-06,0.703125,0,0
-2.36802497965982E-05,8.98116468306398E-06,0.703125,0,0
-2.33526734518819E-05,8.73224689712515E-06,0.703125,0,0
-2.51752080657752E-05,9.54541610553861E-06,0.703125,0,0
-2.68865460384404E-05,1.07786263470189E-05,0.703125,0,0
-2.59324388025561E-05,1.18520747491857E-05,0.703125,0,0
-2.57836436503567E-05,1.30149464894203E-05,0.703125,0,0
-2.49871100095334E-05,1.2507112842286E-05,0.703125,0,0
-2.68624044110766E-05,1.15911489046994E-05,0.703125,0,0
-2.62469638983021E-05,9.21168430068064E-06,0.703125,0,0
-2.61649929598207E-05,9.82072015176527E-06,0.703125,0,0
-2.38011489273049E-05,1.19475698738825E-05,0.703125,0,0
-2.30661516980035E-05,1.44254290717072E-05,0.703125,0,0
-2.08929050131701E-05,1.47205364555703E-05,0.703125,0,0
-2.01479051611386E-05,1.58625989570282E-05,0.703125,0,0
-1.9830649762298E-05,1.46848915392184E-05,0.703125,0,0
-2.05982505576685E-05,1.20710728879203E-05,0.703125,0,0
-1.94274489331292E-05,1.05826138678822E-05,0.703125,0,0
-1.86452652997104E-05,1.14296171886963E-05,0.703125,0,0
-1.83866995939752E-05,1.07715495687444E-05,0.703125,0,0
-1.89272050192812E-05,1.00988036138006E-05,0.703125,0,0
-1.64975735970074E-05,1.0492392902961E-05,0.703125,0,0
-2.39168311964022E-05,1.72571453731507E-05,0.703125,0,0
-1.91404560609953E-05,1.56897804117762E-05,0.703125,0,0
-2.35430434258888E-05,1.77759720827453E-05,0.703125,0,0
-2.04787447728449E-05,1.52216407514061E-05,0.703125,0,0
-2.16786374949152E-05,1.46011179822381E-05,0.703125,0,0
-1.78532718564384E-05,1.03909997051232E-05,0.703125,0,0
-1.77131150849164E-05,6.1827113313484E-06,0.703125,0,0
-1.67706075444585E-05,2.01318198378431E-06,0.703125,0,0
-1.72935051523382E-05,3.19421724270796E-06,0.703125,0,0
-1.82627318281448E-05,7.84031999501167E-06,0.703125,0,0
-1.80821480171289E-05,1.14090826173197E-05,0.703125,0,0
-1.90568971447647E-05,1.25343412946677E-05,0.703125,0,0
-1.91958133655135E-05,1.06979587144451E-05,0.703125,0,0
-2.12847007787786E-05,1.04134851426352E-05,0.703125,0,0
-2.09206700674258E-05,1.020215859171E-05,0.703125,0,0
-2.09220870601712E-05,1.0986308552674E-05,0.703125,0,0
-1.882150718302E-05,1.02032208815217E-05,0.703125,0,0
-1.98844099941198E-05,1.07304394987295E-05,0.703125,0,0
-2.06652384804329E-05,1.09902466647327E-05,0.703125,0,0
-2.19247503991937E-05,1.21551129268482E-05,0.703125,0,0
-2.09204954444431E-05,1.16334422273212E-05,0.703125,0,0
-2.06310287467204E-05,9.93479079625104E-06,0.703125,0,0
-1.95776719920104E-05,8.17152977106161E-06,0.703125,0,0
-2.01322873181198E-05,7.8990724432515E-06,0.703125,0,0
-2.1513977117138E-05,7.64934156904928E-06,0.703125,0,0
-2.29161942115752E-05,8.34923775983043E-06,0.703125,0,0
-1.83866886800388E-05,8.86099769559223E-06,0.703125,0,0
-2.69082083832473E-05,1.335440629191E-05,0.703125,0,0
-2.15663912968012E-05,8.84804740053369E-06,0.703125,0,0
-2.70417331194039E-05,7.80121627030894E-06,0.703125,0,0
-2.39383407460991E-05,6.43348175799474E-06,0.703125,0,0
-2.62511930486653E-05,1.01074019767111E-05,0.703125,0,0
-2.3628412236576E-05,1.02003232314019E-05,0.703125,0,0
-2.39468627114547E-05,9.58411692408845E-06,0.703125,0,0
-2.30875939450925E-05,8.23167283670045E-06,0.703125,0,0
-2.27347300096881E-05,6.00838075115462E-06,0.703125,0,0
-2.23415445361752E-05,1.86076556474291E-06,0.703125,0,0
-2.15704330912558E-05,-2.00620866053214E-06,0.703125,0,0
-2.2400839952752E-05,-2.37182030105032E-06,0.703125,0,0
-2.10314465221018E-05,2.52439974701701E-07,0.703125,0,0
-2.13767216337146E-05,6.84003771311836E-06,0.703125,0,0
-2.13304592762142E-05,1.10462733573513E-05,0.703125,0,0
-2.42267597059254E-05,1.16921810331405E-05,0.703125,0,0
-2.43902541114949E-05,9.97952975012595E-06,0.703125,0,0
-2.5113007723121E-05,9.3210828708834E-06,0.703125,0,0
-2.42613459704444E-05,7.51034303902998E-06,0.703125,0,0
-2.58482123172143E-05,6.85168470226927E-06,0.703125,0,0
-2.65870294242632E-05,7.26251982996473E-06,0.703125,0,0
-2.7161710022483E-05,8.69062478159321E-06,0.703125,0,0
-2.63278743659612E-05,9.24313189898385E-06,0.703125,0,0
-2.5841580281849E-05,9.13408257474657E-06,0.703125,0,0
-2.566573311924E-05,9.97970073512988E-06,0.703125,0,0
-2.68459734797943E-05,1.26555214592372E-05,0.703125,0,0
-2.31448193517281E-05,1.26650747915846E-05,0.703125,0,0
-3.34227879648097E-05,1.74649721884634E-05,0.703125,0,0
-2.57117626460968E-05,9.79734704742441E-06,0.703125,0,0
-3.06454239762388E-05,9.68418680713512E-06,0.703125,0,0
-2.48096184805036E-05,7.30473675503163E-06,0.703125,0,0
-2.79900596069638E-05,1.07085343188373E-05,0.703125,0,0
-2.66715651378036E-05,1.02086833067006E-05,0.703125,0,0
-2.89080180664314E-05,9.53874678089051E-06,0.703125,0,0
-2.8238762752153E-05,5.52251412955229E-06,0.703125,0,0
-2.79263931588503E-05,-2.55056488640548E-06,0.703125,0,0
-2.84666075458517E-05,-1.21343246064498E-05,0.703125,0,0
-2.9448314307956E-05,-1.62379001267254E-05,0.703125,0,0
-3.17372032441199E-05,-1.09251541289268E-05,0.703125,0,0
-3.05061730614398E-05,-2.25545818466344E-06,0.703125,0,0
-3.16173536702991E-05,7.44745466363383E-06,0.703125,0,0
-3.07316004182212E-05,1.34341053126263E-05,0.703125,0,0
-3.16858604492154E-05,1.79310718522174E-05,0.703125,0,0
-2.97902988677379E-05,1.76116373040713E-05,0.703125,0,0
-3.08068993035704E-05,1.60049476107815E-05,0.703125,0,0
-2.98781578749185E-05,1.43938223118312E-05,0.703125,0,0
-2.99304429063341E-05,1.61548214236973E-05,0.703125,0,0
-2.81185257335892E-05,1.81755222001811E-05,0.703125,0,0
-2.79878131550504E-05,2.05313281185227E-05,0.703125,0,0
-2.74444464594126E-05,2.04023053811397E-05,0.703125,0,0
-2.74314134003362E-05,1.91003910003928E-05,0.703125,0,0
-2.61903696809895E-05,1.93504856724758E-05,0.703125,0,0
-2.50848097493872E-05,2.16250373341609E-05,0.703125,0,0
-1.90793562069302E-05,1.76767534867395E-05,0.703125,0,0
-2.57587853411678E-05,1.87326040759217E-05,0.703125,0,0
-1.82511539605912E-05,5.50244112673681E-06,0.703125,0,0
-2.4039944037213E-05,1.23118852570769E-05,0.703125,0,0
-2.13126113521867E-05,1.37790584631148E-05,0.703125,0,0
-2.39255332417088E-05,2.06817658181535E-05,0.703125,0,0
-2.01304319489282E-05,1.84145337698283E-05,0.703125,0,0
-1.98895231733331E-05,1.59795581566868E-05,0.703125,0,0
-1.96357632376021E-05,1.26848381114542E-05,0.703125,0,0
-2.12397062568925E-05,1.09217999124667E-05,0.703125,0,0
-2.19533667404903E-05,7.47176727600163E-06,0.703125,0,0
-2.08845031011151E-05,3.14106546284165E-06,0.703125,0,0
-2.11110127565917E-05,2.81005873148388E-06,0.703125,0,0
-1.99640635401011E-05,2.48140622716164E-06,0.703125,0,0
-2.08258625207236E-05,4.30289583164267E-06,0.703125,0,0
-2.02245937543921E-05,3.24841721521807E-06,0.703125,0,0
-2.35469196923077E-05,5.17859234605567E-06,0.703125,0,0
-2.52000336331548E-05,7.87477074482013E-06,0.703125,0,0
-2.82475721178344E-05,1.4534562069457E-05,0.703125,0,0
-2.88553492282517E-05,1.69960658240598E-05,0.703125,0,0
-3.10784525936469E-05,1.67959569807863E-05,0.703125,0,0
-3.16454788844567E-05,1.4369413293025E-05,0.703125,0,0
-3.16861951432657E-05,1.35210211738013E-05,0.703125,0,0
-3.00152551062638E-05,1.20348331620335E-05,0.703125,0,0
-2.8264947104617E-05,1.09462871478172E-05,0.703125,0,0
-2.67406485363608E-05,9.23639345273841E-06,0.703125,0,0
-2.80888471024809E-05,9.32481816562358E-06,0.703125,0,0
-2.51940327871125E-05,9.17373108677566E-06,0.703125,0,0
-3.78966396965552E-05,1.51491312863072E-05,0.703125,0,0
-3.21193874697201E-05,1.54551671585068E-05,0.703125,0,0
-3.8748523365939E-05,1.83145402843365E-05,0.703125,0,0
-3.16829573421273E-05,1.58105558512034E-05,0.703125,0,0
-3.3367847208865E-05,1.73995558725437E-05,0.703125,0,0
-3.09179486066569E-05,1.78404570760904E-05,0.703125,0,0
-3.181789725204E-05,1.71033207152504E-05,0.703125,0,0
-2.94585061055841E-05,1.1901045581908E-05,0.703125,0,0
-2.92216518573696E-05,6.6007487475872E-06,0.703125,0,0
-2.96934340440203E-05,7.05441880199942E-06,0.703125,0,0
-2.83139070234029E-05,1.22260662465123E-05,0.703125,0,0
-2.83392928395187E-05,1.78336995304562E-05,0.703125,0,0
-2.58114232565276E-05,2.01166585611645E-05,0.703125,0,0
-2.61072509601945E-05,2.14675874303794E-05,0.703125,0,0
-2.41579455177998E-05,2.04519201361109E-05,0.703125,0,0
-2.53362250077771E-05,1.91120889212471E-05,0.703125,0,0
-2.43684098677477E-05,1.65110996022122E-05,0.703125,0,0
-2.53118159889709E-05,1.61181069415761E-05,0.703125,0,0
-2.40219833358424E-05,1.63835484272568E-05,0.703125,0,0
-2.62962566921487E-05,1.66030567925191E-05,0.703125,0,0
-2.65651797235478E-05,1.44448040373391E-05,0.703125,0,0
-2.60851720668143E-05,1.25229043987929E-05,0.703125,0,0
-2.42318310483824E-05,1.29572772493702E-05,0.703125,0,0
-2.37718304560985E-05,1.47282198668108E-05,0.703125,0,0
-2.40172630583402E-05,1.40332167575252E-05,0.703125,0,0
-2.51322526310105E-05,1.14487866085256E-05,0.703125,0,0
-2.11187361855991E-05,9.6755575214047E-06,0.703125,0,0
-3.07685513689648E-05,1.50442829180975E-05,0.703125,0,0
-2.37673921219539E-05,1.25181013572728E-05,0.703125,0,0
-2.84777070191922E-05,1.26442937471438E-05,0.703125,0,0
-2.44822876993567E-05,8.72795590112219E-06,0.703125,0,0
-2.67471968982136E-05,9.5806535682641E-06,0.703125,0,0
-2.31989306485048E-05,8.49558909976622E-06,0.703125,0,0
-2.37287440540968E-05,8.92100797500461E-06,0.703125,0,0
-2.20171168621164E-05,9.99217900243821E-06,0.703125,0,0
-2.100007077388E-05,1.20055947263609E-05,0.703125,0,0
-2.07183875318151E-05,1.2121713552915E-05,0.703125,0,0
-1.99176847672788E-05,1.18460147859878E-05,0.703125,0,0
-2.11754795600427E-05,1.30703210743377E-05,0.703125,0,0
-2.08177407330368E-05,1.32079994727974E-05,0.703125,0,0
-2.20866095332894E-05,1.35322470669053E-05,0.703125,0,0
-2.07569410122233E-05,1.23730133054778E-05,0.703125,0,0
-2.23048355110222E-05,1.11401413960266E-05,0.703125,0,0
-2.27427462959895E-05,8.93295782589121E-06,0.703125,0,0
-2.49946151598124E-05,9.19612284633331E-06,0.703125,0,0
-2.36449923249893E-05,9.22000253922306E-06,0.703125,0,0
-2.40410408878233E-05,1.00062516139587E-05,0.703125,0,0
-2.39926139329327E-05,8.8856049842434E-06,0.703125,0,0
-2.47744028456509E-05,7.32111311663175E-06,0.703125,0,0
-2.41972902585985E-05,5.41875851922669E-06,0.703125,0,0
-2.38384600379504E-05,4.37009202869376E-06,0.703125,0,0
-2.42449477809714E-05,5.90580248172046E-06,0.703125,0,0
-2.52654535870533E-05,8.22304718894884E-06,0.703125,0,0
-2.11129554372747E-05,6.00455814492307E-06,0.703125,0,0
-3.03785200230777E-05,7.71177656133659E-06,0.703125,0,0
-2.3824295567465E-05,5.73735269426834E-06,0.703125,0,0
-2.78798906947486E-05,7.97478151071118E-06,0.703125,0,0
-2.05718170036562E-05,5.80475671085878E-06,0.703125,0,0
-2.23651713895379E-05,4.90125694341259E-06,0.703125,0,0
-2.04006446438143E-05,2.63652486864885E-06,0.703125,0,0
-2.16701700992417E-05,2.64885875367327E-06,0.703125,0,0
-2.06969689315883E-05,3.34680180458236E-06,0.703125,0,0
-1.98131128854584E-05,5.43130227015354E-06,0.703125,0,0
-1.85044264071621E-05,7.71098530094605E-06,0.703125,0,0
-1.55636553245131E-05,9.33480077947024E-06,0.703125,0,0
-1.44791274578893E-05,1.08082940641907E-05,0.703125,0,0
-1.3209784810897E-05,1.00131228464306E-05,0.703125,0,0
-1.47978789755143E-05,9.24944652069826E-06,0.703125,0,0
-1.30159132822882E-05,8.9548047981225E-06,0.703125,0,0
-1.32740415210719E-05,1.09400052679121E-05,0.703125,0,0
-1.20573613457964E-05,1.28222427520086E-05,0.703125,0,0
-1.42886283356347E-05,1.43551296787336E-05,0.703125,0,0
-1.51694393935031E-05,1.33875573737896E-05,0.703125,0,0
-1.59993924171431E-05,1.13210962808807E-05,0.703125,0,0
-1.39529893203871E-05,8.79392791830469E-06,0.703125,0,0
-1.35873315230128E-05,8.27654093882302E-06,0.703125,0,0
-1.32722707348876E-05,8.070770491031E-06,0.703125,0,0
-1.53693308675429E-05,7.30783631297527E-06,0.703125,0,0
-1.75158529600594E-05,6.58971066513914E-06,0.703125,0,0
-1.70747753145406E-05,7.23806579117081E-06,0.703125,0,0
-1.29610098156263E-05,5.72074213778251E-06,0.703125,0,0
-1.80941369762877E-05,6.67888025418506E-06,0.703125,0,0
-1.35292002596543E-05,4.09690437663812E-06,0.703125,0,0
-1.80207480298122E-05,6.54679388389923E-06,0.703125,0,0
-1.7647560525802E-05,4.84143401990877E-06,0.703125,0,0
-2.04045081773074E-05,5.09168648932246E-06,0.703125,0,0
-1.78071077243658E-05,3.73466036762693E-06,0.703125,0,0
-1.81970572157297E-05,2.96899611385015E-06,0.703125,0,0
-2.0060280803591E-05,3.03147658087255E-06,0.703125,0,0
-2.21369264181703E-05,4.21904996983358E-06,0.703125,0,0
-2.3005464754533E-05,5.17559919899213E-06,0.703125,0,0
-2.26534539251588E-05,6.53063307254342E-06,0.703125,0,0
-2.36081687035039E-05,7.31079671822954E-06,0.703125,0,0
-2.33277241932228E-05,6.4805767578946E-06,0.703125,0,0
-2.37553358601872E-05,7.71078794059576E-06,0.703125,0,0
-2.32700822380139E-05,9.67026335274568E-06,0.703125,0,0
-2.55998766078847E-05,1.25595606732531E-05,0.703125,0,0
-2.61899640463525E-05,1.50054083860596E-05,0.703125,0,0
-2.62962275883183E-05,1.72751606442034E-05,0.703125,0,0
-2.49135646299692E-05,1.64988505275687E-05,0.703125,0,0
-2.5124492822215E-05,1.56076275743544E-05,0.703125,0,0
-2.66575898422161E-05,1.60254166985396E-05,0.703125,0,0
-3.11344520014245E-05,1.78679729287978E-05,0.703125,0,0
-3.39242396876216E-05,1.9353263269295E-05,0.703125,0,0
-3.4555938327685E-05,2.1156323782634E-05,0.703125,0,0
-3.49074289260898E-05,2.10286052606534E-05,0.703125,0,0
-3.4742450225167E-05,1.91416347661288E-05,0.703125,0,0
-2.81625289062504E-05,1.42783446790418E-05,0.703125,0,0
-4.17871269746684E-05,2.11263268283801E-05,0.703125,0,0
-3.40044061886147E-05,1.88906669791322E-05,0.703125,0,0
-4.11122382502072E-05,2.45604296651436E-05,0.703125,0,0
-3.36823577526957E-05,2.00562190002529E-05,0.703125,0,0
-3.55965057678986E-05,1.93419782590354E-05,0.703125,0,0
-3.12976189889014E-05,1.55452107719611E-05,0.703125,0,0
-3.21331172017381E-05,1.43825254781405E-05,0.703125,0,0
-3.10900104523171E-05,1.15217644633958E-05,0.703125,0,0
-3.10169561998919E-05,6.9955171966285E-06,0.703125,0,0
-3.13912532874383E-05,2.20943388740125E-06,0.703125,0,0
-3.04583445540629E-05,2.4566070351284E-06,0.703125,0,0
-3.14387943944894E-05,8.98619782674359E-06,0.703125,0,0
-3.05789799313061E-05,1.41297277878039E-05,0.703125,0,0
-3.27807902067434E-05,1.66638819791842E-05,0.703125,0,0
-3.08492490148637E-05,1.31162505567772E-05,0.703125,0,0
-3.12990159727633E-05,8.86787347553764E-06,0.703125,0,0
-2.94409401249141E-05,3.6805365652981E-06,0.703125,0,0
-3.02761745842872E-05,3.45093258147244E-06,0.703125,0,0
-2.847219366231E-05,5.6734374993539E-06,0.703125,0,0
-2.8787349947379E-05,9.76285082288086E-06,0.703125,0,0
-2.65312664851081E-05,1.12003808681038E-05,0.703125,0,0
-2.56938819802599E-05,1.19270325740217E-05,0.703125,0,0
-2.53611724474467E-05,1.147955936176E-05,0.703125,0,0
-2.62188768829219E-05,1.08158983493922E-05,0.703125,0,0
-2.45172195718624E-05,1.05701637949096E-05,0.703125,0,0
-2.22019734792411E-05,1.29270829347661E-05,0.703125,0,0
-1.82774638233241E-05,1.24056650747661E-05,0.703125,0,0
-2.76070604741108E-05,1.60132622113451E-05,0.703125,0,0
-2.27835753321415E-05,8.36726849229308E-06,0.703125,0,0
-2.60562665062025E-05,8.06526531960117E-06,0.703125,0,0
-2.15842264879029E-05,1.81363361662079E-06,0.703125,0,0
-2.44150305661606E-05,2.13302791962633E-06,0.703125,0,0
-2.29406032303814E-05,3.20562185152085E-06,0.703125,0,0
-2.45465143962065E-05,7.00258215147187E-06,0.703125,0,0
-2.52993868343765E-05,8.48427589517087E-06,0.703125,0,0
-2.63418532995274E-05,8.53925484989304E-06,0.703125,0,0
-2.66538445430342E-05,8.2970518633374E-06,0.703125,0,0
-2.47020652750507E-05,8.12411326478468E-06,0.703125,0,0
-2.32408146985108E-05,9.9663202490774E-06,0.703125,0,0
-2.071013841487E-05,1.05232538771816E-05,0.703125,0,0
-2.12249233300099E-05,1.07921523522236E-05,0.703125,0,0
-2.11340138775995E-05,8.09941229817923E-06,0.703125,0,0
-2.30897476285463E-05,6.68651546220644E-06,0.703125,0,0
-2.23116730921902E-05,5.10911513629253E-06,0.703125,0,0
-2.21877744479571E-05,6.58209091852768E-06,0.703125,0,0
-2.00502563529881E-05,8.43495308799902E-06,0.703125,0,0
-1.96498149307445E-05,1.04526088762213E-05,0.703125,0,0
-1.911339131766E-05,9.38520042836899E-06,0.703125,0,0
-2.00911890715361E-05,8.64124194777105E-06,0.703125,0,0
-2.06377262657043E-05,9.47331318457145E-06,0.703125,0,0
-2.23265196837019E-05,1.12968564280891E-05,0.703125,0,0
-2.32680667977547E-05,1.04916371128638E-05,0.703125,0,0
-2.30452988034813E-05,8.52340235724114E-06,0.703125,0,0
-1.87987570825499E-05,7.77488639869262E-06,0.703125,0,0
-2.6693942345446E-05,1.3646662409883E-05,0.703125,0,0
-1.85933622560697E-05,1.42617991514271E-05,0.703125,0,0
-2.14676656469237E-05,1.59804767463356E-05,0.703125,0,0
-1.80312345037237E-05,1.25915257740417E-05,0.703125,0,0
-2.14305273402715E-05,1.24282441902324E-05,0.703125,0,0
-1.92256775335409E-05,1.29665249914979E-05,0.703125,0,0
-1.91667877516011E-05,1.54129193106201E-05,0.703125,0,0
-1.83130377990892E-05,1.59263508976437E-05,0.703125,0,0
-1.95192606042838E-05,1.62591695698211E-05,0.703125,0,0
-2.07372650038451E-05,1.59718201757642E-05,0.703125,0,0
-2.03682338906219E-05,1.15871534944745E-05,0.703125,0,0
-2.13271086977329E-05,5.76763341086917E-06,0.703125,0,0
-2.1064379325253E-05,3.21434322358982E-06,0.703125,0,0
-2.36661326198373E-05,7.43350437915069E-06,0.703125,0,0
-2.43908052652841E-05,1.30873895614059E-05,0.703125,0,0
-2.58171548921382E-05,1.67170474014711E-05,0.703125,0,0
-2.46400741161779E-05,1.60619492817204E-05,0.703125,0,0
-2.69956999545684E-05,1.47931023093406E-05,0.703125,0,0
-2.88317314698361E-05,1.28716874314705E-05,0.703125,0,0
-3.04134791804245E-05,1.16196270028013E-05,0.703125,0,0
-2.93306766252499E-05,9.92961940937676E-06,0.703125,0,0
-2.89349700324237E-05,7.95829873823095E-06,0.703125,0,0
-2.84499074041378E-05,7.44499266147614E-06,0.703125,0,0
-2.92777313006809E-05,9.42694077821216E-06,0.703125,0,0
-2.97445549222175E-05,1.11000144897844E-05,0.703125,0,0
-2.90490497718565E-05,1.13468549898244E-05,0.703125,0,0
-2.12361101148417E-05,8.8527203843114E-06,0.703125,0,0
-2.90094449155731E-05,1.21804632726707E-05,0.703125,0,0
-2.10313864954514E-05,8.13210681371856E-06,0.703125,0,0
-2.66774459305452E-05,1.11312938315677E-05,0.703125,0,0
-2.2151822122396E-05,1.28307237901026E-05,0.703125,0,0
-2.54761471296661E-05,1.67038033396238E-05,0.703125,0,0
-2.27340296987677E-05,1.51973645188264E-05,0.703125,0,0
-2.28927729040151E-05,1.40021902552689E-05,0.703125,0,0
-2.04877524083713E-05,1.33715966512682E-05,0.703125,0,0
-1.92627576325322E-05,1.37742226797855E-05,0.703125,0,0
-1.78055379365105E-05,1.43742472573649E-05,0.703125,0,0
-1.63573513418669E-05,1.4705417015648E-05,0.703125,0,0
-1.80136830749689E-05,1.47667069541058E-05,0.703125,0,0
-1.70394232554827E-05,1.24372290883912E-05,0.703125,0,0
-1.73275748238666E-05,1.07179384940537E-05,0.703125,0,0
-1.6144416804309E-05,1.05307208286831E-05,0.703125,0,0
-1.86234174179845E-05,1.29914214994642E-05,0.703125,0,0
-1.82238327397499E-05,1.23974559755879E-05,0.703125,0,0
-1.89388265425805E-05,1.04549908428453E-05,0.703125,0,0
-1.77384808921488E-05,8.97618429007707E-06,0.703125,0,0
-1.88324847840704E-05,1.05917033579317E-05,0.703125,0,0
-1.83155734703178E-05,1.28264055092586E-05,0.703125,0,0
-1.96409637283068E-05,1.41607597470284E-05,0.703125,0,0
-2.0576129827532E-05,1.26750801427988E-05,0.703125,0,0
-2.21497994061792E-05,1.12034549601958E-05,0.703125,0,0
-2.26045922318008E-05,9.60377474257257E-06,0.703125,0,0
-2.36953965213615E-05,7.4335107456136E-06,0.703125,0,0
-2.17999986489303E-05,5.32540980202612E-06,0.703125,0,0
-3.22592750308104E-05,7.53097447159234E-06,0.703125,0,0
-2.53997004620032E-05,4.75583874504082E-06,0.703125,0,0
-3.02985117741628E-05,4.29884858021978E-06,0.703125,0,0
-2.62185858446173E-05,2.95440190711815E-06,0.703125,0,0
-2.96247944788774E-05,4.24820473199361E-06,0.703125,0,0
-2.77580602414673E-05,3.06599281429953E-06,0.703125,0,0
-2.80440981441643E-05,3.3945339055208E-06,0.703125,0,0
-2.61254954239121E-05,5.30666420672787E-06,0.703125,0,0
-2.539989327488E-05,7.04071544532781E-06,0.703125,0,0
-2.50739303737646E-05,7.540723800048E-06,0.703125,0,0
-2.33801856666105E-05,6.87223018758232E-06,0.703125,0,0
-2.29346733249258E-05,6.43556222712505E-06,0.703125,0,0
-2.06493896257598E-05,6.05280365562066E-06,0.703125,0,0
-2.10224934562575E-05,6.0507941270771E-06,0.703125,0,0
-2.05405449378304E-05,4.91721903017606E-06,0.703125,0,0
-2.21738500840729E-05,4.93298102810513E-06,0.703125,0,0
-2.0135979866609E-05,4.90523325424874E-06,0.703125,0,0
-2.04011157620698E-05,5.01483054904384E-06,0.703125,0,0
-2.01413240574766E-05,4.5908500396763E-06,0.703125,0,0
-2.07861685339594E-05,5.75306512473617E-06,0.703125,0,0
-1.88800659088884E-05,8.66094160301145E-06,0.703125,0,0
-1.85412827704567E-05,1.18729813038954E-05,0.703125,0,0
-1.88377216545632E-05,1.32065151774441E-05,0.703125,0,0
-2.04730822588317E-05,1.35859354486456E-05,0.703125,0,0
-2.02580558834597E-05,1.32850691443309E-05,0.703125,0,0
-1.86651614058064E-05,1.29291984194424E-05,0.703125,0,0
-1.46005913848057E-05,1.18412917800015E-05,0.703125,0,0
-2.11991446121829E-05,1.71000592672499E-05,0.703125,0,0
-1.60709878400667E-05,1.18220623335219E-05,0.703125,0,0
-1.98216457647504E-05,1.18860389193287E-05,0.703125,0,0
-1.90420196304331E-05,7.33897604732192E-06,0.703125,0,0
-2.30021687457338E-05,8.30768294690643E-06,0.703125,0,0
-2.24953819270013E-05,8.38979485706659E-06,0.703125,0,0
-2.35540373978438E-05,1.16781939141219E-05,0.703125,0,0
-2.35360566875897E-05,1.40385018312372E-05,0.703125,0,0
-2.36990472330945E-05,1.64089415193303E-05,0.703125,0,0
-2.35698971664533E-05,1.72723375726491E-05,0.703125,0,0
-2.31401700148126E-05,1.63903278007638E-05,0.703125,0,0
-2.47585921897553E-05,1.67880516528385E-05,0.703125,0,0
-2.54033420787891E-05,1.6403486370109E-05,0.703125,0,0
-2.67895266006235E-05,1.60236268129665E-05,0.703125,0,0
-2.5718651158968E-05,1.33900193759473E-05,0.703125,0,0
-2.56402090599295E-05,1.29737427414511E-05,0.703125,0,0
-2.45000246650307E-05,1.2594186955539E-05,0.703125,0,0
-2.48128053499386E-05,1.36936068884097E-05,0.703125,0,0
-2.40054196183337E-05,1.38227178467787E-05,0.703125,0,0
-2.46771960519254E-05,1.48429380715243E-05,0.703125,0,0
-2.5446852305322E-05,1.5011939467513E-05,0.703125,0,0
-2.79362593573751E-05,1.63371660164557E-05,0.703125,0,0
-2.92557597276755E-05,1.66104164236458E-05,0.703125,0,0
-3.00801548291929E-05,1.56885889737168E-05,0.703125,0,0
-3.13959972118028E-05,1.46568991112872E-05,0.703125,0,0
-3.31397495756391E-05,1.48324470501393E-05,0.703125,0,0
-2.78928782790899E-05,1.33484481921187E-05,0.703125,0,0
-4.02131299779285E-05,1.85618209798122E-05,0.703125,0,0
-3.26284352922812E-05,1.18664311230532E-05,0.703125,0,0
-4.34937246609479E-05,1.30552025439101E-05,0.703125,0,0
-4.09583262808155E-05,9.98406358121429E-06,0.703125,0,0
-4.65391931356862E-05,1.20970371426665E-05,0.703125,0,0
-4.45001642219722E-05,1.06045345091843E-05,0.703125,0,0
-4.66709207103122E-05,1.08360827653087E-05,0.703125,0,0
-4.45905679953285E-05,1.06076495285379E-05,0.703125,0,0
-4.1866056562867E-05,1.03316733657266E-05,0.703125,0,0
-3.99831296817865E-05,9.92859986581607E-06,0.703125,0,0
-3.8068897993071E-05,1.00903998827562E-05,0.703125,0,0
-3.87896652682684E-05,1.10516430140706E-05,0.703125,0,0
-3.63294238923118E-05,1.01720834209118E-05,0.703125,0,0
-3.66702624887694E-05,1.13507039714023E-05,0.703125,0,0
-3.45165099133737E-05,1.17691306513734E-05,0.703125,0,0
-3.48428839060944E-05,1.28821138787316E-05,0.703125,0,0
-3.12085612677038E-05,1.13942405732814E-05,0.703125,0,0
-2.97710957966046E-05,9.5486448117299E-06,0.703125,0,0
-2.60457545664394E-05,6.43585735815577E-06,0.703125,0,0
-2.46899762714747E-05,7.31647332941066E-06,0.703125,0,0
-2.26154152187519E-05,9.85629321803572E-06,0.703125,0,0
-2.30801342695486E-05,1.28364426927874E-05,0.703125,0,0
-2.12567611015402E-05,1.43827528518159E-05,0.703125,0,0
-1.88100930245128E-05,1.66039044415811E-05,0.703125,0,0
-1.62682936206693E-05,1.70529638126027E-05,0.703125,0,0
-1.47386608659872E-05,1.40221400215523E-05,0.703125,0,0
-1.04014116004691E-05,9.13688381842803E-06,0.703125,0,0
-1.22859992188751E-05,1.18981088235159E-05,0.703125,0,0
-5.92813330513309E-06,7.86401596997166E-06,0.703125,0,0
-7.03984460415086E-06,1.02105932455743E-05,0.703125,0,0
-3.03565798276395E-06,9.04312219063286E-06,0.703125,0,0
-2.75215188594302E-06,1.16128385343472E-05,0.703125,0,0
-2.4736792170188E-07,1.19236792670563E-05,0.87890625,0,0
-1.25692361052643E-06,1.45752501339302E-05,0.87890625,0,0
-2.97213182420819E-06,1.54620993271237E-05,0.87890625,0,0
-4.48124683316564E-06,1.52784141391749E-05,0.87890625,0,0
-5.61441129320883E-06,1.55563629959943E-05,0.87890625,0,0
-6.58151884636027E-06,1.69298327818979E-05,0.87890625,0,0
-8.1241241787211E-06,1.91396193258697E-05,0.87890625,0,0
-7.35944558982737E-06,2.02233113668626E-05,0.87890625,0,0
-7.08000061422354E-06,2.30269051826326E-05,0.87890625,0,0
-6.59032230032608E-06,2.42357182287378E-05,0.87890625,0,0
-8.21393041405827E-06,2.33113714784849E-05,0.87890625,0,0
-9.17304896574933E-06,1.74777596839704E-05,0.87890625,0,0
-1.22367946460145E-05,1.13446003524587E-05,0.87890625,0,0
-1.44455580084468E-05,5.54305825062329E-06,0.87890625,0,0
-1.6038422472775E-05,3.3363858165103E-06,0.87890625,0,0
-1.52393267853768E-05,2.89066474579158E-06,0.87890625,0,0
-1.44138166433549E-05,4.1133580452879E-06,0.87890625,0,0
-1.45648236866691E-05,5.17973012392758E-06,0.87890625,0,0
-1.63923650688957E-05,4.00769113184651E-06,0.87890625,0,0
-1.79250000655884E-05,-1.12886095848808E-06,0.87890625,0,0
-1.82617077371106E-05,-5.11878670295118E-06,0.87890625,0,0
-1.44398709380766E-05,-2.13102771340346E-06,0.87890625,0,0
-2.05041251319926E-05,1.42432583061236E-07,0.87890625,0,0
-1.60219678946305E-05,3.85302382710506E-06,0.87890625,0,0
-2.17180713661946E-05,3.19897208100883E-06,0.87890625,0,0
-2.13686507777311E-05,5.01418435305823E-06,0.87890625,0,0
-2.48997748713009E-05,6.41293581793434E-06,0.87890625,0,0
-2.49727636401076E-05,8.58039038575953E-06,0.87890625,0,0
-2.75231232080841E-05,8.77009097166592E-06,0.87890625,0,0
-2.77833951258799E-05,1.04428581835236E-05,0.87890625,0,0
-2.76240843959386E-05,1.06386360130273E-05,0.87890625,0,0
-2.77645267487969E-05,8.94558252184652E-06,0.87890625,0,0
-2.80312451650389E-05,8.2667311289697E-06,0.87890625,0,0
-2.83409972325899E-05,9.3946473498363E-06,0.87890625,0,0
-2.61869299720274E-05,1.06757379398914E-05,0.87890625,0,0
-2.64160298684146E-05,9.80213553702924E-06,0.87890625,0,0
-2.65177386609139E-05,8.20822060632054E-06,0.87890625,0,0
-2.82845740002813E-05,6.3648221839685E-06,0.87890625,0,0
-2.80889107671101E-05,6.96061351845856E-06,0.87890625,0,0
-2.87504444713704E-05,8.5770425357623E-06,0.87890625,0,0
-2.73657078651013E-05,9.98582709144102E-06,0.87890625,0,0
-2.75206366495695E-05,9.54576626099879E-06,0.87890625,0,0
-2.74635895038955E-05,8.81755750015145E-06,0.87890625,0,0
-2.77735252893763E-05,9.02840929484228E-06,0.87890625,0,0
-2.70990512944991E-05,1.09016127680661E-05,0.87890625,0,0
-2.79693722404772E-05,1.01666655609733E-05,0.87890625,0,0
-2.87065922748297E-05,4.49492790721706E-06,0.87890625,0,0
-2.83730423689121E-05,-3.48332673638652E-06,0.87890625,0,0
-2.31303401960758E-05,-4.3481559259817E-06,0.87890625,0,0
-3.35694203386083E-05,-1.07080768430023E-06,0.87890625,0,0
-2.62669236690272E-05,9.30996884562774E-06,0.87890625,0,0
-3.18621423502918E-05,1.31730266730301E-05,0.87890625,0,0
-2.74584290309576E-05,1.58980456035351E-05,0.87890625,0,0
-3.3014399377862E-05,1.44980795084848E-05,0.87890625,0,0
-3.33167481585406E-05,1.14659633254632E-05,0.87890625,0,0
-3.58871693606488E-05,6.73745444146334E-06,0.87890625,0,0
-3.34510768880136E-05,4.00907038056175E-06,0.87890625,0,0
-3.02001135423779E-05,2.20176289644769E-07,0.87890625,0,0
-2.87613129330566E-05,-3.47813352163939E-06,0.87890625,0,0
-2.76404534815811E-05,-3.20815888699144E-06,0.87890625,0,0
-2.7593958293437E-05,9.72312577118828E-08,0.87890625,0,0
-2.54179885814665E-05,5.22909886058187E-06,0.87890625,0,0
-2.56792063737521E-05,1.00190954981372E-05,0.87890625,0,0
-2.33701557590393E-05,1.3856345503882E-05,0.87890625,0,0
-2.3735623472021E-05,1.4598956113332E-05,0.87890625,0,0
-2.25101230171276E-05,1.36607895910856E-05,0.87890625,0,0
-2.48813539656112E-05,1.10468290586141E-05,0.87890625,0,0
-2.46901909122244E-05,1.04964728961932E-05,0.87890625,0,0
-2.37742988247192E-05,1.01580562841264E-05,0.87890625,0,0
-2.12407358048949E-05,8.69160248839762E-06,0.87890625,0,0
-2.28116095968289E-05,6.22432889940683E-06,0.87890625,0,0
-2.48173018917441E-05,4.22336188421468E-06,0.87890625,0,0
-2.6718684239313E-05,4.65384482595255E-06,0.87890625,0,0
-2.78718089248287E-05,7.54787652113009E-06,0.87890625,0,0
-2.91506312350975E-05,8.32297246233793E-06,0.87890625,0,0
-2.43855192820774E-05,6.91351351633784E-06,0.87890625,0,0
-3.43595420417842E-05,1.04245846159756E-05,0.87890625,0,0
-2.50240664172452E-05,8.89012790139532E-06,0.87890625,0,0
-3.06703950627707E-05,1.09312286440399E-05,0.87890625,0,0
-2.54764872806845E-05,9.30607529880945E-06,0.87890625,0,0
-2.8302400096436E-05,1.12440175144002E-05,0.87890625,0,0
-2.63730580627453E-05,1.09561660792679E-05,0.87890625,0,0
-2.92109925794648E-05,1.08461981653818E-05,0.87890625,0,0
-2.89598501694854E-05,1.15106067823945E-05,0.87890625,0,0
-2.8001248210785E-05,1.28401961774216E-05,0.87890625,0,0
-2.65072285401402E-05,1.41895561682759E-05,0.87890625,0,0
-2.49358890869189E-05,1.56748683366459E-05,0.87890625,0,0
-2.72584056801861E-05,1.72106301761232E-05,0.87890625,0,0
-2.70736018137541E-05,1.71082629094599E-05,0.87890625,0,0
-2.74814428848913E-05,1.67742018675199E-05,0.87890625,0,0
-2.45054616243578E-05,1.59811170306057E-05,0.87890625,0,0
-2.45011051447364E-05,1.58574312081328E-05,0.87890625,0,0
-2.22932958422462E-05,1.51698914123699E-05,0.87890625,0,0
-2.21391474042321E-05,1.61873467732221E-05,0.87890625,0,0
-1.95958255062578E-05,1.65756518981652E-05,0.87890625,0,0
-2.03211493499111E-05,1.61245097842766E-05,0.87890625,0,0
-2.062148450932E-05,1.46874426718568E-05,0.87890625,0,0
-2.21007267100504E-05,1.35834943648661E-05,0.87890625,0,0
-2.33017926802859E-05,1.36234275487368E-05,0.87890625,0,0
-2.46891122515081E-05,1.59109586093109E-05,0.87890625,0,0
-2.39462624449516E-05,1.6879930626601E-05,0.87890625,0,0
-2.19096546061337E-05,1.63992062880425E-05,0.87890625,0,0
-1.6506906831637E-05,1.06035522549064E-05,0.87890625,0,0
-2.36457144637825E-05,1.15603061203728E-05,0.87890625,0,0
-1.96514338313136E-05,4.30900672654388E-06,0.87890625,0,0
-2.62586854660185E-05,7.27358155927504E-06,0.87890625,0,0
-2.53070229518926E-05,4.4819194044976E-06,0.87890625,0,0
-2.91686246782774E-05,6.95205062584137E-06,0.87890625,0,0
-2.79082214547088E-05,6.91677041686489E-06,0.87890625,0,0
-2.89977797365282E-05,8.77957336342661E-06,0.87890625,0,0
-2.8280241167522E-05,1.08172271211515E-05,0.87890625,0,0
-2.8406406272552E-05,1.20853883345262E-05,0.87890625,0,0
-2.8314809242147E-05,1.11811777969706E-05,0.87890625,0,0
-2.74331359833013E-05,8.17841009848053E-06,0.87890625,0,0
-2.85069654637482E-05,5.93386675973306E-06,0.87890625,0,0
-2.76962837233441E-05,3.82697317036218E-06,0.87890625,0,0
-2.80155036307406E-05,5.06345168105327E-06,0.87890625,0,0
-2.61412897089031E-05,5.76314369027386E-06,0.87890625,0,0
-2.62771300185705E-05,6.967024091864E-06,0.87890625,0,0
-2.50403627433116E-05,7.38907874620054E-06,0.87890625,0,0
-2.55350332736271E-05,9.48865272221155E-06,0.87890625,0,0
-2.47428997681709E-05,7.71441500546644E-06,0.87890625,0,0
-2.45571245613974E-05,3.72834279005474E-06,0.87890625,0,0
-2.25786989176413E-05,-3.76528390688691E-07,0.87890625,0,0
-2.22135367948795E-05,-1.54524707340897E-06,0.87890625,0,0
-2.03716172109125E-05,-1.44487535180815E-06,0.87890625,0,0
-1.87283712875796E-05,-2.59366629506985E-07,0.87890625,0,0
-1.82964395207819E-05,1.34745675950398E-07,0.87890625,0,0
-1.85545868589543E-05,-1.31582874018932E-06,0.87890625,0,0
-1.43052702696878E-05,-3.66269063079017E-07,0.87890625,0,0
-1.92583938769531E-05,2.00678937289922E-06,0.87890625,0,0
-1.34607334985049E-05,5.188765044295E-06,0.87890625,0,0
-1.87747555173701E-05,6.01706369707244E-06,0.87890625,0,0
-1.75073037098628E-05,7.5160510277783E-06,0.87890625,0,0
-1.93814539670711E-05,8.44862279336667E-06,0.87890625,0,0
-1.70394414453767E-05,1.01180467027007E-05,0.87890625,0,0
-1.77725778485183E-05,1.10694491013419E-05,0.87890625,0,0
-1.75601471710252E-05,1.14810109153041E-05,0.87890625,0,0
-1.82658968697069E-05,1.15408620331436E-05,0.87890625,0,0
-1.95635420823237E-05,1.36105636556749E-05,0.87890625,0,0
-1.99789374164538E-05,1.54051504068775E-05,0.87890625,0,0
-2.22665039473213E-05,1.44144978548866E-05,0.87890625,0,0
-2.34489707509056E-05,1.32260338432388E-05,0.87890625,0,0
-2.53226171480492E-05,1.38461173264659E-05,0.87890625,0,0
-2.40479384956416E-05,1.55189172801329E-05,0.87890625,0,0
-2.41167672356823E-05,1.69651648320723E-05,0.87890625,0,0
-2.38212614931399E-05,1.85478111234261E-05,0.87890625,0,0
-2.53070047619985E-05,1.89378879440483E-05,0.87890625,0,0
-2.47439656959614E-05,1.88065296242712E-05,0.87890625,0,0
-2.44607872446068E-05,1.92806073755492E-05,0.87890625,0,0
-2.35541228903458E-05,2.09362005989533E-05,0.87890625,0,0
-2.40704830503091E-05,2.1135399947525E-05,0.87890625,0,0
-2.47694151767064E-05,1.98162160813808E-05,0.87890625,0,0
-2.57428291661199E-05,1.86375455086818E-05,0.87890625,0,0
-2.63923739112215E-05,1.8294542314834E-05,0.87890625,0,0
-2.7926567781833E-05,1.79999824467814E-05,0.87890625,0,0
-2.32616548601072E-05,1.34368492581416E-05,0.87890625,0,0
-3.20587132591754E-05,1.74906217580428E-05,0.87890625,0,0
-2.34213330259081E-05,1.14458498501335E-05,0.87890625,0,0
-3.08072594634723E-05,1.42307426358457E-05,0.87890625,0,0
-2.73456826107576E-05,9.45577630773187E-06,0.87890625,0,0
-3.04408404190326E-05,1.09645752672805E-05,0.87890625,0,0
-2.64791160589084E-05,9.48803699429845E-06,0.87890625,0,0
-2.65466933342395E-05,1.11312392618856E-05,0.87890625,0,0
-2.52427216764772E-05,1.06789620986092E-05,0.87890625,0,0
-2.69692227448104E-05,1.01283603726188E-05,0.87890625,0,0
-2.96328325930517E-05,1.04275886769756E-05,0.87890625,0,0
-2.98191444016993E-05,1.25005535664968E-05,0.87890625,0,0
-3.00194969895529E-05,1.73926528077573E-05,0.87890625,0,0
-2.87164184555877E-05,1.91707476915326E-05,1.40625,0,0
-3.03492834063945E-05,1.93421947187744E-05,1.40625,0,0
-2.89964555122424E-05,1.64510693139164E-05,1.40625,0,0
-3.02414464385947E-05,1.60616818902781E-05,1.40625,0,0
-2.88902774627786E-05,1.44267787618446E-05,1.40625,0,0
-2.94603323709453E-05,1.43924435178633E-05,1.40625,0,0
-2.77225408353843E-05,1.38398208946455E-05,1.40625,0,0
-2.81653919955716E-05,1.43218167067971E-05,1.40625,0,0
-2.70674572675489E-05,1.38550303745433E-05,1.40625,0,0
-2.66998285951559E-05,1.37680308398558E-05,1.40625,0,0
-2.51850688073318E-05,1.25785418276791E-05,1.40625,0,0
-2.38779139181133E-05,1.25098622447695E-05,1.40625,0,0
-2.10881898965454E-05,1.35024529299699E-05,1.40625,0,0
-1.92015650100075E-05,1.63139611686347E-05,1.40625,0,0
-1.43400584420306E-05,1.60836989380186E-05,1.40625,0,0
-2.0932953702868E-05,2.45248484134208E-05,1.40625,0,0
-1.76214525708929E-05,2.02846640604548E-05,1.40625,0,0
-2.26552438107319E-05,2.37917211052263E-05,1.40625,0,0
-2.01934180950047E-05,2.08130295504816E-05,1.40625,0,0
-2.16557946259854E-05,2.41995367105119E-05,1.40625,0,0
-1.94500789802987E-05,2.31600806728238E-05,1.40625,0,0
-2.0378727640491E-05,2.06638978852425E-05,1.40625,0,0
-2.16343923966633E-05,1.32295199364307E-05,1.40625,0,0
-2.29106426559156E-05,5.40064775123028E-06,1.40625,0,0
-2.35230527323438E-05,1.76129549345205E-06,1.40625,0,0
-2.26503016165225E-05,4.58299291494768E-06,1.40625,0,0
-2.28897224587854E-05,1.11837698568706E-05,1.40625,0,0
-2.30806490435498E-05,1.17021772894077E-05,1.40625,0,0
-2.55158483923879E-05,9.72289944911608E-06,1.40625,0,0
-2.54858532571234E-05,7.69931193644879E-06,1.40625,0,0
-2.51404380833264E-05,1.10601058622706E-05,1.40625,0,0
-2.33180726354476E-05,1.42362850965583E-05,1.40625,0,0
-2.45266583078774E-05,1.89227012015181E-05,1.40625,0,0
-2.54626265814295E-05,2.06550284929108E-05,1.40625,0,0
-2.65099297394045E-05,1.96789296751376E-05,1.40625,0,0
-2.43374488491099E-05,1.4125110283203E-05,1.40625,0,0
-2.11431542993523E-05,8.36226536193863E-06,1.40625,0,0
-1.85908174898941E-05,5.9753110690508E-06,1.40625,0,0
-1.93711675819941E-05,9.85686347121373E-06,1.40625,0,0
-2.16818389162654E-05,1.51179528984358E-05,1.40625,0,0
-2.30953319260152E-05,1.61235457198927E-05,1.40625,0,0
-1.89192596735666E-05,8.98731468623737E-06,1.40625,0,0
-2.75618840532843E-05,9.74934573605424E-06,1.40625,0,0
-2.23350562009728E-05,3.18810884891718E-06,1.40625,0,0
-2.80794392892858E-05,2.07029620469257E-06,1.40625,0,0
-2.38272950809915E-05,-1.79972596470179E-06,1.40625,0,0
-2.61225359281525E-05,4.58894101029728E-06,1.40625,0,0
-2.46334311668761E-05,9.50641697272658E-06,1.40625,0,0
-2.62338708125753E-05,1.42031394716469E-05,1.40625,0,0
-2.5318915504613E-05,1.50629621202825E-05,1.40625,0,0
-2.30540808843216E-05,1.39573276101146E-05,1.40625,0,0
-2.09460777114145E-05,1.1774895938288E-05,1.40625,0,0
-1.9480190530885E-05,9.96002836473053E-06,1.40625,0,0
-2.0203899111948E-05,9.00183476915117E-06,1.40625,0,0
-1.90801783901406E-05,6.48286686555366E-06,1.40625,0,0
-1.82914991455618E-05,6.03692842560122E-06,1.40625,0,0
-1.45365975185996E-05,5.68058385397308E-06,1.40625,0,0
-1.29574355014483E-05,7.50130084270495E-06,1.40625,0,0
-1.00685811048606E-05,8.54335848998744E-06,1.40625,0,0
-1.06429042716627E-05,9.94710990198655E-06,1.40625,0,0
-1.14496506284922E-05,8.90811861609109E-06,1.40625,0,0
-1.32014001792413E-05,7.95674077380681E-06,1.40625,0,0
-1.18912175821606E-05,7.23320135875838E-06,1.40625,0,0
-1.15471902972786E-05,8.68703955347883E-06,1.40625,0,0
-1.26712166093057E-05,9.10250309971161E-06,1.40625,0,0
-1.63460863404907E-05,9.00936083780834E-06,1.40625,0,0
-1.94490567082539E-05,9.07430239749374E-06,1.40625,0,0
-2.09438694582786E-05,1.03691072581569E-05,1.40625,0,0
-1.70321982295718E-05,1.02264702945831E-05,1.40625,0,0
-2.48336018557893E-05,1.44965079016401E-05,1.40625,0,0
-2.09216432267567E-05,9.05515844351612E-06,1.40625,0,0
-2.70417294814251E-05,9.27461587707512E-06,1.40625,0,0
-2.50961911660852E-05,7.52703681428102E-06,1.40625,0,0
-2.70715754595585E-05,9.21232549444539E-06,1.40625,0,0
-2.33651699090842E-05,7.17057355359429E-06,1.40625,0,0
-2.44054608629085E-05,6.98599387760623E-06,1.40625,0,0
-2.47049356403295E-05,6.8698868744832E-06,1.40625,0,0
-2.59750559052918E-05,6.18110470895772E-06,1.40625,0,0
-2.80342392215971E-05,4.92466733703623E-06,1.40625,0,0
-2.97309270536061E-05,4.17745013692183E-06,1.40625,0,0
-3.2137173548108E-05,4.45655086878105E-06,1.40625,0,0
-3.23884341923986E-05,3.74888850274147E-06,1.40625,0,0
-3.44379623129498E-05,5.17921034770552E-06,1.40625,0,0
-3.5397351894062E-05,5.43497435501195E-06,1.40625,0,0
-3.82476500817575E-05,4.90879165226943E-06,1.40625,0,0
-3.74295123037882E-05,2.65362723439466E-06,1.40625,0,0
-3.61431011697277E-05,2.00812905859493E-06,1.40625,0,0
-3.29450449498836E-05,1.71217311617511E-06,1.40625,0,0
-3.20546132570598E-05,2.34058893511246E-06,1.40625,0,0
-3.0853392672725E-05,1.27883538425522E-06,1.40625,0,0
-3.10058057948481E-05,4.95252663768042E-07,1.40625,0,0
-2.97827973554377E-05,-4.00639407871495E-07,1.40625,0,0
-2.98069135169499E-05,1.62888113663939E-07,1.40625,0,0
-3.01526706607547E-05,1.47233686220716E-06,1.40625,0,0
-3.05181638395879E-05,2.11753422263428E-06,1.40625,0,0
-2.42278856603662E-05,4.1153070924338E-06,1.40625,0,0
-3.32682975567877E-05,6.42894974589581E-06,1.40625,0,0
-2.26312567974674E-05,3.39023085871304E-06,1.40625,0,0
-2.76553855655948E-05,2.10888356377836E-06,1.40625,0,0
-2.28006356337573E-05,2.68567850980617E-06,1.40625,0,0
-2.7205527658225E-05,6.18486819803366E-06,1.40625,0,0
-2.58436302829068E-05,8.11295012681512E-06,1.40625,0,0
-2.88936498691328E-05,8.03066177468281E-06,1.40625,0,0
-2.93068114842754E-05,9.08168840396684E-06,1.40625,0,0
-2.85964324575616E-05,1.15894790724269E-05,1.40625,0,0
-2.71655499091139E-05,1.25070619105827E-05,1.40625,0,0
-2.52288045885507E-05,1.1471898687887E-05,1.40625,0,0
-2.598326500447E-05,1.23344461826491E-05,1.40625,0,0
-2.49542590609053E-05,1.41156415338628E-05,1.40625,0,0
-2.60772903857287E-05,1.61250809469493E-05,1.40625,0,0
-2.40000099438475E-05,1.78523932845565E-05,1.40625,0,0
-2.47766492975643E-05,1.92107145267073E-05,1.40625,0,0
-2.38053889916046E-05,1.8973978512804E-05,1.40625,0,0
-2.49510139838094E-05,1.85594108188525E-05,1.40625,0,0
-2.28141580009833E-05,1.90149548870977E-05,1.40625,0,0
-2.21498339669779E-05,1.94204112631269E-05,1.40625,0,0
-2.05324704438681E-05,1.84098680620082E-05,1.40625,0,0
-2.0582927390933E-05,1.77832498593489E-05,1.40625,0,0
-1.98636844288558E-05,1.86082579602953E-05,1.40625,0,0
-2.07748162210919E-05,1.95402390090749E-05,1.40625,0,0
-2.16954049392371E-05,2.03234631044324E-05,1.40625,0,0
-2.21651607716922E-05,2.01456496142782E-05,1.40625,0,0
-1.77293040906079E-05,1.56328551383922E-05,1.40625,0,0
-2.34162289416417E-05,2.30681707762415E-05,1.40625,0,0
-1.58379116328433E-05,1.79548187588807E-05,1.40625,0,0
-2.02025421458529E-05,1.97817644220777E-05,1.40625,0,0
-1.61098778335145E-05,1.51138956425712E-05,1.40625,0,0
-1.91782146430342E-05,1.77422825800022E-05,1.40625,0,0
-1.80633178388234E-05,1.50344558278448E-05,1.40625,0,0
-1.99689784494694E-05,1.41659020300722E-05,1.40625,0,0
-2.04837197088636E-05,1.10739838419249E-05,1.40625,0,0
-2.06292115763063E-05,8.64938283484662E-06,1.40625,0,0
-1.94078365893802E-05,8.08793356554816E-06,1.40625,0,0
-1.73920307133812E-05,8.07623837317806E-06,1.40625,0,0
-1.93085743376287E-05,8.51633831189247E-06,1.40625,0,0
-2.08638703043107E-05,6.23343203187687E-06,1.40625,0,0
-2.35855222854298E-05,7.24310075383983E-06,1.40625,0,0
-2.31717494898476E-05,8.57534359965939E-06,1.40625,0,0
-2.44148959609447E-05,1.15702832772513E-05,1.40625,0,0
-2.34079234360252E-05,1.24260968732415E-05,1.40625,0,0
-2.44467919401359E-05,1.42380522447638E-05,1.40625,0,0
-2.41958423430333E-05,1.3378974472289E-05,1.40625,0,0
-2.43435697484529E-05,1.30855478346348E-05,1.40625,0,0
-2.25998792302562E-05,1.27040466395556E-05,1.40625,0,0
-2.32421079999767E-05,1.38515042635845E-05,1.40625,0,0
-2.43618833337678E-05,1.2828548278776E-05,1.40625,0,0
-2.59933221968822E-05,1.16316386993276E-05,1.40625,0,0
-2.69614993158029E-05,1.23925665320712E-05,1.40625,0,0
-2.64395821432117E-05,1.33092835312709E-05,1.40625,0,0
-2.00135309569305E-05,9.68524454947328E-06,1.40625,0,0
-2.84486122836825E-05,1.26695822473266E-05,1.40625,0,0
-2.28164608415682E-05,8.70855001267046E-06,1.40625,0,0
-2.92959866783349E-05,1.10786568257026E-05,1.40625,0,0
-2.52413210546365E-05,9.83045447355835E-06,1.40625,0,0
-2.87348611891503E-05,1.54134067997802E-05,1.40625,0,0
-2.70300151896663E-05,1.95578140846919E-05,1.40625,0,0
-2.82973778666928E-05,2.12429949897341E-05,1.40625,0,0
-2.67542309302371E-05,1.67452471941942E-05,1.40625,0,0
-2.47444113483652E-05,1.1345645361871E-05,1.40625,0,0
-2.37240365095204E-05,7.53648737372714E-06,1.40625,0,0
-2.28594781219726E-05,6.5931562858168E-06,1.40625,0,0
-2.31992889894173E-05,8.32354453450534E-06,1.40625,0,0
-2.14593492273707E-05,7.6177511800779E-06,1.40625,0,0
-2.38551474467386E-05,5.29933004145278E-06,1.40625,0,0
-2.58063464571023E-05,1.79926371401962E-06,1.40625,0,0
-2.91865053441143E-05,2.1845801256859E-06,1.40625,0,0
-2.90187726932345E-05,3.6366150197864E-06,1.40625,0,0
-3.03021333820652E-05,5.96757445237017E-06,2.4609375,0,0
-2.94643978122622E-05,6.17621299170423E-06,2.4609375,0,0
-3.0179631721694E-05,6.8435706452874E-06,2.4609375,0,0
-3.00798328680685E-05,6.81369510857621E-06,2.4609375,0,0
-3.06575639115181E-05,6.95932976668701E-06,2.4609375,0,0
-2.95060108328471E-05,6.02045747655211E-06,2.4609375,0,0
-2.84982761513675E-05,5.18568231200334E-06,2.4609375,0,0
-2.62994890363188E-05,4.81909773952793E-06,2.4609375,0,0
-2.41108573391102E-05,7.40713130653603E-06,2.4609375,0,0
-1.97572844626848E-05,1.05037415778497E-05,2.4609375,0,0
-2.80424173979554E-05,1.63235345098656E-05,2.4609375,0,0
-2.15305572055513E-05,1.25963570098975E-05,2.4609375,0,0
-2.7640096959658E-05,1.37074275698978E-05,2.4609375,0,0
-2.41119578276994E-05,1.17480185508612E-05,2.4609375,0,0
-2.56668117799563E-05,1.33549719976145E-05,2.4609375,0,0
-2.19836656469852E-05,1.18852121886448E-05,2.4609375,0,0
-2.17995548155159E-05,9.45830197451869E-06,2.4609375,0,0
-2.00500562641537E-05,7.34266723156907E-06,2.4609375,0,0
-1.93265350389993E-05,7.47824515201501E-06,2.4609375,0,0
-2.01797702175099E-05,7.85219526733272E-06,2.4609375,0,0
-2.05191845452646E-05,7.36047013560892E-06,2.4609375,0,0
-2.117048643413E-05,8.00390898803016E-06,2.4609375,0,0
-1.94632011698559E-05,8.03016064310214E-06,2.4609375,0,0
-2.1294226826285E-05,8.66689424583456E-06,2.4609375,0,0
-2.15324198507005E-05,7.08763445800287E-06,2.4609375,0,0
-2.24140567297582E-05,5.40340943189221E-06,2.4609375,0,0
-2.02496357815107E-05,3.67567099601729E-06,2.4609375,0,0
-2.03334657271625E-05,4.16290959037724E-06,2.4609375,0,0
-1.94345684576547E-05,4.14297028328292E-06,2.4609375,0,0
-2.07706052606227E-05,4.57230134998099E-06,2.4609375,0,0
-2.13228195207193E-05,5.58208330403431E-06,2.4609375,0,0
-2.33892205869779E-05,9.01980729395291E-06,2.4609375,0,0
-2.51878045673948E-05,1.29627242131392E-05,2.4609375,0,0
-2.65095604845556E-05,1.61953794304281E-05,2.4609375,0,0
-2.5835941414698E-05,1.71298179338919E-05,2.4609375,0,0
-2.41773232119158E-05,1.48634862853214E-05,2.4609375,0,0
-1.94856347661698E-05,8.3049008026137E-06,2.4609375,0,0
-2.76549289992545E-05,7.85986230766866E-06,2.4609375,0,0
-2.09827594517265E-05,1.11862993890099E-06,2.4609375,0,0
-2.6045243430417E-05,2.8915608254465E-06,2.4609375,0,0
-2.19577523239423E-05,3.30337968534877E-07,2.4609375,0,0
-2.49599615926854E-05,4.80070980302116E-07,2.4609375,0,0
-2.41696889133891E-05,-1.32564605337393E-06,2.4609375,0,0
-2.69195315922843E-05,3.04955210594926E-06,2.4609375,0,0
-2.71292610705132E-05,9.53800736169796E-06,2.4609375,0,0
-2.61428722296841E-05,1.52021439134842E-05,2.4609375,0,0
-2.55686227319529E-05,1.64823668455938E-05,2.4609375,0,0
-2.52206209552241E-05,1.40046977321617E-05,2.4609375,0,0
-2.66251317952992E-05,1.20677332233754E-05,2.4609375,0,0
-2.55641916737659E-05,1.0704915439419E-05,2.4609375,0,0
-2.62807461695047E-05,1.15673510663328E-05,2.4609375,0,0
-2.57993160630576E-05,1.10303835754166E-05,2.4609375,0,0
-2.75992024398874E-05,1.06770339698414E-05,2.4609375,0,0
-2.66982860921416E-05,7.95126197772333E-06,2.4609375,0,0
-2.76811042567715E-05,5.171683824301E-06,2.4609375,0,0
-2.70017371803988E-05,1.3548051356338E-06,2.4609375,0,0
-2.83407971437555E-05,-3.8376811062335E-07,2.4609375,0,0
-2.93620614684187E-05,1.81316778480323E-07,2.4609375,0,0
-3.00258416245924E-05,5.012399469706E-06,2.4609375,0,0
-2.8780475986423E-05,1.03103784567793E-05,2.4609375,0,0
-2.76956143352436E-05,1.38695204441319E-05,2.4609375,0,0
-2.52946592809167E-05,1.40707943501184E-05,2.4609375,0,0
-2.34006729442626E-05,1.27549519675085E-05,2.4609375,0,0
-1.86645429494092E-05,1.07734604171128E-05,2.4609375,0,0
-2.67623545369133E-05,1.51362064571003E-05,2.4609375,0,0
-2.03464878723025E-05,1.00901761470595E-05,2.4609375,0,0
-2.3604225134477E-05,1.00697643574676E-05,2.4609375,0,0
-1.92193783732364E-05,7.38020298740594E-06,2.4609375,0,0
-2.26863994612359E-05,1.24843427329324E-05,2.4609375,0,0
-2.05562664632453E-05,1.5995727153495E-05,2.4609375,0,0
-2.04353145818459E-05,1.86402612598613E-05,2.4609375,0,0
-1.88653229997726E-05,1.71731844602618E-05,2.4609375,0,0
-1.95014727069065E-05,1.52344809976057E-05,2.4609375,0,0
-2.08955043490278E-05,1.55246852955315E-05,2.4609375,0,0
-2.16369953704998E-05,1.74750821315683E-05,2.4609375,0,0
-2.34810704569099E-05,1.97265435417648E-05,2.4609375,0,0
-2.3212891392177E-05,1.87060959433438E-05,2.4609375,0,0
-2.41287507378729E-05,1.71329884324223E-05,2.4609375,0,0
-2.2798294594395E-05,1.31418610180845E-05,2.4609375,0,0
-2.46820618485799E-05,1.08365475171013E-05,2.4609375,0,0
-2.44151160586625E-05,1.00076877060928E-05,2.4609375,0,0
-2.46860272454796E-05,1.26485947475885E-05,2.4609375,0,0
-2.20629899558844E-05,1.44909663504222E-05,2.4609375,0,0
-2.08582168852445E-05,1.69267404999118E-05,2.4609375,0,0
-2.08011788345175E-05,1.88804569916101E-05,2.4609375,0,0
-2.41107409237884E-05,1.95533029909711E-05,2.4609375,0,0
-2.56857765634777E-05,1.87640325748362E-05,2.4609375,0,0
-2.63638557953527E-05,1.99701044039102E-05,2.4609375,0,0
-2.69982283498393E-05,2.02867358893855E-05,2.4609375,0,0
-2.71548960881773E-05,1.77728434209712E-05,2.4609375,0,0
-2.08384572033538E-05,1.22529218060663E-05,2.4609375,0,0
-2.90743500954704E-05,1.91290619113715E-05,2.4609375,0,0
-2.18092573049944E-05,1.85337721632095E-05,2.4609375,0,0
-2.82115397567395E-05,2.16548050957499E-05,2.4609375,0,0
-2.47494535869919E-05,1.31245496959309E-05,2.4609375,0,0
-2.79755277006188E-05,5.18457272846717E-06,2.4609375,0,0
-2.54215919994749E-05,-4.1592238630983E-06,2.4609375,0,0
-2.59311327681644E-05,-3.78160143554851E-06,2.4609375,0,0
-2.48033829848282E-05,7.23663333701552E-07,2.4609375,0,0
-2.44903985731071E-05,6.30494332654052E-06,2.4609375,0,0
-2.40649496845435E-05,9.81231187324738E-06,2.4609375,0,0
-2.29229008255061E-05,1.02563944892609E-05,2.4609375,0,0
-2.35260449699126E-05,9.86411123449216E-06,2.4609375,0,0
-2.13269049709197E-05,7.31038562662434E-06,2.4609375,0,0
-2.10836424230365E-05,6.0248917179706E-06,2.4609375,0,0
-1.92173720279243E-05,4.45325349573977E-06,2.4609375,0,0
-1.92628103832249E-05,6.15964518146939E-06,2.4609375,0,0
-1.58457423822256E-05,7.65384265832836E-06,2.4609375,0,0
-1.41431009978987E-05,1.05251119748573E-05,2.4609375,0,0
-1.129078464146E-05,1.10613145807292E-05,2.4609375,0,0
-1.14957119876635E-05,1.07541927718557E-05,2.4609375,0,0
-1.13408113975311E-05,9.73975875240285E-06,2.4609375,0,0
-1.22879991977243E-05,1.04024747997755E-05,2.4609375,0,0
-1.31179640447954E-05,1.12398356577614E-05,2.4609375,0,0
-1.56554378918372E-05,1.22079654829577E-05,2.4609375,0,0
-1.76509965967853E-05,1.23647414511652E-05,2.4609375,0,0
-1.81594532477902E-05,1.30302332763677E-05,2.4609375,0,0
-1.32285313156899E-05,1.03602560557192E-05,2.4609375,0,0
-1.74350225279341E-05,1.29841528178076E-05,2.4609375,0,0
-1.3302912520885E-05,7.85558404459152E-06,2.4609375,0,0
-1.94342683244031E-05,1.10356568256975E-05,2.4609375,0,0
-1.8134291167371E-05,8.54896916280268E-06,2.4609375,0,0
-2.08660512726055E-05,1.01212262961781E-05,2.4609375,0,0
-1.88565791177098E-05,9.75154580373783E-06,2.4609375,0,0
-1.775723285391E-05,1.10234068415593E-05,2.4609375,0,0
-1.58677030412946E-05,1.21361217679805E-05,2.4609375,0,0
-1.55567049660021E-05,1.28021911223186E-05,2.4609375,0,0
-1.60461495397612E-05,1.31512642838061E-05,2.4609375,0,0
-1.65849978657207E-05,1.32157738335081E-05,2.4609375,0,0
-1.87258501682663E-05,1.47758755701943E-05,2.4609375,0,0
-1.85707776836352E-05,1.58739148901077E-05,2.4609375,0,0
-1.80131264642114E-05,1.65985075000208E-05,2.4609375,0,0
-1.617478847038E-05,1.31267815959291E-05,2.4609375,0,0
-1.87173754966352E-05,9.52245136431884E-06,2.4609375,0,0
-2.21147729462245E-05,7.09741152604693E-06,2.4609375,0,0
-2.65484086412471E-05,9.4089082267601E-06,2.4609375,0,0
-2.80460099020274E-05,1.28797792058322E-05,2.4609375,0,0
-2.95102709060302E-05,1.6935458916123E-05,2.4609375,0,0
-3.00985302601475E-05,1.86352954187896E-05,2.4609375,0,0
-3.12611846311484E-05,1.83817173819989E-05,2.4609375,0,0
-3.03992110275431E-05,1.73558091773884E-05,2.4609375,0,0
-2.83916979242349E-05,1.81678897206439E-05,2.4609375,0,0
-2.67672949121334E-05,1.81332361535169E-05,2.4609375,0,0
-2.79294072242919E-05,1.61647840286605E-05,2.4609375,0,0
-2.381174635957E-05,1.23926974993083E-05,2.4609375,0,0
-3.38789941451978E-05,1.83957836270565E-05,2.4609375,0,0
-2.5544151867507E-05,1.45695921673905E-05,2.4609375,0,0
-3.15194192808121E-05,1.73593762156088E-05,2.4609375,0,0
-2.73301866400288E-05,1.52740904013626E-05,2.4609375,0,0
-3.19482242048252E-05,1.71118790603941E-05,2.4609375,0,0
-2.97614769806387E-05,1.55418401845964E-05,2.4609375,0,0
-3.03395390801597E-05,1.62266042025294E-05,2.4609375,0,0
-2.92100903607206E-05,1.56475834955927E-05,2.4609375,0,0
-3.0087196137174E-05,1.50127234519459E-05,2.4609375,0,0
-3.04563800455071E-05,1.52366110341973E-05,2.4609375,0,0
-2.92936620098772E-05,1.59981900651474E-05,2.4609375,0,0
-3.00631108984817E-05,1.68178012245335E-05,2.4609375,0,0
-2.8739534172928E-05,1.52723951032385E-05,2.4609375,0,0
-2.8615519113373E-05,1.49443176269415E-05,2.4609375,0,0
-2.49317527050152E-05,1.45016520036734E-05,2.4609375,0,0
-2.40410372498445E-05,1.50822907016845E-05,2.4609375,0,0
-2.17891320062336E-05,1.22800529425149E-05,2.4609375,0,0
-2.29726665565977E-05,8.57699706102721E-06,2.4609375,0,0
-2.19496560021071E-05,3.42530984198675E-06,2.4609375,0,0
-2.29857978411019E-05,6.91982393163926E-07,3.69140625,0,0
-2.21501886699116E-05,-1.92094398698828E-06,3.69140625,0,0
-2.23348979488947E-05,-2.18162131204735E-06,3.69140625,0,0
-2.15316049434477E-05,-5.68167536130204E-07,3.69140625,0,0
-2.18232908082427E-05,1.26936038213898E-06,3.69140625,0,0
-2.2783839085605E-05,2.50145285463077E-06,3.69140625,0,0
-2.49002332566306E-05,4.59358261650777E-06,3.69140625,0,0
-2.30304704018636E-05,7.51764309825376E-06,3.69140625,0,0
-3.42580242431723E-05,1.2714481272269E-05,3.69140625,0,0
-2.74948997684987E-05,1.17070658234297E-05,3.69140625,0,0
-3.39028192684054E-05,1.33338335217559E-05,3.69140625,0,0
-3.1058763852343E-05,1.20878385132528E-05,3.69140625,0,0
-3.45809567079414E-05,9.67736104939831E-06,3.69140625,0,0
-3.06536567222793E-05,4.26011501986068E-06,3.69140625,0,0
-2.85127571260091E-05,2.92661775347369E-06,3.69140625,0,0
-2.59464268310694E-05,5.78713388676988E-06,3.69140625,0,0
-2.61643253907096E-05,9.76813225861406E-06,3.69140625,0,0
-2.72228153335163E-05,8.99465339898597E-06,3.69140625,0,0
-2.76955925073707E-05,3.09983533952618E-06,3.69140625,0,0
-2.99914281640667E-05,-1.66159406944644E-06,3.69140625,0,0
-2.92867553071119E-05,-2.02851060748799E-06,3.69140625,0,0
-2.97205078823026E-05,2.79537994174461E-06,3.69140625,0,0
-2.83518602373078E-05,7.833463314455E-06,3.69140625,0,0
-3.02006919810083E-05,1.19064443424577E-05,3.69140625,0,0
-2.98074064630782E-05,1.26488957903348E-05,3.69140625,0,0
-3.10972172883339E-05,1.04159980764962E-05,3.69140625,0,0
-2.99102412100183E-05,6.01853344051051E-06,3.69140625,0,0
-3.05816938634962E-05,3.48827484231151E-06,3.69140625,0,0
-3.0540471925633E-05,3.28293162965565E-06,3.69140625,0,0
-3.10691866616253E-05,5.21795755048515E-06,3.69140625,0,0
-2.92072254524101E-05,6.16021316091064E-06,3.69140625,0,0
-2.79750893241726E-05,5.72649059904506E-06,3.69140625,0,0
-2.73486530204536E-05,4.034051016788E-06,3.69140625,0,0
-2.73204532277305E-05,4.14612759414013E-06,3.69140625,0,0
-2.13826133403927E-05,4.6421232582361E-06,3.69140625,0,0
-2.82700475509046E-05,7.75064108893275E-06,3.69140625,0,0
-1.88443409570027E-05,8.13594124338124E-06,3.69140625,0,0
-2.38026532315416E-05,1.00187698990339E-05,3.69140625,0,0
-1.75791810761439E-05,8.94673303264426E-06,3.69140625,0,0
-1.87443765753414E-05,1.01416017059819E-05,3.69140625,0,0
-1.48595963764819E-05,9.74663453234825E-06,3.69140625,0,0
-1.63266759045655E-05,9.12709310796345E-06,3.69140625,0,0
-1.81326922756853E-05,9.88171905191848E-06,3.69140625,0,0
-2.08289839065401E-05,1.187741963804E-05,3.69140625,0,0
-2.21976752072806E-05,1.39736312121386E-05,3.69140625,0,0
-2.21261725528166E-05,1.47026785271009E-05,3.69140625,0,0
-2.45401679421775E-05,1.32617415147251E-05,3.69140625,0,0
-2.47670213866513E-05,1.07959058368579E-05,3.69140625,0,0
-2.68556650553364E-05,1.1104452823929E-05,3.69140625,0,0
-2.64016271103173E-05,1.15361672214931E-05,3.69140625,0,0
-2.76166592811933E-05,1.08390177047113E-05,3.69140625,0,0
-2.54463866440346E-05,1.00259976534289E-05,3.69140625,0,0
-2.57314623013372E-05,1.21414077511872E-05,3.69140625,0,0
-2.51614492299268E-05,1.53262735693716E-05,3.69140625,0,0
-2.5903256755555E-05,1.79280450538499E-05,3.69140625,0,0
-2.45457231358159E-05,1.79234830284258E-05,3.69140625,0,0
-2.5708486646181E-05,1.60095823957818E-05,3.69140625,0,0
-2.67137911578175E-05,1.49342222357518E-05,3.69140625,0,0
-2.68085750576574E-05,1.52111933857668E-05,3.69140625,0,0
-2.54390506597701E-05,1.48587105286424E-05,3.69140625,0,0
-2.38817974604899E-05,1.45418043757672E-05,3.69140625,0,0
-1.7996933820541E-05,1.1415232620493E-05,3.69140625,0,0
-2.61774639511714E-05,1.61458865477471E-05,3.69140625,0,0
-2.03185845748521E-05,1.24288535516826E-05,3.69140625,0,0
-2.35584484471474E-05,1.45771682582563E-05,3.69140625,0,0
-1.89334386959672E-05,1.03710553958081E-05,3.69140625,0,0
-2.20606161747128E-05,1.07935020423611E-05,3.69140625,0,0
-2.21857972064754E-05,7.58607620809926E-06,3.69140625,0,0
-2.41675115830731E-05,7.38371909392299E-06,3.69140625,0,0
-2.2770514988224E-05,7.46643854654394E-06,3.69140625,0,0
-2.21607715502614E-05,6.7715959630732E-06,3.69140625,0,0
-2.21006466745166E-05,4.72901183456997E-06,3.69140625,0,0
-2.12523973459611E-05,4.36037498730002E-06,3.69140625,0,0
-2.15681102417875E-05,7.75465923652519E-06,3.69140625,0,0
-2.06653330678819E-05,1.03722532003303E-05,3.69140625,0,0
-2.21915797737893E-05,1.25648139146506E-05,3.69140625,0,0
-2.16933931369567E-05,1.16941992018837E-05,3.69140625,0,0
-2.21576083276886E-05,1.17470381155727E-05,3.69140625,0,0
-2.05623437068425E-05,1.08435588117572E-05,3.69140625,0,0
-2.19102257688064E-05,1.19967126011034E-05,3.69140625,0,0
-2.27510281547438E-05,1.35032260004664E-05,3.69140625,0,0
-2.41818033828167E-05,1.65173423738452E-05,3.69140625,0,0
-2.30169025599025E-05,1.68053102242993E-05,3.69140625,0,0
-2.28530552703887E-05,1.54882618517149E-05,3.69140625,0,0
-2.24784380407073E-05,1.44230998557759E-05,3.69140625,0,0
-2.35779007198289E-05,1.4430589544645E-05,3.69140625,0,0
-2.49069307756145E-05,1.30062016978627E-05,3.69140625,0,0
-2.56492694461485E-05,1.19368696687161E-05,3.69140625,0,0
-2.16540502151474E-05,9.67965570453089E-06,3.69140625,0,0
-2.98394261335488E-05,1.16203491415945E-05,3.69140625,0,0
-2.09865975193679E-05,2.62562298303237E-06,3.69140625,0,0
-2.69172960543074E-05,1.75250079337275E-06,3.69140625,0,0
-2.2828346118331E-05,3.894775545632E-06,3.69140625,0,0
-2.43652029894292E-05,1.2445540050976E-05,3.69140625,0,0
-2.10220259759808E-05,1.57483282237081E-05,3.69140625,0,0
-2.19289340748219E-05,1.68605238286546E-05,3.69140625,0,0
-2.15123400266748E-05,1.50935593410395E-05,3.69140625,0,0
-2.17764427361544E-05,1.26906716104713E-05,3.69140625,0,0
-2.12701124837622E-05,1.11488570837537E-05,3.69140625,0,0
-2.00745926122181E-05,1.05582030300866E-05,3.69140625,0,0
-2.12088962143753E-05,1.20464201245341E-05,3.69140625,0,0
-2.06989316211548E-05,1.33830353661324E-05,3.69140625,0,0
-2.20426991290879E-05,1.48458129842766E-05,3.69140625,0,0
-2.02666833502008E-05,1.36883772938745E-05,3.69140625,0,0
-2.09584050026024E-05,1.25083261082182E-05,3.69140625,0,0
-2.04224652406992E-05,1.09293478089967E-05,3.69140625,0,0
-2.30144396482501E-05,1.14188542283955E-05,3.69140625,0,0
-2.35132829402573E-05,1.10918226710055E-05,3.69140625,0,0
-2.48198484769091E-05,1.13775777208502E-05,3.69140625,0,0
-2.41328234551474E-05,1.09869115476613E-05,3.69140625,0,0
-2.49395143328002E-05,1.08096373878652E-05,3.69140625,0,0
-2.49105341936229E-05,1.16999863166711E-05,3.69140625,0,0
-2.36205560213421E-05,1.26249851746252E-05,3.69140625,0,0
-2.21453828999074E-05,1.01664127214462E-05,3.69140625,0,0
-2.34539620578289E-05,8.47537194204051E-06,3.69140625,0,0
-1.97593708435306E-05,8.59230021887925E-06,3.69140625,0,0
-2.77786602964625E-05,1.49377801790251E-05,3.69140625,0,0
-2.17811302718474E-05,1.35681812025723E-05,3.69140625,0,0
-2.75559523288393E-05,1.2280418559385E-05,3.69140625,0,0
-2.23383449338144E-05,5.71647660763119E-06,3.69140625,0,0
-2.41190136875957E-05,2.62419393948221E-06,3.69140625,0,0
-2.14330921153305E-05,1.33843695948599E-06,3.69140625,0,0
-2.22824219235918E-05,3.49371725860692E-06,3.69140625,0,0
-2.19818466575816E-05,5.95798519498203E-06,3.69140625,0,0
-2.20703204831807E-05,8.64381036080886E-06,3.69140625,0,0
-2.17944743781118E-05,1.00206016213633E-05,3.69140625,0,0
-2.07578541449038E-05,9.36142077989643E-06,3.69140625,0,0
-2.24625182454474E-05,7.98821019998286E-06,3.69140625,0,0
-2.29603683692403E-05,5.80388450543978E-06,3.69140625,0,0
-2.53048419835977E-05,5.20433559358935E-06,3.69140625,0,0
-2.54633741860744E-05,4.94206096846028E-06,3.69140625,0,0
-2.7097374186269E-05,6.84152973917662E-06,3.69140625,0,0
-2.59826574620092E-05,9.05238448467571E-06,3.69140625,0,0
-2.75511429208564E-05,1.15365373858367E-05,3.69140625,0,0
-2.82464552583406E-05,1.01120685940259E-05,3.69140625,0,0
-3.03653705486795E-05,4.65278571937233E-06,3.69140625,0,0
-3.03194356092718E-05,2.29434363063774E-07,3.69140625,0,0
-2.94070068775909E-05,3.36507036990952E-06,3.69140625,0,0
-2.59548196481774E-05,1.06935167423217E-05,3.69140625,0,0
-2.45406372414436E-05,1.69349477801006E-05,3.69140625,0,0
-2.55555460171308E-05,1.75949207914528E-05,3.69140625,0,0
-2.72274082817603E-05,1.50955938806874E-05,3.69140625,0,0
-2.21965092350729E-05,1.23841509775957E-05,3.69140625,0,0
-3.03545748465694E-05,1.8534828996053E-05,3.69140625,0,0
-2.0429806681932E-05,1.33619469124824E-05,3.69140625,0,0
-2.41621892200783E-05,1.22814699352602E-05,3.69140625,0,0
-1.92334227904212E-05,6.83716280036606E-06,3.69140625,0,0
-2.33376467804192E-05,9.54503593675327E-06,3.69140625,0,0
-2.09433655982139E-05,1.20562872325536E-05,3.69140625,0,0
-2.08966575883096E-05,1.51763742906041E-05,3.69140625,0,0
-1.860110751295E-05,1.49358120324905E-05,3.69140625,0,0
-1.81262294063345E-05,1.4829694009677E-05,3.69140625,0,0
-1.85735625564121E-05,1.51513622768107E-05,3.69140625,0,0
-1.88572321349056E-05,1.62137639563298E-05,3.69140625,0,0
-2.10647431231337E-05,1.76822759385686E-05,3.69140625,0,0
-2.00950962607749E-05,1.64495904755313E-05,3.69140625,0,0
-2.10798261832679E-05,1.70162202266511E-05,3.69140625,0,0
-2.02427017939044E-05,1.72901000041747E-05,3.69140625,0,0
-2.24693958443822E-05,1.89374895853689E-05,3.69140625,0,0
-2.30634959734743E-05,1.93191026482964E-05,3.69140625,0,0
-2.62739940808387E-05,2.0296636648709E-05,3.69140625,0,0
-2.72825163847301E-05,1.74596261786064E-05,3.69140625,0,0
-3.03503511531744E-05,1.2832192624046E-05,3.69140625,0,0
-3.10462237393949E-05,8.65051333676092E-06,3.69140625,0,0
-2.9964267014293E-05,7.37560958441463E-06,3.69140625,0,0
-2.59659609582741E-05,6.57801001580083E-06,3.69140625,0,0
-2.26482989091892E-05,7.85437532613287E-06,3.69140625,0,0
-2.11425594898174E-05,1.0169835150009E-05,3.69140625,0,0
-2.28877815970918E-05,1.32446257339325E-05,3.69140625,0,0
-2.00365029741079E-05,1.26699515021755E-05,3.69140625,0,0
-2.76336631941376E-05,1.54874069266953E-05,3.69140625,0,0
-1.90416867553722E-05,6.18011335973279E-06,3.69140625,0,0
-2.45290884777205E-05,6.90774959366536E-06,3.69140625,0,0
-2.26949177886127E-05,4.84143993162434E-06,3.69140625,0,0
-2.59741118497914E-05,7.61223873269046E-06,3.69140625,0,0
-2.33110458793817E-05,4.33269542554626E-06,3.69140625,0,0
-2.45491828536615E-05,1.84702415140237E-07,3.69140625,0,0
-2.4428676624666E-05,-2.2361728042597E-06,3.69140625,0,0
-2.40321969613433E-05,3.13528090600812E-07,3.69140625,0,0
-2.31172634812538E-05,3.62728519576194E-06,3.69140625,0,0
-2.16809876292245E-05,4.93399375045556E-06,3.69140625,0,0
-2.26135307457298E-05,6.57258578939945E-06,3.69140625,0,0
-2.13765397347743E-05,6.86348766976153E-06,3.69140625,0,0
-2.06881450139917E-05,8.16661395219853E-06,3.69140625,0,0
-1.71505307662301E-05,6.89798798703123E-06,3.69140625,0,0
-1.69830072991317E-05,6.69602968628169E-06,3.69140625,0,0
-1.60560393851483E-05,5.97821326664416E-06,3.69140625,0,0
-1.72537602338707E-05,7.14118732503266E-06,3.69140625,0,0
-1.63281347340671E-05,7.88039233157178E-06,3.69140625,0,0
-1.62114702106919E-05,1.02559970400762E-05,3.69140625,0,0
-1.52567045006435E-05,1.12030056698131E-05,3.69140625,0,0
-1.67636917467462E-05,1.04150622064481E-05,3.69140625,0,0
-1.73962453118293E-05,9.03861564438557E-06,3.69140625,0,0
-1.90714799828129E-05,1.11245199150289E-05,3.69140625,0,0
-2.20392303162953E-05,1.39340891109896E-05,3.69140625,0,0
-2.47426796704531E-05,1.52439806697657E-05,3.69140625,0,0
-2.11067035706947E-05,1.25379883684218E-05,3.69140625,0,0
-2.93329176201951E-05,1.73963726410875E-05,3.69140625,0,0
-2.2037849703338E-05,9.08569836610695E-06,3.69140625,0,0
-2.77682247542543E-05,5.84406416237471E-06,3.69140625,0,0
-2.24452942347853E-05,1.85093119853263E-06,3.69140625,0,0
-2.48015821853187E-05,1.01771947811358E-05,3.69140625,0,0
-2.35348143178271E-05,1.71543360920623E-05,3.69140625,0,0
-2.60170545516303E-05,2.10800717468373E-05,3.69140625,0,0
-2.58439886238193E-05,1.9695753508131E-05,3.69140625,0,0
-2.66180504695512E-05,1.44433925015619E-05,3.69140625,0,0
-2.66634397121379E-05,6.74371631248505E-06,3.69140625,0,0
-2.43896829488222E-05,2.7247358502791E-07,3.69140625,0,0
-2.26154406846035E-05,1.34809667429181E-07,3.69140625,0,0
-1.90708633454051E-05,4.46421836386435E-06,3.69140625,0,0
-1.92763636732707E-05,1.12994903247454E-05,3.69140625,0,0
-1.86995894182473E-05,1.36409153128625E-05,3.69140625,0,0
-2.0658635548898E-05,1.42576836879016E-05,3.69140625,0,0
-2.03602176043205E-05,1.35243226395687E-05,3.69140625,0,0
-2.36168834817363E-05,1.42894332384458E-05,3.69140625,0,0
-2.57751871686196E-05,1.34253314172383E-05,3.69140625,0,0
-2.9035349143669E-05,1.36600256155361E-05,3.69140625,0,0
-2.9143569918233E-05,1.35071077238536E-05,3.69140625,0,0
-2.88421269942774E-05,1.23755453387275E-05,3.69140625,0,0
-2.87515686068218E-05,1.00502229543054E-05,3.69140625,0,0
-3.10020441247616E-05,8.43597990751732E-06,3.69140625,0,0
-3.21500301652122E-05,8.01584337750683E-06,3.69140625,0,0
-3.1349543860415E-05,7.47148806112818E-06,3.69140625,0,0
-2.27464624913409E-05,3.15257511829259E-06,3.69140625,0,0
-3.16513687721454E-05,3.64359425475413E-06,3.69140625,0,0
-2.49482909566723E-05,4.03394869863405E-06,3.69140625,0,0
-3.21547195198946E-05,6.92338926455705E-06,3.69140625,0,0
-2.72434372163843E-05,6.5928470576182E-06,3.69140625,0,0
-3.11111434712075E-05,7.80470691097435E-06,3.69140625,0,0
-2.8424246920622E-05,6.48429522698279E-06,3.69140625,0,0
-2.86967369902413E-05,5.12486622028518E-06,3.69140625,0,0
-2.5431378162466E-05,3.60009767064184E-06,3.69140625,0,0
-2.28803437494207E-05,3.42891371474252E-06,3.69140625,0,0
-2.15849850064842E-05,4.55743474958581E-06,3.69140625,0,0
-2.03299241547938E-05,5.45138800589484E-06,3.69140625,0,0
-2.17159413296031E-05,5.83144765187171E-06,3.69140625,0,0
-2.02496285055531E-05,5.84282952331705E-06,3.69140625,0,0
-2.04631269298261E-05,6.52858761895914E-06,3.69140625,0,0
-1.87503428605851E-05,5.61816568733775E-06,3.69140625,0,0
-2.10510606848402E-05,4.63140668216511E-06,3.69140625,0,0
-2.07101420528488E-05,3.25803466694197E-06,3.69140625,0,0
-2.24272953346372E-05,2.29997272072069E-06,3.69140625,0,0
-2.23073529923568E-05,1.15039381398674E-06,3.69140625,0,0
-2.3775055524311E-05,1.55035786519875E-06,3.69140625,0,0
-2.33338541875128E-05,2.82299470200087E-06,3.69140625,0,0
-2.38432512560394E-05,3.84408804166014E-06,3.69140625,0,0
-2.31116919167107E-05,4.26792894359096E-06,3.69140625,0,0
-2.37404819927178E-05,4.77560297440505E-06,3.69140625,0,0
-2.45844676101115E-05,6.33083982393146E-06,3.69140625,0,0
-2.46944164246088E-05,8.49206935527036E-06,3.69140625,0,0
-2.00374106498202E-05,7.21878677722998E-06,3.69140625,0,0
-2.94756009679986E-05,1.05167600850109E-05,3.69140625,0,0
-2.39892196987057E-05,9.21314131119289E-06,4.921875,0,0
-2.97820570267504E-05,1.27514713312848E-05,4.921875,0,0
-2.5843522962532E-05,1.12516217996017E-05,4.921875,0,0
-2.77990639006021E-05,7.54442044126336E-06,4.921875,0,0
-2.56587427429622E-05,7.7792003594368E-07,4.921875,0,0
-2.78963634627871E-05,1.22554922654672E-06,4.921875,0,0
-2.86184567812597E-05,6.56795737086213E-06,4.921875,0,0
-2.85053138213698E-05,1.26556114992127E-05,4.921875,0,0
-2.7275051252218E-05,1.53357523231534E-05,4.921875,0,0
-2.54056230915012E-05,1.49526558743673E-05,4.921875,0,0
-2.62488119915361E-05,1.48046055983286E-05,4.921875,0,0
-2.61331988440361E-05,1.45848462125286E-05,4.921875,0,0
-2.78082534350688E-05,1.65285637194756E-05,4.921875,0,0
-2.76396767731057E-05,1.81175055331551E-05,4.921875,0,0
-3.02898206427926E-05,1.88397771125892E-05,4.921875,0,0
-3.07743175653741E-05,1.67489833984291E-05,4.921875,0,0
-3.1232601031661E-05,1.54179579112679E-05,4.921875,0,0
-2.87010134343291E-05,1.52780339703895E-05,4.921875,0,0
-2.84687193925492E-05,1.61791595019167E-05,4.921875,0,0
-2.87257644231431E-05,1.47708396980306E-05,4.921875,0,0
-3.04351779050194E-05,1.26461955005652E-05,4.921875,0,0
-2.93882276309887E-05,1.19487649499206E-05,4.921875,0,0
-2.73944660875713E-05,1.34132560560829E-05,4.921875,0,0
-2.58969721471658E-05,1.29759991978062E-05,4.921875,0,0
-2.68062904069666E-05,1.24126108858036E-05,4.921875,0,0
-2.30147288675653E-05,1.26626118799322E-05,4.921875,0,0
-3.19078244501725E-05,2.00983704417013E-05,4.921875,0,0
-2.30294572247658E-05,1.72805412148591E-05,4.921875,0,0
-2.91074411506997E-05,1.90047267096816E-05,4.921875,0,0
-2.58601157838712E-05,1.54724239109783E-05,4.921875,0,0
-3.19225873681717E-05,1.74280903593171E-05,4.921875,0,0
-3.12584961648099E-05,1.61297666636528E-05,4.921875,0,0
-3.12408228637651E-05,1.62363921845099E-05,4.921875,0,0
-2.7668620532495E-05,1.57182421389734E-05,4.921875,0,0
-2.59160260611679E-05,1.49645093188155E-05,4.921875,0,0
-2.62279136222787E-05,1.47497285070131E-05,4.921875,0,0
-2.66647639364237E-05,1.56812602654099E-05,4.921875,0,0
-2.86367794615217E-05,1.91056460607797E-05,4.921875,0,0
-2.69068113993853E-05,2.04702228074893E-05,4.921875,0,0
-2.62268858932657E-05,2.0841960576945E-05,4.921875,0,0
-2.40896806644741E-05,1.99432561203139E-05,4.921875,0,0
-2.64601385424612E-05,2.1549298253376E-05,4.921875,0,0
-2.58556337939808E-05,2.10071120818611E-05,4.921875,0,0
-2.5615221602493E-05,1.8981041648658E-05,4.921875,0,0
-2.38256307056872E-05,1.5530889868387E-05,4.921875,0,0
-2.44494331127498E-05,1.53705113916658E-05,4.921875,0,0
-2.22363287321059E-05,1.65737164934399E-05,4.921875,0,0
-2.09549943974707E-05,1.82482563104713E-05,4.921875,0,0
-1.99615442397771E-05,1.71543088072212E-05,4.921875,0,0
-2.06157401407836E-05,1.48000126500847E-05,4.921875,0,0
-2.08395686058793E-05,1.44917457873817E-05,4.921875,0,0
-2.0444731489988E-05,1.51170397657552E-05,4.921875,0,0
-1.5692263332312E-05,1.22566252684919E-05,4.921875,0,0
-2.1429979824461E-05,1.66230965987779E-05,4.921875,0,0
-1.39522044264595E-05,1.27665034597158E-05,4.921875,0,0
-1.57720678544138E-05,1.75329041667283E-05,4.921875,0,0
-1.05637564047356E-05,1.54503577505238E-05,4.921875,0,0
-9.78154548647581E-06,1.76203120645368E-05,4.921875,0,0
-5.42559610039461E-06,1.60502222570358E-05,4.921875,0,0
-5.05601610711892E-06,1.58805996761657E-05,4.921875,0,0
-5.01452768730815E-06,1.36347543957527E-05,4.921875,0,0
-5.69442863707081E-06,9.85849783319281E-06,4.921875,0,0
-6.0570273490157E-06,6.77074058330618E-06,4.921875,0,0
-6.56132078802329E-06,6.67141375743086E-06,4.921875,0,0
-9.86447867035167E-06,1.10815562948119E-05,4.921875,0,0
-1.22015817396459E-05,1.53637211042224E-05,4.921875,0,0
-1.54569661390269E-05,1.99925434571924E-05,4.921875,0,0
-1.68004662555177E-05,1.99667647393653E-05,4.921875,0,0
-1.99673941096989E-05,1.54709014168475E-05,4.921875,0,0
-2.11717924685217E-05,5.06492233398603E-06,4.921875,0,0
-2.37902058870532E-05,-7.46567309306556E-07,4.921875,0,0
-2.49618988164002E-05,7.85547285886423E-07,4.921875,0,0
-2.66885053861188E-05,7.71061513660243E-06,4.921875,0,0
-2.69837455562083E-05,1.16115988930687E-05,4.921875,0,0
-2.80370186374057E-05,1.18537273010588E-05,4.921875,0,0
-2.76282717095455E-05,9.73107307800092E-06,4.921875,0,0
-2.71105818683282E-05,7.93300841905875E-06,4.921875,0,0
-2.73523546638899E-05,6.30623844699585E-06,4.921875,0,0
-2.82272940239636E-05,5.80680489292718E-06,4.921875,0,0
-2.19005814869888E-05,6.42889972368721E-06,4.921875,0,0
-2.9466587875504E-05,1.01156565506244E-05,4.921875,0,0
-2.02314840862527E-05,7.60535340305069E-06,4.921875,0,0
-2.58779036812484E-05,8.35322680359241E-06,4.921875,0,0
-2.23316292249365E-05,7.80503160058288E-06,4.921875,0,0
-2.7429803594714E-05,8.02375870989636E-06,4.921875,0,0
-2.55274298979202E-05,7.13313420419581E-06,4.921875,0,0
-2.75625170615967E-05,8.21985486254562E-06,4.921875,0,0
-2.68259918811964E-05,1.00489905889845E-05,4.921875,0,0
-2.60012984654168E-05,1.07332198240329E-05,4.921875,0,0
-2.62306548393099E-05,1.06049292298849E-05,4.921875,0,0
-2.59199878200889E-05,1.08290423668223E-05,4.921875,0,0
-2.75871916528558E-05,1.08198810266913E-05,4.921875,0,0
-2.69541815214325E-05,9.31242902879603E-06,4.921875,0,0
-2.75995826086728E-05,8.90319006430218E-06,4.921875,0,0
-2.54968254012056E-05,8.72539021656848E-06,4.921875,0,0
-2.58559557551052E-05,8.50411652209004E-06,4.921875,0,0
-2.35713050642516E-05,8.22654783405596E-06,4.921875,0,0
-2.41136494878447E-05,9.91326305666007E-06,4.921875,0,0
-2.33894461416639E-05,1.10520368252764E-05,4.921875,0,0
-2.42930418608012E-05,1.09721668195562E-05,4.921875,0,0
-2.32868478633463E-05,9.63213278737385E-06,4.921875,0,0
-2.4106204364216E-05,8.63040258991532E-06,4.921875,0,0
-2.42689511651406E-05,8.75006935530109E-06,4.921875,0,0
-2.42953119595768E-05,9.32571128942072E-06,4.921875,0,0
-2.36160922213458E-05,9.17011584533611E-06,4.921875,0,0
-2.32115671678912E-05,9.26495704334229E-06,4.921875,0,0
-1.93590440176195E-05,5.57805788048427E-06,4.921875,0,0
-2.94254950858885E-05,4.91453693030053E-06,4.921875,0,0
-2.48445121542318E-05,1.27173620967369E-06,4.921875,0,0
-3.00431638606824E-05,6.07266383667593E-06,4.921875,0,0
-2.63847905443981E-05,7.65944605518598E-06,4.921875,0,0
-2.87021612166427E-05,1.01942932815291E-05,4.921875,0,0
-2.70252512564184E-05,1.0778836440295E-05,4.921875,0,0
-2.89924846583745E-05,1.18249517981894E-05,4.921875,0,0
-2.95319077849854E-05,9.63217098615132E-06,4.921875,0,0
-2.98014074360253E-05,4.88803379994351E-06,4.921875,0,0
-2.99186576739885E-05,4.03371984702972E-07,4.921875,0,0
-3.00264655379578E-05,1.22046861505964E-08,4.921875,0,0
-3.24705870298203E-05,3.51569156009646E-06,4.921875,0,0
-3.38189165631775E-05,6.61521835354506E-06,4.921875,0,0
-3.63537765224464E-05,8.33930062071886E-06,4.921875,0,0
-3.54232288373169E-05,6.54852829029551E-06,4.921875,0,0
-3.62358478014357E-05,5.72479530092096E-06,4.921875,0,0
-3.61177080776542E-05,6.33480385658913E-06,4.921875,0,0
-3.827155160252E-05,7.64325159252621E-06,4.921875,0,0
-3.78173208446242E-05,6.49856247036951E-06,4.921875,0,0
-3.72945251001511E-05,6.65190054860432E-06,4.921875,0,0
-3.54994081135374E-05,7.44449562262162E-06,4.921875,0,0
-3.61642923962791E-05,7.66124412621139E-06,4.921875,0,0
-3.67332177120261E-05,6.6895204327011E-06,4.921875,0,0
-3.56183772964869E-05,6.21598292127601E-06,4.921875,0,0
-3.24820357491262E-05,7.44138060326804E-06,4.921875,0,0
-2.9899940273026E-05,9.56615531322313E-06,4.921875,0,0
-2.27332639042288E-05,7.75724492996233E-06,4.921875,0,0
-3.23213425872382E-05,9.06038349057781E-06,4.921875,0,0
-2.50052671617595E-05,4.6560776354454E-06,4.921875,0,0
-3.20800718327519E-05,7.3840569712047E-06,4.921875,0,0
-2.82914861600148E-05,6.78981632518116E-06,4.921875,0,0
-3.04411278193584E-05,9.61663590715034E-06,4.921875,0,0
-2.51510773523478E-05,9.51476613408886E-06,4.921875,0,0
-2.46001909545157E-05,1.06639054138213E-05,4.921875,0,0
-2.34868257393828E-05,1.21855537145166E-05,4.921875,0,0
-2.28580811381107E-05,1.35531508931308E-05,4.921875,0,0
-2.07473967748228E-05,1.3696707355848E-05,4.921875,0,0
-1.67013822647277E-05,1.2755222087435E-05,4.921875,0,0
-1.51330086737289E-05,1.27945959320641E-05,4.921875,0,0
-1.30043572426075E-05,1.25026681416784E-05,4.921875,0,0
-1.44790492413449E-05,1.3618016964756E-05,4.921875,0,0
-1.38726118166232E-05,1.46880374813918E-05,4.921875,0,0
-1.57495396706508E-05,1.69999366335105E-05,4.921875,0,0
-1.54817516886396E-05,1.7510892575956E-05,4.921875,0,0
-1.81455561687471E-05,1.81323230208363E-05,4.921875,0,0
-1.89189322554739E-05,1.76057728822343E-05,4.921875,0,0
-2.01968014152953E-05,1.73570915649179E-05,4.921875,0,0
-1.86827801371692E-05,1.72613981703762E-05,4.921875,0,0
-1.81176019395934E-05,1.82229832716985E-05,4.921875,0,0
-1.67729249369586E-05,1.83566680789227E-05,4.921875,0,0
-1.63247641467024E-05,1.81363593583228E-05,4.921875,0,0
-1.53393302753102E-05,1.71603314811364E-05,4.921875,0,0
-1.48743056342937E-05,1.43921297421912E-05,4.921875,0,0
-1.26993572848733E-05,4.89105968881631E-06,4.921875,0,0
-1.83534157258691E-05,2.73376002724035E-07,4.921875,0,0
-1.44530886245775E-05,-6.4653445406293E-06,4.921875,0,0
-1.81610812433064E-05,-1.11599717911304E-06,4.921875,0,0
-1.66935788001865E-05,4.67807240056572E-06,4.921875,0,0
-1.87259065569378E-05,1.55298657773528E-05,4.921875,0,0
-1.72483269125223E-05,2.04799489438301E-05,4.921875,0,0
-1.88890626304783E-05,2.14100527955452E-05,4.921875,0,0
-2.03862200578442E-05,1.86148899956606E-05,4.921875,0,0
-2.11918377317488E-05,1.5749932572362E-05,4.921875,0,0
-2.26829979510512E-05,1.47877863128087E-05,4.921875,0,0
-2.44581442530034E-05,1.73130247276276E-05,4.921875,0,0
-2.5802373784245E-05,2.15011059481185E-05,4.921875,0,0
-2.50357370532583E-05,2.33884675253648E-05,4.921875,0,0
-2.593495810288E-05,2.4046808903222E-05,4.921875,0,0
-2.58541076618712E-05,2.24689192691585E-05,4.921875,0,0
-2.6665644327295E-05,2.07490757020423E-05,4.921875,0,0
-2.54454535024706E-05,1.70456569321686E-05,4.921875,0,0
-2.51340152317425E-05,1.21095263239113E-05,4.921875,0,0
-2.42839905695291E-05,4.51651840194245E-06,4.921875,0,0
-2.53816160693532E-05,9.27448525089858E-07,4.921875,0,0
-2.6120545953745E-05,1.9536200852599E-06,4.921875,0,0
-2.71726312348619E-05,4.84229894937016E-06,4.921875,0,0
-2.7521937226993E-05,6.35968444839818E-06,4.921875,0,0
-2.83944555121707E-05,7.03180376149248E-06,4.921875,0,0
-2.91737123916391E-05,5.61470369575545E-06,4.921875,0,0
-2.96525213343557E-05,4.41462998423958E-06,4.921875,0,0
-2.4895010938053E-05,2.46709601015027E-06,4.921875,0,0
-3.49052570527419E-05,1.75716081685096E-06,4.921875,0,0
-2.5831537641352E-05,-3.16324445748251E-07,4.921875,0,0
-3.13507989631034E-05,1.07261337234377E-06,4.921875,0,0
-2.41838752117474E-05,2.00111958292837E-06,4.921875,0,0
-2.58507316175383E-05,5.21619222126901E-06,4.921875,0,0
-2.12688846659148E-05,7.1618801484874E-06,4.921875,0,0
-2.23566603381187E-05,8.80513380252523E-06,4.921875,0,0
-2.1762476535514E-05,9.55492305365624E-06,4.921875,0,0
-2.17587912629824E-05,9.24289543036139E-06,4.921875,0,0
-2.22692324314266E-05,8.75497698871186E-06,4.921875,0,0
-2.12178892979864E-05,8.65729907673085E-06,4.921875,0,0
-2.29558063438162E-05,8.82900440046797E-06,4.921875,0,0
-2.32633028645068E-05,8.75087062013336E-06,4.921875,0,0
-2.54287788266083E-05,9.12131145014428E-06,4.921875,0,0
-2.36743671848672E-05,8.04710180091206E-06,4.921875,0,0
-2.46439594775438E-05,7.2392667789245E-06,4.921875,0,0
-2.22781472984934E-05,7.1918889261724E-06,4.921875,0,0
-2.22999969992088E-05,7.64148626331007E-06,4.921875,0,0
-2.14878891711123E-05,7.43859800422797E-06,4.921875,0,0
-2.29639736062381E-05,7.53058111513383E-06,4.921875,0,0
-2.20871424971847E-05,7.63033767725574E-06,4.921875,0,0
-2.28991575568216E-05,8.06775369710522E-06,4.921875,0,0
-2.38011452893261E-05,9.55411178438226E-06,4.921875,0,0
-2.49010481638834E-05,1.15436641863198E-05,4.921875,0,0
-2.45938881562324E-05,1.05760063888738E-05,4.921875,0,0
-2.5273700885009E-05,8.61994521983434E-06,4.921875,0,0
-2.04376956389751E-05,7.21363312550238E-06,4.921875,0,0
-2.84871020994615E-05,1.02578023870592E-05,4.921875,0,0
-2.20052406803006E-05,7.94259631220484E-06,4.921875,0,0
-2.85990226984723E-05,1.1862564861076E-05,4.921875,0,0
-2.45778737735236E-05,1.26908016682137E-05,4.921875,0,0
-2.81629581877496E-05,1.48900671774754E-05,4.921875,0,0
-2.7937467166339E-05,1.50036685226951E-05,4.921875,0,0
-3.08187445625663E-05,1.45471913128858E-05,4.921875,0,0
-3.12163756461814E-05,1.34585852720193E-05,4.921875,0,0
-3.28833812091034E-05,1.29615000332706E-05,4.921875,0,0
-3.43608735420275E-05,1.27318207887583E-05,4.921875,0,0
-3.4419081202941E-05,1.24782609418617E-05,4.921875,0,0
-3.59765217581298E-05,1.25018805192667E-05,4.921875,0,0
-3.49839210684877E-05,1.18541638585157E-05,4.921875,0,0
-3.57034332409967E-05,1.11670287878951E-05,4.921875,0,0
-3.36672892444767E-05,9.02897591004148E-06,4.921875,0,0
-3.27449015458114E-05,8.83071788848611E-06,4.921875,0,0
-2.90188963845139E-05,9.24297000892693E-06,4.921875,0,0
-2.78865391010186E-05,1.01222958619474E-05,4.921875,0,0
-2.57275823969394E-05,9.93948287941748E-06,4.921875,0,0
-2.53299731411971E-05,9.81161429081112E-06,4.921875,0,0
-2.24103878281312E-05,9.79106243903516E-06,4.921875,0,0
-1.9039031030843E-05,1.00823790489812E-05,4.921875,0,0
-1.5219271517708E-05,8.45706745167263E-06,4.921875,0,0
-1.27110324683599E-05,6.8779431785515E-06,4.921875,0,0
-9.70143719314365E-06,8.42660483613145E-06,4.921875,0,0
-8.81176129041705E-06,1.26728955365252E-05,4.921875,0,0
-8.62850720295683E-06,1.14250105980318E-05,4.921875,0,0
-1.37178876684629E-05,1.48201606862131E-05,4.921875,0,0
-1.25188025776879E-05,9.51906440604944E-06,4.921875,0,0
-1.46348947964725E-05,1.36239805215155E-05,4.921875,0,0
-1.42860008054413E-05,1.21538560051704E-05,4.921875,0,0
-1.66116678883554E-05,1.35103591674124E-05,4.921875,0,0
-1.53045693878084E-05,1.05899835034506E-05,4.921875,0,0
-1.47803384606959E-05,9.95489790511783E-06,6.15234375,0,0
-1.31389169837348E-05,1.07910736915073E-05,6.15234375,0,0
-1.0754191862361E-05,1.24056741697132E-05,6.15234375,0,0
-8.42724330141209E-06,1.4096242011874E-05,6.15234375,0,0
-6.22284460405353E-06,1.55027610162506E-05,6.15234375,0,0
-5.57966131964349E-06,1.62424385052873E-05,6.15234375,0,0
-5.27246720594121E-06,1.48727467603749E-05,6.15234375,0,0
-6.48447485218639E-06,1.58726015797583E-05,6.15234375,0,0
-7.49265245758579E-06,1.66021618497325E-05,6.15234375,0,0
-1.05407561932225E-05,1.73953885678202E-05,6.15234375,0,0
-1.33060120788286E-05,1.61405496328371E-05,6.15234375,0,0
-1.59766568685882E-05,1.51447338794242E-05,6.15234375,0,0
-1.63769982464146E-05,1.12320976768387E-05,6.15234375,0,0
-1.64426965056919E-05,9.30878650251543E-06,6.15234375,0,0
-1.6153260730789E-05,9.91294291452505E-06,6.15234375,0,0
-1.65543315233663E-05,1.21929206216009E-05,6.15234375,0,0
-1.76101420947816E-05,1.19074120448204E-05,6.15234375,0,0
-2.04016232601134E-05,9.14003612706438E-06,6.15234375,0,0
-2.24807481572498E-05,7.23662560631055E-06,6.15234375,0,0
-2.33757818932645E-05,8.22034417069517E-06,6.15234375,0,0
-1.97200770344352E-05,7.50292883822112E-06,6.15234375,0,0
-2.83436220342992E-05,9.83839981927304E-06,6.15234375,0,0
-2.04820589715382E-05,4.07262177759549E-06,6.15234375,0,0
-2.31083940889221E-05,3.02154057862936E-06,6.15234375,0,0
-1.813112248783E-05,2.85567512037233E-06,6.15234375,0,0
-2.16260177694494E-05,8.20969398773741E-06,6.15234375,0,0
-2.09440750040812E-05,9.83686004474293E-06,6.15234375,0,0
-2.42915666603949E-05,8.04667524789693E-06,6.15234375,0,0
-2.55353825195925E-05,5.87523436479387E-06,6.15234375,0,0
-2.67801642621635E-05,7.56785493649659E-06,6.15234375,0,0
-2.70879882009467E-05,1.06035813587368E-05,6.15234375,0,0
-2.51632918661926E-05,1.21920884339488E-05,6.15234375,0,0
-2.47226053033955E-05,1.26413597172359E-05,6.15234375,0,0
-2.43493468587985E-05,1.18703574116807E-05,6.15234375,0,0
-2.73133118753321E-05,1.3231824596005E-05,6.15234375,0,0
-2.80748772638617E-05,1.45166832226096E-05,6.15234375,0,0
-3.04673521895893E-05,1.56128098751651E-05,6.15234375,0,0
-3.04076638713013E-05,1.51764861584525E-05,6.15234375,0,0
-3.2418636692455E-05,1.68589795066509E-05,6.15234375,0,0
-3.2435440516565E-05,1.96507753571495E-05,6.15234375,0,0
-3.28196911141276E-05,2.13220082514454E-05,6.15234375,0,0
-3.0944574973546E-05,1.90970586118056E-05,6.15234375,0,0
-2.99443381663878E-05,1.58933580678422E-05,6.15234375,0,0
-2.81739339698106E-05,1.39153607960907E-05,6.15234375,0,0
-2.70499949692748E-05,1.5709612853243E-05,6.15234375,0,0
-2.54260357905878E-05,1.87737223313889E-05,6.15234375,0,0
-2.4345396013814E-05,1.88126086868579E-05,6.15234375,0,0
-1.86561901500681E-05,1.05914677988039E-05,6.15234375,0,0
-2.57193387369625E-05,1.19704100143281E-05,6.15234375,0,0
-1.88101948879194E-05,9.03937871044036E-06,6.15234375,0,0
-2.41158832068322E-05,1.59105875354726E-05,6.15234375,0,0
-2.23482002184028E-05,1.2065261216776E-05,6.15234375,0,0
-2.78285497188335E-05,1.18031221063575E-05,6.15234375,0,0
-2.69617084995843E-05,8.71491465659346E-06,6.15234375,0,0
-2.99311377602862E-05,8.59627016325248E-06,6.15234375,0,0
-3.24506072502118E-05,6.46478429189301E-06,6.15234375,0,0
-3.51959206454922E-05,4.14407531934557E-06,6.15234375,0,0
-3.58121105819009E-05,3.82302778234589E-06,6.15234375,0,0
-3.40385668096133E-05,6.28623411103035E-06,6.15234375,0,0
-3.38175595970824E-05,9.42778751777951E-06,6.15234375,0,0
-3.18886777677108E-05,8.99673887033714E-06,6.15234375,0,0
-3.16178375214804E-05,9.51320726017002E-06,6.15234375,0,0
-2.95963473035954E-05,8.72092641657218E-06,6.15234375,0,0
-3.0868479370838E-05,8.72800774232019E-06,6.15234375,0,0
-3.01310174108949E-05,6.48256991553353E-06,6.15234375,0,0
-3.02929383906303E-05,6.19715410721255E-06,6.15234375,0,0
-2.7548689104151E-05,6.1469554566429E-06,6.15234375,0,0
-2.65075304923812E-05,8.03657349024434E-06,6.15234375,0,0
-2.60694614553358E-05,9.62116064329166E-06,6.15234375,0,0
-2.69123574980767E-05,1.21504399430705E-05,6.15234375,0,0
-2.56618586718105E-05,1.30044254547101E-05,6.15234375,0,0
-2.57095089182258E-05,1.26020649986458E-05,6.15234375,0,0
-2.60898796113906E-05,1.03762877188274E-05,6.15234375,0,0
-2.51764249696862E-05,7.2706070568529E-06,6.15234375,0,0
-1.93434880202403E-05,2.61602235696046E-06,6.15234375,0,0
-2.82586497633019E-05,7.55137989472132E-07,6.15234375,0,0
-2.28563294513151E-05,-4.15344720749999E-06,6.15234375,0,0
-2.8820935767726E-05,-4.59016655440792E-06,6.15234375,0,0
-2.5642095351941E-05,-1.08362735318224E-06,6.15234375,0,0
-2.80662698060041E-05,7.66868561186129E-06,6.15234375,0,0
-2.56644925684668E-05,1.35140026031877E-05,6.15234375,0,0
-2.68945041170809E-05,1.6481570128235E-05,6.15234375,0,0
-2.74238554993644E-05,1.69438735611038E-05,6.15234375,0,0
-2.91229589493014E-05,1.6645819414407E-05,6.15234375,0,0
-3.00938172586029E-05,1.58078310050769E-05,6.15234375,0,0
-3.02771404676605E-05,1.2812070963264E-05,6.15234375,0,0
-3.18904021696653E-05,8.58647763379849E-06,6.15234375,0,0
-3.08722883346491E-05,6.17111936662695E-06,6.15234375,0,0
-3.13522650685627E-05,9.06608238437912E-06,6.15234375,0,0
-3.06711299344897E-05,1.42756371133146E-05,6.15234375,0,0
-3.2300300517818E-05,1.73269472725224E-05,6.15234375,0,0
-2.99694511340931E-05,1.54106583067914E-05,6.15234375,0,0
-2.84770740108797E-05,1.24297876027413E-05,6.15234375,0,0
-2.74257454293547E-05,1.17895278890501E-05,6.15234375,0,0
-2.95815025310731E-05,1.535903174954E-05,6.15234375,0,0
-2.98556969937636E-05,1.99611586140236E-05,6.15234375,0,0
-2.94724250125E-05,2.28852404688951E-05,6.15234375,0,0
-2.73536861641333E-05,2.44425518758362E-05,6.15234375,0,0
-2.65291182586225E-05,2.65950584434904E-05,6.15234375,0,0
-2.50854882324347E-05,2.73802506853826E-05,6.15234375,0,0
-2.38611428358126E-05,2.31720405281521E-05,6.15234375,0,0
-1.86621400644071E-05,1.05887584140874E-05,6.15234375,0,0
-2.5976070901379E-05,1.01318446468213E-05,6.15234375,0,0
-1.84390373760834E-05,1.93583355212468E-06,6.15234375,0,0
-2.26702049985761E-05,4.42018608737271E-06,6.15234375,0,0
-1.91280560102314E-05,3.06476317746274E-06,6.15234375,0,0
-2.16322441701777E-05,9.87088606052566E-06,6.15234375,0,0
-1.73848093254492E-05,1.30941871248069E-05,6.15234375,0,0
-1.56439946294995E-05,1.73402931977762E-05,6.15234375,0,0
-1.51559879668639E-05,1.76520388777135E-05,6.15234375,0,0
-1.68669484992279E-05,1.65793680935167E-05,6.15234375,0,0
-1.78553800651571E-05,1.55161069415044E-05,6.15234375,0,0
-1.66263071150752E-05,1.52317370520905E-05,6.15234375,0,0
-1.66206773428712E-05,1.52949178300332E-05,6.15234375,0,0
-1.5997264199541E-05,1.32115719679859E-05,6.15234375,0,0
-1.77032034116564E-05,1.28542778838892E-05,6.15234375,0,0
-1.76015382749029E-05,1.13700125439209E-05,6.15234375,0,0
-2.0021168893436E-05,1.0849622412934E-05,6.15234375,0,0
-2.07082175620599E-05,8.60622640175279E-06,6.15234375,0,0
-2.24855357373599E-05,8.02340764494147E-06,6.15234375,0,0
-2.15882300835801E-05,6.51680966257118E-06,6.15234375,0,0
-2.16701319004642E-05,6.74996772431768E-06,6.15234375,0,0
-2.01982002181467E-05,6.01630563323852E-06,6.15234375,0,0
-2.04912284971215E-05,6.38817573417327E-06,6.15234375,0,0
-2.09118279599352E-05,6.30750400887337E-06,6.15234375,0,0
-2.1511335944524E-05,6.96089773555286E-06,6.15234375,0,0
-2.16089192690561E-05,7.43283771953429E-06,6.15234375,0,0
-2.10566377063515E-05,7.17471493771882E-06,6.15234375,0,0
