biceps_emg, triceps_emg, subject_position, position_estimate, brace_position
-2.17870619962923E-05,7.32514536139206E-06,1.23046875,0,0
-2.08527962968219E-05,6.48193645247375E-06,1.23046875,0,0
-2.12036829907447E-05,6.65290644974448E-06,1.23046875,0,0
-2.22243270400213E-05,9.37002732825931E-06,1.23046875,0,0
-2.42547575908247E-05,1.4114128134679E-05,1.23046875,0,0
-2.23798233491834E-05,1.6611120372545E-05,1.23046875,0,0
-2.10088510357309E-05,1.73278476722771E-05,1.23046875,0,0
-1.91287435882259E-05,1.63878212333657E-05,1.23046875,0,0
-2.1519719666685E-05,1.80630486283917E-05,1.23046875,0,0
-2.18730583583238E-05,1.86391953320708E-05,1.23046875,0,0
-2.27516757149715E-05,1.66146292031044E-05,1.23046875,0,0
-2.16045191336889E-05,1.20133308882941E-05,1.23046875,0,0
-2.27089731197339E-05,1.03284828583128E-05,1.23046875,0,0
-2.2427326257457E-05,1.10912587842904E-05,1.23046875,0,0
-2.13533003261546E-05,1.22451019706205E-05,1.23046875,0,0
-1.88620615517721E-05,1.01021014415892E-05,1.23046875,0,0
-1.8199258192908E-05,8.14805207483005E-06,1.23046875,0,0
-1.79305188794388E-05,1.00570468930528E-05,1.23046875,0,0
-1.76448011188768E-05,1.31991328089498E-05,1.23046875,0,0
-1.34978999994928E-05,1.18412644951604E-05,1.23046875,0,0
-1.92714214790612E-05,1.71021274582017E-05,1.23046875,0,0
-1.67071120813489E-05,1.40961219585733E-05,1.23046875,0,0
-2.35681600315729E-05,1.71081901498837E-05,1.23046875,0,0
-2.30533205467509E-05,1.35601967485854E-05,1.23046875,0,0
-2.57900519500254E-05,1.47383907460608E-05,1.23046875,0,0
-2.42369060288183E-05,1.30051839732914E-05,1.23046875,0,0
-2.51649234996876E-05,1.40224465212668E-05,1.23046875,0,0
-2.57062474702252E-05,1.51046824612422E-05,1.23046875,0,0
-2.68879139184719E-05,1.67066064022947E-05,1.23046875,0,0
-2.83131721516838E-05,1.62974083650624E-05,1.23046875,0,0
-2.86397535091965E-05,1.37994866236113E-05,1.23046875,0,0
-2.7576523280004E-05,1.34932051878422E-05,1.23046875,0,0
-2.41492398345144E-05,1.43624947668286E-05,1.23046875,0,0
-2.43778122239746E-05,1.57373306137742E-05,1.23046875,0,0
-2.48231008299626E-05,1.35809768835315E-05,1.23046875,0,0
-2.57859337580157E-05,1.29560894492897E-05,1.23046875,0,0
-2.43752001551911E-05,1.13348705781391E-05,1.23046875,0,0
-2.47928783210227E-05,9.38171342568239E-06,1.23046875,0,0
-2.50121338467579E-05,6.77112620905973E-06,1.23046875,0,0
-2.74065441772109E-05,7.20425305189565E-06,1.23046875,0,0
-2.88104365608888E-05,7.13030158294714E-06,1.23046875,0,0
-2.928261346824E-05,7.30841520635295E-06,1.23046875,0,0
-2.74188878393034E-05,6.48989271212486E-06,1.23046875,0,0
-2.59032094618306E-05,6.67593030811986E-06,1.23046875,0,0
-2.5064926376217E-05,7.66465745982714E-06,1.23046875,0,0
-2.50843186222482E-05,9.37573986448115E-06,1.23046875,0,0
-2.02737046492985E-05,6.95608696332783E-06,1.23046875,0,0
-2.92412860289915E-05,8.67484777700156E-06,1.23046875,0,0
-2.39271212194581E-05,5.43369469596655E-06,1.23046875,0,0
-3.06200890918262E-05,8.41292785480618E-06,1.23046875,0,0
-2.71627486654324E-05,8.76775447977707E-06,1.23046875,0,0
-3.24502616422251E-05,1.16847668323317E-05,1.23046875,0,0
-3.34300857502967E-05,1.20636696010479E-05,1.23046875,0,0
-3.65187624993268E-05,1.31595070342883E-05,1.23046875,0,0
-3.63469116564374E-05,1.36263779495494E-05,1.23046875,0,0
-3.6535053368425E-05,1.39084913826082E-05,1.23046875,0,0
-3.70905800082255E-05,1.48796098073944E-05,1.23046875,0,0
-3.71333335351665E-05,1.63259101100266E-05,1.23046875,0,0
-3.86372375942301E-05,1.73712760442868E-05,1.23046875,0,0
-3.76196148863528E-05,1.62304604600649E-05,1.23046875,0,0
-3.78771728719585E-05,1.53269120346522E-05,1.23046875,0,0
-3.61069396603853E-05,1.44097220982076E-05,1.23046875,0,0
-3.62810678780079E-05,1.47917016874999E-05,1.23046875,0,0
-3.21788211294916E-05,1.48296603583731E-05,1.23046875,0,0
-2.97852056974079E-05,1.64806806424167E-05,1.23046875,0,0
-2.78225834335899E-05,1.77474685187917E-05,1.23046875,0,0
-2.95421577902744E-05,1.90198770724237E-05,1.23046875,0,0
-2.93775810860097E-05,1.88016583706485E-05,1.23046875,0,0
-2.85065925709205E-05,1.83019274118124E-05,1.23046875,0,0
-2.6892561436398E-05,1.75658697116887E-05,1.23046875,0,0
-2.66252573055681E-05,1.71017691172892E-05,1.23046875,0,0
-2.49807053478435E-05,1.6220012184931E-05,1.23046875,0,0
-2.14164720091503E-05,1.40825695780222E-05,1.23046875,0,0
-1.36315811687382E-05,9.66392235568492E-06,1.23046875,0,0
-1.89427373697981E-05,1.2689602044702E-05,1.23046875,0,0
-1.50738442243892E-05,8.31048873806139E-06,1.23046875,0,0
-1.92197439901065E-05,1.13798741949722E-05,1.23046875,0,0
-1.53206965478603E-05,1.11319377538166E-05,1.23046875,0,0
-1.75526420207461E-05,1.45815974974539E-05,1.23046875,0,0
-1.7222695532837E-05,1.46057500387542E-05,1.23046875,0,0
-1.75476798176533E-05,1.39070170916966E-05,1.23046875,0,0
-1.54376139107626E-05,1.19385704238084E-05,1.23046875,0,0
-1.48867648022133E-05,1.38105642690789E-05,1.23046875,0,0
-1.63212407642277E-05,1.59641276695766E-05,1.23046875,0,0
-1.81282139237737E-05,1.49379948197748E-05,1.23046875,0,0
-1.99421901925234E-05,1.34002384584164E-05,1.23046875,0,0
-1.9442746634013E-05,1.24118478197488E-05,1.23046875,0,0
-2.04551433853339E-05,1.43220813697553E-05,1.23046875,0,0
-2.06180011446122E-05,1.51891263158177E-05,1.23046875,0,0
-2.24360082938802E-05,1.61799853231059E-05,1.23046875,0,0
-2.19867870328017E-05,1.53617584146559E-05,1.23046875,0,0
-2.27235032070894E-05,1.58658094733255E-05,1.23046875,0,0
-2.25643616431626E-05,1.63253371283645E-05,1.23046875,0,0
-2.40686295001069E-05,1.70639486896107E-05,1.23046875,0,0
-2.52582685789093E-05,1.47040900628781E-05,1.23046875,0,0
-2.67470641119871E-05,1.20272588901571E-05,1.23046875,0,0
-2.63014244410442E-05,1.03320899143E-05,1.23046875,0,0
-2.63771562458714E-05,1.02208859971142E-05,1.23046875,0,0
-2.78732495644363E-05,7.99803456175141E-06,1.23046875,0,0
-2.97657479677582E-05,4.05366836275789E-06,1.23046875,0,0
-2.35335519391811E-05,1.93562914319045E-06,1.23046875,0,0
-3.0735714972252E-05,4.65339371658047E-06,1.23046875,0,0
-2.00973845494445E-05,7.48546153772622E-06,1.23046875,0,0
-2.7163012418896E-05,1.0630045835569E-05,1.23046875,0,0
-2.30259156523971E-05,1.17184144983185E-05,1.23046875,0,0
-2.63275160250487E-05,1.21664525067899E-05,1.23046875,0,0
-2.25739113375312E-05,1.22715346151381E-05,1.23046875,0,0
-2.35867009905633E-05,1.22285400721012E-05,1.23046875,0,0
-2.19458943320205E-05,1.33391995404963E-05,1.23046875,0,0
-2.06743752642069E-05,1.51624099089531E-05,1.23046875,0,0
-2.11544611374848E-05,1.66641766554676E-05,1.23046875,0,0
-2.1181349438848E-05,1.68044734891737E-05,1.23046875,0,0
-2.2645444914815E-05,1.51369376908406E-05,1.23046875,0,0
-2.18616842175834E-05,1.21290850074729E-05,1.23046875,0,0
-2.36649084399687E-05,8.77534148457926E-06,1.23046875,0,0
-2.20810234168312E-05,6.41608312434983E-06,1.23046875,0,0
-2.29973720706766E-05,5.63248022444895E-06,1.23046875,0,0
-2.20515248656739E-05,5.71377267988282E-06,1.23046875,0,0
-2.35361858358374E-05,6.3589482124371E-06,1.23046875,0,0
-2.07406883419026E-05,7.8482862591045E-06,1.23046875,0,0
-1.89990769285942E-05,9.2563404905377E-06,1.23046875,0,0
-1.79184335138416E-05,9.06784498511115E-06,1.23046875,0,0
-2.08334113267483E-05,9.65697927313158E-06,1.23046875,0,0
-2.28110184252728E-05,1.20685508591123E-05,1.23046875,0,0
-2.37689255300211E-05,1.48204235301819E-05,1.23046875,0,0
-2.38148168136831E-05,1.6215635696426E-05,1.23046875,0,0
-2.42462556343526E-05,1.54411027324386E-05,1.23046875,0,0
-1.9899011022062E-05,1.01795176306041E-05,1.23046875,0,0
-2.70471336989431E-05,1.32315954033402E-05,1.23046875,0,0
-1.88262147275964E-05,7.72748626332032E-06,1.23046875,0,0
-2.46519957727287E-05,9.37873664952349E-06,1.23046875,0,0
-2.25995772780152E-05,5.25634413861553E-06,1.23046875,0,0
-2.67137129412731E-05,6.25171242063516E-06,1.23046875,0,0
-2.40353965637041E-05,8.25640745460987E-06,1.23046875,0,0
-2.46781128225848E-05,1.19285368782585E-05,1.23046875,0,0
-2.5226516299881E-05,1.12581274152035E-05,1.23046875,0,0
-2.6144742150791E-05,8.82697258930421E-06,1.23046875,0,0
-2.58247364399722E-05,7.44909175409703E-06,1.23046875,0,0
-2.30505538638681E-05,7.22341928849346E-06,1.23046875,0,0
-2.13841140066506E-05,6.47810566078988E-06,1.23046875,0,0
-1.9688861357281E-05,3.24456664202444E-06,1.23046875,0,0
-2.25576568482211E-05,2.54218252848659E-06,1.23046875,0,0
-2.37434196606046E-05,3.25680116475269E-06,1.23046875,0,0
-2.6619771233527E-05,5.54918324269238E-06,1.23046875,0,0
-2.736208261922E-05,6.92962521497975E-06,1.23046875,0,0
-2.98586728604278E-05,1.11727813418838E-05,1.23046875,0,0
-2.9885173717048E-05,1.5516434359597E-05,1.23046875,0,0
-3.07202171825338E-05,1.8049342543236E-05,1.23046875,0,0
-2.93282937491313E-05,1.57561207743129E-05,1.23046875,0,0
-2.80956992355641E-05,1.19792293844512E-05,1.23046875,0,0
-2.68822095677024E-05,7.53558515498298E-06,1.23046875,0,0
-2.7249412596575E-05,4.39173436461715E-06,1.23046875,0,0
-2.70110649580602E-05,3.30006946569483E-06,1.23046875,0,0
-2.66897877736483E-05,3.67861889571941E-06,1.23046875,0,0
-2.11104124900885E-05,3.15497300107381E-06,1.23046875,0,0
-2.90669358946616E-05,3.90055356547236E-06,1.23046875,0,0
-2.16583684959915E-05,5.94338507653447E-06,1.23046875,0,0
-2.62521571130492E-05,1.16612509373226E-05,1.23046875,0,0
-1.92865918506868E-05,1.16818855531164E-05,1.23046875,0,0
-2.18102941289544E-05,1.11743629531702E-05,1.23046875,0,0
-2.04927819140721E-05,1.0276433386025E-05,1.23046875,0,0
-2.22728576773079E-05,1.05008630271186E-05,1.23046875,0,0
-2.06522126973141E-05,1.12443394755246E-05,1.23046875,0,0
-1.98413908947259E-05,1.17851204777253E-05,1.23046875,0,0
-2.04260668397183E-05,1.10609025796293E-05,1.23046875,0,0
-2.04132629733067E-05,1.0344352631364E-05,1.23046875,0,0
-2.23994757106993E-05,9.87594921753043E-06,1.23046875,0,0
-2.32710408454295E-05,8.83533539308701E-06,1.23046875,0,0
-2.54637452599127E-05,8.42863028083229E-06,1.23046875,0,0
-2.30545083468314E-05,7.77138575358549E-06,1.23046875,0,0
-2.17762099055108E-05,8.89686543814605E-06,1.23046875,0,0
-1.90666251000948E-05,1.08354752228479E-05,1.23046875,0,0
-2.07327648240607E-05,1.19060514407465E-05,1.23046875,0,0
-2.25714557018364E-05,9.87518978945445E-06,1.23046875,0,0
-2.60940669249976E-05,7.298287073354E-06,1.23046875,0,0
-2.48395390372025E-05,5.11887719767401E-06,1.23046875,0,0
-2.3408463675878E-05,4.62351545138517E-06,1.23046875,0,0
-2.27073815040058E-05,4.87950865135645E-06,1.23046875,0,0
-2.44689163082512E-05,5.57136172574246E-06,1.23046875,0,0
-2.56213988905074E-05,6.3186544139171E-06,1.23046875,0,0
-2.50893808697583E-05,6.71344196234713E-06,1.23046875,0,0
-1.98927391465986E-05,6.9519928729278E-06,1.23046875,0,0
-2.77111248578876E-05,1.03844176919665E-05,1.23046875,0,0
-1.88882040674798E-05,8.2981277955696E-06,1.23046875,0,0
-2.19006124098087E-05,1.05554017864051E-05,1.23046875,0,0
-1.7801059584599E-05,8.82038511917926E-06,1.23046875,0,0
-2.14596620935481E-05,7.85179418016924E-06,1.23046875,0,0
-2.04619136638939E-05,7.54320899432059E-06,1.23046875,0,0
-2.18528384721139E-05,9.36401465878589E-06,1.23046875,0,0
-1.97591161850141E-05,8.74776924320031E-06,1.23046875,0,0
-1.87512941920431E-05,5.83770588491461E-06,1.23046875,0,0
-1.88045069080545E-05,3.69110011888552E-06,1.23046875,0,0
-1.81536124728154E-05,4.31243142884341E-06,1.23046875,0,0
-1.895846799016E-05,7.38188919058302E-06,1.23046875,0,0
-1.6985830370686E-05,9.2494192358572E-06,1.23046875,0,0
-1.61687603394967E-05,9.54371080297278E-06,1.23046875,0,0
-1.33255189211923E-05,8.66806203703163E-06,1.23046875,0,0
-1.38037585202255E-05,1.06781844806392E-05,1.23046875,0,0
-1.31666247398243E-05,1.32551849674201E-05,1.23046875,0,0
-1.45684243761934E-05,1.34692572828499E-05,1.23046875,0,0
-1.42376984513248E-05,1.03509173641214E-05,1.23046875,0,0
-1.48576782521559E-05,9.26940901990747E-06,1.23046875,0,0
-1.25443229990196E-05,8.89655802893685E-06,1.23046875,0,0
-1.14297172331135E-05,7.81433118390851E-06,1.23046875,0,0
-1.08461117633851E-05,7.82440565672005E-06,1.23046875,0,0
-1.14748645501095E-05,8.92325442691799E-06,1.23046875,0,0
-1.20129070637631E-05,7.81505787017522E-06,1.23046875,0,0
-1.19519972940907E-05,7.62626177674974E-06,1.23046875,0,0
-9.97662573354319E-06,8.30507633509114E-06,1.23046875,0,0
-1.52725060615921E-05,1.25919996207813E-05,1.23046875,0,0
-1.34069005071069E-05,1.16632218123414E-05,1.23046875,0,0
-1.67642156156944E-05,1.61792831931962E-05,1.23046875,0,0
-1.73394128069049E-05,1.55843372340314E-05,1.23046875,0,0
-2.15332911466248E-05,1.67020134540508E-05,1.23046875,0,0
-2.30497298616683E-05,1.60160852828994E-05,1.23046875,0,0
-2.52933677984402E-05,1.682311813056E-05,1.23046875,0,0
-2.47497173404554E-05,1.73463140527019E-05,1.23046875,0,0
-2.40004101215163E-05,1.8304828699911E-05,1.23046875,0,0
-2.44597013079328E-05,1.99018049897859E-05,1.23046875,0,0
-2.50296034209896E-05,2.11314636544557E-05,1.23046875,0,0
-2.53217713179765E-05,2.27423297474161E-05,1.23046875,0,0
-2.41749985434581E-05,2.16443786484888E-05,1.23046875,0,0
-2.45691953750793E-05,1.924657044583E-05,1.23046875,0,0
-2.58553391176974E-05,1.60024428623728E-05,1.23046875,0,0
-2.8656064387178E-05,1.48426997839124E-05,1.23046875,0,0
-2.84115703834686E-05,1.41263872137642E-05,1.23046875,0,0
-2.73467048828024E-05,1.4868052858219E-05,1.23046875,0,0
-2.52671106864E-05,1.53104119817726E-05,1.23046875,0,0
-2.55592767643975E-05,1.60301133291796E-05,1.23046875,0,0
-2.60705674008932E-05,1.58127477334347E-05,1.23046875,0,0
-2.69876309175743E-05,1.44851155710057E-05,1.23046875,0,0
-2.69737247435842E-05,1.17625513667008E-05,1.23046875,0,0
-2.74259800789878E-05,1.09750317278667E-05,1.23046875,0,0
-2.78607403743081E-05,1.15578159238794E-05,1.23046875,0,0
-2.68086969299475E-05,1.24743091873825E-05,1.23046875,0,0
-2.05288433789974E-05,1.07555260910885E-05,1.23046875,0,0
-2.72762445092667E-05,1.71303181559779E-05,1.23046875,0,0
-1.79897360794712E-05,1.45740214065881E-05,1.23046875,0,0
-2.30584664677735E-05,1.54023182403762E-05,1.23046875,0,0
-2.04629359359387E-05,1.14678723548423E-05,1.23046875,0,0
-2.73243422270752E-05,1.26930108308443E-05,1.23046875,0,0
-2.78711340797599E-05,1.1287036613794E-05,1.23046875,0,0
-3.03200267808279E-05,1.09386628537322E-05,1.23046875,0,0
-2.97517108265311E-05,1.24680882436223E-05,1.23046875,0,0
-3.02856569760479E-05,1.58543334691785E-05,1.23046875,0,0
-3.13222044496797E-05,1.69082941283705E-05,1.23046875,0,0
-3.15789802698419E-05,1.37971846925211E-05,1.23046875,0,0
-3.29735048580915E-05,1.04045657280949E-05,1.23046875,0,0
-3.14967364829499E-05,8.33528883958934E-06,1.23046875,0,0
-3.1348336051451E-05,8.86677116795909E-06,1.23046875,0,0
-2.90065181616228E-05,8.78333139553433E-06,1.23046875,0,0
-2.984360071423E-05,1.03905049400055E-05,1.23046875,0,0
-2.81017237284686E-05,1.1272483789071E-05,1.23046875,0,0
-2.84015368379187E-05,1.21473212857381E-05,1.23046875,0,0
-2.82697092188755E-05,1.13923688331852E-05,1.23046875,0,0
-3.10928298858926E-05,1.02937583505991E-05,1.23046875,0,0
-3.064359043492E-05,7.4375875556143E-06,1.23046875,0,0
-2.87445091089467E-05,5.34145419806009E-06,1.23046875,0,0
-2.56353596341796E-05,4.44709394287202E-06,1.23046875,0,0
-2.53907619480742E-05,6.03618764216662E-06,1.23046875,0,0
-2.56594430538826E-05,9.09945265448187E-06,1.23046875,0,0
-2.56525654549478E-05,1.27433440866298E-05,1.23046875,0,0
-2.19369012484094E-05,1.07504429252003E-05,1.23046875,0,0
-3.27156740240753E-05,1.41102846100694E-05,1.23046875,0,0
-2.56753864960046E-05,9.04123498912668E-06,1.23046875,0,0
-2.95550908049336E-05,1.14772055894719E-05,1.23046875,0,0
-2.44288021349348E-05,8.95359607966384E-06,1.23046875,0,0
-2.71328153758077E-05,9.93130834103795E-06,1.23046875,0,0
-2.5783167075133E-05,7.28909617464524E-06,1.23046875,0,0
-2.75584043265553E-05,6.70925419399282E-06,1.23046875,0,0
-2.44959446717985E-05,7.74806630943203E-06,1.23046875,0,0
-2.09418958547758E-05,1.15609809654416E-05,1.23046875,0,0
-1.96344990399666E-05,1.34109268401517E-05,1.23046875,0,0
-1.97855188162066E-05,1.23869767776341E-05,1.23046875,0,0
-2.35821134992875E-05,1.21772627608152E-05,1.23046875,0,0
-2.60300184891094E-05,1.19039832497947E-05,1.23046875,0,0
-2.93427419819636E-05,1.27643688756507E-05,1.23046875,0,0
-2.80964704870712E-05,1.14635167847155E-05,1.23046875,0,0
-2.78465176961618E-05,1.09232396425796E-05,1.23046875,0,0
-2.60719334619353E-05,9.63067850534571E-06,1.23046875,0,0
-2.76919436146272E-05,1.02896556199994E-05,1.23046875,0,0
-2.74869689746993E-05,9.86409122560872E-06,1.23046875,0,0
-2.81379543594085E-05,9.48273464018712E-06,1.23046875,0,0
-2.82666023849742E-05,8.97115751286037E-06,1.23046875,0,0
-2.93502998829354E-05,1.06658681033878E-05,1.23046875,0,0
-2.76038754236652E-05,1.10834471342969E-05,1.23046875,0,0
-2.65728685917566E-05,1.06893639895134E-05,1.23046875,0,0
-2.61985223914962E-05,1.17286463137134E-05,1.23046875,0,0
-2.59781554632355E-05,1.39785315695917E-05,1.23046875,0,0
-2.11128462979104E-05,1.17171639431035E-05,1.23046875,0,0
-2.86689009953989E-05,1.65023648150964E-05,1.23046875,0,0
-1.89388574654004E-05,1.288103612751E-05,1.23046875,0,0
-2.36849446082488E-05,1.5831807104405E-05,1.23046875,0,0
-1.95929478650214E-05,1.29142772493651E-05,1.23046875,0,0
-2.27528198593063E-05,1.49195484482334E-05,1.23046875,0,0
-2.13237181014847E-05,1.29446016217116E-05,1.23046875,0,0
-2.2878830350237E-05,1.1464368981251E-05,1.23046875,0,0
-2.25369076360948E-05,9.87121711659711E-06,1.23046875,0,0
-2.32138481806032E-05,1.02692292784923E-05,1.23046875,0,0
-2.38642805925338E-05,9.51166930462932E-06,1.23046875,0,0
-2.29217112064362E-05,5.67452661925927E-06,1.23046875,0,0
-2.41913276113337E-05,2.88010846816178E-06,1.23046875,0,0
-2.41436791839078E-05,2.62012122220767E-06,1.23046875,0,0
-2.63319307123311E-05,6.53438837616704E-06,1.23046875,0,0
-2.62099038081942E-05,8.98492817213992E-06,1.23046875,0,0
-2.73618952633115E-05,1.16727342174272E-05,1.23046875,0,0
-2.57632545981323E-05,1.14312642836012E-05,1.23046875,0,0
-2.67529576376546E-05,1.10264563772944E-05,1.23046875,0,0
-2.68682688329136E-05,9.75539751379984E-06,1.23046875,0,0
-2.88641094812192E-05,1.01390369309229E-05,1.23046875,0,0
-2.88630562863545E-05,1.03089578260551E-05,1.23046875,0,0
-2.8502254281193E-05,1.02486210380448E-05,1.23046875,0,0
-2.66742135863751E-05,6.95234894010355E-06,1.23046875,0,0
-2.62508328887634E-05,4.10257507610368E-06,1.23046875,0,0
-2.69026550085982E-05,4.43996577814687E-06,1.23046875,0,0
-2.85616952169221E-05,6.51500340609346E-06,1.23046875,0,0
-2.41074030782329E-05,6.14858208791702E-06,1.23046875,0,0
-3.42422536050435E-05,8.42311055748723E-06,1.23046875,0,0
-2.63689016719582E-05,7.03623345543747E-06,1.23046875,0,0
-3.43188912665937E-05,1.01656705737696E-05,1.23046875,0,0
-3.05329776892904E-05,9.85279166343389E-06,1.23046875,0,0
-3.3257845643675E-05,1.09760139821447E-05,1.23046875,0,0
-3.0483284717775E-05,1.09518423414556E-05,1.23046875,0,0
-3.1616204068996E-05,1.30146036099177E-05,1.23046875,0,0
-3.00850533676567E-05,1.42875514939078E-05,1.23046875,0,0
-3.00440660794266E-05,1.5842548236833E-05,1.23046875,0,0
-3.08816779579502E-05,1.74566830537515E-05,1.23046875,0,0
-2.91169235424604E-05,1.64216307894094E-05,1.23046875,0,0
-2.81448919849936E-05,1.39011699502589E-05,1.23046875,0,0
-2.62930425378727E-05,1.21766242955346E-05,1.23046875,0,0
-2.80219683190808E-05,1.36093676701421E-05,1.23046875,0,0
-2.71074823103845E-05,1.38941541081294E-05,1.23046875,0,0
-2.87606635538395E-05,1.35714226416894E-05,1.23046875,0,0
-2.79805444733938E-05,1.10515029518865E-05,1.23046875,0,0
-2.86722697637742E-05,6.96737470207154E-06,1.23046875,0,0
-2.70115433522733E-05,2.60650631389581E-06,1.23046875,0,0
-2.79575851891423E-05,1.55694954173669E-06,1.23046875,0,0
-2.70632281171856E-05,2.46293211603188E-06,1.23046875,0,0
-2.70849959633779E-05,4.31260968980496E-06,1.23046875,0,0
-2.60358538071159E-05,5.09955589222955E-06,1.23046875,0,0
-2.64553382294253E-05,5.0658791224123E-06,1.23046875,0,0
-2.81083939626114E-05,4.42069676864776E-06,1.23046875,0,0
-2.95656027446967E-05,2.51721485255985E-06,1.23046875,0,0
-2.43763352045789E-05,1.25315193599818E-06,1.23046875,0,0
-3.55543888872489E-05,4.34540288551943E-06,1.23046875,0,0
-2.88802493741969E-05,7.44691487852833E-06,1.23046875,0,0
-3.48744142684154E-05,8.02134491095785E-06,1.23046875,0,0
-2.81843222182943E-05,6.15658655078732E-06,1.23046875,0,0
-3.09729803120717E-05,4.71527300760499E-06,1.23046875,0,0
-2.77671861113049E-05,4.14441819884814E-06,1.23046875,0,0
-2.86291415250162E-05,3.3755795811885E-06,1.23046875,0,0
-2.71080334641738E-05,4.36346726928605E-06,1.23046875,0,0
-2.53222697210731E-05,7.02001807439956E-06,1.23046875,0,0
-2.43665126617998E-05,9.38995253818575E-06,1.23046875,0,0
-2.27113505388843E-05,1.12191919470206E-05,1.23046875,0,0
-2.26129304792266E-05,1.31047254399164E-05,1.23046875,0,0
-2.05480519070989E-05,1.42323715408565E-05,1.23046875,0,0
-2.17728320421884E-05,1.45014728332171E-05,1.23046875,0,0
-2.09529262065189E-05,1.48439658005373E-05,1.23046875,0,0
-2.2711015844834E-05,1.51368258229923E-05,1.23046875,0,0
-2.1425124941743E-05,1.50807745740167E-05,1.23046875,0,0
-2.30003097385634E-05,1.5991850887076E-05,1.23046875,0,0
-2.32490383496042E-05,1.81663745024707E-05,1.23046875,0,0
-2.40766912611434E-05,1.86359429790173E-05,1.23046875,0,0
-2.24426512431819E-05,1.74414344655816E-05,1.23046875,0,0
-2.31897574849427E-05,1.85328626685077E-05,1.23046875,0,0
-2.30153382290155E-05,2.21912669076119E-05,1.23046875,0,0
-2.30820769502316E-05,2.38014345086413E-05,1.23046875,0,0
-2.29721754294587E-05,2.15435757127125E-05,1.23046875,0,0
-2.29614197451156E-05,1.90469127119286E-05,1.23046875,0,0
-1.94980093510821E-05,1.48019080370432E-05,1.23046875,0,0
-2.89584622805705E-05,2.1263223970891E-05,1.23046875,0,0
-2.41673733398784E-05,1.52167413034476E-05,1.23046875,0,0
-2.9784516300424E-05,1.85668486665236E-05,1.23046875,0,0
-2.48103660851484E-05,1.50641999425716E-05,1.23046875,0,0
-2.50157372647664E-05,1.59132978296839E-05,1.23046875,0,0
-2.2551945221494E-05,1.40833835757803E-05,1.23046875,0,0
-2.38985285250237E-05,1.65458841365762E-05,1.23046875,0,0
-2.27251384785632E-05,1.91565068234922E-05,1.23046875,0,0
-2.24310624616919E-05,2.12038703466533E-05,1.23046875,0,0
-2.23599618038861E-05,2.15698764804984E-05,1.23046875,0,0
-2.18016430153511E-05,2.02117589651607E-05,1.23046875,0,0
-2.23870410991367E-05,2.00687209144235E-05,1.23046875,0,0
-2.10584439628292E-05,1.84764830919448E-05,1.23046875,0,0
-2.24352079385426E-05,1.86122815648559E-05,1.23046875,0,0
-2.20298788917717E-05,1.84714881470427E-05,1.23046875,0,0
-2.39320015680278E-05,1.91052349691745E-05,1.23046875,0,0
-2.4064969693427E-05,1.64609427883988E-05,1.23046875,0,0
-2.61886998487171E-05,1.46609581861412E-05,1.23046875,0,0
-2.73975419986527E-05,1.32794993987773E-05,1.23046875,0,0
-2.99104412988527E-05,1.48043627632433E-05,1.23046875,0,0
-2.90661319013452E-05,1.53344099089736E-05,1.23046875,0,0
-2.80232052318752E-05,1.52001321112039E-05,1.23046875,0,0
-2.66911811195314E-05,1.32428494907799E-05,1.23046875,0,0
-2.63962265307782E-05,1.11563867903897E-05,1.23046875,0,0
-2.54284113907488E-05,7.85406791692367E-06,1.23046875,0,0
-2.33027785725426E-05,2.22897460844251E-06,1.23046875,0,0
-1.70361145137576E-05,-4.32225533586461E-06,1.23046875,0,0
-2.44359052885557E-05,-8.19551041786326E-06,1.23046875,0,0
-1.88329358934425E-05,-7.42980273571447E-06,1.23046875,0,0
-2.31125395657727E-05,-5.89017599850195E-06,1.23046875,0,0
-2.05174092116067E-05,4.56953124228221E-08,1.23046875,0,0
-2.37986951105995E-05,5.11745747644454E-06,1.23046875,0,0
-2.18999866774539E-05,7.17650527803926E-06,1.23046875,0,0
-2.19622979784617E-05,5.91377374803415E-06,1.23046875,0,0
-1.9405821149121E-05,4.6427649067482E-06,1.23046875,0,0
-1.72507516253972E-05,6.14016562394681E-06,1.23046875,0,0
-1.558074291097E-05,8.64554021973163E-06,1.23046875,0,0
-1.37903389259009E-05,8.6242353063426E-06,1.23046875,0,0
-1.38355808303459E-05,5.35670505996677E-06,1.23046875,0,0
-1.27461244119331E-05,2.07788389161578E-06,1.23046875,0,0
-1.38912291731685E-05,1.37390725285513E-06,1.23046875,0,0
-1.33163230202626E-05,3.22610389957845E-06,1.23046875,0,0
-1.35271830004058E-05,5.30241186424973E-06,1.23046875,0,0
-1.13944252007059E-05,6.53020879326505E-06,1.23046875,0,0
-1.16956143756397E-05,4.67583322460996E-06,1.23046875,0,0
-1.04904102045111E-05,1.56963972131052E-06,1.23046875,0,0
-1.0122986168426E-05,7.58757096264162E-07,1.23046875,0,0
-9.1864212663495E-06,3.50410869032203E-06,1.23046875,0,0
-1.01990863186074E-05,5.44500971955131E-06,1.23046875,0,0
-9.39700930757681E-06,5.52467827219516E-06,1.23046875,0,0
-7.89067416917533E-06,7.2442694545316E-06,1.23046875,0,0
-7.5598077273753E-06,1.10782511910656E-05,1.23046875,0,0
-9.00232225831132E-06,1.37702272695606E-05,1.23046875,0,0
-8.87949408934219E-06,1.15358916445985E-05,1.23046875,0,0
-1.29421123347129E-05,1.60911367856897E-05,1.23046875,0,0
-1.03169804788195E-05,1.28135952763841E-05,1.23046875,0,0
-1.32693758132518E-05,1.71174433489796E-05,1.23046875,0,0
-1.37384367917548E-05,1.38719915412366E-05,1.23046875,0,0
-1.6543399397051E-05,1.52663415065035E-05,1.23046875,0,0
-1.59392675413983E-05,1.55585094034905E-05,1.23046875,0,0
-1.64684042829322E-05,1.77833153429674E-05,1.23046875,0,0
-1.67974576470442E-05,1.62185369845247E-05,1.23046875,0,0
-1.69347276823828E-05,1.38599734782474E-05,1.23046875,0,0
-1.64982047863305E-05,1.27151033666451E-05,1.23046875,0,0
-1.56610731210094E-05,1.21016582852462E-05,1.23046875,0,0
-1.46872871482628E-05,1.27073326439131E-05,1.23046875,0,0
-1.32448840304278E-05,1.1040238860005E-05,1.23046875,0,0
-1.46111588037456E-05,9.73976966633927E-06,1.23046875,0,0
-1.73224598256638E-05,8.23354912427021E-06,1.23046875,0,0
-2.10054422495887E-05,8.98870348464698E-06,1.23046875,0,0
-2.17615943256533E-05,8.78415812621824E-06,1.23046875,0,0
-2.28341887122951E-05,9.99264284473611E-06,1.23046875,0,0
-2.4707340344321E-05,1.00538154583774E-05,1.23046875,0,0
-2.74685062322533E-05,1.1160713256686E-05,1.23046875,0,0
-2.77218496194109E-05,1.21989342005691E-05,1.23046875,0,0
-2.82662695099134E-05,1.30355319925002E-05,1.23046875,0,0
-2.85333771898877E-05,1.13766427602968E-05,1.23046875,0,0
-2.79199266515207E-05,1.05562339740572E-05,1.23046875,0,0
-2.82508426607819E-05,9.99136227619601E-06,1.23046875,0,0
-2.99295916192932E-05,9.80682489171159E-06,1.23046875,0,0
-2.63873880612664E-05,9.27403380046599E-06,1.23046875,0,0
-4.03273770643864E-05,1.26147506307461E-05,1.23046875,0,0
-3.44971304002684E-05,7.51396328269038E-06,1.23046875,0,0
-4.20963115175255E-05,8.12991311249789E-06,1.23046875,0,0
-3.60546218871605E-05,6.45694217382697E-06,1.23046875,0,0
-3.7601657822961E-05,8.31480701890541E-06,1.23046875,0,0
-3.3147654903587E-05,7.96611038822448E-06,1.23046875,0,0
-3.28573041770142E-05,1.0013442079071E-05,1.23046875,0,0
-3.09856186504476E-05,1.1755811101466E-05,1.23046875,0,0
-3.08228773064911E-05,1.33064122564974E-05,1.23046875,0,0
-2.99487510346808E-05,1.42506032716483E-05,1.23046875,0,0
-2.65931430476485E-05,1.3914954251959E-05,1.23046875,0,0
-2.50674165727105E-05,1.36983107950073E-05,1.23046875,0,0
-2.30741115956334E-05,1.16877199616283E-05,1.23046875,0,0
-2.48695396294352E-05,9.14504380489234E-06,1.23046875,0,0
-2.30268105951836E-05,5.557169970416E-06,1.23046875,0,0
-2.23503793677082E-05,6.20033461018465E-06,1.23046875,0,0
-1.98077177628875E-05,8.56220503919758E-06,1.23046875,0,0
-2.17400774999987E-05,1.02490603239858E-05,1.23046875,0,0
-2.13178864214569E-05,7.94372317614034E-06,1.23046875,0,0
-2.15246163861593E-05,5.65377968086977E-06,1.23046875,0,0
-1.95242228073766E-05,4.69994392915396E-06,1.23046875,0,0
-1.92825755220838E-05,5.9139028962818E-06,1.23046875,0,0
-1.8798631572281E-05,7.75643638917245E-06,1.23046875,0,0
-1.95642387552653E-05,9.1172178144916E-06,1.23046875,0,0
-1.95665870705852E-05,7.73434476286639E-06,1.23046875,0,0
-1.91960116353584E-05,6.49000185148907E-06,1.23046875,0,0
-1.52860338857863E-05,7.23665243640426E-06,1.23046875,0,0
-2.24255381908733E-05,1.26015502246446E-05,1.23046875,0,0
-1.88389440154424E-05,1.15277598524699E-05,1.23046875,0,0
-2.43381746258819E-05,1.20530494314153E-05,1.23046875,0,0
-2.19529265450547E-05,8.06952175480546E-06,1.23046875,0,0
-2.3318809326156E-05,5.4632928367937E-06,1.23046875,0,0
-2.14380997931585E-05,4.98851477459539E-06,1.23046875,0,0
-2.2522637664224E-05,6.21741946815746E-06,1.23046875,0,0
-2.1843021386303E-05,5.38114818482427E-06,1.23046875,0,0
-2.15497075259918E-05,4.50498419013456E-06,1.23046875,0,0
-2.26490901695797E-05,5.2547361519828E-06,1.23046875,0,0
-2.34589824685827E-05,6.49046023681876E-06,1.23046875,0,0
-2.49192089540884E-05,8.15469138615299E-06,1.23046875,0,0
-2.36720752582187E-05,7.98840210336493E-06,1.23046875,0,0
-2.30956520681502E-05,7.18317915016087E-06,1.23046875,0,0
-2.17513315874385E-05,5.00248052048846E-06,1.23046875,0,0
-2.28241206059465E-05,2.57409010373522E-06,1.23046875,0,0
-2.25402345677139E-05,1.06056643289776E-06,1.23046875,0,0
-2.30627811106388E-05,3.24140250995697E-06,1.23046875,0,0
-2.22016296902439E-05,6.66514051772538E-06,1.23046875,0,0
-2.34588642342715E-05,9.54686402110383E-06,1.23046875,0,0
-2.43652539211325E-05,1.07799187389901E-05,1.23046875,0,0
-2.60423257714137E-05,1.08324256871128E-05,1.23046875,0,0
-2.59135249507381E-05,9.82984875008697E-06,1.23046875,0,0
-2.52544996328652E-05,9.87004204944242E-06,1.23046875,0,0
-2.49979057116434E-05,1.05610688478919E-05,1.23046875,0,0
-2.513612707844E-05,1.05747103589238E-05,1.23046875,0,0
-2.10989674087614E-05,8.16092142486013E-06,1.23046875,0,0
-3.13135860778857E-05,1.04352111520711E-05,1.23046875,0,0
-2.51456494879676E-05,7.63017669669352E-06,1.23046875,0,0
-3.05225075862836E-05,1.27363064166275E-05,1.23046875,0,0
-2.6116011213162E-05,1.32741224661004E-05,1.23046875,0,0
-2.93195116682909E-05,1.54478129843483E-05,1.23046875,0,0
-2.8191794626764E-05,1.53206474351464E-05,1.23046875,0,0
-2.87320344796171E-05,1.67859452631092E-05,1.23046875,0,0
-2.59090429608477E-05,1.59540140884928E-05,1.23046875,0,0
-2.45121718762675E-05,1.47715709317708E-05,1.23046875,0,0
-2.61560799117433E-05,1.46808342833538E-05,1.23046875,0,0
-2.86612175841583E-05,1.31735387185472E-05,1.23046875,0,0
-3.14838252961636E-05,1.19277547128149E-05,1.23046875,0,0
-2.97362967103254E-05,1.20559489005245E-05,1.23046875,0,0
-2.87528237095103E-05,1.59061164595187E-05,1.23046875,0,0
-2.74247358902358E-05,1.84563195944065E-05,1.23046875,0,0
-2.98349459626479E-05,1.90569899132242E-05,1.23046875,0,0
-2.93519697152078E-05,1.74831675394671E-05,1.23046875,0,0
-2.90866810246371E-05,1.74628694367129E-05,1.23046875,0,0
-2.57796746154781E-05,1.68135084095411E-05,1.23046875,0,0
-2.4715467588976E-05,1.64713655976811E-05,1.23046875,0,0
-2.40300269069849E-05,1.73563803400612E-05,1.23046875,0,0
-2.4501139705535E-05,1.92042371054413E-05,1.23046875,0,0
-2.35025090660201E-05,1.73722073668614E-05,1.23046875,0,0
-2.21460322791245E-05,1.38634377435665E-05,1.23046875,0,0
-2.03676518140128E-05,1.27535504361731E-05,1.23046875,0,0
-2.05162177735474E-05,1.46725033118855E-05,1.23046875,0,0
-1.58049824676709E-05,1.2245505786268E-05,1.23046875,0,0
-2.17800679820357E-05,1.59780192916514E-05,1.23046875,0,0
-1.75548884726595E-05,1.21784987641149E-05,1.23046875,0,0
-2.50439279625425E-05,1.83352312888019E-05,1.23046875,0,0
-2.29552588280058E-05,1.60104245878756E-05,1.23046875,0,0
-2.27928103413433E-05,1.64258999575395E-05,1.23046875,0,0
-1.76209177880082E-05,1.48243461808306E-05,1.23046875,0,0
-1.75957302417373E-05,1.47844029925182E-05,1.23046875,0,0
-1.77827223524218E-05,1.20445465654484E-05,1.23046875,0,0
-1.82503681571689E-05,1.1406821613491E-05,1.23046875,0,0
-1.780044658517E-05,1.17253894131863E-05,1.23046875,0,0
-1.65358014783124E-05,1.20047870950657E-05,1.23046875,0,0
-1.69580034707906E-05,1.32237091747811E-05,1.23046875,0,0
-1.48484687088057E-05,1.1883921615663E-05,1.23046875,0,0
-1.42857552418718E-05,1.03643833426759E-05,1.23046875,0,0
-1.33673147502122E-05,7.09904225004721E-06,1.23046875,0,0
-1.49714724102523E-05,6.01197598371073E-06,1.23046875,0,0
-1.48194649227662E-05,4.633200205717E-06,1.23046875,0,0
-1.67006965057226E-05,6.60167597743566E-06,1.23046875,0,0
-1.86709330591839E-05,8.23703794594621E-06,1.23046875,0,0
-2.25561161641963E-05,8.7206763055292E-06,1.23046875,0,0
-2.38404700212413E-05,5.49726473764167E-06,1.23046875,0,0
-2.43525264522759E-05,3.86685496778227E-06,1.23046875,0,0
-2.48162068601232E-05,4.32203069067327E-06,1.23046875,0,0
-2.79223604593426E-05,6.34904245089274E-06,1.23046875,0,0
-2.98703234875575E-05,8.15261228126474E-06,1.23046875,0,0
-2.99956882372499E-05,8.70401436259272E-06,1.23046875,0,0
-2.40858662436949E-05,6.70230701871333E-06,1.23046875,0,0
-3.42649764206726E-05,9.18740897759562E-06,1.23046875,0,0
-2.67253126366995E-05,6.11769701208686E-06,1.23046875,0,0
-3.38144236593507E-05,7.29043949831976E-06,1.23046875,0,0
-2.98691993521061E-05,6.26536984782433E-06,1.23046875,0,0
-3.40290062013082E-05,7.93956132838503E-06,1.23046875,0,0
-3.141470006085E-05,9.00137274584267E-06,1.23046875,0,0
-3.34076976287179E-05,1.10312739707297E-05,1.23046875,0,0
-3.21723782690242E-05,1.20740323836799E-05,1.23046875,0,0
-3.08730050164741E-05,1.2683685781667E-05,1.23046875,0,0
-3.02834741887636E-05,1.20490758490632E-05,1.23046875,0,0
-2.91390824713744E-05,9.7991869552061E-06,1.23046875,0,0
-2.91185842797859E-05,7.33397700969363E-06,1.23046875,0,0
-2.6699193767854E-05,5.51792072656099E-06,1.23046875,0,0
-2.68443218374159E-05,7.68587051425129E-06,1.23046875,0,0
-2.54650622082409E-05,1.10762675831211E-05,1.23046875,0,0
-2.69952452072175E-05,1.43253710120916E-05,1.23046875,0,0
-2.51211622526171E-05,1.58949951583054E-05,1.23046875,0,0
-2.6565099688014E-05,1.76694284164114E-05,1.23046875,0,0
-2.67009654635331E-05,1.73373337020166E-05,1.23046875,0,0
-2.8214246412972E-05,1.68496117112227E-05,1.23046875,0,0
-2.64324189629406E-05,1.69991835718974E-05,1.23046875,0,0
-2.53071084443945E-05,1.71600331668742E-05,1.23046875,0,0
-2.4323850084329E-05,1.53874352690764E-05,1.23046875,0,0
-2.60339984379243E-05,1.17751797006349E-05,1.23046875,0,0
-2.71627632173477E-05,8.59631654748227E-06,1.23046875,0,0
-2.76128594123293E-05,7.76692104409449E-06,1.23046875,0,0
-2.30250934691867E-05,4.76931427328964E-06,1.23046875,0,0
-3.24231768900063E-05,5.1921520025644E-06,1.23046875,0,0
-2.46894578594947E-05,2.87334660242777E-06,1.23046875,0,0
-3.15023062285036E-05,5.96333802604931E-06,1.23046875,0,0
-2.8055343136657E-05,7.08305879015825E-06,1.23046875,0,0
-3.20826038660016E-05,1.05080644061673E-05,1.23046875,0,0
-2.91366213787114E-05,1.17520376079483E-05,1.23046875,0,0
-2.96546058962122E-05,1.30772705233539E-05,1.23046875,0,0
-2.89771232928615E-05,1.31524457174237E-05,1.23046875,0,0
-2.931268318207E-05,1.12157986222883E-05,1.23046875,0,0
-2.92163495032582E-05,8.07177912065526E-06,1.23046875,0,0
-2.84075867966749E-05,5.46324145034305E-06,1.23046875,0,0
-3.09070019284263E-05,4.94658161187544E-06,1.23046875,0,0
-3.17387130053248E-05,6.06123921897961E-06,1.23046875,0,0
-3.36702505592257E-05,8.1990192484227E-06,1.23046875,0,0
-3.19859100272879E-05,8.79536673892289E-06,1.23046875,0,0
-3.26768640661612E-05,9.71693225437775E-06,1.23046875,0,0
-3.09636452584527E-05,1.04561204352649E-05,1.23046875,0,0
-3.2728898077039E-05,1.10842529466026E-05,1.23046875,0,0
-3.38301288138609E-05,1.06371144283912E-05,1.23046875,0,0
-3.68338987755124E-05,1.06138195405947E-05,1.23046875,0,0
-3.68395667464938E-05,1.02361373137683E-05,1.23046875,0,0
-3.64693623851053E-05,9.80174263531808E-06,1.23046875,0,0
-3.44532891176641E-05,9.75135026237695E-06,1.23046875,0,0
-3.24124121107161E-05,1.24608732221532E-05,1.23046875,0,0
-2.9530152460211E-05,1.42993585541262E-05,1.23046875,0,0
-2.77079943771241E-05,1.48230255945236E-05,1.23046875,0,0
-2.27507171075558E-05,1.07362093331176E-05,1.23046875,0,0
-3.16438308800571E-05,1.47837345139123E-05,1.23046875,0,0
-2.2807242203271E-05,1.13705300464062E-05,1.23046875,0,0
-2.73569166893139E-05,1.49259130921564E-05,1.23046875,0,0
-2.08561632462079E-05,1.18630950964871E-05,1.23046875,0,0
-2.24934337893501E-05,1.34531765070278E-05,1.23046875,0,0
-1.84054370038211E-05,1.47692990140058E-05,1.23046875,0,0
-1.84216714842478E-05,1.76258199644508E-05,1.23046875,0,0
-1.74702927324688E-05,1.70515650097514E-05,1.23046875,0,0
-1.69748855114449E-05,1.75023724295897E-05,1.23046875,0,0
-1.60190866154153E-05,1.81057021109154E-05,1.23046875,0,0
-1.42375502036884E-05,1.76585781446192E-05,1.23046875,0,0
-1.53623659571167E-05,1.79859143827343E-05,1.23046875,0,0
-1.53053279063897E-05,1.76762168848654E-05,1.23046875,0,0
-1.7399692296749E-05,1.83098254638026E-05,1.23046875,0,0
-1.54407589434413E-05,1.60367872013012E-05,1.23046875,0,0
-1.48263270602911E-05,1.4365034076036E-05,1.23046875,0,0
-1.29068175738212E-05,1.21506936920923E-05,1.23046875,0,0
-1.55662437464343E-05,1.19763490147307E-05,1.23046875,0,0
-1.61694806593005E-05,1.20737931865733E-05,1.23046875,0,0
-1.66338904818986E-05,1.38104305733577E-05,1.23046875,0,0
-1.58225047925953E-05,1.33032062876737E-05,1.23046875,0,0
-1.79359958565328E-05,1.24876478366787E-05,1.23046875,0,0
-1.83790543815121E-05,1.24903708638158E-05,1.23046875,0,0
-1.73572243511444E-05,1.31748665808118E-05,1.23046875,0,0
-1.57446429511765E-05,1.20486865853309E-05,1.23046875,0,0
-1.57503673108295E-05,1.08939830170129E-05,1.23046875,0,0
-1.37827910293709E-05,7.49212404116406E-06,1.23046875,0,0
-1.92495172086637E-05,7.87780663813464E-06,1.23046875,0,0
-1.40407892104122E-05,2.08278515856364E-06,1.23046875,0,0
-1.73349435499404E-05,5.38745825906517E-06,1.23046875,0,0
-1.47572036439669E-05,6.56693055134383E-06,1.23046875,0,0
-1.7874297554954E-05,9.80364711722359E-06,1.23046875,0,0
-1.76682169694686E-05,1.13896294351434E-05,1.23046875,0,0
-1.79129438038217E-05,1.46043694257969E-05,1.23046875,0,0
-1.62170817930019E-05,1.57536542246817E-05,1.23046875,0,0
-1.475351928093E-05,1.40524025482591E-05,1.23046875,0,0
-1.40996135087335E-05,1.15632628876483E-05,1.23046875,0,0
-1.42107382998802E-05,1.19819078463479E-05,1.23046875,0,0
-1.66275403898908E-05,1.54942372319056E-05,1.23046875,0,0
-1.72705131262774E-05,1.62568485393422E-05,1.23046875,0,0
-1.85626031452557E-05,1.48102171806386E-05,1.23046875,0,0
-1.85972585313721E-05,1.18908583317534E-05,1.23046875,0,0
-2.1032723452663E-05,1.0788180588861E-05,1.23046875,0,0
-2.19390240090434E-05,1.09279799289652E-05,1.23046875,0,0
-2.37912481679814E-05,1.38006917040912E-05,1.23046875,0,0
-2.56159928540001E-05,1.63121203513583E-05,1.23046875,0,0
-2.95201898552477E-05,1.87747173185926E-05,1.23046875,0,0
-3.15946781483945E-05,1.90832397493068E-05,1.23046875,0,0
-3.31306946463883E-05,1.84812834049808E-05,1.23046875,0,0
-3.4397526178509E-05,1.73358803294832E-05,1.23046875,0,0
-3.56265663867816E-05,1.54650642798515E-05,1.23046875,0,0
-3.5258515708847E-05,1.39048070195713E-05,1.23046875,0,0
-3.49099245795514E-05,1.40816382554476E-05,1.23046875,0,0
-2.97835940727964E-05,1.28017054521479E-05,1.23046875,0,0
-4.37268281530123E-05,2.04214720724849E-05,1.23046875,0,0
-3.43047067872249E-05,1.82525946001988E-05,1.23046875,0,0
-4.0583803638583E-05,2.04024836421013E-05,1.23046875,0,0
-3.33793286699802E-05,1.67546040756861E-05,1.23046875,0,0
-3.70128691429272E-05,1.93733976630028E-05,1.23046875,0,0
-3.29017602780368E-05,1.95207230717642E-05,1.23046875,0,0
-3.44830623362213E-05,1.90516693692189E-05,1.23046875,0,0
-3.3882366551552E-05,1.47565124279936E-05,1.23046875,0,0
-3.34135402226821E-05,1.18478819786105E-05,1.23046875,0,0
-3.20883082167711E-05,1.15986640594201E-05,1.23046875,0,0
-2.96636462735478E-05,1.08539825305343E-05,1.23046875,0,0
-3.07725349557586E-05,1.04728942460497E-05,1.23046875,0,0
-2.96402358799241E-05,9.49533296079608E-06,1.23046875,0,0
-3.03005199384643E-05,1.06863635664922E-05,1.23046875,0,0
-2.73542555078166E-05,1.15161155918031E-05,1.23046875,0,0
-2.89154304482508E-05,1.39038902489119E-05,1.23046875,0,0
-2.86492704617558E-05,1.34761085064383E-05,1.23046875,0,0
-3.11497969960328E-05,1.21126658996218E-05,1.23046875,0,0
-3.02076714433497E-05,1.00012885013712E-05,1.23046875,0,0
-3.17562080454081E-05,1.0251224921376E-05,1.23046875,0,0
-3.38071440637577E-05,1.0260837370879E-05,1.23046875,0,0
-3.85813546017744E-05,1.18193092930596E-05,1.23046875,0,0
-3.94398302887566E-05,1.18483985716011E-05,1.23046875,0,0
-3.89797314710449E-05,1.06662628240883E-05,1.23046875,0,0
-3.79625598725397E-05,1.04381169876433E-05,1.23046875,0,0
-3.69555673387367E-05,9.47028729569865E-06,1.23046875,0,0
-2.87476959783817E-05,5.32407784703537E-06,1.23046875,0,0
-4.0811464714352E-05,6.35055039310828E-06,1.23046875,0,0
-3.1645849958295E-05,3.79275252271327E-06,1.23046875,0,0
-3.8500100345118E-05,5.78853996557882E-06,1.23046875,0,0
-3.05580979329534E-05,4.71912335342495E-06,1.23046875,0,0
-3.30264228978194E-05,4.42926875621197E-06,1.23046875,0,0
-2.80868043773808E-05,2.3114039322536E-06,1.23046875,0,0
-2.65549097093754E-05,4.03272406401811E-06,1.23046875,0,0
-2.16186308534816E-05,8.34316324471729E-06,1.23046875,0,0
-2.01449747692095E-05,1.06861643871525E-05,1.23046875,0,0
-2.10653324757004E-05,8.22319998405874E-06,1.23046875,0,0
-1.94342101167422E-05,4.11158771385089E-06,1.23046875,0,0
-1.85812550625997E-05,3.00427086585842E-06,1.23046875,0,0
-1.57136582856765E-05,5.07782897329889E-06,1.23046875,0,0
-1.68866736203199E-05,9.50924277276499E-06,1.23046875,0,0
-1.4865756384097E-05,1.26188888316392E-05,1.23046875,0,0
-1.58283601194853E-05,1.40968795676599E-05,1.23046875,0,0
-1.32982704599272E-05,1.37232864290127E-05,1.23046875,0,0
-1.37460292535252E-05,1.34181655084831E-05,1.23046875,0,0
-1.22168821690138E-05,1.09446882561315E-05,1.23046875,0,0
-1.40074362207088E-05,7.74932777858339E-06,1.23046875,0,0
-1.45463100125198E-05,5.35891740582883E-06,1.23046875,0,0
-1.56826281454414E-05,4.93555080538499E-06,1.23046875,0,0
-1.46382471939432E-05,4.62659727418213E-06,1.23046875,0,0
-1.37918741529575E-05,5.71090913581429E-06,1.23046875,0,0
-1.14135473268107E-05,6.96017877999111E-06,1.23046875,0,0
-8.22065339889377E-06,5.17734997629304E-06,1.23046875,0,0
-5.79774996367632E-06,1.7882321117213E-06,1.23046875,0,0
-1.02847716334509E-05,1.31353465349093E-06,1.23046875,0,0
-1.14131116788485E-05,1.10388441498799E-06,1.23046875,0,0
-1.28934307213058E-05,3.43374745170877E-06,1.23046875,0,0
-1.10999926619115E-05,2.80415929410083E-06,1.23046875,0,0
-9.90346870821668E-06,3.05146431855974E-06,1.23046875,0,0
-7.39999586585327E-06,2.14339843296329E-06,1.23046875,0,0
-7.52250161895063E-06,-4.50969650955813E-07,1.23046875,0,0
-7.76293654780602E-06,-2.45187402470037E-06,1.23046875,0,0
-7.36279753255076E-06,-2.67697328126815E-06,1.23046875,0,0
-6.54009772915742E-06,-4.02415162170655E-06,1.23046875,0,0
-5.2239051910874E-06,-5.75155263504712E-06,1.23046875,0,0
-6.02627051193849E-06,-3.08273297378037E-06,1.23046875,0,0
-8.28418524179142E-06,1.56702492404293E-06,1.23046875,0,0
-1.1275057659077E-05,3.65304299521085E-06,1.23046875,0,0
-1.15784314402845E-05,1.33977835048427E-06,1.23046875,0,0
-1.0743508937594E-05,-1.30380169593991E-06,1.23046875,0,0
-9.29535053728614E-06,-2.05446258405573E-06,1.23046875,0,0
-9.22534400160657E-06,-6.06981757300673E-07,1.23046875,0,0
-9.63081674854038E-06,2.16185185308859E-06,1.23046875,0,0
-9.93170851870673E-06,6.87490046402672E-06,1.23046875,0,0
-9.46671298152069E-06,1.02068752312334E-05,1.23046875,0,0
-9.69618577073561E-06,9.84314556262689E-06,1.23046875,0,0
-1.19132573672687E-05,8.81783489603549E-06,1.23046875,0,0
-1.48087110574124E-05,1.02334352050093E-05,1.23046875,0,0
-1.50020241562743E-05,1.31614488054765E-05,1.23046875,0,0
-1.39754083647858E-05,1.51243939399137E-05,1.23046875,0,0
-1.12947391244234E-05,1.2088136827515E-05,1.23046875,0,0
-1.73836560861673E-05,1.52789853018476E-05,1.23046875,0,0
-1.70529256138252E-05,9.60304168984294E-06,1.23046875,0,0
-2.26612173719332E-05,1.43897004818427E-05,1.23046875,0,0
-2.09110985451844E-05,1.24859061543248E-05,1.23046875,0,0
-2.36027208302403E-05,1.34448591779801E-05,1.23046875,0,0
-2.48841079155682E-05,1.20827226055553E-05,1.23046875,0,0
-2.85796631942503E-05,1.44401328725507E-05,1.23046875,0,0
-3.1083203793969E-05,1.59439114213455E-05,1.23046875,0,0
-3.24502507282887E-05,1.75410023075528E-05,1.23046875,0,0
-3.11725598294288E-05,1.82640560524305E-05,1.23046875,0,0
-2.94095243589254E-05,1.71057217812631E-05,1.23046875,0,0
-3.01749114441918E-05,1.44175837704097E-05,1.23046875,0,0
-3.08121707348619E-05,1.01331552286865E-05,1.23046875,0,0
-3.21957122650929E-05,8.47814499138622E-06,1.23046875,0,0
-3.09145070787054E-05,6.4348728301411E-06,1.23046875,0,0
-2.93010180030251E-05,7.54935581426253E-06,1.23046875,0,0
-2.58054369624006E-05,8.9013519755099E-06,1.23046875,0,0
-2.46977051574504E-05,1.22077535706921E-05,1.23046875,0,0
-2.47459483944112E-05,1.47960499816691E-05,1.23046875,0,0
-2.71301105385646E-05,1.77709644049173E-05,1.23046875,0,0
-2.82171167782508E-05,1.73288899532054E-05,1.23046875,0,0
-2.8188824217068E-05,1.7851138181868E-05,1.23046875,0,0
-2.74738158623222E-05,1.94498225027928E-05,1.23046875,0,0
-2.79900341411121E-05,2.19629073399119E-05,1.23046875,0,0
-2.75706024694955E-05,2.42604073719122E-05,1.23046875,0,0
-2.67224586423254E-05,2.52743084274698E-05,1.23046875,0,0
-2.2176865968504E-05,2.1086470951559E-05,1.23046875,0,0
-3.08983835566323E-05,2.90884545393055E-05,1.23046875,0,0
-2.16836961044464E-05,1.93616215256043E-05,1.23046875,0,0
-2.61369095824193E-05,2.20232413994381E-05,1.23046875,0,0
-2.0206982298987E-05,1.48871176861576E-05,1.23046875,0,0
-2.1097730495967E-05,1.66207682923414E-05,1.23046875,0,0
-1.68861133715836E-05,1.57816612045281E-05,1.23046875,0,0
-1.7256763385376E-05,1.96751152543584E-05,1.23046875,0,0
-1.57566882990068E-05,2.12155937333591E-05,1.23046875,0,0
-1.60642975970404E-05,2.13662460737396E-05,1.23046875,0,0
-1.81449213414453E-05,2.02557584998431E-05,1.23046875,0,0
-1.97023218788672E-05,1.78326299646869E-05,1.23046875,0,0
-2.21537939069094E-05,1.7766180462786E-05,1.23046875,0,0
-2.18234490603209E-05,1.72456238942686E-05,1.23046875,0,0
-2.39932487602346E-05,1.99387231987203E-05,1.23046875,0,0
-2.33137252507731E-05,2.04996431421023E-05,1.23046875,0,0
-2.37192962231347E-05,2.18794993998017E-05,1.23046875,0,0
-2.06391214305768E-05,1.97655135707464E-05,1.23046875,0,0
-2.03859563043807E-05,1.94110089069E-05,1.23046875,0,0
-1.97393073904095E-05,1.70868916029576E-05,1.23046875,0,0
-2.14723531826166E-05,1.65622514032293E-05,1.23046875,0,0
-2.17882625292987E-05,1.54543376993388E-05,1.23046875,0,0
-2.41255693254061E-05,1.67222151503665E-05,1.23046875,0,0
-2.68858202616684E-05,1.79985763679724E-05,1.23046875,0,0
-2.89460676867748E-05,1.87955556611996E-05,1.23046875,0,0
-2.95941317745019E-05,1.8047823687084E-05,1.23046875,0,0
-3.1387524359161E-05,1.57653412315995E-05,1.23046875,0,0
-2.75136953860056E-05,9.4344513854594E-06,1.23046875,0,0
-4.1049781430047E-05,1.22617284432636E-05,1.23046875,0,0
-3.27956477121916E-05,9.6987969300244E-06,1.23046875,0,0
-3.71980058844201E-05,1.40368993015727E-05,1.23046875,0,0
-2.84341640508501E-05,1.32904451675131E-05,1.23046875,0,0
-2.95525424007792E-05,1.62362866831245E-05,1.23046875,0,0
-2.56047442235285E-05,1.54621575347846E-05,1.23046875,0,0
-2.75468191830441E-05,1.4342072972795E-05,1.23046875,0,0
-2.80586391454563E-05,1.01929408629076E-05,1.23046875,0,0
-3.02037024084711E-05,6.3925513131835E-06,1.23046875,0,0
-3.21753723255824E-05,5.15229703523801E-06,1.23046875,0,0
-3.19017162837554E-05,6.14068994764239E-06,1.23046875,0,0
-3.3695156162139E-05,9.74214708548971E-06,1.23046875,0,0
-3.37079036398791E-05,1.2206955034344E-05,1.23046875,0,0
-3.6127425119048E-05,1.3649409993377E-05,1.23046875,0,0
-3.51747585227713E-05,1.21964612844749E-05,1.23046875,0,0
-3.68071887351107E-05,1.24213183880784E-05,1.23046875,0,0
-3.61290913133416E-05,1.18895159175736E-05,1.23046875,0,0
-3.83603473892435E-05,1.14086678877356E-05,1.23046875,0,0
-3.71523274225183E-05,1.0776375347632E-05,1.23046875,0,0
-3.69304725609254E-05,1.27453831737512E-05,1.23046875,0,0
-3.44248073815834E-05,1.3995938388689E-05,1.23046875,0,0
-3.32611707563046E-05,1.58248731167987E-05,1.23046875,0,0
-3.22335145028774E-05,1.59153823915403E-05,1.23046875,0,0
-3.33646457875147E-05,1.47799901242252E-05,1.23046875,0,0
-3.39371836162172E-05,1.41530399559997E-05,1.23046875,0,0
-3.38256322720554E-05,1.19557416837779E-05,1.23046875,0,0
-2.72480483545223E-05,7.77289460529573E-06,1.23046875,0,0
-3.89469714718871E-05,9.96546987153124E-06,1.23046875,0,0
-2.93924240395427E-05,6.38666915619979E-06,1.23046875,0,0
-3.55142838088796E-05,7.28374152458855E-06,1.23046875,0,0
-3.04595905618044E-05,5.10261452291161E-06,1.23046875,0,0
-3.45922708220314E-05,7.47750664231717E-06,1.23046875,0,0
-3.10171344608534E-05,6.24100175627973E-06,1.23046875,0,0
-3.18001584673766E-05,4.49598019258701E-06,1.23046875,0,0
-2.95570171147119E-05,1.94662675312429E-06,1.23046875,0,0
-2.85457263089484E-05,1.7619857999307E-06,1.23046875,0,0
-2.85149362753145E-05,3.62064020009711E-06,1.23046875,0,0
-2.68052572209854E-05,5.29147609995562E-06,1.23046875,0,0
-2.58988566201879E-05,5.88559169045766E-06,1.23046875,0,0
-2.24545383389341E-05,4.44745546701597E-06,1.23046875,0,0
-2.21604714170098E-05,4.32023853136343E-06,1.23046875,0,0
-1.96854271052871E-05,3.61392926606641E-06,1.23046875,0,0
-2.13072289625416E-05,4.65538278149324E-06,1.23046875,0,0
-2.073487121379E-05,5.63845742362901E-06,1.23046875,0,0
-2.28346834774129E-05,6.88567479301128E-06,1.23046875,0,0
-2.15022100746864E-05,5.85438237976632E-06,1.23046875,0,0
-2.11970509553794E-05,5.17482840223238E-06,1.23046875,0,0
-1.99894166144077E-05,4.08684263675241E-06,1.23046875,0,0
-2.14449592021992E-05,4.33592140325345E-06,1.23046875,0,0
-2.0989207769162E-05,6.49077628622763E-06,1.23046875,0,0
-2.05073101824382E-05,9.18691421247786E-06,1.23046875,0,0
-1.96462933672592E-05,9.57889915298438E-06,1.23046875,0,0
-2.04615953407483E-05,9.2381824288168E-06,1.23046875,0,0
-1.76061384991044E-05,6.8157914938638E-06,1.23046875,0,0
-2.61043987848097E-05,8.48405761644244E-06,1.23046875,0,0
-2.16708722291514E-05,5.66442986382754E-06,1.23046875,0,0
-2.55828654189827E-05,9.28131066757487E-06,1.23046875,0,0
-2.01216771529289E-05,7.60162538426812E-06,1.23046875,0,0
-2.05348824238172E-05,5.81513177166926E-06,1.23046875,0,0
-1.71727879205719E-05,3.72305498785863E-06,1.23046875,0,0
-1.73781063494971E-05,4.85852569909184E-06,1.23046875,0,0
-1.68678307090886E-05,5.78366916670348E-06,1.23046875,0,0
-1.73087664734339E-05,5.6429435062455E-06,1.23046875,0,0
-1.91822291526478E-05,4.73312366011669E-06,1.23046875,0,0
-2.06334480026271E-05,4.06971821576008E-06,1.23046875,0,0
-2.21746777242515E-05,4.81147662867443E-06,1.23046875,0,0
-2.02522460313048E-05,5.02288730785949E-06,1.23046875,0,0
-1.98651887330925E-05,4.86886801809305E-06,1.23046875,0,0
-1.85011867870344E-05,3.57819703822315E-06,1.23046875,0,0
-1.96344790310832E-05,4.42165992353694E-06,1.23046875,0,0
-1.97505814867327E-05,6.29500846116571E-06,1.23046875,0,0
-2.19026842387393E-05,8.39501717564417E-06,1.23046875,0,0
-2.15409563679714E-05,7.27724727767054E-06,1.23046875,0,0
-2.11181559279794E-05,6.11015502727241E-06,1.23046875,0,0
-1.84764739969978E-05,6.49719095235923E-06,1.23046875,0,0
-1.65714845934417E-05,8.58108160173288E-06,1.23046875,0,0
-1.62693431775551E-05,8.42838198877871E-06,1.23046875,0,0
-1.77238543983549E-05,5.5451646403526E-06,1.23046875,0,0
-1.63698769028997E-05,4.69755786980386E-06,1.23046875,0,0
-1.23013996926602E-05,6.03180751568289E-06,1.23046875,0,0
-7.51564220990986E-06,6.14259033682174E-06,1.23046875,0,0
-1.08806034404552E-05,9.21639093576232E-06,1.23046875,0,0
-7.88446504884632E-06,6.15400540482369E-06,1.23046875,0,0
-5.05910202264204E-06,6.95498465574929E-06,1.23046875,0,0
5.60725857212674E-06,7.1849408413982E-06,1.23046875,0,0
1.04668233689154E-05,9.99773419607664E-06,1.23046875,0,0
9.291279639001E-06,1.30364232973079E-05,1.23046875,0,0
3.90925379178952E-06,1.7093983842642E-05,1.23046875,0,0
-4.0287309843734E-07,1.97329864022322E-05,1.23046875,0,0
-4.99599764225422E-06,2.01686780201271E-05,1.23046875,0,0
-9.90662829281064E-06,1.87359528354136E-05,1.23046875,0,0
-1.41774380608695E-05,1.67444995895494E-05,1.23046875,0,0
-1.88595786312362E-05,1.73267890204443E-05,1.23046875,0,0
-2.27180426008999E-05,1.90083410416264E-05,1.23046875,0,0
-2.66216484305914E-05,2.04888492589816E-05,1.23046875,0,0
-2.85742989944993E-05,1.9208080630051E-05,1.23046875,0,0
-3.08671551465523E-05,1.64025150297675E-05,1.23046875,0,0
-3.25794790114742E-05,1.34949559651432E-05,1.23046875,0,0
-3.39107027684804E-05,1.18836214824114E-05,1.23046875,0,0
-3.28306778101251E-05,9.0067705968977E-06,1.23046875,0,0
-3.14924945996609E-05,6.96417873768951E-06,1.23046875,0,0
-3.05246721836738E-05,7.41616986488225E-06,1.23046875,0,0
-3.02632743114373E-05,9.11159349925583E-06,1.23046875,0,0
-2.87719831248978E-05,8.90511819306994E-06,1.23046875,0,0
-2.84299530903809E-05,6.84490896674106E-06,1.23046875,0,0
-2.95514164463384E-05,4.21440654463368E-06,1.23046875,0,0
-2.95219906547572E-05,8.94475135737594E-07,1.23046875,0,0
-1.76465564436512E-05,9.78595608103205E-07,1.23046875,0,0
-1.29798263515113E-05,2.37863469010335E-06,1.23046875,0,0
3.1277824746212E-05,3.09502706841158E-06,1.23046875,0,0
0.000118613002996426,4.66577921542921E-06,1.23046875,0,0
0.000252347061177716,7.05005459167296E-06,1.23046875,0,0
0.000347880617482588,7.4983763624914E-06,1.23046875,0,0
0.00039955650572665,6.58634098726907E-06,1.23046875,0,0
0.000414154637837783,4.74425087304553E-06,1.23046875,0,0
0.000420968484831974,2.60384922512458E-06,1.23046875,0,0
0.000421886594267562,1.45706451348815E-06,1.23046875,0,0
0.000415050133597106,1.34641368276789E-06,1.23046875,0,0
0.000400938268285245,2.56747125604306E-06,1.23046875,0,0
0.000379115081159398,4.32858087151544E-06,1.23046875,0,0
0.000357134587829933,4.44482884631725E-06,1.23046875,0,0
0.00033151128445752,3.26986241816485E-06,1.23046875,0,0
0.000306644942611456,2.51352889790724E-06,1.23046875,0,0
0.000276687846053392,2.91146488962113E-06,1.23046875,0,0
0.000248252414166927,3.98538895751699E-06,1.23046875,0,0
0.000216773070860654,5.3917597142572E-06,1.23046875,0,0
0.000187565747182816,7.52087498767651E-06,1.23046875,0,0
0.000156378140673041,1.04658174677752E-05,1.23046875,0,0
0.000126551691209897,1.27233352031908E-05,1.23046875,0,0
9.55399518716149E-05,1.32526038214564E-05,1.23046875,0,0
6.79166041663848E-05,1.27315070130862E-05,1.23046875,0,0
4.17011469835415E-05,1.11901663331082E-05,1.23046875,0,0
1.66630616149632E-05,8.40129814605461E-06,1.23046875,0,0
-7.52628102418385E-06,6.58737508274498E-06,1.23046875,0,0
-2.79754149232758E-05,3.6611183986679E-06,1.23046875,0,0
-5.81409403821453E-05,4.45290515926899E-06,1.23046875,0,0
-7.46865916880779E-05,5.7290994845971E-06,1.23046875,0,0
-0.000101108525996096,1.06015240817214E-05,1.23046875,0,0
-0.000118698590085842,1.00697870948352E-05,1.23046875,0,0
-0.000140366668347269,1.09126913230284E-05,1.23046875,0,0
-0.00015655868628528,1.14143786049681E-05,1.23046875,0,0
-0.000174706146935932,1.29094996736967E-05,1.23046875,0,0
-0.00019185921701137,1.16675200843019E-05,1.23046875,0,0
-0.000207682314794511,1.06534052974894E-05,1.23046875,0,0
-0.000220244837692007,1.13625392259564E-05,1.23046875,0,0
-0.000229189099627547,1.17402978503378E-05,1.23046875,0,0
-0.000238509630435146,1.22513883979991E-05,1.23046875,0,0
-0.000245661329245195,1.3014258001931E-05,1.23046875,0,0
-0.000254268961725757,1.39359417516971E-05,1.23046875,0,0
-0.000259756663581356,1.32198756546131E-05,1.23046875,0,0
-0.000265794893493876,1.30268190332572E-05,1.23046875,0,0
-0.000268668052740395,1.34765168695594E-05,1.23046875,0,0
-0.000272966019110754,1.65644487424288E-05,1.23046875,0,0
-0.000275738100754097,1.93003070307896E-05,1.23046875,0,0
-0.000278392777545378,2.04641291929875E-05,1.23046875,0,0
-0.000276872247923166,2.04235839191824E-05,1.23046875,0,0
-0.000276036327704787,2.06641307158861E-05,1.23046875,0,0
-0.000275517406407744,1.91740982700139E-05,1.23046875,0,0
-0.000275146652711555,1.61325133376522E-05,1.23046875,0,0
-0.000273356097750366,1.39830390253337E-05,1.23046875,0,0
-0.000270310672931373,1.44718078445294E-05,1.23046875,0,0
-0.000215587773709558,1.2786752449756E-05,1.23046875,0,0
-0.000304690620396286,1.87267505680211E-05,1.23046875,0,0
-0.000226367323193699,1.52507936945767E-05,1.23046875,0,0
-0.000279103172942996,1.92933257494587E-05,1.23046875,0,0
-0.000228404212975875,1.63161548698554E-05,1.23046875,0,0
-0.000257711973972619,1.66749759955565E-05,1.23046875,0,0
-0.000232036531087942,1.41283271659631E-05,1.23046875,0,0
-0.000242227120907046,1.44137784445775E-05,1.23046875,0,0
-0.000229662895435467,1.41096234074212E-05,1.23046875,0,0
-0.00022660763352178,1.54065528477076E-05,1.23046875,0,0
-0.00022719158732798,1.75448603840778E-05,1.23046875,0,0
-0.000221071954001673,1.77925885509467E-05,1.23046875,0,0
-0.000234013918088749,1.82616022357252E-05,1.23046875,0,0
-0.000229912984650582,1.71322608366609E-05,1.23046875,0,0
-0.000247343181399629,1.62880114658037E-05,1.23046875,0,0
-0.000238611130043864,1.44236055348301E-05,1.23046875,0,0
-0.000251586898230016,1.51081076182891E-05,1.23046875,0,0
-0.000239160945056938,1.33921248561819E-05,1.23046875,0,0
-0.000247884512646124,1.1339314369252E-05,1.23046875,0,0
-0.000238006701692939,9.74553768173791E-06,1.23046875,0,0
-0.000246297189733014,1.19283604362863E-05,1.23046875,0,0
-0.000236921376199462,1.4236856259231E-05,1.23046875,0,0
-0.000235159197472967,1.58437396748923E-05,1.23046875,0,0
-0.000220874702790752,1.44661908052512E-05,1.23046875,0,0
-0.000212724975426681,1.16187165986048E-05,1.23046875,0,0
-0.000200715658138506,9.70002020039828E-06,1.23046875,0,0
-0.000190336097148247,9.43642953643575E-06,1.23046875,0,0
-0.000144849924254231,9.01241855899571E-06,1.23046875,0,0
-0.000197229004697874,1.2874308595201E-05,1.23046875,0,0
-0.000136136572109535,7.17180910214665E-06,1.23046875,0,0
-0.000162037904374301,4.92730941914488E-06,1.23046875,0,0
-0.000120581964438315,1.74639569650026E-06,1.23046875,0,0
-0.000131563283503056,5.33599859409151E-06,1.23046875,0,0
-0.00010555017797742,8.34980255604023E-06,1.23046875,0,0
-0.000102117875940166,1.01617451946368E-05,1.23046875,0,0
-8.56418846524321E-05,1.00895113064325E-05,1.23046875,0,0
-7.51026600482874E-05,1.16869459816371E-05,1.23046875,0,0
-6.71213492751122E-05,1.31091337607359E-05,1.23046875,0,0
-5.16000109200832E-05,1.19796977742226E-05,1.23046875,0,0
-4.79625450680032E-05,1.21601278806338E-05,1.23046875,0,0
-3.37985729856882E-05,1.27863577290555E-05,1.23046875,0,0
-3.75750569219235E-05,1.31565211631823E-05,1.23046875,0,0
-2.36982250498841E-05,1.09547418105649E-05,1.23046875,0,0
-2.30247787840199E-05,1.02070180219016E-05,1.23046875,0,0
-5.65540221941774E-06,1.0351589480706E-05,1.23046875,0,0
-3.94216567656258E-06,1.09411494122469E-05,1.23046875,0,0
8.67151265993016E-06,9.43100712902378E-06,1.23046875,0,0
9.06210789253237E-06,8.10648907645373E-06,1.23046875,0,0
2.05807191377971E-05,6.67446829538676E-06,1.23046875,0,0
2.56796502071666E-05,6.7658756961464E-06,1.23046875,0,0
3.51099552062806E-05,7.94286734162597E-06,1.23046875,0,0
3.82264552172273E-05,9.54454662860371E-06,1.23046875,0,0
4.2963871237589E-05,9.19476406124886E-06,1.23046875,0,0
4.77740140922833E-05,7.60105922381626E-06,1.23046875,0,0
4.28878120146692E-05,5.58791452931473E-06,1.23046875,0,0
6.489796214737E-05,8.71869178808993E-06,1.23046875,0,0
5.16132859047502E-05,7.70154292695224E-06,1.23046875,0,0
6.79450968164019E-05,8.32794194138842E-06,1.23046875,0,0
6.54215691611171E-05,6.2098238231556E-06,1.23046875,0,0
7.71982158767059E-05,7.78536923462525E-06,1.23046875,0,0
7.49800892663188E-05,7.35022968001431E-06,1.23046875,0,0
8.0108038673643E-05,5.48796515431604E-06,1.23046875,0,0
8.04114606580697E-05,4.43502813141095E-06,1.23046875,0,0
8.29175260150805E-05,7.40368523111101E-06,1.23046875,0,0
8.51920049171895E-05,1.09551247078343E-05,1.23046875,0,0
8.47987466841005E-05,1.10588189272676E-05,1.23046875,0,0
8.54348763823509E-05,9.92427521850914E-06,1.23046875,0,0
8.34691527415998E-05,8.57200029713567E-06,1.23046875,0,0
8.72181408340111E-05,7.71779014030471E-06,1.23046875,0,0
8.60808504512534E-05,6.80446601108997E-06,1.23046875,0,0
8.74108445714228E-05,8.62225897435565E-06,1.23046875,0,0
8.37896659504622E-05,1.12178295239573E-05,1.23046875,0,0
8.62461238284595E-05,1.34837509904173E-05,1.23046875,0,0
8.51888617035002E-05,1.34893280119286E-05,1.23046875,0,0
8.64448811626062E-05,1.37726865432342E-05,1.23046875,0,0
8.39334315969609E-05,1.51840404214454E-05,1.23046875,0,0
8.39904532767832E-05,1.5571484254906E-05,1.23046875,0,0
8.04239753051661E-05,1.50460718941758E-05,1.23046875,0,0
7.739091233816E-05,1.66957070177887E-05,1.23046875,0,0
7.37615555408411E-05,1.90495939023094E-05,1.23046875,0,0
7.22145341569558E-05,1.94924305105815E-05,1.23046875,0,0
5.74238620174583E-05,1.4825272046437E-05,1.23046875,0,0
8.01112473709509E-05,2.01870479941135E-05,1.23046875,0,0
5.81569838686846E-05,1.43468314490747E-05,1.23046875,0,0
7.11067914380692E-05,1.9259281543782E-05,1.23046875,0,0
5.59025284019299E-05,1.85633034561761E-05,1.23046875,0,0
5.99005870753899E-05,2.27793516387464E-05,1.23046875,0,0
4.87000470457133E-05,2.13083112612367E-05,1.23046875,0,0
4.73131076432765E-05,2.10411089938134E-05,1.23046875,0,0
4.24787103838753E-05,1.87837267731084E-05,1.23046875,0,0
4.15473004977684E-05,1.76927533175331E-05,1.23046875,0,0
4.21646436734591E-05,1.63267886819085E-05,1.23046875,0,0
3.99633718188852E-05,1.41362634167308E-05,1.23046875,0,0
4.09790518460795E-05,1.32222839965834E-05,1.23046875,0,0
3.59311379725114E-05,1.05570852610981E-05,1.23046875,0,0
3.74451847164892E-05,9.96124708763091E-06,1.23046875,0,0
3.41739068971947E-05,8.7753105617594E-06,1.23046875,0,0
3.8050096918596E-05,1.05031822386081E-05,1.23046875,0,0
3.51185735780746E-05,1.04956770883291E-05,1.23046875,0,0
3.70694942830596E-05,1.10092705654097E-05,1.23046875,0,0
3.29762879118789E-05,9.32967122935224E-06,1.23046875,0,0
3.21346342389006E-05,8.49905700306408E-06,1.23046875,0,0
2.6043868274428E-05,6.66181767883245E-06,1.23046875,0,0
2.22469861910213E-05,7.42572365197702E-06,1.23046875,0,0
1.5758740119054E-05,1.00521110653062E-05,1.23046875,0,0
1.21126959129469E-05,1.21347438835073E-05,1.23046875,0,0
8.55386679177172E-06,1.05217523014289E-05,1.23046875,0,0
5.31118303115363E-06,8.04498358775163E-06,1.23046875,0,0
1.93127607417409E-06,5.06640617459198E-06,1.23046875,0,0
2.51144911089796E-07,5.02678449265659E-06,1.23046875,0,0
-2.49895515480603E-06,1.16657213311555E-06,1.23046875,0,0
-3.15131660499901E-06,2.96761527351919E-06,1.23046875,0,0
-4.37488461102475E-06,2.12651229958283E-06,1.23046875,0,0
-6.66490495859762E-06,1.89088541446836E-06,1.23046875,0,0
-9.75421244220342E-06,2.63098570485454E-07,1.23046875,0,0
-1.08486283352249E-05,-3.53663892838085E-07,1.23046875,0,0
-1.09348111436702E-05,-4.31053223337585E-07,1.23046875,0,0
-1.22686615213752E-05,1.04268156064791E-06,1.23046875,0,0
-1.40082065627212E-05,1.85528983820404E-06,1.23046875,0,0
-1.5359257304226E-05,3.30687015548392E-07,1.23046875,0,0
-1.52171878653462E-05,-2.23456640924269E-06,1.23046875,0,0
-1.50266396303778E-05,-5.26208305018372E-06,1.23046875,0,0
-1.49861407408025E-05,-7.05518368704361E-06,1.23046875,0,0
-1.53427354234736E-05,-8.80329025676474E-06,1.23046875,0,0
-1.60494291776558E-05,-8.53989513416309E-06,1.23046875,0,0
-1.85775352292694E-05,-8.53529672895093E-06,1.23046875,0,0
-2.08512974495534E-05,-8.96571418707026E-06,1.23046875,0,0
-2.20241345232353E-05,-1.07594360088115E-05,1.23046875,0,0
-2.28046192205511E-05,-1.16230412459117E-05,1.23046875,0,0
-2.34621384151978E-05,-9.75243256107206E-06,1.23046875,0,0
-2.24922405323014E-05,-5.37068171979627E-06,1.23046875,0,0
-1.95623506442644E-05,-2.94264987132919E-06,1.23046875,0,0
-1.69213417393621E-05,-2.34904564422322E-06,1.23046875,0,0
-1.62583164637908E-05,-1.19548258226132E-06,1.23046875,0,0
-1.72039017343195E-05,1.80393521986844E-06,1.23046875,0,0
-1.39743651743629E-05,1.77612093921198E-06,1.23046875,0,0
-1.93223859241698E-05,9.32872410430718E-07,1.23046875,0,0
-1.21663924801396E-05,-1.38197992782807E-06,1.23046875,0,0
-1.3606229913421E-05,4.14124258441007E-07,1.23046875,0,0
-9.34841591515578E-06,3.83325414077262E-06,1.23046875,0,0
-1.03749125628383E-05,8.51834283821518E-06,1.23046875,0,0
-9.36370543058729E-06,9.95253685687203E-06,1.23046875,0,0
-1.27769353639451E-05,7.70740280131577E-06,1.23046875,0,0
-1.47273622133071E-05,5.34576065547299E-06,1.23046875,0,0
-1.45922995216097E-05,7.38253584131598E-06,1.23046875,0,0
-1.28069368656725E-05,1.16802184493281E-05,1.23046875,0,0
-1.11861900222721E-05,1.47300706885289E-05,1.23046875,0,0
-1.15303673737799E-05,1.64364028023556E-05,1.23046875,0,0
-1.22706142064999E-05,1.74165870703291E-05,1.23046875,0,0
-1.59874343808042E-05,1.81449449883075E-05,1.23046875,0,0
-1.78410755324876E-05,1.81091982085491E-05,1.23046875,0,0
-1.97273020603461E-05,1.80362985702232E-05,1.23046875,0,0
-1.96759392565582E-05,1.890104249469E-05,1.23046875,0,0
-2.08507990464568E-05,2.25399089686107E-05,1.23046875,0,0
-1.97861645574449E-05,2.6171746867476E-05,1.23046875,0,0
-1.94806489162147E-05,2.6591982532409E-05,1.23046875,0,0
-1.92430088645779E-05,2.55087707046187E-05,1.23046875,0,0
-2.08650362765184E-05,2.70114396698773E-05,1.23046875,0,0
-2.22894414037E-05,3.10510949930176E-05,1.23046875,0,0
-2.32594411500031E-05,3.31759329128545E-05,1.23046875,0,0
-2.14935134863481E-05,3.19785322062671E-05,1.23046875,0,0
-2.02504579647211E-05,3.09174974972848E-05,1.23046875,0,0
-1.83848987944657E-05,2.24171362788184E-05,1.23046875,0,0
-2.79584328382043E-05,3.19803111779038E-05,1.23046875,0,0
-2.25920430239057E-05,2.75740239885636E-05,1.23046875,0,0
-2.56561361311469E-05,3.71904425264802E-05,1.23046875,0,0
-2.10642338061007E-05,3.03084561892319E-05,1.23046875,0,0
-2.46775216510287E-05,3.0333527320181E-05,1.23046875,0,0
-2.57673400483327E-05,2.57270094152773E-05,1.23046875,0,0
-2.92267795884982E-05,2.54567657975713E-05,1.23046875,0,0
-3.00490046356572E-05,2.38085322052939E-05,1.23046875,0,0
-3.13783857563976E-05,2.33203827519901E-05,1.23046875,0,0
-3.40821243298706E-05,2.39191595028387E-05,1.23046875,0,0
-3.47526620316785E-05,2.51072633545846E-05,1.23046875,0,0
-3.4264874557266E-05,2.69014599325601E-05,1.23046875,0,0
-3.08902672259137E-05,2.52867612289265E-05,1.23046875,0,0
-3.03646429529181E-05,2.63741185335675E-05,1.23046875,0,0
-2.93364282697439E-05,2.43612048507202E-05,1.23046875,0,0
-2.99498096865136E-05,2.37037311308086E-05,1.23046875,0,0
-2.82392556982813E-05,2.20169840758899E-05,1.23046875,0,0
-2.8041878977092E-05,2.545222560002E-05,1.23046875,0,0
-2.68052172032185E-05,2.74559915851569E-05,1.23046875,0,0
-2.67086852545617E-05,2.90109746856615E-05,1.23046875,0,0
-2.52595582423965E-05,2.70744003501022E-05,1.23046875,0,0
-2.4360568204429E-05,2.71535682259128E-05,1.23046875,0,0
-2.15972322621383E-05,2.62178382399725E-05,1.23046875,0,0
-1.99469268409302E-05,2.49559743679129E-05,1.23046875,0,0
-1.87714958883589E-05,2.45994997385424E-05,1.23046875,0,0
-1.62517117132666E-05,2.6322126359446E-05,1.23046875,0,0
-1.15953880595043E-05,2.16596181417117E-05,1.23046875,0,0
-1.60317722475156E-05,2.91778997052461E-05,1.23046875,0,0
-1.31245924421819E-05,1.77569600054994E-05,1.23046875,0,0
-1.97475837921957E-05,2.02210994757479E-05,1.23046875,0,0
-2.06815238925628E-05,1.49233510455815E-05,1.23046875,0,0
-2.4885846869438E-05,1.77884394361172E-05,1.23046875,0,0
-2.54697024502093E-05,1.54951576405438E-05,1.23046875,0,0
-2.63890215137508E-05,1.61328407557448E-05,1.23046875,0,0
-2.59411081060534E-05,1.38068307933281E-05,1.23046875,0,0
-2.63998845184688E-05,1.2489900655055E-05,1.23046875,0,0
-2.77585204457864E-05,1.27994153444888E-05,1.23046875,0,0
-2.79465566563886E-05,1.25905589811737E-05,1.23046875,0,0
-2.9871132937842E-05,1.48323406392592E-05,1.23046875,0,0
-3.21592960972339E-05,1.51870417539612E-05,1.23046875,0,0
-3.52129427483305E-05,1.51519880091655E-05,1.23046875,0,0
-3.48340618074872E-05,1.12507423182251E-05,1.23046875,0,0
-3.36509219778236E-05,1.10821492853574E-05,1.23046875,0,0
-3.0859238904668E-05,1.01418845588341E-05,1.23046875,0,0
-2.90904117719037E-05,1.19821388580021E-05,1.23046875,0,0
-2.6463121685083E-05,1.2004752534267E-05,1.23046875,0,0
-2.62353096331935E-05,1.24984026115271E-05,1.23046875,0,0
-2.65943945123581E-05,9.9288208730286E-06,1.23046875,0,0
-2.78701627394184E-05,8.4459206846077E-06,1.23046875,0,0
-2.89070958388038E-05,7.42415295462706E-06,1.23046875,0,0
-2.90963071165606E-05,6.82920563122025E-06,1.23046875,0,0
-2.86916038021445E-05,6.74989178151009E-06,1.23046875,0,0
-2.85375881503569E-05,8.13126553111942E-06,1.23046875,0,0
-2.29858087550383E-05,6.85579925630009E-06,1.23046875,0,0
-3.20690814987756E-05,9.23295920074452E-06,1.23046875,0,0
-2.4202900021919E-05,7.22857021173695E-06,1.23046875,0,0
-3.15240758936852E-05,9.37200547923567E-06,1.23046875,0,0
-2.77646013273625E-05,6.54766290608677E-06,1.23046875,0,0
-3.20965773425996E-05,6.7763189690595E-06,1.23046875,0,0
-3.0077550036367E-05,7.49015271139797E-06,1.23046875,0,0
-3.15701872750651E-05,8.47918272484094E-06,1.23046875,0,0
-3.08691378450021E-05,8.63779951032484E-06,1.23046875,0,0
-3.06947003991809E-05,9.79871674644528E-06,1.23046875,0,0
-3.05620815197472E-05,1.02790263554198E-05,1.23046875,0,0
-2.96037851512665E-05,8.17127602203982E-06,1.23046875,0,0
-3.06681904476136E-05,6.28840052740998E-06,1.23046875,0,0
-2.93877055810299E-05,5.51794119019178E-06,1.23046875,0,0
-2.93720113404561E-05,7.86437522037886E-06,1.23046875,0,0
-2.58741511061089E-05,1.00314782685018E-05,1.23046875,0,0
-2.57722167589236E-05,1.07505775304162E-05,1.23046875,0,0
-2.48173928412143E-05,8.3644054029719E-06,1.23046875,0,0
-2.74011781584704E-05,6.40461348666577E-06,1.23046875,0,0
-2.78050883935066E-05,5.11608459419222E-06,1.23046875,0,0
-2.76897262665443E-05,5.27408292327891E-06,1.23046875,0,0
-2.42538590100594E-05,4.9677687457006E-06,1.23046875,0,0
-2.42306196014397E-05,4.445495960681E-06,1.23046875,0,0
-2.58560030488297E-05,5.0400008149154E-06,1.23046875,0,0
-2.61114728346001E-05,7.73895135353087E-06,1.23046875,0,0
-2.45045212068362E-05,9.18692694540368E-06,1.23046875,0,0
-2.53442176472163E-05,8.06065872893669E-06,1.23046875,0,0
-2.26272350118961E-05,3.67636630471679E-06,1.23046875,0,0
-3.30155235133134E-05,2.85964301838249E-06,1.23046875,0,0
-2.54690021392889E-05,1.17570289148716E-06,1.23046875,0,0
-2.98348750220612E-05,4.66588153358316E-06,1.23046875,0,0
-2.36834548559273E-05,4.05424725613557E-06,1.23046875,0,0
-2.48518044827506E-05,5.18065417054459E-06,1.23046875,0,0
-2.19682697206736E-05,5.72639919482754E-06,1.23046875,0,0
-2.43510803557001E-05,6.45337604510132E-06,1.23046875,0,0
-2.44196289713727E-05,5.05555726704188E-06,1.23046875,0,0
-2.33586415561149E-05,4.75067190564005E-06,1.23046875,0,0
-2.29129836952779E-05,5.85639236305724E-06,1.23046875,0,0
-2.26658739848062E-05,5.59469071959029E-06,1.23046875,0,0
-2.40086064877687E-05,5.33697630089591E-06,1.23046875,0,0
-2.27887539949734E-05,5.19919285579817E-06,1.23046875,0,0
-2.35649313253816E-05,5.55376755073667E-06,1.23046875,0,0
-2.20128458749969E-05,5.43099577043904E-06,1.23046875,0,0
-2.31750072998693E-05,6.86145858708187E-06,1.23046875,0,0
-2.23283750528935E-05,7.51168772694655E-06,1.23046875,0,0
-2.34800172620453E-05,7.04813919583103E-06,1.23046875,0,0
-2.26936954277335E-05,5.60714624953107E-06,1.23046875,0,0
-2.38820102822501E-05,4.98547797178617E-06,1.23046875,0,0
-2.35809657169739E-05,4.08696450904245E-06,1.23046875,0,0
-2.40973222389584E-05,3.9356368688459E-06,1.23046875,0,0
-2.30793211812852E-05,4.71663906864706E-06,1.23046875,0,0
-2.16433363675606E-05,5.39306029168074E-06,1.23046875,0,0
-1.91991402971325E-05,5.97471535002114E-06,1.23046875,0,0
-1.84347118192818E-05,6.08561958870268E-06,1.23046875,0,0
-1.59521296154708E-05,2.59589091911039E-06,1.23046875,0,0
-2.19598896364914E-05,4.46032845502486E-06,1.23046875,0,0
-1.51871672642301E-05,4.45584100816632E-06,1.23046875,0,0
-1.77939164132113E-05,1.61909315465891E-06,1.23046875,0,0
-1.33349876705324E-05,-2.72918987320736E-06,1.23046875,0,0
-1.51332333189202E-05,-3.23168524118955E-06,1.23046875,0,0
-1.39052490339964E-05,-4.14822397942771E-06,1.23046875,0,0
-1.54629324242705E-05,-3.66769927495625E-06,1.23046875,0,0
-1.47719392771251E-05,-4.07045854444732E-06,1.23046875,0,0
-1.45035792229464E-05,-1.80091785750847E-06,1.23046875,0,0
-1.4663456568087E-05,2.48143487624475E-06,1.23046875,0,0
-1.2957305443706E-05,5.78046319787973E-06,1.23046875,0,0
-1.14905742520932E-05,7.02085981174605E-06,1.23046875,0,0
-9.24357664189301E-06,5.15617011842551E-06,1.23046875,0,0
-1.06650186353363E-05,3.41480108545511E-06,1.23046875,0,0
-1.14354052129784E-05,3.39140569849405E-06,1.23046875,0,0
-1.31437291202019E-05,5.14372186444234E-06,1.23046875,0,0
-1.12171537693939E-05,6.3681591200293E-06,1.23046875,0,0
-1.05025428638328E-05,8.54923109727679E-06,1.23046875,0,0
-9.75058810581686E-06,1.07593086795532E-05,1.23046875,0,0
-1.16805622383254E-05,1.29691607071436E-05,1.23046875,0,0
-1.30834023366333E-05,1.43179668157245E-05,1.23046875,0,0
-1.43866882353905E-05,1.35801665237523E-05,1.23046875,0,0
-1.4907689546817E-05,1.0312874110241E-05,1.23046875,0,0
-1.65696619660594E-05,8.44274836708792E-06,1.23046875,0,0
-1.8277936760569E-05,9.02527062862646E-06,1.23046875,0,0
-1.90224473044509E-05,1.17648141895188E-05,1.23046875,0,0
-1.5401068594656E-05,1.07289797597332E-05,1.23046875,0,0
-2.15873442357406E-05,1.30782273117802E-05,1.23046875,0,0
-1.6301404684782E-05,6.35719516139943E-06,1.23046875,0,0
-2.14006104215514E-05,8.59747342474293E-06,1.23046875,0,0
-1.9484103177092E-05,5.53948711967678E-06,1.23046875,0,0
-2.2355683540809E-05,6.36105596640846E-06,1.23046875,0,0
-2.16373737202957E-05,5.63371713724337E-06,1.23046875,0,0
-2.36545838561142E-05,6.78508058626903E-06,1.23046875,0,0
-2.59026983258082E-05,6.90411752657383E-06,1.23046875,0,0
-2.97865663014818E-05,7.96042240835959E-06,1.23046875,0,0
-3.3603126212256E-05,9.54986080614617E-06,1.23046875,0,0
-3.5811863199342E-05,1.08199647002039E-05,1.23046875,0,0
-3.73654293071013E-05,1.25775723063271E-05,1.23046875,0,0
-3.64648076356389E-05,1.36902626763913E-05,1.23046875,0,0
-3.74366500182077E-05,1.52877419168362E-05,1.23046875,0,0
-3.7118858017493E-05,1.49895377035136E-05,1.23046875,0,0
-3.82817270292435E-05,1.6611940736766E-05,1.23046875,0,0
-3.78589284082409E-05,1.82252351805801E-05,1.23046875,0,0
-3.88391235901508E-05,2.10601410799427E-05,1.23046875,0,0
-3.79683333449066E-05,2.16741391341202E-05,1.23046875,0,0
-3.84798331651837E-05,2.20345991692739E-05,1.23046875,0,0
-3.86670108127873E-05,2.15234358620364E-05,1.23046875,0,0
-3.94651615351904E-05,2.20501024159603E-05,1.23046875,0,0
-3.78310578525998E-05,2.15325562749058E-05,1.23046875,0,0
-3.59216537617613E-05,2.11799451790284E-05,1.23046875,0,0
-3.45073931384832E-05,2.17913675442105E-05,1.23046875,0,0
-3.37040473823436E-05,2.24206632992718E-05,1.23046875,0,0
-2.7477100957185E-05,1.65994006238179E-05,1.23046875,0,0
-3.89823799196165E-05,2.15151976590278E-05,1.23046875,0,0
-2.90732241410296E-05,1.27785033328109E-05,1.23046875,0,0
-3.62003556801938E-05,1.42520484587294E-05,1.23046875,0,0
-3.03782198898261E-05,7.07486697137938E-06,1.23046875,0,0
-3.18331804010086E-05,6.74334432915202E-06,1.23046875,0,0
-2.50295051955618E-05,4.57551459476235E-06,1.23046875,0,0
-2.36232390307123E-05,7.57222687752801E-06,1.23046875,0,0
-2.16791213460965E-05,8.14943359728204E-06,1.23046875,0,0
-2.25095718633384E-05,8.88008980837185E-06,1.23046875,0,0
-2.26298998313723E-05,8.77647926245118E-06,1.23046875,0,0
-2.00584381673252E-05,6.69749852022505E-06,1.23046875,0,0
-2.04086809389992E-05,6.18607191427145E-06,1.23046875,0,0
-1.93547421076801E-05,4.79556001664605E-06,1.23046875,0,0
-2.0207207853673E-05,6.85450322635006E-06,1.23046875,0,0
-1.80206170625752E-05,7.69605867390055E-06,1.23046875,0,0
-2.09494428418111E-05,9.49893001234159E-06,1.23046875,0,0
-2.3035921913106E-05,9.66953120951075E-06,1.23046875,0,0
-2.72162669716636E-05,1.31286478790571E-05,1.23046875,0,0
-2.71572716883384E-05,1.42106400744524E-05,1.23046875,0,0
-2.89217168756295E-05,1.5075394003361E-05,1.23046875,0,0
-2.90288844553288E-05,1.52437423821539E-05,1.23046875,0,0
-3.1719398975838E-05,1.72773834492546E-05,1.23046875,0,0
-3.36923440045211E-05,1.83870797627606E-05,1.23046875,0,0
-3.43569627148099E-05,1.86023098649457E-05,1.23046875,0,0
-3.41018821927719E-05,1.6663867427269E-05,1.23046875,0,0
-3.50375630659983E-05,1.6086860341602E-05,1.23046875,0,0
-2.80592666968005E-05,1.2947131835972E-05,1.23046875,0,0
-3.91935573134106E-05,1.58717666636221E-05,1.23046875,0,0
-3.03271481243428E-05,8.75363639352145E-06,1.23046875,0,0
-4.01988872908987E-05,1.21284456326975E-05,1.23046875,0,0
-3.50068730767816E-05,7.55925157136517E-06,1.23046875,0,0
-3.76412317564245E-05,7.20846583135426E-06,1.23046875,0,0
-3.27393026964273E-05,6.31081047686166E-06,1.23046875,0,0
-3.26569752360228E-05,9.78411662799772E-06,1.23046875,0,0
-3.04733421216952E-05,1.167354912468E-05,1.23046875,0,0
-2.95016416202998E-05,1.03969314295682E-05,1.23046875,0,0
-2.9671053198399E-05,8.49731713969959E-06,1.23046875,0,0
-2.92119075311348E-05,7.45584384276299E-06,1.23046875,0,0
-3.15280885843094E-05,8.88890372152673E-06,1.23046875,0,0
-3.00646861433052E-05,8.98201051313663E-06,1.23046875,0,0
-2.99231378448894E-05,9.06792593013961E-06,1.23046875,0,0
-2.65977887465851E-05,7.2579628067615E-06,1.23046875,0,0
-2.78776697086869E-05,8.23356913315365E-06,1.23046875,0,0
-2.76790560747031E-05,9.97969436866697E-06,1.23046875,0,0
-3.01476447930327E-05,1.25004689834896E-05,1.23046875,0,0
-2.94791534543037E-05,1.15609800559469E-05,1.23046875,0,0
-3.03412161883898E-05,1.16720057121711E-05,1.23046875,0,0
-2.87586008198559E-05,1.30934413391515E-05,1.7578125,0,0
-2.88293049379718E-05,1.58071125042625E-05,1.7578125,0,0
-2.93567445623921E-05,1.62333235493861E-05,1.7578125,0,0
-3.2087613362819E-05,1.61744119395735E-05,1.7578125,0,0
-3.37293240590952E-05,1.79944581759628E-05,1.7578125,0,0
-3.29426729877014E-05,2.10372272704262E-05,1.7578125,0,0
-2.35700099437963E-05,1.56410224008141E-05,1.7578125,0,0
-3.10967479890678E-05,1.91161016118713E-05,1.7578125,0,0
-2.07000703085214E-05,1.05895169326686E-05,1.7578125,0,0
-2.51563451456605E-05,1.65967467182782E-05,1.7578125,0,0
-1.75343466253253E-05,1.59256305778399E-05,1.7578125,0,0
-1.98034449567785E-05,1.94029671547469E-05,1.7578125,0,0
-1.73494790942641E-05,1.59602786879987E-05,1.7578125,0,0
-1.94694384845207E-05,1.53915661940118E-05,1.7578125,0,0
-1.80572460521944E-05,1.59632090799278E-05,1.7578125,0,0
-1.75818295247154E-05,1.68383467098465E-05,1.7578125,0,0
-1.86417273653205E-05,1.66256104421336E-05,1.7578125,0,0
-1.94014301087009E-05,1.65973760886118E-05,1.7578125,0,0
-2.11834903893759E-05,1.86753131856676E-05,1.7578125,0,0
-1.95037027879152E-05,1.70541043189587E-05,1.7578125,0,0
-2.08029523491859E-05,1.59071350935847E-05,1.7578125,0,0
-1.93024916370632E-05,1.45834274007939E-05,1.7578125,0,0
-1.94534168258542E-05,1.61035077326233E-05,1.7578125,0,0
-1.63377408171073E-05,1.47546870721271E-05,1.7578125,0,0
-1.68006790772779E-05,1.45805079228012E-05,1.7578125,0,0
-1.71806605067104E-05,1.43451625262969E-05,1.7578125,0,0
-2.11789629247505E-05,1.44508712764946E-05,1.7578125,0,0
-2.26927404582966E-05,1.10081091406755E-05,1.7578125,0,0
-2.16420685319463E-05,8.38064261188265E-06,1.7578125,0,0
-1.75566055986565E-05,6.88514137436869E-06,1.7578125,0,0
-1.58156599354697E-05,6.67034964862978E-06,1.7578125,0,0
-1.68114183907164E-05,6.39849167782813E-06,1.7578125,0,0
-2.02836436073994E-05,5.43508394912351E-06,1.7578125,0,0
-1.93729738384718E-05,3.17533499583078E-06,1.7578125,0,0
-2.99375078611774E-05,3.35497429659881E-06,1.7578125,0,0
-2.53686139330966E-05,6.42596830857656E-07,1.7578125,0,0
-2.89157651423011E-05,8.54128472838056E-07,1.7578125,0,0
-2.38367665588157E-05,-2.96115189257762E-07,1.7578125,0,0
-2.60225588135654E-05,-1.61082709837501E-06,1.7578125,0,0
-2.35115985560697E-05,-3.49995389115065E-06,1.7578125,0,0
-2.24949526455021E-05,-5.47188028576784E-06,1.7578125,0,0
-1.99945916392608E-05,-6.68653956381604E-06,1.7578125,0,0
-1.89805905392859E-05,-5.65024129173253E-06,1.7578125,0,0
-1.9747774786083E-05,-3.88494709113729E-06,1.7578125,0,0
-1.92276820598636E-05,-1.23815482311329E-06,1.7578125,0,0
-1.77942147274734E-05,8.85984718479449E-07,1.7578125,0,0
-1.24116540973773E-05,5.19112177244097E-07,1.7578125,0,0
-8.00211000751005E-06,2.06663898438819E-07,1.7578125,0,0
-2.46349918597844E-06,1.28730232518137E-06,1.7578125,0,0
-8.07482422260364E-07,4.10579696108471E-06,1.7578125,0,0
1.10158836719165E-07,7.03208797858679E-06,1.7578125,0,0
-2.08081064556609E-06,9.97946426650742E-06,1.7578125,0,0
-2.09980476029159E-06,1.12735506263562E-05,1.7578125,0,0
-2.77670028481225E-06,1.13950518425554E-05,1.7578125,0,0
-3.50729919773585E-06,9.69296797848074E-06,1.7578125,0,0
-6.01403417022084E-06,7.98723976913607E-06,1.7578125,0,0
-8.26465839054435E-06,7.95285632193554E-06,1.7578125,0,0
-1.15388438644004E-05,9.09904156287666E-06,1.7578125,0,0
-1.31251354105189E-05,1.05183153209509E-05,1.7578125,0,0
-1.21365956147201E-05,1.18055286293384E-05,1.7578125,0,0
-8.4751118265558E-06,1.01969562820159E-05,1.7578125,0,0
-1.32812465380994E-05,1.50535915963701E-05,1.7578125,0,0
-1.3866058907297E-05,1.28240508274757E-05,1.7578125,0,0
-1.93116375157842E-05,1.6861373296706E-05,1.7578125,0,0
-1.99126043298747E-05,1.60602285177447E-05,1.7578125,0,0
-2.25322819460416E-05,1.85538228834048E-05,1.7578125,0,0
-2.34028884733561E-05,1.81502819032175E-05,1.7578125,0,0
-2.56378461926943E-05,1.87695095519302E-05,1.7578125,0,0
-2.58589770965045E-05,1.74742071976652E-05,1.7578125,0,0
-2.75557122222381E-05,1.75330296769971E-05,1.7578125,0,0
-3.0875024094712E-05,1.77802467078436E-05,1.7578125,0,0
-3.27351153828204E-05,1.67245307238773E-05,1.7578125,0,0
-3.29963986587245E-05,1.71113897522446E-05,1.7578125,0,0
-3.16922560159583E-05,1.69034774444299E-05,1.7578125,0,0
-3.23562890116591E-05,1.77141209860565E-05,1.7578125,0,0
-3.24089123751037E-05,1.76290177478222E-05,1.7578125,0,0
-3.18693419103511E-05,1.8995100617758E-05,1.7578125,0,0
-2.91634678433184E-05,1.90241771633737E-05,1.7578125,0,0
-2.90655298158526E-05,1.95512620848604E-05,1.7578125,0,0
-3.06930305669084E-05,1.92493862414267E-05,1.7578125,0,0
-3.20872677548323E-05,1.9812290702248E-05,1.7578125,0,0
-3.11076582875103E-05,1.81815466930857E-05,1.7578125,0,0
-3.02632215607446E-05,1.58800357894506E-05,1.7578125,0,0
-2.9408400223474E-05,1.35890268211369E-05,1.7578125,0,0
-2.96754897135543E-05,1.18462785394513E-05,1.7578125,0,0
-2.84603320324095E-05,1.04827959148679E-05,1.7578125,0,0
-2.52924182859715E-05,8.83779102878179E-06,1.7578125,0,0
-1.93136038433295E-05,6.82993504597107E-06,1.7578125,0,0
-2.64453337877057E-05,1.08362055470934E-05,1.7578125,0,0
-1.78811369551113E-05,9.36834112508222E-06,1.7578125,0,0
-2.17718534258893E-05,1.06393827081774E-05,1.7578125,0,0
-1.89729616977274E-05,8.92555090103997E-06,1.7578125,0,0
-2.38582979363855E-05,1.06386059997021E-05,1.7578125,0,0
-2.29226279770955E-05,1.2788460480806E-05,1.7578125,0,0
-2.48193300649291E-05,1.49405823322013E-05,1.7578125,0,0
-2.40155677602161E-05,1.50637124534114E-05,1.7578125,0,0
-2.44146649492905E-05,1.46985767059959E-05,1.7578125,0,0
-2.56001821981044E-05,1.46892680277233E-05,1.7578125,0,0
-2.624129774631E-05,1.4241442841012E-05,1.7578125,0,0
-2.75771235465072E-05,1.38531841002987E-05,1.7578125,0,0
-2.60744855040684E-05,1.24041125673102E-05,1.7578125,0,0
-2.76373884844361E-05,1.13595269795042E-05,1.7578125,0,0
-2.97033202514285E-05,8.9727636805037E-06,1.7578125,0,0
-3.44569525623228E-05,5.49846345165861E-06,1.7578125,0,0
-3.51399758073967E-05,3.67868642570102E-06,1.7578125,0,0
-3.60749436367769E-05,8.17259115137858E-06,1.7578125,0,0
-3.43730971508194E-05,1.31570750454557E-05,1.7578125,0,0
-3.49129295500461E-05,1.39698222483275E-05,1.7578125,0,0
-3.45416010532063E-05,1.14439035314717E-05,1.7578125,0,0
-3.55518823198508E-05,8.66205937199993E-06,1.7578125,0,0
-3.66072490578517E-05,5.43878422831767E-06,1.7578125,0,0
-3.62333121302072E-05,3.11316762235947E-06,1.7578125,0,0
-3.33215757564176E-05,2.19278626900632E-06,1.7578125,0,0
-3.23714921250939E-05,2.30843852477847E-06,1.7578125,0,0
-2.69580868916819E-05,3.28505871038942E-06,1.7578125,0,0
-3.92346373701002E-05,4.22995208282373E-06,1.7578125,0,0
-3.06681540678255E-05,7.10812116722082E-07,1.7578125,0,0
-3.5518103686627E-05,1.74954536191763E-07,1.7578125,0,0
-2.68375479208771E-05,5.16126419825014E-07,1.7578125,0,0
-2.84184661722975E-05,2.29135434892669E-06,1.7578125,0,0
-2.42910828092135E-05,3.80778965336503E-06,1.7578125,0,0
-2.51768742600689E-05,4.39676205132855E-06,1.7578125,0,0
-2.4104780095513E-05,4.95780068376916E-06,1.7578125,0,0
-2.36213745665737E-05,4.73088539365563E-06,1.7578125,0,0
-2.28378648898797E-05,4.10514485338354E-06,1.7578125,0,0
-2.16544212889858E-05,4.64167715108488E-06,1.7578125,0,0
-2.38605316553731E-05,5.82518259761855E-06,1.7578125,0,0
-2.37067361013033E-05,5.48947718925774E-06,1.7578125,0,0
-2.50481971306726E-05,4.87113311464782E-06,1.7578125,0,0
-2.30270397878485E-05,5.5509913181595E-06,1.7578125,0,0
-2.39006185438484E-05,8.23577465780545E-06,1.7578125,0,0
-2.23657261813059E-05,1.0734561328718E-05,1.7578125,0,0
-2.39708315348253E-05,1.12010702650878E-05,1.7578125,0,0
-2.24463801714592E-05,9.30000896914862E-06,1.7578125,0,0
-2.22945000132313E-05,9.11260030989069E-06,1.7578125,0,0
-1.97562512767036E-05,1.12086463559535E-05,1.7578125,0,0
-1.82425610546488E-05,1.2561326911964E-05,1.7578125,0,0
-1.73490388988284E-05,1.28405772557016E-05,1.7578125,0,0
-1.81664381670998E-05,1.32320155898924E-05,1.7578125,0,0
-1.67770431289682E-05,1.39247549668653E-05,1.7578125,0,0
-1.47944747368456E-05,1.42340441016131E-05,1.7578125,0,0
-1.23135650937911E-05,1.25033175208955E-05,1.7578125,0,0
-2.01177463168278E-05,1.8087030184688E-05,1.7578125,0,0
-2.02515184355434E-05,1.40585407280014E-05,1.7578125,0,0
-2.61370350926882E-05,1.76374614966335E-05,1.7578125,0,0
-2.5577097403584E-05,1.46537104228628E-05,1.7578125,0,0
-2.70907567028189E-05,1.5654499293305E-05,1.7578125,0,0
-2.59258922596928E-05,1.41871732921572E-05,1.7578125,0,0
-2.66850729531143E-05,1.3945456885267E-05,1.7578125,0,0
-2.75150887318887E-05,1.17606305138906E-05,1.7578125,0,0
-2.86713711830089E-05,9.632516594138E-06,1.7578125,0,0
-2.88868068309966E-05,7.52627920519444E-06,1.7578125,0,0
-2.89989584416617E-05,7.1970443968894E-06,1.7578125,0,0
-3.00434694509022E-05,1.14569320430746E-05,1.7578125,0,0
-2.88786595774582E-05,1.57696777023375E-05,1.7578125,0,0
-2.77346334769391E-05,1.93282248801552E-05,1.7578125,0,0
-2.53635371336713E-05,1.8880289644585E-05,1.7578125,0,0
-2.45534465648234E-05,1.87180903594708E-05,1.7578125,0,0
-2.25404728553258E-05,1.82109924935503E-05,1.7578125,0,0
-2.18137247429695E-05,1.96775308722863E-05,1.7578125,0,0
-2.20116817217786E-05,1.98108882614179E-05,1.7578125,0,0
-2.52818463195581E-05,2.19424200622598E-05,1.7578125,0,0
-2.67329360212898E-05,2.27009586524218E-05,1.7578125,0,0
-2.58152140304446E-05,2.15221461985493E-05,1.7578125,0,0
-2.43531012529274E-05,2.04907246370567E-05,5.44921875,0,0
-2.4154944185284E-05,2.07227694772882E-05,5.44921875,0,0
-2.4235214368673E-05,2.01939856196987E-05,5.44921875,0,0
-2.46897088800324E-05,1.88870671991026E-05,5.44921875,0,0
-1.89118200069061E-05,1.3753925486526E-05,5.44921875,0,0
-2.48073411057703E-05,1.83580104931025E-05,5.44921875,0,0
-1.61690477398224E-05,1.30558692035265E-05,5.44921875,0,0
-2.23404222197132E-05,1.57859740284039E-05,5.44921875,0,0
-1.99927126232069E-05,9.90873650152935E-06,5.44921875,0,0
-2.29900033446029E-05,1.12612951852498E-05,5.44921875,0,0
-2.18811965169152E-05,1.01268415164668E-05,5.44921875,0,0
-2.585789297882E-05,9.17355100682471E-06,5.44921875,0,0
-2.6048403015011E-05,6.53511870041257E-06,5.44921875,0,0
-2.45076225837693E-05,5.88145303481724E-06,5.44921875,0,0
-2.35516818065662E-05,7.88828037912026E-06,5.44921875,0,0
-2.28615517698927E-05,1.05521830846556E-05,5.44921875,0,0
-2.35887619055575E-05,1.29096142700291E-05,5.44921875,0,0
-2.11474743991857E-05,1.12468278530287E-05,5.44921875,0,0
-2.00246995518683E-05,9.05090018932242E-06,5.44921875,0,0
-1.76771900441963E-05,5.13378518007812E-06,5.44921875,0,0
-1.88403901120182E-05,5.17510716235847E-06,5.44921875,0,0
-1.78951086127199E-05,7.38759035812109E-06,5.44921875,0,0
-1.80706556420773E-05,1.14864933493664E-05,5.44921875,0,0
-1.59092105604941E-05,1.13649484774214E-05,5.44921875,0,0
-1.63560180226341E-05,1.09923903437448E-05,5.44921875,0,0
-1.71408428286668E-05,1.113991766033E-05,5.44921875,0,0
-1.84862819878617E-05,1.30521630126168E-05,5.44921875,0,0
-1.75483255588915E-05,1.2604928087967E-05,5.44921875,0,0
-1.72387044585776E-05,1.12588249976397E-05,5.44921875,0,0
-1.92153729585698E-05,1.11134877442964E-05,5.44921875,0,0
-2.15719283005456E-05,1.13212063297397E-05,5.44921875,0,0
-1.75776658579707E-05,9.96666040009586E-06,5.44921875,0,0
-2.49490585702006E-05,1.488633279223E-05,5.44921875,0,0
-2.0178873455734E-05,1.14355498226359E-05,5.44921875,0,0
-2.5730889319675E-05,1.25445985759143E-05,5.44921875,0,0
-2.16101434489246E-05,9.48376782616833E-06,5.44921875,0,0
-2.42794740188401E-05,1.0580796697468E-05,5.44921875,0,0
-2.33122100326E-05,1.19010328489821E-05,5.44921875,0,0
-2.47643456532387E-05,1.44077248478425E-05,5.44921875,0,0
-2.3792405045242E-05,1.35484769998584E-05,5.44921875,0,0
-2.39476903516334E-05,1.11827339424053E-05,5.44921875,0,0
-2.4773939003353E-05,9.7009005912696E-06,5.44921875,0,0
-2.41486759477993E-05,9.98527502815705E-06,5.44921875,0,0
-2.5379487851751E-05,1.15779066618416E-05,5.44921875,0,0
-2.59098160313442E-05,1.18202615340124E-05,5.44921875,0,0
-2.8037258744007E-05,1.30280113808112E-05,5.44921875,0,0
-2.71865901595447E-05,1.35544360091444E-05,5.44921875,0,0
-2.75196434813552E-05,1.46254806168145E-05,5.44921875,0,0
-2.53869930020301E-05,1.46079100886709E-05,5.44921875,0,0
-2.46729923674138E-05,1.57048489199951E-05,5.44921875,0,0
-2.26749161811313E-05,1.53165201481897E-05,5.44921875,0,0
-2.23133192776004E-05,1.49620018419228E-05,5.44921875,0,0
-2.11852166103199E-05,1.50947662405088E-05,5.44921875,0,0
-2.07715511351125E-05,1.68778606166597E-05,5.44921875,0,0
-1.93496507563395E-05,1.87907971849199E-05,5.44921875,0,0
-2.02295523195062E-05,2.03512172447518E-05,5.44921875,0,0
-2.0682340618805E-05,1.99597907339921E-05,5.44921875,0,0
-1.99795777007239E-05,1.95119791897014E-05,5.44921875,0,0
-1.67633097589714E-05,1.55165416799719E-05,5.44921875,0,0
-2.4837021555868E-05,2.08807814487955E-05,5.44921875,0,0
-2.05710603040643E-05,1.28151841636281E-05,5.44921875,0,0
-2.54473216045881E-05,1.47298105730442E-05,5.44921875,0,0
-2.2291555069387E-05,1.07262367237126E-05,5.44921875,0,0
-2.5193976398441E-05,1.39596613735193E-05,5.44921875,0,0
-2.59689659287687E-05,1.48372710100375E-05,5.44921875,0,0
-2.96389771392569E-05,1.80195802386152E-05,5.44921875,0,0
-2.87802849925356E-05,1.82206076715374E-05,5.44921875,0,0
-2.60358683590312E-05,1.68189089890802E-05,5.44921875,0,0
-2.40651897911448E-05,1.54174795170547E-05,5.44921875,0,0
-2.26026659220224E-05,1.43052138810162E-05,5.44921875,0,0
-2.29652978305239E-05,1.49645693454659E-05,5.44921875,0,0
-2.24911709665321E-05,1.32816139739589E-05,5.44921875,0,0
-2.49849181273021E-05,1.26672966871411E-05,5.44921875,0,0
-2.67161249212222E-05,1.29475965877646E-05,5.44921875,0,0
-2.99643852486042E-05,1.7097265299526E-05,5.44921875,0,0
-3.0485065508401E-05,1.74306842382066E-05,5.44921875,0,0
-3.18720121867955E-05,1.56444166350411E-05,5.44921875,0,0
-3.14684984914493E-05,1.28675346786622E-05,5.44921875,0,0
-3.16947407554835E-05,1.40422644108185E-05,5.44921875,0,0
-3.0484434319078E-05,1.50061769090826E-05,5.44921875,0,0
-3.0645947845187E-05,1.60470717673888E-05,5.44921875,0,0
-3.11398034682497E-05,1.55366342369234E-05,5.44921875,0,0
-3.3288546546828E-05,1.3267524082039E-05,5.44921875,0,0
-3.41496415785514E-05,1.04978134913836E-05,5.44921875,0,0
-3.20468498102855E-05,1.02972653621691E-05,5.44921875,0,0
-2.32672300626291E-05,8.60045838635415E-06,5.44921875,0,0
-3.33703064825386E-05,1.21687417049543E-05,5.44921875,0,0
-2.65969501924701E-05,7.92157879914157E-06,5.44921875,0,0
-3.32197960233316E-05,7.40545874577947E-06,5.44921875,0,0
-2.68560488621006E-05,4.89770764033892E-06,5.44921875,0,0
-2.85724017885514E-05,6.19899856246775E-06,5.44921875,0,0
-2.52679437835468E-05,4.05778700951487E-06,5.44921875,0,0
-2.69438060058746E-05,3.17473586619599E-06,5.44921875,0,0
-2.67339582933346E-05,2.9018958684901E-06,5.44921875,0,0
-2.69299889623653E-05,4.30016234531649E-06,5.44921875,0,0
-2.70608034043107E-05,5.41602003067965E-06,5.44921875,0,0
-2.55780378211057E-05,3.75502895622049E-06,5.44921875,0,0
-2.50688153755618E-05,8.26768314254878E-07,5.44921875,0,0
-2.18035766010871E-05,-1.94332415048848E-06,5.44921875,0,0
-2.1545489289565E-05,-2.14996316572069E-06,5.44921875,0,0
-1.91701856238069E-05,-2.18822810893471E-06,5.44921875,0,0
-1.83132506208494E-05,-1.01447062661464E-06,5.44921875,0,0
-1.38634622999234E-05,-3.64120012363855E-07,5.44921875,0,0
-1.10227847471833E-05,1.01298917343229E-06,5.44921875,0,0
-6.23039704805706E-06,-2.67163557055028E-07,5.44921875,0,0
-3.78923073185433E-06,-1.36752851176425E-06,5.44921875,0,0
-6.19997877038259E-07,-1.53689950366243E-06,5.44921875,0,0
-8.80715788298403E-07,2.11586907994388E-08,5.44921875,0,0
-1.93518917512847E-06,1.44209582231269E-06,5.44921875,0,0
-3.88305397791555E-06,2.39913674704439E-06,5.44921875,0,0
-6.07260562901502E-06,4.10833808928146E-06,5.44921875,0,0
-8.65506081026979E-06,5.59550790057983E-06,5.44921875,0,0
-9.03768068383215E-06,5.74188197788317E-06,5.44921875,0,0
-1.45609665196389E-05,8.62757678987691E-06,5.44921875,0,0
-1.29635991470423E-05,5.0873509280791E-06,5.44921875,0,0
-1.51624508362147E-05,3.2659258977219E-06,5.44921875,0,0
-1.37544302560855E-05,9.79170408754726E-07,5.44921875,0,0
-1.53057062561857E-05,1.4366468121807E-06,5.44921875,0,0
-1.5348028682638E-05,1.22416224712651E-06,5.44921875,0,0
-1.68899568961933E-05,2.22528933591093E-06,5.44921875,0,0
-1.94020776689285E-05,4.0826816984918E-06,5.44921875,0,0
-2.06225049623754E-05,6.08802429269417E-06,5.44921875,0,0
-2.00590584427118E-05,7.5423672569741E-06,5.44921875,0,0
-1.93546056834748E-05,9.30736041482305E-06,5.44921875,0,0
-2.13973326026462E-05,1.09921238617972E-05,5.44921875,0,0
-2.28761073230999E-05,1.06930356196244E-05,5.44921875,0,0
-2.37281237787101E-05,1.00572660812759E-05,5.44921875,0,0
-2.37626463786E-05,9.15175860427553E-06,5.44921875,0,0
-2.67804571194574E-05,9.25585754885105E-06,5.44921875,0,0
-3.11181720462628E-05,9.24792311707279E-06,5.44921875,0,0
-3.48340508935507E-05,1.0418264537293E-05,5.44921875,0,0
-3.48130524798762E-05,1.19981441457639E-05,5.44921875,0,0
-3.40368969773408E-05,1.31670294649666E-05,5.44921875,0,0
-3.35099175572395E-05,1.20125059765996E-05,5.44921875,0,0
-3.43552383128554E-05,9.73254282143898E-06,5.44921875,0,0
-3.63631988875568E-05,6.49898356641643E-06,5.44921875,0,0
-3.75980889657512E-05,6.33205581834773E-06,5.44921875,0,0
-3.62039390893187E-05,9.86339637165656E-06,5.44921875,0,0
-3.35947843268514E-05,1.0831220606633E-05,5.44921875,0,0
-2.56862458627438E-05,5.57454177396721E-06,5.44921875,0,0
-3.63578546966892E-05,4.91830223836587E-06,5.44921875,0,0
-2.88395240204409E-05,1.14129545636388E-06,5.44921875,0,0
-3.51805283571593E-05,4.06568824473652E-06,5.44921875,0,0
-2.61557579506189E-05,2.95981271847268E-06,5.44921875,0,0
-2.880899955926E-05,3.28031751450908E-06,5.44921875,0,0
-2.61689765466144E-05,7.49269361222105E-07,5.44921875,0,0
-2.71714889095165E-05,5.34337345925451E-07,5.44921875,0,0
-2.5316878236481E-05,1.16124328997103E-06,5.44921875,0,0
-2.54785245488165E-05,2.51533083428512E-06,5.44921875,0,0
-2.59922162513249E-05,2.34112940233899E-06,5.44921875,0,0
-2.53483794949716E-05,1.3278101960168E-06,5.44921875,0,0
-2.70988512056647E-05,3.08557605421811E-06,5.44921875,0,0
-2.57511765084928E-05,5.44381009603967E-06,5.44921875,0,0
-2.55220129474765E-05,7.67700930737192E-06,5.44921875,0,0
-2.29265879170271E-05,8.03913826530334E-06,5.44921875,0,0
-2.57785995927406E-05,1.00104853117955E-05,5.44921875,0,0
-2.68606872850796E-05,1.2511232853285E-05,5.44921875,0,0
-2.96982743748231E-05,1.5591718693031E-05,5.44921875,0,0
-2.91672549792565E-05,1.58780185302021E-05,5.44921875,0,0
-3.1336021493189E-05,1.51688227560953E-05,5.44921875,0,0
-3.20144645229448E-05,1.40326328619267E-05,5.44921875,0,0
-3.45982589351479E-05,1.30433454614831E-05,5.44921875,0,0
-3.66645799658727E-05,1.26619079310331E-05,5.44921875,0,0
-3.80181409127545E-05,1.25699680211255E-05,5.44921875,0,0
-3.58433790097479E-05,1.02063040685607E-05,5.44921875,0,0
-3.26441549987067E-05,8.59790452523157E-06,5.44921875,0,0
-2.49293443630449E-05,7.91116235632217E-06,5.44921875,0,0
-3.51356502505951E-05,1.35765003506094E-05,5.44921875,0,0
-2.61170989688253E-05,1.39021103677806E-05,5.44921875,0,0
-3.13126438413747E-05,1.59173650899902E-05,5.44921875,0,0
-2.50484426942421E-05,1.48195667861728E-05,5.44921875,0,0
-2.86616996163502E-05,1.84792988875415E-05,5.44921875,0,0
-2.55746290349634E-05,1.96941236936254E-05,5.44921875,0,0
-2.53336220339406E-05,1.86171964742243E-05,5.44921875,0,0
-2.32621823670343E-05,1.53379314724589E-05,5.44921875,0,0
-2.30797904805513E-05,1.34880192490527E-05,5.44921875,0,0
-2.26958291023038E-05,1.17804538604105E-05,5.44921875,0,0
-2.13050207094057E-05,9.99468284135219E-06,5.44921875,0,0
-2.29854322242318E-05,1.08351696326281E-05,5.44921875,0,0
-2.20789970626356E-05,1.24656216939911E-05,5.44921875,0,0
-2.34964827541262E-05,1.34600368255633E-05,5.44921875,0,0
-2.25294115807628E-05,1.13774731289595E-05,5.44921875,0,0
-2.49885997618549E-05,1.1017665201507E-05,5.44921875,0,0
-2.57821302511729E-05,1.24404496091302E-05,5.44921875,0,0
-2.90591142402263E-05,1.49137313201209E-05,5.44921875,0,0
-2.85310306935571E-05,1.52634165715426E-05,5.44921875,0,0
-2.87658676825231E-05,1.47668715726468E-05,5.44921875,0,0
-2.77770977845648E-05,1.21140983537771E-05,5.44921875,0,0
-2.87133971141884E-05,1.05762073872029E-05,5.44921875,0,0
-2.80510284937918E-05,1.09306756712613E-05,5.44921875,0,0
-2.69364009000128E-05,1.00243069027783E-05,5.44921875,0,0
-2.62576304521644E-05,9.41119742492447E-06,5.44921875,0,0
-2.68174062512117E-05,1.04191149148392E-05,5.44921875,0,0
-2.16716962313512E-05,6.94397613187903E-06,5.44921875,0,0
-2.95606696454342E-05,8.02893282525474E-06,5.44921875,0,0
-2.23902625293704E-05,4.84811153000919E-06,5.44921875,0,0
-3.20404724334367E-05,6.29583655609167E-06,5.44921875,0,0
-3.09845891024452E-05,4.15776230511256E-06,5.44921875,0,0
-3.36315060849302E-05,7.03333716955967E-06,5.44921875,0,0
-2.7939486244577E-05,7.81379640102386E-06,5.44921875,0,0
-2.61159857473103E-05,1.00413817563094E-05,5.44921875,0,0
-2.45852570515126E-05,1.13992336991942E-05,5.44921875,0,0
-2.45776100200601E-05,1.405520561093E-05,5.44921875,0,0
-2.40984827541979E-05,1.66982044902397E-05,5.44921875,0,0
-2.22062608372653E-05,1.82273961399915E-05,5.44921875,0,0
-2.33198625210207E-05,1.92471325135557E-05,5.44921875,0,0
-2.28112639888423E-05,1.98174184333766E-05,5.44921875,0,0
-2.34502313105622E-05,2.25343901547603E-05,5.44921875,0,0
-1.99821279238677E-05,2.43836038862355E-05,5.44921875,0,0
-1.81902632903075E-05,2.64979953499278E-05,5.44921875,0,0
-1.57505055540241E-05,2.63568690570537E-05,5.44921875,0,0
-1.76596786332084E-05,2.70584587269695E-05,5.44921875,0,0
-1.77388701558812E-05,2.75449583568843E-05,5.44921875,0,0
-1.82509120350005E-05,2.92213571810862E-05,5.44921875,0,0
-1.59613828145666E-05,2.92421755148098E-05,5.44921875,0,0
-1.44686655403348E-05,2.7544803742785E-05,5.44921875,0,0
-1.34394540509675E-05,2.45869196078274E-05,5.44921875,0,0
-1.34646179503761E-05,2.28039061767049E-05,5.44921875,0,0
-1.27493440231774E-05,2.12195791391423E-05,5.44921875,0,0
-1.16720439109486E-05,1.97330027731368E-05,5.44921875,0,0
-8.20883815322304E-06,1.59195624291897E-05,5.44921875,0,0
-1.22307483252371E-05,2.22549097088631E-05,5.44921875,0,0
-1.08508465928026E-05,1.55380967044039E-05,5.44921875,0,0
-1.40917563840048E-05,1.67862563102972E-05,5.44921875,0,0
-1.39860358103761E-05,1.09210459413589E-05,5.44921875,0,0
-1.56931819219608E-05,1.24567359307548E-05,5.44921875,0,0
-1.4712602023792E-05,1.04412574728485E-05,5.44921875,0,0
-1.60482613864588E-05,1.14643298729789E-05,5.44921875,0,0
-1.7406255210517E-05,1.10300288724829E-05,5.44921875,0,0
-1.95207248907536E-05,1.12051784526557E-05,5.44921875,0,0
-2.10387897823239E-05,1.03194488474401E-05,5.44921875,0,0
-2.14010651689023E-05,7.08559673512354E-06,5.44921875,0,0
-2.2554622773896E-05,6.31572720521945E-06,5.44921875,0,0
-2.38346146943513E-05,6.06235744271544E-06,5.44921875,0,0
-2.65711805695901E-05,6.93594029144151E-06,5.44921875,0,0
-2.73749701591441E-05,4.83828898723004E-06,5.44921875,0,0
-2.76119135378394E-05,4.79044047096977E-06,5.44921875,0,0
-2.6919349693344E-05,4.62262050859863E-06,5.44921875,0,0
-2.74321737379069E-05,7.04813464835752E-06,5.44921875,0,0
-2.67028281086823E-05,7.50947720007389E-06,5.44921875,0,0
-2.63928941421909E-05,8.4027287812205E-06,5.44921875,0,0
-2.61360728472937E-05,6.81967458149302E-06,5.44921875,0,0
-2.59705775533803E-05,5.54090411242214E-06,5.44921875,0,0
-2.4685163225513E-05,3.87864429285401E-06,5.44921875,0,0
-2.43871509155724E-05,3.79174161935225E-06,5.44921875,0,0
-2.49566091952147E-05,3.6335623008199E-06,5.44921875,0,0
-2.53310608968604E-05,3.40662973030703E-06,5.44921875,0,0
-1.97147383005358E-05,9.78846742327733E-07,5.44921875,0,0
-2.7692844014382E-05,1.33257390189101E-06,5.44921875,0,0
-2.23039769480238E-05,1.05066101241391E-06,5.44921875,0,0
-2.93110133497976E-05,4.20154094626923E-07,5.44921875,0,0
-2.42603728111135E-05,8.45975534957688E-07,5.44921875,0,0
-2.54055357800098E-05,3.70499742530228E-06,11.77734375,0,0
-2.30847872444429E-05,5.34266064278199E-06,11.77734375,0,0
-2.57677929766942E-05,5.55115775568993E-06,11.77734375,0,0
-2.53805719694356E-05,4.15064050685032E-06,11.77734375,0,0
-2.44585426116828E-05,4.31715170634561E-06,11.77734375,0,0
-2.3325137590291E-05,6.84918313709204E-06,11.77734375,0,0
-2.21390728256665E-05,8.39054973766906E-06,11.77734375,0,0
-2.225391290267E-05,8.18053376860917E-06,11.77734375,0,0
-1.92003226402448E-05,7.86294640420238E-06,11.77734375,0,0
-1.8400667613605E-05,8.05262880021473E-06,11.77734375,0,0
-1.85758854058804E-05,9.51696347328834E-06,11.77734375,0,0
-2.34404069487937E-05,1.29374202515464E-05,11.77734375,0,0
-2.58003565249965E-05,1.52809188875835E-05,11.77734375,0,0
-2.88468600047054E-05,1.54896424646722E-05,11.77734375,0,0
-2.83954341284698E-05,1.50966352521209E-05,11.77734375,0,0
-2.82942801277386E-05,1.55214402184356E-05,11.77734375,0,0
-2.59831958828727E-05,1.52272150444333E-05,11.77734375,0,0
-2.47309799306095E-05,1.40032998388051E-05,11.77734375,0,0
-2.26580978051061E-05,1.37401902975398E-05,11.77734375,0,0
-2.2746065951651E-05,1.52733973663999E-05,11.77734375,0,0
-2.24944433284691E-05,1.70774965226883E-05,11.77734375,0,0
-2.25934672926087E-05,1.65636665769853E-05,11.77734375,0,0
-1.87939604074927E-05,1.18213565656333E-05,11.77734375,0,0
-2.59098487731535E-05,1.56751229951624E-05,11.77734375,0,0
-1.70636267284863E-05,9.95306618278846E-06,11.77734375,0,0
-2.00076701730723E-05,1.31892475110362E-05,11.77734375,0,0
-1.62495161930565E-05,1.09368056655512E-05,11.77734375,0,0
-2.0023968318128E-05,1.1050479770347E-05,11.77734375,0,0
-2.07735811272869E-05,7.00178861734457E-06,11.77734375,0,0
-2.48754222411662E-05,6.11849691267707E-06,11.77734375,0,0
-2.50303764914861E-05,5.06543938172399E-06,11.77734375,0,0
-2.36311134358402E-05,4.9702075557434E-06,11.77734375,0,0
-2.17995202547172E-05,5.39189568371512E-06,11.77734375,0,0
-2.01248549274169E-05,4.6236032176239E-06,11.77734375,0,0
-2.02918054128531E-05,5.1280030675116E-06,11.77734375,0,0
-1.83170777745545E-05,4.88250452690409E-06,11.77734375,0,0
-1.90494574781042E-05,5.1420065574348E-06,11.77734375,0,0
-1.91308481589658E-05,3.16033379021974E-06,11.77734375,0,0
-2.06151271413546E-05,2.49911954597337E-06,11.77734375,0,0
-1.80081660801079E-05,1.68094902619487E-06,11.77734375,0,0
-1.70226539921714E-05,1.71967531059636E-06,11.77734375,0,0
-1.59561022883281E-05,-7.90164222053136E-07,11.77734375,0,0
-1.74259657796938E-05,-2.00502972802497E-06,11.77734375,0,0
-1.8906785044237E-05,-1.51035260387289E-06,11.77734375,0,0
-2.15862819459289E-05,2.36836422118358E-06,11.77734375,0,0
-2.21695354412077E-05,5.30314673596877E-06,11.77734375,0,0
-2.27843611355638E-05,7.22578351997072E-06,11.77734375,0,0
-2.31752510444494E-05,9.14185693545733E-06,11.77734375,0,0
-2.47478656092426E-05,1.00288834801177E-05,11.77734375,0,0
-2.00144986592932E-05,7.49570153857348E-06,11.77734375,0,0
-2.64737791439984E-05,1.14265703814453E-05,11.77734375,0,0
-1.75524546648376E-05,1.04001001091092E-05,11.77734375,0,0
-2.56478615483502E-05,1.36627077154117E-05,11.77734375,0,0
-2.76544087682851E-05,1.4047788681637E-05,11.77734375,0,0
-3.64213155990001E-05,1.53242090163985E-05,11.77734375,0,0
-3.82989564968739E-05,1.17127028715913E-05,11.77734375,0,0
-4.06423241656739E-05,1.06601601146394E-05,11.77734375,0,0
-3.93190966860857E-05,1.28108213175437E-05,11.77734375,0,0
-3.9489270420745E-05,1.68329952430213E-05,11.77734375,0,0
-4.10072789236438E-05,1.74581418832531E-05,11.77734375,0,0
-4.14113601436839E-05,1.49342413351405E-05,11.77734375,0,0
-4.2907748138532E-05,1.59547307703178E-05,11.77734375,0,0
-4.19174975831993E-05,2.02231076400494E-05,11.77734375,0,0
-4.17397459386848E-05,2.46475556195946E-05,11.77734375,0,0
-3.92481342714746E-05,2.52483041549567E-05,11.77734375,0,0
-4.04698002967052E-05,2.48804408329306E-05,11.77734375,0,0
-4.0236674976768E-05,2.32416259677848E-05,11.77734375,0,0
-4.00801218347624E-05,2.44676448346581E-05,11.77734375,0,0
-3.60664853360504E-05,2.73477835435187E-05,11.77734375,0,0
-3.4077231248375E-05,2.93136617983691E-05,11.77734375,0,0
-3.25297296512872E-05,2.78255702141905E-05,11.77734375,0,0
-3.18661695928313E-05,2.44994735112414E-05,11.77734375,0,0
-2.89529671135824E-05,2.06021486519603E-05,11.77734375,0,0
-2.69856991508277E-05,1.89146940101637E-05,11.77734375,0,0
-2.67380964942276E-05,1.76090707100229E-05,11.77734375,0,0
-2.63115380221279E-05,1.70173170772614E-05,11.77734375,0,0
-1.89411384781124E-05,1.4829218343948E-05,11.77734375,0,0
-2.58311647485243E-05,2.12343602470355E-05,11.77734375,0,0
-1.8988028386957E-05,1.67648922797525E-05,11.77734375,0,0
-2.60078340943437E-05,1.92210973182227E-05,11.77734375,0,0
-2.53142061410472E-05,1.21606835818966E-05,11.77734375,0,0
-2.97927053907188E-05,1.13602345663821E-05,11.77734375,0,0
-2.67912600975251E-05,8.84858036442893E-06,11.77734375,0,0
-2.63742240349529E-05,1.00689576356672E-05,11.77734375,0,0
-2.47600055445218E-05,1.01795176306041E-05,11.77734375,0,0
-2.42418427660596E-05,1.10892397060525E-05,11.77734375,0,0
-2.35308343690122E-05,1.17924309961381E-05,11.77734375,0,0
-2.17890683416044E-05,9.49304376263171E-06,11.77734375,0,0
-2.22616890823701E-05,7.00119198882021E-06,11.77734375,0,0
-2.06251916097244E-05,4.96362281410256E-06,11.77734375,0,0
-1.91565304703545E-05,6.79743016007706E-06,11.77734375,0,0
-1.55475827341434E-05,6.71093721393845E-06,11.77734375,0,0
-1.66222635016311E-05,5.87693511988618E-06,11.77734375,0,0
-1.83502361323917E-05,2.79882101494877E-06,11.77734375,0,0
-2.20440306293312E-05,1.99880241780193E-06,11.77734375,0,0
-2.14079227589536E-05,6.64776507619536E-07,11.77734375,0,0
-2.12059039768064E-05,1.9408739717619E-06,11.77734375,0,0
-2.09772497328231E-05,2.95758673019009E-06,11.77734375,0,0
-2.30901223403635E-05,4.18958552472759E-06,11.77734375,0,0
-2.51289748121053E-05,4.57172927781357E-06,11.77734375,0,0
-2.75370221061166E-05,5.69960047869245E-06,11.77734375,0,0
-2.84265443042386E-05,5.22921345691429E-06,11.77734375,0,0
-2.76867176580708E-05,4.40174972027307E-06,11.77734375,0,0
-2.0560457414831E-05,2.0766078705492E-06,11.77734375,0,0
-2.85622700175736E-05,1.15989132609684E-06,11.77734375,0,0
-2.15695617953315E-05,-1.75591981133039E-06,11.77734375,0,0
-2.74715112027479E-05,-1.97236181520566E-06,11.77734375,0,0
-2.31536414503353E-05,-2.44206057686824E-06,11.77734375,0,0
-2.5882211048156E-05,-2.40449026023271E-07,11.77734375,0,0
-2.21403715841006E-05,2.76021569334262E-06,11.77734375,0,0
-2.12887698580744E-05,5.9073131524201E-06,11.77734375,0,0
-1.87701025424758E-05,9.57795055001043E-06,11.77734375,0,0
-1.85596200026339E-05,1.27926059576566E-05,11.77734375,0,0
-2.00486247194931E-05,1.39843396027572E-05,11.77734375,0,0
-1.95132761291461E-05,1.37890237965621E-05,11.77734375,0,0
-1.89467991731362E-05,1.48147028085077E-05,11.77734375,0,0
-1.68422157003079E-05,1.75802670128178E-05,11.77734375,0,0
-1.83234151336364E-05,2.10451489692787E-05,11.77734375,0,0
-1.78574027813738E-05,2.26925421884516E-05,11.77734375,0,0
-1.84893415280385E-05,2.26173615374137E-05,11.77734375,0,0
-1.53636319737416E-05,2.10012640309287E-05,11.77734375,0,0
-1.31677006720565E-05,1.89191650861176E-05,11.77734375,0,0
-8.59629562910413E-06,1.67073449119926E-05,11.77734375,0,0
-6.54235100228107E-06,1.5519774024142E-05,11.77734375,0,0
-5.66991820960538E-06,1.5025583707029E-05,11.77734375,0,0
-7.24159554010839E-06,1.55165707838023E-05,11.77734375,0,0
-6.82037034493987E-06,1.72940399352228E-05,11.77734375,0,0
-6.36194545222679E-06,1.89540860446868E-05,11.77734375,0,0
-5.84146073379088E-06,1.94216190720908E-05,11.77734375,0,0
-6.14984082858427E-06,1.712555422273E-05,11.77734375,0,0
-4.26973747380544E-06,9.78121079242555E-06,11.77734375,0,0
-4.37256403529318E-06,1.1588963388931E-05,11.77734375,0,0
-2.7079852316092E-06,8.17225827631773E-06,11.77734375,0,0
-6.96622737450525E-06,1.63057920872234E-05,11.77734375,0,0
-9.1692900241469E-06,1.80193219421199E-05,11.77734375,0,0
-1.16127666842658E-05,1.92476964002708E-05,11.77734375,0,0
-1.19520109365112E-05,1.41442333188024E-05,11.77734375,0,0
-1.25355063573807E-05,1.15260736492928E-05,11.77734375,0,0
-1.37505385282566E-05,1.11908311737352E-05,11.77734375,0,0
-1.58315851876978E-05,1.22037317851209E-05,11.77734375,0,0
-1.85155950020999E-05,1.27242274174932E-05,11.77734375,0,0
-2.17140041058883E-05,1.28695792227518E-05,11.77734375,0,0
-2.40941953961737E-05,1.44685791383381E-05,11.77734375,0,0
-2.30703553825151E-05,1.37974029712495E-05,11.77734375,0,0
-2.16266889765393E-05,1.27261873785756E-05,11.77734375,0,0
-2.20274432649603E-05,1.35978643811541E-05,11.77734375,0,0
-2.54344104178017E-05,2.02884530153824E-05,11.77734375,0,0
-2.86025133391377E-05,2.48876149271382E-05,11.77734375,0,0
-3.06460206047632E-05,2.60723991232226E-05,11.77734375,0,0
-3.13344899041113E-05,2.38501870626351E-05,11.77734375,0,0
-3.28276437357999E-05,2.24549548875075E-05,11.77734375,0,0
-3.29485701513477E-05,1.98145971808117E-05,11.77734375,0,0
-3.10294453811366E-05,1.58415277837776E-05,11.77734375,0,0
-2.91280612145783E-05,1.17366380436579E-05,11.77734375,0,0
-2.95594763883855E-05,9.74090107774828E-06,11.77734375,0,0
-3.0850620532874E-05,9.07409867068054E-06,11.77734375,0,0
-3.1942061468726E-05,1.0370777999924E-05,11.77734375,0,0
-2.62283319898415E-05,8.9941549958894E-06,11.77734375,0,0
-3.73964176105801E-05,1.27640396385686E-05,11.77734375,0,0
-2.71531262114877E-05,1.01212972367648E-05,11.77734375,0,0
-3.3347234420944E-05,1.26755394376232E-05,11.77734375,0,0
-2.90126463369234E-05,8.78541140991729E-06,11.77734375,0,0
-3.35577169607859E-05,5.79688276047818E-06,11.77734375,0,0
-2.97187889373163E-05,3.27741099681589E-06,11.77734375,0,0
-2.94914952974068E-05,6.1600858316524E-06,11.77734375,0,0
-2.83354384009726E-05,7.23426092008594E-06,11.77734375,0,0
-2.95601003017509E-05,6.67920039632008E-06,11.77734375,0,0
-3.09854476654436E-05,6.30947988611297E-06,11.77734375,0,0
-3.04745553876273E-05,5.47971876585507E-06,11.77734375,0,0
-3.18830934702419E-05,4.6227837628976E-06,11.77734375,0,0
-3.09566712530795E-05,4.66940900878399E-06,11.77734375,0,0
-3.24878637911752E-05,7.47853164284606E-06,11.77734375,0,0
-3.06416222883854E-05,8.61687112774234E-06,11.77734375,0,0
-3.00011743092909E-05,9.77006129687652E-06,11.77734375,0,0
-2.57007341133431E-05,8.40545635583112E-06,11.77734375,0,0
-2.4614697395009E-05,7.023656507954E-06,11.77734375,0,0
-2.23744646064006E-05,6.3984743974288E-06,11.77734375,0,0
-2.26305619435152E-05,8.83265875017969E-06,11.77734375,0,0
-2.12031864066375E-05,9.35844855121104E-06,11.77734375,0,0
-2.11330079764593E-05,8.23151731310645E-06,11.77734375,0,0
-2.06229378818534E-05,9.50223420659313E-06,11.77734375,0,0
-2.11745409615105E-05,1.22879773698514E-05,11.77734375,0,0
-2.03603995032609E-05,1.18563275464112E-05,11.77734375,0,0
-1.96190703718457E-05,1.06002771644853E-05,11.77734375,0,0
-1.73300395545084E-05,8.99382757779676E-06,11.77734375,0,0
-2.63770107267192E-05,1.236795924342E-05,11.77734375,0,0
-2.23296137846773E-05,9.42535643844167E-06,11.77734375,0,0
-2.6935973437503E-05,1.23973677546019E-05,11.77734375,0,0
-2.46560557570774E-05,1.12155848910334E-05,11.77734375,0,0
-2.75170586974127E-05,1.26613431348233E-05,11.77734375,0,0
-2.46740637521725E-05,1.10463133751182E-05,11.77734375,0,0
-2.43089652940398E-05,1.10519722511526E-05,11.77734375,0,0
-2.3380336642731E-05,1.01734622148797E-05,11.77734375,0,0
-2.33195605687797E-05,1.08575877675321E-05,11.77734375,0,0
-2.41717880271608E-05,1.19310279842466E-05,11.77734375,0,0
-2.41825509874616E-05,1.10494147520512E-05,11.77734375,0,0
-2.55206396104768E-05,1.04334603747702E-05,11.77734375,0,0
-2.58163963735569E-05,9.11762072064448E-06,11.77734375,0,0
-2.71933149633696E-05,9.24486539588543E-06,11.77734375,0,0
-2.55721133726183E-05,9.08352922124323E-06,11.77734375,0,0
-2.65641010628315E-05,9.6972598839784E-06,11.77734375,0,0
-2.78808638540795E-05,7.79514812165871E-06,11.77734375,0,0
-3.02682783512864E-05,6.86501243762905E-06,11.77734375,0,0
-2.93788089038571E-05,7.23544917491381E-06,11.77734375,0,0
-3.00376141240122E-05,1.02225312730297E-05,11.77734375,0,0
-3.13318487314973E-05,1.14125159598188E-05,11.77734375,0,0
-3.35079275828321E-05,1.05478093246347E-05,11.77734375,0,0
-3.42285857186653E-05,8.66846312419511E-06,11.77734375,0,0
-3.45196494890843E-05,6.90608931108727E-06,11.77734375,0,0
-3.28106216329616E-05,5.99792292632628E-06,11.77734375,0,0
-3.05414287140593E-05,6.65064044369501E-06,11.77734375,0,0
-2.29985453188419E-05,5.05252182847471E-06,11.77734375,0,0
-3.1136987672653E-05,6.61977082927478E-06,11.77734375,0,0
-2.16116422961932E-05,4.32724664278794E-06,11.77734375,0,0
-2.61507557297591E-05,5.97989037487423E-06,11.77734375,0,0
-2.03222971322248E-05,6.21290701019461E-06,11.77734375,0,0
-2.4865441446309E-05,9.2394120656536E-06,11.77734375,0,0
-2.31375961448066E-05,1.10718674477539E-05,11.77734375,0,0
-2.49171371251578E-05,1.14609511001618E-05,11.77734375,0,0
-2.50790781137766E-05,9.43151644605678E-06,11.77734375,0,0
-2.73099285550416E-05,7.95024152466794E-06,11.77734375,0,0
-2.84190464299172E-05,7.61451110520284E-06,11.77734375,0,0
-2.61655204667477E-05,6.64805247652112E-06,11.77734375,0,0
-2.55240793194389E-05,5.2135978876322E-06,11.77734375,0,0
-2.46521558437962E-05,3.22657251672354E-06,11.77734375,0,0
-2.77884028037079E-05,1.67833729847189E-06,11.77734375,0,0
-2.91815722448519E-05,-9.58870103318077E-08,11.77734375,0,0
-3.38080135406926E-05,-1.00843431027897E-06,11.77734375,0,0
-3.37292221956886E-05,-1.74674789832352E-06,11.77734375,0,0
-3.35844779328909E-05,6.45910773755531E-08,11.77734375,0,0
-3.11304174829274E-05,3.94495509681292E-06,11.77734375,0,0
-3.16902442136779E-05,7.50977642383077E-06,11.77734375,0,0
-3.17047160933726E-05,5.90741228734259E-06,11.77734375,0,0
-3.29538415826391E-05,2.19753746932838E-06,11.77734375,0,0
-3.30871771438979E-05,1.8892707203122E-06,11.77734375,0,0
-3.45025509886909E-05,4.39895484305453E-06,11.77734375,0,0
-3.4902539482573E-05,4.77642424812075E-06,11.77734375,0,0
-3.36787561536767E-05,4.17941646446707E-06,11.77734375,0,0
-2.46527597482782E-05,3.95678807763034E-06,11.77734375,0,0
-3.31759911205154E-05,7.70821316109505E-06,11.77734375,0,0
-2.27661512326449E-05,9.10966446099337E-06,11.77734375,0,0
-2.80229724012315E-05,1.10842065623729E-05,11.77734375,0,0
-2.05921678571031E-05,1.16118535515852E-05,11.77734375,0,0
-2.16781118069775E-05,1.24345251606428E-05,11.77734375,0,0
-1.75136992766056E-05,1.22914443636546E-05,11.77734375,0,0
-1.86901379493065E-05,1.38586556204245E-05,11.77734375,0,0
-1.71402225532802E-05,1.42453091029893E-05,11.77734375,0,0
-1.69328104675515E-05,1.44311070471304E-05,11.77734375,0,0
-1.84077725862153E-05,1.55250290845288E-05,19.51171875,0,0
-1.81851464731153E-05,1.59985156642506E-05,19.51171875,0,0
-1.82616640813649E-05,1.58357761392836E-05,19.51171875,0,0
-1.60862709890353E-05,1.6622294424451E-05,19.51171875,0,0
-1.70823950611521E-05,1.86794750334229E-05,19.51171875,0,0
-1.55810703290626E-05,2.00124086404685E-05,19.51171875,0,0
-1.68496917467564E-05,2.07065950235119E-05,19.51171875,0,0
-1.52739266923163E-05,1.95569464267464E-05,19.51171875,0,0
-1.63087097462267E-05,1.85524822882144E-05,19.51171875,0,0
-1.47910277519259E-05,1.79984417627566E-05,19.51171875,0,0
-1.48753124449286E-05,1.84831005753949E-05,19.51171875,0,0
-1.45887906910502E-05,1.89189195225481E-05,19.51171875,0,0
-1.75832992681535E-05,1.84129912668141E-05,19.51171875,0,0
-1.9168184735463E-05,1.71662632055813E-05,19.51171875,0,0
-1.87968216778245E-05,1.7079068129533E-05,19.51171875,0,0
-1.6185678759939E-05,1.70783132489305E-05,19.51171875,0,0
-1.34669098770246E-05,1.59573428391013E-05,19.51171875,0,0
-8.91023591975681E-06,1.18252255560947E-05,19.51171875,0,0
-1.23871868709102E-05,1.69871400430566E-05,19.51171875,0,0
-1.07190744529362E-05,1.27497651192243E-05,19.51171875,0,0
-1.47078662848799E-05,1.53987512021558E-05,19.51171875,0,0
-1.39107605718891E-05,1.19511405500816E-05,19.51171875,0,0
-1.56453024828807E-05,1.09782831714256E-05,19.51171875,0,0
-1.46288693940733E-05,6.31555121799465E-06,19.51171875,0,0
-1.64433658937924E-05,4.86572344016167E-06,19.51171875,0,0
-1.79710332304239E-05,3.90093964597327E-06,19.51171875,0,0
-1.87384503078647E-05,3.74180990547757E-06,19.51171875,0,0
-2.03514791792259E-05,3.02660737361293E-06,19.51171875,0,0
-2.15384388866369E-05,1.07733455934067E-06,19.51171875,0,0
-2.26315605686978E-05,5.66498556509032E-07,19.51171875,0,0
-2.33044902415713E-05,4.26813244303048E-07,19.51171875,0,0
-2.53000089287525E-05,1.51170445406024E-06,19.51171875,0,0
-2.45255760091823E-05,1.72891100191919E-06,19.51171875,0,0
-2.43728354689665E-05,4.84614747620071E-06,19.51171875,0,0
-2.38851716858335E-05,8.8491333372076E-06,19.51171875,0,0
-2.32433230848983E-05,1.38763534778263E-05,19.51171875,0,0
-2.08349174499745E-05,1.55231737153372E-05,19.51171875,0,0
-2.0241663150955E-05,1.65177261806093E-05,19.51171875,0,0
-2.08771270990837E-05,1.61537573148962E-05,19.51171875,0,0
-2.26802731049247E-05,1.80681181518594E-05,19.51171875,0,0
-2.24292234634049E-05,2.10598027479136E-05,19.51171875,0,0
-1.95770935533801E-05,2.21212540054694E-05,19.51171875,0,0
-1.60661365953274E-05,2.00656158995116E-05,19.51171875,0,0
-1.44823961818474E-05,1.80894294317113E-05,19.51171875,0,0
-1.27937473735074E-05,1.38851937663276E-05,19.51171875,0,0
-2.01677357836161E-05,1.93452724488452E-05,19.51171875,0,0
-1.79872185981367E-05,1.4976819329604E-05,19.51171875,0,0
-2.06666336453054E-05,2.00023441720987E-05,19.51171875,0,0
-1.63932927534916E-05,1.75947698153323E-05,19.51171875,0,0
-1.75997047335841E-05,1.95146476471564E-05,19.51171875,0,0
-1.66469872056041E-05,1.87200821528677E-05,19.51171875,0,0
-1.65406781889033E-05,2.07246139325434E-05,19.51171875,0,0
-1.49527159010177E-05,2.10145317396382E-05,19.51171875,0,0
-1.54606186697492E-05,2.05427986657014E-05,19.51171875,0,0
-1.80467050086008E-05,1.9408038497204E-05,19.51171875,0,0
-2.07219054573216E-05,1.85313438123558E-05,19.51171875,0,0
-2.41740108322119E-05,1.9755234461627E-05,19.51171875,0,0
-2.62981211562874E-05,1.8609018297866E-05,19.51171875,0,0
-2.95182126137661E-05,1.62701817316702E-05,19.51171875,0,0
-3.11085932480637E-05,1.27823986986186E-05,19.51171875,0,0
-3.38061436195858E-05,1.43502275022911E-05,19.51171875,0,0
-3.42742569046095E-05,1.56054175022291E-05,19.51171875,0,0
-3.4574324672576E-05,1.62905980687356E-05,19.51171875,0,0
-3.34101132466458E-05,1.42673579830443E-05,19.51171875,0,0
-3.33154639520217E-05,1.28435367514612E-05,19.51171875,0,0
-3.13121308863629E-05,9.80923323368188E-06,19.51171875,0,0
-2.9219598218333E-05,7.81675771577284E-06,19.51171875,0,0
-2.87492293864489E-05,5.68318591831485E-06,19.51171875,0,0
-3.01293894153787E-05,4.97394012199948E-06,19.51171875,0,0
-3.04998939100187E-05,5.63276444154326E-06,19.51171875,0,0
-2.89272429654375E-05,6.48297009320231E-06,19.51171875,0,0
-2.16235803236486E-05,6.42968143438338E-06,19.51171875,0,0
-3.05305984511506E-05,9.45750161918113E-06,19.51171875,0,0
