biceps_emg, triceps_emg, subject_position, position_estimate, brace_position
1.42095336741477E-06,-1.36513335746713E-05,0,0,0
7.71926636389253E-07,-1.16616456580232E-05,0,0,0
4.23564188167802E-07,-1.13643418444553E-05,0,0,0
7.81307960551203E-07,-9.98395262286067E-06,0,0,0
2.03470403903339E-06,-1.00522483990062E-05,0,0,0
2.22970811591949E-06,-1.09475004137494E-05,0,0,0
1.10317512280744E-06,-1.17472700367216E-05,0,0,0
1.36130529426737E-06,-1.10414930531988E-05,0,0,0
3.90782270187628E-06,-1.72390027728397E-05,0,0,0
4.59088960269582E-06,-1.50099340316956E-05,0,0,0
3.97448638977949E-06,-1.87583082151832E-05,0,0,0
3.72515410163032E-06,-1.93343330465723E-05,0,0,0
4.47152842752985E-06,-2.33383325394243E-05,0,0,0
5.18149272465962E-06,-2.44780112552689E-05,0,0,0
4.23982100983267E-06,-2.57267947745277E-05,0,0,0
2.96365851681912E-06,-2.18937784666196E-05,0,0,0
2.23280380851065E-06,-1.65920955623733E-05,0,0,0
1.57132365075086E-06,-1.38061404868495E-05,0,0,0
1.49064294419077E-06,-1.38231116579846E-05,0,0,0
2.00950557882607E-06,-1.50864661918604E-05,0,0,0
2.03582749236375E-06,-1.52360307765775E-05,0,0,0
2.04751745513931E-06,-1.68773804034572E-05,0,0,0
2.15547174775566E-06,-1.67693924595369E-05,0,0,0
1.42692738336336E-06,-1.67930083989631E-05,0,0,0
4.49950505299057E-07,-1.6119882275234E-05,0,0,0
3.74887946463787E-07,-1.9091836293228E-05,0,0,0
1.20636025258136E-06,-2.2250545953284E-05,0,0,0
1.78377445081424E-06,-2.4611537810415E-05,0,0,0
1.36349626700394E-06,-2.42967253143433E-05,0,0,0
1.39481699079624E-06,-2.25534022320062E-05,0,0,0
1.7092843336286E-06,-1.83340162038803E-05,0,0,0
1.11258725610242E-06,-1.43989900607266E-05,0,0,0
5.99968188907951E-07,-1.29343225125922E-05,0,0,0
4.31103075015926E-07,-1.28971350932261E-05,0,0,0
9.45929343743046E-07,-9.39189339987934E-06,0,0,0
2.67705672740703E-06,-1.33565872602048E-05,0,0,0
3.43975580108236E-06,-1.06774559753831E-05,0,0,0
2.57322108154767E-06,-1.39141211548122E-05,0,0,0
1.78300183506508E-06,-1.3747338016401E-05,0,0,0
2.61087143371697E-06,-1.85289591172477E-05,0,0,0
2.33702303376049E-06,-2.02202645596117E-05,0,0,0
1.22724020457099E-06,-2.09813642868539E-05,0,0,0
9.2731517042921E-07,-1.94528984138742E-05,0,0,0
2.56763973993657E-06,-1.91249673662242E-05,0,0,0
4.99294264955097E-06,-1.95817265193909E-05,0,0,0
5.11753114551539E-06,-1.90026712516556E-05,0,0,0
3.68506857739703E-06,-1.8048616766464E-05,0,0,0
2.6352577151556E-06,-1.73128246387932E-05,0,0,0
3.28168493979319E-06,-1.84356485988246E-05,0,0,0
5.6651051636436E-06,-1.76149387698388E-05,0,0,0
7.72678504290525E-06,-1.71386927831918E-05,0,0,0
7.87757016951218E-06,-1.6045625670813E-05,0,0,0
7.1624172051088E-06,-1.61803345690714E-05,0,0,0
6.82594372847234E-06,-1.48776580317644E-05,0,0,0
5.69139683648245E-06,-1.46726670209318E-05,0,0,0
4.10404481954174E-06,-1.38789228003589E-05,0,0,0
3.47161790159589E-06,-1.22854826258845E-05,0,0,0
2.77933941106312E-06,-8.79154777067015E-06,0,0,0
1.91169351637654E-06,-6.21635354036698E-06,0,0,0
1.53715564010781E-06,-7.40688938094536E-06,0,0,0
2.23004008148564E-06,-1.12273473860114E-05,0,0,0
2.85792270915408E-06,-1.33539624584955E-05,0,0,0
5.11709322381648E-06,-2.05268861463992E-05,0,0,0
6.39457402940025E-06,-1.46119064083905E-05,0,0,0
7.08798779669451E-06,-1.51037975228974E-05,0,0,0
4.52404765383108E-06,-1.30320195239619E-05,0,0,0
3.72347858501598E-06,-1.41209611683735E-05,0,0,0
1.62327626185288E-06,-1.25564347399632E-05,0,0,0
-5.27613295275842E-08,-1.47240853038966E-05,0,0,0
-2.26556252869159E-07,-1.63313870871207E-05,0,0,0
4.80048015560897E-07,-1.76467001438141E-05,0,0,0
6.91241325512237E-07,-1.82064377440838E-05,0,0,0
6.25188420144696E-07,-1.70730272657238E-05,0,0,0
1.11633244159748E-06,-1.5670906577725E-05,0,0,0
1.3616058822663E-06,-1.31346905618557E-05,0,0,0
9.05270837847638E-07,-1.30829166664626E-05,0,0,0
-2.41310345927559E-07,-1.20087070172303E-05,0,0,0
-8.72001137963707E-08,-1.1599298886722E-05,0,0,0
1.0823879392774E-06,-1.02019275800558E-05,0,0,0
3.68914584214508E-06,-1.05038234323729E-05,0,0,0
5.78286926611327E-06,-9.72592351899948E-06,0,0,0
5.36335755896289E-06,-9.03826094145188E-06,0,0,0
2.14350438909605E-06,-7.40745417715516E-06,0,0,0
-4.35179231317306E-07,-7.66749053582316E-06,0,0,0
-1.41381815410568E-06,-9.92336026683915E-06,0,0,0
-1.45278158925066E-06,-1.53149103425676E-05,0,0,0
-1.55972759330325E-06,-1.99815276573645E-05,0,0,0
-1.62929666203127E-06,-2.32223992497893E-05,0,0,0
-1.20779372991819E-06,-2.24500199692557E-05,0,0,0
-8.38383016343869E-07,-3.31254050252028E-05,0,0,0
2.52959093671734E-08,-2.4778541046544E-05,0,0,0
-2.44145803662832E-06,-2.78170209639939E-05,0,0,0
-4.08171536037116E-06,-2.21874106500763E-05,0,0,0
-2.74528156296583E-06,-2.51316141657298E-05,0,0,0
2.04359980671143E-06,-2.09681238629855E-05,0,0,0
4.66406072519021E-06,-1.84519121830817E-05,0,0,0
3.53480731973832E-06,-1.5228798474709E-05,0,0,0
1.54062058754789E-06,-1.46651536852005E-05,0,0,0
1.33051310058363E-06,-1.62775759235956E-05,0,0,0
2.71389876616013E-06,-1.80297156475717E-05,0,0,0
4.02078876504675E-06,-2.10966336453566E-05,0,0,0
4.38500683230814E-06,-1.99740461539477E-05,0,0,0
3.43642341249506E-06,-1.88932244782336E-05,0,0,0
3.69716917703045E-06,-1.56193291331874E-05,0,0,0
5.57326075067976E-06,-1.68763835972641E-05,0,0,0
7.11157372279558E-06,-1.75322838913416E-05,0,0,0
7.28716986486688E-06,-1.98044235730777E-05,0,0,0
7.4658000812633E-06,-2.03650088224094E-05,0,0,0
6.82641484672786E-06,-2.3236812921823E-05,0,0,0
5.01075373904314E-06,-2.4298495191033E-05,0,0,0
3.02238913718611E-06,-2.59657335845986E-05,0,0,0
1.70692976553255E-06,-2.50840203079861E-05,0,0,0
2.09704899134522E-06,-2.37779804592719E-05,0,0,0
4.57974101664149E-06,-2.22546896111453E-05,0,0,0
5.10516474605538E-06,-2.03964846150484E-05,0,0,0
3.66969993592647E-06,-1.58104448928498E-05,0,0,0
5.49327978660585E-06,-2.30888290388975E-05,0,0,0
3.60020135303785E-06,-1.85845474334201E-05,0,0,0
2.91352580461535E-06,-2.26636529987445E-05,0,0,0
8.68472739057324E-07,-1.81690265890211E-05,0,0,0
3.17093849844241E-07,-1.86381384992274E-05,0,0,0
-9.80863205768401E-07,-1.66516201716149E-05,0,0,0
-1.34443382648897E-06,-1.68401493283454E-05,0,0,0
-1.3335901485334E-06,-1.51488211486139E-05,0,0,0
-9.95741515907866E-07,-1.53655983012868E-05,0,0,0
-6.20943467311008E-07,-1.67551097547403E-05,0,0,0
-4.80352753129409E-07,-1.62143223860767E-05,0,0,0
6.51071559332195E-07,-1.57796384883113E-05,0,0,0
2.79803202829498E-06,-1.64553621289087E-05,0,0,0
4.25996177000343E-06,-2.09087793336948E-05,0,0,0
2.4966332148324E-06,-2.38554530369584E-05,0,0,0
-1.10266377362223E-07,-2.65070684690727E-05,0,0,0
-1.77581318894227E-06,-2.37760177697055E-05,0,0,0
-1.36238782033615E-06,-2.14678839256521E-05,0,0,0
-9.37687218538485E-07,-1.99825462914305E-05,0,0,0
-1.47210386103325E-07,-2.1028990886407E-05,0,0,0
1.18777586521901E-06,-1.9877126760548E-05,0,0,0
2.38347047343268E-06,-1.62593532877509E-05,0,0,0
3.094036173934E-06,-1.03753127405071E-05,0,0,0
2.69645829575893E-06,-8.96954952622764E-06,0,0,0
1.91386266124027E-06,-1.20309632620774E-05,0,0,0
4.01429088014993E-06,-1.55288817040855E-05,0,0,0
5.31101341039175E-06,-1.43102934089256E-05,0,0,0
5.96557538301568E-06,-2.04343868972501E-05,0,0,0
1.69535337590787E-06,-1.50615478560212E-05,0,0,0
2.95768268188112E-06,-1.89515649253735E-05,0,0,0
2.16665694097173E-06,-1.80916449608048E-05,0,0,0
8.61461046497425E-07,-2.20865658775438E-05,0,0,0
-1.99940859602066E-06,-2.10474736377364E-05,0,0,0
-1.53722203322104E-06,-2.10041253012605E-05,0,0,0
-2.63578385784058E-07,-1.89618076547049E-05,0,0,0
7.76032607063826E-07,-1.66680783877382E-05,0,0,0
1.44337479923706E-06,-1.54638346430147E-05,0,0,0
1.7173870219267E-06,-1.38020914164372E-05,0,0,0
2.17675756175595E-06,-1.36353837660863E-05,0,0,0
1.40713927976321E-06,-1.29109403133043E-05,0,0,0
1.01148998510325E-06,-1.45872782013612E-05,0,0,0
4.99845100421226E-07,-1.41896753120818E-05,0,0,0
1.88899366548867E-06,-1.37730921778711E-05,0,0,0
2.6309346594644E-06,-1.25836604638607E-05,0,0,0
2.05326637114922E-06,-1.48456356328097E-05,0,0,0
1.86232526289132E-07,-1.56279202201404E-05,0,0,0
-4.35755111993785E-07,-1.58710663527017E-05,0,0,0
-1.37390088639222E-07,-1.56432142830454E-05,0,0,0
1.02017224890005E-06,-1.61716397997225E-05,0,0,0
1.97681902136537E-06,-1.54058307089144E-05,0,0,0
2.64147820416838E-06,-1.30693579194485E-05,0,0,0
9.40971403906588E-07,-1.03940210465225E-05,0,0,0
-7.51188395042846E-07,-1.06757397588808E-05,0,0,0
1.53672488067969E-08,-1.07759897218784E-05,0,0,0
1.56370288095786E-06,-1.7897935322253E-05,0,0,0
3.3158787573484E-06,-1.52347656694474E-05,0,0,0
4.50975812782417E-06,-1.43105062306859E-05,0,0,0
5.38415997652919E-06,-1.08043941509095E-05,0,0,0
3.59605201083468E-06,-1.41440941661131E-05,0,0,0
1.99089390662266E-06,-1.49769784911769E-05,0,0,0
2.68204280473583E-06,-1.50631140058977E-05,0,0,0
5.40335895493627E-06,-1.5092087778612E-05,0,0,0
6.8672175075335E-06,-1.61163552547805E-05,0,0,0
7.19023000783636E-06,-1.47041318996344E-05,0,0,0
7.67353867558995E-06,-1.1504161193443E-05,0,0,0
7.1655254032521E-06,-1.10551045509055E-05,0,0,0
5.21538231623708E-06,-1.33273042592919E-05,0,0,0
3.12151223624824E-06,-1.75310469785472E-05,0,0,0
2.85848636849551E-06,-1.83295542228734E-05,0,0,0
3.34602077600721E-06,-1.74801134562586E-05,0,0,0
3.87906402465887E-06,-1.48437875395757E-05,0,0,0
4.92654044137453E-06,-1.36887038024724E-05,0,0,0
6.20786886429414E-06,-1.24933567349217E-05,0,0,0
5.35579238203354E-06,-1.20573304229765E-05,0,0,0
2.96330699711689E-06,-1.12037096187123E-05,0,0,0
1.58097748226282E-06,-1.13304113256163E-05,0,0,0
2.17625733966997E-06,-1.18805646707187E-05,0,0,0
3.78236290998757E-06,-1.44957148222602E-05,0,0,0
5.22186746820807E-06,-1.73951266333461E-05,0,0,0
6.08785148870084E-06,-1.83828396984609E-05,0,0,0
4.05874288844643E-06,-1.31986553242314E-05,0,0,0
2.93796665573609E-06,-1.61487605510047E-05,0,0,0
7.41802068660036E-08,-7.44411045161542E-06,0,0,0
3.74725937035691E-06,-8.59173451317474E-06,0,0,0
2.89409899778548E-06,-5.95049596086028E-06,0,0,0
2.53919711212802E-06,-9.58037162490655E-06,0,0,0
1.79844334979862E-06,-8.39765380078461E-06,0,0,0
2.36123969443724E-06,-8.89034436113434E-06,0,0,0
1.4226113762561E-06,-8.36000890558353E-06,0,0,0
3.224080273867E-07,-8.89490820554784E-06,0,0,0
-1.06601248717197E-06,-9.67566666076891E-06,0,0,0
-2.55662007475621E-06,-1.06044981293962E-05,0,0,0
-2.55557119999139E-06,-1.29760819618241E-05,0,0,0
-1.96855694412079E-06,-1.37197248477605E-05,0,0,0
2.26390383772923E-07,-1.65743222169112E-05,0,0,0
1.54993585965713E-06,-1.8342498151469E-05,0,0,0
2.12474060390377E-06,-2.11623482755385E-05,0,0,0
1.39122323616903E-06,-2.0490595488809E-05,0,0,0
1.11915301204135E-06,-2.11161805054871E-05,0,0,0
-5.78932883854577E-07,-2.15497657336527E-05,0,0,0
-1.2602580454768E-06,-2.07685316127026E-05,0,0,0
-7.85294787419843E-07,-1.65119363373378E-05,0,0,0
-4.07217243036939E-07,-1.46843012771569E-05,0,0,0
-6.16426973465423E-07,-1.43403149195365E-05,0,0,0
-5.61280160127353E-07,-1.53663404489635E-05,0,0,0
1.02201784102363E-06,-1.73775624716654E-05,0,0,0
4.4117919060227E-06,-1.74963934114203E-05,0,0,0
4.4983867155679E-06,-1.2671499462158E-05,0,0,0
5.45982948096935E-06,-1.74617471202509E-05,0,0,0
3.15706552100892E-06,-1.30879452626687E-05,0,0,0
5.65306254429743E-06,-1.7505384676042E-05,0,0,0
5.99466829953599E-06,-1.75847580976551E-05,0,0,0
5.57905741516151E-06,-2.14684187085368E-05,0,0,0
4.05609762310633E-06,-1.84965520020342E-05,0,0,0
5.18028627993772E-06,-1.6770691217971E-05,0,0,0
5.7253791965195E-06,-1.56484347826336E-05,0,0,0
5.84796498515061E-06,-1.77741276274901E-05,0,0,0
6.11493214819347E-06,-2.11013193620602E-05,0,0,0
5.95836763750413E-06,-2.22431608563056E-05,0,0,0
5.83163682676968E-06,-2.25144267460564E-05,0,0,0
4.49351909992401E-06,-2.01702987396857E-05,0,0,0
2.39724749917514E-06,-1.85758344741771E-05,0,0,0
6.59721024476312E-07,-1.6728523405618E-05,0,0,0
2.13171688301372E-06,-1.76129669853253E-05,0,0,0
3.80986739401123E-06,-1.65768160513835E-05,0,0,0
4.19173557020258E-06,-1.64002394740237E-05,0,0,0
2.78528887065477E-06,-1.6386627976317E-05,0,0,0
1.88036108283995E-06,-1.8712966266321E-05,0,0,0
2.05888204618532E-06,-2.04492316697724E-05,0,0,0
3.83103269996354E-06,-2.32240017794538E-05,0,0,0
4.13027601098293E-06,-2.57153897109674E-05,0,0,0
2.32715910897241E-06,-2.8480379114626E-05,0,0,0
9.34312595290976E-07,-2.97012320515933E-05,0,0,0
2.2395847736334E-06,-2.98363156616688E-05,0,0,0
2.59115540757193E-06,-2.3394102754537E-05,0,0,0
3.27835914504249E-06,-3.10717805405147E-05,0,0,0
4.13137195209856E-06,-2.00769009097712E-05,0,0,0
7.07934123056475E-06,-2.59106254816288E-05,0,0,0
6.09956396147027E-06,-2.19473040488083E-05,0,0,0
5.69852909393376E-06,-2.55581016972428E-05,0,0,0
4.91779610456433E-06,-2.15944291994674E-05,0,0,0
4.42103328168741E-06,-2.22711732931202E-05,0,0,0
2.69248857875937E-06,-2.16744683712022E-05,0,0,0
1.87971500054118E-06,-2.20858855755068E-05,0,0,0
1.99725218408275E-06,-2.16877469938481E-05,0,0,0
1.28436897739448E-06,-1.81044051714707E-05,0,0,0
-8.32965980634981E-08,-1.58075290528359E-05,0,0,0
-2.26156180360704E-06,-1.19057140182122E-05,0,0,0
-2.80367589766684E-06,-1.09763723230571E-05,0,0,0
-1.02451747352461E-06,-7.6387805165723E-06,0,0,0
1.76594039658085E-06,-7.24555957276607E-06,0,0,0
2.52752488449914E-06,-5.38001722816261E-06,0,0,0
1.55990051098343E-06,-7.09366713635973E-06,0,0,0
-7.92101957358682E-07,-8.05013678473188E-06,0,0,0
-1.18245657176885E-06,-1.32108443722245E-05,0,0,0
-1.28808679278336E-07,-1.71084993780823E-05,0,0,0
3.78846038984193E-07,-1.81918221642263E-05,0,0,0
5.69906660530251E-07,-1.46682177728508E-05,0,0,0
2.12841257507534E-07,-1.33426019601757E-05,0,0,0
-3.90278415807188E-07,-1.60190793394577E-05,0,0,0
8.85614269918733E-07,-2.06098757189466E-05,0,0,0
2.46874515141826E-06,-2.14157626032829E-05,0,0,0
4.64768072561128E-06,-3.20465587719809E-05,0,0,0
4.3921700125793E-06,-2.74562735285144E-05,0,0,0
4.99786438012961E-06,-3.54269250237849E-05,0,0,0
5.37165351488511E-06,-3.24464199366048E-05,0,0,0
4.02839259550092E-06,-3.53818068106193E-05,0,0,0
2.10962707569706E-06,-3.36493249051273E-05,0,0,0
2.3162806428445E-06,-3.20249237120152E-05,0,0,0
2.5255892524001E-06,-2.68470503215212E-05,0,0,0
2.94997516903095E-06,-2.33495902648428E-05,0,0,0
3.85295925298124E-06,-2.22305843635695E-05,0,0,0
3.26038684761443E-06,-2.06070599233499E-05,0,0,0
1.84436328254378E-06,-2.05478827410843E-05,0,0,0
5.73339548282092E-07,-1.85758854058804E-05,0,0,0
-1.12599678914194E-07,-1.77740203071153E-05,0,0,0
8.70240114636545E-07,-1.49667730511283E-05,0,0,0
3.23964991366665E-06,-1.56307978613768E-05,0,0,0
3.6672645364888E-06,-1.4927274605725E-05,0,0,0
2.00717954612628E-06,-1.53128585225204E-05,0,0,0
1.54599632651298E-07,-1.28574174595997E-05,0,0,0
-2.988247445046E-07,-1.33493995235767E-05,0,0,0
-7.54465816044103E-07,-1.48263452501851E-05,0,0,0
-1.44657803957671E-06,-1.70535495271906E-05,0,0,0
-1.09186680674611E-06,-1.73090775206219E-05,0,0,0
9.95442064777308E-07,-1.68163605849259E-05,0,0,0
2.39905693888431E-06,-1.59381943376502E-05,0,0,0
2.32113251286137E-07,-1.67969556059688E-05,0,0,0
-1.07919402125844E-06,-1.43241113619297E-05,0,0,0
-1.16431317565002E-06,-2.16066691791639E-05,0,0,0
1.04889988961077E-06,-1.80535444087582E-05,0,0,0
2.75766160484636E-06,-2.03572999453172E-05,0,0,0
3.56380746779905E-06,-1.58878519869177E-05,0,0,0
3.22633559335372E-06,-1.72763411683263E-05,0,0,0
3.95910683437251E-06,-1.49599909491371E-05,0,0,0
5.34751643499476E-06,-1.52435695781605E-05,0,0,0
5.32963258592645E-06,-1.52597185660852E-05,0,0,0
3.8867988223501E-06,-1.48292510857573E-05,0,0,0
3.08875314658508E-06,-1.37023625939037E-05,0,0,0
2.95315862786083E-06,-1.25038504847907E-05,0,0,0
2.91164064947225E-06,-1.22228175314376E-05,0,0,0
3.67787743016379E-06,-1.0649932846718E-05,0,0,0
4.6257614485512E-06,-1.1615233233897E-05,0,0,0
4.40905205323361E-06,-1.16567125587608E-05,0,0,0
3.38179143000161E-06,-1.26025324789225E-05,0,0,0
3.07946629618527E-06,-1.14074646262452E-05,0,0,0
2.7602575300989E-06,-1.28786805362324E-05,0,0,0
1.40317104069254E-06,-1.4519810974889E-05,0,0,0
2.16209727454952E-07,-1.60972704179585E-05,0,0,0
1.02790420442034E-06,-1.48579119922942E-05,0,0,0
2.54992892223527E-06,-1.22782848848146E-05,0,0,0
3.47183458870859E-06,-9.45867850532522E-06,0,0,0
4.54556720796973E-06,-1.12057832666324E-05,0,0,0
5.91980051467544E-06,-1.5436304238392E-05,0,0,0
4.21137701778207E-06,-1.9294047888252E-05,0,0,0
1.36479229695396E-06,-1.6881684132386E-05,0,0,0
3.51095059158979E-06,-2.33388655033195E-05,0,0,0
6.17091382082435E-06,-1.60684303409653E-05,0,0,0
1.01323348644655E-05,-2.07369685085723E-05,0,0,0
9.70128803601256E-06,-1.77488782355795E-05,0,0,0
3.97861685996759E-06,-1.96159053302836E-05,0,0,0
9.95555993199559E-08,-1.84728523890954E-05,0,0,0
-3.4364461498626E-08,-1.98693633137736E-05,0,0,0
3.54395353951986E-07,-1.95252050616546E-05,0,0,0
8.85748761447758E-07,-1.93906380445696E-05,0,0,0
1.10361588667729E-06,-1.91490744327893E-05,0,0,0
7.45366264709446E-07,-1.79147991730133E-05,0,0,0
2.86744494815139E-07,-1.67942216648953E-05,0,0,0
4.84818713175628E-07,-1.37203751364723E-05,0,0,0
1.36801395456132E-06,-1.48918688864796E-05,0,0,0
1.54866199864045E-06,-1.62490832735784E-05,0,0,0
1.52892562255147E-06,-1.76166595338145E-05,0,0,0
2.61591890193813E-06,-1.50316436702269E-05,0,0,0
4.58007571069174E-06,-1.3300917999004E-05,0,0,0
4.81835331811453E-06,-1.16459350465448E-05,0,0,0
3.53910422745685E-06,-1.34959700517356E-05,0,0,0
3.69022313861933E-06,-1.42678245538264E-05,0,0,0
4.51500272902194E-06,-1.49576817420893E-05,0,0,0
5.08205221194658E-06,-1.51152598846238E-05,0,0,0
5.17657736054389E-06,-1.60816762218019E-05,0,0,0
3.87709133065073E-06,-1.5170705410128E-05,0,0,0
2.20345714296855E-06,-1.38264858833281E-05,0,0,0
9.5630196028651E-07,-1.21313551062485E-05,0,0,0
5.61976094104466E-07,-1.82604217116022E-05,0,0,0
-3.62050968760741E-07,-1.54270746861584E-05,0,0,0
1.09842869733257E-06,-1.92625266208779E-05,0,0,0
2.19755133912258E-06,-1.70861640071962E-05,0,0,0
2.14824035538186E-06,-1.74783199327067E-05,0,0,0
1.31282206439209E-06,-1.42449116538046E-05,0,0,0
1.40140002713451E-06,-1.34755027829669E-05,0,0,0
1.33234675558924E-06,-1.28529718494974E-05,0,0,0
1.95557868210017E-06,-1.24141088235774E-05,0,0,0
3.29932527165511E-06,-1.18614261737093E-05,0,0,0
2.74278886536194E-06,-1.10359660538961E-05,0,0,0
1.42101498568081E-06,-1.15680759336101E-05,0,0,0
1.65829908382875E-06,-1.25627402667305E-05,0,0,0
2.72625584329944E-06,-1.51386348079541E-05,0,0,0
1.7323974361716E-06,-1.4372963050846E-05,0,0,0
4.68695105837469E-07,-1.3497335203283E-05,0,0,0
9.37834442993335E-07,-1.20522045108373E-05,0,0,0
2.45461274062109E-06,-1.37779543365468E-05,0,0,0
3.35006870955112E-06,-1.77730889845407E-05,0,0,0
3.36948392032355E-06,-2.3671955204918E-05,0,0,0
2.66291908701533E-06,-2.44021557591623E-05,0,0,0
2.10372809306136E-06,-2.09748741326621E-05,0,0,0
1.68468807260069E-06,-1.76739504240686E-05,0,0,0
1.21745642900351E-06,-1.67228863574564E-05,0,0,0
1.53388384660502E-06,-1.64908760780236E-05,0,0,0
2.68138501269277E-06,-1.77296442416264E-05,0,0,0
3.80986580239551E-06,-1.56542901095236E-05,0,0,0
6.20882155999425E-06,-2.01505063159857E-05,0,0,0
6.66634559820523E-06,-9.35342268348904E-06,0,0,0
8.23510163172614E-06,-1.02212061392493E-05,0,0,0
6.73467729939148E-06,-7.67818346503191E-06,0,0,0
6.64390336169163E-06,-1.26582863231306E-05,0,0,0
5.17204989591846E-06,-1.43004126584856E-05,0,0,0
3.46129741046752E-06,-1.52213606270379E-05,0,0,0
2.11364954338933E-06,-1.41553491630475E-05,0,0,0
1.58405907768611E-06,-1.42589997267351E-05,0,0,0
1.33674393509864E-06,-1.44162613651133E-05,0,0,0
2.78187235380756E-06,-1.43367915370618E-05,0,0,0
5.42736916031572E-06,-1.57308022608049E-05,0,0,0
6.18234889770974E-06,-1.5139376046136E-05,0,0,0
4.32359365731827E-06,-1.35131158458535E-05,0,0,0
1.07956043393642E-06,-9.57113843469415E-06,0,0,0
1.80202988531164E-07,-1.06348752524354E-05,0,0,0
6.5429918549853E-07,-1.38059340315522E-05,0,0,0
1.99628493646742E-06,-1.9135351976729E-05,0,0,0
3.40536121257173E-06,-1.93951273104176E-05,0,0,0
5.64034235139843E-06,-1.72186610143399E-05,0,0,0
6.52765356790042E-06,-1.43363577080891E-05,0,0,0
5.57623252461781E-06,-1.23865638670395E-05,0,0,0
4.01066245103721E-06,-1.05253157016705E-05,0,0,0
3.03257297673554E-06,-1.13384458018118E-05,0,0,0
2.55381041824876E-06,-1.52411057570134E-05,0,0,0
2.62915932580654E-06,-2.03416366275633E-05,0,0,0
5.55380154310114E-07,-1.81142877409002E-05,0,0,0
-1.20881577458931E-06,-2.73094337899238E-05,0,0,0
-2.26334736908029E-06,-2.3557040549349E-05,0,0,0
3.00363353744615E-07,-2.67175128101371E-05,0,0,0
1.63848699230584E-06,-1.94890217244392E-05,0,0,0
1.10323560420511E-06,-2.14451865758747E-05,0,0,0
-5.3519863740803E-07,-2.18565219256561E-05,0,0,0
-3.0171585763128E-07,-2.58613144978881E-05,0,0,0
5.26404221545818E-07,-2.62436187767889E-05,0,0,0
1.1010315574822E-06,-2.46183426497737E-05,0,0,0
6.98943210863945E-07,-2.19199482671684E-05,0,0,0
-8.12133180261299E-07,-1.96312303160084E-05,0,0,0
-6.9291428417273E-07,-2.0370032871142E-05,0,0,0
9.60573174779711E-07,-1.94040349015268E-05,0,0,0
2.4118114652083E-06,-1.9426915969234E-05,0,0,0
3.06585934595205E-06,-1.77998808794655E-05,0,0,0
4.30382988270139E-06,-1.85548778972588E-05,0,0,0
5.54074358660728E-06,-1.69513623404782E-05,0,0,0
6.52010203339159E-06,-1.78597110789269E-05,0,0,0
6.24294352746801E-06,-1.93053838302149E-05,0,0,0
4.70051418233197E-06,-2.25734820560319E-05,0,0,0
2.09724953492696E-06,-2.28680219152011E-05,0,0,0
-5.30125525699532E-08,-2.3065180357662E-05,0,0,0
-5.74967522481984E-08,-2.18134082388133E-05,0,0,0
1.29291402117815E-06,-2.08342207770329E-05,0,0,0
1.01816476671956E-06,-1.92327042896068E-05,0,0,0
-5.06108897013746E-08,-1.63395434356062E-05,0,0,0
4.09022277381155E-07,-1.16033315862296E-05,0,0,0
4.47833400585296E-07,-1.60229465109296E-05,0,0,0
2.53347025136463E-07,-1.23747040561284E-05,0,0,0
6.41709902993171E-07,-1.61766256496776E-05,0,0,0
1.36090488922491E-06,-1.34892006826703E-05,0,0,0
3.11756753035297E-06,-1.35533191496506E-05,0,0,0
5.49214837519685E-06,-1.19019214253058E-05,0,0,0
7.40635960028158E-06,-1.23377194540808E-05,0,0,0
7.03076784702716E-06,-1.1454835657787E-05,0,0,0
4.92513618155499E-06,-1.42692060762784E-05,0,0,0
3.15053193844506E-06,-1.84192358574364E-05,0,0,0
2.17221963794145E-06,-1.95967440959066E-05,0,0,0
2.69392262453039E-06,-1.96095388673712E-05,0,0,0
4.17470619140659E-06,-1.96424607565859E-05,0,0,0
5.00210353493458E-06,-2.28751359827584E-05,0,0,0
5.31013574800454E-06,-2.36867199419066E-05,0,0,0
4.7628045649617E-06,-2.35278348554857E-05,0,0,0
2.28767498811067E-06,-2.22075796045829E-05,0,0,0
-9.38728206278938E-08,-2.2295251255855E-05,0,0,0
1.02825325143385E-07,-2.00205267901765E-05,0,0,0
1.62348874255258E-06,-1.74875040102052E-05,0,0,0
1.48679441736022E-06,-1.41399141284637E-05,0,0,0
1.32920683881821E-06,-1.40696838570875E-05,0,0,0
1.87881721558369E-06,-1.62323613039916E-05,0,0,0
7.7051964808561E-07,-1.8804554201779E-05,0,0,0
-1.50652715547039E-06,-1.81983996299095E-05,0,0,0
-2.85740179606364E-06,-1.58072834892664E-05,0,0,0
-9.45676276842278E-07,-1.28119381770375E-05,0,0,0
4.77820151445485E-07,-2.00172671611654E-05,0,0,0
2.53507391789753E-06,-1.62969772645738E-05,0,0,0
2.48692572313303E-06,-1.68984188348986E-05,0,0,0
3.43013289239025E-06,-1.22410974654485E-05,0,0,0
3.12855217998731E-06,-1.35049886011984E-05,0,0,0
3.35769777848327E-06,-1.30649041238939E-05,0,0,0
3.03366277876194E-06,-1.47371147249942E-05,0,0,0
1.85855071777041E-06,-1.6067491742433E-05,0,0,0
5.88163402426289E-07,-1.86014694918413E-05,0,0,0
8.32604030165385E-07,-2.20823549170746E-05,0,0,0
2.30777459364617E-06,-2.4458566258545E-05,0,0,0
3.2004816148401E-06,-2.48828910116572E-05,0,0,0
3.00982605949685E-06,-2.21145419345703E-05,0,0,0
2.67316136159934E-06,-2.07578832487343E-05,0,0,0
4.86283170175739E-06,-1.85351364052622E-05,0,0,0
7.29775138097466E-06,-1.78926202352159E-05,0,0,0
6.96439383318648E-06,-1.63951863214606E-05,0,0,0
4.11976543546189E-06,-1.69843042385764E-05,0,0,0
2.03143554244889E-06,-1.77821966644842E-05,0,0,0
2.43857869008934E-07,-1.867673927336E-05,0,0,0
-4.24369517304513E-07,-1.71822612173855E-05,0,0,0
1.61050320457434E-06,-1.49167672134354E-05,0,0,0
3.7744525798189E-06,-1.21916627904284E-05,0,0,0
3.766130475924E-06,-1.14267459139228E-05,0,0,0
2.16693047150329E-06,-1.09133343357826E-05,0,0,0
1.00028273664066E-06,-1.01342293419293E-05,0,0,0
2.03868330572732E-06,-7.50442723074229E-06,0,0,0
4.08847699873149E-06,-1.0496537470317E-05,0,0,0
3.80255642085103E-06,-9.32710099732503E-06,0,0,0
3.91352659789845E-06,-1.2738030818582E-05,0,0,0
4.7561602514179E-06,-1.05054077721434E-05,0,0,0
6.69368773742463E-06,-1.19831629490363E-05,0,0,0
7.70483620726736E-06,-1.61115221999353E-05,0,0,0
7.77947479946306E-06,-2.23021779675037E-05,0,0,0
8.20673449197784E-06,-2.36033356486587E-05,0,0,0
7.86048440204468E-06,-2.27220789383864E-05,0,0,0
5.60546095584868E-06,-2.10017460631207E-05,0,0,0
3.67401253242861E-06,-1.98886646103347E-05,0,0,0
3.36495827468752E-06,-2.07276061701123E-05,0,0,0
2.93075481749838E-06,-2.08237925107824E-05,0,0,0
2.29391412176483E-06,-2.06621498364257E-05,0,0,0
2.30032492254395E-06,-1.8443100998411E-05,0,0,0
2.0072025108675E-06,-1.69910254044225E-05,0,0,0
8.35238836316421E-07,-1.5043390703795E-05,0,0,0
6.45529567577796E-08,-1.59943156177178E-05,0,0,0
2.51681644414248E-08,-1.88070935109863E-05,0,0,0
7.43602811326127E-07,-2.20881465793354E-05,0,0,0
2.62133767137129E-06,-2.21755381062394E-05,0,0,0
5.70170232094824E-06,-2.17358665395295E-05,0,0,0
7.05867296346696E-06,-2.45518458541483E-05,0,0,0
5.72092994843842E-06,-2.84755969914841E-05,0,0,0
2.45518913288834E-06,-2.71957342192763E-05,0,0,0
2.38985276013182E-08,-2.44779330387246E-05,0,0,0
1.36654918492241E-07,-1.8085587726091E-05,0,0,0
9.82071355792868E-07,-2.32608781516319E-05,0,0,0
1.29310569718655E-06,-1.28045539895538E-05,0,0,0
5.96201800817653E-07,-1.43241941259475E-05,0,0,0
-1.9891719205134E-07,-8.76962440088391E-06,0,0,0
9.62129206527607E-07,-1.25508768178406E-05,0,0,0
3.6069350244361E-06,-1.26553068184876E-05,0,0,0
3.55761039827485E-06,-1.40910442496534E-05,0,0,0
1.60216450240114E-06,-1.13627511382219E-05,0,0,0
2.36160104805094E-07,-8.55451617098879E-06,0,0,0
-3.06135603977964E-07,-8.23669597593835E-06,0,0,0
-1.53228234012204E-06,-1.09029142549844E-05,0,0,0
-1.49446111663565E-06,-1.47872042361996E-05,0,0,0
5.42857662821916E-07,-1.47849304994452E-05,0,0,0
2.58929799201724E-06,-1.60576837515691E-05,0,0,0
3.08007815874589E-06,-1.57063059305074E-05,0,0,0
2.74019475909881E-06,-1.74473370861961E-05,0,0,0
3.36630546371453E-06,-1.59852734213928E-05,0,0,0
3.42289627042192E-06,-1.52185684783035E-05,0,0,0
2.16685975829023E-06,-1.43137258419301E-05,0,0,0
1.14607632895058E-06,-1.60398903972236E-05,0,0,0
1.61669140652521E-06,-1.57435006258311E-05,0,0,0
1.77718254690262E-06,-1.72467334778048E-05,0,0,0
2.03702188628085E-06,-1.97544304683106E-05,0,0,0
2.7698240501195E-06,-2.45788214670029E-05,0,0,0
2.51140045293141E-06,-2.69470256171189E-05,0,0,0
1.03250431493507E-06,-2.48131764237769E-05,0,0,0
-6.83161317738268E-07,-1.75819386640796E-05,0,0,0
-9.63500042416854E-07,-2.45504634222016E-05,0,0,0
2.69493142468491E-07,-1.85977060027653E-05,0,0,0
1.81220593731268E-06,-2.24328650801908E-05,0,0,0
1.59259946030943E-06,-1.68716651387513E-05,0,0,0
-7.88043223565182E-07,-1.79759299498983E-05,0,0,0
-2.56438374890422E-06,-1.4498170457955E-05,0,0,0
-3.35362960868224E-06,-1.32940513140056E-05,0,0,0
-3.15580973619944E-06,-1.11046228994383E-05,0,0,0
-1.89009949735919E-06,-1.08666399682988E-05,0,0,0
-5.56817724373104E-07,-1.06042707557208E-05,0,0,0
-1.3895426320687E-07,-9.70625478657894E-06,0,0,0
1.70189995429837E-08,-1.1819784049294E-05,0,0,0
5.98909366544831E-07,-1.41104947033455E-05,0,0,0
9.77782178779307E-07,-1.83678002940724E-05,0,0,0
1.75130162460846E-06,-1.84397722478025E-05,0,0,0
2.04884190679877E-06,-1.90307418961311E-05,0,0,0
1.77849210558634E-06,-1.74343840626534E-05,0,0,0
1.36903906877706E-06,-1.67181569850072E-05,0,0,0
1.08697395262425E-06,-1.48100371006876E-05,0,0,0
1.09528309621965E-06,-1.8932121747639E-05,0,0,0
8.44049452553008E-07,-2.46333893301198E-05,0,0,0
-2.25184606961193E-07,-2.71004209935199E-05,0,0,0
-1.0290906402588E-06,-2.38164357142523E-05,0,0,0
-2.856087633063E-07,-2.06286131287925E-05,0,0,0
1.67718860666355E-06,-1.93234700418543E-05,0,0,0
2.5829817786871E-06,-1.95441934920382E-05,0,0,0
1.21696257338044E-06,-1.7718797607813E-05,0,0,0
1.61917012064805E-06,-2.69770571321715E-05,0,0,0
2.13950283978193E-06,-2.17407941818237E-05,0,0,0
4.11404971600859E-06,-2.40521603700472E-05,0,0,0
3.52449956153578E-06,-1.96289074665401E-05,0,0,0
1.55265854573372E-06,-2.1804247808177E-05,0,0,0
-4.89261651637207E-07,-1.78062382474309E-05,0,0,0
1.1192682904948E-06,-1.40037500386825E-05,0,0,0
4.45761088485597E-06,-9.34160652832361E-06,0,0,0
6.35470041743247E-06,-8.87094756762963E-06,0,0,0
6.32689898338867E-06,-1.19946271297522E-05,0,0,0
5.14480871061096E-06,-1.47130704135634E-05,0,0,0
4.98191229780787E-06,-1.56799778778804E-05,0,0,0
5.15400552103529E-06,-1.26034537970554E-05,0,0,0
5.37955656909617E-06,-1.18017715067253E-05,0,0,0
5.36965399078326E-06,-1.12976949822041E-05,0,0,0
5.25719315191964E-06,-1.43972138175741E-05,0,0,0
4.9555624173081E-06,-1.51519088831265E-05,0,0,0
4.47399133918225E-06,-1.63842432812089E-05,0,0,0
4.12396911997348E-06,-1.64164011948742E-05,0,0,0
4.50727065981482E-06,-1.66351510415552E-05,0,0,0
4.55445979241631E-06,-1.4262805962062E-05,0,0,0
4.13155203204951E-06,-1.29049312818097E-05,0,0,0
2.14279884858115E-06,-1.16090905066812E-05,0,0,0
4.02491593831655E-07,-1.26623663163627E-05,0,0,0
1.426360881851E-06,-1.43230981848319E-05,0,0,0
2.47418620347162E-06,-1.52303409777232E-05,0,0,0
-2.86935346593964E-07,-1.26854747577454E-05,0,0,0
-2.60538740803895E-06,-1.87628029379994E-05,0,0,0
-3.05253979604458E-06,-1.5769544916111E-05,0,0,0
1.68605026829027E-07,-1.93932082765969E-05,0,0,0
1.31377908019203E-06,-1.59438077389495E-05,0,0,0
1.76306116372871E-06,-1.54699628183153E-05,0,0,0
2.4956304969237E-06,-1.33020103021408E-05,0,0,0
4.02676732846885E-06,-1.61341540660942E-05,0,0,0
4.86990302306367E-06,-1.76365410879953E-05,0,0,0
4.0834797800926E-06,-1.73260959854815E-05,0,0,0
1.97382905753329E-06,-1.56214555318002E-05,0,0,0
-3.84047268653376E-07,-1.3341454177862E-05,0,0,0
-1.28594479065214E-06,-1.35345417220378E-05,0,0,0
-1.1897411695827E-06,-1.50305822899099E-05,0,0,0
-1.9505010584453E-07,-1.96032251551514E-05,0,0,0
8.89324894615129E-07,-2.22281396418111E-05,0,0,0
2.1105702217028E-06,-2.5167422791128E-05,0,0,0
3.01917566503107E-06,-2.47651150857564E-05,0,0,0
3.40158499056997E-06,-2.1890526113566E-05,0,0,0
4.11290739066317E-06,-1.63751283253077E-05,0,0,0
5.28342934558168E-06,-1.39084140755585E-05,0,0,0
5.74040632272954E-06,-1.25133356050355E-05,0,0,0
5.20956200489309E-06,-1.27913199321483E-05,0,0,0
4.59791772300377E-06,-1.3445341210172E-05,0,0,0
3.94097696698736E-06,-1.36667558763293E-05,0,0,0
3.46951037499821E-06,-1.31622064145631E-05,0,0,0
3.2660175293131E-06,-1.19696069305064E-05,0,0,0
3.54475810127042E-06,-8.04971568868496E-06,0,0,0
5.41948838872486E-06,-1.23231102406862E-05,0,0,0
3.14939052259433E-06,-1.11893687062548E-05,0,0,0
2.84240968539962E-06,-1.3688735634787E-05,0,0,0
3.74604928765621E-06,-1.12265906864195E-05,0,0,0
5.84756708121859E-06,-1.13070291263284E-05,0,0,0
5.41887993676937E-06,-1.13037995106424E-05,0,0,0
4.6806512727926E-06,-1.41896307468414E-05,0,0,0
4.063394953846E-06,-1.5893447198323E-05,0,0,0
3.81850168196252E-06,-1.59000628627837E-05,0,0,0
3.91888306694455E-06,-1.43450415635016E-05,0,0,0
3.30522811964329E-06,-1.377921034873E-05,0,0,0
2.46135527959268E-06,-1.68244096130366E-05,0,0,0
1.91796834769775E-06,-2.04393345484277E-05,0,0,0
2.77565663964197E-06,-2.24817431444535E-05,0,0,0
3.85069415642647E-06,-2.10752477869391E-05,0,0,0
4.69121414425899E-06,-1.93439591384958E-05,0,0,0
4.09065478379489E-06,-1.6471009075758E-05,0,0,0
3.21499851452245E-06,-1.5238883861457E-05,0,0,0
3.34767742060649E-06,-1.50742889672983E-05,0,0,0
5.69615895074094E-06,-1.61419320647838E-05,0,0,0
7.98350902186939E-06,-1.6297104593832E-05,0,0,0
7.74152158555808E-06,-1.73105363501236E-05,0,0,0
5.65324262424838E-06,-1.82288913492812E-05,0,0,0
4.18500212617801E-06,-1.87553396244766E-05,0,0,0
3.15635725200991E-06,-1.66636746143922E-05,0,0,0
3.35184768118779E-06,-1.38773893922917E-05,0,0,0
3.81153654416266E-06,-1.32106488308636E-05,0,0,0
5.02362991028349E-06,-2.13939401874086E-05,0,0,0
3.93779191654176E-06,-1.76269113580929E-05,0,0,0
4.76896912005031E-06,-1.85807166417362E-05,0,0,0
2.72297870651528E-06,-1.4776721400267E-05,0,0,0
2.98030295198259E-06,-1.51601243487676E-05,0,0,0
3.15975125886325E-06,-1.42602748383069E-05,0,0,0
4.76507693747408E-06,-1.60378458531341E-05,0,0,0
6.56165275358944E-06,-1.66279933182523E-05,0,0,0
8.07035667094169E-06,-1.6179890735657E-05,0,0,0
8.16369629319524E-06,-1.54419940372463E-05,0,0,0
6.83655389366322E-06,-1.51636686496204E-05,0,0,0
5.72737826587399E-06,-1.50984687934397E-05,0,0,0
5.33747424924513E-06,-1.29417012431077E-05,0,0,0
5.26119038113393E-06,-1.17795543701504E-05,0,0,0
4.12897406931734E-06,-1.02168623925536E-05,0,0,0
3.66097833648382E-06,-1.18690677481936E-05,0,0,0
2.83143208434922E-06,-1.31132446767879E-05,0,0,0
2.72932152256544E-06,-1.47641485455097E-05,0,0,0
3.23590006701124E-06,-1.50836176544544E-05,0,0,0
3.91978937841486E-06,-1.58435614139307E-05,0,0,0
1.95146935766388E-06,-1.59361097757937E-05,0,0,0
-9.98731252366269E-07,-1.7704089259496E-05,0,0,0
-2.05576361622661E-06,-1.84567306860117E-05,0,0,0
-1.65267039164974E-07,-1.75144596141763E-05,0,0,0
4.0361254605159E-07,-1.50417026816285E-05,0,0,0
-4.73289389901765E-07,-1.57165104610613E-05,0,0,0
-3.93580791069326E-07,-1.79678172571585E-05,0,0,0
-7.27377994280687E-07,-3.18594065902289E-05,0,0,0
-8.71030010785034E-07,-3.35626646119636E-05,0,0,0
-9.71380018199852E-07,-4.0725695725996E-05,0,0,0
-1.21802463581844E-06,-3.78715521947015E-05,0,0,0
-1.64430184668163E-06,-3.85280691261869E-05,0,0,0
-1.40910356094537E-06,-3.54601870640181E-05,0,0,0
-1.38195480303693E-06,-3.4452517866157E-05,0,0,0
-2.38548778952463E-07,-3.09871611534618E-05,0,0,0
1.54876181568397E-06,-2.88380178972147E-05,0,0,0
2.82533801509999E-06,-2.82263281405903E-05,0,0,0
1.54828956056008E-06,-2.70583695964888E-05,0,0,0
-5.67744450563623E-07,-2.61718614638085E-05,0,0,0
-9.98031509880093E-07,-2.20963775063865E-05,0,0,0
-9.44329713092884E-07,-1.8991386241396E-05,0,0,0
6.75737723554448E-08,-1.4946438568586E-05,0,0,0
2.81439383797988E-06,-1.3770308214589E-05,0,0,0
5.31295518158004E-06,-1.28394767671125E-05,0,0,0
5.02459170093061E-06,-1.48722319863737E-05,0,0,0
2.97277256322559E-06,-1.53366345330141E-05,0,0,0
1.57240162934613E-06,-1.54948193085147E-05,0,0,0
2.12333839044732E-06,-1.28850515466183E-05,0,0,0
3.71483747585444E-06,-1.11216559162131E-05,0,0,0
5.95745359532884E-06,-1.07748874142999E-05,0,0,0
7.62544323151815E-06,-1.12798497866606E-05,0,0,0
6.76659328746609E-06,-1.24172656796873E-05,0,0,0
5.03325691170176E-06,-1.58174607349793E-05,0,0,0
4.06629715143936E-06,-1.51182639456238E-05,0,0,0
5.16525051352801E-06,-2.226327524113E-05,0,0,0
1.80902861757204E-06,-1.71426618180703E-05,0,0,0
1.10663791019761E-06,-1.9125931430608E-05,0,0,0
-5.40996325071319E-07,-1.47281971294433E-05,0,0,0
-3.26346594192728E-07,-1.60041927301791E-05,0,0,0
4.23752538836197E-07,-1.42066264743335E-05,0,0,0
2.71227327175438E-06,-1.50392315845238E-05,0,0,0
2.56544421972649E-06,-1.37496372190071E-05,0,0,0
1.39830103762506E-06,-1.37487395477365E-05,0,0,0
5.28604573446501E-07,-1.51460872075404E-05,0,0,0
1.38101563607052E-06,-1.65219134942163E-05,0,0,0
4.73425916425185E-06,-1.75066852534655E-05,0,0,0
7.00362579664215E-06,-1.58058519446058E-05,0,0,0
7.58301621317514E-06,-1.63606382557191E-05,0,0,0
6.27460758551024E-06,-1.59433056978742E-05,0,0,0
4.93054494654643E-06,-1.63825243362226E-05,0,0,0
4.32914021075703E-06,-1.52222610267927E-05,0,0,0
5.90110039411229E-06,-1.6408192095696E-05,0,0,0
5.8574732975103E-06,-1.50511177707813E-05,0,0,0
3.42190537594433E-06,-1.35351410790463E-05,0,0,0
4.03721202246743E-07,-1.12399966383236E-05,0,0,0
-5.33213039943803E-07,-1.056226392393E-05,0,0,0
3.19899413625535E-08,-1.11480212581228E-05,0,0,0
1.31065689856769E-06,-1.49773550219834E-05,0,0,0
3.28521423398342E-06,-1.93362193385838E-05,0,0,0
4.30512409366202E-06,-2.26784923142986E-05,0,0,0
2.31996546062874E-06,-1.91879462363431E-05,0,0,0
1.44302566695842E-06,-2.54523274634266E-05,0,0,0
-6.65242964714707E-07,-1.57128597493283E-05,0,0,0
1.23520612760331E-06,-1.86304478120292E-05,0,0,0
2.16728631130536E-06,-1.2528588740679E-05,0,0,0
2.79676601167012E-06,-1.31896649691043E-05,0,0,0
5.22132154401334E-07,-1.15214188554091E-05,0,0,0
-8.11881761819677E-07,-1.49439110828098E-05,0,0,0
-9.82451183517696E-07,-1.50403975567315E-05,0,0,0
-4.91606613195472E-07,-1.49219140439527E-05,0,0,0
2.47001850084416E-07,-1.52814936882351E-05,0,0,0
6.77502555390674E-07,-1.48084018292138E-05,0,0,0
2.31065587286139E-06,-1.58192124217749E-05,0,0,0
3.59784780812333E-06,-1.49909747051424E-05,0,0,0
2.93754919766798E-06,-1.53645232785493E-05,0,0,0
1.09929123937036E-06,-1.19473625090905E-05,0,0,0
1.0384567303845E-06,-1.11747331175138E-05,0,0,0
2.30257319344673E-06,-1.19521328088013E-05,0,0,0
3.50328195963812E-06,-1.80577699211426E-05,0,0,0
1.79693984136975E-06,-2.19906196434749E-05,0,0,0
-6.17203568253899E-07,-2.42104852077318E-05,0,0,0
-6.26387532065564E-07,-2.26908214244759E-05,0,0,0
1.62415653903736E-06,-2.12261747947196E-05,0,0,0
3.67341749551997E-06,-1.97564677364426E-05,0,0,0
4.05488208343741E-06,-2.10069847526029E-05,0,0,0
1.38553014039644E-06,-2.30055920837913E-05,0,0,0
-1.09038910522941E-06,-2.32486017921474E-05,0,0,0
-1.21159905575041E-06,-1.48533126775874E-05,0,0,0
-2.54499150287302E-06,-1.8058281057165E-05,0,0,0
-3.21733887176379E-06,-1.08080303107272E-05,0,0,0
-3.21118750434835E-06,-1.68189180840272E-05,0,0,0
-2.41184170590714E-06,-1.54865374497604E-05,0,0,0
-2.1978696622682E-06,-1.85565677384147E-05,0,0,0
-1.48571677982545E-06,-1.73882326635066E-05,0,0,0
-1.59026228629955E-06,-1.98312282009283E-05,0,0,0
-1.4620815136368E-06,-2.03694380616071E-05,0,0,0
-5.31252851487807E-07,-2.03784147743136E-05,0,0,0
1.18047353225847E-06,-2.08625278901309E-05,0,0,0
1.03702950582374E-06,-2.02814062504331E-05,0,0,0
-2.499960487512E-07,-2.01976963580819E-05,0,0,0
-1.31154479277029E-07,-1.8848570107366E-05,0,0,0
1.36134372041852E-06,-1.86170254892204E-05,0,0,0
2.98077907245897E-06,-1.58312323037535E-05,0,0,0
3.05211028717167E-06,-1.52885331772268E-05,0,0,0
2.69602878688602E-06,-1.47984728755546E-05,0,0,0
1.99846226678346E-06,-1.77303645614302E-05,0,0,0
1.28287740608357E-06,-1.94658514374169E-05,0,0,0
-1.05888575685498E-09,-2.02278879442019E-05,0,0,0
-1.42892542953632E-06,-1.80962579179322E-05,0,0,0
-1.7993272649619E-06,-1.78523569047684E-05,0,0,0
-8.65288882323512E-07,-1.79048984136898E-05,0,0,0
3.93038845913907E-07,-1.65535093401559E-05,0,0,0
1.24069617868372E-06,-1.36686821861076E-05,0,0,0
1.57413410306617E-06,-1.2158007848484E-05,0,0,0
1.48468461702578E-06,-9.42100177780958E-06,0,0,0
1.74719741607987E-06,-1.4115637895884E-05,0,0,0
1.03695504094503E-06,-1.22323217510711E-05,0,0,0
2.06821960091474E-06,-1.6685818991391E-05,0,0,0
2.7220423817198E-06,-1.67893958860077E-05,0,0,0
3.71355145034613E-06,-1.7859418221633E-05,0,0,0
3.81253676096094E-06,-1.57739013957325E-05,0,0,0
3.60396438736643E-06,-1.61298994498793E-05,0,0,0
2.22538415073359E-06,-1.7180735085276E-05,0,0,0
1.38755672196567E-06,-1.84875334525714E-05,0,0,0
5.01142096709373E-07,-1.95489046745934E-05,0,0,0
-4.74601449695911E-07,-1.88060585060157E-05,0,0,0
-4.59258785667771E-07,-1.82648327609058E-05,0,0,0
2.68839173145352E-08,-1.79281050805002E-05,0,0,0
7.87628721354849E-07,-1.83866559382295E-05,0,0,0
5.42304178452468E-07,-1.64806733664591E-05,0,0,0
2.43932987586959E-07,-1.52586635522312E-05,0,0,0
4.0381763710684E-07,-1.42892604344524E-05,0,0,0
1.17141348709993E-06,-1.50412779476028E-05,0,0,0
1.25699159525539E-06,-1.53920955199283E-05,0,0,0
1.97771237253619E-06,-1.56478799908655E-05,0,0,0
3.86341116609401E-06,-1.48326753333095E-05,0,0,0
4.79494838145911E-06,-1.47659720823867E-05,0,0,0
3.10742439069145E-06,-1.41629880090477E-05,0,0,0
1.08404287857411E-06,-1.3398370356299E-05,0,0,0
1.71734131981793E-06,-1.35170039357035E-05,0,0,0
4.02994419346214E-06,-1.42343842526316E-05,0,0,0
3.39913958669058E-06,-1.25282149383565E-05,0,0,0
4.44869783677859E-06,-1.91154686035588E-05,0,0,0
3.86802093998995E-06,-1.66197351063602E-05,0,0,0
6.97870564181358E-06,-2.23901788558578E-05,0,0,0
7.33910837880103E-06,-2.16725256905193E-05,0,0,0
7.56761164666386E-06,-2.23483057197882E-05,0,0,0
6.31579769105883E-06,-2.15794407267822E-05,0,0,0
5.8456494116399E-06,-2.40716180996969E-05,0,0,0
6.09839298704173E-06,-2.44519560510525E-05,0,0,0
6.10110328125302E-06,-2.33456139540067E-05,0,0,0
5.54631014892948E-06,-2.11140759347472E-05,0,0,0
5.62944069315563E-06,-1.97205190488603E-05,0,0,0
7.5128946264158E-06,-2.07541725103511E-05,0,0,0
8.9442883108859E-06,-2.02606606762856E-05,0,0,0
9.06313653104007E-06,-2.06029781111283E-05,0,0,0
8.2381102401996E-06,-1.88193935173331E-05,0,0,0
8.32734440336935E-06,-1.76676676346688E-05,0,0,0
8.85011104401201E-06,-1.63263648573775E-05,0,0,0
8.79324852576246E-06,-1.67842790688155E-05,0,0,0
7.03082787367748E-06,-1.61650259542512E-05,0,0,0
6.67990389047191E-06,-1.66811314556981E-05,0,0,0
8.29119380796328E-06,-1.60870949912351E-05,0,0,0
9.80558434093837E-06,-1.56587484525517E-05,0,0,0
9.2152013166924E-06,-1.51022513819044E-05,0,0,0
8.43314137455309E-06,-1.53286091517657E-05,0,0,0
8.35508581076283E-06,-1.60780618898571E-05,0,0,0
8.26677023724187E-06,-1.68633978319122E-05,0,0,0
6.39312702332973E-06,-1.40211495818221E-05,0,0,0
7.52174992157961E-06,-2.07237371796509E-05,0,0,0
3.37272444994596E-06,-1.5447591067641E-05,0,0,0
4.94685900775949E-06,-1.54541721713031E-05,0,0,0
2.82527412309719E-06,-9.57734573603375E-06,0,0,0
1.62461878971953E-06,-1.26105433082557E-05,0,0,0
-9.37285960844747E-07,-1.37519991767476E-05,0,0,0
-1.26698648728052E-06,-1.52476550283609E-05,0,0,0
-1.36035714604077E-06,-1.45338317452115E-05,0,0,0
-9.18163777896552E-07,-1.3734788808506E-05,0,0,0
-1.09072982468206E-06,-1.29617692437023E-05,0,0,0
-2.81327174889157E-06,-1.21742941701086E-05,0,0,0
-3.45743728757952E-06,-1.25001188280294E-05,0,0,0
-2.92369168164441E-06,-1.11477738755639E-05,0,0,0
-1.18499508516834E-06,-1.12839825305855E-05,0,0,0
-1.02721560324426E-06,-1.05368526419625E-05,0,0,0
-8.81338564795442E-07,-1.12698717202875E-05,0,0,0
-1.59477997385693E-06,-1.0979599210259E-05,0,0,0
-6.82297809362353E-07,-1.25643846331513E-05,0,0,0
1.02721412531537E-06,-1.21227176350658E-05,0,0,0
3.25032692671812E-06,-1.17180006782291E-05,0,0,0
3.16641853714827E-06,-1.0871936865442E-05,0,0,0
1.95094753507874E-06,-1.1856123819598E-05,0,0,0
1.82074677468336E-06,-1.31041015265509E-05,0,0,0
2.31939861805586E-06,-1.49896304719732E-05,0,0,0
2.08792289413395E-06,-1.66555237228749E-05,0,0,0
2.23809593080659E-06,-1.92408224393148E-05,0,0,0
1.65597361956316E-06,-1.93331816262798E-05,0,0,0
2.16854755308304E-06,-3.14231219817884E-05,0,0,0
9.67812638918986E-07,-2.80633285001386E-05,0,0,0
1.4541427617587E-06,-3.23925196425989E-05,0,0,0
2.09393328987062E-06,-2.76325772574637E-05,0,0,0
2.53263556260208E-06,-2.80568237940315E-05,0,0,0
3.23149970427039E-06,-2.48489759542281E-05,0,0,0
3.58920988219325E-06,-2.32841739489231E-05,0,0,0
1.92548282029748E-06,-1.96367618627846E-05,0,0,0
6.69449150336732E-07,-1.85421740752645E-05,0,0,0
1.23666052331828E-06,-1.86887173185823E-05,0,0,0
2.07556172426848E-06,-1.74689048435539E-05,0,0,0
2.45492674366687E-06,-1.81402938324027E-05,0,0,0
3.05142134493508E-06,-1.94849599211011E-05,0,0,0
4.40558824266191E-06,-2.3096137738321E-05,0,0,0
5.14959310748964E-06,-2.23789375013439E-05,0,0,0
5.19670538778882E-06,-2.06529239221709E-05,0,0,0
4.64584081782959E-06,-1.58199909492396E-05,0,0,0
4.1009443521034E-06,-1.44068535519182E-05,0,0,0
4.56510679214261E-06,-1.51810127135832E-05,0,0,0
6.07909305472276E-06,-1.81026007339824E-05,0,0,0
7.35674530005781E-06,-1.75432414835086E-05,0,0,0
7.30712690710789E-06,-1.66501413332298E-05,0,0,0
5.86622672926751E-06,-1.67127273016376E-05,0,0,0
5.07678123540245E-06,-1.71227384271333E-05,0,0,0
3.65994537787628E-06,-1.41687196446583E-05,0,0,0
1.91968274521059E-06,-1.29526415548753E-05,0,0,0
2.04849152396491E-06,-1.24063935800223E-05,0,0,0
2.89525678454083E-06,-1.86446286534192E-05,0,0,0
1.84103089395649E-06,-1.37001097755274E-05,0,0,0
3.51541825693857E-06,-1.40582687890856E-05,0,0,0
5.34439323018887E-06,-1.00085953818052E-05,0,0,0
5.10304062117939E-06,-1.15159100460005E-05,0,0,0
4.44072793470696E-06,-1.12676489152364E-05,0,0,0
4.95282893098192E-06,-1.15403718154994E-05,0,0,0
3.33527646034781E-06,-9.32953207666287E-06,0,0,0
9.99302301352145E-07,-6.53765255265171E-06,0,0,0
-4.39509420857576E-07,-3.39274174621096E-06,0,0,0
9.92340076777509E-08,-1.09126858660602E-06,0,0,0
1.54762892634608E-06,-2.98179202218307E-06,0,0,0
1.56600845002686E-06,-4.64900904262322E-06,0,0,0
1.94105882656004E-06,-5.84463532504742E-06,0,0,0
3.49595393345226E-06,-5.72134240428568E-06,0,0,0
5.42229145139572E-06,-7.56826648284914E-06,0,0,0
5.33454294782132E-06,-8.94186268851627E-06,0,0,0
3.78425716007769E-06,-1.35049267555587E-05,0,0,0
2.05856213142397E-06,-1.98367233679164E-05,0,0,0
1.71409124050115E-06,-2.73191053565824E-05,0,0,0
2.21619416151952E-06,-3.16403202305082E-05,0,0,0
2.23126312448585E-06,-3.41271224897355E-05,0,0,0
1.64976290761842E-06,-3.30108669004403E-05,0,0,0
6.47568526801479E-07,-2.92502427328145E-05,0,0,0
-1.84859516139113E-07,-2.479672912159E-05,0,0,0
4.31425945635056E-07,-2.14229021366918E-05,0,0,0
5.53064865016495E-07,-1.61832194862654E-05,0,0,0
-5.49946321370953E-07,-2.14679821510799E-05,0,0,0
-2.06878985409276E-06,-1.39785743158427E-05,0,0,0
-1.9046352690566E-06,-1.64772391144652E-05,0,0,0
-1.74314789092023E-06,-1.27221101138275E-05,0,0,0
-9.63625438998861E-07,-1.77659276232589E-05,0,0,0
-7.43245095691236E-07,-1.67411981237819E-05,0,0,0
-5.61794365694368E-07,-1.70888397406088E-05,0,0,0
-8.72267833074147E-07,-1.69967352121603E-05,0,0,0
-1.68789063081931E-06,-1.72470208781306E-05,0,0,0
-2.59254852608137E-06,-1.7794618543121E-05,0,0,0
-2.76054356618261E-06,-2.0150764612481E-05,0,0,0
-1.2826535567001E-06,-2.32931179198204E-05,0,0,0
5.31283205873478E-07,-2.15029976970982E-05,0,0,0
2.32709726333269E-06,-1.99041205632966E-05,0,0,0
3.21959214488743E-06,-1.7017220670823E-05,0,0,0
4.26026281274972E-06,-1.74480592249893E-05,0,0,0
5.4330516832124E-06,-1.71104202308925E-05,0,0,0
5.73254919800092E-06,-1.73563712451141E-05,0,0,0
5.22420486959163E-06,-1.42909630085342E-05,0,0,0
5.04040554005769E-06,-1.36064300022554E-05,0,0,0
4.01240731662256E-06,-1.36643193400232E-05,0,0,0
1.37306892611377E-06,-1.48363051266642E-05,0,0,0
5.51503603674064E-07,-1.53846176544903E-05,0,0,0
2.19172125071054E-06,-1.65446217579301E-05,0,0,0
3.46464184985962E-06,-1.75938876054715E-05,0,0,0
4.16122657043161E-06,-1.92487605090719E-05,0,0,0
3.12942370328528E-06,-1.47201008076081E-05,0,0,0
2.87471584670129E-06,-1.85165026778122E-05,0,0,0
-4.18538945723412E-07,-1.09902766780579E-05,0,0,0
2.84623439483767E-07,-1.66744430316612E-05,0,0,0
9.40446568620246E-07,-1.59803130372893E-05,0,0,0
2.55390477832407E-06,-1.83034753717948E-05,0,0,0
2.79397613667243E-06,-1.62484975589905E-05,0,0,0
3.22168398270151E-06,-1.69130635185866E-05,0,0,0
2.07607240554353E-06,-1.64327011589194E-05,0,0,0
1.46108857279614E-06,-1.5908939531073E-05,0,0,0
2.27377540795715E-06,-1.52715201693354E-05,0,0,0
2.38924712903099E-06,-1.36539310915396E-05,0,0,0
1.93137384485453E-06,-1.35299187604687E-05,0,0,0
1.73465593888977E-06,-1.4051448488317E-05,0,0,0
2.43409112954396E-06,-1.69767372426577E-05,0,0,0
2.9802038170601E-06,-1.6182888430194E-05,0,0,0
3.72428553419013E-06,-1.55976940732216E-05,0,0,0
3.85929206458968E-06,-1.39358189699124E-05,0,0,0
4.77076264360221E-06,-1.44764371725614E-05,0,0,0
6.12167241342831E-06,-1.40985603138688E-05,0,0,0
7.14416319169686E-06,-1.59486789925722E-05,0,0,0
6.22286643192638E-06,-1.67762809724081E-05,0,0,0
4.56592124464805E-06,-1.71885276358807E-05,0,0,0
2.59386274592543E-06,-1.75694367499091E-05,0,0,0
2.14219357985712E-06,-1.84622822416713E-05,0,0,0
2.42624150814663E-06,-1.71625488292193E-05,0,0,0
3.02675925922813E-06,-1.55629986693384E-05,0,0,0
2.3115076146496E-06,-1.48553963299491E-05,0,0,0
2.63601009464765E-06,-2.2784781322116E-05,0,0,0
1.6751890825617E-06,-1.81977065949468E-05,0,0,0
3.53699761035386E-06,-2.0035142370034E-05,0,0,0
3.38513700626208E-06,-1.68909682543017E-05,0,0,0
2.94922892862814E-06,-1.98973684746306E-05,0,0,0
2.59000648838992E-06,-1.96478595171357E-05,0,0,0
2.66279289462545E-06,-2.10917060030624E-05,0,0,0
1.77367383003002E-06,-2.2536178221344E-05,0,0,0
1.69964641827391E-06,-2.57263254752615E-05,0,0,0
2.56838188761321E-06,-2.75685451924801E-05,0,0,0
3.17046010422928E-06,-2.57090523518855E-05,0,0,0
2.39428322856838E-06,-2.29661127377767E-05,0,0,0
9.32801128783467E-07,-1.98747438844293E-05,0,0,0
8.40297957438452E-07,-1.97529243450845E-05,0,0,0
1.20357242394675E-06,-1.8908312995336E-05,0,0,0
8.08388676887262E-07,-2.01825769181596E-05,0,0,0
-1.20143408821605E-06,-2.00665490410756E-05,0,0,0
-2.0351326384116E-06,-2.16099178942386E-05,0,0,0
-1.92320339920116E-06,-2.09581357921707E-05,0,0,0
-2.06303616323567E-06,-1.97442805074388E-05,0,0,0
-3.17296303364856E-06,-1.82618550752522E-05,0,0,0
-3.3720250485203E-06,-1.85452208825154E-05,0,0,0
-2.25323969971214E-06,-1.89012935152277E-05,0,0,0
-6.08888058195589E-07,-2.01629009097815E-05,0,0,0
-1.43061498647512E-07,-2.19271769310581E-05,0,0,0
-2.71689464170777E-06,-2.32024303841172E-05,0,0,0
-3.51707421941683E-06,-1.89264173968695E-05,0,0,0
-1.76533274043322E-06,-2.79489031527191E-05,0,0,0
3.99401415052125E-06,-2.13966777664609E-05,0,0,0
3.48056732946134E-06,-2.28567023441428E-05,0,0,0
8.77358388606808E-07,-1.51238336911774E-05,0,0,0
-3.8311627577059E-06,-1.5628869732609E-05,0,0,0
-3.98187376049464E-06,-1.302568216488E-05,0,0,0
-2.36981600210129E-06,-1.33788589664618E-05,0,0,0
1.69541806371853E-06,-1.13364203571109E-05,0,0,0
5.85577208767063E-06,-1.06254301499575E-05,0,0,0
8.31633587949909E-06,-1.08360163721954E-05,0,0,0
8.34863658383256E-06,-9.53829203353962E-06,0,0,0
7.47397416489548E-06,-9.99235726339975E-06,0,0,0
8.39038330013864E-06,-1.01704972621519E-05,0,0,0
7.84590338298585E-06,-1.37774013637681E-05,0,0,0
6.8986937549198E-06,-1.49369370774366E-05,0,0,0
6.71515999783878E-06,-1.51369777086074E-05,0,0,0
7.96261247160146E-06,-1.21503117043176E-05,0,0,0
7.77393051976105E-06,-1.27682451420696E-05,0,0,0
7.67446908866987E-06,-1.27820640045684E-05,0,0,0
7.1976637627813E-06,-1.41591372084804E-05,0,0,0
7.233390078909E-06,-1.47079799717176E-05,0,0,0
7.13111649019993E-06,-1.72495474544121E-05,0,0,0
6.69956671117689E-06,-2.08046676561935E-05,0,0,0
5.91937850913382E-06,-2.35868319578003E-05,0,0,0
4.32624756285804E-06,-2.28770277317381E-05,0,0,0
2.61124023381853E-06,-2.30412952078041E-05,0,0,0
2.02510113922472E-06,-2.08345500141149E-05,0,0,0
2.52437916969939E-06,-2.78909137705341E-05,0,0,0
2.00442150344315E-06,-1.57921112986514E-05,0,0,0
4.34144021710381E-06,-1.7407706764061E-05,0,0,0
6.1083774198778E-06,-1.30693697428796E-05,0,0,0
7.92130231275223E-06,-1.92293955478817E-05,0,0,0
6.05873447057093E-06,-2.08278179343324E-05,0,0,0
2.83226472674869E-06,-2.16945954889525E-05,0,0,0
1.7260952063225E-06,-1.86992801900487E-05,0,0,0
3.14912131216261E-06,-1.67215021065203E-05,0,0,0
5.3142425713304E-06,-1.67274502018699E-05,0,0,0
6.17656814938528E-06,-1.62313226610422E-05,0,0,0
5.79852212467813E-06,-1.71623978530988E-05,0,0,0
4.51569485448999E-06,-1.69032755366061E-05,0,0,0
3.89476690543233E-06,-1.86204979399918E-05,0,0,0
4.74120088256313E-06,-1.61891966854455E-05,0,0,0
6.20094488112954E-06,-1.41500577228726E-05,0,0,0
5.45329794476856E-06,-1.02533022072748E-05,0,0,0
3.71497412743338E-06,-1.01837149486528E-05,0,0,0
3.49829542756197E-06,-1.04586488305358E-05,0,0,0
4.87174838781357E-06,-1.38288196467329E-05,0,0,0
4.98178678753902E-06,-1.66994286701083E-05,0,0,0
3.89103797715507E-06,-1.9891695046681E-05,0,0,0
3.43069382324757E-06,-2.11278147617122E-05,0,0,0
5.11812550030299E-06,-2.244046117994E-05,0,0,0
5.73662555325427E-06,-2.2584305042983E-05,0,0,0
3.44843215316359E-06,-2.05939431907609E-05,0,0,0
9.49858758758637E-07,-1.54064728121739E-05,0,0,0
8.32441287457186E-07,-2.15822528844001E-05,0,0,0
1.15194502825489E-08,-1.52937282109633E-05,0,0,0
5.56242696347908E-07,-1.78223453985993E-05,0,0,0
8.97052473192161E-07,-1.39390167532838E-05,0,0,0
9.57011820901243E-07,-1.63496442837641E-05,0,0,0
6.51845539323404E-07,-1.54901026689913E-05,0,0,0
2.66006350102543E-06,-1.62153573910473E-05,0,0,0
4.66983328806236E-06,-1.58335496962536E-05,0,0,0
4.44976740254788E-06,-1.79315484274412E-05,0,0,0
3.15310489895637E-06,-2.0157422113698E-05,0,0,0
2.00132490135729E-06,-2.04123352887109E-05,0,0,0
1.53251994561288E-06,-2.07518241950311E-05,0,0,0
1.90790092347015E-06,-1.75241220858879E-05,0,0,0
2.33947343986074E-06,-1.43746492540231E-05,0,0,0
1.51869630826695E-06,-1.08281528810039E-05,0,0,0
4.00089419372307E-07,-1.07091500467504E-05,0,0,0
-1.89987289900273E-07,-8.16491774457973E-06,0,0,0
2.81363753629194E-07,-7.80805294198217E-06,0,0,0
6.91030550115102E-07,-8.68221013661241E-06,0,0,0
6.66326286591357E-07,-1.20097765829996E-05,0,0,0
7.86883020964524E-08,-1.32743480207864E-05,0,0,0
-1.13544501800789E-07,-1.30005073515349E-05,0,0,0
-6.23150526735117E-08,-1.19150572572835E-05,0,0,0
1.0188676924372E-06,-1.20966542453971E-05,0,0,0
2.47761295213422E-06,-1.10946448330651E-05,0,0,0
1.66217205332941E-06,-9.68962194747292E-06,0,0,0
-4.16328333585625E-07,-7.91575803305022E-06,0,0,0
-4.39500865923037E-07,-1.21260254672961E-05,0,0,0
1.2562155689011E-06,-1.04138634924311E-05,0,0,0
1.99521059585095E-06,-1.41358714245143E-05,0,0,0
-1.54178309230701E-07,-1.58862603711896E-05,0,0,0
-1.99914575205185E-06,-2.03162035177229E-05,0,0,0
-2.14423562283628E-06,-2.16480730159674E-05,0,0,0
-7.67916162658366E-07,-2.2342886950355E-05,0,0,0
5.80072537559317E-07,-2.41579455177998E-05,0,0,0
-1.97051761574585E-07,-2.64223072008463E-05,0,0,0
-1.39581572966563E-06,-2.60419546975754E-05,0,0,0
-1.65923586337158E-06,-2.46150739258155E-05,0,0,0
-1.61855291480606E-06,-2.58130185102345E-05,0,0,0
-9.30799615161959E-07,-2.81166485365247E-05,0,0,0
7.92585467479512E-07,-3.05935573123861E-05,0,0,0
3.09934080178209E-06,-3.02624775940785E-05,0,0,0
4.26283668275573E-06,-2.87203347397735E-05,0,0,0
3.12149904857506E-06,-2.55941049545072E-05,0,0,0
1.01107173122728E-06,-2.29355828196276E-05,0,0,0
4.35231470419239E-07,-2.05142223421717E-05,0,0,0
1.32549007503258E-06,-1.9693707145052E-05,0,0,0
1.68554970514379E-06,-1.8153168639401E-05,0,0,0
1.4502160183838E-06,-1.56262121890904E-05,0,0,0
1.01982345768192E-06,-1.16656638056156E-05,0,0,0
-3.71382213870675E-07,-7.6254723353486E-06,0,0,0
-1.20226729904971E-06,-4.46875037596328E-06,0,0,0
-7.06262824223813E-07,-2.92237177745847E-06,0,0,0
-9.53945914261567E-07,-2.33133096116944E-06,0,0,0
-8.26352277272235E-07,-2.4829510039126E-06,0,0,0
1.75245349964825E-06,1.16812657324772E-08,0,0,0
2.57889473687101E-06,7.2113408577934E-07,0,0,0
2.19642492993444E-06,-4.70496217985783E-07,0,0,0
3.00030683320074E-06,-4.26718725066166E-06,0,0,0
4.70262921226094E-06,-4.18645049649058E-06,0,0,0
5.16344198331353E-06,-3.05831986224803E-06,0,0,0
4.08755931857741E-06,-5.2356808737386E-06,0,0,0
2.80532981378201E-06,-9.64171431405703E-06,0,0,0
1.67783446158865E-06,-1.24657435662812E-05,0,0,0
2.68810231318639E-06,-1.31674241856672E-05,0,0,0
5.00006808579201E-06,-1.47493919939734E-05,0,0,0
6.72852729621809E-06,-1.67095022334252E-05,0,0,0
6.95417384122266E-06,-1.92688366951188E-05,0,0,0
5.88916464039357E-06,-2.31398553296458E-05,0,0,0
4.70838858745992E-06,-2.75361871899804E-05,0,0,0
4.98838107887423E-06,-2.79472333204467E-05,0,0,0
6.42460963717895E-06,-2.57290121226106E-05,0,0,0
6.45860063741566E-06,-2.43549457081826E-05,0,0,0
3.706699999384E-06,-2.2679823814542E-05,0,0,0
3.89379579246452E-07,-1.81056220753817E-05,0,0,0
-9.96815856524336E-07,-1.51218782775686E-05,0,0,0
-2.15341219700349E-06,-1.59592746058479E-05,0,0,0
-2.8294878120505E-06,-1.73282569448929E-05,0,0,0
-1.18355683298432E-06,-1.84384589374531E-05,0,0,0
1.07094638224225E-06,-1.98191246454371E-05,0,0,0
9.51064919263445E-07,-1.71220144693507E-05,0,0,0
-9.06062993522028E-08,-2.40196932281833E-05,0,0,0
-1.82711289653525E-06,-1.6716077880119E-05,0,0,0
-1.37286895096622E-06,-1.98513425857527E-05,0,0,0
-9.29187251585972E-07,-1.63244276336627E-05,0,0,0
9.00992233709985E-07,-1.93104006029898E-05,0,0,0
2.33319201470295E-06,-1.75747773027979E-05,0,0,0
4.23914070779574E-06,-1.81002869794611E-05,0,0,0
5.22846039530123E-06,-1.6778178178356E-05,0,0,0
5.6675394262129E-06,-1.70385719684418E-05,0,0,0
6.23902769802953E-06,-1.80924453161424E-05,0,0,0
5.37235973752104E-06,-1.84162418008782E-05,0,0,0
5.09236451762263E-06,-1.85939661605516E-05,0,0,0
5.4240749705059E-06,-1.59251158038387E-05,0,0,0
5.91958178119967E-06,-1.46153115565539E-05,0,0,0
5.5953905757633E-06,-1.1241932043049E-05,0,0,0
5.42367570233182E-06,-1.10950077214511E-05,0,0,0
6.09586959399167E-06,-1.18308753371821E-05,0,0,0
6.90194701746805E-06,-1.51017429743661E-05,0,0,0
6.04037313678418E-06,-1.6123700333992E-05,0,0,0
5.57294697500765E-06,-1.88757603609702E-05,0,0,0
7.8180200944189E-06,-2.12097584153526E-05,0,0,0
1.00602655948023E-05,-2.36269388551591E-05,0,0,0
8.73959015734727E-06,-2.31276044360129E-05,0,0,0
5.43913256478845E-06,-2.2498950784211E-05,0,0,0
4.73539785161847E-06,-2.22882081288844E-05,0,0,0
5.41562121725292E-06,-2.33551854762482E-05,0,0,0
3.53453424395411E-06,-2.07047523872461E-05,0,0,0
4.38018287240993E-06,-3.05860667140223E-05,0,0,0
3.63261983693519E-06,-2.37692274822621E-05,0,0,0
4.92015942654689E-06,-2.62442026723875E-05,0,0,0
2.28373824029404E-06,-2.10745765798492E-05,0,0,0
1.91303456631431E-06,-2.50616922130575E-05,0,0,0
3.05074081552448E-06,-2.29466222663177E-05,0,0,0
5.69691383134341E-06,-2.31026879191631E-05,0,0,0
5.7704469327291E-06,-2.1347776055336E-05,0,0,0
5.77627497477806E-06,-2.14616702578496E-05,0,0,0
6.65097286400851E-06,-2.10364232771099E-05,0,0,0
7.04093554304563E-06,-1.80889073817525E-05,0,0,0
6.64689923723927E-06,-1.69747163454304E-05,0,0,0
5.08612265548436E-06,-1.59710816660663E-05,0,0,0
4.67434801976196E-06,-1.75803452293621E-05,0,0,0
4.81801316709607E-06,-1.60735253302846E-05,0,0,0
6.24021004114184E-06,-1.73692787939217E-05,0,0,0
6.54411496725515E-06,-1.69089889823226E-05,0,0,0
5.89828596275765E-06,-1.81047798832878E-05,0,0,0
5.08019229528145E-06,-1.68493534147274E-05,0,0,0
5.09175288243569E-06,-1.68617279996397E-05,0,0,0
3.85214889320196E-06,-1.49277611853904E-05,0,0,0
2.28381168199121E-06,-1.56375444930745E-05,0,0,0
1.53819848947023E-06,-1.75480217876611E-05,0,0,0
2.34498611462186E-06,-1.91195467778016E-05,0,0,0
3.02714488498168E-06,-1.77318615897093E-05,0,0,0
3.59991622644884E-06,-1.45195817822241E-05,0,0,0
2.8642186862271E-06,-1.2290400263737E-05,0,0,0
3.40165684065141E-06,-1.76390294654993E-05,0,0,0
-4.25745438903391E-09,-1.15466900751926E-05,0,0,0
-2.77618278232694E-06,-1.29656455101212E-05,0,0,0
-5.00773649037001E-06,-1.28065166791203E-05,0,0,0
-4.18687932324247E-06,-1.84842574526556E-05,0,0,0
-3.02318289868708E-06,-2.06627319130348E-05,0,0,0
-8.65850097397924E-07,-2.04081607080298E-05,0,0,0
-3.49818208178476E-07,-1.85493008757476E-05,0,0,0
2.81711749039459E-07,-1.8823327991413E-05,0,0,0
5.85262228014471E-07,-1.94605854630936E-05,0,0,0
-8.38009839299048E-07,-1.94027870747959E-05,0,0,0
-1.73894318322709E-06,-2.1161453332752E-05,0,0,0
-1.40036718221381E-06,-2.22558592213318E-05,0,0,0
-1.96954147213546E-07,-2.33610116993077E-05,0,0,0
-1.15392890620569E-06,-2.20806959987385E-05,0,0,0
-3.19012838190247E-06,-2.17276374314679E-05,0,0,0
-4.63964124719496E-06,-1.95189659280004E-05,0,0,0
-3.98369184040348E-06,-1.67779580806382E-05,0,0,0
-2.60895649262238E-06,-1.2739671547024E-05,0,0,0
-9.36212586566398E-07,-1.2237750524946E-05,0,0,0
-1.36562323405087E-06,-1.42667195177637E-05,0,0,0
-4.0163040466723E-06,-1.71111132658552E-05,0,0,0
-4.75041360914474E-06,-1.80586885107914E-05,0,0,0
-1.68828887581185E-06,-1.73484222614206E-05,0,0,0
6.2722654092795E-07,-1.56816240632907E-05,0,0,0
2.55042948538176E-07,-1.50782980199438E-05,0,0,0
1.46333988482183E-07,-1.32141194626456E-05,0,0,0
1.23580070976459E-06,-1.88932772289263E-05,0,0,0
2.31627859648142E-06,-1.43809484143276E-05,0,0,0
2.43825138568354E-06,-1.92157713172492E-05,0,0,0
2.09542827178666E-06,-1.80041697603883E-05,0,0,0
7.45807255952968E-07,-1.97065965039656E-05,0,0,0
-1.84752025234047E-06,-1.86235520232003E-05,0,0,0
-4.33490777140833E-06,-1.81735413207207E-05,0,0,0
-3.38887616635475E-06,-1.66265326697612E-05,0,0,0
-1.24358552966441E-06,-1.72694453794975E-05,0,0,0
-8.66455707182467E-07,-1.76010435097851E-05,0,0,0
-1.49486947975674E-06,-1.64634566317545E-05,0,0,0
-1.02886258446233E-06,-1.60442359629087E-05,0,0,0
1.22342157737876E-06,-1.39981284519308E-05,0,0,0
2.66990855379845E-06,-1.33628636831418E-05,0,0,0
1.66139977864077E-06,-1.29104919324163E-05,0,0,0
4.57497399963813E-08,-1.46441498145577E-05,0,0,0
4.18938128632362E-07,-1.40218489832478E-05,0,0,0
1.17252716336225E-06,-1.51320455188397E-05,0,0,0
3.48992500676104E-07,-1.64425091497833E-05,0,0,0
-5.32615842985251E-07,-1.77690999407787E-05,0,0,0
1.47062479527449E-07,-1.76248304342153E-05,0,0,0
1.19959827316052E-06,-1.81386967597064E-05,0,0,0
1.90481966910738E-06,-1.73383668879978E-05,0,0,0
2.44644752456225E-06,-1.7670747183729E-05,0,0,0
2.59322109741333E-06,-1.88520516530843E-05,0,0,0
2.75818433692621E-06,-1.9032882846659E-05,0,0,0
1.20850586426968E-06,-1.48409126268234E-05,0,0,0
8.39565757360106E-07,-2.12243267014856E-05,0,0,0
6.04631111400522E-07,-1.77856200025417E-05,0,0,0
2.53817688644631E-06,-2.27884174819337E-05,0,0,0
2.36532332564821E-06,-1.91117123904405E-05,0,0,0
2.40346321334073E-06,-2.10204070754116E-05,0,0,0
2.0818290522584E-06,-1.91253675438929E-05,0,0,0
2.7506762307894E-06,-1.89595102710882E-05,0,0,0
2.75338925348478E-06,-1.74551278178114E-05,0,0,0
2.55020927397709E-06,-1.72652526089223E-05,0,0,0
3.61448837793432E-06,-1.5116213944566E-05,0,0,0
4.01338775191107E-06,-1.11817425931804E-05,0,0,0
3.34085075337498E-06,-1.15943776108907E-05,0,0,0
3.10023006022675E-06,-1.28719530039234E-05,0,0,0
4.41310794485617E-06,-1.40350757646956E-05,0,0,0
6.16356828686548E-06,-1.1472331607365E-05,0,0,0
7.02145734976511E-06,-1.15869306682725E-05,0,0,0
5.8932837418979E-06,-1.36704466058291E-05,0,0,0
4.22663197241491E-06,-1.96873297682032E-05,0,0,0
3.43856277140731E-06,-2.15384916373296E-05,0,0,0
3.85108251066413E-06,-2.03244635486044E-05,0,0,0
3.86752981285099E-06,-1.74200831679627E-05,0,0,0
4.05742275688681E-06,-1.69329377968097E-05,0,0,0
5.18369415658526E-06,-1.58588372869417E-05,0,0,0
6.30119438937982E-06,-1.49797442645649E-05,0,0,0
5.97854841544176E-06,-1.43553106681793E-05,0,0,0
5.78793287786539E-06,-1.28296624097857E-05,0,0,0
5.57451267013676E-06,-7.77835612097988E-06,0,0,0
7.94050083641196E-06,-1.02253416116582E-05,0,0,0
5.53564268557238E-06,-8.66765094542643E-06,0,0,0
6.04768547418644E-06,-1.32072646010784E-05,0,0,0
4.67162408313015E-06,-1.35426798806293E-05,0,0,0
6.47570823275601E-06,-1.65329620358534E-05,0,0,0
7.04572948961868E-06,-1.43241086334456E-05,0,0,0
7.88892793934792E-06,-1.16526416604756E-05,0,0,0
6.79975619277684E-06,-1.10561059045722E-05,0,0,0
5.4670390454703E-06,-1.34839428937994E-05,0,0,0
4.97208839078667E-06,-1.5222623005684E-05,0,0,0
4.05578975914977E-06,-1.57930444402155E-05,0,0,0
3.93769914808217E-06,-1.64806133398088E-05,0,0,0
3.53468408320623E-06,-1.58395741891582E-05,0,0,0
4.37554035670473E-06,-1.56998958118493E-05,0,0,0
5.39891652806546E-06,-1.47660975926556E-05,0,0,0
7.04741341905901E-06,-1.56080168380868E-05,0,0,0
7.30667625248316E-06,-1.57929243869148E-05,0,0,0
6.25354414296453E-06,-1.66721620189492E-05,0,0,0
3.52042707163491E-06,-1.59089922817657E-05,0,0,0
2.5578988243069E-06,-1.35879845402087E-05,0,0,0
3.13677719532279E-06,-1.15088987513445E-05,0,0,0
2.23420693146181E-06,-1.38855702971341E-05,0,0,0
-1.21156972454628E-06,-1.64459925144911E-05,0,0,0
-3.28033252117166E-06,-1.81492086994695E-05,0,0,0
-2.15138948078675E-06,-1.7742682757671E-05,0,0,0
4.64400727651082E-07,-1.64651337399846E-05,0,0,0
-6.72672683776909E-07,-1.49776451507933E-05,0,0,0
-3.07741788674321E-06,-2.29929046327015E-05,0,0,0
-3.78763729713683E-06,-1.80771839950467E-05,0,0,0
-1.13006547053374E-06,-1.94919339264743E-05,0,0,0
1.53484302245488E-06,-1.4888943042024E-05,0,0,0
2.52901372732595E-06,-1.63475742738228E-05,0,0,0
1.60178478836315E-06,-1.68418791872682E-05,0,0,0
6.16072611592244E-07,-1.89434249477927E-05,0,0,0
6.17771945599088E-07,-1.76639623532537E-05,0,0,0
1.59416742917529E-06,-1.76977227965835E-05,0,0,0
2.73207933787489E-06,-1.97911449504318E-05,0,0,0
3.34658693645906E-06,-2.24683662963798E-05,0,0,0
3.3841063213913E-06,-2.59772314166185E-05,0,0,0
2.75261891147238E-06,-2.55223221756751E-05,0,0,0
2.00776798919833E-06,-2.37053518503672E-05,0,0,0
1.79146206846781E-06,-2.10575999517459E-05,0,0,0
2.39949395108852E-06,-2.09069421543973E-05,0,0,0
2.72897477771039E-06,-1.85459375643404E-05,0,0,0
1.33758487663727E-06,-1.66082518262556E-05,0,0,0
-1.90852148307386E-07,-1.31697825054289E-05,0,0,0
8.54096754210332E-07,-1.11149884105544E-05,0,0,0
2.67831796918472E-06,-9.96655853668926E-06,0,0,0
2.34433082368923E-06,-1.23900044854963E-05,0,0,0
4.87204033561284E-07,-1.71550582308555E-05,0,0,0
-5.93740537624399E-07,-2.38759530475363E-05,0,0,0
1.04836203718151E-06,-2.74675458058482E-05,0,0,0
4.55104918728466E-06,-2.66565348283621E-05,0,0,0
4.48090668214718E-06,-1.91899271158036E-05,0,0,0
5.47778836335056E-06,-2.66361494141165E-05,0,0,0
2.37980566453189E-06,-2.10982379940106E-05,0,0,0
2.10936218536517E-06,-2.81247357634129E-05,0,0,0
1.10430869426636E-06,-2.42906135099474E-05,0,0,0
3.974085302616E-06,-2.59034914051881E-05,0,0,0
4.79454274682212E-06,-2.32420661632204E-05,0,0,0
4.28737530455692E-06,-2.51458659477066E-05,0,0,0
2.91178707811923E-06,-2.50905395660084E-05,0,0,0
2.69794009000179E-06,-2.58133641182212E-05,0,0,0
3.32815557158028E-06,-2.49744771281257E-05,0,0,0
4.61928857475868E-06,-2.3156051611295E-05,0,0,0
5.49545939065865E-06,-2.22360013140133E-05,0,0,0
4.08424693887355E-06,-1.82934254553402E-05,0,0,0
2.49325853474147E-06,-1.70633575180545E-05,0,0,0
2.22760195356386E-06,-1.54763256432489E-05,0,0,0
4.74139687867137E-06,-1.65105066116666E-05,0,0,0
5.84385225010919E-06,-1.46909396789852E-05,0,0,0
4.80028757010587E-06,-1.50862724694889E-05,0,0,0
2.38153961618082E-06,-1.28284455058747E-05,0,0,0
9.45617841807689E-07,-1.17852569019306E-05,0,0,0
-1.13245810950957E-07,-1.15606062536244E-05,0,0,0
4.83879603052628E-07,-1.48891094795545E-05,0,0,0
1.51456640651304E-06,-1.63023069035262E-05,0,0,0
2.56002454079862E-06,-1.60351919475943E-05,0,0,0
3.40314204549941E-06,-1.56896421685815E-05,0,0,0
3.31479282067448E-06,-1.69943123182748E-05,0,0,0
2.6002546746895E-06,-1.43243869388243E-05,0,0,0
3.79399307348649E-06,-1.9631710529211E-05,0,0,0
2.37513017964375E-06,-1.31700307974825E-05,0,0,0
2.55872350862774E-06,-1.49652287291246E-05,0,0,0
2.6825782697415E-06,-1.18380976346089E-05,0,0,0
3.73278976439906E-06,-1.48987019201741E-05,0,0,0
2.98016379929322E-06,-1.35009531732067E-05,0,0,0
1.00416605164355E-06,-1.40034289870528E-05,0,0,0
-6.52460585115477E-07,-1.31168781081215E-05,0,0,0
-4.00431645175559E-07,-1.3368379768508E-05,0,0,0
1.3914030887463E-06,-1.41029677251936E-05,0,0,0
3.09996153191605E-06,-1.33453422677121E-05,0,0,0
5.18791921422235E-06,-1.42823100759415E-05,0,0,0
6.8470353653538E-06,-1.43549641506979E-05,0,0,0
7.53896711103152E-06,-1.53821874846471E-05,0,0,0
5.53103473066585E-06,-1.33568564706366E-05,0,0,0
2.16959801946359E-06,-1.27702960526221E-05,0,0,0
-6.38894562143832E-07,-1.13231772047584E-05,0,0,0
-1.29948693938786E-06,-1.21978473544004E-05,0,0,0
-6.6756257410816E-07,-1.22217443276895E-05,0,0,0
2.0606034922821E-07,-1.28521905935486E-05,0,0,0
6.8331041802594E-07,-1.232723116118E-05,0,0,0
1.34527647333016E-06,-1.33229259517975E-05,0,0,0
1.03014895103115E-06,-1.38781761052087E-05,0,0,0
-9.84773691925511E-07,-1.37447832457838E-05,0,0,0
-1.32885952552897E-06,-1.33602979985881E-05,0,0,0
8.75184298365639E-07,-1.34480969791184E-05,0,0,0
3.13469877255557E-06,-1.04897544588312E-05,0,0,0
4.44574470748194E-06,-1.42381541081704E-05,0,0,0
1.75368529653497E-06,-1.07856367321801E-05,0,0,0
4.26693588906346E-07,-1.41930686368141E-05,0,0,0
-5.41605800208345E-07,-1.21754110296024E-05,0,0,0
8.34307513741805E-07,-1.45475250974414E-05,0,0,0
2.36506798501068E-06,-1.42203334689839E-05,0,0,0
3.22022151522106E-06,-1.52217853610637E-05,0,0,0
3.05075241158193E-06,-1.53047440107912E-05,0,0,0
3.47668674294255E-06,-1.55259349412518E-05,0,0,0
4.43276348960353E-06,-1.50045270856936E-05,0,0,0
4.42093232777552E-06,-1.55546877067536E-05,0,0,0
3.84515624318738E-06,-1.79839935299242E-05,0,0,0
2.90154139293008E-06,-1.81873911060393E-05,0,0,0
2.06430104299216E-06,-1.83546271728119E-05,0,0,0
1.9136457467539E-06,-1.71959836734459E-05,0,0,0
3.11199642055726E-06,-1.77108158823103E-05,0,0,0
4.73075169793447E-06,-1.75188706634799E-05,0,0,0
6.4884766288742E-06,-1.79851067514392E-05,0,0,0
6.21306935499888E-06,-1.57360063894885E-05,0,0,0
4.20190417571575E-06,-1.42153585329652E-05,0,0,0
3.11261328533874E-06,-1.30192711367272E-05,0,0,0
3.91148978451383E-06,-1.41163282023626E-05,0,0,0
3.42180146617466E-06,-1.63907443493372E-05,0,0,0
2.05151445697993E-06,-1.83485226443736E-05,0,0,0
2.30596378969494E-06,-1.92636671272339E-05,0,0,0
2.68080634668877E-06,-2.02061146410415E-05,0,0,0
1.50739685977896E-06,-1.65997771546245E-05,0,0,0
1.5924733816064E-06,-2.29608467634534E-05,0,0,0
9.95759705801902E-07,-1.62713768077083E-05,0,0,0
1.8415261138216E-06,-2.01596922124736E-05,0,0,0
2.22418248085887E-06,-1.72435575223062E-05,0,0,0
4.00403632738744E-06,-2.109342131007E-05,0,0,0
5.21715537615819E-06,-1.89050188055262E-05,0,0,0
5.17712669534376E-06,-1.75662098627072E-05,0,0,0
4.4051207623852E-06,-1.5525363778579E-05,0,0,0
4.67821564598125E-06,-1.58406073751394E-05,0,0,0
4.87785155200982E-06,-1.59335722855758E-05,0,0,0
4.26987435275805E-06,-1.34138099383563E-05,0,0,0
4.10379016102524E-06,-1.38391933433013E-05,0,0,0
5.26482608620427E-06,-1.57538397616008E-05,0,0,0
6.34737671134644E-06,-2.02331375476206E-05,0,0,0
5.80649339099182E-06,-2.1158397430554E-05,0,0,0
4.95177891934873E-06,-2.07292614504695E-05,0,0,0
3.96517407352803E-06,-1.59675073518883E-05,0,0,0
3.50687992067833E-06,-1.35527770908084E-05,0,0,0
3.06714605358138E-06,-1.25137503346195E-05,0,0,0
2.81371808341646E-06,-1.39257508635637E-05,0,0,0
1.94872768588539E-06,-1.31514034364955E-05,0,0,0
2.14227654282695E-07,-1.20548857012182E-05,0,0,0
-1.18777859370311E-06,-1.07599171315087E-05,0,0,0
-8.86938437361096E-07,-1.05958815765916E-05,0,0,0
2.54817450695555E-07,-1.12753987195902E-05,0,0,0
2.03180138669268E-06,-1.43124925671145E-05,0,0,0
3.0019562018424E-06,-1.44488058140269E-05,0,0,0
2.5383881165908E-06,-2.07571265491424E-05,0,0,0
-3.63875244602241E-07,-1.57816939463373E-05,0,0,0
2.08142228075303E-06,-2.08206565730507E-05,0,0,0
3.14928911393508E-06,-1.89813072211109E-05,0,0,0
2.62486696556152E-06,-1.90772716450738E-05,0,0,0
1.61789978392335E-06,-1.65850069606677E-05,0,0,0
3.18486218020553E-06,-1.87816858669976E-05,0,0,0
4.61686295238906E-06,-2.11467613553395E-05,0,0,0
4.43004137196112E-06,-2.20306355913635E-05,0,0,0
3.74063529307023E-06,-2.19448211282725E-05,0,0,0
2.3612826680619E-06,-2.35436018556356E-05,0,0,0
1.30465082293085E-06,-2.6490117306821E-05,0,0,0
3.02317403111374E-07,-2.46677809627727E-05,0,0,0
2.67893671690445E-08,-2.22285980271408E-05,0,0,0
1.13111454425052E-07,-1.92157349374611E-05,0,0,0
1.43552369991085E-06,-1.89982729352778E-05,0,0,0
2.49806862484547E-06,-1.78309855982661E-05,0,0,0
2.79836922345567E-06,-1.79681264853571E-05,0,0,0
1.91508638636151E-06,-1.70554503711173E-05,0,0,0
4.85567511532281E-07,-1.72709678736283E-05,0,0,0
-7.00715872881119E-07,-1.58309976541204E-05,0,0,0
8.08745085123519E-07,-1.435228932678E-05,0,0,0
3.73415127796761E-06,-1.41889895530767E-05,0,0,0
4.72762940262328E-06,-1.77351557795191E-05,0,0,0
3.00265492114704E-06,-2.26172960537951E-05,0,0,0
2.86885415334837E-06,-2.46126164711313E-05,0,0,0
3.80764777219156E-06,-1.83725514943944E-05,0,0,0
3.97508210880915E-06,-2.33700557146221E-05,0,0,0
6.36164713796461E-07,-1.34917536342982E-05,0,0,0
2.14752049032541E-06,-1.8667733456823E-05,0,0,0
1.82436838258582E-06,-1.72861418832326E-05,0,0,0
1.24488951769308E-06,-2.12895174627192E-05,0,0,0
1.02184435490926E-06,-1.74979868461378E-05,0,0,0
3.09851543534023E-06,-1.59398023242829E-05,0,0,0
4.00525550503517E-06,-1.55608795466833E-05,0,0,0
3.59759405910154E-06,-1.94175518117845E-05,0,0,0
3.59103819391748E-06,-2.33499104069779E-05,0,0,0
2.32332899940957E-06,-2.37351923715323E-05,0,0,0
9.1115271061426E-07,-2.28334520215867E-05,0,0,0
1.30396131226007E-06,-1.81640061782673E-05,0,0,0
3.00984015666472E-06,-1.57342619786505E-05,0,0,0
3.80753431272751E-06,-1.43201968967333E-05,0,0,0
3.5770817703451E-06,-1.76958874362754E-05,0,0,0
1.62352830557211E-06,-1.84473901754245E-05,0,0,0
-5.69135814032506E-08,-1.91152594197774E-05,0,0,0
-9.24497555843118E-07,-1.77149686351186E-05,0,0,0
-8.00802126832423E-07,-1.94446329260245E-05,0,0,0
-7.18025262358424E-07,-2.07970351766562E-05,0,0,0
1.0233712828267E-06,-2.21113641600823E-05,0,0,0
3.1793208563613E-06,-2.14333904295927E-05,0,0,0
4.4302832975518E-06,-2.05039596039569E-05,0,0,0
5.38122822035803E-06,-1.86032648343826E-05,0,0,0
5.36217203261913E-06,-1.59312839969061E-05,0,0,0
3.95319921153714E-06,-1.44739760798984E-05,0,0,0
5.34302944288356E-06,-2.38866941799643E-05,0,0,0
4.66137043986237E-06,-2.1781570467283E-05,0,0,0
8.33543072076282E-06,-2.47632196987979E-05,0,0,0
8.78853279573377E-06,-2.21894206333673E-05,0,0,0
7.95450887380866E-06,-2.21936570596881E-05,0,0,0
6.36077902527177E-06,-1.70054299815092E-05,0,0,0
6.37377115708659E-06,-1.48868939504609E-05,0,0,0
5.51134962734068E-06,-1.35828286147444E-05,0,0,0
4.57496798844659E-06,-1.26697896121186E-05,0,0,0
4.98408007842954E-06,-1.28703950394993E-05,0,0,0
4.86142016598023E-06,-1.34857618832029E-05,0,0,0
4.95134554512333E-06,-1.40859810926486E-05,0,0,0
4.8607603275741E-06,-1.15666425699601E-05,0,0,0
4.57894475403009E-06,-1.20963040899369E-05,0,0,0
3.05423668578442E-06,-1.35721566039138E-05,0,0,0
1.8287652210347E-06,-1.51942704178509E-05,0,0,0
1.89444335774169E-06,-1.37224687932758E-05,0,0,0
3.25390578836959E-06,-1.42399367177859E-05,0,0,0
2.25458461500239E-06,-1.57243575813482E-05,0,0,0
9.3527643230118E-07,-1.96326691366266E-05,0,0,0
2.19790217670379E-06,-2.20298898057081E-05,0,0,0
4.37047401646851E-06,-2.11544211197179E-05,0,0,0
4.72585270472337E-06,-1.68887436302612E-05,0,0,0
3.75526406060089E-06,-1.27704688566155E-05,0,0,0
2.66866618403583E-06,-9.53299149841769E-06,0,0,0
1.94442623069335E-06,-9.25741005630698E-06,0,0,0
1.50936205045582E-06,-9.27094606595347E-06,0,0,0
2.64294817498012E-06,-1.40668835229008E-05,0,0,0
2.90348270937102E-06,-1.16305782285053E-05,0,0,0
3.1191727885016E-06,-1.45055637403857E-05,0,0,0
1.40685847327404E-06,-1.39480180223472E-05,0,0,0
8.32939917927433E-07,-1.56043970491737E-05,0,0,0
1.94828294297622E-06,-1.54983717948198E-05,0,0,0
3.30463694808714E-06,-1.73775806615595E-05,0,0,0
3.52230426869937E-06,-1.78541886270978E-05,0,0,0
3.03947581414832E-06,-1.85694116225932E-05,0,0,0
2.44825218942424E-06,-1.90926493814914E-05,0,0,0
1.72246438978618E-06,-1.84651034942362E-05,0,0,0
1.39708936330862E-06,-1.86523466254584E-05,0,0,0
5.53144952064599E-09,-1.8828061001841E-05,0,0,0
-1.37955782975041E-06,-1.93388605111977E-05,0,0,0
-6.76344598105061E-07,-1.78576956386678E-05,0,0,0
8.18012949821423E-07,-1.80643128260272E-05,0,0,0
1.3681317341252E-06,-1.80082242877688E-05,0,0,0
1.85867656909977E-06,-1.81674549821764E-05,0,0,0
1.90710022707208E-06,-1.66665085998829E-05,0,0,0
1.33013543290872E-06,-1.48753433677484E-05,0,0,0
4.25738733156322E-07,-1.34280389829655E-05,0,0,0
-4.54548882089512E-07,-1.38743853312917E-05,0,0,0
-1.42657370361121E-06,-1.43695133374422E-05,0,0,0
-2.6668442387745E-06,-1.45049325510627E-05,0,0,0
-2.28168141802598E-06,-1.3235277037893E-05,0,0,0
-6.14742759807996E-07,-1.20615859486861E-05,0,0,0
-4.06168993549727E-07,-1.02266767498804E-05,0,0,0
-1.87197429113439E-07,-1.52861412061611E-05,0,0,0
6.36479285276437E-07,-1.12113912109635E-05,0,0,0
1.67871732514868E-07,-1.21702132673818E-05,0,0,0
-8.79283049926016E-07,-1.15051143438905E-05,0,0,0
-1.0148011142519E-06,-1.60297659022035E-05,0,0,0
-2.01769854157874E-08,-1.62299329531379E-05,0,0,0
1.66105721177701E-07,-1.60289800987812E-05,0,0,0
-1.01281216302596E-06,-1.56751175381942E-05,0,0,0
-1.80897916379763E-06,-1.52664724737406E-05,0,0,0
-5.3546307299257E-07,-1.43492361530662E-05,0,0,0
1.61339085025247E-06,-1.34828442241997E-05,0,0,0
2.95437962449796E-06,-1.46768697959487E-05,0,0,0
3.61352726940822E-06,-1.5521951354458E-05,0,0,0
3.60982721758774E-06,-1.71517822309397E-05,0,0,0
3.42162411470781E-06,-1.7354328520014E-05,0,0,0
3.18680099553603E-06,-1.8269507563673E-05,0,0,0
3.29159001921653E-06,-1.91133349289885E-05,0,0,0
3.50388540937274E-06,-2.0626934201573E-05,0,0,0
3.13597092826967E-06,-1.90410846698796E-05,0,0,0
1.37784252274287E-06,-1.74147062352858E-05,0,0,0
-6.82128757034661E-07,-1.70419389178278E-05,0,0,0
-9.72593596770821E-08,-1.93343530554557E-05,0,0,0
2.02500655177573E-06,-2.19906451093266E-05,0,0,0
3.58240822606604E-06,-2.21657483052695E-05,0,0,0
3.31696287503291E-06,-2.09239078685641E-05,0,0,0
1.0092710454046E-06,-2.08538967854111E-05,0,0,0
1.28253645925724E-07,-1.66009704116732E-05,0,0,0
9.90475427897763E-07,-2.21703849092592E-05,0,0,0
2.72513489107951E-07,-1.56339829118224E-05,0,0,0
-2.36251958085631E-06,-2.18357017729431E-05,0,0,0
-2.26122665480943E-06,-1.90950177056948E-05,0,0,0
-9.88935312307149E-07,-2.16475855268072E-05,0,0,0
-1.5414894960486E-06,-2.07674147532089E-05,0,0,0
-2.67976633949729E-06,-2.272493475175E-05,0,0,0
-2.86923364001268E-06,-2.30631212616572E-05,0,0,0
-2.25262556341477E-06,-2.23251608986175E-05,0,0,0
-2.23130086851597E-06,-2.21668869926361E-05,0,0,0
-1.58100840508268E-06,-2.3188082195702E-05,0,0,0
4.90722058543724E-08,-2.46028084802674E-05,0,0,0
1.83944257514668E-06,-2.18901932385052E-05,0,0,0
2.11607903111144E-06,-2.02433766389731E-05,0,0,0
6.84332235323382E-07,-1.78268801391823E-05,0,0,0
-9.32989735247247E-07,-1.83109823410632E-05,0,0,0
-1.28323415538034E-06,-1.83373995241709E-05,0,0,0
-7.60734224058979E-07,-1.99213391169906E-05,0,0,0
-6.92859591922002E-09,-1.80498318513855E-05,0,0,0
1.03496449810336E-06,-1.7677846699371E-05,0,0,0
2.36493747252098E-06,-1.87053683475824E-05,0,0,0
5.1055590120086E-06,-1.99326132133137E-05,0,0,0
6.53927281746292E-06,-1.80036677193129E-05,0,0,0
5.77470564167015E-06,-1.66568643180653E-05,0,0,0
4.4121234168415E-06,-1.56255864567356E-05,0,0,0
2.2450346932601E-06,-1.46669781315723E-05,0,0,0
6.75526507620816E-07,-1.22776791613433E-05,0,0,0
2.81502389043453E-06,-1.83119664143305E-05,0,0,0
5.55358883502777E-06,-1.38755895022769E-05,0,0,0
7.93020353739848E-06,-1.59296068886761E-05,0,0,0
7.68964127928484E-06,-1.43859533636714E-05,0,0,0
4.89902868139325E-06,-1.56842997967033E-05,0,0,0
3.26903591485461E-06,-1.37062816065736E-05,0,0,0
2.64180039266648E-06,-1.4916533473297E-05,0,0,0
2.3810962375137E-06,-1.40895526783424E-05,0,0,0
3.85464591090567E-06,-1.32955083245179E-05,0,0,0
6.45490536044235E-06,-1.43972074511112E-05,0,0,0
7.77361037762603E-06,-1.52218299263041E-05,0,0,0
6.45099817120354E-06,-1.51375870700576E-05,0,0,0
5.23137669006246E-06,-1.28244710140279E-05,0,0,0
6.69500104777399E-06,-1.26496643133578E-05,0,0,0
9.71296867646743E-06,-1.25154101624503E-05,0,0,0
1.04611635833862E-05,-1.40894680953352E-05,0,0,0
8.51387085276656E-06,-1.4637939784734E-05,0,0,0
6.04789101998904E-06,-1.7345755622955E-05,0,0,0
4.40553822045331E-06,-1.86536944966065E-05,0,0,0
4.2887236304523E-06,-1.76379089680268E-05,0,0,0
5.08036646351684E-06,-1.46859183587367E-05,0,0,0
6.19023194303736E-06,-1.50238074638764E-05,0,0,0
6.93341735313879E-06,-1.58285874931607E-05,0,0,0
6.97029054208542E-06,-1.55387097038329E-05,0,0,0
5.18233446200611E-06,-1.54766948980978E-05,0,0,0
1.79560061042139E-06,-1.67302805493819E-05,0,0,0
1.90667219612806E-06,-1.44280666063423E-05,0,0,0
4.54753717349377E-06,-1.99897513084579E-05,0,0,0
5.37422920388053E-06,-1.32225286506582E-05,0,0,0
5.8476280173636E-06,-1.54391782416496E-05,0,0,0
5.63313460588688E-06,-1.39852409120067E-05,0,0,0
5.7291531447845E-06,-1.90640457731206E-05,0,0,0
5.29753742739558E-06,-1.84699656529119E-05,0,0,0
2.7157582280779E-06,-1.8112528778147E-05,0,0,0
-3.25514349697187E-07,-1.70367329701548E-05,0,0,0
-8.52722848776466E-07,-1.68414953805041E-05,0,0,0
8.86056568560889E-07,-1.59494320541853E-05,0,0,0
1.56010412410978E-06,-1.53520668391138E-05,0,0,0
1.46119327837368E-06,-1.75654331542319E-05,0,0,0
1.25256042338151E-06,-1.89207366929622E-05,0,0,0
1.12417387754249E-06,-1.99661426449893E-05,0,0,0
8.1968664744636E-07,-1.71386072906898E-05,0,0,0
4.67621987354505E-07,-1.40633792398148E-05,0,0,0
2.71210094382468E-08,-9.71673762251157E-06,0,0,0
-6.53678114304057E-07,-8.63424429553561E-06,0,0,0
-6.72803764700802E-07,-8.06830576038919E-06,0,0,0
5.91629500945601E-08,-9.29554789763642E-06,0,0,0
4.95551034873642E-07,-8.84353266883409E-06,0,0,0
2.03186104386077E-07,-9.01100429473445E-06,0,0,0
-1.17979800506873E-06,-8.56374663271708E-06,0,0,0
-8.91241995759628E-07,-9.24225605558604E-06,0,0,0
1.66263180290116E-06,-9.78861407929799E-06,0,0,0
1.70070018157276E-06,-8.77468664839398E-06,0,0,0
6.79712115925213E-07,-5.88240754950675E-06,0,0,0
1.23166296361887E-06,-9.21461651159916E-06,0,0,0
1.11806934910419E-06,-1.01080659078434E-05,0,0,0
7.32726050500787E-07,-1.85766966751544E-05,0,0,0
-3.02046231581699E-07,-2.56857529166155E-05,0,0,0
-9.67923256212089E-07,-3.00883366435301E-05,0,0,0
6.16762179106445E-08,-2.8927393941558E-05,0,0,0
2.73552200269478E-06,-2.61844252236187E-05,0,0,0
3.16191312776937E-06,-2.38484572037123E-05,0,0,0
1.59021772105916E-06,-2.37643234868301E-05,0,0,0
6.76652746278705E-07,-2.26303200179245E-05,0,0,0
1.13035093818326E-06,-1.93273499462521E-05,0,0,0
2.18754280467692E-06,-1.77314523170935E-05,0,0,0
2.62816820395528E-06,-1.63310942298267E-05,0,0,0
3.33635375682206E-06,-1.53798555402318E-05,0,0,0
4.16333568864502E-06,-1.49605712067569E-05,0,0,0
3.88401349482592E-06,-1.61245643539587E-05,0,0,0
1.89324464372476E-06,-1.59994433488464E-05,0,0,0
2.43108900122024E-07,-1.59942410391523E-05,0,0,0
-5.46621379271528E-08,-1.68959359143628E-05,0,0,0
-4.68729837166393E-07,-1.86845809366787E-05,0,0,0
-5.8524233281787E-07,-1.93060823221458E-05,0,0,0
1.04270509382332E-06,-1.82069106813287E-05,0,0,0
3.14529256684182E-06,-1.61240823217668E-05,0,0,0
4.1589887587179E-06,-1.43382667374681E-05,0,0,0
3.86996271117823E-06,-1.29418149299454E-05,0,0,0
3.10386508317606E-06,-1.22986448332085E-05,0,0,0
2.86099884760915E-06,-1.15743314381689E-05,0,0,0
5.37700680069975E-06,-1.86815195775125E-05,0,0,0
5.00766327604651E-06,-1.7176953406306E-05,0,0,0
4.98743929711054E-06,-2.03432955458993E-05,0,0,0
3.9534857023682E-06,-1.77503297891235E-05,0,0,0
3.56084160557657E-06,-1.94940821529599E-05,0,0,0
3.5124198802805E-06,-1.95622433238896E-05,0,0,0
3.34315859618073E-06,-2.17671749851434E-05,0,0,0
2.95177528641943E-06,-2.26446882152231E-05,0,0,0
3.78786330657022E-06,-2.16361295315437E-05,0,0,0
4.31577109338832E-06,-2.04800780920777E-05,0,0,0
2.85078522210824E-06,-2.07570410566404E-05,0,0,0
1.68283497714583E-06,-2.16387925320305E-05,0,0,0
3.01831732940627E-06,-1.85973676707363E-05,0,0,0
5.42973430128768E-06,-1.57942777150311E-05,0,0,0
6.30322529104888E-06,-1.40382016979856E-05,0,0,0
5.6199355640274E-06,-1.53704586409731E-05,0,0,0
4.8380338739662E-06,-1.58857455971884E-05,0,0,0
5.93610138821532E-06,-1.72996333276387E-05,0,0,0
6.97354334988631E-06,-1.67220823641401E-05,0,0,0
6.21465687800082E-06,-1.63291297212709E-05,0,0,0
4.38230972577003E-06,-1.55493453348754E-05,0,0,0
3.85399880542536E-06,-1.42992039400269E-05,0,0,0
3.93116761188139E-06,-1.39171706905472E-05,0,0,0
3.25522614730289E-06,-1.62859341799049E-05,0,0,0
2.66084657596366E-06,-1.87287278095027E-05,0,0,0
2.55427175943623E-06,-1.83941301656887E-05,0,0,0
2.04279990612122E-06,-1.1290153452137E-05,0,0,0
3.03326373796153E-06,-1.39704707180499E-05,0,0,0
2.0248382952559E-06,-9.9322051028139E-06,0,0,0
2.33626428780553E-06,-1.37450251713744E-05,0,0,0
1.83688223387435E-06,-9.99091389530804E-06,0,0,0
9.98980794975068E-07,-1.21867224152084E-05,0,0,0
-2.7158290549778E-07,-1.14938993647229E-05,0,0,0
-3.84207822889948E-07,-1.33165813167579E-05,0,0,0
9.26764926134638E-07,-1.44843779708026E-05,0,0,0
3.56879058927007E-06,-1.67805465025594E-05,0,0,0
5.96526297158562E-06,-1.86347497219685E-05,0,0,0
6.78474043525057E-06,-1.99059668375412E-05,0,0,0
5.75321791984607E-06,-2.1060615836177E-05,0,0,0
3.8588141251239E-06,-1.94155163626419E-05,0,0,0
3.14393196276797E-06,-1.79468297574203E-05,0,0,0
3.67577467841329E-06,-1.46802940435009E-05,0,0,0
4.70026452603634E-06,-1.52631400851533E-05,0,0,0
4.4413145587896E-06,-1.71924311871408E-05,0,0,0
4.05759556088015E-06,-2.00652175408322E-05,0,0,0
4.19340631196974E-06,-1.95331376744434E-05,0,0,0
3.7420595617732E-06,-2.02078281290596E-05,0,0,0
1.91720914699545E-06,-2.16721928154584E-05,0,0,0
3.85923954127065E-07,-2.56002131209243E-05,0,0,0
8.40364293708262E-07,-2.88242390524829E-05,0,0,0
3.36394350597402E-06,-3.01444433716824E-05,0,0,0
4.45942032456514E-06,-2.9906805139035E-05,0,0,0
2.65041035163449E-06,-3.08654925902374E-05,0,0,0
4.12509109537496E-07,-2.48893793468596E-05,0,0,0
1.23538234220177E-06,-3.0965111363912E-05,0,0,0
1.27164037166949E-06,-1.59252558660228E-05,0,0,0
6.25109123575385E-07,-2.02715837076539E-05,0,0,0
-1.04694116487281E-07,-1.56130226969253E-05,0,0,0
-1.39826158829237E-06,-2.04840707738185E-05,0,0,0
-2.25115832108713E-06,-1.71257979673101E-05,0,0,0
-2.01407056010794E-06,-1.72117925103521E-05,0,0,0
-7.83534346737724E-07,-1.50904525071383E-05,0,0,0
9.08359595541697E-07,-1.50290979945567E-05,0,0,0
1.92884021998907E-06,-1.58732382260496E-05,0,0,0
1.65015694619797E-06,-1.4872542124067E-05,0,0,0
4.10218810031893E-08,-1.44875348269125E-05,0,0,0
-2.46822594363039E-07,-1.09062193587306E-05,0,0,0
8.64882849782589E-07,-1.0664345609257E-05,0,0,0
8.42171630210942E-07,-9.51671063376125E-06,0,0,0
-8.19642082205974E-07,-1.3094811947667E-05,0,0,0
-2.04572847906093E-06,-1.33338198793354E-05,0,0,0
-1.72853776803095E-06,-1.4057288353797E-05,0,0,0
5.85967683264244E-08,-1.04090913737309E-05,0,0,0
2.88091428046755E-06,-1.0019748515333E-05,0,0,0
5.33653792444966E-06,-1.14434888018877E-05,0,0,0
5.24946608493337E-06,-1.53518940351205E-05,0,0,0
2.47506477535353E-06,-1.67113030329347E-05,0,0,0
1.85966811727667E-07,-1.65582423505839E-05,0,0,0
-9.02595047591603E-07,-1.5735742636025E-05,0,0,0
-6.45143757083133E-07,-1.70912499015685E-05,0,0,0
-1.38452975306791E-07,-1.54325553012313E-05,0,0,0
-5.93268403292768E-08,-2.37921376537997E-05,0,0,0
-5.9231490467937E-07,-2.2106512915343E-05,0,0,0
-2.44683832306691E-07,-2.8785227186745E-05,0,0,0
2.01258035303908E-06,-2.75418278761208E-05,0,0,0
2.92162962978182E-06,-2.92515760520473E-05,0,0,0
1.93964569916716E-06,-2.52473255386576E-05,0,0,0
8.34691604723048E-07,-2.29823708650656E-05,0,0,0
7.98945848146104E-07,-2.03504332603188E-05,0,0,0
6.49635694571771E-07,-1.86005818250123E-05,0,0,0
-2.00529200355959E-07,-1.77055462700082E-05,0,0,0
-1.01358477877511E-06,-1.67477137438254E-05,0,0,0
3.57872877998489E-08,-1.63913155120099E-05,0,0,0
2.51462938649638E-06,-1.38448431243887E-05,0,0,0
3.22539085573226E-06,-1.36118032969534E-05,0,0,0
1.27445264297421E-06,-1.23822464956902E-05,0,0,0
-1.01360490134539E-06,-1.36171765916515E-05,0,0,0
-6.53682036499958E-07,-1.70125858858228E-05,0,0,0
1.98597081180196E-06,-2.46679574047448E-05,0,0,0
4.44785246145329E-06,-2.76983337244019E-05,0,0,0
5.28861892235E-06,-2.47322659561178E-05,0,0,0
6.33326726529049E-06,-1.78999798663426E-05,0,0,0
7.29773091734387E-06,-1.47749051393475E-05,0,0,0
6.3801617216086E-06,-1.36137023218907E-05,0,0,0
5.88818284086301E-06,-1.36476883199066E-05,0,0,0
7.31727459424292E-06,-1.46139454955119E-05,0,0,0
8.33856483950512E-06,-1.60530053108232E-05,0,0,0
6.92192998030805E-06,-1.32100522023393E-05,0,0,0
9.62755984801333E-06,-1.78473928826861E-05,0,0,0
6.86656903781113E-06,-1.2846217941842E-05,0,0,0
7.61192677600775E-06,-1.69328632182442E-05,0,0,0
3.03729211736936E-06,-1.36990674945991E-05,0,0,0
1.4394689742403E-06,-1.50064115587156E-05,0,0,0
1.27472742406098E-06,-1.41179416459636E-05,0,0,0
3.48728394783393E-06,-1.66989429999376E-05,0,0,0
4.1858215809043E-06,-1.82555395440431E-05,0,0,0
5.27204610989429E-06,-1.81872965185903E-05,0,0,0
6.32847968518035E-06,-1.70535113284132E-05,0,0,0
6.00694193053641E-06,-1.53841210703831E-05,0,0,0
4.8760757636046E-06,-1.37896786327474E-05,0,0,0
2.2823321614851E-06,-1.12714515125845E-05,0,0,0
1.02981573490979E-06,-1.24952293845126E-05,0,0,0
1.0268383903167E-06,-1.37671313495957E-05,0,0,0
3.36502807840589E-06,-1.67924972629407E-05,0,0,0
4.67073095933301E-06,-1.75743716681609E-05,0,0,0
5.12595261170645E-06,-1.79390535777202E-05,0,0,0
3.66572680832178E-06,-1.60146573762177E-05,0,0,0
3.42153248311661E-06,-1.52872071339516E-05,0,0,0
3.68804489880858E-06,-1.53536420839373E-05,0,0,0
3.44464069712558E-06,-1.8000715499511E-05,0,0,0
1.04282071333728E-06,-1.86658271559281E-05,0,0,0
-1.45477940804994E-06,-1.67337711900473E-05,0,0,0
-1.60272747962154E-06,-1.45415078804945E-05,0,0,0
-1.10020593524496E-07,-1.44676450872794E-05,0,0,0
4.27818775960986E-07,-1.32186642076704E-05,0,0,0
1.3506783034245E-06,-1.94149415619904E-05,0,0,0
2.11188284993113E-06,-1.46423044498079E-05,0,0,0
2.0657089407905E-06,-1.67487050930504E-05,0,0,0
1.1784853768404E-06,-1.38844534376403E-05,0,0,0
8.48694071464706E-07,-1.63740824064007E-05,0,0,0
2.05924447982397E-06,-1.63834283739561E-05,0,0,0
2.65729408965854E-06,-1.71933625097154E-05,0,0,0
2.85686292045284E-06,-1.57794547703816E-05,0,0,0
4.14879423260572E-06,-1.58451239258284E-05,0,0,0
4.99677116749808E-06,-1.72493546415353E-05,0,0,0
3.77615219804284E-06,-1.92635015991982E-05,0,0,0
2.9890147743572E-06,-2.27112068387214E-05,0,0,0
3.71275223187695E-06,-2.28171029448276E-05,0,0,0
3.52628512700903E-06,-2.20135807467159E-05,0,0,0
2.32755860452016E-06,-1.95076172531117E-05,0,0,0
1.93692267203005E-06,-1.80977240233915E-05,0,0,0
1.77891774910677E-06,-1.41181071739993E-05,0,0,0
8.7438337459389E-07,-1.19022579383454E-05,0,0,0
9.02501540167577E-07,-1.09408474600059E-05,0,0,0
2.03328431780392E-06,-1.35981108542182E-05,0,0,0
2.86519616565784E-06,-1.5978301235009E-05,0,0,0
2.54905876317935E-06,-1.62160577019677E-05,0,0,0
1.89108391168702E-06,-1.42175813380163E-05,0,0,0
1.22759081477852E-06,-1.34249121401808E-05,0,0,0
4.31722497751252E-07,-1.43479210237274E-05,0,0,0
1.29616535105015E-06,-1.61165971803712E-05,0,0,0
2.99576731777051E-06,-1.40278207254596E-05,0,0,0
4.38684355685837E-06,-2.12429895327659E-05,0,0,0
3.05921116705576E-06,-1.74832184711704E-05,0,0,0
3.86161491405801E-06,-1.96337241504807E-05,0,0,0
3.18955835609813E-06,-1.50203104567481E-05,0,0,0
4.46667309006443E-06,-1.66576646734029E-05,0,0,0
6.55616395306424E-06,-1.54654662765097E-05,0,0,0
6.84651558913174E-06,-1.51898002513917E-05,0,0,0
4.38058987128898E-06,-1.32233180920593E-05,0,0,0
1.68861959082278E-06,-1.35117088575498E-05,0,0,0
2.37172616834869E-06,-1.54480258061085E-05,0,0,0
4.81125698570395E-06,-1.56935384438839E-05,0,0,0
5.81004360356019E-06,-1.53297478391323E-05,0,0,0
3.66216522706964E-06,-1.35398122438346E-05,0,0,0
9.15019143121754E-07,-1.4028633813723E-05,0,0,0
-2.88772355361289E-07,-1.43666802614462E-05,0,0,0
1.2268873206267E-06,-1.74818233062979E-05,0,0,0
3.55071256308293E-06,-1.89444654097315E-05,0,0,0
4.22718630943564E-06,-2.16522912523942E-05,0,0,0
2.99861608255014E-06,-2.42752557824133E-05,0,0,0
2.40152348851552E-06,-2.72102788585471E-05,0,0,0
3.0582405088353E-06,-2.70837790594669E-05,0,0,0
3.75481931769173E-06,-2.66787446889794E-05,0,0,0
3.07882851302566E-06,-2.60383148997789E-05,0,0,0
1.53822122683778E-06,-2.45146384258987E-05,0,0,0
2.9300213100214E-07,-1.98822417587508E-05,0,0,0
6.56508404972556E-07,-1.5090608940227E-05,0,0,0
2.31943658945966E-06,-1.10428409243468E-05,0,0,0
3.41488498634135E-06,-1.63175700436113E-05,0,0,0
1.81984046321304E-06,-1.24088892334839E-05,0,0,0
2.18526770368044E-06,-1.35152768052649E-05,0,0,0
2.97008750749228E-06,-9.97516417555744E-06,0,0,0
3.03649903798942E-06,-1.03860074887052E-05,0,0,0
1.69291740803601E-06,-9.45098599913763E-06,0,0,0
2.35072411669535E-06,-1.17966310426709E-05,0,0,0
3.53024233845645E-06,-1.32697623485001E-05,0,0,0
2.88497699330037E-06,-1.47558721437235E-05,0,0,0
1.77217270902474E-06,-1.55798061314272E-05,0,0,0
1.19540675314056E-06,-1.52519705807208E-05,0,0,0
1.24989890082361E-06,-1.47580885823118E-05,0,0,0
1.16614955913974E-06,-1.33196654132917E-05,0,0,0
2.07777588911995E-06,-1.40833271871088E-05,0,0,0
2.66414349425759E-06,-1.42211956699612E-05,0,0,0
2.14135320675268E-06,-1.6134346878971E-05,0,0,0
9.82885467237793E-07,-1.65413384820567E-05,0,0,0
5.34674143182201E-07,-1.57120721269166E-05,0,0,0
3.99542244622353E-07,-1.25981259770924E-05,0,0,0
1.77124320543953E-07,-1.19621909107082E-05,0,0,0
-4.6172154100077E-08,-1.20283257274423E-05,0,0,0
-3.18087217010543E-07,-1.272169083677E-05,0,0,0
-1.41643829465465E-06,-1.29754089357448E-05,0,0,0
-2.88626392830338E-06,-1.30242697196081E-05,0,0,0
-2.86950330519176E-06,-1.29078534882865E-05,0,0,0
-1.35670904910512E-06,-1.15783495857613E-05,0,0,0
2.80362797866474E-07,-8.05073705123505E-06,0,0,0
3.78287381863629E-07,-1.06095440060017E-05,0,0,0
5.57203975404263E-07,-9.09432947082678E-06,0,0,0
1.70698672263825E-06,-1.36344815473421E-05,0,0,0
2.81548909697449E-06,-1.19658716357662E-05,0,0,0
2.92572281068715E-06,-1.28376532302354E-05,0,0,0
2.93503831017006E-06,-1.2568115380418E-05,0,0,0
3.55672318619327E-06,-1.38075683935313E-05,0,0,0
3.31540695697186E-06,-1.46544807648752E-05,0,0,0
2.59407988778548E-06,-1.66743957379367E-05,0,0,0
2.73820683105441E-06,-1.86192228284199E-05,0,0,0
2.50064749707235E-06,-1.91526214621263E-05,0,0,0
1.89132242667256E-06,-1.88949470611988E-05,0,0,0
1.35986113036779E-06,-1.78700283868238E-05,0,0,0
5.91517391512753E-07,-1.86694742296822E-05,0,0,0
-4.85042448872264E-07,-1.84989439730998E-05,0,0,0
-3.50204686583311E-07,-1.94787080545211E-05,0,0,0
1.21689708976191E-06,-1.94941894733347E-05,0,0,0
2.97318524644652E-06,-1.99741916731E-05,0,0,0
4.35880974691827E-06,-2.0384875824675E-05,0,0,0
5.43324313184712E-06,-2.29080360441003E-05,0,0,0
5.56636859982973E-06,-2.40508670685813E-05,0,0,0
5.04204581375234E-06,-2.50039374805056E-05,0,0,0
4.31365333497524E-06,-2.56900020758621E-05,0,0,0
2.95413792628096E-06,-2.45025385083864E-05,0,0,0
2.88145338345203E-06,-2.28136632358655E-05,0,0,0
4.47049478680128E-06,-2.45984647335717E-05,0,0,0
5.84507188250427E-06,-2.20300480577862E-05,0,0,0
7.80166374170221E-06,-3.13742420985363E-05,0,0,0
3.54983308170631E-06,-2.22248127101921E-05,0,0,0
3.79299262931454E-06,-2.68242165475385E-05,0,0,0
3.51183211932948E-06,-2.20866531890351E-05,0,0,0
5.11226198796066E-06,-2.54226051765727E-05,0,0,0
5.18786282555084E-06,-2.43352678808151E-05,0,0,0
5.86172291150433E-06,-2.47616117121652E-05,0,0,0
5.94775792706059E-06,-2.20749079744564E-05,0,0,0
7.20247817298514E-06,-2.11935039260425E-05,0,0,0
9.57946576818358E-06,-2.20393321797019E-05,0,0,0
1.04696582639008E-05,-2.16801454371307E-05,0,0,0
9.86512350209523E-06,-2.110382047249E-05,0,0,0
7.81070320954314E-06,-1.71544907061616E-05,0,0,0
6.51857180855586E-06,-1.61459684022702E-05,0,0,0
4.92849358124658E-06,-1.49217503349064E-05,0,0,0
4.4218732000445E-06,-1.70455605257303E-05,0,0,0
4.25320740760071E-06,-1.61597490659915E-05,0,0,0
4.6627719711978E-06,-1.67420203069923E-05,0,0,0
4.5823844629922E-06,-1.58791608555475E-05,0,0,0
5.16589807375567E-06,-1.6903626601561E-05,0,0,0
4.51159257863765E-06,-1.7278760424233E-05,0,0,0
2.83898316411069E-06,-1.79839153133798E-05,0,0,0
1.2429064781827E-06,-1.61294028657721E-05,0,0,0
3.5412872989582E-07,-1.50332934936159E-05,0,0,0
-6.08451500738738E-07,-1.44065616041189E-05,0,0,0
-8.84428516201297E-07,-1.39654684971902E-05,0,0,0
-1.62105436629645E-06,-1.03786778709036E-05,0,0,0
-1.93782784663199E-06,-1.42824437716627E-05,0,0,0
5.82078541810915E-07,-1.19304477266269E-05,0,0,0
3.06817241835233E-06,-1.56055320985615E-05,0,0,0
4.97097198604024E-06,-1.23026056826347E-05,0,0,0
4.81820052300463E-06,-1.27455159599776E-05,0,0,0
3.75297076971037E-06,-1.01007071862114E-05,0,0,0
1.23741642710229E-06,-9.32986222323962E-06,0,0,0
-4.89402623315982E-07,-1.0003951501858E-05,0,0,0
-1.28506496821501E-06,-1.26893255583127E-05,0,0,0
-2.31839703701553E-06,-1.45282847370254E-05,0,0,0
-4.06806566388696E-06,-1.50437235788559E-05,0,0,0
-4.64548156742239E-06,-1.66611262102379E-05,0,0,0
-2.53230268754123E-06,-1.64636730914935E-05,0,0,0
-5.99409759161063E-07,-1.58173625095515E-05,0,0,0
-5.45035391041893E-07,-1.33256889967015E-05,0,0,0
-1.72991678937251E-06,-1.24784819490742E-05,0,0,0
-1.68520875831746E-06,-1.18204270620481E-05,0,0,0
-1.65844176081009E-06,-1.39444255182752E-05,0,0,0
-2.60247929873003E-06,-1.54030713019893E-05,0,0,0
-3.46708679899166E-06,-1.7463622498326E-05,0,0,0
-1.77345793872519E-06,-1.86989291250939E-05,0,0,0
1.18974082852219E-06,-1.87716559594264E-05,0,0,0
2.75161460194795E-06,-1.62163087225053E-05,0,0,0
3.1130414299696E-06,-1.43180168379331E-05,0,0,0
1.74263652752416E-06,-1.37682645799941E-05,0,0,0
-1.60088220013677E-07,-1.55183970491635E-05,0,0,0
1.63147979037603E-06,-1.42882972795633E-05,0,0,0
3.50557229467086E-06,-2.09842928597936E-05,0,0,0
1.71825797679048E-06,-1.59265528054675E-05,0,0,0
-6.48301892169911E-08,-1.94003914657515E-05,0,0,0
1.29158038930655E-07,-1.79191574716242E-05,0,0,0
-4.05882957466019E-07,-2.03881354536861E-05,0,0,0
1.23846461974608E-08,-1.84315049409634E-05,0,0,0
1.44817670388875E-06,-1.75911227415781E-05,0,0,0
1.24867631257075E-06,-1.48575154526043E-05,0,0,0
-1.08420096012196E-07,-1.53376840899E-05,0,0,0
-1.55905092924513E-06,-1.77120418811683E-05,0,0,0
-2.19412618207571E-06,-1.84670934686437E-05,0,0,0
-1.79068501893198E-06,-1.91892795555759E-05,0,0,0
-1.07058099274582E-06,-1.9248842363595E-05,0,0,0
-4.70567329102778E-07,-2.15594809560571E-05,0,0,0
-3.06121734183762E-07,-2.12467693927465E-05,0,0,0
-3.01365403743148E-08,-2.00485246750759E-05,0,0,0
1.15313105197856E-06,-1.82611292984802E-05,0,0,0
2.63013316725846E-06,-2.14244719245471E-05,0,0,0
4.14655323766056E-06,-2.32914026128128E-05,0,0,0
5.41913505003322E-06,-2.24652249016799E-05,0,0,0
5.03459750689217E-06,-1.91519193322165E-05,0,0,0
4.15204931414337E-06,-1.73382049979409E-05,0,0,0
5.18807792104781E-06,-1.55886027641827E-05,0,0,0
6.88156978867482E-06,-1.57260601554299E-05,0,0,0
6.04280194238527E-06,-1.6824456906761E-05,0,0,0
4.84279325974057E-06,-1.76219509739894E-05,0,0,0
3.66529025086493E-06,-1.43035222208709E-05,0,0,0
5.76265983909252E-06,-1.87314926733961E-05,0,0,0
5.11292228111415E-06,-1.16880682980991E-05,0,0,0
5.89150658925064E-06,-1.43533807204221E-05,0,0,0
4.4286443880992E-06,-1.16808878374286E-05,0,0,0
3.82038570023724E-06,-1.60621875693323E-05,0,0,0
3.27718612425087E-06,-1.59261835506186E-05,0,0,0
4.58931799585116E-06,-1.63724162121071E-05,0,0,0
5.01982503919862E-06,-1.51831172843231E-05,0,0,0
5.94425546296407E-06,-1.32011009554844E-05,0,0,0
6.96688175594318E-06,-1.18517218652414E-05,0,0,0
6.00654448135174E-06,-1.23226036521373E-05,0,0,0
3.86826422982267E-06,-1.43878214657889E-05,0,0,0
2.43551630774164E-06,-1.37966790134669E-05,0,0,0
3.00321403301496E-06,-1.38810955832014E-05,0,0,0
3.7701424844272E-06,-1.30307735162205E-05,0,0,0
4.5535052777268E-06,-1.46459797178977E-05,0,0,0
3.68883502233075E-06,-1.51428312165081E-05,0,0,0
2.1300236312527E-06,-1.67008802236523E-05,0,0,0
1.27543660255469E-06,-1.63832664838992E-05,0,0,0
3.50198092746723E-06,-1.72258733073249E-05,0,0,0
6.2240319493867E-06,-1.66981953952927E-05,0,0,0
6.10539700574009E-06,-1.57317026605597E-05,0,0,0
3.75218587578274E-06,-1.26640989037696E-05,0,0,0
2.20560878005927E-06,-1.183980202768E-05,0,0,0
9.40408881433541E-07,-1.46437178045744E-05,0,0,0
8.96551000550971E-07,-1.72312211361714E-05,0,0,0
6.86556404616567E-07,-1.34876481752144E-05,0,0,0
6.99467989306868E-07,-1.78338959813118E-05,0,0,0
6.13168595009483E-07,-1.24485559354071E-05,0,0,0
5.05889261148695E-07,-1.65336987265619E-05,0,0,0
-1.18645016300434E-06,-1.38338318720344E-05,0,0,0
-1.75783668510121E-06,-1.68766036949819E-05,0,0,0
-9.96554035737063E-07,-1.64172524819151E-05,0,0,0
8.02333374849695E-07,-1.62863052537432E-05,0,0,0
3.59357818524586E-06,-1.50767627928872E-05,0,0,0
5.97067764829262E-06,-1.76586800080258E-05,0,0,0
5.83556629862869E-06,-2.2852285837871E-05,0,0,0
4.68975486001E-06,-2.63463443843648E-05,0,0,0
4.36737991549307E-06,-2.71999397227773E-05,0,0,0
4.43541875938536E-06,-2.41815650952049E-05,0,0,0
4.33059040005901E-06,-2.24900049943244E-05,0,0,0
4.04425463784719E-06,-1.93193300219718E-05,0,0,0
3.9604624362255E-06,-1.7514616047265E-05,0,0,0
4.28182056566584E-06,-1.50497271533823E-05,0,0,0
5.15522333444096E-06,-1.59595620061737E-05,0,0,0
5.39078837391571E-06,-1.57109680003487E-05,0,0,0
5.06798869537306E-06,-1.4726731023984E-05,0,0,0
4.82773839394213E-06,-1.31854430946987E-05,0,0,0
4.79873051517643E-06,-1.42572325785295E-05,0,0,0
4.21375762016396E-06,-1.56046389747644E-05,0,0,0
3.88830039810273E-06,-1.78902500920231E-05,0,0,0
4.14978194385185E-06,-2.12946215469856E-05,0,0,0
4.23174788011238E-06,-2.38434386119479E-05,0,0,0
3.40025712830538E-06,-1.91991748579312E-05,0,0,0
4.44609077021596E-06,-2.82047167274868E-05,0,0,0
3.36568859893305E-06,-2.23856786760734E-05,0,0,0
4.6401501094806E-06,-2.67039231403032E-05,0,0,0
4.0802697185427E-06,-2.18377008422976E-05,0,0,0
4.59020429843804E-06,-2.28008011617931E-05,0,0,0
4.40425264969235E-06,-1.81764171429677E-05,0,0,0
4.94914911541855E-06,-1.7861690139398E-05,0,0,0
3.33722437062534E-06,-1.73766111402074E-05,0,0,0
2.2718036234437E-06,-1.83626088983146E-05,0,0,0
2.86402791971341E-06,-1.98617726709927E-05,0,0,0
2.87854209091165E-06,-1.91901217476698E-05,0,0,0
2.37591552831873E-06,-1.82106432475848E-05,0,0,0
1.69752172496374E-06,-1.56248297571437E-05,0,0,0
1.23611982871807E-06,-1.74071683431976E-05,0,0,0
5.26520523180807E-07,-1.86119632417103E-05,0,0,0
1.3725455119129E-06,-2.1671587091987E-05,0,0,0
1.42056717322703E-06,-2.12396971619455E-05,0,0,0
-7.03437947890961E-08,-2.15058244066313E-05,0,0,0
-1.56103749304748E-06,-2.0300954929553E-05,0,0,0
-4.50143858188312E-07,-2.12583217944484E-05,0,0,0
1.0066637514683E-06,-2.11198203032836E-05,0,0,0
1.97150848180172E-06,-2.13619696296519E-05,0,0,0
1.5519800626862E-06,-2.07940174732357E-05,0,0,0
1.43951979225676E-06,-2.1909205315751E-05,0,0,0
1.12396890017408E-06,-2.33454175031511E-05,0,0,0
-8.77893114648032E-07,-2.35837087529944E-05,0,0,0
-1.7493234736321E-06,-1.79666058102157E-05,0,0,0
-1.35223581310129E-06,-2.41035177168669E-05,0,0,0
1.71780118307652E-06,-1.69824434124166E-05,0,0,0
2.25875783144147E-06,-2.31199974223273E-05,0,0,0
2.75930256066204E-06,-2.16883472603513E-05,0,0,0
2.83599479189434E-06,-2.59851785813225E-05,0,0,0
4.47756656285492E-06,-2.23013030336006E-05,0,0,0
6.53452570986701E-06,-2.03957715712022E-05,0,0,0
6.75804994898499E-06,-1.76235207618447E-05,0,0,0
4.23628034695867E-06,-1.57274662342388E-05,0,0,0
1.10749022042E-06,-1.48859389810241E-05,0,0,0
1.20977190931626E-07,-1.36858870973811E-05,0,0,0
7.36630056508147E-07,-1.26477743833675E-05,0,0,0
2.18700574805553E-06,-9.39175333769526E-06,0,0,0
3.09859319713723E-06,-9.54565530264517E-06,0,0,0
3.82292500944459E-06,-9.01028124644654E-06,0,0,0
5.00853775520227E-06,-1.16019955385127E-05,0,0,0
6.04351680522086E-06,-1.35696409415687E-05,0,0,0
5.2485029300442E-06,-1.68085643963423E-05,0,0,0
3.72049566976784E-06,-1.68810256582219E-05,0,0,0
2.85684882328496E-06,-1.85028293344658E-05,0,0,0
2.87998068415618E-06,-1.81774739758112E-05,0,0,0
3.10825043925433E-06,-1.59873125085142E-05,0,0,0
3.61939942195022E-06,-1.26093027574825E-05,0,0,0
3.70798125004512E-06,-1.16531045932788E-05,0,0,0
3.09251390717691E-06,-1.09915654320503E-05,0,0,0
1.47980847486906E-06,-1.1547063877515E-05,0,0,0
-2.04741627385374E-06,-9.69378925219644E-06,0,0,0
-4.47329148300923E-06,-1.45029598570545E-05,0,0,0
-3.37309370479488E-06,-1.23997861010139E-05,0,0,0
-1.14282704544166E-06,-1.48006565723335E-05,0,0,0
6.09300116138911E-07,-1.27293551486218E-05,0,0,0
4.17985461353965E-07,-1.44349132824573E-05,0,0,0
-1.11056658624875E-06,-1.3023550309299E-05,0,0,0
-1.19611445370538E-06,-1.17192930702004E-05,0,0,0
1.68732668726079E-07,-1.0203927558905E-05,0,0,0
2.18400487028703E-06,-1.17250974653871E-05,0,0,0
3.11752273773891E-06,-1.37843790071202E-05,0,0,0
3.02321154777019E-06,-1.3510814824258E-05,0,0,0
2.39710425375961E-06,-1.28537039927323E-05,0,0,0
1.20849665563583E-06,-1.2405116649461E-05,0,0,0
2.2231662910599E-07,-1.4592826119042E-05,0,0,0
-6.85679850676024E-08,-1.52908214658964E-05,0,0,0
-3.77147500785213E-07,-1.4579803973902E-05,0,0,0
-7.16451268090168E-07,-1.17668496386614E-05,0,0,0
-5.87063766488427E-07,-1.15974089567317E-05,0,0,0
-9.12142297693208E-07,-1.20699660328683E-05,0,0,0
-1.95515463019547E-06,-1.28511119328323E-05,0,0,0
-2.62880803347798E-06,-1.24029629660072E-05,0,0,0
-2.68360531663348E-06,-1.14786062113126E-05,0,0,0
-3.26288773067063E-06,-1.16501560114557E-05,0,0,0
-3.70794941773056E-06,-1.5860632629483E-05,0,0,0
-3.09704432766011E-06,-1.91221843124367E-05,0,0,0
-1.4715994893777E-06,-1.91259459825233E-05,0,0,0
6.76070385452476E-07,-1.53859691636171E-05,0,0,0
1.76053197264991E-06,-2.13385483220918E-05,0,0,0
3.0183809940354E-06,-1.46410775414552E-05,0,0,0
3.88108810511767E-06,-1.76475896296324E-05,0,0,0
3.6768199151993E-06,-1.42370836329064E-05,0,0,0
3.3903497751453E-06,-1.5777815860929E-05,0,0,0
2.91362175630638E-06,-1.43779489008011E-05,0,0,0
3.47866648553463E-06,-1.71135488926666E-05,0,0,0
4.10845223086653E-06,-1.81629748112755E-05,0,0,0
3.98066322304658E-06,-1.87443984032143E-05,0,0,0
4.05196578867617E-06,-2.02125556825195E-05,0,0,0
4.34604771726299E-06,-2.16151784115937E-05,0,0,0
3.48775392922107E-06,-2.29562538152095E-05,0,0,0
8.16962824501388E-07,-2.12172817555256E-05,0,0,0
-9.52751861404977E-07,-2.04246680368669E-05,0,0,0
-4.4684119870908E-07,-1.8573535271571E-05,0,0,0
1.26162353808468E-06,-1.93493233382469E-05,0,0,0
2.79876576314564E-06,-1.85068493010476E-05,0,0,0
3.86228384741116E-06,-1.91602575796423E-05,0,0,0
4.16320517615532E-06,-1.95164338947507E-05,0,0,0
3.39188750331232E-06,-2.19575140363304E-05,0,0,0
1.9589060684666E-06,-2.23038659896702E-05,0,0,0
1.95541065295401E-06,-2.1390462279669E-05,0,0,0
3.30172383655736E-06,-1.82877938641468E-05,0,0,0
4.65017365058884E-06,-1.6161220628419E-05,0,0,0
4.38266351920902E-06,-1.45713147503557E-05,0,0,0
3.45190801454009E-06,-1.44421965160291E-05,0,0,0
2.43691306422988E-06,-1.37555834953673E-05,0,0,0
4.15606882597785E-06,-2.00650611077435E-05,0,0,0
3.7194081414782E-06,-1.71854462678311E-05,0,0,0
3.16558043778059E-06,-2.28542994591407E-05,0,0,0
5.44126464774308E-07,-1.97459230548702E-05,0,0,0
-2.51177254995127E-07,-1.88976155186538E-05,0,0,0
1.02685453384765E-06,-1.46260390465613E-05,0,0,0
3.34882520292012E-06,-1.609055652807E-05,0,0,0
3.82092821382685E-06,-1.93980122276116E-05,0,0,0
4.23481560574146E-06,-2.10356138268253E-05,0,0,0
6.1195346461318E-06,-1.99339283426525E-05,0,0,0
8.62983233673731E-06,-1.75823006429709E-05,0,0,0
9.46292766457191E-06,-1.75536897586426E-05,0,0,0
8.66535356180975E-06,-1.70371567946859E-05,0,0,0
8.87914575287141E-06,-1.78291265910957E-05,0,0,0
1.01179439297994E-05,-1.58850652951514E-05,0,0,0
1.0792187822517E-05,-1.51144995470531E-05,0,0,0
9.31194244913058E-06,-1.36353401103406E-05,0,0,0
7.62606259741005E-06,-1.36592916533118E-05,0,0,0
7.10200811226969E-06,-1.3438458154269E-05,0,0,0
7.1026320256351E-06,-1.52659449668135E-05,0,0,0
5.74373279960128E-06,-1.65089513757266E-05,0,0,0
3.50445793628751E-06,-1.82477033376927E-05,0,0,0
1.69553663909028E-06,-1.78575664904201E-05,0,0,0
2.88915680357604E-06,-1.66370537044713E-05,0,0,0
5.25150699104415E-06,-1.57372269313782E-05,0,0,0
4.87182842334732E-06,-1.60736890393309E-05,0,0,0
1.50062066950341E-06,-1.40264191941242E-05,0,0,0
-6.36368952200428E-07,-1.92707047972362E-05,0,0,0
-2.25545659304771E-06,-1.38616951517179E-05,0,0,0
6.37009861748083E-07,-1.78325044544181E-05,0,0,0
8.34729462440009E-07,-1.36974358611042E-05,0,0,0
1.01121599982434E-06,-1.49048346429481E-05,0,0,0
1.05458457255736E-06,-1.39858648253721E-05,0,0,0
1.45464730394451E-06,-1.49329434862011E-05,0,0,0
1.1263190202726E-07,-1.59060618898366E-05,0,0,0
-1.09146867544041E-06,-1.79355702130124E-05,0,0,0
-4.47120072522011E-07,-1.93043379113078E-05,0,0,0
2.03254944608489E-06,-1.77558631548891E-05,0,0,0
3.77540595764003E-06,-1.69231716427021E-05,0,0,0
2.39376095123589E-06,-1.55870638991473E-05,0,0,0
5.80030814489874E-07,-1.65071305673337E-05,0,0,0
4.52580025012139E-07,-1.63849181262776E-05,0,0,0
2.21145910472842E-06,-1.78263890120434E-05,0,0,0
2.41137286138837E-06,-1.81423001777148E-05,0,0,0
1.60515730840416E-06,-1.97295648831641E-05,0,0,0
1.0929451264019E-06,-1.90053924598033E-05,0,0,0
2.33842251873284E-06,-1.89094844245119E-05,0,0,0
2.8910822038597E-06,-1.94044350791955E-05,0,0,0
1.98958900909929E-06,-2.20181009353837E-05,0,0,0
1.60122431225318E-06,-2.48850919888355E-05,0,0,0
3.24134953189059E-06,-2.6350960979471E-05,0,0,0
5.27346537637641E-06,-2.59670141531387E-05,0,0,0
6.93096217219136E-06,-2.45392584474757E-05,0,0,0
5.85062844038475E-06,-1.83709871635074E-05,0,0,0
7.2723532866803E-06,-2.58713644143427E-05,0,0,0
3.29380122821021E-06,-1.93923424376408E-05,0,0,0
3.09824508804013E-06,-2.36986670643091E-05,0,0,0
8.04202159088163E-07,-1.75215918716276E-05,0,0,0
1.32197374114185E-06,-1.79857015609741E-05,0,0,0
1.44907303933905E-07,-1.51861304402701E-05,0,0,0
-9.41939731546881E-07,-1.6161775420187E-05,0,0,0
-2.95549671136541E-06,-1.5863895896473E-05,0,0,0
-3.37218557433516E-06,-1.49254237840069E-05,0,0,0
-2.49009463004768E-06,-1.4374249985849E-05,0,0,0
-2.11905512514932E-06,-1.6209563909797E-05,0,0,0
-2.10423695534701E-06,-2.21058417082531E-05,0,0,0
-2.60574552157777E-06,-2.38924276345642E-05,0,0,0
-1.45881040225504E-06,-2.24200393859064E-05,0,0,0
-2.33241664204797E-07,-1.75783952727215E-05,0,0,0
1.16093315227772E-06,-1.77925558091374E-05,0,0,0
1.32234890770633E-06,-1.85154658538522E-05,0,0,0
1.97123995349102E-06,-2.00074591703014E-05,0,0,0
1.4916394093234E-06,-1.77981946762884E-05,0,0,0
1.23538518437272E-06,-1.83407391887158E-05,0,0,0
1.83972917966457E-06,-1.94140120584052E-05,0,0,0
3.18652405439934E-06,-1.9164366676705E-05,0,0,0
2.84510929304815E-06,-1.63823115144623E-05,0,0,0
2.6873383376369E-06,-1.50011346704559E-05,0,0,0
2.7680823677656E-06,-1.60914387379307E-05,0,0,0
3.64765196536609E-06,-1.75911100086523E-05,0,0,0
3.40931183018256E-06,-1.37650695251068E-05,0,0,0
5.09624669575715E-06,-1.97949630091898E-05,0,0,0
4.07263178203721E-06,-1.64288776431931E-05,0,0,0
5.00795295010903E-06,-1.96779674297431E-05,0,0,0
4.80357493870542E-06,-1.56174482981442E-05,0.17578125,0,0
4.64605909655802E-06,-1.71681040228577E-05,0.17578125,0,0
4.30871386924991E-06,-1.49353227243409E-05,0.17578125,0,0
5.90699619351653E-06,-1.61162697622785E-05,0.17578125,0,0
6.34041089142556E-06,-1.58301700139418E-05,0.17578125,0,0
7.57738598622382E-06,-1.5343030099757E-05,0.17578125,0,0
8.73318276717328E-06,-1.48313902172958E-05,0.17578125,0,0
7.83795348979766E-06,-1.41646896736347E-05,0.17578125,0,0
5.81749054617831E-06,-1.40939282573527E-05,0.17578125,0,0
3.9199871935125E-06,-1.24664957183995E-05,0.17578125,0,0
4.15673866882571E-06,-1.38892564791604E-05,0.17578125,0,0
5.03262162965257E-06,-1.47545270010596E-05,0.17578125,0,0
5.58285728402552E-06,-1.70434923347784E-05,0.17578125,0,0
4.92548088004696E-06,-1.70980620168848E-05,0.17578125,0,0
5.1172301027691E-06,-1.76164448930649E-05,0.17578125,0,0
5.22590153195779E-06,-1.52601951413089E-05,0.17578125,0,0
4.65305583929876E-06,-1.26878549053799E-05,0.17578125,0,0
3.68840642295254E-06,-9.03219097381225E-06,0.17578125,0,0
3.71478495253541E-06,-7.00722875990323E-06,0.17578125,0,0
2.57318538388063E-06,-5.43860824109288E-06,0.17578125,0,0
-2.13063842124939E-07,-5.62966442885227E-06,0.17578125,0,0
-1.27044438613666E-06,-7.33250772100291E-06,0.17578125,0,0
8.18627867715804E-08,-9.48206434259191E-06,0.17578125,0,0
1.24200732898316E-06,-8.06314619694604E-06,0.17578125,0,0
2.25013991439482E-06,-1.24400739878183E-05,0.17578125,0,0
2.36178880186344E-06,-1.16485098260455E-05,0.17578125,0,0
2.61103991761047E-06,-1.38358964250074E-05,0.17578125,0,0
3.61602042175946E-06,-1.08179956441745E-05,0.17578125,0,0
4.18237959820544E-06,-9.79441756499E-06,0.17578125,0,0
2.93509560833627E-06,-7.78644061938394E-06,0.17578125,0,0
2.01665056920319E-06,-9.82017536443891E-06,0.17578125,0,0
2.69848101197567E-07,-1.23497457025223E-05,0.17578125,0,0
-1.5559248822683E-06,-1.38126815727446E-05,0.17578125,0,0
-3.22232995131344E-06,-1.33087269205134E-05,0.17578125,0,0
-4.56426187156467E-06,-1.34794690893614E-05,0.17578125,0,0
-3.70286238648987E-06,-1.6134459656314E-05,0.17578125,0,0
-9.54424535848375E-07,-1.66965219250415E-05,0.17578125,0,0
1.90958985513134E-06,-1.6308165868395E-05,0.17578125,0,0
3.67648408428067E-06,-1.60079962370219E-05,0.17578125,0,0
4.03423928219127E-06,-1.83700685738586E-05,0.17578125,0,0
3.29784347741224E-06,-1.91460567293689E-05,0.17578125,0,0
3.01221325571532E-06,-1.88989488378866E-05,0.17578125,0,0
3.10445398099546E-06,-1.72710115293739E-05,0.17578125,0,0
2.97716928798764E-06,-1.69098984770244E-05,0.17578125,0,0
1.73857904428587E-06,-1.61474890774116E-05,0.17578125,0,0
8.39983783862408E-07,-1.57653739734087E-05,0.17578125,0,0
3.22367242233668E-07,-1.60766339831753E-05,0.17578125,0,0
-8.65026834162563E-07,-1.67457656061742E-05,0.17578125,0,0
-1.68788210430648E-06,-1.6410473108408E-05,0.17578125,0,0
-9.32530610953108E-07,-1.48247763718246E-05,0.17578125,0,0
4.1952753804253E-07,-1.13003634396591E-05,0.17578125,0,0
6.996929187153E-07,-1.59294431796297E-05,0.17578125,0,0
-2.39316449324178E-07,-1.24317630252335E-05,0.17578125,0,0
-1.47223786939321E-07,-1.75952263816725E-05,0.17578125,0,0
1.04595380889805E-06,-1.78474656422623E-05,0.17578125,0,0
5.76764307425037E-07,-2.19307930819923E-05,0.17578125,0,0
8.24807159460761E-07,-2.25530584430089E-05,0.17578125,0,0
1.77874096607411E-06,-2.28228254854912E-05,0.17578125,0,0
1.50809034948907E-06,-2.25318835873622E-05,0.17578125,0,0
1.15309910597716E-06,-2.29039142141119E-05,0.17578125,0,0
1.449728983971E-06,-2.277061867062E-05,0.17578125,0,0
8.6890406691964E-07,-2.17112046811963E-05,0.17578125,0,0
4.34220481793091E-07,-2.18035711441189E-05,0.17578125,0,0
2.22645849135006E-06,-2.18040459003532E-05,0.17578125,0,0
4.27789836976444E-06,-2.37254371313611E-05,0.17578125,0,0
4.67633617518004E-06,-2.44663569901604E-05,0.17578125,0,0
3.50708342011785E-06,-2.45309547608485E-05,0.17578125,0,0
2.45198111770151E-06,-2.15856071008602E-05,0.17578125,0,0
3.19597097586666E-06,-1.9799570509349E-05,0.17578125,0,0
5.48812340639415E-06,-1.92073694051942E-05,0.17578125,0,0
7.02236320648808E-06,-2.1047962945886E-05,0.17578125,0,0
6.98001758792088E-06,-2.10468024306465E-05,0.17578125,0,0
6.61107378618908E-06,-2.07271386898356E-05,0.17578125,0,0
6.66035884933081E-06,-1.98268426174764E-05,0.17578125,0,0
6.5598596847849E-06,-1.94138283404754E-05,0.17578125,0,0
4.81200549984351E-06,-2.04896477953298E-05,0.17578125,0,0
4.1574276110623E-06,-2.10506350413198E-05,0.17578125,0,0
4.47886259280494E-06,-1.63255390361883E-05,0.17578125,0,0
6.92574167260318E-06,-2.34974559134571E-05,0.17578125,0,0
5.74398700337042E-06,-1.79411163117038E-05,0.17578125,0,0
5.6436110753566E-06,-2.26394931814866E-05,0.17578125,0,0
3.33816660713637E-06,-2.01445691345725E-05,0.17578125,0,0
4.47857928520534E-06,-2.09683021239471E-05,0.17578125,0,0
5.59996760784998E-06,-1.77370729943505E-05,0.17578125,0,0
7.06133869243786E-06,-1.86676170415012E-05,0.17578125,0,0
6.8848135015287E-06,-1.76137527887477E-05,0.17578125,0,0
5.85967472943594E-06,-1.77058282133657E-05,0.17578125,0,0
4.70110717287753E-06,-1.7879972801893E-05,0.17578125,0,0
4.27921031587175E-06,-1.77339206857141E-05,0.17578125,0,0
4.94154755870113E-06,-1.89261227205861E-05,0.17578125,0,0
5.0840917538153E-06,-1.83381907845614E-05,0.17578125,0,0
5.19848526892019E-06,-1.93551823031157E-05,0.17578125,0,0
4.62608841189649E-06,-1.80426213773899E-05,0.17578125,0,0
5.10796235175803E-06,-1.79293274413794E-05,0.17578125,0,0
5.7867596297001E-06,-1.58327711687889E-05,0.17578125,0,0
5.90047966397833E-06,-1.55411235027714E-05,0.17578125,0,0
4.24735344495275E-06,-1.39187714012223E-05,0.17578125,0,0
3.35707386511785E-06,-1.53105575009249E-05,0.17578125,0,0
2.81588359030138E-06,-1.66414047271246E-05,0.17578125,0,0
3.00857459478721E-06,-1.77130441443296E-05,0.17578125,0,0
3.7112758946023E-06,-1.69896429724758E-05,0.17578125,0,0
4.89185867991182E-06,-1.54654899233719E-05,0.17578125,0,0
5.80751429879456E-06,-1.4194023606251E-05,0.17578125,0,0
6.21772642261931E-06,-1.59247811097885E-05,0.17578125,0,0
4.21911909143091E-06,-1.48511653605965E-05,0.17578125,0,0
5.60684429729008E-06,-1.95015218196204E-05,0.17578125,0,0
5.38844824404805E-06,-1.2156290722487E-05,0.17578125,0,0
8.53468282002723E-06,-1.55011475726496E-05,0.17578125,0,0
6.19506863586139E-06,-1.26262784760911E-05,0.17578125,0,0
2.69352176474058E-06,-1.56077785504749E-05,0.17578125,0,0
-6.89942282861011E-07,-1.6330428479705E-05,0.17578125,0,0
-1.60161064854947E-07,-1.97455792658729E-05,0.17578125,0,0
-2.05247587814483E-07,-2.08480178116588E-05,0.17578125,0,0
-1.13993314698746E-06,-2.11578098969767E-05,0.17578125,0,0
-1.0883544518947E-06,-2.10834550671279E-05,0.17578125,0,0
-1.00804686553602E-06,-2.03428135137074E-05,0.17578125,0,0
-1.43097713589668E-06,-2.04802254302194E-05,0.17578125,0,0
-2.65803123511432E-06,-1.89958009286784E-05,0.17578125,0,0
-2.62074286183633E-06,-1.91303515748587E-05,0.17578125,0,0
-2.86707313534862E-06,-1.65632682183059E-05,0.17578125,0,0
-3.17502826874261E-06,-1.6284961020574E-05,0.17578125,0,0
-3.11605981551111E-06,-1.64485918503487E-05,0.17578125,0,0
-1.77094716491411E-06,-1.73392472788692E-05,0.17578125,0,0
-1.52930670083151E-06,-1.48212448038976E-05,0.17578125,0,0
-1.38365646762395E-06,-1.45125450217165E-05,0.17578125,0,0
-6.52768449072028E-07,-1.55664893100038E-05,0.17578125,0,0
1.09017275917722E-06,-1.75979184859898E-05,0.17578125,0,0
9.87472617453022E-07,-1.86681591003435E-05,0.17578125,0,0
-8.69529458213947E-07,-1.94261756405467E-05,0.17578125,0,0
-1.9588921986724E-06,-1.69621653185459E-05,0.17578125,0,0
-8.79208755577565E-07,-1.3032125934842E-05,0.17578125,0,0
1.78906486780761E-06,-1.05111375887645E-05,0.17578125,0,0
2.62538310380478E-06,-1.8029662896879E-05,0.17578125,0,0
7.39858080578415E-07,-1.77349447767483E-05,0.17578125,0,0
3.15686520480085E-07,-2.01048223971156E-05,0.17578125,0,0
7.29714599856379E-07,-1.76852918229997E-05,0.17578125,0,0
5.09775418322533E-07,-1.75843488250393E-05,0.17578125,0,0
-1.08389338038251E-06,-1.54282533912919E-05,0.17578125,0,0
-1.98820362129482E-06,-1.62534324772423E-05,0.17578125,0,0
2.92055261752466E-07,-1.66098052432062E-05,0.17578125,0,0
2.02830074158555E-06,-1.83973552339012E-05,0.17578125,0,0
1.28657643472252E-06,-1.96655037143501E-05,0.17578125,0,0
-2.45907330054251E-07,-1.84079708560603E-05,0.17578125,0,0
-5.49527442217368E-07,-1.82113399205264E-05,0.17578125,0,0
4.17678279518441E-07,-1.79074122570455E-05,0.17578125,0,0
1.27049770526355E-06,-1.95135726244189E-05,0.17578125,0,0
1.4748378589502E-06,-2.04781008505961E-05,0.17578125,0,0
1.49415222949756E-06,-2.12322847801261E-05,0.17578125,0,0
2.59332705354609E-06,-2.02339269890217E-05,0.17578125,0,0
4.12837607655092E-06,-2.04650605155621E-05,0.17578125,0,0
3.84513259632513E-06,-1.89915735973045E-05,0.17578125,0,0
2.55040708907472E-06,-1.72469917743001E-05,0.17578125,0,0
2.00842055164685E-06,-1.50228343045455E-05,0.17578125,0,0
1.55163320414431E-06,-1.46136690091225E-05,0.17578125,0,0
1.0777065426737E-06,-1.44847472256515E-05,0.17578125,0,0
1.75364834831271E-06,-1.49396537381108E-05,0.17578125,0,0
1.82302846951643E-06,-1.72004620253574E-05,0.17578125,0,0
3.7320273804653E-07,-1.85408898687456E-05,0.17578125,0,0
4.18532664525628E-07,-1.46830652738572E-05,0.17578125,0,0
2.41124439526175E-06,-2.13160910789156E-05,0.17578125,0,0
4.13729821957531E-06,-1.71117790159769E-05,0.17578125,0,0
3.41804161507753E-06,-2.08771270990837E-05,0.17578125,0,0
1.71717624652956E-06,-1.54867939272663E-05,0.17578125,0,0
-1.88911229770383E-07,-1.35218906507362E-05,0.17578125,0,0
-7.24376263860904E-07,-1.0621702131175E-05,0.17578125,0,0
2.84071035139277E-07,-1.46632301039062E-05,0.17578125,0,0
