biceps_emg, triceps_emg, subject_position, position_estimate, brace_position
-2.45970004471019E-05,1.62414689839352E-05,0.3515625,0,0
-2.17365577555029E-05,1.63446929946076E-05,0.3515625,0,0
-2.18488221435109E-05,1.79404214577517E-05,0.3515625,0,0
-2.04389234568225E-05,2.00580434466247E-05,0.3515625,0,0
-2.22162925638258E-05,2.26612846745411E-05,0.3515625,0,0
-2.14701212826185E-05,2.31121794058708E-05,0.3515625,0,0
-2.26823831326328E-05,2.30365985771641E-05,0.3515625,0,0
-2.17883880395675E-05,2.23903189180419E-05,0.3515625,0,0
-2.12791856029071E-05,2.23969982471317E-05,0.3515625,0,0
-2.02433238882804E-05,2.16237840504618E-05,0.3515625,0,0
-2.03761828743154E-05,1.68208316608798E-05,0.3515625,0,0
-1.93322830455145E-05,7.30395322534605E-06,0.3515625,0,0
-1.8628838006407E-05,-2.2636834273726E-06,0.3515625,0,0
-1.65164656209527E-05,-8.81729738466674E-06,0.3515625,0,0
-2.45543560595252E-05,-1.61585412570275E-05,0.3515625,0,0
-1.96091204998083E-05,-1.34483607325819E-05,0.3515625,0,0
-2.29098259296734E-05,-9.86318173090694E-06,0.3515625,0,0
-1.98670113604749E-05,-2.09416930374573E-06,0.3515625,0,0
-2.3189402782009E-05,2.52493168773071E-06,0.3515625,0,0
-2.29875495278975E-05,7.9696110333316E-06,0.3515625,0,0
-2.48725591518451E-05,1.20523018267704E-05,0.3515625,0,0
-2.46651216002647E-05,1.39746553031728E-05,0.3515625,0,0
-2.45738847297616E-05,1.3760964066023E-05,0.3515625,0,0
-2.43008307734272E-05,1.15927005026606E-05,0.3515625,0,0
-2.24988343688892E-05,9.57422344072256E-06,0.3515625,0,0
-2.25468047574395E-05,9.67603409662843E-06,0.3515625,0,0
-2.20845013245707E-05,1.19882070066524E-05,0.3515625,0,0
-2.41476027440513E-05,1.33584735522163E-05,0.3515625,0,0
-2.46755698753987E-05,1.53421024151612E-05,0.3515625,0,0
-2.55923241638811E-05,1.65319761435967E-05,0.3515625,0,0
-2.37126569118118E-05,1.74669803527649E-05,0.3515625,0,0
-2.42045771301491E-05,1.84147684194613E-05,0.3515625,0,0
-2.3971082555363E-05,2.01389357243897E-05,0.3515625,0,0
-2.38033426285256E-05,2.0219806174282E-05,0.3515625,0,0
-2.23595361603657E-05,1.92391653399682E-05,0.3515625,0,0
-2.23448678298155E-05,1.66617046488682E-05,0.3515625,0,0
-2.28085591515992E-05,1.53006949403789E-05,0.3515625,0,0
-2.38372376770712E-05,1.44971672852989E-05,0.3515625,0,0
-2.43722133745905E-05,1.17917434181436E-05,0.3515625,0,0
-2.50191842496861E-05,7.9976716733654E-06,0.3515625,0,0
-1.85149874596391E-05,4.74663102068007E-06,0.3515625,0,0
-2.51381025009323E-05,9.42344468057854E-06,0.3515625,0,0
-1.8588112652651E-05,1.40198490043986E-05,0.3515625,0,0
-2.49753520620288E-05,2.14825467992341E-05,0.3515625,0,0
-2.18500208575279E-05,2.36731975746807E-05,0.3515625,0,0
-2.52064928645268E-05,2.37978256336646E-05,0.3515625,0,0
-2.3952516130521E-05,2.01138645934407E-05,0.3515625,0,0
-2.51838173426222E-05,1.58526527229697E-05,0.3515625,0,0
-2.29366632993333E-05,1.20846971185529E-05,0.3515625,0,0
-2.10246507776901E-05,1.13341093310737E-05,0.3515625,0,0
-2.05262895178748E-05,1.34625570353819E-05,0.3515625,0,0
-2.06106851692311E-05,1.72825366462348E-05,0.3515625,0,0
-2.25625117309392E-05,2.10346624953672E-05,0.3515625,0,0
-2.25790518015856E-05,2.15961244975915E-05,0.3515625,0,0
-2.45136779994937E-05,1.8885117242462E-05,0.3515625,0,0
-2.39044420595746E-05,1.50819487316767E-05,0.3515625,0,0
-2.47534590016585E-05,1.4542713870469E-05,0.3515625,0,0
-2.36300929827848E-05,1.53110904648202E-05,0.3515625,0,0
-2.49284603341948E-05,1.53055243572453E-05,0.3515625,0,0
-2.46005547523964E-05,1.3519564163289E-05,0.3515625,0,0
-2.49646000156645E-05,1.21611719805514E-05,0.3515625,0,0
-2.29156376008177E-05,1.09439542939072E-05,0.3515625,0,0
-2.26853717322228E-05,1.05160679595429E-05,0.3515625,0,0
-2.36554751609219E-05,1.04483042377979E-05,0.3515625,0,0
-2.58504969679052E-05,1.03024722193368E-05,0.3515625,0,0
-2.68883177341195E-05,9.7302963695256E-06,0.3515625,0,0
-2.5901814296958E-05,9.72887119132793E-06,0.3515625,0,0
-2.00232261704514E-05,7.20779189578025E-06,0.3515625,0,0
-2.81736502074637E-05,8.81762935023289E-06,0.3515625,0,0
-2.13094645005185E-05,5.58331339561846E-06,0.3515625,0,0
-2.64337704720674E-05,8.87218448042404E-06,0.3515625,0,0
-2.19896774069639E-05,7.37811569706537E-06,0.3515625,0,0
-2.40049666899722E-05,7.8387465691776E-06,0.3515625,0,0
-2.2152142264531E-05,7.86924283602275E-06,0.3515625,0,0
-2.51311266765697E-05,1.07302103060647E-05,0.3515625,0,0
-2.49948243435938E-05,1.20943259389605E-05,0.3515625,0,0
-2.46606232394697E-05,1.17235886136768E-05,0.3515625,0,0
-2.40404770011082E-05,1.02906351457932E-05,0.3515625,0,0
-2.34261024161242E-05,8.15849853097461E-06,0.3515625,0,0
-2.54454917012481E-05,6.7353021222516E-06,0.3515625,0,0
-2.42748392338399E-05,5.82922211833647E-06,0.3515625,0,0
-2.41429952438921E-05,7.50400477045332E-06,0.3515625,0,0
-2.34616236411966E-05,7.01838143868372E-06,0.3515625,0,0
-2.62370613199892E-05,4.63478227175074E-06,0.3515625,0,0
-2.53778998740017E-05,8.33308888559259E-07,0.3515625,0,0
-2.47513107751729E-05,-5.71710302210704E-07,0.3515625,0,0
-2.32213951676385E-05,9.27489679725113E-07,0.3515625,0,0
-2.60016458923928E-05,6.36662161923596E-06,0.3515625,0,0
-2.76573064184049E-05,1.15575621748576E-05,0.3515625,0,0
-2.78757288469933E-05,1.41492491820827E-05,0.3515625,0,0
-2.60063752648421E-05,1.35561758725089E-05,0.3515625,0,0
-2.57471401710063E-05,1.24615698950947E-05,0.3515625,0,0
-2.50200955633773E-05,1.21458861030987E-05,0.3515625,0,0
-2.45051669480745E-05,1.29105383166461E-05,0.3515625,0,0
-2.01681104954332E-05,1.14449394459371E-05,0.3515625,0,0
-2.82264354609651E-05,1.69035265571438E-05,0.3515625,0,0
-2.15286236198153E-05,1.1834483302664E-05,0.3515625,0,0
-2.75642196356785E-05,1.3654271242558E-05,0.3515625,0,0
-2.26974225370213E-05,1.19532805911149E-05,0.3515625,0,0
-2.42994356085546E-05,1.35195468828897E-05,0.3515625,0,0
-2.17277683987049E-05,1.33079411170911E-05,0.3515625,0,0
-2.35256738960743E-05,1.44580544656492E-05,0.3515625,0,0
-2.45971787080634E-05,1.3709970517084E-05,0.3515625,0,0
-2.50767880061176E-05,1.26031709442032E-05,0.3515625,0,0
-2.47387943090871E-05,1.15310585897532E-05,0.3515625,0,0
-2.36028517974773E-05,1.05011449704762E-05,0.3515625,0,0
-2.46360050368821E-05,1.13272908492945E-05,0.3515625,0,0
-2.30993136938196E-05,1.04741675386322E-05,0.3515625,0,0
-2.24415725824656E-05,1.0031752026407E-05,0.3515625,0,0
-1.98861398530426E-05,9.21696118894033E-06,0.3515625,0,0
-2.09438094316283E-05,1.0565597222012E-05,0.3515625,0,0
-2.11678161576856E-05,1.15870216177427E-05,0.3515625,0,0
-2.3115646399674E-05,1.37319930217927E-05,0.3515625,0,0
-2.26991760428064E-05,1.39224193844711E-05,0.3515625,0,0
-2.40590125031304E-05,1.2639584383578E-05,0.3515625,0,0
-2.34124836424598E-05,1.1538091712282E-05,0.3515625,0,0
-2.27478431042982E-05,1.36319022203679E-05,0.3515625,0,0
-2.21403788600583E-05,1.47196860780241E-05,0.3515625,0,0
-2.23485894821351E-05,1.34704841912026E-05,0.3515625,0,0
-2.13116345548769E-05,1.292452452617E-05,0.3515625,0,0
-1.97869121620897E-05,1.27563644127804E-05,0.3515625,0,0
-1.60919244081015E-05,1.0633723832143E-05,0.3515625,0,0
-2.30702644330449E-05,1.54733825183939E-05,0.3515625,0,0
-1.71804840647383E-05,1.05740582512226E-05,0.3515625,0,0
-2.07491302717244E-05,1.06675352071761E-05,0.3515625,0,0
-1.74461856659036E-05,6.37221273791511E-06,0.3515625,0,0
-1.97262579604285E-05,4.7459520828852E-06,0.3515625,0,0
-1.90760110854171E-05,3.04488764868438E-07,0.3515625,0,0
-1.99187616090057E-05,-4.2852393562498E-06,0.3515625,0,0
-1.94229960470693E-05,-1.05037033790722E-05,0.3515625,0,0
-2.05410451599164E-05,-1.19651685963618E-05,0.3515625,0,0
-2.11717797355959E-05,-7.05950878909789E-06,0.3515625,0,0
-1.90517584996996E-05,2.85478193973177E-07,0.3515625,0,0
-1.64552111527883E-05,6.75668024996412E-06,0.3515625,0,0
-1.39970679811086E-05,9.33405590330949E-06,0.3515625,0,0
-1.60256277013104E-05,1.14291615318507E-05,0.3515625,0,0
-1.64956727530807E-05,1.23298514154158E-05,0.3515625,0,0
-1.69440390891396E-05,1.38277318910696E-05,0.3515625,0,0
-1.50696487253299E-05,1.30720582092181E-05,0.3515625,0,0
-1.54255867528263E-05,1.23970185086364E-05,0.3515625,0,0
-1.57870181283215E-05,1.04011451185215E-05,0.3515625,0,0
-1.88322010217234E-05,9.7515821835259E-06,0.3515625,0,0
-2.05024989554659E-05,1.08266385723255E-05,0.3515625,0,0
-2.12446902878582E-05,1.389156022924E-05,0.3515625,0,0
-1.99512051040074E-05,1.51205631482298E-05,0.3515625,0,0
-1.9193295884179E-05,1.50047808347153E-05,0.3515625,0,0
-1.96166365640238E-05,1.5789224562468E-05,0.3515625,0,0
-2.21533155126963E-05,1.75370114448015E-05,0.3515625,0,0
-1.9865528884111E-05,1.34723513838253E-05,0.3515625,0,0
-2.68174244411057E-05,1.49546858665417E-05,0.3515625,0,0
-1.73997341335053E-05,3.68149130736128E-06,0.3515625,0,0
-2.14165756915463E-05,3.54325402440736E-06,0.3515625,0,0
-1.74750857695472E-05,-4.57123320529718E-07,0.3515625,0,0
-2.20060574065428E-05,2.92059917228471E-06,0.3515625,0,0
-2.07428074645577E-05,4.57564692624146E-06,0.3515625,0,0
-2.06118747883011E-05,9.52666141529335E-06,0.3515625,0,0
-1.83261327038053E-05,1.16909068310633E-05,0.3515625,0,0
-1.6639021851006E-05,1.25704364108969E-05,0.3515625,0,0
-1.61994103109464E-05,1.20608356155572E-05,0.3515625,0,0
-1.61193402163917E-05,1.02982176031219E-05,0.3515625,0,0
-1.80026636371622E-05,9.41663438425167E-06,0.3515625,0,0
-1.68388014571974E-05,7.87592398410197E-06,0.3515625,0,0
-1.62225223903079E-05,9.49294008023571E-06,0.3515625,0,0
-1.21175307867816E-05,9.70546261669369E-06,0.3515625,0,0
-9.6137955551967E-06,1.09711081677233E-05,0.3515625,0,0
-5.67643974136445E-06,9.59676799539011E-06,0.3515625,0,0
-5.35129493073327E-06,8.10904293757631E-06,0.3515625,0,0
-4.52141193818534E-06,4.97694918522029E-06,0.3515625,0,0
-4.51388541478082E-06,5.37736195838079E-06,0.3515625,0,0
-2.32825482271437E-06,6.92225285092718E-06,0.3515625,0,0
-1.49383538428083E-06,1.07126434158999E-05,0.3515625,0,0
-8.22937806788104E-07,1.43487859531888E-05,0.3515625,0,0
-1.5872877838774E-06,1.55427096615313E-05,0.3515625,0,0
-2.82852170130354E-06,1.34602123580407E-05,0.3515625,0,0
-4.32209481004975E-06,1.21729062811937E-05,0.3515625,0,0
-4.26395854447037E-06,1.0774319889606E-05,0.3515625,0,0
-5.82453321840148E-06,1.5794223145349E-05,0.3515625,0,0
-4.42286000179593E-06,1.15490329335444E-05,0.3515625,0,0
-5.62331433684449E-06,1.30337111841072E-05,0.3515625,0,0
-3.94969993067207E-06,1.00818015198456E-05,0.3515625,0,0
-2.05476794690185E-06,1.10600021798746E-05,0.3515625,0,0
-1.04706737147353E-06,9.42380484048044E-06,0.3515625,0,0
-2.73895375357824E-06,8.16624196886551E-06,0.3515625,0,0
-3.55275915353559E-06,7.80432947067311E-06,0.3515625,0,0
-3.77397600459517E-06,8.95298308023484E-06,0.3515625,0,0
-4.58814611192793E-06,9.53518610913306E-06,0.3515625,0,0
-7.44765929994173E-06,8.05733634479111E-06,0.3515625,0,0
-1.31193874040036E-05,7.12563132765354E-06,0.3515625,0,0
-2.00138074433198E-05,6.44894043944078E-06,0.3515625,0,0
-2.79082414635923E-05,7.45752549846657E-06,0.3515625,0,0
-3.64385741704609E-05,8.36387425806606E-06,0.3515625,0,0
-4.61837989860214E-05,1.16266201075632E-05,0.3515625,0,0
-5.46493502042722E-05,1.38921614052379E-05,0.3515625,0,0
-6.15955723333173E-05,1.52220827658311E-05,0.3515625,0,0
-6.61413869238459E-05,1.52127104229294E-05,0.3515625,0,0
-7.06642604200169E-05,1.6868021702976E-05,0.3515625,0,0
-7.59719696361572E-05,1.77595211425796E-05,0.3515625,0,0
-8.4281520685181E-05,1.7322050553048E-05,0.3515625,0,0
-9.32627153815702E-05,1.57471095008077E-05,0.3515625,0,0
-0.000100499615655281,1.5531286408077E-05,0.3515625,0,0
-0.000110487490019295,1.4612005543313E-05,0.3515625,0,0
-0.000126051891129464,1.23383751997608E-05,0.3515625,0,0
-0.000122176919830963,7.76594879425829E-06,0.3515625,0,0
-0.000197723129531369,1.12902498585754E-05,0.3515625,0,0
-0.000201354298042133,9.29571706365095E-06,0.3515625,0,0
-0.000285946938674897,1.24911593957222E-05,0.3515625,0,0
-0.00031827948987484,1.19399765026174E-05,0.3515625,0,0
-0.000379417353542522,1.22282790471218E-05,0.3515625,0,0
-0.00039276632014662,1.02701660580351E-05,0.3515625,0,0
-0.000408127874834463,1.14352824311936E-05,0.3515625,0,0
-0.000402848818339407,1.31766983031412E-05,0.3515625,0,0
-0.000397151510696858,1.52408256326453E-05,0.3515625,0,0
-0.000392456917325035,1.55176403495716E-05,0.3515625,0,0
-0.000382216152502224,1.42871713251225E-05,0.3515625,0,0
-0.000376137555576861,1.35828649945324E-05,0.3515625,0,0
-0.000351999275153503,1.23400086522452E-05,0.3515625,0,0
-0.000333918840624392,1.31292481455603E-05,0.3515625,0,0
-0.00030235480517149,1.31264578158152E-05,0.3515625,0,0
-0.000283943983959034,1.15510683826869E-05,0.3515625,0,0
-0.000252907746471465,9.00372288015205E-06,0.3515625,0,0
-0.00023246141790878,1.02568146758131E-05,0.3515625,0,0
-0.000203283707378432,1.18517755254288E-05,0.3515625,0,0
-0.000184949181857519,1.24379484987003E-05,0.3515625,0,0
-0.000159628121764399,1.10282808236661E-05,0.3515625,0,0
-0.000140352640300989,9.85106817097403E-06,0.3515625,0,0
-0.000114939532068092,8.6176178228925E-06,0.3515625,0,0
-9.1000234533567E-05,7.54685834181146E-06,0.3515625,0,0
-6.43521125311963E-05,7.68923109717434E-06,0.3515625,0,0
-4.05797109124251E-05,9.36946253204951E-06,0.3515625,0,0
-1.14043450594181E-05,8.44175428937888E-06,0.3515625,0,0
3.69638019037666E-06,1.29184109027847E-05,0.3515625,0,0
3.21918159897905E-05,1.17454255814664E-05,0.3515625,0,0
4.53015236416832E-05,1.4560633644578E-05,0.3515625,0,0
6.50211586616933E-05,1.26061495393515E-05,0.3515625,0,0
7.64962678658776E-05,1.46573675010586E-05,0.3515625,0,0
9.29426241782494E-05,1.52390584844397E-05,0.3515625,0,0
0.000105167157016695,1.39123949338682E-05,0.3515625,0,0
0.000117616058560088,8.10352048574714E-06,0.3515625,0,0
0.000128957457491197,3.72096769751806E-06,0.3515625,0,0
0.000139914132887498,4.51696769232512E-06,0.3515625,0,0
0.000150261432281695,8.81442701938795E-06,0.3515625,0,0
0.000157112095621414,1.4453291441896E-05,0.3515625,0,0
0.000165091565577313,1.83444517460885E-05,0.3515625,0,0
0.000170302257174626,2.00483591470402E-05,0.3515625,0,0
0.000177402849658392,1.84701311809476E-05,0.3515625,0,0
0.000181300405529328,1.73002808878664E-05,0.3515625,0,0
0.000185115830390714,1.48919662024127E-05,0.3515625,0,0
0.000184785225428641,1.35584114104859E-05,0.3515625,0,0
0.000186356090125628,1.23753843581653E-05,0.3515625,0,0
0.000187420810107142,1.23977779367124E-05,0.3515625,0,0
0.0001890946587082,1.25582037071581E-05,0.3515625,0,0
0.000188894395250827,1.44858968269546E-05,0.3515625,0,0
0.000190316961379722,1.49577535921708E-05,0.3515625,0,0
0.000189520913409069,1.43315874083783E-05,0.3515625,0,0
0.00018572254339233,1.48239969348651E-05,0.3515625,0,0
0.000183237498276867,1.4721998013556E-05,0.3515625,0,0
0.000147974671563134,1.04734190244926E-05,0.3515625,0,0
0.000210431520827115,1.57012727868278E-05,0.3515625,0,0
0.000156616515596397,1.29952850329573E-05,0.3515625,0,0
0.00019282013818156,1.50737432704773E-05,0.3515625,0,0
0.000158196591655724,1.09540878838743E-05,0.3515625,0,0
0.000175997920450754,1.07411451608641E-05,0.3515625,0,0
0.000155391229782254,8.12425150797935E-06,0.3515625,0,0
0.000160835537826642,6.59248735246365E-06,0.3515625,0,0
0.000151618689415045,3.66094354831148E-06,0.3515625,0,0
0.000148340899613686,2.02351475309115E-06,0.3515625,0,0
0.000145698068081401,3.0477795007755E-06,0.3515625,0,0
0.000136589966132306,5.14833072884358E-06,0.3515625,0,0
0.000137797993374988,8.80592051544227E-06,0.3515625,0,0
0.000125519567518495,1.15789944175049E-05,0.3515625,0,0
0.000128081737784669,1.39707635753439E-05,0.3515625,0,0
0.000114220260002185,1.2949327356182E-05,0.3515625,0,0
0.00011581473518163,1.1958077266172E-05,0.3515625,0,0
0.000101682198874187,1.12344796434627E-05,0.3515625,0,0
0.000103766367828939,1.29247255244991E-05,0.3515625,0,0
9.30295791476965E-05,1.37812739922083E-05,0.3515625,0,0
9.47587395785376E-05,1.44822770380415E-05,0.3515625,0,0
8.60869695316069E-05,1.23885001812596E-05,0.3515625,0,0
8.54121535667218E-05,9.67946652963292E-06,0.3515625,0,0
7.74897343944758E-05,9.50059802562464E-06,0.3515625,0,0
7.43910495657474E-05,1.29012487377622E-05,0.3515625,0,0
6.90043671056628E-05,1.36551643663552E-05,0.3515625,0,0
6.61322046653368E-05,1.02554258774035E-05,0.3515625,0,0
4.95767526444979E-05,6.54302766633919E-06,0.3515625,0,0
6.62116362946108E-05,9.14936572371516E-06,0.3515625,0,0
4.64956647192594E-05,6.89621765559423E-06,0.3515625,0,0
5.54799007659312E-05,9.1408692242112E-06,0.3515625,0,0
3.89505112252664E-05,8.99606584425783E-06,0.3515625,0,0
4.13797206419986E-05,1.03810862128739E-05,0.3515625,0,0
3.42141283908859E-05,1.05382669062237E-05,0.3515625,0,0
3.33688221871853E-05,1.19191190606216E-05,0.3515625,0,0
2.63055499090115E-05,1.05423296190565E-05,0.3515625,0,0
2.06372733373428E-05,9.76671344687929E-06,0.3515625,0,0
1.74731430888642E-05,1.02642434285372E-05,0.3515625,0,0
1.2578969290189E-05,1.0370320524089E-05,0.3515625,0,0
1.20306995086139E-05,1.10957926153787E-05,0.3515625,0,0
6.5917952269956E-06,1.22501523946994E-05,0.3515625,0,0
6.21272693024366E-06,1.41617656481685E-05,0.3515625,0,0
-5.23999403867492E-07,1.36710859806044E-05,0.3515625,0,0
-2.50137100010761E-06,1.17478884931188E-05,0.3515625,0,0
-1.0650978765625E-05,8.23830669105519E-06,0.3515625,0,0
-1.4337824723043E-05,6.2089497987472E-06,0.3515625,0,0
-2.10719135793624E-05,5.5301102293015E-06,0.3515625,0,0
-2.17215783777647E-05,7.53232734496123E-06,0.3515625,0,0
-2.44158745772438E-05,9.06429067981662E-06,0.3515625,0,0
-2.43540471274173E-05,1.02671674540034E-05,0.3515625,0,0
-2.65831149590667E-05,8.8957622210728E-06,0.3515625,0,0
-2.91293108602986E-05,5.89674436923815E-06,0.3515625,0,0
-3.35880504280794E-05,6.38078336123726E-06,0.3515625,0,0
-3.755786747206E-05,9.49689638218842E-06,0.3515625,0,0
-3.09372917399742E-05,8.30179669719655E-06,0.3515625,0,0
-4.41584088548552E-05,1.24660136862076E-05,0.3515625,0,0
-3.34782816935331E-05,1.05791614259942E-05,0.3515625,0,0
-4.42644341092091E-05,1.09520497062476E-05,0.3515625,0,0
-4.00835851905867E-05,4.82327277495642E-06,0.3515625,0,0
-4.75416127301287E-05,3.41331474373874E-06,0.3515625,0,0
-4.64537843072321E-05,3.06080232803652E-06,0.3515625,0,0
-5.15364918101113E-05,5.64621632292983E-06,0.3515625,0,0
-5.32551021024119E-05,7.07660637999652E-06,0.3515625,0,0
-5.51157172594685E-05,8.51471668283921E-06,0.3515625,0,0
-5.55199476366397E-05,1.08683670987375E-05,0.3515625,0,0
-5.52448400412686E-05,1.19298620120389E-05,0.3515625,0,0
-5.88023031014018E-05,1.12284651549999E-05,0.3515625,0,0
-6.06631983828265E-05,8.22229139885167E-06,0.3515625,0,0
-6.43122039036825E-05,6.47399610897992E-06,0.3515625,0,0
-6.20740611338988E-05,3.72553449778934E-06,0.3515625,0,0
-6.35832257103175E-05,7.24081473890692E-07,0.3515625,0,0
-6.32853116258048E-05,-3.14187104777375E-06,0.3515625,0,0
-6.63824102957733E-05,-5.3093945098226E-06,0.3515625,0,0
-6.5615757193882E-05,-7.09118467057124E-06,0.3515625,0,0
-6.70325389364734E-05,-5.44492513654404E-06,0.3515625,0,0
-6.6748951212503E-05,7.64125616115052E-07,0.3515625,0,0
-6.90799060976133E-05,1.00789711723337E-05,0.3515625,0,0
-6.85573249938898E-05,1.65683231898583E-05,0.3515625,0,0
-6.72659880365245E-05,1.94559197552735E-05,0.3515625,0,0
-6.58752760500647E-05,1.8650496713235E-05,0.3515625,0,0
-6.62721577100456E-05,1.53201417560922E-05,0.3515625,0,0
-5.45563198102172E-05,8.02299655333627E-06,0.3515625,0,0
-7.76350061642006E-05,9.58954115048982E-06,0.3515625,0,0
-5.74663536099251E-05,6.26687460680841E-06,0.3515625,0,0
-6.86413623043336E-05,1.01009109130246E-05,0.3515625,0,0
-5.58736282982863E-05,9.14392330741975E-06,0.3515625,0,0
-6.50364672765136E-05,1.18993821160984E-05,0.3515625,0,0
-6.21250073891133E-05,1.1330119377817E-05,0.3515625,0,0
-6.74543553031981E-05,1.02141539173317E-05,0.3515625,0,0
-6.57954078633338E-05,8.49114167067455E-06,0.3515625,0,0
-6.57578129903413E-05,1.01481664387393E-05,0.3515625,0,0
-6.7253022280056E-05,1.31469214466051E-05,0.3515625,0,0
-6.62909733364359E-05,1.49125244206516E-05,0.3515625,0,0
-6.79070872138254E-05,1.63269505719654E-05,0.3515625,0,0
-6.30736249149777E-05,1.51096901390702E-05,0.3515625,0,0
-6.38771962258033E-05,1.28722376757651E-05,0.3515625,0,0
-6.04902888881043E-05,9.44538805924822E-06,0.3515625,0,0
-6.45506588625722E-05,9.64501032285625E-06,0.3515625,0,0
-6.17736513959244E-05,1.22397159429966E-05,0.3515625,0,0
-6.29792411928065E-05,1.71154406416463E-05,0.3515625,0,0
-5.97730213485193E-05,2.00064077944262E-05,0.3515625,0,0
-6.11430004937574E-05,2.19907542486908E-05,0.3515625,0,0
-5.78657600271981E-05,2.16757380258059E-05,0.3515625,0,0
-5.75636404391844E-05,1.92866282304749E-05,0.3515625,0,0
-5.5770120525267E-05,1.64177763508633E-05,0.3515625,0,0
-5.55176520720124E-05,1.60646322910907E-05,0.3515625,0,0
-5.47568379261065E-05,1.6759368008934E-05,0.3515625,0,0
-5.45751900062896E-05,1.64905904966872E-05,0.3515625,0,0
-4.26646838604938E-05,1.02049589258968E-05,0.3515625,0,0
-5.89424525969662E-05,1.24180724014877E-05,0.3515625,0,0
-4.2909257899737E-05,6.35230526313535E-06,0.3515625,0,0
-5.33805759914685E-05,6.50194078843924E-06,0.3515625,0,0
-4.45102923549712E-05,-1.7168083843444E-07,0.3515625,0,0
-5.15895917487796E-05,-2.4326611764991E-06,0.3515625,0,0
-4.76006571261678E-05,-3.31666683450749E-06,0.3515625,0,0
-4.97800683660898E-05,2.45015144173522E-06,0.3515625,0,0
-4.72734209324699E-05,7.40972018320463E-06,0.3515625,0,0
-4.55113367934246E-05,1.07547111838358E-05,0.3515625,0,0
-4.41975716967136E-05,1.23857898870483E-05,0.3515625,0,0
-4.26129481638782E-05,1.36474527607788E-05,0.3515625,0,0
-4.54934342997149E-05,1.57138074428076E-05,0.3515625,0,0
-4.29505453212187E-05,1.62662108778022E-05,0.3515625,0,0
-4.33107088610996E-05,1.65418132382911E-05,0.3515625,0,0
-3.91765170206781E-05,1.37387323775329E-05,0.3515625,0,0
-4.16886214225087E-05,1.17491890705423E-05,0.3515625,0,0
-4.07454426749609E-05,9.34875515667954E-06,0.3515625,0,0
-4.39054419985041E-05,9.1015735961264E-06,0.3515625,0,0
-4.23733690695371E-05,8.28281736175995E-06,0.3515625,0,0
-4.28481398557778E-05,8.46880629978841E-06,0.3515625,0,0
-3.97895819332916E-05,7.51707239032839E-06,0.3515625,0,0
-3.96636423829477E-05,7.86645250627771E-06,0.3515625,0,0
-3.84741251764353E-05,1.04589798866073E-05,0.3515625,0,0
-3.86354586225934E-05,1.36937842398765E-05,0.3515625,0,0
-3.85593448299915E-05,1.21761731861625E-05,0.3515625,0,0
-3.91413850593381E-05,1.0043563634099E-05,0.3515625,0,0
-3.06793626805302E-05,8.59133342601126E-06,0.3515625,0,0
-4.19183998019435E-05,1.25713386296411E-05,0.3515625,0,0
-3.09366150759161E-05,1.08916092358413E-05,0.3515625,0,0
-4.01983234041836E-05,1.35092632262968E-05,0.3515625,0,0
-3.3169850212289E-05,1.05599983726279E-05,0.3515625,0,0
-3.51524031430017E-05,1.11157723949873E-05,0.3515625,0,0
-3.01732034131419E-05,1.04946930150618E-05,0.3515625,0,0
-3.11347757815383E-05,1.07812084024772E-05,0.3515625,0,0
-2.96487687592162E-05,1.04182445284096E-05,0.3515625,0,0
-3.04326331388438E-05,1.22040082715102E-05,0.3515625,0,0
-3.18955098919105E-05,1.42303051688941E-05,0.3515625,0,0
-3.15401230182033E-05,1.46236898217467E-05,0.3515625,0,0
-3.31389856000897E-05,1.70434759638738E-05,0.3515625,0,0
-3.17066151183099E-05,1.79473336174851E-05,0.3515625,0,0
-3.37928431690671E-05,1.53975615830859E-05,0.3515625,0,0
-3.26601948472671E-05,9.19484136829851E-06,0.3515625,0,0
-3.49422225554008E-05,6.41253564026556E-06,0.3515625,0,0
-3.35232252837159E-05,7.0412793320429E-06,0.3515625,0,0
-3.53215655195527E-05,9.42871611187002E-06,0.3515625,0,0
-3.44648724421859E-05,9.69185839494457E-06,0.3515625,0,0
-3.48487010342069E-05,1.11523913801648E-05,0.3515625,0,0
-3.19931787089445E-05,1.28358933579875E-05,0.3515625,0,0
-3.18033708026633E-05,1.22469700727379E-05,0.3515625,0,0
-3.11239746224601E-05,8.94683580554556E-06,0.3515625,0,0
-3.06985130009707E-05,5.86395117352367E-06,0.3515625,0,0
-3.00531482935185E-05,5.04776971865795E-06,0.3515625,0,0
-3.04163131659152E-05,6.19620323050185E-06,0.3515625,0,0
-2.54928618232952E-05,7.51844072510721E-06,0.3515625,0,0
-3.53637478838209E-05,1.35046093419078E-05,0.3515625,0,0
-2.59639800788136E-05,1.46211386891082E-05,0.3515625,0,0
-3.34926444338635E-05,1.57839203893673E-05,0.3515625,0,0
-2.90686002699658E-05,1.17545469038305E-05,0.3515625,0,0
-3.2130836189026E-05,1.026661357173E-05,0.3515625,0,0
-3.02149765047943E-05,8.57567556522554E-06,0.3515625,0,0
-3.31981245835777E-05,9.39801884669578E-06,0.3515625,0,0
-3.18168931698892E-05,1.10971805042936E-05,0.3515625,0,0
-2.92967124551069E-05,1.36006292450475E-05,0.3515625,0,0
-2.81359025393613E-05,1.38417826747173E-05,0.3515625,0,0
-2.78810475720093E-05,1.19307678687619E-05,0.3515625,0,0
-2.9637269108207E-05,1.18822554213693E-05,0.3515625,0,0
-2.82272285403451E-05,1.19161040856852E-05,0.3515625,0,0
-2.92754211841384E-05,1.12672287286841E-05,0.3515625,0,0
-2.75488582701655E-05,8.67575909069274E-06,0.3515625,0,0
-2.86034228338394E-05,7.79219863034086E-06,0.3515625,0,0
-2.7024334485759E-05,8.31159377412405E-06,0.3515625,0,0
-2.81896955129923E-05,9.83230984274996E-06,0.3515625,0,0
-2.74603389698314E-05,1.00732941064052E-05,0.3515625,0,0
-2.87278999167029E-05,1.00144152384019E-05,0.3515625,0,0
-2.78357183560729E-05,9.12512768991292E-06,0.3515625,0,0
-2.80005860986421E-05,8.81984306033701E-06,0.3515625,0,0
-2.68437015620293E-05,9.10950893739937E-06,0.3515625,0,0
-2.6427422199049E-05,1.08689018816222E-05,0.3515625,0,0
-2.71642948064255E-05,1.03906477306737E-05,0.3515625,0,0
-2.80555977951735E-05,8.60704403748969E-06,0.3515625,0,0
-2.24887808144558E-05,7.77110290073324E-06,0.3515625,0,0
-3.13793134409934E-05,1.3123921235092E-05,0.3515625,0,0
-2.23310562432744E-05,1.27362745843129E-05,0.3515625,0,0
-2.64461796177784E-05,1.47378741530702E-05,0.3515625,0,0
-2.06705935852369E-05,1.35619420689181E-05,0.3515625,0,0
-2.3526848963229E-05,1.53965829667868E-05,0.3515625,0,0
-2.0974111976102E-05,1.52673674165271E-05,0.3515625,0,0
-2.14814135688357E-05,1.51380736497231E-05,0.3515625,0,0
-2.08400597330183E-05,1.44990626722574E-05,0.3515625,0,0
-2.19188932533143E-05,1.59843220899347E-05,0.3515625,0,0
-2.30371006182395E-05,1.66663576237625E-05,0.3515625,0,0
-2.29009583563311E-05,1.36339476739522E-05,0.3515625,0,0
-2.45748487941455E-05,1.03009269878385E-05,0.3515625,0,0
-2.44137227127794E-05,7.43260670788004E-06,0.3515625,0,0
-2.64800692093559E-05,6.9506290856225E-06,0.3515625,0,0
-2.56293769780314E-05,7.92900209489744E-06,0.3515625,0,0
-2.66050847130828E-05,1.05488234112272E-05,0.3515625,0,0
-2.42402584262891E-05,1.08959129647701E-05,0.3515625,0,0
-2.34541494137375E-05,1.04758973975549E-05,0.3515625,0,0
-2.11544884223258E-05,9.28994631976821E-06,0.3515625,0,0
-2.15113032027148E-05,8.86438010638813E-06,0.3515625,0,0
-2.11912229133304E-05,8.28507836558856E-06,0.3515625,0,0
-2.32635793508962E-05,6.51219897918054E-06,0.3515625,0,0
-2.46617473749211E-05,2.51137043960625E-06,0.3515625,0,0
-2.61323093582178E-05,-1.32361762439359E-07,0.3515625,0,0
-2.65067028522026E-05,-7.33894239601796E-07,0.3515625,0,0
-2.54438655247213E-05,1.04425630809146E-07,0.3515625,0,0
-1.94813237612834E-05,3.97321764467051E-06,0.3515625,0,0
-2.68716885329923E-05,1.21624016173882E-05,0.3515625,0,0
-1.89448164746864E-05,1.73877288034419E-05,0.3515625,0,0
-2.3347945898422E-05,1.8801931219059E-05,0.3515625,0,0
-2.0682002286776E-05,1.92257648450322E-05,0.3515625,0,0
-2.67346113105305E-05,1.99800997506827E-05,0.3515625,0,0
-2.65244252659613E-05,2.10305570362834E-05,0.3515625,0,0
-2.7210828193347E-05,2.22355374717154E-05,0.3515625,0,0
-2.51026613113936E-05,2.26276843022788E-05,0.3515625,0,0
-2.30973400903167E-05,2.13189941860037E-05,0.3515625,0,0
-2.17587839870248E-05,2.0998042600695E-05,0.3515625,0,0
-2.07717948796926E-05,2.21394111576956E-05,0.3515625,0,0
-2.20084330067039E-05,2.17890556086786E-05,0.3515625,0,0
-2.19417051994242E-05,1.83945267053787E-05,0.3515625,0,0
-2.49060140049551E-05,1.54979516082676E-05,0.3515625,0,0
-2.6458483262104E-05,1.55298494064482E-05,0.3515625,0,0
-2.97166752716294E-05,1.61179159476887E-05,0.3515625,0,0
-2.91494034172501E-05,1.39728417707374E-05,0.3515625,0,0
-2.84995840047486E-05,9.49091827351367E-06,0.3515625,0,0
-2.56802704825532E-05,4.93694278702606E-06,0.3515625,0,0
-2.66018523689127E-05,6.39443612726609E-07,0.3515625,0,0
-2.89005183731206E-05,-2.98456052405527E-06,0.3515625,0,0
-3.18331258313265E-05,-6.12120447840425E-06,0.3515625,0,0
-3.09230526909232E-05,-7.74840373196639E-06,0.3515625,0,0
-2.94362580461893E-05,-4.99280940857716E-06,0.3515625,0,0
-2.85325240838574E-05,-7.1098583021012E-07,0.3515625,0,0
-2.77500148513354E-05,-3.59080907230691E-08,0.3515625,0,0
-2.11019869311713E-05,8.2465402329035E-07,0.3515625,0,0
-2.88129504042445E-05,4.7045323299244E-06,0.3515625,0,0
-2.07611192308832E-05,9.46152704273118E-06,0.3515625,0,0
-2.72727793344529E-05,1.12049820018001E-05,0.3515625,0,0
-2.38066077145049E-05,1.2014130334137E-05,0.3515625,0,0
-2.69683423539391E-05,1.19897658805712E-05,0.3515625,0,0
-2.49226559390081E-05,1.04793607533793E-05,0.3515625,0,0
-2.75848506134935E-05,8.22532547317678E-06,0.3515625,0,0
-2.73784662567778E-05,6.71242878524936E-06,0.3515625,0,0
-2.7411530027166E-05,7.51632205719943E-06,0.3515625,0,0
-2.86185895674862E-05,8.58811199577758E-06,0.3515625,0,0
-2.86126869468717E-05,9.70503970165737E-06,0.3515625,0,0
-3.07097943732515E-05,1.15856091724709E-05,0.3515625,0,0
-3.12406373268459E-05,1.3445875083562E-05,0.3515625,0,0
-3.23239837598521E-05,1.46955326272291E-05,0.3515625,0,0
-3.0047858672333E-05,1.50312353071058E-05,0.3515625,0,0
-3.11491166939959E-05,1.46230795508018E-05,0.3515625,0,0
-3.05067605950171E-05,1.33585454022978E-05,0.3515625,0,0
-3.12712472805288E-05,1.1512624041643E-05,0.3515625,0,0
-2.94866986223497E-05,1.0170076166105E-05,0.3515625,0,0
-2.96875714411726E-05,1.04591917988728E-05,0.3515625,0,0
-2.95375375571894E-05,1.11657518573338E-05,0.3515625,0,0
-3.0876966775395E-05,9.72896668827161E-06,0.3515625,0,0
-3.03283559333067E-05,7.89957084634807E-06,0.3515625,0,0
-2.85704682028154E-05,8.0429153967998E-06,0.3515625,0,0
-2.65676299022743E-05,9.70845849224133E-06,0.3515625,0,0
-2.68791573034832E-05,1.31780479932786E-05,0.3515625,0,0
-2.30217137868749E-05,1.27707671708777E-05,0.3515625,0,0
-3.32164017891046E-05,1.69008490047418E-05,0.3515625,0,0
-2.570324431872E-05,9.65400431596208E-06,0.3515625,0,0
-3.14890930894762E-05,1.00768056654488E-05,0.3515625,0,0
-2.65874059550697E-05,7.03125260770321E-06,0.3515625,0,0
-2.87931343336822E-05,1.19201404231717E-05,0.3515625,0,0
-2.47806729021249E-05,1.18024472612888E-05,0.3515625,0,0
-2.54144997597905E-05,1.04252439996344E-05,0.3515625,0,0
-2.56770490523195E-05,6.7364567257755E-06,0.3515625,0,0
-2.68274998234119E-05,5.51899120182497E-06,0.3515625,0,0
-2.74953454209026E-05,7.30396413928247E-06,0.3515625,0,0
-2.60837277892279E-05,8.48946365294978E-06,0.3515625,0,0
-2.56385865213815E-05,9.28938970901072E-06,0.3515625,0,0
-2.25613475777209E-05,8.3424001786625E-06,0.3515625,0,0
-2.2297315808828E-05,8.29849614092382E-06,0.3515625,0,0
-2.07203047466464E-05,7.12087648935267E-06,0.3515625,0,0
-2.23314837057842E-05,7.97362099547172E-06,0.3515625,0,0
-2.12399754673243E-05,6.29952319286531E-06,0.3515625,0,0
-2.14853716897778E-05,5.32237618244835E-06,0.3515625,0,0
-1.96929868252482E-05,4.84169140690938E-06,0.3515625,0,0
-2.07984849112108E-05,6.57149121252587E-06,0.3515625,0,0
-2.08441797440173E-05,5.98277938479441E-06,0.3515625,0,0
-2.05371343326988E-05,5.54915186512517E-06,0.3515625,0,0
-1.8573724446469E-05,6.43729799776338E-06,0.3515625,0,0
-1.8439346604282E-05,7.63315347285243E-06,0.3515625,0,0
-1.95245211216388E-05,5.30645866092527E-06,0.3515625,0,0
-2.05754295166116E-05,4.19116850025603E-06,0.3515625,0,0
-1.71810515894322E-05,6.14802002019132E-06,0.3515625,0,0
-2.47509451583028E-05,1.05265798993059E-05,0.3515625,0,0
-1.89289967238437E-05,1.11040671981755E-05,0.3515625,0,0
-2.33004557230743E-05,1.39476333060884E-05,0.3515625,0,0
-2.00046542886412E-05,1.27401572171948E-05,0.3515625,0,0
-2.25928179133916E-05,1.32360937641351E-05,0.3515625,0,0
-2.1790878236061E-05,1.31008637254126E-05,0.3515625,0,0
-2.28109365707496E-05,1.26941777125467E-05,0.3515625,0,0
-2.17975175473839E-05,1.25913402371225E-05,0.3515625,0,0
-2.16624666791176E-05,1.41294067361741E-05,0.3515625,0,0
-2.23904426093213E-05,1.58223883772735E-05,0.3515625,0,0
-2.23447659664089E-05,1.66627196449554E-05,0.3515625,0,0
-2.27571126742987E-05,1.83358624781249E-05,0.3515625,0,0
-2.07552366191521E-05,1.98680590983713E-05,0.3515625,0,0
-2.06413697014796E-05,2.10410998988664E-05,0.3515625,0,0
-1.89765378308948E-05,2.05709493457107E-05,0.3515625,0,0
-1.8729278963292E-05,2.0717530787806E-05,0.3515625,0,0
-1.82376570592169E-05,2.06281019927701E-05,0.3515625,0,0
-2.16150965570705E-05,2.07742814382073E-05,0.3515625,0,0
-2.32293241424486E-05,2.0131161363679E-05,0.3515625,0,0
-2.40378849412082E-05,1.82098665391095E-05,0.3515625,0,0
-2.25038183998549E-05,1.39990597745054E-05,0.3515625,0,0
-2.19882495002821E-05,1.15533757707453E-05,0.3515625,0,0
-2.26632528210757E-05,1.25862534332555E-05,0.3515625,0,0
-2.57747306022793E-05,1.46083748404635E-05,0.3515625,0,0
-2.67126615653979E-05,1.55619654833572E-05,0.3515625,0,0
-2.4401726477663E-05,1.59338378580287E-05,0.3515625,0,0
-1.93365613085916E-05,1.29195159388473E-05,0.3515625,0,0
-2.87903367279796E-05,1.60295185196446E-05,0.3515625,0,0
-2.39949986280408E-05,8.0341933426098E-06,0.3515625,0,0
-3.0718176276423E-05,1.0737531738414E-05,0.3515625,0,0
-2.89882245851913E-05,8.61405078467214E-06,0.3515625,0,0
-3.24871616612654E-05,1.09539569166373E-05,0.3515625,0,0
-2.99766961688874E-05,9.30054466152797E-06,0.3515625,0,0
-3.08459129882976E-05,9.29329053178662E-06,0.3515625,0,0
-3.15089419018477E-05,8.71736028784653E-06,0.3515625,0,0
-3.17451049340889E-05,9.49692002905067E-06,0.3515625,0,0
-2.9385213565547E-05,1.02707972473581E-05,0.3515625,0,0
-2.6086667276104E-05,8.41669225337682E-06,0.3515625,0,0
-2.556847903179E-05,6.37323819319136E-06,0.3515625,0,0
-2.3619793864782E-05,3.79645894099667E-06,0.3515625,0,0
-2.34632952924585E-05,4.64912727693445E-06,0.3515625,0,0
-2.15800137084443E-05,7.03901423548814E-06,0.3515625,0,0
-2.21625541598769E-05,1.1802980225184E-05,0.3515625,0,0
-2.15320123970741E-05,1.34232650452759E-05,0.3515625,0,0
-2.3502350813942E-05,1.44711993925739E-05,0.3515625,0,0
-2.35994048125576E-05,1.34538795464323E-05,0.3515625,0,0
-2.3846247131587E-05,1.32826371554984E-05,0.3515625,0,0
-2.12157865462359E-05,1.31755941765732E-05,0.3515625,0,0
-1.98628295038361E-05,1.45900485222228E-05,0.3515625,0,0
-2.01116781681776E-05,1.55906709551346E-05,0.3515625,0,0
-2.11258338822518E-05,1.63604163390119E-05,0.3515625,0,0
-1.98420602828264E-05,1.5834457371966E-05,0.3515625,0,0
-1.79484741238412E-05,1.4513284440909E-05,0.3515625,0,0
-1.3636808944284E-05,8.31525903777219E-06,0.3515625,0,0
-1.89349211723311E-05,9.95601294562221E-06,0.3515625,0,0
-1.43244606078952E-05,7.08865218257415E-06,0.3515625,0,0
-1.98989982891362E-05,1.20526729006087E-05,0.3515625,0,0
-1.93162104551448E-05,1.1970132618444E-05,0.3515625,0,0
-2.10780199267901E-05,1.41697018989362E-05,0.3515625,0,0
-1.89410584425787E-05,1.3376601600612E-05,0.3515625,0,0
-2.0213941752445E-05,1.29913723867503E-05,0.3515625,0,0
-2.03605541173602E-05,1.01339337561512E-05,0.3515625,0,0
-2.0389825294842E-05,9.09942809812492E-06,0.3515625,0,0
-2.05889664357528E-05,1.06512688944349E-05,0.3515625,0,0
-1.97046938410494E-05,1.26052709674696E-05,0.3515625,0,0
-1.99634960154071E-05,1.31210099425516E-05,0.3515625,0,0
-2.02017690753564E-05,1.15550456030178E-05,0.3515625,0,0
-2.33488499361556E-05,1.24117641462362E-05,0.3515625,0,0
-2.48480500886217E-05,1.3907000720792E-05,0.3515625,0,0
-2.60333945334423E-05,1.62689102580771E-05,0.3515625,0,0
-2.41273064602865E-05,1.49438401422231E-05,0.3515625,0,0
-2.31426874961471E-05,1.16592973427032E-05,0.3515625,0,0
-2.1937625206192E-05,6.78461128700292E-06,0.3515625,0,0
-2.29501947615063E-05,4.3998375076626E-06,0.3515625,0,0
-2.44650527747581E-05,2.83021381619619E-06,0.3515625,0,0
-2.70282180281356E-05,1.80645452019235E-06,0.3515625,0,0
-2.69441934506176E-05,4.68379646179073E-08,0.3515625,0,0
-2.49517997872317E-05,-6.9222245713263E-08,0.3515625,0,0
-2.17547858483158E-05,-2.02939194338114E-08,0.3515625,0,0
-2.01931870833505E-05,5.87526699291629E-07,0.3515625,0,0
-1.86556226253742E-05,3.15853822030476E-06,0.3515625,0,0
-2.80841741187032E-05,6.78957349009579E-06,0.3515625,0,0
-2.23769293370424E-05,8.62824708747212E-06,0.3515625,0,0
-2.67517789325211E-05,1.05029594124062E-05,0.3515625,0,0
-2.31906251428882E-05,1.15500697575044E-05,0.3515625,0,0
-2.52484205702785E-05,1.39444473461481E-05,0.3515625,0,0
-2.36287032748805E-05,1.60739546117838E-05,0.3515625,0,0
-2.5514713343E-05,1.6755671822466E-05,0.3515625,0,0
-2.61199365922948E-05,1.52238590089837E-05,0.3515625,0,0
-2.61573095485801E-05,1.43492597999284E-05,0.3515625,0,0
-2.54544393101241E-05,1.57442264026031E-05,0.3515625,0,0
-2.40674380620476E-05,1.68098267749883E-05,0.3515625,0,0
-2.49855220317841E-05,1.74843426066218E-05,0.3515625,0,0
-2.51643650699407E-05,1.68827100424096E-05,0.3515625,0,0
-2.76627506536897E-05,1.42806111398386E-05,0.3515625,0,0
-2.77952131000347E-05,9.8296604846837E-06,0.3515625,0,0
-2.91320011456264E-05,4.16767215938307E-06,0.3515625,0,0
-2.83039535133867E-05,-3.67363986697455E-06,0.3515625,0,0
-2.88775045191869E-05,-1.28201236293535E-05,0.3515625,0,0
-2.72439829132054E-05,-1.97295521502383E-05,0.3515625,0,0
-2.58670643233927E-05,-1.95424690900836E-05,0.3515625,0,0
-2.39493347180542E-05,-1.1535533303686E-05,0.3515625,0,0
-2.4906505132094E-05,-1.07898499024373E-08,0.3515625,0,0
-2.64882364717778E-05,8.22124820842873E-06,0.3515625,0,0
-2.64735208475031E-05,1.16797273221891E-05,0.3515625,0,0
-2.45742794504622E-05,1.39465773827396E-05,0.3515625,0,0
-2.42599908233387E-05,1.58553357323399E-05,0.3515625,0,0
-1.91980489034904E-05,1.16790306492476E-05,0.3515625,0,0
-2.6233085009153E-05,1.47005857797922E-05,0.3515625,0,0
-1.90158025361598E-05,9.15716645977227E-06,0.3515625,0,0
-2.3945642169565E-05,1.34789361254661E-05,0.3515625,0,0
-1.92297284229426E-05,1.16856244858354E-05,0.3515625,0,0
-2.25773201236734E-05,1.3833183402312E-05,0.3515625,0,0
-2.10447669815039E-05,1.24730049719801E-05,0.3515625,0,0
-2.1910431314609E-05,1.25957722048042E-05,0.3515625,0,0
-2.07806679100031E-05,1.05044418887701E-05,0.3515625,0,0
-2.11773622140754E-05,8.63084824231919E-06,0.3515625,0,0
-2.27369673666544E-05,9.05211709323339E-06,0.3515625,0,0
-2.29244087677216E-05,1.10306500573643E-05,0.3515625,0,0
-2.43022368522361E-05,1.31686747408821E-05,0.3515625,0,0
-2.33322625717847E-05,1.29441696117283E-05,0.3515625,0,0
-2.4217215468525E-05,1.37291208375245E-05,0.3515625,0,0
-2.31216599786421E-05,1.37914457809529E-05,0.3515625,0,0
-2.4466336981277E-05,1.5781615729793E-05,0.3515625,0,0
-2.42345868173288E-05,1.54418921738397E-05,0.3515625,0,0
-2.5852245016722E-05,1.44636978802737E-05,0.3515625,0,0
-2.5010227545863E-05,1.1656803508231E-05,0.3515625,0,0
-2.44004422711441E-05,9.36681954044616E-06,0.3515625,0,0
-2.18356635741657E-05,6.24673475613236E-06,0.3515625,0,0
-2.19003195525147E-05,5.06164360558614E-06,0.3515625,0,0
-2.24405685003148E-05,2.99201019515749E-06,0.3515625,0,0
-2.24220366362715E-05,1.8721126480159E-06,0.3515625,0,0
-2.16929201997118E-05,3.0613607577834E-06,0.3515625,0,0
-2.20233487198129E-05,5.05414254803327E-06,0.3515625,0,0
-1.81190007424448E-05,4.79000209452352E-06,0.3515625,0,0
-2.34892740991199E-05,8.32727982924553E-06,0.3515625,0,0
-1.52459397213534E-05,1.01323448689072E-05,0.3515625,0,0
-2.18589848373085E-05,1.54432855197228E-05,0.3515625,0,0
-2.0799301637453E-05,1.71639549080282E-05,0.3515625,0,0
-2.44340590143111E-05,1.76590983755887E-05,0.3515625,0,0
-2.19212834053906E-05,1.64820667123422E-05,0.3515625,0,0
-2.14678784686839E-05,1.57966242113616E-05,0.3515625,0,0
-1.97007757378742E-05,1.48335684571066E-05,0.3515625,0,0
-2.02329938474577E-05,1.48282388181542E-05,0.3515625,0,0
-2.11601891351165E-05,1.57336871779989E-05,0.3515625,0,0
-2.02012633963022E-05,1.64073790074326E-05,0.3515625,0,0
-2.02085557248211E-05,1.72461059264606E-05,0.3515625,0,0
-1.88040703505976E-05,1.65030651260167E-05,0.3515625,0,0
-1.98240832105512E-05,1.60746076289797E-05,0.3515625,0,0
-1.9024651919608E-05,1.60099662025459E-05,0.3515625,0,0
-2.08961282623932E-05,1.69253344211029E-05,0.3515625,0,0
-2.09554655157262E-05,1.79965918505332E-05,0.3515625,0,0
-2.19299836317077E-05,1.9218989109504E-05,0.3515625,0,0
-1.99542064365232E-05,1.84604214155115E-05,0.3515625,0,0
-1.96392720681615E-05,1.64949160534889E-05,0.3515625,0,0
-2.0409635908436E-05,1.46849042721442E-05,0.3515625,0,0
-2.35692459682468E-05,1.43274701258633E-05,0.3515625,0,0
-2.45701103267493E-05,1.33095754790702E-05,0.3515625,0,0
-2.40099816437578E-05,1.18083062261576E-05,0.3515625,0,0
-2.18634231714532E-05,1.22726332847378E-05,0.3515625,0,0
-2.14386236621067E-05,1.37219622047269E-05,0.3515625,0,0
-1.79806575033581E-05,1.10012351797195E-05,0.3515625,0,0
-2.46140116360039E-05,1.43870402098401E-05,0.3515625,0,0
-1.89012844202807E-05,9.8841392173199E-06,0.3515625,0,0
-2.62501525867265E-05,1.38173572850064E-05,0.3515625,0,0
-2.48697197093861E-05,1.27495550259482E-05,0.3515625,0,0
-2.87019120150944E-05,1.53684122778941E-05,0.3515625,0,0
-2.70439704763703E-05,1.3292567928147E-05,0.3515625,0,0
-2.75901256827638E-05,1.29680465761339E-05,0.3515625,0,0
-2.59741173067596E-05,1.15236734927748E-05,0.3515625,0,0
-2.58949894487159E-05,1.14701160782715E-05,0.3515625,0,0
-2.70164182438748E-05,1.22678866318893E-05,0.3515625,0,0
-2.76973551081028E-05,1.1784145499405E-05,0.3515625,0,0
-2.91891883534845E-05,1.18580583148287E-05,0.3515625,0,0
-2.84805628325557E-05,1.16220317067928E-05,0.3515625,0,0
-2.93236116704065E-05,1.24141643027542E-05,0.3515625,0,0
-2.805975600495E-05,1.06683892227011E-05,0.3515625,0,0
-2.84963862213772E-05,1.00434072010103E-05,0.3515625,0,0
-2.68130097538233E-05,9.02937335922616E-06,0.3515625,0,0
-2.81543270830298E-05,1.00052820926066E-05,0.3515625,0,0
-2.86981085082516E-05,9.79998276307015E-06,0.3515625,0,0
-3.06474139506463E-05,9.78943899099249E-06,0.3515625,0,0
-3.13264172291383E-05,9.11777988221729E-06,0.3515625,0,0
-3.25488108501304E-05,9.96408016362693E-06,0.3515625,0,0
-3.16939876938704E-05,1.05032941064565E-05,0.3515625,0,0
-3.01052405120572E-05,1.1464533599792E-05,0.3515625,0,0
-2.85505848296452E-05,1.1812046977866E-05,0.3515625,0,0
-2.93697012239136E-05,1.12298748717876E-05,0.3515625,0,0
-2.35494080698118E-05,7.50310073271976E-06,0.3515625,0,0
-3.2562358683208E-05,9.5771156338742E-06,0.3515625,0,0
-2.35415864153765E-05,6.21849585513701E-06,0.3515625,0,0
-2.92876429739408E-05,9.65706385613885E-06,0.3515625,0,0
-2.30622044909978E-05,1.08366321001085E-05,0.3515625,0,0
-2.49062959483126E-05,1.37750439535012E-05,0.3515625,0,0
-2.21976679313229E-05,1.28553219838068E-05,0.3515625,0,0
-2.52502923103748E-05,1.18345069495263E-05,0.3515625,0,0
-2.54996230069082E-05,1.05714661913225E-05,0.3515625,0,0
-2.53614853136241E-05,1.04117489172495E-05,0.3515625,0,0
-2.54952028626576E-05,9.42918086366262E-06,0.3515625,0,0
-2.42079622694291E-05,8.07856395113049E-06,0.3515625,0,0
-2.50576049438678E-05,9.13742405828089E-06,0.3515625,0,0
-2.40451536228647E-05,1.08787880890304E-05,0.3515625,0,0
-2.50665270868922E-05,1.16643013825524E-05,0.3515625,0,0
-2.2939497284824E-05,8.98801954463124E-06,0.3515625,0,0
-2.33753598877229E-05,7.21380729373777E-06,0.3515625,0,0
-2.2150501536089E-05,6.97729228704702E-06,0.3515625,0,0
-2.38604879996274E-05,9.08907986740815E-06,0.3515625,0,0
-2.31419235205976E-05,8.58538260217756E-06,0.3515625,0,0
-2.45653882302577E-05,7.76691103965277E-06,0.3515625,0,0
-2.53441085078521E-05,8.689487913216E-06,0.3515625,0,0
-2.66583992925007E-05,9.70447854342638E-06,0.3515625,0,0
-2.62812100118026E-05,9.51612582866801E-06,0.3515625,0,0
-2.64209957094863E-05,1.21285438581253E-05,0.3515625,0,0
-2.53638463618699E-05,1.32458526422852E-05,0.3515625,0,0
-2.45309711317532E-05,1.02785643321113E-05,0.3515625,0,0
-2.0859319192823E-05,5.85879752179608E-06,0.3515625,0,0
-3.10248215100728E-05,8.05472882348113E-06,0.3515625,0,0
-2.44417879002867E-05,5.70963356949505E-06,0.3515625,0,0
-2.79938576568384E-05,5.63638559469837E-06,0.3515625,0,0
-2.35546322073787E-05,3.04020886687795E-06,0.3515625,0,0
-2.72859706456074E-05,6.65619518258609E-06,0.3515625,0,0
-2.51788387686247E-05,1.12083043859457E-05,0.3515625,0,0
-2.50236298597883E-05,1.58227176143555E-05,0.3515625,0,0
-2.32344009418739E-05,1.70740313478746E-05,0.3515625,0,0
-2.23539973376319E-05,1.58644961629761E-05,0.3515625,0,0
-2.1527743228944E-05,1.47141190609545E-05,0.3515625,0,0
-2.01691455004038E-05,1.50673540701973E-05,0.3515625,0,0
-2.08791389013641E-05,1.74606393557042E-05,0.3515625,0,0
-2.0064995624125E-05,1.79525577550521E-05,0.3515625,0,0
-2.20489528146572E-05,1.4652627214673E-05,0.3515625,0,0
-2.15079817280639E-05,9.01355269888882E-06,0.3515625,0,0
-2.18903714994667E-05,6.42691338725854E-06,0.3515625,0,0
-2.04217740247259E-05,5.4983042900858E-06,0.3515625,0,0
-2.18170207517687E-05,4.76535024063196E-06,0.3515625,0,0
-2.08349611057201E-05,2.69270822172984E-06,0.3515625,0,0
-2.07616485567996E-05,3.02431135423831E-06,0.3515625,0,0
-1.929149220814E-05,5.97163261772948E-06,0.3515625,0,0
-1.90150403795997E-05,8.57011855259771E-06,0.3515625,0,0
-1.94706426555058E-05,7.73237297835294E-06,0.3515625,0,0
-2.06181721296161E-05,8.02483282313915E-06,0.3515625,0,0
-1.97770114027662E-05,1.10539358502137E-05,0.3515625,0,0
-1.94822732737521E-05,1.37729975904222E-05,0.3515625,0,0
-1.58079856191762E-05,1.19707056001062E-05,0.3515625,0,0
-2.33552673307713E-05,1.57229314936558E-05,0.3515625,0,0
-2.02275514311623E-05,9.16517365112668E-06,0.3515625,0,0
-2.57044066529488E-05,1.15905822895002E-05,0.3515625,0,0
-2.29798297368689E-05,9.735324056237E-06,0.3515625,0,0
-2.49713666562457E-05,1.1435464330134E-05,0.3515625,0,0
-2.24950581468875E-05,9.94855508906767E-06,0.3515625,0,0
-2.3993174181669E-05,1.01869381978759E-05,0.3515625,0,0
-2.42983551288489E-05,9.21446280699456E-06,0.3515625,0,0
-2.39815271925181E-05,8.67496055434458E-06,0.3515625,0,0
-2.2706706658937E-05,7.62538775234134E-06,0.3515625,0,0
-2.08499295695219E-05,7.55402970753494E-06,0.3515625,0,0
-2.13235834962688E-05,1.03964084701147E-05,0.3515625,0,0
-2.12502600334119E-05,1.19131264000316E-05,0.3515625,0,0
-2.23922816076083E-05,1.23383160826052E-05,0.3515625,0,0
-2.0924240743625E-05,9.3229273261386E-06,0.3515625,0,0
-2.14248666452477E-05,8.49010666570393E-06,0.3515625,0,0
-2.08773180929711E-05,8.78490209288429E-06,0.3515625,0,0
-2.18945115193492E-05,1.09730244730599E-05,0.3515625,0,0
-2.18363056774251E-05,1.1204729162273E-05,0.3515625,0,0
-2.30265541176777E-05,1.26798295241315E-05,0.3515625,0,0
-2.17096021515317E-05,1.42452554428019E-05,0.3515625,0,0
-2.11356218642322E-05,1.60153922479367E-05,0.3515625,0,0
-2.07269386010012E-05,1.58228012878681E-05,0.3515625,0,0
-2.1095269403304E-05,1.53804903675336E-05,0.3515625,0,0
-2.17863580473932E-05,1.51713256855146E-05,0.3515625,0,0
-2.31538906518836E-05,1.47341579577187E-05,0.3515625,0,0
-1.89218571904348E-05,1.13115902422578E-05,0.3515625,0,0
-2.58491181739373E-05,1.44710493259481E-05,0.3515625,0,0
-1.94778676814167E-05,8.44616533868248E-06,0.3515625,0,0
-2.55618851952022E-05,1.20127997433883E-05,0.3515625,0,0
-2.20641995838378E-05,1.2722633073281E-05,0.3515625,0,0
-2.64106638496742E-05,1.72828586073592E-05,0.3515625,0,0
-2.5184726837324E-05,1.85058706847485E-05,0.3515625,0,0
-2.62142111751018E-05,2.02827759494539E-05,0.3515625,0,0
-2.51522778853541E-05,2.01893835765077E-05,0.3515625,0,0
-2.50779248744948E-05,2.0693005353678E-05,0.3515625,0,0
-2.58086365647614E-05,1.95223110495135E-05,0.3515625,0,0
-2.47945135924965E-05,1.69243303389521E-05,0.3515625,0,0
-2.41563066083472E-05,1.64367793331621E-05,0.3515625,0,0
-2.18994628085056E-05,1.72766285686521E-05,0.3515625,0,0
-2.35254792642081E-05,1.97607587324455E-05,0.3515625,0,0
-2.37244476011256E-05,1.85528078873176E-05,0.3515625,0,0
-2.502951065253E-05,1.59388091560686E-05,0.3515625,0,0
-2.32989968935726E-05,1.06868592411047E-05,0.3515625,0,0
-2.40509671129985E-05,6.22791276327916E-06,0.3515625,0,0
-2.39258897636319E-05,2.22759672396933E-06,0.3515625,0,0
-2.59543412539642E-05,1.9465035165922E-06,0.3515625,0,0
-2.69244610535679E-05,7.35801961582183E-07,0.3515625,0,0
-2.78140814771177E-05,-1.79100902641949E-06,0.3515625,0,0
-2.68118255917216E-05,-2.72960551228607E-06,0.3515625,0,0
-2.58201071119402E-05,8.21148148588691E-07,0.3515625,0,0
-2.37086605920922E-05,5.01078102388419E-06,0.3515625,0,0
-2.2839254597784E-05,8.9035083874478E-06,0.3515625,0,0
-1.94791755347978E-05,1.06460893221083E-05,0.3515625,0,0
-2.79251125903102E-05,1.6116902770591E-05,0.3515625,0,0
-1.99648347916082E-05,1.09107704702183E-05,0.3515625,0,0
-2.28203971346375E-05,9.24307096283883E-06,0.3515625,0,0
-1.89878282981226E-05,5.71986265640589E-06,0.3515625,0,0
-2.26083393499721E-05,8.19827164377784E-06,0.3515625,0,0
-2.12246432056418E-05,8.84745895746164E-06,0.3515625,0,0
-2.33167811529711E-05,1.01634941529483E-05,0.3515625,0,0
-2.40002718783217E-05,9.64386435953202E-06,0.3515625,0,0
-2.4087872589007E-05,7.73858118918724E-06,0.3515625,0,0
-2.2379623260349E-05,6.63466153127956E-06,0.3515625,0,0
-1.93759915418923E-05,6.94165873937891E-06,0.3515625,0,0
-1.9295508536743E-05,8.95087941898964E-06,0.3515625,0,0
-1.9280412743683E-05,8.49607204145286E-06,0.3515625,0,0
-2.16729367821245E-05,7.07963317836402E-06,0.3515625,0,0
-2.13271250686375E-05,6.11543237027945E-06,0.3515625,0,0
-2.20739602809772E-05,7.73942429077579E-06,0.3515625,0,0
-2.09892605198547E-05,7.58850092097418E-06,0.3515625,0,0
-2.24514551518951E-05,7.03736168361502E-06,0.3515625,0,0
-2.24438881559763E-05,5.8815858210437E-06,0.3515625,0,0
-2.38854390772758E-05,5.34152650288888E-06,0.3515625,0,0
-2.39380042330595E-05,4.98114741276368E-06,0.3515625,0,0
-2.50567591137951E-05,8.03845705377171E-06,0.3515625,0,0
-2.3773622160661E-05,1.05825847640517E-05,0.3515625,0,0
-2.26021802518517E-05,1.15374095912557E-05,0.3515625,0,0
-2.42996648012195E-05,1.18398484119098E-05,0.3515625,0,0
-2.68689709628234E-05,1.24035159387859E-05,0.3515625,0,0
-2.24651539610932E-05,1.12992402137024E-05,0.3515625,0,0
-3.15337820211425E-05,1.48772187458235E-05,0.3515625,0,0
-2.36390078498516E-05,7.10976610207581E-06,0.3515625,0,0
-3.01359668810619E-05,7.09194455339457E-06,0.3515625,0,0
-2.56954754149774E-05,5.31940577275236E-06,0.3515625,0,0
-2.75030979537405E-05,9.74541853793198E-06,0.3515625,0,0
-2.36400937865255E-05,1.23962599900551E-05,0.3515625,0,0
-2.39600540226093E-05,1.45554022310534E-05,0.3515625,0,0
-2.27491018449655E-05,1.32582372316392E-05,0.3515625,0,0
-2.37860058405204E-05,1.23046684166184E-05,0.3515625,0,0
-2.56658713624347E-05,1.23348991110106E-05,0.3515625,0,0
-2.61858313024277E-05,1.24207408589427E-05,0.3515625,0,0
-2.78525385510875E-05,1.36198505060747E-05,0.3515625,0,0
-2.74576032097684E-05,1.22065657706116E-05,0.3515625,0,0
-2.92806180368643E-05,1.13131090984098E-05,0.3515625,0,0
-2.79381802101852E-05,1.09393449747586E-05,0.3515625,0,0
-2.85592323052697E-05,1.24157504615141E-05,0.3515625,0,0
-2.74192861979827E-05,1.18306898002629E-05,0.3515625,0,0
-2.9438442652463E-05,1.32423101604218E-05,0.3515625,0,0
-2.95076515612891E-05,1.42331546157948E-05,0.3515625,0,0
-3.14410026476253E-05,1.38536997837946E-05,0.3515625,0,0
-3.17525154969189E-05,1.16602932394017E-05,0.3515625,0,0
-3.2439646020066E-05,1.13965024866047E-05,0.3515625,0,0
-3.08010385197122E-05,1.27561997942394E-05,0.3515625,0,0
-2.90563311864389E-05,1.35372547447332E-05,0.3515625,0,0
-2.66467122855829E-05,1.20321547001367E-05,0.3515625,0,0
-2.50292596319923E-05,1.06093766589765E-05,0.3515625,0,0
-1.86628840310732E-05,8.31429588288302E-06,0.3515625,0,0
-2.67664108832832E-05,1.20586537377676E-05,0.3515625,0,0
-2.08466244657757E-05,1.0399066923128E-05,0.3515625,0,0
-2.60670440184185E-05,1.40929432745907E-05,0.3515625,0,0
-2.2195828933036E-05,1.29014460981125E-05,0.3515625,0,0
-2.45261071540881E-05,1.43949382618302E-05,0.3515625,0,0
-2.19613993976964E-05,1.31009355754941E-05,0.3515625,0,0
-2.20522797462763E-05,1.09383336166502E-05,0.3515625,0,0
-2.1163810743019E-05,9.40522295422852E-06,0.3515625,0,0
-2.12613595067523E-05,1.19853029900696E-05,0.3515625,0,0
-2.0070521713933E-05,1.55101261043455E-05,0.3515625,0,0
-1.73286607605405E-05,1.60491254064254E-05,0.3515625,0,0
-1.81625182449352E-05,1.51280091813533E-05,0.3515625,0,0
-1.82816474989522E-05,1.41489272209583E-05,0.3515625,0,0
-1.97353747353191E-05,1.5799501852598E-05,0.3515625,0,0
-1.97269910131581E-05,1.6008560123737E-05,0.3515625,0,0
-2.2084232114139E-05,1.55432535393629E-05,0.3515625,0,0
-2.186660458392E-05,1.40064348670421E-05,0.3515625,0,0
-2.27353393711383E-05,1.36057524287025E-05,0.3515625,0,0
-2.24514587898739E-05,1.31118031276856E-05,0.3515625,0,0
-2.50315097218845E-05,1.25195447253645E-05,0.3515625,0,0
-2.65352264250396E-05,1.05157860161853E-05,0.3515625,0,0
-2.63840538536897E-05,9.23217521631159E-06,0.3515625,0,0
-2.37866133829812E-05,8.50063406687696E-06,0.3515625,0,0
-2.12168051803019E-05,9.07280082174111E-06,0.3515625,0,0
-1.91117123904405E-05,9.06913828657707E-06,0.3515625,0,0
-1.8959599401569E-05,8.88664453668753E-06,0.3515625,0,0
-1.59523187903687E-05,9.14062911760993E-06,0.3515625,0,0
-2.26174106501276E-05,1.39966996357543E-05,0.3515625,0,0
-1.72802265296923E-05,9.65920207818272E-06,0.3515625,0,0
-2.20630445255665E-05,1.04710934465402E-05,0.3515625,0,0
-1.86382967513055E-05,1.23942581922165E-05,0.3515625,0,0
-1.93215964827687E-05,1.57128106366144E-05,0.3515625,0,0
-1.72102500073379E-05,1.37518263727543E-05,0.3515625,0,0
-1.85481130756671E-05,1.39590501930797E-05,0.3515625,0,0
-1.88598278327845E-05,1.46755419336841E-05,0.3515625,0,0
-1.95324992091628E-05,1.49154820974218E-05,0.3515625,0,0
-1.99219757632818E-05,1.39654266604339E-05,0.3515625,0,0
-1.94148833543295E-05,1.18129028123803E-05,0.3515625,0,0
-2.04067255253904E-05,1.01250670923037E-05,0.3515625,0,0
-2.01815782929771E-05,8.47122100822162E-06,0.3515625,0,0
-2.14673636946827E-05,7.85518841439625E-06,0.3515625,0,0
-2.04216776182875E-05,6.26987048235605E-06,0.3515625,0,0
-2.08591845876072E-05,4.15941894971184E-06,0.3515625,0,0
-2.11358365049819E-05,-3.12909321564803E-07,0.3515625,0,0
-2.45381706918124E-05,-3.51865173797705E-06,0.3515625,0,0
-2.58253385254648E-05,-4.76201557830791E-06,0.3515625,0,0
-2.62724424828775E-05,-2.67661152975052E-06,0.3515625,0,0
-2.49447675741976E-05,1.17211936867534E-06,0.3515625,0,0
-2.49339536821935E-05,8.45178874442354E-06,0.3515625,0,0
-2.52135105256457E-05,1.41270402309601E-05,0.3515625,0,0
-2.58639138337458E-05,1.57782469614176E-05,0.3515625,0,0
-2.54639144259272E-05,1.52857010107255E-05,0.3515625,0,0
-2.61080767813837E-05,1.46528109326027E-05,0.3515625,0,0
-2.10892194445478E-05,1.12948582682293E-05,0.3515625,0,0
-2.89574109046953E-05,1.3435106666293E-05,0.3515625,0,0
-2.08126093639294E-05,6.14481859884108E-06,0.3515625,0,0
-2.65175167442067E-05,1.03040265457821E-05,0.3515625,0,0
-2.20070032810327E-05,1.0464948900335E-05,0.3515625,0,0
-2.48189571721014E-05,1.34246838570107E-05,0.3515625,0,0
-2.27435866690939E-05,1.28229576148442E-05,0.3515625,0,0
-2.50980865530437E-05,1.26530094348709E-05,0.3515625,0,0
-2.50460689130705E-05,1.07265459519112E-05,0.3515625,0,0
-2.42711539613083E-05,9.51663696469041E-06,0.3515625,0,0
-2.24039886234095E-05,9.90287480817642E-06,0.3515625,0,0
-1.99157930182992E-05,1.06051966213272E-05,0.3515625,0,0
-2.01357306650607E-05,1.17593854156439E-05,0.3515625,0,0
-1.97143581317505E-05,1.04319351521553E-05,0.3515625,0,0
-2.21183654502966E-05,9.44451585382922E-06,0.3515625,0,0
-2.11255064641591E-05,8.57253053254681E-06,0.3515625,0,0
-2.09419340535533E-05,1.11507843030267E-05,0.3515625,0,0
-1.85842200153274E-05,1.36086109705502E-05,0.3515625,0,0
-2.05006253963802E-05,1.6028605386964E-05,0.3515625,0,0
-2.19718185689999E-05,1.55484922288451E-05,0.3515625,0,0
-2.411311470496E-05,1.53800010593841E-05,0.3515625,0,0
-2.29452798521379E-05,1.48827712109778E-05,0.3515625,0,0
-2.21209211304085E-05,1.45662297654781E-05,0.3515625,0,0
-2.14639439946041E-05,1.42687531479169E-05,0.3515625,0,0
-2.43092417804291E-05,1.49249081005109E-05,0.3515625,0,0
-2.67947179963812E-05,1.3810048585583E-05,0.3515625,0,0
-2.58227300946601E-05,1.250441709999E-05,0.3515625,0,0
-1.83952743100235E-05,1.03641523310216E-05,0.3515625,0,0
-2.58478303294396E-05,1.42945000334294E-05,0.3515625,0,0
-2.00474260054762E-05,1.01491486930172E-05,0.3515625,0,0
-2.49852928391192E-05,1.10287674033316E-05,0.3515625,0,0
-2.02558694581967E-05,5.79186735194526E-06,0.3515625,0,0
-2.23214392462978E-05,4.44841543867369E-06,0.3515625,0,0
-2.00948470592266E-05,1.32792320073349E-06,0.3515625,0,0
-2.12420036405092E-05,1.95762413568445E-06,0.3515625,0,0
-2.07544453587616E-05,2.9804102723574E-06,0.3515625,0,0
-2.10176494874759E-05,4.37607241110527E-06,0.3515625,0,0
-2.23266179091297E-05,6.10216284258058E-06,0.3515625,0,0
-2.36572122958023E-05,6.48201148578664E-06,0.3515625,0,0
-2.55185532296309E-05,7.60671218813513E-06,0.3515625,0,0
-2.41223497141618E-05,8.44937858346384E-06,0.3515625,0,0
-2.46952640736708E-05,1.03071561170509E-05,0.3515625,0,0
-2.44842540269019E-05,9.59590579441283E-06,0.3515625,0,0
-2.61764271272114E-05,9.47868193179602E-06,0.3515625,0,0
-2.50128359766677E-05,9.25218228076119E-06,0.3515625,0,0
-2.51104029302951E-05,1.08998265204718E-05,0.3515625,0,0
-2.29951365326997E-05,1.08669182736776E-05,0.3515625,0,0
-2.25146486627636E-05,1.04136342997663E-05,0.3515625,0,0
-2.18668810703093E-05,9.0817738964688E-06,0.3515625,0,0
-2.3446114937542E-05,8.23202117317123E-06,0.3515625,0,0
-2.49722324952018E-05,7.96475615061354E-06,0.3515625,0,0
-2.64419049926801E-05,9.57269185164478E-06,0.3515625,0,0
-2.63089932559524E-05,1.11376612039749E-05,0.3515625,0,0
-2.6194216843578E-05,1.13089899969054E-05,0.3515625,0,0
-2.19309567910386E-05,8.31503075460205E-06,0.3515625,0,0
-3.0748331482755E-05,1.15324628495728E-05,0.3515625,0,0
-2.28079516091384E-05,7.61051251174649E-06,0.3515625,0,0
-2.90122188744135E-05,8.89763396116905E-06,0.3515625,0,0
-2.6176781830145E-05,8.13663518783869E-06,0.3515625,0,0
-3.07558984786738E-05,1.05169247035519E-05,0.3515625,0,0
-2.74767589871772E-05,9.90695298241917E-06,0.3515625,0,0
-2.59083844866836E-05,1.09312022686936E-05,0.3515625,0,0
-2.40159570239484E-05,1.15432621896616E-05,0.3515625,0,0
-2.42163641814841E-05,1.20742970466381E-05,0.3515625,0,0
-2.39887594943866E-05,1.01257110145525E-05,0.3515625,0,0
-2.27330947382143E-05,4.78646597912302E-06,0.3515625,0,0
-2.39161036006408E-05,2.67043969870429E-06,0.3515625,0,0
-2.36513169511454E-05,5.06837750435807E-06,0.3515625,0,0
-2.57325391430641E-05,9.60847046371782E-06,0.3515625,0,0
-2.43199356191326E-05,1.08428257590276E-05,0.3515625,0,0
-2.46244635491166E-05,1.11336594272871E-05,0.3515625,0,0
-2.30669593292987E-05,1.02937356132315E-05,0.3515625,0,0
-2.39126584347105E-05,1.03302809293382E-05,0.3515625,0,0
-2.28702010645065E-05,9.68932090472663E-06,0.3515625,0,0
-2.36881132877897E-05,9.77848412730964E-06,0.3515625,0,0
-2.20304409594974E-05,9.87950988928787E-06,0.3515625,0,0
-2.17069791688118E-05,1.08127851490281E-05,0.3515625,0,0
-2.27302207349567E-05,1.18341858978965E-05,0.3515625,0,0
-2.55942013609456E-05,1.2731086826534E-05,0.3515625,0,0
-2.6962337869918E-05,1.23094796435907E-05,0.3515625,0,0
-2.59866756096017E-05,1.1890112546098E-05,0.3515625,0,0
-1.96159962797537E-05,8.8469751062803E-06,0.3515625,0,0
-2.83830613625469E-05,1.16615283332067E-05,0.3515625,0,0
-2.28952267207205E-05,8.37295556266326E-06,0.3515625,0,0
-2.78634906862862E-05,1.22924420793424E-05,0.3515625,0,0
-2.20134261326166E-05,1.08882131826249E-05,0.3515625,0,0
-2.32430393225513E-05,1.13967544166371E-05,0.3515625,0,0
-2.07245702767977E-05,1.16689552669413E-05,0.3515625,0,0
-2.30538025789429E-05,1.41360014822567E-05,0.3515625,0,0
-2.36602427321486E-05,1.40284373628674E-05,0.3515625,0,0
-2.33432965615066E-05,1.49297256939462E-05,0.3515625,0,0
-2.28873996093171E-05,1.56645673996536E-05,0.3515625,0,0
-2.1701214791392E-05,1.37010356411338E-05,0.3515625,0,0
-2.22012240556069E-05,1.16947830974823E-05,0.3515625,0,0
-2.05059823201736E-05,1.08344829641283E-05,0.3515625,0,0
-2.01006405404769E-05,1.23168820209685E-05,0.3515625,0,0
-1.8241304132971E-05,1.25059050333221E-05,0.3515625,0,0
-1.96729324670741E-05,1.36092930915765E-05,0.3515625,0,0
-1.94547264982248E-05,1.37648212330532E-05,0.3515625,0,0
-2.11142341868253E-05,1.42147237056633E-05,0.3515625,0,0
-2.09867230296368E-05,1.25734131870558E-05,0.3515625,0,0
-2.25230778596597E-05,1.04393848232576E-05,0.3515625,0,0
-2.14734063774813E-05,6.78530204822891E-06,0.3515625,0,0
-2.06040931516327E-05,4.46060721515096E-06,0.3515625,0,0
-2.06936456379481E-05,4.82668929180363E-06,0.3515625,0,0
-2.16288226511097E-05,9.69452958088368E-06,0.3515625,0,0
-2.10448324651225E-05,1.40910215122858E-05,0.3515625,0,0
-2.02957526198588E-05,1.39488838613033E-05,0.3515625,0,0
-1.68971964740194E-05,9.39016808843007E-06,0.3515625,0,0
-2.43746544583701E-05,1.23052132039447E-05,0.3515625,0,0
-2.01428356376709E-05,7.75880744185997E-06,0.3515625,0,0
-2.55694994848454E-05,8.21016237750882E-06,0.3515625,0,0
-2.17160795727978E-05,1.65838832799636E-06,0.3515625,0,0
-2.44242582994048E-05,-1.87405294127529E-06,0.3515625,0,0
-2.37310596276075E-05,-4.44570014224155E-06,0.3515625,0,0
-2.5752182409633E-05,-1.16196611088526E-06,0.3515625,0,0
-2.49289550993126E-05,1.48851279391238E-06,0.3515625,0,0
-2.34129201999167E-05,3.78409731638385E-06,0.3515625,0,0
-2.41183897742303E-05,5.57520706934156E-06,0.3515625,0,0
-2.48446176556172E-05,5.82115171710029E-06,0.3515625,0,0
-2.63097772403853E-05,7.07546632838785E-06,0.3515625,0,0
-2.60972174146445E-05,7.70038695918629E-06,0.3515625,0,0
-2.76038535957923E-05,9.09768914425513E-06,0.3515625,0,0
-2.70864329650067E-05,9.18573277886026E-06,0.3515625,0,0
-2.83361005131155E-05,1.04873042801046E-05,0.3515625,0,0
-2.73297519015614E-05,1.12849675133475E-05,0.3515625,0,0
-2.70794680545805E-05,1.33453850139631E-05,0.3515625,0,0
-2.54184287769021E-05,1.33300281959237E-05,0.3515625,0,0
-2.66103070316603E-05,1.3117236449034E-05,0.3515625,0,0
-2.91365522571141E-05,1.2443649211491E-05,0.3515625,0,0
-3.23432359436993E-05,1.30693861137843E-05,0.3515625,0,0
-3.15125071210787E-05,1.38627792694024E-05,0.3515625,0,0
-2.84220604953589E-05,1.42962353493203E-05,0.3515625,0,0
-2.60558354057139E-05,1.43316592584597E-05,0.3515625,0,0
-2.62418343481841E-05,1.52387237903895E-05,0.3515625,0,0
-2.17833949136548E-05,1.3746075637755E-05,0.3515625,0,0
-3.12258089252282E-05,2.02066257770639E-05,0.3515625,0,0
-2.38528937188676E-05,1.57208469317993E-05,0.3515625,0,0
-2.81486209132709E-05,1.81330888153752E-05,0.3515625,0,0
-2.18563309317688E-05,1.57279300765367E-05,0.3515625,0,0
-2.41622710746014E-05,1.99537735170452E-05,0.3515625,0,0
-2.2093972802395E-05,1.89279962796718E-05,0.3515625,0,0
-2.4204333385569E-05,1.60774070536718E-05,0.3515625,0,0
-2.39398923440604E-05,1.11094686872093E-05,0.3515625,0,0
-2.39992532442557E-05,9.76345472736284E-06,0.3515625,0,0
-2.40963545365958E-05,1.08657386590494E-05,0.3515625,0,0
-2.28439821512438E-05,1.10957016659086E-05,0.3515625,0,0
-2.37117092183325E-05,1.24611015053233E-05,0.3515625,0,0
-2.30993609875441E-05,1.34779138534213E-05,0.3515625,0,0
-2.39364089793526E-05,1.40403817567858E-05,0.3515625,0,0
-2.20637502934551E-05,1.07287078208174E-05,0.3515625,0,0
-2.27414311666507E-05,7.77381228544982E-06,0.3515625,0,0
-2.14497322303941E-05,2.65757284978463E-06,0.3515625,0,0
-2.28603057621513E-05,-5.64258300528309E-07,0.3515625,0,0
-2.20374040509341E-05,-2.85827104562486E-06,0.3515625,0,0
-2.20733163587283E-05,-1.16230251023808E-06,0.3515625,0,0
-2.07144366868306E-05,1.89035574749141E-06,0.3515625,0,0
-2.12097311305115E-05,6.57222653899225E-06,0.3515625,0,0
-2.08459005079931E-05,1.06771803984884E-05,0.3515625,0,0
-2.01554230443435E-05,1.48651915878872E-05,0.3515625,0,0
-1.91846829693532E-05,1.70192415680503E-05,0.3515625,0,0
-2.0386647520354E-05,1.6878600945347E-05,0.3515625,0,0
-1.8130311218556E-05,1.29402542370372E-05,0.3515625,0,0
-2.67665345745627E-05,1.91674134839559E-05,0.3515625,0,0
-2.16719236050267E-05,1.41490845635417E-05,0.3515625,0,0
-2.71978406090057E-05,1.31819288071711E-05,0.3515625,0,0
-2.4032335204538E-05,7.71687973610824E-06,0.3515625,0,0
-2.62831963482313E-05,1.07629302874557E-05,0.3515625,0,0
-2.47482093982399E-05,1.16612091005663E-05,0.3515625,0,0
-2.53564248851035E-05,1.29939144244418E-05,0.3515625,0,0
-2.46284107561223E-05,1.23168229038129E-05,0.3515625,0,0
-2.50498342211358E-05,1.39014873639098E-05,0.3515625,0,0
-2.54222541116178E-05,1.63293207151582E-05,0.3515625,0,0
-2.36651794693898E-05,1.72410673258128E-05,0.3515625,0,0
-2.35692496062256E-05,1.70736020663753E-05,0.3515625,0,0
-2.3354914446827E-05,1.488149882789E-05,0.3515625,0,0
-2.55120212386828E-05,1.43418092193315E-05,0.3515625,0,0
-2.47285861405544E-05,1.2858288755524E-05,0.3515625,0,0
-2.3719338059891E-05,1.41567052196478E-05,0.3515625,0,0
-2.02901937882416E-05,1.54519020725274E-05,0.3515625,0,0
-2.05336273211287E-05,1.69996492331848E-05,0.3515625,0,0
-2.17657998291543E-05,1.45464855449973E-05,0.3515625,0,0
-2.43875838350505E-05,1.28259989651269E-05,0.3515625,0,0
-2.46829895331757E-05,1.18514408313786E-05,0.3515625,0,0
-2.44611455855193E-05,1.11244044092018E-05,0.3515625,0,0
-2.26810352614848E-05,8.63775676407386E-06,0.3515625,0,0
-2.2351798179443E-05,8.23042228148552E-06,0.3515625,0,0
-2.29641445912421E-05,8.86649286258034E-06,0.3515625,0,0
-2.31343765335623E-05,6.96300367053482E-06,0.3515625,0,0
-1.76975117938127E-05,4.66461506221094E-06,0.3515625,0,0
-2.50290559051791E-05,7.72680232330458E-06,0.3515625,0,0
-1.94837102753809E-05,6.76839499647031E-06,0.3515625,0,0
-2.39908295043278E-05,6.46195439912844E-06,0.3515625,0,0
-1.92680781765375E-05,5.29619910594192E-06,0.3515625,0,0
-2.15290565392934E-05,6.11088671575999E-06,0.3515625,0,0
-1.9983017409686E-05,5.80233790969942E-06,0.3515625,0,0
-2.26723677769769E-05,6.76192712489865E-06,0.3515625,0,0
-2.45555456785951E-05,7.16325757821323E-06,0.3515625,0,0
-2.67828927462688E-05,7.35187768441392E-06,0.3515625,0,0
-2.70593591267243E-05,9.02084229892353E-06,0.3515625,0,0
-2.45142455241876E-05,1.1329799235682E-05,0.3515625,0,0
-2.30799105338519E-05,1.35243280965369E-05,0.3515625,0,0
-2.08270394068677E-05,1.43952656799229E-05,0.3515625,0,0
-2.11220958590275E-05,1.43232609843835E-05,0.3515625,0,0
-2.01187576749362E-05,1.30185999296373E-05,0.3515625,0,0
-2.23207316594198E-05,1.26171116789919E-05,0.3515625,0,0
-2.3407341359416E-05,1.29643940454116E-05,0.3515625,0,0
-2.58320687862579E-05,1.30584276121226E-05,0.3515625,0,0
-2.53385987889487E-05,1.06048692032346E-05,0.3515625,0,0
-2.55310897046002E-05,8.3463992268662E-06,0.3515625,0,0
-2.5224564524251E-05,7.76566048443783E-06,0.3515625,0,0
-2.7266347387922E-05,8.0608688222128E-06,0.52734375,0,0
-2.83154367934912E-05,8.40106076793745E-06,0.52734375,0,0
-2.84068719338393E-05,9.59621229412733E-06,0.52734375,0,0
-2.87127459159819E-05,1.04868222479126E-05,0.52734375,0,0
-3.13348682539072E-05,1.06326860986883E-05,0.52734375,0,0
-2.68064522970235E-05,9.1217871158733E-06,0.52734375,0,0
-3.73473994841333E-05,1.37539855131763E-05,0.52734375,0,0
-2.7517487978912E-05,1.0774951078929E-05,0.52734375,0,0
-3.51989328919444E-05,1.06335401142132E-05,0.52734375,0,0
-2.92466993414564E-05,6.02713498665253E-06,0.52734375,0,0
-3.08410926663782E-05,6.56549491395708E-06,0.52734375,0,0
-2.69339616352227E-05,5.41545887244865E-06,0.52734375,0,0
-3.03405449812999E-05,5.25877885593218E-06,0.52734375,0,0
-3.11774056171998E-05,4.23449182562763E-06,0.52734375,0,0
-3.05996109091211E-05,3.95283450416173E-06,0.52734375,0,0
-2.83553526969627E-05,5.30710758539499E-06,0.52734375,0,0
-2.48205415118719E-05,7.01673388903146E-06,0.52734375,0,0
-2.52851186814951E-05,9.07461799215525E-06,0.52734375,0,0
-2.50033608608646E-05,8.45063550514169E-06,0.52734375,0,0
-2.70201599050779E-05,8.05226954980753E-06,0.52734375,0,0
-2.41268407989992E-05,9.44858311413554E-06,0.52734375,0,0
-2.33213686442468E-05,1.45989843076677E-05,0.52734375,0,0
-1.96262444660533E-05,1.77331439772388E-05,0.52734375,0,0
-1.82979147211881E-05,1.84868040378205E-05,0.52734375,0,0
-1.42565104397363E-05,1.74832766788313E-05,0.52734375,0,0
-1.29256259242538E-05,1.86490524356486E-05,0.52734375,0,0
-1.11151894088835E-05,1.9059936676058E-05,0.52734375,0,0
-1.13223359221593E-05,1.75835430127336E-05,0.52734375,0,0
-1.11721510620555E-05,1.55347024701769E-05,0.52734375,0,0
-1.20787781270337E-05,1.4445752640313E-05,0.52734375,0,0
-1.21620905702002E-05,1.20912091006176E-05,0.52734375,0,0
-1.24133775898372E-05,9.22764411370736E-06,0.52734375,0,0
-1.05438175523886E-05,6.67738231641124E-06,0.52734375,0,0
-1.68138521985384E-05,1.02658177638659E-05,0.52734375,0,0
-1.65545479831053E-05,9.89543605101062E-06,0.52734375,0,0
-2.08175733860116E-05,1.45833710121224E-05,0.52734375,0,0
-1.89703096111771E-05,1.59230385179399E-05,0.52734375,0,0
-1.99165442609228E-05,1.74975393747445E-05,0.52734375,0,0
-1.86447668966139E-05,1.56752539623994E-05,0.52734375,0,0
-1.86333945748629E-05,1.36779608510551E-05,0.52734375,0,0
-1.82500752998749E-05,1.12121451820713E-05,0.52734375,0,0
-1.85105000127805E-05,9.69999564404134E-06,0.52734375,0,0
-1.90411428775406E-05,9.04191892914241E-06,0.52734375,0,0
-1.86008383025182E-05,8.20115837996127E-06,0.52734375,0,0
-1.96256714843912E-05,7.95009964349447E-06,0.52734375,0,0
-2.06206786970142E-05,7.49461287341546E-06,0.52734375,0,0
-2.21647260332247E-05,7.52240475776489E-06,0.52734375,0,0
-2.18766363104805E-05,6.65160678181564E-06,0.52734375,0,0
-2.20918009290472E-05,7.27878614270594E-06,0.52734375,0,0
-2.21791688090889E-05,9.40171867114259E-06,0.52734375,0,0
-2.45684404944768E-05,1.25340120575856E-05,0.52734375,0,0
-2.58406325883698E-05,1.28471774587524E-05,0.52734375,0,0
-2.60598844761262E-05,1.16145902211429E-05,0.52734375,0,0
-2.52582976827398E-05,9.82532128546154E-06,0.52734375,0,0
-2.44458224187838E-05,1.05998406070285E-05,0.52734375,0,0
-2.31151625484927E-05,1.18579346235492E-05,0.52734375,0,0
-2.3401891667163E-05,1.13949872684316E-05,0.52734375,0,0
-2.39398195844842E-05,9.21592527447501E-06,0.52734375,0,0
-2.43235353991622E-05,8.03549301053863E-06,0.52734375,0,0
-2.08216897590319E-05,8.5720639617648E-06,0.52734375,0,0
-3.09311217279173E-05,1.29834852486965E-05,0.52734375,0,0
-2.39607161347521E-05,1.06891284303856E-05,0.52734375,0,0
-2.92033164441818E-05,1.33269313664641E-05,0.52734375,0,0
-2.6695064661908E-05,1.23256058941479E-05,0.52734375,0,0
-2.97154856525594E-05,1.32347986436798E-05,0.52734375,0,0
-2.60327396972571E-05,1.18106827358133E-05,0.52734375,0,0
-2.54211299761664E-05,1.20713566502673E-05,0.52734375,0,0
-2.43479353230214E-05,1.26430695672752E-05,0.52734375,0,0
-2.40795216086553E-05,1.2826812962885E-05,0.52734375,0,0
-2.36115411098581E-05,1.14182075776625E-05,0.52734375,0,0
-2.25544372369768E-05,1.06611369119491E-05,0.52734375,0,0
-2.31962112593465E-05,1.15968341560801E-05,0.52734375,0,0
-2.23026781895896E-05,9.87388375506271E-06,0.52734375,0,0
-2.39100063481601E-05,6.68447000862216E-06,0.52734375,0,0
-2.37592848861823E-05,2.42089640778431E-06,0.52734375,0,0
-2.51692381425528E-05,7.70957839790754E-08,0.52734375,0,0
-2.38992670347216E-05,-9.74060867520166E-07,0.52734375,0,0
-2.52856116276234E-05,1.29030968309962E-06,0.52734375,0,0
-2.64156897173962E-05,3.86154533771332E-06,0.52734375,0,0
-2.92041459033499E-05,7.78266803536098E-06,0.52734375,0,0
-2.9674843972316E-05,1.0924607522611E-05,0.52734375,0,0
-2.99603489111178E-05,1.19675050882506E-05,0.52734375,0,0
-2.94219335046364E-05,1.12962252387661E-05,0.52734375,0,0
-3.03182368952548E-05,1.18226716949721E-05,0.52734375,0,0
-3.23015337926336E-05,1.17115177999949E-05,0.52734375,0,0
-3.43674910254776E-05,9.6789435701794E-06,0.52734375,0,0
-2.8450656827772E-05,7.63692423788598E-06,0.52734375,0,0
-3.86052815883886E-05,1.21382463476039E-05,0.52734375,0,0
-2.61288932961179E-05,1.13211499410681E-05,0.52734375,0,0
-3.22794076055288E-05,1.39478279379546E-05,0.52734375,0,0
-2.53553371294402E-05,1.25670803754474E-05,0.52734375,0,0
-2.88720966636902E-05,1.35907248477452E-05,0.52734375,0,0
-2.50465182034532E-05,1.36669777930365E-05,0.52734375,0,0
-2.60016458923928E-05,1.46613119795802E-05,0.52734375,0,0
-2.57661231444217E-05,1.41566888487432E-05,0.52734375,0,0
-2.66108909272589E-05,1.36949420266319E-05,0.52734375,0,0
-2.74055200861767E-05,1.27468802020303E-05,0.52734375,0,0
-2.58151358139003E-05,1.11580593511462E-05,0.52734375,0,0
-2.63473721133778E-05,1.11032295535551E-05,0.52734375,0,0
-2.51481396844611E-05,1.05652397905942E-05,0.52734375,0,0
-2.70918153546518E-05,1.07831019704463E-05,0.52734375,0,0
-2.60379310930148E-05,1.02509820862906E-05,0.52734375,0,0
-2.80303956969874E-05,1.08863505374757E-05,0.52734375,0,0
-2.65692360699177E-05,1.20405293273507E-05,0.52734375,0,0
-2.7823845812236E-05,1.42749486258253E-05,0.52734375,0,0
-2.64050268015126E-05,1.45581925607985E-05,0.52734375,0,0
-2.77811086561996E-05,1.35294103529304E-05,0.52734375,0,0
-2.82091314147692E-05,1.11109156932798E-05,0.52734375,0,0
-2.89325125777395E-05,1.11301351353177E-05,0.52734375,0,0
-2.72809538728325E-05,1.45590975080268E-05,0.52734375,0,0
-2.56584007729543E-05,1.80047100002412E-05,0.52734375,0,0
-2.30239620577777E-05,1.95430347957881E-05,0.52734375,0,0
-2.14171250263462E-05,2.04418993234867E-05,0.52734375,0,0
-1.78858317667618E-05,1.60463623615215E-05,0.52734375,0,0
-2.60879605775699E-05,2.2460226318799E-05,0.52734375,0,0
-2.00113354367204E-05,1.83293868758483E-05,0.52734375,0,0
-2.24432842514943E-05,2.44684160861652E-05,0.52734375,0,0
-1.67393536685267E-05,1.96566470549442E-05,0.52734375,0,0
-1.79752860276494E-05,1.98737707250984E-05,0.52734375,0,0
-1.69941340573132E-05,1.69396898854757E-05,0.52734375,0,0
-1.91792223631637E-05,1.61101179401157E-05,0.52734375,0,0
-1.89205202332232E-05,1.21016046250588E-05,0.52734375,0,0
-1.79698472493328E-05,9.13628628040897E-06,0.52734375,0,0
-1.599772440386E-05,8.16494411992608E-06,0.52734375,0,0
-1.34207384689944E-05,6.99542306392686E-06,0.52734375,0,0
-1.38895038617193E-05,7.56879217078676E-06,0.52734375,0,0
-1.332784358965E-05,6.48421473670169E-06,0.52734375,0,0
-1.3358068827074E-05,4.47686534243985E-06,0.52734375,0,0
-1.11288009065902E-05,-9.64926925917098E-07,0.52734375,0,0
-1.18576999739162E-05,-3.35745176016644E-06,0.52734375,0,0
-1.17650415631942E-05,-5.00945634485106E-06,0.52734375,0,0
-1.44272817124147E-05,-1.58805801220296E-06,0.52734375,0,0
-1.63091735885246E-05,2.93601897283224E-06,0.52734375,0,0
-1.78937170858262E-05,7.79209312895546E-06,0.52734375,0,0
-1.62485866894713E-05,8.79651906871004E-06,0.52734375,0,0
-1.68473015946802E-05,9.96690323518123E-06,0.52734375,0,0
-1.87823316082358E-05,1.13117339424207E-05,0.52734375,0,0
-2.01172824745299E-05,1.20525737656862E-05,0.52734375,0,0
-2.06762415473349E-05,1.14153690446983E-05,0.52734375,0,0
-2.29642682825215E-05,1.19707929115975E-05,0.52734375,0,0
-2.02882019948447E-05,1.05093877209583E-05,0.52734375,0,0
-2.94892943202285E-05,1.22417368402239E-05,0.52734375,0,0
-2.4577046133345E-05,2.63467154582031E-06,0.52734375,0,0
-3.15250617859419E-05,1.44449393246759E-06,0.52734375,0,0
-2.77508752333233E-05,-8.071003776422E-07,0.52734375,0,0
-3.11224757751916E-05,1.70399198395899E-06,0.52734375,0,0
-3.01250220218208E-05,2.69595284407842E-06,0.52734375,0,0
-3.26164881698787E-05,6.50494939691271E-06,0.52734375,0,0
-3.18460915877949E-05,1.04101391116274E-05,0.52734375,0,0
-3.09608949464746E-05,1.37620445457287E-05,0.52734375,0,0
-3.04725272144424E-05,1.4754467883904E-05,0.52734375,0,0
-2.89609542960534E-05,1.24919588415651E-05,0.52734375,0,0
-2.99897510558367E-05,1.01716541394126E-05,0.52734375,0,0
-3.02080989058595E-05,8.57978284329874E-06,0.52734375,0,0
-3.2269861549139E-05,1.02229241747409E-05,0.52734375,0,0
-3.0995812267065E-05,1.13114947453141E-05,0.52734375,0,0
-3.17078483931255E-05,1.29957479657605E-05,0.52734375,0,0
-3.06574511341751E-05,1.22853134598699E-05,0.52734375,0,0
-3.20869985444006E-05,1.10836781459511E-05,0.52734375,0,0
-3.1826137274038E-05,9.85629321803572E-06,0.52734375,0,0
-3.21320912917145E-05,1.21434222819516E-05,0.52734375,0,0
-3.05569628835656E-05,1.31433735077735E-05,0.52734375,0,0
-2.96420093945926E-05,1.23856889331364E-05,0.52734375,0,0
-2.68876246991567E-05,1.18216530609061E-05,0.52734375,0,0
-2.53386551776202E-05,1.19783289846964E-05,0.52734375,0,0
-2.52630998147652E-05,1.19285314212902E-05,0.52734375,0,0
-2.56630828516791E-05,1.24813868751517E-05,0.52734375,0,0
-1.94757922145072E-05,9.94085530692246E-06,0.87890625,0,0
-2.5825975171756E-05,1.37307843033341E-05,0.87890625,0,0
-1.63986351253698E-05,9.94161382550374E-06,0.87890625,0,0
-1.97974313778104E-05,1.31823389892816E-05,0.87890625,0,0
-1.51893273141468E-05,1.25279875646811E-05,0.87890625,0,0
-1.83406646101503E-05,1.44546138471924E-05,0.87890625,0,0
-1.68270526046399E-05,1.23443360280362E-05,0.87890625,0,0
-1.90944338100962E-05,1.27169068946387E-05,0.87890625,0,0
-1.89064339792822E-05,1.34307674670708E-05,0.87890625,0,0
-1.9341174265719E-05,1.41665441333316E-05,0.87890625,0,0
-1.99909263756126E-05,1.39754374686163E-05,0.87890625,0,0
-1.97387853404507E-05,1.18960142572178E-05,0.87890625,0,0
-2.14982646866702E-05,1.08394788185251E-05,0.87890625,0,0
-2.11116075661266E-05,1.04758655652404E-05,0.87890625,0,0
-2.2085976524977E-05,1.19977412396111E-05,0.87890625,0,0
-2.11253736779327E-05,1.17340105134645E-05,0.87890625,0,0
-2.32124129979638E-05,1.10907067210064E-05,0.87890625,0,0
-2.3224403776112E-05,8.42544432089198E-06,0.87890625,0,0
-2.47611169470474E-05,6.96078041073633E-06,0.87890625,0,0
-2.38446773437317E-05,5.48870548300329E-06,0.87890625,0,0
-2.4299522920046E-05,5.48121124666068E-06,0.87890625,0,0
-2.37552776525263E-05,5.34604441781994E-06,0.87890625,0,0
-2.29258894250961E-05,6.64813387629692E-06,0.87890625,0,0
-1.9651124603115E-05,8.07199467089958E-06,0.87890625,0,0
-1.81276300281752E-05,1.11010886030272E-05,0.87890625,0,0
-1.94299609574955E-05,1.42942180900718E-05,0.87890625,0,0
-2.21423888433492E-05,1.40890069815214E-05,0.87890625,0,0
-1.99007772607729E-05,9.6607836894691E-06,0.87890625,0,0
-2.86227314063581E-05,1.3351954294194E-05,0.87890625,0,0
-2.11195601877989E-05,1.02710000646766E-05,0.87890625,0,0
-2.52317186095752E-05,1.29160480355495E-05,0.87890625,0,0
-2.27999844355509E-05,9.68157200986752E-06,0.87890625,0,0
-2.85570004052715E-05,1.08005633592256E-05,0.87890625,0,0
-2.9266791898408E-05,1.00916004157625E-05,0.87890625,0,0
-3.08729213429615E-05,1.12979232653743E-05,0.87890625,0,0
-2.97171300189802E-05,1.12940670078387E-05,0.87890625,0,0
-3.03867545881076E-05,1.18892667160253E-05,0.87890625,0,0
-3.18449056067038E-05,1.38311306727701E-05,0.87890625,0,0
-3.13663149427157E-05,1.399662141921E-05,0.87890625,0,0
-3.0619678000221E-05,1.28539950310369E-05,0.87890625,0,0
-2.69252032012446E-05,9.9991539173061E-06,0.87890625,0,0
-2.57813426287612E-05,9.12184168555541E-06,0.87890625,0,0
-2.44039983954281E-05,8.87160331330961E-06,0.87890625,0,0
-2.60337001236621E-05,1.04612518043723E-05,0.87890625,0,0
-2.41150355577702E-05,1.05483950392227E-05,0.87890625,0,0
-2.25722578761633E-05,1.06454208435025E-05,0.87890625,0,0
-2.01723978534574E-05,9.85668339126278E-06,0.87890625,0,0
-2.13181083381642E-05,1.02555877674604E-05,0.87890625,0,0
-2.1368699890445E-05,8.99802489584545E-06,0.87890625,0,0
-2.17759643419413E-05,7.72457042330643E-06,0.87890625,0,0
-2.27438231377164E-05,6.82960717313108E-06,0.87890625,0,0
-2.3867689378676E-05,6.53260167382541E-06,0.87890625,0,0
-2.27516720769927E-05,7.49780201658723E-06,0.87890625,0,0
-2.23918123083422E-05,9.66399147728225E-06,0.87890625,0,0
-1.93488722288748E-05,8.85414010554086E-06,0.87890625,0,0
-2.77249546343228E-05,1.3363491234486E-05,0.87890625,0,0
-2.172275162593E-05,1.07354344436317E-05,0.87890625,0,0
-2.74019675998716E-05,1.25859714898979E-05,0.87890625,0,0
-2.45652900048299E-05,1.08658668978023E-05,0.87890625,0,0
-2.8427046345314E-05,1.26465856737923E-05,0.87890625,0,0
-2.57368701568339E-05,1.26918912428664E-05,0.87890625,0,0
-2.56127805187134E-05,1.35549553306191E-05,0.87890625,0,0
-2.5891216864693E-05,1.46138172567589E-05,0.87890625,0,0
-2.71954340860248E-05,1.76941848621937E-05,0.87890625,0,0
-2.79460473393556E-05,1.81661071110284E-05,0.87890625,0,0
-2.76482132903766E-05,1.41795826493762E-05,0.87890625,0,0
-2.93590310320724E-05,1.21990151455975E-05,0.87890625,0,0
-2.86795566353248E-05,1.3135967492417E-05,0.87890625,0,0
-2.9241266020108E-05,1.61565258167684E-05,0.87890625,0,0
-2.82876080746064E-05,1.68561291502556E-05,0.87890625,0,0
-2.94284873234574E-05,1.68165788636543E-05,0.87890625,0,0
-2.80487201962387E-05,1.62698579515563E-05,0.87890625,0,0
-2.85720834654057E-05,1.69828672369476E-05,0.87890625,0,0
-2.81928078038618E-05,1.49861498357495E-05,0.87890625,0,0
-2.97062415484106E-05,1.23117260955041E-05,0.87890625,0,0
-2.93145440082299E-05,1.08638314486598E-05,0.87890625,0,0
-2.89949730358785E-05,1.25238793771132E-05,0.87890625,0,0
-2.77267572528217E-05,1.38238901854493E-05,0.87890625,0,0
-2.74568610620918E-05,1.1104599252576E-05,0.87890625,0,0
-2.72277866315562E-05,4.88461046188604E-06,0.87890625,0,0
-2.60815941146575E-05,5.9217104109166E-08,0.87890625,0,0
-1.97525350813521E-05,-1.74988247181318E-06,0.87890625,0,0
-2.69963074970292E-05,-2.27103578254173E-06,0.87890625,0,0
-1.91109829756897E-05,1.5179824686129E-06,0.87890625,0,0
-2.46428680839017E-05,5.09751544086612E-06,0.87890625,0,0
-2.16585704038152E-05,7.95376581663731E-06,0.87890625,0,0
-2.53886810241966E-05,9.99569783743937E-06,0.87890625,0,0
-2.35569732467411E-05,1.23673262351076E-05,0.87890625,0,0
-2.37565582210664E-05,1.39992507683928E-05,0.87890625,0,0
-2.1448848201544E-05,1.24914004118182E-05,0.87890625,0,0
-2.08960482268594E-05,1.04051950984285E-05,0.87890625,0,0
-2.22745456994744E-05,1.11403696791967E-05,0.87890625,0,0
-2.2492897187476E-05,1.34248102767742E-05,0.87890625,0,0
-2.19594403461088E-05,1.47509517773869E-05,0.87890625,0,0
-1.87155201274436E-05,1.41675482154824E-05,0.87890625,0,0
-1.82601488631917E-05,1.25115921036922E-05,0.87890625,0,0
-1.71637966559501E-05,1.13686101030908E-05,0.87890625,0,0
-1.88982976396801E-05,1.10189002953121E-05,0.87890625,0,0
-1.77371912286617E-05,1.14360300358385E-05,0.87890625,0,0
-1.86283614311833E-05,1.1792849363701E-05,0.87890625,0,0
-1.85496846825117E-05,1.15544617074193E-05,0.87890625,0,0
-2.00897538888967E-05,1.10884266177891E-05,0.87890625,0,0
-2.01734401343856E-05,1.09578695628443E-05,0.87890625,0,0
-2.1805379219586E-05,1.28115334518952E-05,0.87890625,0,0
-2.35930456256028E-05,1.77469337359071E-05,0.87890625,0,0
-2.60691685980419E-05,2.23276056203758E-05,0.87890625,0,0
-2.57810916082235E-05,2.38657121371944E-05,0.87890625,0,0
-2.45146275119623E-05,2.38121810980374E-05,0.87890625,0,0
-2.05714750336483E-05,1.80526913027279E-05,0.87890625,0,0
-2.97322403639555E-05,2.44781949731987E-05,0.87890625,0,0
-2.22904454858508E-05,1.58805814862717E-05,0.87890625,0,0
-2.70514319709037E-05,1.81445811904268E-05,0.87890625,0,0
-2.41494908550521E-05,1.10870723801781E-05,0.87890625,0,0
-2.86850499833236E-05,9.92281457001809E-06,0.87890625,0,0
-2.74562080448959E-05,1.55931638801121E-06,0.87890625,0,0
-2.78579664154677E-05,-6.35160586170969E-06,0.87890625,0,0
-2.62730463873595E-05,-1.59261107910424E-05,0.87890625,0,0
-2.57299416261958E-05,-1.97766021301504E-05,0.87890625,0,0
-2.57653191511054E-05,-1.73775770235807E-05,0.87890625,0,0
-2.43091653828742E-05,-1.23769268611795E-05,0.87890625,0,0
-2.38488682953175E-05,-6.07555284659611E-06,0.87890625,0,0
-2.21515128941974E-05,-3.64952143172559E-06,0.87890625,0,0
-2.3849113858887E-05,-2.20422748498095E-06,0.87890625,0,0
-2.3826152755646E-05,-3.39395273840637E-06,0.87890625,0,0
-2.49352451646701E-05,-4.38817721715168E-07,0.87890625,0,0
-2.35339412029134E-05,9.37503045861376E-07,0.87890625,0,0
-2.41349389398238E-05,2.60668753071513E-06,0.87890625,0,0
-2.3462296667276E-05,2.25239296014479E-06,0.87890625,0,0
-2.51288256549742E-05,4.7905828068906E-06,0.87890625,0,0
-2.58637192018796E-05,7.13462668500142E-06,0.87890625,0,0
-2.66761599050369E-05,1.07698779174825E-05,0.87890625,0,0
-2.56686198554235E-05,1.22566634672694E-05,0.87890625,0,0
-2.53147009061649E-05,1.21865668916143E-05,0.87890625,0,0
-2.51174442382762E-05,1.03128968476085E-05,0.87890625,0,0
-2.53284106292995E-05,7.76129945734283E-06,0.87890625,0,0
-2.01600487343967E-05,3.43327042173769E-06,0.87890625,0,0
-2.75779711955693E-05,4.67975269202725E-06,0.87890625,0,0
-1.94256481336197E-05,6.4304072111554E-06,0.87890625,0,0
-2.43989397858968E-05,1.17943482109695E-05,0.87890625,0,0
-1.95276970771374E-05,1.30551743495744E-05,0.87890625,0,0
-2.16831595025724E-05,1.32708373712376E-05,0.87890625,0,0
-1.93034939002246E-05,1.18731795737403E-05,0.87890625,0,0
-2.01858401851496E-05,1.2053318641847E-05,0.87890625,0,0
-1.94864223885816E-05,1.13751457320177E-05,0.87890625,0,0
-1.91962735698326E-05,1.03091615528683E-05,0.87890625,0,0
-1.92826810234692E-05,1.01062551038922E-05,0.87890625,0,0
-1.96635955944657E-05,1.06816632978735E-05,0.87890625,0,0
-2.24490413529566E-05,1.26102722788346E-05,0.87890625,0,0
-2.32675010920502E-05,1.55748894030694E-05,0.87890625,0,0
-2.50831672019558E-05,1.70501316461014E-05,0.87890625,0,0
-2.42888145294273E-05,1.46767324622488E-05,0.87890625,0,0
-2.65949947788613E-05,1.27235416584881E-05,0.87890625,0,0
-2.63105430349242E-05,1.30640846691676E-05,0.87890625,0,0
-2.64905502262991E-05,1.55909474415239E-05,0.87890625,0,0
-2.47534244408598E-05,1.73059725057101E-05,0.87890625,0,0
-2.57083174801664E-05,1.98631005332572E-05,0.87890625,0,0
-2.54700789810158E-05,2.35211518884171E-05,0.87890625,0,0
-2.53975795203587E-05,2.5710267436807E-05,0.87890625,0,0
-2.47884563577827E-05,2.4444601876894E-05,0.87890625,0,0
-2.56590992648853E-05,2.28375447477447E-05,0.87890625,0,0
-2.57777082879329E-05,2.0341887648101E-05,0.87890625,0,0
-2.61565237451578E-05,1.77370166056789E-05,0.87890625,0,0
-2.13754537981004E-05,1.34557458295603E-05,0.87890625,0,0
-3.02507760352455E-05,2.01023558474844E-05,0.87890625,0,0
-2.30904697673395E-05,1.59133323904825E-05,1.7578125,0,0
-2.84982761513675E-05,1.74250235431828E-05,1.7578125,0,0
-2.35692932619713E-05,1.28574029076844E-05,1.7578125,0,0
-2.55555951298447E-05,1.49411507663899E-05,1.7578125,0,0
-2.10619018616853E-05,1.46033289638581E-05,1.7578125,0,0
-1.96347627934301E-05,1.52869397425093E-05,1.7578125,0,0
-1.63038257596781E-05,1.2743566003337E-05,1.7578125,0,0
-1.37909464683617E-05,1.13096339191543E-05,1.7578125,0,0
-1.13781443360494E-05,1.08782614915981E-05,1.7578125,0,0
-9.59857788984664E-06,1.0168728294957E-05,1.7578125,0,0
-1.03996962934616E-05,1.06194747786503E-05,1.7578125,0,0
-9.76337469182909E-06,1.0271993232891E-05,1.7578125,0,0
-1.25498727356899E-05,1.14048498289776E-05,1.7578125,0,0
-1.39068461066927E-05,1.09907805381226E-05,1.7578125,0,0
-1.72618383658119E-05,1.1712694686139E-05,1.7578125,0,0
-1.72009240486659E-05,1.0609164746711E-05,1.7578125,0,0
-1.84815089596668E-05,1.13710812001955E-05,1.7578125,0,0
-1.69855411513709E-05,1.10395230876748E-05,1.7578125,0,0
-1.70429593708832E-05,1.07399764601723E-05,1.7578125,0,0
-1.66948811965995E-05,9.96349081106018E-06,1.7578125,0,0
-1.95560805877903E-05,1.25575643323828E-05,1.7578125,0,0
-2.28731951210648E-05,1.57112044689711E-05,1.7578125,0,0
-2.68368821707554E-05,1.72308282344602E-05,1.7578125,0,0
-2.75699767371407E-05,1.69633403857006E-05,1.7578125,0,0
-2.5810784791247E-05,1.78077552845934E-05,1.7578125,0,0
-1.97522349481005E-05,1.51156491483562E-05,1.7578125,0,0
-2.77860854112078E-05,2.09500358323567E-05,1.7578125,0,0
-2.2406375137507E-05,1.56126170622883E-05,1.7578125,0,0
-3.03285632980987E-05,1.96516321011586E-05,1.7578125,0,0
-2.69355005002581E-05,1.4791515241086E-05,1.7578125,0,0
-2.96541475108825E-05,1.46229040183243E-05,1.7578125,0,0
-2.89871386485174E-05,1.21140610644943E-05,1.7578125,0,0
-3.2924726838246E-05,1.25251963254414E-05,1.7578125,0,0
-3.41134473273996E-05,1.16588653327199E-05,1.7578125,0,0
-3.3437623642385E-05,1.10801756818546E-05,1.7578125,0,0
-3.28899877786171E-05,9.49973036767915E-06,1.7578125,0,0
-3.17644662573002E-05,6.94848540661042E-06,1.7578125,0,0
-3.23552958434448E-05,6.32931732980069E-06,1.7578125,0,0
-3.15886754833627E-05,5.52405299458769E-06,1.7578125,0,0
-3.25317632814404E-05,6.88679529048386E-06,1.7578125,0,0
-3.05173107335577E-05,7.29769317331375E-06,1.7578125,0,0
-3.07410045934375E-05,1.06225597846787E-05,1.7578125,0,0
-2.92609911412001E-05,1.17392391985049E-05,1.7578125,0,0
-2.99156072287587E-05,1.13987680379068E-05,1.7578125,0,0
-2.9535083740484E-05,8.58834937389474E-06,1.7578125,0,0
-3.0907460313756E-05,9.60479610512266E-06,1.7578125,0,0
-2.99313032883219E-05,1.15032662506565E-05,1.7578125,0,0
-2.89394683932187E-05,1.31715551106026E-05,1.7578125,0,0
-2.69855063379509E-05,1.17460967885563E-05,1.7578125,0,0
-2.47500047407812E-05,1.01172881841194E-05,1.7578125,0,0
-2.29721626965329E-05,1.14378017315175E-05,1.7578125,0,0
-2.32651527767302E-05,1.37535207613837E-05,1.7578125,0,0
-1.97588087758049E-05,1.09142301880638E-05,1.7578125,0,0
-2.73831628874177E-05,1.53276196215302E-05,1.7578125,0,0
-1.95657266885974E-05,1.06171528386767E-05,1.7578125,0,0
-2.47728639806155E-05,1.2279079783184E-05,1.7578125,0,0
-2.05940577870933E-05,8.82881522557E-06,1.7578125,0,0
-2.23766928684199E-05,9.71465669863392E-06,1.7578125,0,0
-1.97987446881598E-05,9.25620406633243E-06,1.7578125,0,0
-1.99689147848403E-05,1.04180580819957E-05,1.7578125,0,0
-1.84785749297589E-05,1.05832423287211E-05,1.7578125,0,0
-1.8293740140507E-05,1.04726568679325E-05,1.7578125,0,0
-1.87278419616632E-05,1.07460455183173E-05,1.7578125,0,0
-1.76744997588685E-05,1.05967537820106E-05,1.7578125,0,0
-1.77753863681573E-05,1.17159706860548E-05,1.7578125,0,0
-1.57375070557464E-05,1.22116889542667E-05,1.7578125,0,0
-1.54292974912096E-05,1.35847085402929E-05,1.7578125,0,0
-1.41705677378923E-05,1.26241948237293E-05,1.7578125,0,0
-1.61801963258768E-05,1.11022272903938E-05,1.7578125,0,0
-1.54014323925367E-05,7.64900414651493E-06,1.7578125,0,0
-1.57241502165562E-05,5.95599703956395E-06,1.7578125,0,0
-1.59949140652316E-05,5.11126017954666E-06,1.7578125,0,0
-1.88414069270948E-05,5.68696304981131E-06,1.7578125,0,0
-1.9567582057789E-05,5.51280299987411E-06,1.7578125,0,0
-2.03031213459326E-05,5.23176458955277E-06,1.7578125,0,0
-1.89195325219771E-05,4.56510861113202E-06,1.7578125,0,0
-1.84181390068261E-05,4.90076627102098E-06,1.7578125,0,0
-1.92259158211527E-05,5.91331172472565E-06,1.7578125,0,0
-2.02159280888736E-05,7.60985676606651E-06,1.7578125,0,0
-1.77200636244379E-05,7.49684431866626E-06,1.7578125,0,0
-2.68453186436091E-05,9.97658753476571E-06,1.7578125,0,0
-2.29412835324183E-05,7.67322217143374E-06,1.7578125,0,0
-2.76790997304488E-05,1.08217609522399E-05,1.7578125,0,0
-2.38420070672873E-05,9.18094156077132E-06,1.7578125,0,0
-2.70737364189699E-05,1.01622090369347E-05,1.7578125,0,0
-2.67300783889368E-05,8.82879521668656E-06,1.7578125,0,0
-2.76433929684572E-05,7.77900550019694E-06,1.7578125,0,0
-2.53271628025686E-05,5.91356683798949E-06,1.7578125,0,0
-2.37098956858972E-05,4.36832624473027E-06,1.7578125,0,0
-2.45358933170792E-05,3.88088801628328E-06,1.7578125,0,0
-2.5176514100167E-05,3.61611068910861E-06,1.7578125,0,0
-2.61923159996513E-05,4.43045519205043E-06,1.7578125,0,0
-2.51412348006852E-05,4.9883915380633E-06,1.7578125,0,0
-2.65312974079279E-05,7.39113920644741E-06,1.7578125,0,0
-2.63332040049136E-05,1.05275576061103E-05,1.7578125,0,0
-2.72412053163862E-05,1.44761097544688E-05,1.7578125,0,0
-2.58776290138485E-05,1.60295767273055E-05,1.7578125,0,0
-2.60099659499247E-05,1.68122551258421E-05,1.7578125,0,0
-2.45441169681726E-05,1.54172939801356E-05,1.7578125,0,0
-2.56549301411724E-05,1.41092859848868E-05,1.7578125,0,0
-2.72507277259137E-05,1.37291899591219E-05,1.7578125,0,0
-2.88004594040103E-05,1.47588798427023E-05,1.7578125,0,0
-2.8334394301055E-05,1.62691048899433E-05,1.7578125,0,0
-2.7448360924609E-05,1.83649972314015E-05,1.7578125,0,0
-2.63791989709716E-05,1.98900015675463E-05,1.7578125,0,0
-2.61443892668467E-05,2.12141530937515E-05,1.7578125,0,0
-2.08263954846188E-05,1.68621736520436E-05,1.7578125,0,0
-2.97444421448745E-05,2.12534723686986E-05,1.7578125,0,0
-2.18650147871813E-05,8.5679093899671E-06,1.7578125,0,0
-2.57093288382748E-05,6.652738647972E-06,1.7578125,0,0
-2.06672048079781E-05,2.88315561647323E-07,1.7578125,0,0
-2.36986470554257E-05,2.55968501505777E-07,1.7578125,0,0
-2.05089436349226E-05,-7.25910422261222E-06,1.7578125,0,0
-1.93437736015767E-05,-1.16644259833265E-05,1.7578125,0,0
-1.78330192284193E-05,-1.23339841593406E-05,1.7578125,0,0
-1.74763936229283E-05,-8.51634922582889E-06,1.7578125,0,0
-1.65128367370926E-05,-3.19398486681166E-06,1.7578125,0,0
-1.55126781464787E-05,2.44798616222397E-06,1.7578125,0,0
-1.67003090609796E-05,8.94477398105664E-06,1.7578125,0,0
-1.56759160745423E-05,1.25539390865015E-05,1.7578125,0,0
-1.55149937199894E-05,1.45829808388953E-05,1.7578125,0,0
-1.27959456222015E-05,1.08281110442476E-05,1.7578125,0,0
-1.26120294225984E-05,8.18279477243777E-06,1.7578125,0,0
-1.1272916708549E-05,6.14667624176946E-06,1.7578125,0,0
-1.27695448099985E-05,7.95091364125256E-06,1.7578125,0,0
-1.2224942111061E-05,8.92169828148326E-06,1.7578125,0,0
-1.33360426843865E-05,1.0896151252382E-05,1.7578125,0,0
-1.41198679557419E-05,1.14219119495829E-05,1.7578125,0,0
-1.73232656379696E-05,1.33088160509942E-05,1.7578125,0,0
-1.86725628736895E-05,1.31584083646885E-05,1.7578125,0,0
-1.90356295206584E-05,1.26418881336576E-05,1.7578125,0,0
-1.8996412109118E-05,1.22754045150941E-05,1.7578125,0,0
-1.96486107597593E-05,1.23496110973065E-05,1.7578125,0,0
-1.82653147930978E-05,1.05068847915391E-05,1.7578125,0,0
-2.77483231911901E-05,1.42183371281135E-05,1.7578125,0,0
-2.30935547733679E-05,1.09339134723996E-05,1.7578125,0,0
-2.76147675322136E-05,1.64240209414857E-05,1.7578125,0,0
-2.52929876296548E-05,1.69183713296661E-05,1.7578125,0,0
-3.02447115245741E-05,1.8522636310081E-05,1.7578125,0,0
-2.99488492601085E-05,1.6702037100913E-05,1.7578125,0,0
-2.91954183921916E-05,1.63828372024E-05,1.7578125,0,0
-2.62826251855586E-05,1.29444606500329E-05,1.7578125,0,0
-2.53413836617256E-05,9.50154935708269E-06,1.7578125,0,0
-2.57212795986561E-05,9.31793420022586E-06,1.7578125,0,0
-2.57918509305455E-05,1.15039592856192E-05,1.7578125,0,0
-2.66680563072441E-05,1.50164360093186E-05,1.7578125,0,0
-2.59534426731989E-05,1.630744918657E-05,1.7578125,0,0
-2.76112768915482E-05,1.71904212038498E-05,1.7578125,0,0
-2.73673467745539E-05,1.58905750140548E-05,1.7578125,0,0
-2.82844539469806E-05,1.68865099112736E-05,1.7578125,0,0
-2.72586130449781E-05,1.84168384294026E-05,1.7578125,0,0
-2.83636964013567E-05,2.07426382985432E-05,1.7578125,0,0
-2.85238747892436E-05,1.97552017198177E-05,1.7578125,0,0
-3.0046358006075E-05,1.79925955308136E-05,1.7578125,0,0
-3.02225307677872E-05,1.64961238624528E-05,1.7578125,0,0
-3.23721651511732E-05,1.70593411894515E-05,1.7578125,0,0
-3.26063527609222E-05,1.88021513167769E-05,1.7578125,0,0
-3.15765719278716E-05,2.01668208319461E-05,1.7578125,0,0
-3.19259270327166E-05,1.67986363521777E-05,1.7578125,0,0
-3.27274137816858E-05,1.27146759041352E-05,1.7578125,0,0
-2.62625108007342E-05,1.04941864265129E-05,1.7578125,0,0
-3.56513373844791E-05,1.5415051166201E-05,1.7578125,0,0
-2.58467371168081E-05,1.08666999949492E-05,1.7578125,0,0
-3.41547456628177E-05,1.24726457215729E-05,1.7578125,0,0
-2.92654767690692E-05,9.98333416646346E-06,1.7578125,0,0
-3.34008618665393E-05,8.92571461008629E-06,1.7578125,0,0
-3.08404014504049E-05,5.99386657995638E-06,1.7578125,0,0
-3.21900479320902E-05,5.34789705852745E-06,1.7578125,0,0
-3.02581756841391E-05,4.6692357500433E-06,1.7578125,0,0
-2.92151380563155E-05,5.613267148874E-06,1.7578125,0,0
-2.83085410046624E-05,6.85398390487535E-06,1.7578125,0,0
-2.71632252406562E-05,7.29955763745238E-06,1.7578125,0,0
-2.91406195174204E-05,9.07374123926274E-06,1.7578125,0,0
-2.81670945696533E-05,1.01388986877282E-05,1.7578125,0,0
-2.8813128665206E-05,1.06976340248366E-05,1.7578125,0,0
-2.59917433140799E-05,9.13706480787368E-06,1.7578125,0,0
-2.70903747150442E-05,7.94517472968437E-06,1.7578125,0,0
-2.63776164501905E-05,6.58149838272948E-06,1.7578125,0,0
-2.86844533547992E-05,6.15958424532437E-06,1.7578125,0,0
-2.76421305898111E-05,4.26156248067855E-06,1.7578125,0,0
-2.75822421826888E-05,4.19177877120092E-06,1.7578125,0,0
-2.46879098995123E-05,4.70232271254645E-06,1.7578125,0,0
-2.31283611356048E-05,6.21323761151871E-06,1.7578125,0,0
-2.18982095248066E-05,7.94507013779366E-06,1.7578125,0,0
-2.30158857448259E-05,1.06229781522416E-05,1.7578125,0,0
-2.33415012189653E-05,1.27464654724463E-05,1.7578125,0,0
-2.32645361393224E-05,1.33454414026346E-05,1.7578125,0,0
-1.97771132661728E-05,1.04891523733386E-05,1.7578125,0,0
-2.92069926217664E-05,1.35784812300699E-05,1.7578125,0,0
-2.32661150221247E-05,8.69689210958313E-06,1.7578125,0,0
-2.76358514383901E-05,1.12542165879859E-05,1.7578125,0,0
-2.31266949413111E-05,8.93118340172805E-06,1.7578125,0,0
-2.45769260800444E-05,1.13697597043938E-05,1.7578125,0,0
-2.19649209611816E-05,1.14768054118031E-05,1.7578125,0,0
-2.3103115381673E-05,1.21042185128317E-05,1.7578125,0,0
-2.28804674407002E-05,1.01001141956658E-05,1.7578125,0,0
-2.31232079386245E-05,8.65591937326826E-06,1.7578125,0,0
-2.2241796614253E-05,9.68057884165319E-06,1.7578125,0,0
-2.06116455956362E-05,1.08799922600156E-05,1.7578125,0,0
-2.21794089156901E-05,1.09212251118151E-05,1.7578125,0,0
-2.31000267376658E-05,9.07118555915076E-06,1.7578125,0,0
-2.53157577390084E-05,9.69585744314827E-06,1.7578125,0,0
-2.41224934143247E-05,9.94459333014674E-06,1.7578125,0,0
-2.39885976043297E-05,1.0846703844436E-05,1.7578125,0,0
-2.17008455365431E-05,8.83886150404578E-06,1.7578125,0,0
-2.2489466573461E-05,7.09663163434016E-06,1.7578125,0,0
-2.33243099501124E-05,5.7305383052153E-06,1.7578125,0,0
-2.61652039625915E-05,6.4756277424749E-06,1.7578125,0,0
-2.61011064139893E-05,6.50726224193932E-06,1.7578125,0,0
-2.55050053965533E-05,6.87583133185399E-06,1.7578125,0,0
-2.43192771449685E-05,7.77093919168692E-06,1.7578125,0,0
-2.40109911828768E-05,1.0246854799334E-05,1.7578125,0,0
-2.41109537455486E-05,1.19439282570966E-05,1.7578125,0,0
-2.52174268098315E-05,1.18744601422804E-05,1.7578125,0,0
-2.07011689781211E-05,7.9075898611336E-06,1.7578125,0,0
-2.756531284831E-05,1.10835562736611E-05,1.7578125,0,0
-1.70975217770319E-05,8.87635542312637E-06,1.7578125,0,0
-2.02579285542015E-05,1.24625839816872E-05,1.7578125,0,0
-1.50040077642188E-05,1.29777690744959E-05,1.7578125,0,0
-1.73057705978863E-05,1.41150658237166E-05,1.7578125,0,0
-1.36226917675231E-05,1.18180505523924E-05,1.7578125,0,0
-1.2088621588191E-05,1.21707016660366E-05,1.7578125,0,0
-9.26025222725002E-06,1.21853463497246E-05,1.7578125,0,0
-9.38212360779289E-06,1.21730008686427E-05,1.7578125,0,0
-1.01910991361365E-05,1.08258773252601E-05,1.7578125,0,0
-8.99780843610642E-06,8.62147226143861E-06,1.7578125,0,0
-9.24071810004534E-06,7.49043829273432E-06,1.7578125,0,0
-8.14783470559632E-06,6.77442267260631E-06,1.7578125,0,0
-1.02616168078384E-05,6.58496674077469E-06,1.7578125,0,0
-1.1255600838922E-05,4.48252194473753E-06,1.7578125,0,0
-1.45953526953235E-05,3.4311740364501E-06,1.7578125,0,0
-1.4712059055455E-05,3.66277799912496E-06,1.7578125,0,0
-1.63896966114407E-05,7.0575883910351E-06,1.7578125,0,0
-1.66580357472412E-05,9.64551327342633E-06,1.7578125,0,0
-1.92852985492209E-05,1.14835956992465E-05,1.7578125,0,0
-2.14279316423927E-05,1.15590255518327E-05,1.7578125,0,0
-2.37050244322745E-05,1.1980858289462E-05,1.7578125,0,0
-2.29907818720676E-05,1.29011950775748E-05,1.7578125,0,0
-2.19245357584441E-05,1.31073620650568E-05,1.7578125,0,0
-2.12090071727289E-05,1.17112995212665E-05,1.7578125,0,0
-2.19462017412297E-05,1.17546251203748E-05,1.7578125,0,0
-1.95013853954151E-05,8.31010402180254E-06,1.7578125,0,0
-2.94804194709286E-05,1.1011697097274E-05,1.7578125,0,0
-2.32902475545416E-05,8.10712299426086E-06,1.7578125,0,0
-2.68339317699429E-05,1.22549254228943E-05,1.7578125,0,0
-2.42187215917511E-05,1.22097389976261E-05,1.7578125,0,0
-2.89523050014395E-05,1.54840072355E-05,1.7578125,0,0
-2.87865241261898E-05,1.71177543961676E-05,1.7578125,0,0
-3.01811323879519E-05,1.82426138053415E-05,1.7578125,0,0
-2.91689193545608E-05,1.74734504980734E-05,1.7578125,0,0
-2.84957513940753E-05,1.89859874808462E-05,1.7578125,0,0
-2.83215576928342E-05,2.19054454646539E-05,1.7578125,0,0
-2.80215517705074E-05,2.27204691327643E-05,2.8125,0,0
-2.95813169941539E-05,2.21488080569543E-05,2.8125,0,0
-2.9379782063188E-05,1.93533051060513E-05,2.8125,0,0
-3.0205788789317E-05,1.77949805220123E-05,2.8125,0,0
-2.8310914785834E-05,1.60422805492999E-05,2.8125,0,0
-2.83628633042099E-05,1.47319569805404E-05,2.8125,0,0
-2.69375650532311E-05,1.12965617518057E-05,2.8125,0,0
-2.7268506528344E-05,8.92059779289411E-06,2.8125,0,0
-2.6395202439744E-05,6.52056041872129E-06,2.8125,0,0
-2.81804113910766E-05,4.20326477978961E-06,2.8125,0,0
-2.8446018404793E-05,1.16590717880172E-06,2.8125,0,0
-2.83743738691555E-05,-1.82343353571923E-06,2.8125,0,0
-2.71868593699764E-05,-5.30680972588016E-06,2.8125,0,0
-2.6977037123288E-05,-5.73053921471001E-06,2.8125,0,0
-2.6721361791715E-05,-2.15908539757947E-06,2.8125,0,0
-2.57330921158427E-05,3.743556817426E-06,2.8125,0,0
-2.13776856980985E-05,9.54170991462888E-06,2.8125,0,0
-3.09039205603767E-05,1.61613279487938E-05,2.8125,0,0
-2.31651101785246E-05,1.27669818539289E-05,2.8125,0,0
-2.79197083727922E-05,1.39963703986723E-05,2.8125,0,0
-2.45876526605571E-05,1.49131128637237E-05,2.8125,0,0
-2.92591175821144E-05,1.45961321322829E-05,2.8125,0,0
-2.83361641777446E-05,1.04029604699463E-05,2.8125,0,0
-2.89106283162255E-05,9.33411956793861E-06,2.8125,0,0
-2.71343324129703E-05,1.03904858406167E-05,2.8125,0,0
-2.69744123215787E-05,1.17519130071742E-05,2.8125,0,0
-2.82086657534819E-05,1.09205557237146E-05,2.8125,0,0
-2.9832643122063E-05,9.67824144026963E-06,2.8125,0,0
-3.20319522870705E-05,1.04373566500726E-05,2.8125,0,0
-3.02395510516362E-05,1.01548912425642E-05,2.8125,0,0
-3.01006402878556E-05,8.59739157021977E-06,2.8125,0,0
-2.83247645711526E-05,5.37519099452766E-06,2.8125,0,0
-2.83442186628236E-05,3.32759964294382E-06,2.8125,0,0
-2.565728573245E-05,1.66163681569742E-06,2.8125,0,0
-2.58641648542834E-05,2.49759546022688E-06,2.8125,0,0
-2.58427589869825E-05,4.94072992296424E-06,2.8125,0,0
-2.81028333120048E-05,9.03984437172767E-06,2.8125,0,0
-2.73343466687948E-05,1.1383028322598E-05,2.8125,0,0
-2.61409004451707E-05,1.2202975085529E-05,2.8125,0,0
-2.44507937168237E-05,1.17118215712253E-05,2.8125,0,0
-2.47253537963843E-05,1.2202965990582E-05,2.8125,0,0
-2.50853736361023E-05,1.31336264530546E-05,2.8125,0,0
-2.44636212300975E-05,1.18611860671081E-05,2.8125,0,0
-1.82553085323889E-05,8.57867962622549E-06,2.8125,0,0
-2.42099958995823E-05,1.21894463518402E-05,2.8125,0,0
-1.5901443475741E-05,8.02883732831106E-06,2.8125,0,0
-2.00812428374775E-05,7.36868105377653E-06,2.8125,0,0
-1.67361104104202E-05,3.9621568248549E-06,2.8125,0,0
-1.97627887246199E-05,4.86789122078335E-06,2.8125,0,0
-1.75217810465256E-05,3.90485183743294E-06,2.8125,0,0
-1.85614153451752E-05,4.71059183837497E-06,2.8125,0,0
-1.71807478182018E-05,3.95405731978826E-06,2.8125,0,0
-1.65067413036013E-05,3.36672042067221E-06,2.8125,0,0
-1.73681237356504E-05,2.95299764729862E-06,2.8125,0,0
-1.84537893801462E-05,3.30618581756426E-06,2.8125,0,0
-2.03050985874143E-05,6.59849911244237E-06,2.8125,0,0
-1.93601917999331E-05,9.36554715735838E-06,2.8125,0,0
-2.08628771360964E-05,1.19044725579442E-05,2.8125,0,0
-2.17857377720065E-05,1.31066917674616E-05,2.8125,0,0
-2.44419079535874E-05,1.55036741489312E-05,2.8125,0,0
-2.4146353098331E-05,1.64497705554822E-05,2.8125,0,0
-2.57613337453222E-05,1.67322923516622E-05,2.8125,0,0
-2.58359541476239E-05,1.38815385071211E-05,2.8125,0,0
-2.66515980911208E-05,1.15855118565378E-05,2.8125,0,0
-2.44338098127628E-05,1.11261870188173E-05,2.8125,0,0
-2.35501938732341E-05,1.19966589409159E-05,2.8125,0,0
-2.36473242694046E-05,1.03900447356864E-05,2.8125,0,0
-2.36688320001122E-05,7.39424694984336E-06,2.8125,0,0
-2.23151237150887E-05,6.27857662038878E-06,2.8125,0,0
-2.22848320845515E-05,7.92561331763864E-06,2.8125,0,0
-1.88078411156312E-05,9.40370500757126E-06,2.8125,0,0
-2.65527196461335E-05,1.57087124534883E-05,2.8125,0,0
-2.06904205697356E-05,1.48896524478914E-05,2.8125,0,0
-2.5795725377975E-05,1.88168760359986E-05,2.8125,0,0
-2.12217491935007E-05,1.97405061044265E-05,2.8125,0,0
-2.33316477533663E-05,2.22132930502994E-05,2.8125,0,0
-2.16364078369224E-05,1.97830177057767E-05,2.8125,0,0
-2.35477855312638E-05,1.59645642270334E-05,2.8125,0,0
-2.26038246182725E-05,1.26725472000544E-05,2.8125,0,0
-2.11991373362252E-05,1.19644200822222E-05,2.8125,0,0
-2.00893373403233E-05,1.15962629934074E-05,2.8125,0,0
-1.95740030903835E-05,8.77948787092464E-06,2.8125,0,0
-2.15792260860326E-05,4.30795216743718E-06,2.8125,0,0
-2.08448727789801E-05,-8.34834111174132E-07,2.8125,0,0
-2.10070957109565E-05,-9.36681828989094E-07,2.8125,0,0
-1.91236522368854E-05,3.52260872205079E-06,2.8125,0,0
-2.10813832381973E-05,9.91928573057521E-06,2.8125,0,0
-2.29501838475699E-05,1.24523976410273E-05,2.8125,0,0
-2.6605843231664E-05,1.31586975840037E-05,2.8125,0,0
-2.63846704910975E-05,1.31195401991135E-05,2.8125,0,0
-2.57892461377196E-05,1.40395859489217E-05,2.8125,0,0
-2.33176851907047E-05,1.37220977194374E-05,2.8125,0,0
-2.28232966037467E-05,1.27122466437868E-05,2.8125,0,0
-2.42721689573955E-05,1.28746560221771E-05,2.8125,0,0
-2.84281486528926E-05,1.53273795149289E-05,2.8125,0,0
-3.33962416334543E-05,1.52155043906532E-05,2.8125,0,0
-3.72462600353174E-05,1.44012292366824E-05,2.8125,0,0
-2.95254449156346E-05,1.37428205562173E-05,2.8125,0,0
-4.06976578233298E-05,1.87610858120024E-05,2.8125,0,0
-2.80510630545905E-05,1.13444739326951E-05,2.8125,0,0
-3.36417615471873E-05,1.24802027130499E-05,2.8125,0,0
-2.59538628597511E-05,1.00713568826905E-05,2.8125,0,0
-2.85353544313693E-05,1.2312568287598E-05,2.8125,0,0
-2.40262761508347E-05,1.01540736068273E-05,2.8125,0,0
-2.51211858994793E-05,1.0819760063896E-05,2.8125,0,0
-2.2700116460328E-05,1.05486951724743E-05,2.8125,0,0
-2.07571574719623E-05,1.10931532617542E-05,2.8125,0,0
-1.81062841875246E-05,1.10519295049016E-05,2.8125,0,0
-1.35057107399916E-05,9.90198259387398E-06,2.8125,0,0
-1.14434387796791E-05,1.07422793007572E-05,2.8125,0,0
-7.92738592281239E-06,1.13025571408798E-05,2.8125,0,0
-8.61918942973716E-06,1.21732919069473E-05,2.8125,0,0
-8.0168056229013E-06,1.05370845631114E-05,2.8125,0,0
-1.19061805889942E-05,1.08363947219914E-05,2.8125,0,0
-1.15924403871759E-05,9.44682869885582E-06,2.8125,0,0
-1.29709651446319E-05,9.49588411458535E-06,2.8125,0,0
-1.19447322504129E-05,1.03481233963976E-05,2.8125,0,0
-1.45840876939474E-05,1.34920655909809E-05,2.8125,0,0
-1.62776632350869E-05,1.42074404720915E-05,2.8125,0,0
-2.01738712348742E-05,1.45863141369773E-05,2.8125,0,0
-2.23283714149147E-05,1.39989724630141E-05,2.8125,0,0
-2.45608334807912E-05,1.30188882394577E-05,2.8125,0,0
-2.49429303949E-05,1.12643328975537E-05,2.8125,0,0
-2.4404282157775E-05,1.03036918517319E-05,2.8125,0,0
-1.91007693501888E-05,8.87810165295377E-06,2.8125,0,0
-2.65257658611517E-05,1.37329034259892E-05,2.8125,0,0
-2.00511858565733E-05,1.12069974420592E-05,2.8125,0,0
-2.62246576312464E-05,1.25786009448348E-05,2.8125,0,0
-2.28094268095447E-05,1.05609133242979E-05,2.8125,0,0
-2.44036655203672E-05,1.09434404294007E-05,2.8125,0,0
-2.16977005038643E-05,9.26275788515341E-06,2.8125,0,0
-2.16334501601523E-05,9.95699065242661E-06,2.8125,0,0
-1.84865821211133E-05,1.12463867480983E-05,2.8125,0,0
-1.66821246239124E-05,1.13426549432916E-05,2.8125,0,0
-1.70471339515643E-05,9.5917348517105E-06,2.8125,0,0
-1.77494148374535E-05,7.06921991877607E-06,2.8125,0,0
-2.00357935682405E-05,5.93755976296961E-06,2.8125,0,0
-2.00814811250893E-05,5.56750046598609E-06,2.8125,0,0
-2.25612257054308E-05,6.93665106155095E-06,2.8125,0,0
-2.3679622245254E-05,7.14832367521012E-06,2.8125,0,0
-2.57927822531201E-05,8.83246320881881E-06,2.8125,0,0
-2.50696630246239E-05,1.05250555861858E-05,2.8125,0,0
-2.70627624558983E-05,1.28890496853273E-05,2.8125,0,0
-2.73686328000622E-05,1.47964201460127E-05,2.8125,0,0
-2.82031542155892E-05,1.67170182976406E-05,2.8125,0,0
-2.71119752142113E-05,1.65687797561986E-05,2.8125,0,0
-2.72247980319662E-05,1.58804232341936E-05,2.8125,0,0
-2.71520657406654E-05,1.45691565194284E-05,2.8125,0,0
-2.8121283321525E-05,1.37323440867476E-05,2.8125,0,0
-2.91950254904805E-05,1.3110667168803E-05,2.8125,0,0
-2.88806495518656E-05,1.39483227030723E-05,2.8125,0,0
-2.24693267227849E-05,1.16934825200588E-05,2.8125,0,0
-3.2056628697319E-05,1.46850925375475E-05,2.8125,0,0
-2.59232492680894E-05,8.28740030556219E-06,2.8125,0,0
-3.36044904543087E-05,1.1778125553974E-05,2.8125,0,0
-2.85934038402047E-05,9.96346261672443E-06,2.8125,0,0
-2.98048853437649E-05,1.01318128145067E-05,2.8125,0,0
-2.69886641035555E-05,6.38238680039649E-06,2.8125,0,0
-2.8632228350034E-05,6.06170760875102E-06,2.8125,0,0
-2.69871052296367E-05,7.43472855901928E-06,2.8125,0,0
-2.69041975116124E-05,1.22206056403229E-05,2.8125,0,0
-2.68581861746497E-05,1.57613631017739E-05,2.8125,0,0
-2.59831249422859E-05,1.54838598973583E-05,2.8125,0,0
-2.80029798886972E-05,1.42282851811615E-05,2.8125,0,0
-2.78899788099807E-05,1.20828872240963E-05,2.8125,0,0
-2.88864048343385E-05,1.23982217701268E-05,2.8125,0,0
-2.6666766643757E-05,1.17104627861409E-05,2.8125,0,0
-2.80934327747673E-05,1.12816096589086E-05,2.8125,0,0
-2.80769218079513E-05,8.86259022081504E-06,2.8125,0,0
-2.86443064396735E-05,9.19401099963579E-06,2.8125,0,0
-2.52733734669164E-05,9.53383187152212E-06,2.8125,0,0
-2.52401823672699E-05,1.10772843981977E-05,2.8125,0,0
-2.54760652751429E-05,1.19335372801288E-05,2.8125,0,0
-2.69260744971689E-05,1.23073377835681E-05,2.8125,0,0
-2.67759241978638E-05,1.17312920338009E-05,2.8125,0,0
-2.65577673417283E-05,1.17793078970863E-05,2.8125,0,0
-2.63760848611128E-05,1.05439103208482E-05,2.8125,0,0
-2.64354766841279E-05,8.78173887031153E-06,2.8125,0,0
-2.07146385946544E-05,5.05966318087303E-06,2.8125,0,0
-2.92628774332115E-05,6.35017750028055E-06,2.8125,0,0
-2.27528689720202E-05,5.84968665862107E-06,2.8125,0,0
-2.9219900170574E-05,9.84019152383553E-06,2.8125,0,0
-2.55233062489424E-05,1.0531373845879E-05,2.8125,0,0
-2.74998856184538E-05,1.29685777210398E-05,2.8125,0,0
-2.29137949645519E-05,1.37664355861489E-05,2.8125,0,0
-2.28746866923757E-05,1.53481159941293E-05,2.8125,0,0
-2.33726495935116E-05,1.4504181308439E-05,2.8125,0,0
-2.54107580985874E-05,1.20264530778513E-05,2.8125,0,0
-2.63000492850551E-05,9.11462484509684E-06,2.8125,0,0
-2.4191878765123E-05,6.93757510816795E-06,2.8125,0,0
-2.36108007811708E-05,7.35949242880451E-06,2.8125,0,0
-2.22535181819694E-05,9.33269075176213E-06,2.8125,0,0
-2.40897334151668E-05,1.08628946691169E-05,2.8125,0,0
-2.40412045968696E-05,8.38850974105299E-06,2.8125,0,0
-2.6778512619785E-05,5.25075574842049E-06,2.8125,0,0
-2.8309161280049E-05,1.96159226106829E-06,2.8125,0,0
-3.0114493711153E-05,-4.95210201734153E-07,2.8125,0,0
-2.69655101874378E-05,-3.11122130369768E-06,2.8125,0,0
-2.61972199950833E-05,-2.3887275801826E-06,2.8125,0,0
-2.68827952822903E-05,3.99283322849442E-07,2.8125,0,0
-2.8683316486422E-05,3.41296208716813E-06,2.8125,0,0
-2.74499871011358E-05,6.33931767879403E-06,2.8125,0,0
-2.67091490968596E-05,9.76789033302339E-06,2.8125,0,0
-2.77088875009213E-05,1.12052839540411E-05,2.8125,0,0
-2.88358551188139E-05,1.03731099443394E-05,2.8125,0,0
-2.24667292059166E-05,6.80369157635141E-06,2.8125,0,0
-3.10080322378781E-05,1.06022771433345E-05,2.8125,0,0
-2.23674705921439E-05,9.96810558717698E-06,2.8125,0,0
-2.73277291853447E-05,1.33380362967728E-05,2.8125,0,0
-2.18869663513033E-05,1.3030647096457E-05,2.8125,0,0
-2.40589706663741E-05,1.4402892702492E-05,2.8125,0,0
-2.11962342291372E-05,1.41692980832886E-05,2.8125,0,0
-2.44041184487287E-05,1.51851672853809E-05,2.8125,0,0
-2.49844651989406E-05,1.51397716763313E-05,2.8125,0,0
-2.49299919232726E-05,1.44300911415485E-05,2.8125,0,0
-2.38484735746169E-05,1.39773519549635E-05,2.8125,0,0
-2.24198574869661E-05,1.39185231091687E-05,2.8125,0,0
-2.27341388381319E-05,1.30909729705309E-05,2.8125,0,0
-2.06899676413741E-05,1.02954272733768E-05,2.8125,0,0
-2.19319317693589E-05,8.16888405097416E-06,2.8125,0,0
-2.17189299291931E-05,5.07616005052114E-06,2.8125,0,0
-2.39585097006056E-05,2.06710819838918E-06,2.8125,0,0
-2.29472716455348E-05,-7.24530366369436E-07,2.8125,0,0
-2.39602759393165E-05,-5.82560062412085E-08,2.8125,0,0
-2.31754838750931E-05,3.95204733649734E-06,2.8125,0,0
-2.47472380578984E-05,9.53647486312548E-06,2.8125,0,0
-2.40931622101925E-05,1.16578330562334E-05,2.8125,0,0
-2.42306268773973E-05,1.25625610962743E-05,2.8125,0,0
-2.34016370086465E-05,1.34037245516083E-05,2.8125,0,0
-2.40399913309375E-05,1.28243236758863E-05,2.8125,0,0
-2.41617763094837E-05,1.01326713775052E-05,2.8125,0,0
-2.39780893025454E-05,8.36457547848113E-06,2.8125,0,0
-1.88081703527132E-05,8.30865974421613E-06,2.8125,0,0
-2.76073060376802E-05,1.29824520627153E-05,2.8125,0,0
-2.24654158955673E-05,1.13543592306087E-05,2.8125,0,0
-2.57992396655027E-05,1.40892088893452E-05,2.8125,0,0
-1.89142556337174E-05,1.34390747916768E-05,2.8125,0,0
-1.96088894881541E-05,1.45239264384145E-05,2.8125,0,0
-1.71464580489555E-05,1.4438817743212E-05,2.8125,0,0
-1.83260290214093E-05,1.6787522326922E-05,2.8125,0,0
-1.67314392456319E-05,1.68707138072932E-05,2.8125,0,0
-1.54446861415636E-05,1.61676598509075E-05,2.8125,0,0
-1.5155618712015E-05,1.64929133461555E-05,2.8125,0,0
-1.54837653099094E-05,1.7127929822891E-05,2.8125,0,0
-1.76223693415523E-05,1.73009339050623E-05,2.8125,0,0
-1.66930440173019E-05,1.49366205732804E-05,2.8125,0,0
-1.68284113897244E-05,1.3582344763563E-05,2.8125,0,0
-1.55644247570308E-05,1.31228034661035E-05,2.8125,0,0
-1.74745709955459E-05,1.51622971316101E-05,4.04296875,0,0
-1.74457563844044E-05,1.71469073393382E-05,4.04296875,0,0
-1.83022239070851E-05,1.94997173821321E-05,4.04296875,0,0
-1.57631075126119E-05,1.96491255337605E-05,4.04296875,0,0
-1.39827116072411E-05,1.74046272150008E-05,4.04296875,0,0
-1.27732873806963E-05,1.31600363602047E-05,4.04296875,0,0
-1.31556716951309E-05,1.13262358354405E-05,4.04296875,0,0
-1.0700389793783E-05,1.08979811557219E-05,4.04296875,0,0
-8.34432830743026E-06,1.13185633381363E-05,4.04296875,0,0
-7.08625111656147E-06,1.21964667414431E-05,4.04296875,0,0
-9.05746856005862E-06,1.31730012071785E-05,4.04296875,0,0
-1.06524066723068E-05,1.12996576717705E-05,4.04296875,0,0
-1.76915236806963E-05,1.54039153130725E-05,4.04296875,0,0
-1.66187674039975E-05,1.00228935480118E-05,4.04296875,0,0
-1.97789759113221E-05,1.21146267701988E-05,4.04296875,0,0
-1.92171901289839E-05,9.67212508840021E-06,4.04296875,0,0
-2.26967695198255E-05,1.14551985461731E-05,4.04296875,0,0
-2.49534332397161E-05,1.11508252302883E-05,4.04296875,0,0
-2.7461477657198E-05,1.21021130325971E-05,4.04296875,0,0
-2.76296050287783E-05,1.07556579678203E-05,4.04296875,0,0
-2.82054843410151E-05,1.07021696749143E-05,4.04296875,0,0
-3.00587180390721E-05,1.20572694868315E-05,4.04296875,0,0
-3.15581455652136E-05,1.12952620838769E-05,4.04296875,0,0
-3.19927967211697E-05,1.05255257949466E-05,4.04296875,0,0
-3.05388675769791E-05,1.06793568193098E-05,4.04296875,0,0
-3.10887044179253E-05,1.27562652778579E-05,4.04296875,0,0
-3.1341944122687E-05,1.06107845567749E-05,4.04296875,0,0
-3.20880571962334E-05,7.49758646634291E-06,4.04296875,0,0
-3.2163989089895E-05,5.25048335475731E-06,4.04296875,0,0
-3.32461495418102E-05,6.54392670185189E-06,4.04296875,0,0
-3.23533931805287E-05,7.7673912528553E-06,4.04296875,0,0
-3.14898061333224E-05,9.91144406725653E-06,4.04296875,0,0
-3.02899643429555E-05,1.01348014140967E-05,4.04296875,0,0
-3.01254440273624E-05,1.0340406333853E-05,4.04296875,0,0
-2.99552193609998E-05,1.04383843790856E-05,4.04296875,0,0
-2.86573376797605E-05,1.10489390863222E-05,4.04296875,0,0
-2.70564687525621E-05,1.00724510048167E-05,4.04296875,0,0
-2.69756201305427E-05,8.10748952062568E-06,4.04296875,0,0
-2.35337938647717E-05,7.91521324572386E-06,4.04296875,0,0
-3.62587124982383E-05,1.18602765724063E-05,4.04296875,0,0
-3.1150924769463E-05,9.27840392250801E-06,4.04296875,0,0
-3.62811188097112E-05,9.29517136682989E-06,4.04296875,0,0
-2.93522971333005E-05,4.62670914203045E-06,4.04296875,0,0
-3.08850540022831E-05,3.71224291484396E-06,4.04296875,0,0
-2.84909438050818E-05,3.73846114598564E-06,4.04296875,0,0
-3.0623883503722E-05,6.1802725213056E-06,4.04296875,0,0
-2.98848754027858E-05,8.0731833804748E-06,4.04296875,0,0
-3.0179027817212E-05,1.03513102658326E-05,4.04296875,0,0
-3.10806935885921E-05,1.20993727250607E-05,4.04296875,0,0
-3.13853270199616E-05,1.04478413049947E-05,4.04296875,0,0
-3.30744805978611E-05,7.76999058871297E-06,4.04296875,0,0
-3.1640814995626E-05,5.50058075532434E-06,4.04296875,0,0
-3.12093798129354E-05,5.86935402679956E-06,4.04296875,0,0
-2.78498446277808E-05,6.99635438650148E-06,4.04296875,0,0
-2.78795287158573E-05,9.9172266345704E-06,4.04296875,0,0
-2.6602308935253E-05,1.15813109005103E-05,4.04296875,0,0
-2.81536522379611E-05,1.18255511551979E-05,4.04296875,0,0
-2.78843363048509E-05,1.0788293366204E-05,4.04296875,0,0
-2.95857007586164E-05,1.04018936326611E-05,4.04296875,0,0
-2.8718646717607E-05,8.6457330326084E-06,4.04296875,0,0
-2.84387151623378E-05,7.50129674997879E-06,4.04296875,0,0
-2.73653859039769E-05,7.05451748217456E-06,4.04296875,0,0
-2.77372455457225E-05,6.64307435727096E-06,4.04296875,0,0
-2.85887836071197E-05,5.80826008445001E-06,4.04296875,0,0
-2.81555621768348E-05,3.08152334582701E-06,4.04296875,0,0
-2.19282337639015E-05,3.29373044394288E-08,4.04296875,0,0
-3.03576180158416E-05,2.33670834859367E-06,4.04296875,0,0
-2.0585595848388E-05,7.00628561389749E-06,4.04296875,0,0
-2.44154980464373E-05,8.80371226230636E-06,4.04296875,0,0
-2.06934764719335E-05,8.6097179519129E-06,4.04296875,0,0
-2.45799692493165E-05,8.67951530381106E-06,4.04296875,0,0
-2.1667052351404E-05,7.9936671681935E-06,4.04296875,0,0
-2.20081510633463E-05,6.85028498992324E-06,4.04296875,0,0
-2.05313608603319E-05,7.71204031480011E-06,4.04296875,0,0
-2.03389736270765E-05,9.65439176070504E-06,4.04296875,0,0
-2.03656145458808E-05,1.07476425910136E-05,4.04296875,0,0
-2.00005888473243E-05,1.15026123239659E-05,4.04296875,0,0
-2.09213267226005E-05,1.2671734111791E-05,4.04296875,0,0
-1.98516972886864E-05,1.36001808641595E-05,4.04296875,0,0
-2.22687176574254E-05,1.26728518807795E-05,4.04296875,0,0
-2.28204426093725E-05,1.13040150608867E-05,4.04296875,0,0
-2.47013467742363E-05,1.23114059533691E-05,4.04296875,0,0
-2.29461656999774E-05,1.5437331967405E-05,4.04296875,0,0
-2.34664876188617E-05,1.7654028852121E-05,4.04296875,0,0
-2.24255891225766E-05,1.74693814187776E-05,4.04296875,0,0
-2.32508336921455E-05,1.69168142747367E-05,4.04296875,0,0
-2.18520926864585E-05,1.78730260813609E-05,4.04296875,0,0
-2.03343406610657E-05,1.81250161404023E-05,4.04296875,0,0
-1.73503231053473E-05,1.6536872863071E-05,4.04296875,0,0
-1.53389701154083E-05,1.48905501191621E-05,4.04296875,0,0
-1.30113112390973E-05,1.44894302138709E-05,4.04296875,0,0
-1.16135734060663E-05,1.4244767044147E-05,4.04296875,0,0
-1.05319368230994E-05,1.01869272839394E-05,4.04296875,0,0
-1.53760956891347E-05,1.42757571666152E-05,4.04296875,0,0
-1.12854822873487E-05,1.09076045191614E-05,4.04296875,0,0
-1.227110169566E-05,1.31424549181247E-05,4.04296875,0,0
-1.05205690488219E-05,9.10842845769366E-06,4.04296875,0,0
-1.38072309709969E-05,9.03258478501812E-06,4.04296875,0,0
-1.5611010894645E-05,6.2035896917223E-06,4.04296875,0,0
-1.85825920198113E-05,5.30493389305775E-06,4.04296875,0,0
-1.9988137864857E-05,3.44087607118126E-06,4.04296875,0,0
-2.13592484215042E-05,4.04476759285899E-06,4.04296875,0,0
-2.17176002479391E-05,8.21014054963598E-06,4.04296875,0,0
-2.05061714950716E-05,1.20359345601173E-05,4.04296875,0,0
-2.16326188819949E-05,1.37325178002357E-05,4.04296875,0,0
-2.30883706535678E-05,1.12977768367273E-05,4.04296875,0,0
-2.46723302552709E-05,8.41792825667653E-06,4.04296875,0,0
-2.44167877099244E-05,4.16875127484673E-06,4.04296875,0,0
-2.54732731264085E-05,2.96194639304304E-06,4.04296875,0,0
-2.5524039301672E-05,4.10915572501835E-06,4.04296875,0,0
-2.61346485785907E-05,8.0209574662149E-06,4.04296875,0,0
-2.51197852776386E-05,9.43879240367096E-06,4.04296875,0,0
-2.41721954807872E-05,1.01569994512829E-05,4.04296875,0,0
-2.35407405853039E-05,1.03286201920127E-05,4.04296875,0,0
-2.49237855314277E-05,1.12882889879984E-05,4.04296875,0,0
-2.61825807683636E-05,1.27075254567899E-05,4.04296875,0,0
-2.65860016952502E-05,1.36368371386197E-05,4.04296875,0,0
