biceps_emg, triceps_emg, subject_position, position_estimate, brace_position
-2.47500283876434E-05,1.02685371530242E-05,2.63671875,0,0
-2.54591159318807E-05,1.14925160232815E-05,2.63671875,0,0
-2.77909948636079E-05,1.31876704472234E-05,2.63671875,0,0
-2.71138160314877E-05,1.3038938959653E-05,2.63671875,0,0
-2.70105210802285E-05,1.3422679330688E-05,2.63671875,0,0
-2.39447654166725E-05,1.28095498439507E-05,2.63671875,0,0
-2.38428456214024E-05,1.26977975014597E-05,2.63671875,0,0
-2.24296491069254E-05,1.10409109765897E-05,2.63671875,0,0
-2.3418488126481E-05,9.9931994554936E-06,2.63671875,0,0
-2.22317994484911E-05,8.17999807622982E-06,2.63671875,0,0
-2.27053878916195E-05,7.59643762648921E-06,2.63671875,0,0
-2.06064360099845E-05,8.71928114065668E-06,2.63671875,0,0
-1.92680654436117E-05,1.22152068797732E-05,2.63671875,0,0
-1.86129964276915E-05,1.35378340928582E-05,2.63671875,0,0
-2.04690368263982E-05,1.17480094559141E-05,2.63671875,0,0
-2.27449290832737E-05,1.05188728412031E-05,2.63671875,0,0
-2.37467938859481E-05,1.04534810816403E-05,2.63671875,0,0
-1.75802160811145E-05,8.58277053339407E-06,2.63671875,0,0
-2.310571653652E-05,1.11324134195456E-05,2.63671875,0,0
-1.61167572514387E-05,6.38106212136336E-06,2.63671875,0,0
-2.14356023207074E-05,8.04058618086856E-06,2.63671875,0,0
-1.75637469510548E-05,6.93238644089433E-06,2.63671875,0,0
-2.015424433921E-05,9.90943681244971E-06,2.63671875,0,0
-1.90689261216903E-05,1.1476424333523E-05,2.63671875,0,0
-2.22423095692648E-05,1.29463178382139E-05,2.63671875,0,0
-2.277595558553E-05,1.13987243821612E-05,2.63671875,0,0
-2.21577520278515E-05,9.3722283054376E-06,2.63671875,0,0
-2.16971184272552E-05,8.56723818287719E-06,2.63671875,0,0
-2.07213233807124E-05,9.04551234270912E-06,2.63671875,0,0
-2.04108964680927E-05,1.05166991488659E-05,2.63671875,0,0
-1.88335543498397E-05,1.00548204500228E-05,2.63671875,0,0
-2.10309881367721E-05,1.00889537861804E-05,2.63671875,0,0
-2.18332552321954E-05,9.49148216022877E-06,2.63671875,0,0
-2.44497296080226E-05,9.57805877987994E-06,2.63671875,0,0
-2.39984565268969E-05,8.50488231662894E-06,2.63671875,0,0
-2.4424583898508E-05,9.06547211343423E-06,2.63671875,0,0
-2.34010494750692E-05,8.73751923791133E-06,2.63671875,0,0
-2.39398159465054E-05,8.3674831330427E-06,2.63671875,0,0
-2.30581281357445E-05,8.50647120387293E-06,2.63671875,0,0
-2.34142407862237E-05,1.1290982911305E-05,2.63671875,0,0
-2.34207909670658E-05,1.31478473122115E-05,2.63671875,0,0
-2.42600872297771E-05,1.26655668282183E-05,2.63671875,0,0
-2.36541563936044E-05,1.22592464322224E-05,2.63671875,0,0
-2.31829289987218E-05,1.26794639072614E-05,2.63671875,0,0
-1.83828433364397E-05,8.83927805261919E-06,2.63671875,0,0
-2.61233453784371E-05,1.12755624286365E-05,2.63671875,0,0
-1.94044878298882E-05,7.03198929841165E-06,2.63671875,0,0
-2.37880121858325E-05,9.62737158261007E-06,2.63671875,0,0
-1.96267919818638E-05,8.09451285022078E-06,2.63671875,0,0
-2.20221954805311E-05,1.01389905466931E-05,2.63671875,0,0
-2.07323391805403E-05,1.05428525785101E-05,2.63671875,0,0
-2.18692475755233E-05,1.16145665742806E-05,2.63671875,0,0
-2.17135511775268E-05,1.00083807410556E-05,2.63671875,0,0
-2.24331652134424E-05,1.01038222055649E-05,2.63671875,0,0
-2.23121733142762E-05,1.14031236080336E-05,2.63671875,0,0
-2.11841925192857E-05,1.16691944640479E-05,2.63671875,0,0
-2.21489135583397E-05,1.19644391816109E-05,2.63671875,0,0
-2.24654468183871E-05,1.18559828479192E-05,2.63671875,0,0
-2.38391767197754E-05,1.32382683659671E-05,2.63671875,0,0
-2.2993357561063E-05,1.30675653053913E-05,2.63671875,0,0
-2.48817286774283E-05,1.28917872643797E-05,2.63671875,0,0
-2.48637697950471E-05,1.19400174298789E-05,2.63671875,0,0
-2.59197367995512E-05,1.31446486193454E-05,2.63671875,0,0
-2.53037742368178E-05,1.33055100377533E-05,2.63671875,0,0
-2.58192339970265E-05,1.29726440718514E-05,2.63671875,0,0
-2.53188645729097E-05,1.05160415841965E-05,2.63671875,0,0
-2.57609626714839E-05,8.82253698364366E-06,2.63671875,0,0
-2.42168061959092E-05,9.61501154961297E-06,2.63671875,0,0
-2.37454751186306E-05,1.15927323349752E-05,2.63671875,0,0
-2.3554674044135E-05,1.15623852252611E-05,2.63671875,0,0
-2.44562634179601E-05,1.11277686301037E-05,2.63671875,0,0
-2.02867140615126E-05,9.13253188628005E-06,2.63671875,0,0
-2.84386278508464E-05,1.34804959088797E-05,2.63671875,0,0
-2.15303280128865E-05,9.6439580374863E-06,2.63671875,0,0
-2.76999708148651E-05,1.04078044387279E-05,2.63671875,0,0
-2.34515937336255E-05,8.49020125315292E-06,2.63671875,0,0
-2.49437725869939E-05,9.31296108319657E-06,2.63671875,0,0
-2.10880989470752E-05,7.51901507101138E-06,2.63671875,0,0
-1.98844882106641E-05,7.71818667999469E-06,2.63671875,0,0
-1.74206707015401E-05,8.08234835858457E-06,2.63671875,0,0
-1.81829036591807E-05,8.92963998921914E-06,2.63671875,0,0
-2.06178283406189E-05,9.33480805542786E-06,2.63671875,0,0
-2.15573963942006E-05,9.72047564573586E-06,2.63671875,0,0
-2.19243738683872E-05,1.15480861495598E-05,2.63671875,0,0
-1.98434026970062E-05,1.25872047647135E-05,2.63671875,0,0
-2.14549654629081E-05,1.36891267175088E-05,2.63671875,0,0
-2.24899231398012E-05,1.24359776236815E-05,2.63671875,0,0
-2.50794364546891E-05,1.18537964226562E-05,2.63671875,0,0
-2.44788898271509E-05,1.16372739284998E-05,2.63671875,0,0
-2.59833086602157E-05,1.29283844216843E-05,2.63671875,0,0
-2.47343759838259E-05,1.31528368001455E-05,2.63671875,0,0
-2.46261533902725E-05,1.35110949486261E-05,2.63671875,0,0
-2.43392914853757E-05,1.25866199596203E-05,2.63671875,0,0
-2.56227722275071E-05,1.25334136100719E-05,2.63671875,0,0
-2.50498960667755E-05,1.22670871860464E-05,2.63671875,0,0
-2.48579308390617E-05,1.18467696665903E-05,2.63671875,0,0
-2.54619917541277E-05,1.13767173388624E-05,2.63671875,0,0
-2.53679099841975E-05,1.12753987195902E-05,2.63671875,0,0
-2.03039817279205E-05,1.04816253951867E-05,2.63671875,0,0
-3.03935521515086E-05,1.4900687347108E-05,2.63671875,0,0
-2.5549772544764E-05,9.83957579592243E-06,2.63671875,0,0
-3.00483116006944E-05,1.06551206044969E-05,2.63671875,0,0
-2.42003989114892E-05,9.15355849429034E-06,2.63671875,0,0
-2.54471597145312E-05,1.28286210383521E-05,2.63671875,0,0
-2.23352235479979E-05,1.3059716366115E-05,2.63671875,0,0
-2.31697340495884E-05,1.27689409055165E-05,2.63671875,0,0
-2.27616874326486E-05,1.16678784252144E-05,2.63671875,0,0
-2.39761247939896E-05,1.14889671749552E-05,2.63671875,0,0
-2.57749852607958E-05,1.07996265796828E-05,2.63671875,0,0
-2.56272815022385E-05,1.10347145891865E-05,2.63671875,0,0
-2.47043080889853E-05,1.31126580527052E-05,2.63671875,0,0
-2.24259729293408E-05,1.20432187031838E-05,2.63671875,0,0
-2.40912704612128E-05,9.71689314610558E-06,2.63671875,0,0
-2.41371453739703E-05,6.69771952743758E-06,2.63671875,0,0
-2.50809698627563E-05,5.84834879191476E-06,2.63671875,0,0
-2.34467479458544E-05,4.53106167697115E-06,2.63671875,0,0
-2.49185632128501E-05,4.95090944241383E-06,2.63671875,0,0
-2.49957138294121E-05,5.26891426488874E-06,2.63671875,0,0
-2.57809097092832E-05,6.96615688866586E-06,2.63671875,0,0
-2.32250222325092E-05,8.15882867755136E-06,2.63671875,0,0
-2.1239122361294E-05,9.90467924566474E-06,2.63671875,0,0
-2.00555168703431E-05,9.89856471278472E-06,2.63671875,0,0
-2.10486941796262E-05,8.66791106091114E-06,2.63671875,0,0
-2.15850595850497E-05,7.76627257437212E-06,2.63671875,0,0
-2.16640855796868E-05,8.40767279441934E-06,2.63671875,0,0
-1.73087555594975E-05,7.49861919757677E-06,2.63671875,0,0
-2.60058932326501E-05,1.11590043161414E-05,2.63671875,0,0
-2.27447017095983E-05,9.26497341424692E-06,2.63671875,0,0
-2.65626586042345E-05,1.06452744148555E-05,2.63671875,0,0
-2.09663921850733E-05,7.67949404689716E-06,2.63671875,0,0
-2.39037799474318E-05,9.0210323833162E-06,2.63671875,0,0
-2.43541653617285E-05,1.0330708391848E-05,2.63671875,0,0
-2.80701078736456E-05,1.18387779366458E-05,2.63671875,0,0
-2.91146097879391E-05,1.13977193905157E-05,2.63671875,0,0
-2.91200012725312E-05,1.10900255094748E-05,2.63671875,0,0
-2.81815810012631E-05,1.15517850645119E-05,2.63671875,0,0
-2.67047616944183E-05,1.12616307887947E-05,2.63671875,0,0
-2.69414158537984E-05,1.06629777292255E-05,2.63671875,0,0
-2.63892288785428E-05,9.30732403503498E-06,2.63671875,0,0
-2.87875318463193E-05,1.00526876849472E-05,2.63671875,0,0
-2.93805223918753E-05,1.12092066046898E-05,2.63671875,0,0
-3.05698304146063E-05,1.3315001524461E-05,2.63671875,0,0
-2.8784001187887E-05,1.3665567166754E-05,2.63671875,0,0
-2.94823239528341E-05,1.40529573400272E-05,2.63671875,0,0
-2.87919174297713E-05,1.38676596179721E-05,2.63671875,0,0
-2.83169574686326E-05,1.39578360176529E-05,2.63671875,0,0
-2.61556033365196E-05,1.28034234876395E-05,2.63671875,0,0
-2.59799508057768E-05,1.11559811557527E-05,2.63671875,0,0
-2.5781364456634E-05,9.44939438340953E-06,2.63671875,0,0
-2.60845845332369E-05,7.91652200859971E-06,2.63671875,0,0
-2.64482841885183E-05,6.71929819873185E-06,2.63671875,0,0
-2.63935980910901E-05,7.58342685003299E-06,2.63671875,0,0
-2.09661739063449E-05,8.57925078889821E-06,2.63671875,0,0
-2.92753211397212E-05,1.33719822770217E-05,2.63671875,0,0
-2.23299775825581E-05,9.87451949185925E-06,2.63671875,0,0
-2.92092063318705E-05,1.12123134385911E-05,2.63671875,0,0
-2.59623957390431E-05,1.1505369002407E-05,2.63671875,0,0
-2.93703687930247E-05,1.38876775963581E-05,2.63671875,0,0
-2.72583110927371E-05,1.36194239530596E-05,2.63671875,0,0
-2.89092222374165E-05,1.4887723409629E-05,2.63671875,0,0
-2.76894479611656E-05,1.55969955812907E-05,2.63671875,0,0
-2.54038714047056E-05,1.47993096106802E-05,2.63671875,0,0
-2.23810893658083E-05,1.38953982968815E-05,2.63671875,0,0
-1.90730461326893E-05,1.42885828608996E-05,2.63671875,0,0
-1.92652878467925E-05,1.51407630255562E-05,2.63671875,0,0
-1.92123534361599E-05,1.34980318762246E-05,2.63671875,0,0
-2.10859398066532E-05,1.24376438179752E-05,2.63671875,0,0
-1.95587072084891E-05,1.18433317766176E-05,2.63671875,0,0
-2.03222371055745E-05,1.25926981127122E-05,2.63671875,0,0
-1.87067416845821E-05,1.29260779431206E-05,2.63671875,0,0
-1.81282011908479E-05,1.42046928885975E-05,2.63671875,0,0
-1.51595140778227E-05,1.44310297400807E-05,2.63671875,0,0
-1.57413487613667E-05,1.41696009450243E-05,2.63671875,0,0
-1.72311956703197E-05,1.23078880278626E-05,2.63671875,0,0
-1.9881057596649E-05,1.05746421468211E-05,2.63671875,0,0
-2.04464959097095E-05,9.61674413701985E-06,2.63671875,0,0
-2.17504275497049E-05,1.00221814136603E-05,2.63671875,0,0
-2.32059483096236E-05,1.16803703349433E-05,2.63671875,0,0
-2.39825512835523E-05,1.20947561299545E-05,2.63671875,0,0
-1.98956659005489E-05,8.84991914062994E-06,2.63671875,0,0
-2.79708656307776E-05,1.16571854960057E-05,2.63671875,0,0
-2.11716342164436E-05,7.87222779763397E-06,2.63671875,0,0
-2.6847837943933E-05,9.34501167648705E-06,2.63671875,0,0
-2.33579103223747E-05,6.46521448288695E-06,2.63671875,0,0
-2.62880912487162E-05,8.61886564962333E-06,2.63671875,0,0
-2.33490700338734E-05,9.36122069106204E-06,2.63671875,0,0
-2.28049921133788E-05,1.14171161840204E-05,2.63671875,0,0
-2.07702451007208E-05,1.13194100777037E-05,2.63671875,0,0
-2.04784410016146E-05,1.05501931102481E-05,2.63671875,0,0
-2.07429311558371E-05,9.73677288129693E-06,2.63671875,0,0
-2.02303690457484E-05,8.88238901097793E-06,2.63671875,0,0
-2.20075125980657E-05,9.27523888094584E-06,2.63671875,0,0
-2.16854859900195E-05,9.18849582376424E-06,2.63671875,0,0
-2.27516447921516E-05,9.80146978690755E-06,2.63671875,0,0
-2.14411229535472E-05,8.85696044861106E-06,2.63671875,0,0
-2.25134117499692E-05,9.48969500313979E-06,2.63671875,0,0
-2.14497140405001E-05,1.00149472928024E-05,2.63671875,0,0
-2.24522591452114E-05,1.12420648292755E-05,2.63671875,0,0
-2.26582869800041E-05,1.04655018731137E-05,2.63671875,0,0
-2.53363996307598E-05,1.06344077721587E-05,2.63671875,0,0
-2.53744710789761E-05,9.85899714578409E-06,2.63671875,0,0
-2.42507812799886E-05,7.86396594776306E-06,2.63671875,0,0
-2.18736076931236E-05,6.43696284896578E-06,2.63671875,0,0
-2.26833308261121E-05,7.68110658100341E-06,2.63671875,0,0
-2.55490976996953E-05,8.55844973557396E-06,2.63671875,0,0
-2.69413503701799E-05,8.69044833962107E-06,2.63671875,0,0
-2.0827004846069E-05,8.59331339597702E-06,2.63671875,0,0
-2.75076672551222E-05,1.32256500364747E-05,2.63671875,0,0
-1.84954951691907E-05,1.0964296052407E-05,2.63671875,0,0
-2.41863890551031E-05,1.34192387122312E-05,2.63671875,0,0
-2.02284136321396E-05,1.23213021652191E-05,2.63671875,0,0
-2.43978556682123E-05,1.22067895063083E-05,2.63671875,0,0
-2.28108583542053E-05,1.01087953225942E-05,2.63671875,0,0
-2.45342689595418E-05,1.04239043139387E-05,2.63671875,0,0
-2.45883584284456E-05,1.02881413113209E-05,2.63671875,0,0
-2.59579883277183E-05,9.44381190493004E-06,2.63671875,0,0
-2.74168141913833E-05,8.79918206919683E-06,2.63671875,0,0
-2.6221410735161E-05,8.74599481903715E-06,2.63671875,0,0
-2.5641113097663E-05,9.94585752778221E-06,2.63671875,0,0
-2.38749562413432E-05,1.07002833829029E-05,2.63671875,0,0
-2.46043709921651E-05,1.18453681352548E-05,2.63671875,0,0
-2.25551539188018E-05,1.11203780761571E-05,2.63671875,0,0
-2.30381065193797E-05,1.03699385363143E-05,2.63671875,0,0
-2.19722078327322E-05,8.77403817867162E-06,2.63671875,0,0
-2.3365484594251E-05,8.51980985316914E-06,2.63671875,0,0
-2.23576844291529E-05,8.48048603074858E-06,2.63671875,0,0
-2.35414881899487E-05,9.258550562663E-06,2.63671875,0,0
-2.3962265913724E-05,9.26765915210126E-06,2.63671875,0,0
-2.5094770535361E-05,9.47453645494534E-06,2.63671875,0,0
-2.42330897890497E-05,9.16200042411219E-06,2.63671875,0,0
-2.40132903854828E-05,9.11238566914108E-06,2.63671875,0,0
-2.49162585532758E-05,9.11247570911655E-06,2.63671875,0,0
-2.65295948338462E-05,1.00485667644534E-05,2.63671875,0,0
-2.24746654566843E-05,1.02170615718933E-05,2.63671875,0,0
-3.1392144592246E-05,1.47686068885378E-05,2.63671875,0,0
-2.45975261350395E-05,1.04406635728083E-05,2.63671875,0,0
-3.21589104714803E-05,1.25488168123411E-05,2.63671875,0,0
-2.68209587375168E-05,1.13349233288318E-05,2.63671875,0,0
-2.89454674202716E-05,1.34828414957155E-05,2.63671875,0,0
-2.64816681010416E-05,1.29829159050132E-05,2.63671875,0,0
-2.66246697719907E-05,1.27859202621039E-05,2.63671875,0,0
-2.4583636331954E-05,1.14043259600294E-05,2.63671875,0,0
-2.51877117989352E-05,9.90612716122996E-06,2.63671875,0,0
-2.68470594164683E-05,8.5538022176479E-06,2.63671875,0,0
-2.66881033894606E-05,7.52501546230633E-06,2.63671875,0,0
-2.73249861493241E-05,8.5578049038304E-06,2.63671875,0,0
-2.56395414908184E-05,9.02841111383168E-06,2.63671875,0,0
-2.64208938460797E-05,9.88319243333535E-06,2.63671875,0,0
-2.50446555583039E-05,9.78676780505339E-06,2.63671875,0,0
-2.58511718129739E-05,1.09512520793942E-05,2.63671875,0,0
-2.36766718444414E-05,1.09572893052245E-05,2.63671875,0,0
-2.44702478084946E-05,1.12277757580159E-05,2.63671875,0,0
-2.39823002630146E-05,9.69073880696669E-06,2.63671875,0,0
-2.50248522206675E-05,9.21374885365367E-06,2.63671875,0,0
-2.35807056014892E-05,1.02580161183141E-05,2.63671875,0,0
-2.31903941312339E-05,1.19539326988161E-05,2.63671875,0,0
-2.304115514562E-05,1.19203450594796E-05,2.63671875,0,0
-2.33072605624329E-05,1.19999549497152E-05,2.63671875,0,0
-2.2502092178911E-05,1.15712055048789E-05,2.63671875,0,0
-2.28781773330411E-05,1.15662833195529E-05,2.63671875,0,0
-1.93576324818423E-05,9.93597677734215E-06,2.63671875,0,0
-2.70588407147443E-05,1.4392868251889E-05,2.63671875,0,0
-1.97642984858248E-05,1.05121107480954E-05,2.63671875,0,0
-2.40429617406335E-05,1.09397178675863E-05,2.63671875,0,0
-1.97244335140567E-05,7.2676866693655E-06,2.63671875,0,0
-2.22603030124446E-05,9.72899033513386E-06,2.63671875,0,0
-2.01966067834292E-05,1.07669138742494E-05,2.63671875,0,0
-2.27344717131928E-05,1.25093720271252E-05,2.63671875,0,0
-2.33360024139984E-05,1.23410964079085E-05,2.63671875,0,0
-2.23394235945307E-05,1.191308547277E-05,2.63671875,0,0
-2.12031682167435E-05,1.15299708340899E-05,2.63671875,0,0
-2.03173840418458E-05,1.01474024631898E-05,2.63671875,0,0
-2.21651243919041E-05,9.63575621426571E-06,2.63671875,0,0
-2.15853724512272E-05,8.91313266038196E-06,2.63671875,0,0
-2.23689439735608E-05,9.06317654880695E-06,2.63671875,0,0
-2.15216186916223E-05,8.44962141854921E-06,2.63671875,0,0
-2.33733244385803E-05,9.88596457318636E-06,2.63671875,0,0
-2.35059615079081E-05,1.06118195617455E-05,2.63671875,0,0
-2.55920895142481E-05,1.1803654160758E-05,2.63671875,0,0
-2.58695326920133E-05,1.12154411908705E-05,2.63671875,0,0
-2.68301719188457E-05,1.04433756860089E-05,2.63671875,0,0
-2.5556664695614E-05,9.7737465694081E-06,2.63671875,0,0
-2.52476620516973E-05,1.02469939520233E-05,2.63671875,0,0
-2.43485883402172E-05,9.41271537158173E-06,2.63671875,0,0
-2.46196923399111E-05,8.35491027828539E-06,2.63671875,0,0
-2.47346142714377E-05,7.90971807873575E-06,2.63671875,0,0
-2.4286680854857E-05,9.04074840946123E-06,2.63671875,0,0
-1.79705020855181E-05,8.86123052623589E-06,2.63671875,0,0
-2.3837403205107E-05,1.21707580547081E-05,2.63671875,0,0
-1.57172180479392E-05,7.13026838639053E-06,2.63671875,0,0
-2.02837418328272E-05,7.54625807530829E-06,2.63671875,0,0
-1.77003439603141E-05,6.94379150445457E-06,2.63671875,0,0
-2.23258848564001E-05,1.06934458017349E-05,2.63671875,0,0
-2.11582300835289E-05,1.07804107756237E-05,2.63671875,0,0
-2.27031359827379E-05,1.11967374323285E-05,2.63671875,0,0
-2.24747127504088E-05,1.15475850179791E-05,2.63671875,0,0
-2.25760759349214E-05,1.23414201880223E-05,2.63671875,0,0
-2.2386497221305E-05,1.21182347356807E-05,2.63671875,0,0
-2.09433128475212E-05,9.56841995503055E-06,2.63671875,0,0
-2.15077616303461E-05,7.82011375122238E-06,2.63671875,0,0
-2.12904833460925E-05,7.36701122150407E-06,2.63671875,0,0
-2.40118897636421E-05,8.96669735084288E-06,2.63671875,0,0
-2.48384239966981E-05,8.66147001943318E-06,2.63671875,0,0
-2.65406288235681E-05,9.28950612433255E-06,2.63671875,0,0
-2.48658525379142E-05,1.03445318018203E-05,2.63671875,0,0
-2.52678764809389E-05,1.21855691759265E-05,2.63671875,0,0
-2.4854984076228E-05,1.2309442354308E-05,2.63671875,0,0
-2.53460111707682E-05,1.28410874822293E-05,2.63671875,0,0
-2.45595001615584E-05,1.30465232359711E-05,2.63671875,0,0
-2.51063156611053E-05,1.2900215551781E-05,2.63671875,0,0
-2.50477714871522E-05,1.17032586786081E-05,2.63671875,0,0
-2.57942756434204E-05,1.10793889689376E-05,2.63671875,0,0
-2.61985132965492E-05,1.04981763797696E-05,2.63671875,0,0
-2.56876974162878E-05,8.67929975356674E-06,2.63671875,0,0
-1.90688988368493E-05,4.50296101917047E-06,2.63671875,0,0
-2.73490077233873E-05,6.64177059661597E-06,2.63671875,0,0
-2.22997787204804E-05,7.40473933547037E-06,2.63671875,0,0
-2.89782965410268E-05,1.11411545731244E-05,2.63671875,0,0
-2.44840412051417E-05,1.14503209260874E-05,2.63671875,0,0
-2.54597689490765E-05,1.26598688439117E-05,2.63671875,0,0
-2.36766463785898E-05,1.13368587335572E-05,2.63671875,0,0
-2.58774944086326E-05,1.11395975181949E-05,2.63671875,0,0
-2.482551826688E-05,1.19224096124526E-05,2.63671875,0,0
-2.36764280998614E-05,1.30144162540091E-05,2.63671875,0,0
-2.31161284318659E-05,1.24960233733873E-05,2.63671875,0,0
-2.23063689190894E-05,1.08595158962999E-05,2.63671875,0,0
-2.34797389566666E-05,1.02978156064637E-05,2.63671875,0,0
-2.32879901886918E-05,1.14477034003357E-05,2.63671875,0,0
-2.45514002017444E-05,1.36906655825442E-05,2.63671875,0,0
-2.26585543714464E-05,1.40761649163323E-05,2.63671875,0,0
-2.23830884351628E-05,1.31818642330472E-05,2.63671875,0,0
-2.1445237507578E-05,1.15037146315444E-05,2.63671875,0,0
-2.3621989384992E-05,1.15528082460514E-05,2.63671875,0,0
-2.34913895837963E-05,1.19152628030861E-05,2.63671875,0,0
-2.38370539591415E-05,1.27425746541121E-05,2.63671875,0,0
-2.31661379075376E-05,1.27900229927036E-05,2.63671875,0,0
-2.44510538323084E-05,1.27579478430562E-05,2.63671875,0,0
-2.58745149039896E-05,1.19880141937756E-05,2.63671875,0,0
-2.76531318377238E-05,1.15171505967737E-05,2.63671875,0,0
-2.70663676928962E-05,1.28541341837263E-05,2.63671875,0,0
-2.57550382229965E-05,1.4909711353539E-05,2.63671875,0,0
-2.05662654479966E-05,1.12876805360429E-05,2.63671875,0,0
-2.94757301162463E-05,1.62072228704346E-05,2.63671875,0,0
-2.31667108891997E-05,1.33034136524657E-05,2.63671875,0,0
-2.90103344013914E-05,1.53863220475614E-05,2.63671875,0,0
-2.55054656008724E-05,1.08533922684728E-05,2.63671875,0,0
-2.83025128737791E-05,1.16703995445278E-05,2.63671875,0,0
-2.48867308982881E-05,1.09467328002211E-05,2.63671875,0,0
-2.62074445345206E-05,1.40640968311345E-05,2.63671875,0,0
-2.71508251898922E-05,1.36520739033585E-05,2.63671875,0,0
-2.83759382000426E-05,1.17770114229643E-05,2.63671875,0,0
-2.79788418993121E-05,1.173968121293E-05,2.63671875,0,0
-2.61339755525114E-05,1.31124843392172E-05,2.63671875,0,0
-2.58941763604525E-05,1.44961222758866E-05,2.63671875,0,0
-2.37027124967426E-05,1.325219636783E-05,2.63671875,0,0
-2.39893943216885E-05,1.29837608255912E-05,2.63671875,0,0
-2.20006877498236E-05,1.07436007965589E-05,2.63671875,0,0
-2.18583936657524E-05,9.52488062466728E-06,2.63671875,0,0
-1.95212578546489E-05,7.92126866144827E-06,2.63671875,0,0
-2.02806586457882E-05,8.91051331564086E-06,2.63671875,0,0
-1.95720604097005E-05,9.86599661700893E-06,2.63671875,0,0
-1.92653678823262E-05,1.17656982183689E-05,2.63671875,0,0
-1.73522166733164E-05,1.06808111013379E-05,2.63671875,0,0
-1.83976408152375E-05,8.31286524771713E-06,2.63671875,0,0
-1.91474882740295E-05,5.82481698074844E-06,2.63671875,0,0
-1.97631743503734E-05,7.23560924598132E-06,2.63671875,0,0
-2.01348375412636E-05,1.06776287793764E-05,2.63671875,0,0
-2.14422398130409E-05,1.16715445983573E-05,2.63671875,0,0
-1.79874277819181E-05,8.58948806126136E-06,2.63671875,0,0
-2.56599778367672E-05,1.21798520922312E-05,2.63671875,0,0
-2.04335046873894E-05,9.6822759587667E-06,2.63671875,0,0
-2.67153336608317E-05,1.17571325972676E-05,2.63671875,0,0
-2.38095362874446E-05,9.27396195038455E-06,2.63671875,0,0
-2.6383162548882E-05,8.87375153979519E-06,2.63671875,0,0
-2.48877586273011E-05,6.68815164317493E-06,2.63671875,0,0
-2.54633978329366E-05,8.57198756420985E-06,2.63671875,0,0
-2.42833630181849E-05,9.32686452870257E-06,2.63671875,0,0
-2.41208126681158E-05,9.33786304813111E-06,2.63671875,0,0
-2.35009683819953E-05,9.17485704121646E-06,2.63671875,0,0
-2.15046202356461E-05,7.90053400123725E-06,2.63671875,0,0
-2.15362470044056E-05,7.87876433605561E-06,2.63671875,0,0
-2.13549810723634E-05,8.97948848432861E-06,2.63671875,0,0
-2.30943896895042E-05,1.12611051008571E-05,2.63671875,0,0
-2.20385154534597E-05,1.20939366752282E-05,2.63671875,0,0
-2.19338835449889E-05,1.35655909616617E-05,2.63671875,0,0
-1.96716937352903E-05,1.25229389595916E-05,2.63671875,0,0
-2.02874562091893E-05,1.18348361866083E-05,2.63671875,0,0
-2.09967020055046E-05,1.18755615403643E-05,2.63671875,0,0
-2.3144801161834E-05,1.2934127880726E-05,2.63671875,0,0
-2.25754283746937E-05,1.19537617138121E-05,2.63671875,0,0
-2.30903242481872E-05,1.12518155219732E-05,2.63671875,0,0
-2.3104359570425E-05,1.16291421363712E-05,2.63671875,0,0
-2.31859612540575E-05,1.18964735520422E-05,2.63671875,0,0
-2.31749399972614E-05,1.08774356704089E-05,2.63671875,0,0
-2.31195681408281E-05,1.09100046756794E-05,2.63671875,0,0
-1.83810589078348E-05,9.40868358156877E-06,2.63671875,0,0
-2.52025056397542E-05,1.18894095066935E-05,2.63671875,0,0
-1.92095249076374E-05,6.45014779365738E-06,2.63671875,0,0
-2.5283216018579E-05,8.79153776622843E-06,2.63671875,0,0
-2.18472960114013E-05,8.59158808452776E-06,2.63671875,0,0
-2.44496477534994E-05,1.18056104838615E-05,2.63671875,0,0
-2.22370636038249E-05,1.19892356451601E-05,2.63671875,0,0
-2.33723349083448E-05,1.26894738059491E-05,2.63671875,0,0
-2.21280461119022E-05,1.14797885544249E-05,2.63671875,0,0
-2.22173093789024E-05,1.08000867840019E-05,2.63671875,0,0
-2.2461366825155E-05,1.17761101137148E-05,2.63671875,0,0
-2.18713958020089E-05,1.157525821327E-05,2.63671875,0,0
-2.30908080993686E-05,1.0249584192934E-05,2.63671875,0,0
-2.23314345930703E-05,7.67729034123477E-06,2.63671875,0,0
-2.28208518819883E-05,7.91453203419223E-06,2.63671875,0,0
-2.11178594327066E-05,8.74011402629549E-06,2.63671875,0,0
-2.24521245399956E-05,9.69527809502324E-06,2.63671875,0,0
-2.22124854190042E-05,8.05157833383419E-06,2.63671875,0,0
-2.39428663917352E-05,8.19463457446545E-06,2.63671875,0,0
-2.34106246352894E-05,9.62187732511666E-06,2.63671875,0,0
-2.3611797587364E-05,1.13182995846728E-05,2.63671875,0,0
-2.25956282520201E-05,1.07704208858195E-05,2.63671875,0,0
-2.41680536419153E-05,1.09198326754267E-05,2.63671875,0,0
-2.53640773735242E-05,1.21054999908665E-05,2.63671875,0,0
-2.64700065599754E-05,1.3230571312306E-05,2.63671875,0,0
-2.69369211309822E-05,1.22549699881347E-05,2.63671875,0,0
-2.7347590730642E-05,1.04384052974638E-05,2.63671875,0,0
-2.09693407668965E-05,7.22958293408738E-06,2.63671875,0,0
-2.87476686935406E-05,1.02435169537785E-05,2.63671875,0,0
-2.10605812753784E-05,8.58783096191473E-06,2.63671875,0,0
-2.70060991169885E-05,1.23089403132326E-05,2.63671875,0,0
-2.20410292968154E-05,1.21300745377084E-05,2.63671875,0,0
-2.35830866586184E-05,1.23540175991366E-05,2.63671875,0,0
-2.08813780773198E-05,1.00455254141707E-05,2.63671875,0,0
-2.31968442676589E-05,1.0351302989875E-05,2.63671875,0,0
-2.34690651268465E-05,1.01065324997762E-05,2.63671875,0,0
-2.47169373324141E-05,9.45208921621088E-06,2.63671875,0,0
-2.5686233129818E-05,9.94524089037441E-06,2.63671875,0,0
-2.54540846071905E-05,1.15793618533644E-05,2.63671875,0,0
-2.63661222561495E-05,1.3814781596011E-05,2.63671875,0,0
-2.50416105700424E-05,1.3356428098632E-05,2.63671875,0,0
-2.62481498793932E-05,1.28811188915279E-05,2.63671875,0,0
-2.52930713031674E-05,1.30178432300454E-05,2.63671875,0,0
-2.65516227955231E-05,1.41494119816343E-05,2.63671875,0,0
-2.52017780439928E-05,1.37803890538635E-05,2.63671875,0,0
-2.57118063018424E-05,1.43599545481266E-05,2.63671875,0,0
-2.3768352548359E-05,1.36163262141054E-05,2.63671875,0,0
-2.36383912124438E-05,1.19097630886245E-05,2.63671875,0,0
-2.20333804463735E-05,1.09402008092729E-05,2.63671875,0,0
-2.20769816223765E-05,1.33080311570666E-05,2.63671875,0,0
-2.199054324592E-05,1.57136691996129E-05,2.63671875,0,0
-2.25406620302238E-05,1.54419194586808E-05,2.63671875,0,0
-2.34505641856231E-05,1.33786252263235E-05,2.63671875,0,0
-2.40920380747411E-05,1.2254295143066E-05,2.63671875,0,0
-1.90821119758766E-05,8.84201290318742E-06,2.63671875,0,0
-2.7728430723073E-05,1.20614713523537E-05,2.63671875,0,0
-2.17498436541064E-05,9.44602470553946E-06,2.63671875,0,0
-2.71058415819425E-05,1.228724977409E-05,2.63671875,0,0
-2.42614223679993E-05,9.35387834033463E-06,2.63671875,0,0
-2.69296724582091E-05,8.1005246101995E-06,2.63671875,0,0
-2.46972249442479E-05,5.30357283423655E-06,2.63671875,0,0
-2.5352879674756E-05,7.90048943599686E-06,2.63671875,0,0
-2.4293969545397E-05,9.49063723965082E-06,2.63671875,0,0
-2.42872392846039E-05,9.77065610641148E-06,2.63671875,0,0
-2.429877895338E-05,8.89325474418001E-06,2.63671875,0,0
-2.37220974668162E-05,8.08918230177369E-06,2.63671875,0,0
-2.47824991674861E-05,1.01852001535008E-05,2.63671875,0,0
-2.30660079978406E-05,1.2221868018969E-05,2.63671875,0,0
-2.25679777940968E-05,1.35697318910388E-05,2.63671875,0,0
-2.14808296732372E-05,1.17412164399866E-05,2.63671875,0,0
-2.44163420575205E-05,1.09865568447276E-05,2.63671875,0,0
-2.54624555964256E-05,9.43880331760738E-06,2.63671875,0,0
-2.69102238235064E-05,8.54575773701072E-06,2.63671875,0,0
-2.57125411735615E-05,7.52371624912485E-06,2.63671875,0,0
-2.6345520382165E-05,7.86079453973798E-06,2.63671875,0,0
-2.59892840404063E-05,6.65131665300578E-06,2.63671875,0,0
-2.5939740226022E-05,6.06932735536247E-06,2.63671875,0,0
-2.54121587204281E-05,6.16561783317593E-06,2.63671875,0,0
-2.51160272455309E-05,7.17291868568282E-06,2.63671875,0,0
-2.38754037127364E-05,8.38769028632669E-06,2.63671875,0,0
-2.37582844420103E-05,8.97361769602867E-06,2.63671875,0,0
-1.98880807147361E-05,7.23406174074626E-06,2.63671875,0,0
-2.78471707133576E-05,1.05008439277299E-05,2.63671875,0,0
-2.04667430807604E-05,8.21687990537612E-06,2.63671875,0,0
-2.55868690146599E-05,9.7689726317185E-06,2.63671875,0,0
-2.23517836275278E-05,8.97919562703464E-06,2.63671875,0,0
-2.64014233835042E-05,1.13281366793672E-05,2.63671875,0,0
-2.48758515226655E-05,1.04711734820739E-05,2.63671875,0,0
-2.52853624260752E-05,8.94987715582829E-06,2.63671875,0,0
-2.32560760196066E-05,8.33087597129634E-06,2.63671875,0,0
-2.35469360632123E-05,9.80049389909254E-06,2.63671875,0,0
-2.61276709352387E-05,1.00387751444941E-05,2.63671875,0,0
-2.65815833699889E-05,9.10428479983239E-06,2.63671875,0,0
-2.62299872701988E-05,9.21303671930218E-06,2.63671875,0,0
-2.43036283791298E-05,9.25527183426311E-06,2.63671875,0,0
-2.60036213148851E-05,9.93066259979969E-06,2.63671875,0,0
-2.55595386988716E-05,9.84024609351764E-06,2.63671875,0,0
-2.63416277448414E-05,1.1126956451335E-05,2.63671875,0,0
-2.4414437575615E-05,1.19393434943049E-05,2.63671875,0,0
-2.40399294852978E-05,1.33844550873619E-05,2.63671875,0,0
-2.20504225580953E-05,1.34106039695325E-05,2.63671875,0,0
-2.20130841626087E-05,1.32671966639464E-05,2.63671875,0,0
-2.11219485208858E-05,1.33656794787385E-05,2.63671875,0,0
-2.13651728699915E-05,1.36755406856537E-05,2.63671875,0,0
-2.07866924029076E-05,1.29126510728383E-05,2.63671875,0,0
-2.19043358811177E-05,1.32869372464484E-05,2.63671875,0,0
-2.32307356782258E-05,1.37517190523795E-05,2.63671875,0,0
-2.39623714151094E-05,1.42011413117871E-05,2.63671875,0,0
-1.98930993065005E-05,1.12942962005036E-05,2.63671875,0,0
-2.82371001958381E-05,1.59369301400147E-05,2.63671875,0,0
-2.19292633119039E-05,1.166391211882E-05,2.63671875,0,0
-2.83248118648771E-05,1.33143485072651E-05,2.63671875,0,0
-2.4755137928878E-05,9.98229734250344E-06,2.63671875,0,0
-2.64708651229739E-05,1.2216930372233E-05,2.63671875,0,0
-2.36724536080146E-05,1.14321437649778E-05,2.63671875,0,0
-2.55988197750412E-05,1.21585699162097E-05,2.63671875,0,0
-2.61774130194681E-05,1.20297700050287E-05,2.63671875,0,0
-2.62446155829821E-05,1.25855140140629E-05,2.63671875,0,0
-2.54680453508627E-05,1.29119744087802E-05,2.63671875,0,0
-2.33813480008394E-05,1.2350728866295E-05,2.63671875,0,0
-2.32267502724426E-05,1.31757287817891E-05,2.63671875,0,0
-2.18361528823152E-05,1.2666784641624E-05,2.63671875,0,0
-2.30279001698364E-05,1.22603323688963E-05,2.63671875,0,0
-2.2431626348407E-05,1.03821139418869E-05,2.63671875,0,0
-2.33136161114089E-05,1.08196600194788E-05,2.63671875,0,0
-2.23098704736913E-05,1.07043279058416E-05,2.63671875,0,0
-2.43036629399285E-05,1.12543184513925E-05,2.63671875,0,0
-2.39223063545069E-05,1.10101154859876E-05,2.63671875,0,0
-2.40686913457466E-05,1.18574280350003E-05,2.63671875,0,0
-2.27800246648258E-05,1.04024175016093E-05,2.63671875,0,0
-2.3629052520846E-05,8.45771137392148E-06,2.63671875,0,0
-2.48658270720625E-05,7.54710526962299E-06,2.63671875,0,0
-2.56223902397323E-05,7.84100666351151E-06,2.63671875,0,0
-2.4501225198037E-05,7.6903397712158E-06,2.63671875,0,0
-2.38703796640038E-05,8.31250690680463E-06,2.63671875,0,0
-2.04279695026344E-05,7.91966340329964E-06,2.63671875,0,0
-2.96779508062173E-05,1.1594333955145E-05,2.63671875,0,0
-2.2199421437108E-05,9.15128930500941E-06,2.63671875,0,0
-2.67153773165774E-05,1.13162541310885E-05,2.63671875,0,0
-2.38291395362467E-05,9.87889779935358E-06,2.63671875,0,0
-2.81178345176158E-05,1.17942390716053E-05,2.63671875,0,0
-2.61214554484468E-05,1.148867795564E-05,2.63671875,0,0
-2.69378942903131E-05,1.04853461380117E-05,2.63671875,0,0
-2.69225038209697E-05,9.40830796025693E-06,2.63671875,0,0
-2.66184797510505E-05,9.78801745077362E-06,2.63671875,0,0
-2.59058451774763E-05,1.11119379653246E-05,2.63671875,0,0
-2.44515504164156E-05,1.07312307591201E-05,2.63671875,0,0
-2.50637840508716E-05,1.01586601886083E-05,2.63671875,0,0
-2.31457197514828E-05,8.39916265249485E-06,2.63671875,0,0
-2.2583286408917E-05,7.66531411500182E-06,2.63671875,0,0
-2.08011151698884E-05,7.17587181497947E-06,2.63671875,0,0
-2.13663879549131E-05,8.29852524475427E-06,2.63671875,0,0
-1.92264924407937E-05,8.61894568515709E-06,2.63671875,0,0
-1.91856688616099E-05,8.93118340172805E-06,2.63671875,0,0
-1.83083830052055E-05,8.64308549353154E-06,2.63671875,0,0
-1.92668503586901E-05,9.1286583483452E-06,2.63671875,0,0
-1.98081397684291E-05,8.5993024185882E-06,2.63671875,0,0
-2.26462216232903E-05,7.75679200160084E-06,2.63671875,0,0
-2.4781407773844E-05,7.49380296838353E-06,2.63671875,0,0
-2.62828198174248E-05,7.37301024855697E-06,2.63671875,0,0
-2.60529577644775E-05,8.11064728623023E-06,2.63671875,0,0
-2.47568204940762E-05,7.41174471841077E-06,2.63671875,0,0
-1.89279708138201E-05,4.37190283264499E-06,2.63671875,0,0
-2.55801969615277E-05,7.36247420718428E-06,2.63671875,0,0
-1.69504219229566E-05,8.72707096277736E-06,2.63671875,0,0
-2.16865355469054E-05,1.19441356218886E-05,2.63671875,0,0
-1.92652914847713E-05,1.10711753222859E-05,2.63671875,0,0
-2.40122190007241E-05,1.04228001873707E-05,2.63671875,0,0
-2.37116291827988E-05,9.39191158977337E-06,2.63671875,0,0
-2.53724010690348E-05,9.29756970435847E-06,2.63671875,0,0
-2.42859296122333E-05,8.79021717992146E-06,2.63671875,0,0
-2.29734396270942E-05,9.84631333267316E-06,2.63671875,0,0
-2.20169713429641E-05,1.13386558950879E-05,2.63671875,0,0
-2.13601597351953E-05,1.19307487693732E-05,2.63671875,0,0
-2.25341555051273E-05,1.1496750630613E-05,2.63671875,0,0
-2.09211357287131E-05,1.01094492492848E-05,2.63671875,0,0
-2.11815367947565E-05,1.0060187378258E-05,2.63671875,0,0
-2.10858161153737E-05,1.09493330455734E-05,2.63671875,0,0
-2.45750889007468E-05,1.25230371850193E-05,2.63671875,0,0
-2.55880913755391E-05,1.12575935418135E-05,2.63671875,0,0
-2.73229834419908E-05,8.97984955372522E-06,2.63671875,0,0
-2.74331741820788E-05,8.10188885225216E-06,2.63671875,0,0
-2.91388878395082E-05,9.34935633267742E-06,2.63671875,0,0
-2.85006317426451E-05,9.88726606010459E-06,2.63671875,0,0
-2.72200140898349E-05,1.02136446002987E-05,2.63671875,0,0
-2.49326094490243E-05,1.0980056686094E-05,2.63671875,0,0
-2.45162591454573E-05,1.23446088764467E-05,2.63671875,0,0
-2.55125996773131E-05,1.29358477352071E-05,2.63671875,0,0
-2.63707097474253E-05,1.2609237273864E-05,2.63671875,0,0
-2.00156973733101E-05,1.04722385003697E-05,2.63671875,0,0
-2.67359991994454E-05,1.49108873301884E-05,2.63671875,0,0
-1.83142255991697E-05,1.1347459803801E-05,2.63671875,0,0
-2.44479761022376E-05,1.26861223179731E-05,2.63671875,0,0
-2.12268423638307E-05,9.54277220444055E-06,2.63671875,0,0
-2.47624957410153E-05,1.10272158053704E-05,2.63671875,0,0
-2.33077753364341E-05,1.01377245300682E-05,2.63671875,0,0
-2.47171446972061E-05,1.20033664643415E-05,2.63671875,0,0
-2.45562769123353E-05,1.21382554425509E-05,2.63671875,0,0
-2.58146264968673E-05,1.29973950606654E-05,2.63671875,0,0
-2.55625745921861E-05,1.37984980028705E-05,2.63671875,0,0
-2.22879607463256E-05,1.40020883918623E-05,2.63671875,0,0
-2.09970494324807E-05,1.39104731715634E-05,2.63671875,0,0
-1.9582696040743E-05,1.27693119793548E-05,2.63671875,0,0
-2.12623108382104E-05,1.43665456562303E-05,2.63671875,0,0
-2.09129666473018E-05,1.5628116670996E-05,2.63671875,0,0
-2.1531119273277E-05,1.73530806932831E-05,2.63671875,0,0
-1.82077001227299E-05,1.55128909682389E-05,2.63671875,0,0
-1.76874600583687E-05,1.3669623513124E-05,2.63671875,0,0
-1.80151109816507E-05,1.17820982268313E-05,2.63671875,0,0
-2.1295538317645E-05,1.26941868074937E-05,2.63671875,0,0
-2.1738176656072E-05,1.2967323527846E-05,2.63671875,0,0
-2.06956992769847E-05,1.16104274638928E-05,2.63671875,0,0
-1.83631382242311E-05,8.8104006863432E-06,2.63671875,0,0
-1.90662394743413E-05,8.23770369606791E-06,2.63671875,0,0
-2.11775422940264E-05,7.57805355533492E-06,2.63671875,0,0
-2.25789881369565E-05,6.90908291289816E-06,2.63671875,0,0
-1.83937027031789E-05,6.42703798803268E-06,2.63671875,0,0
-2.66372862824937E-05,8.8020406110445E-06,2.63671875,0,0
-2.15728432522155E-05,6.58154067423311E-06,2.63671875,0,0
-2.7784901249106E-05,9.02611009223619E-06,2.63671875,0,0
-2.47855514317052E-05,9.9871467682533E-06,2.63671875,0,0
-2.69684896920808E-05,1.35873724502744E-05,2.63671875,0,0
-2.42977112066001E-05,1.36760963869165E-05,2.63671875,0,0
-2.48183878284181E-05,1.30956868815701E-05,2.63671875,0,0
-2.49867316597374E-05,1.10101964310161E-05,2.63671875,0,0
-2.62141402345151E-05,9.37216282181907E-06,2.63671875,0,0
-2.67369123321259E-05,1.00858633231837E-05,2.63671875,0,0
-2.60054439422674E-05,1.04222563095391E-05,2.63671875,0,0
-2.69299707724713E-05,1.04415894384147E-05,2.63671875,0,0
-2.60018096014392E-05,9.9362623586785E-06,2.63671875,0,0
-2.59624739555875E-05,1.0579284207779E-05,2.63671875,0,0
-2.30325313168578E-05,9.45078863878734E-06,2.63671875,0,0
-2.21850204980001E-05,7.40272662369534E-06,2.63671875,0,0
-2.10477628570516E-05,5.13846316607669E-06,2.63671875,0,0
-2.34086201089667E-05,6.37471475783968E-06,2.63671875,0,0
-2.41528796323109E-05,8.80554034665693E-06,2.63671875,0,0
-2.51831770583522E-05,1.07369769466459E-05,2.63671875,0,0
-2.41265370277688E-05,1.15320672193775E-05,2.63671875,0,0
-2.51832516369177E-05,1.33441626530839E-05,2.63671875,0,0
-2.55307204497512E-05,1.48163189805928E-05,2.63671875,0,0
-2.45197225012816E-05,1.44976502269856E-05,2.63671875,0,0
-2.46307572524529E-05,1.39620296977228E-05,2.63671875,0,0
-2.61648165178485E-05,1.4339154404297E-05,2.63671875,0,0
-2.2324000383378E-05,1.10132559711928E-05,2.63671875,0,0
-3.20026665576734E-05,1.51648746395949E-05,2.63671875,0,0
-2.41880952671636E-05,1.19253563752864E-05,2.63671875,0,0
-2.85063761111815E-05,1.59058872668538E-05,2.63671875,0,0
-2.26433512580115E-05,1.21609700727277E-05,2.63671875,0,0
-2.59117859968683E-05,1.12418565549888E-05,2.63671875,0,0
-2.50980938290013E-05,8.61881562741473E-06,2.63671875,0,0
-2.72029719781131E-05,9.79791548161302E-06,2.63671875,0,0
-2.61452059930889E-05,9.74805152509362E-06,2.63671875,0,0
-2.6250398150296E-05,9.57053089223336E-06,2.63671875,0,0
-2.68367275566561E-05,1.05886410892708E-05,2.63671875,0,0
-2.63341262325412E-05,1.15427737910068E-05,2.63671875,0,0
-2.65278868027963E-05,1.22853525681421E-05,2.63671875,0,0
-2.41275411099195E-05,1.12430889203097E-05,2.63671875,0,0
-2.33078826568089E-05,1.156171765615E-05,2.63671875,0,0
-2.07446773856645E-05,1.09289903775789E-05,2.63671875,0,0
-2.11621627386194E-05,1.08841686596861E-05,2.63671875,0,0
-1.95238753804006E-05,8.84239398146747E-06,2.63671875,0,0
-2.11624828807544E-05,9.19001649890561E-06,2.63671875,0,0
-2.14390420296695E-05,1.0126734196092E-05,2.63671875,0,0
-2.33025457418989E-05,1.17813333417871E-05,2.63671875,0,0
-2.25910989684053E-05,1.1748464203265E-05,2.63671875,0,0
-2.33361970458645E-05,1.16975097625982E-05,2.63671875,0,0
-2.3866463379818E-05,1.03872635008884E-05,2.63671875,0,0
-2.50193388637854E-05,8.75874957273481E-06,2.63671875,0,0
-2.46093168243533E-05,8.34540969663067E-06,2.63671875,0,0
-2.28931676247157E-05,9.59780481935013E-06,2.63671875,0,0
-1.78612117451848E-05,9.13746225705836E-06,2.63671875,0,0
-2.66392817138694E-05,1.36064181788242E-05,2.63671875,0,0
-2.32804432016565E-05,1.08532385638682E-05,2.63671875,0,0
-2.89043837256031E-05,1.19385795187554E-05,2.63671875,0,0
-2.38802622334333E-05,8.42484041641001E-06,2.63671875,0,0
-2.50927205343032E-05,7.71965915191686E-06,2.63671875,0,0
-2.31714602705324E-05,7.36159108782886E-06,2.63671875,0,0
-2.50042648985982E-05,1.06080024124822E-05,2.63671875,0,0
-2.60127235378604E-05,1.21291695904802E-05,2.63671875,0,0
-2.59789358096896E-05,1.31574252009159E-05,2.63671875,0,0
-2.4659722839715E-05,1.27247540149256E-05,2.63671875,0,0
-2.298583422089E-05,1.18310354082496E-05,2.63671875,0,0
-2.38099473790498E-05,1.2135952601966E-05,2.63671875,0,0
-2.32039092225023E-05,1.16679511847906E-05,2.63671875,0,0
-2.40172703342978E-05,1.16557785077021E-05,2.63671875,0,0
-2.26768861466553E-05,9.61116984399268E-06,2.63671875,0,0
-2.31890444410965E-05,8.64451612869743E-06,2.63671875,0,0
-2.23231363634113E-05,7.84153689892264E-06,2.63671875,0,0
-2.40238059632247E-05,8.83643497218145E-06,2.63671875,0,0
-2.45276314672083E-05,8.54392692417605E-06,2.63671875,0,0
-2.58484033111017E-05,8.69273935677484E-06,2.63671875,0,0
-2.50056546065025E-05,9.4381985036307E-06,2.63671875,0,0
-2.4464272428304E-05,1.10447772385669E-05,2.63671875,0,0
-2.35058705584379E-05,9.69114807958249E-06,2.63671875,0,0
-2.30925161304185E-05,8.10227629699511E-06,2.63671875,0,0
-2.26003412535647E-05,9.03558611753397E-06,2.63671875,0,0
-2.20724941755179E-05,1.02625172075932E-05,2.63671875,0,0
-1.78482587216422E-05,9.1370229711174E-06,2.63671875,0,0
-2.5994957468356E-05,1.22905657917727E-05,2.63671875,0,0
-2.04147781914799E-05,8.31374200060964E-06,2.63671875,0,0
-2.44887614826439E-05,1.22887622637791E-05,2.63671875,0,0
-2.05429623747477E-05,1.32875620693085E-05,2.63671875,0,0
-2.28316712309606E-05,1.46354141179472E-05,2.63671875,0,0
-2.10349735425552E-05,1.19202313726419E-05,2.63671875,0,0
-2.25454168685246E-05,1.00783845482511E-05,2.63671875,0,0
-2.27707296289736E-05,8.14950999483699E-06,2.63671875,0,0
-2.24909472308354E-05,8.6100781118148E-06,2.63671875,0,0
-2.10042035178049E-05,1.00657616712851E-05,2.63671875,0,0
-2.02271603484405E-05,1.00847510111635E-05,2.63671875,0,0
-2.27785276365466E-05,9.49767672864255E-06,2.63671875,0,0
-2.39369128394173E-05,8.89491911948426E-06,2.63671875,0,0
-2.55866925726878E-05,1.09220309241209E-05,2.63671875,0,0
-2.46543877437944E-05,1.18167736218311E-05,2.63671875,0,0
-2.57968913501827E-05,1.28383098854101E-05,2.63671875,0,0
-2.51720230153296E-05,1.21601688078954E-05,2.63671875,0,0
-2.7022864742321E-05,1.08973381429678E-05,2.63671875,0,0
-2.75111087830737E-05,8.79251092555933E-06,2.63671875,0,0
-2.7811021936941E-05,9.88526335277129E-06,2.63671875,0,0
-2.60397591773653E-05,1.15891043606098E-05,2.63671875,0,0
-2.58485342783388E-05,1.30858707052539E-05,2.63671875,0,0
-2.52308036579052E-05,1.3703761396755E-05,2.63671875,0,0
-2.54091701208381E-05,1.42806866278988E-05,2.63671875,0,0
-2.52269146585604E-05,1.42346416396322E-05,2.63671875,0,0
-2.39117671299027E-05,1.36766238938435E-05,2.63671875,0,0
-1.83925239980454E-05,8.84568999026669E-06,2.63671875,0,0
-2.69012052740436E-05,1.10063865577104E-05,2.63671875,0,0
-2.23335446207784E-05,6.27641929895617E-06,2.63671875,0,0
-2.79218656942248E-05,8.87809437699616E-06,2.63671875,0,0
-2.36695159401279E-05,8.98105372471036E-06,2.63671875,0,0
-2.56128805631306E-05,1.29438567455509E-05,2.63671875,0,0
-2.36051691899775E-05,1.30992902995786E-05,2.63671875,0,0
-2.5557768822182E-05,1.3310054782778E-05,2.63671875,0,0
-2.58099753409624E-05,1.12546349555487E-05,2.63671875,0,0
-2.50862485700054E-05,1.05196486401837E-05,2.63671875,0,0
-2.40210556512466E-05,1.14004324132111E-05,2.63671875,0,0
-2.30469686357537E-05,1.11043082142714E-05,2.63671875,0,0
-2.46398794843117E-05,1.0166120773647E-05,2.63671875,0,0
-2.45691426243866E-05,8.99483256944222E-06,2.63671875,0,0
-2.53170292126015E-05,9.55404084379552E-06,2.63671875,0,0
-2.32965612667613E-05,9.25392487260979E-06,2.63671875,0,0
-2.43054073507665E-05,1.01518071460305E-05,2.63671875,0,0
-2.44278708123602E-05,1.00772285804851E-05,2.63671875,0,0
-2.57514020631788E-05,1.05200997495558E-05,2.63671875,0,0
-2.54269780270988E-05,9.12325776880607E-06,2.63671875,0,0
-2.65342132479418E-05,8.23552090878366E-06,2.63671875,0,0
-2.55174018093385E-05,7.22417053111712E-06,2.63671875,0,0
-2.49047843681183E-05,7.98292057879735E-06,2.63671875,0,0
-2.27171949518379E-05,9.05073284229729E-06,2.63671875,0,0
-2.10205689654686E-05,8.49422394821886E-06,2.63671875,0,0
-2.01033690245822E-05,7.73215379012981E-06,2.63671875,0,0
-2.05760516109876E-05,1.02204594440991E-05,2.63671875,0,0
-1.82528201548848E-05,1.04912933238666E-05,2.63671875,0,0
-2.59208190982463E-05,1.41015952976886E-05,2.63671875,0,0
-1.9268341930001E-05,8.57802206155611E-06,2.63671875,0,0
-2.35913048527436E-05,1.04079390439438E-05,2.63671875,0,0
-1.91357739822706E-05,1.05085391624016E-05,2.63671875,0,0
-2.06094355235109E-05,1.50174037116813E-05,2.63671875,0,0
-1.9026085283258E-05,1.55007037392352E-05,2.63671875,0,0
-2.04133684746921E-05,1.6544661775697E-05,2.63671875,0,0
-2.07624561880948E-05,1.44476389323245E-05,2.63671875,0,0
-2.24252962652827E-05,1.21741613838822E-05,2.63671875,0,0
-2.37020594795467E-05,1.26179529615911E-05,2.63671875,0,0
-2.35480092669604E-05,1.38771938509308E-05,2.63671875,0,0
-2.32915917877108E-05,1.48978006109246E-05,2.63671875,0,0
-2.17535416595638E-05,1.32719351313426E-05,2.63671875,0,0
-2.36883752222639E-05,1.23118588817306E-05,2.63671875,0,0
-2.45399351115339E-05,1.01380755950231E-05,2.63671875,0,0
-2.7009333280148E-05,9.11659753910499E-06,2.63671875,0,0
-2.60195010923781E-05,7.65505228628172E-06,2.63671875,0,0
-2.52449553954648E-05,8.23663776827743E-06,2.63671875,0,0
-2.29261968343053E-05,8.37365860206774E-06,2.63671875,0,0
-2.29668657993898E-05,9.1659012468881E-06,2.63671875,0,0
-2.26757638301933E-05,8.41839664644795E-06,2.63671875,0,0
-2.32900583796436E-05,8.81577034306247E-06,2.63671875,0,0
-2.21641312236898E-05,1.03495531220688E-05,2.63671875,0,0
-2.16861135413637E-05,1.14150534500368E-05,2.63671875,0,0
-2.07513949135318E-05,1.00624802144011E-05,2.63671875,0,0
-2.08168567041866E-05,7.96679159975611E-06,2.63671875,0,0
-1.86671841220232E-05,6.41285078017972E-06,2.63671875,0,0
-2.72839970421046E-05,1.10547925942228E-05,2.63671875,0,0
-2.2381227609003E-05,9.93336107057985E-06,2.63671875,0,0
-2.8147778721177E-05,1.03248485174845E-05,2.63671875,0,0
-2.49906552198809E-05,9.21869195735781E-06,2.63671875,0,0
-2.78244424407603E-05,1.13095265987795E-05,2.63671875,0,0
-2.45655865001027E-05,1.32083541757311E-05,2.63671875,0,0
-2.41486432059901E-05,1.46828715514857E-05,2.63671875,0,0
-2.3320950276684E-05,1.32534760268754E-05,2.63671875,0,0
-2.33001555898227E-05,1.17945965030231E-05,2.63671875,0,0
-2.49791464739246E-05,1.17441004476859E-05,2.63671875,0,0
-2.65786275122082E-05,1.16658702609129E-05,2.63671875,0,0
-2.90742027573287E-05,1.10069331640261E-05,2.63671875,0,0
-2.87510174530325E-05,8.38749747344991E-06,2.63671875,0,0
-2.7964417313342E-05,5.30442503077211E-06,2.63671875,0,0
-2.35123607126297E-05,3.33897128257377E-06,2.63671875,0,0
-2.28893622988835E-05,4.54391329185455E-06,2.63671875,0,0
-2.34932940657018E-05,5.94712537349551E-06,2.63671875,0,0
-2.64017253357451E-05,7.15829582986771E-06,2.63671875,0,0
-2.56204366451129E-05,7.06544551576371E-06,2.63671875,0,0
-2.47669922828209E-05,6.97271616445505E-06,2.63671875,0,0
-2.40017907344736E-05,6.9591196734109E-06,2.63671875,0,0
-2.62439825746696E-05,7.98926794232102E-06,2.63671875,0,0
-2.67937484750291E-05,9.49880632106215E-06,2.63671875,0,0
-2.53867856372381E-05,9.69728989730356E-06,2.63671875,0,0
-2.34120780078229E-05,8.83287884789752E-06,2.63671875,0,0
-2.21847967623034E-05,8.63476816448383E-06,2.63671875,0,0
-1.78440932359081E-05,8.04074170446256E-06,2.63671875,0,0
-2.56047187576769E-05,1.24598045658786E-05,2.63671875,0,0
-1.97113804460969E-05,1.04926411950146E-05,2.63671875,0,0
-2.33688806474674E-05,1.2395653357089E-05,2.63671875,0,0
-1.99116166186286E-05,1.09783186417189E-05,2.63671875,0,0
-2.46410145336995E-05,1.22277997434139E-05,2.63671875,0,0
-2.44871589529794E-05,1.18868201752775E-05,2.63671875,0,0
-2.61301229329547E-05,1.24021307783551E-05,2.63671875,0,0
-2.51186866080388E-05,1.14364274850232E-05,2.63671875,0,0
-2.51191959250718E-05,9.89905947790248E-06,2.63671875,0,0
-2.57624124060385E-05,8.62725300976308E-06,2.63671875,0,0
-2.44383845711127E-05,7.07657591192401E-06,2.63671875,0,0
-2.35610841627931E-05,7.24930032447446E-06,2.63671875,0,0
-2.22827129618963E-05,8.52332414069679E-06,2.63671875,0,0
-2.42059923039051E-05,9.78025673248339E-06,2.63671875,0,0
-2.41930847550975E-05,8.02354225015733E-06,2.63671875,0,0
-2.59104817814659E-05,7.37865866540233E-06,2.63671875,0,0
-2.48824144364335E-05,8.23914069769671E-06,2.63671875,0,0
-2.46631625486771E-05,1.07952510006726E-05,2.63671875,0,0
-2.30048572120722E-05,1.19354035632568E-05,2.63671875,0,0
-2.3572109057568E-05,1.21839984785765E-05,2.63671875,0,0
-2.2804366381024E-05,1.1291794180579E-05,2.63671875,0,0
-2.24979066842934E-05,1.1803324923676E-05,2.63671875,0,0
-2.16811731661437E-05,1.30251573864371E-05,2.63671875,0,0
-2.16968492168235E-05,1.28181436593877E-05,2.63671875,0,0
-2.11866899917368E-05,1.1386596270313E-05,2.63671875,0,0
-2.107884392899E-05,1.20082077046391E-05,2.63671875,0,0
-1.75751192728058E-05,1.02027124739834E-05,2.63671875,0,0
-2.56088133028243E-05,1.3470089470502E-05,2.63671875,0,0
-2.03720028366661E-05,8.51397362566786E-06,2.63671875,0,0
-2.57145111390855E-05,1.05835606518667E-05,2.63671875,0,0
-2.40284698520554E-05,8.754229384067E-06,2.63671875,0,0
-2.75126949418336E-05,1.14208696686546E-05,2.63671875,0,0
-2.45148949034046E-05,1.16423898361973E-05,2.63671875,0,0
-2.38613611145411E-05,1.47346563608153E-05,2.63671875,0,0
-2.304975532752E-05,1.64151151693659E-05,2.63671875,0,0
-2.31066114793066E-05,1.65237361215986E-05,2.63671875,0,0
-2.34390718105715E-05,1.62360247486504E-05,2.63671875,0,0
-2.43409485847224E-05,1.48499757415266E-05,2.63671875,0,0
-2.68630883510923E-05,1.39480498546618E-05,2.63671875,0,0
-2.61723907897249E-05,1.32087689053151E-05,2.63671875,0,0
-2.6076804715558E-05,1.37099377752747E-05,2.63671875,0,0
-2.50071425398346E-05,1.21187376862508E-05,2.63671875,0,0
-2.63324091065442E-05,1.2115159734094E-05,2.63671875,0,0
-2.50416233029682E-05,1.31520828290377E-05,2.63671875,0,0
-2.50197499553906E-05,1.59594437718624E-05,2.63671875,0,0
-2.37094100157265E-05,1.60294566740049E-05,2.63671875,0,0
-2.43940648942953E-05,1.5681702279835E-05,2.63671875,0,0
-2.41611160163302E-05,1.53071759996237E-05,2.63671875,0,0
-2.35376191994874E-05,1.58170751092257E-05,2.63671875,0,0
-2.21787395275896E-05,1.5255455764418E-05,2.63671875,0,0
-2.2488051399705E-05,1.51820386236068E-05,2.63671875,0,0
-2.30127461691154E-05,1.43357965498581E-05,2.63671875,0,0
-2.33928803936578E-05,1.27014163808781E-05,2.63671875,0,0
-1.93463401956251E-05,8.5784777184017E-06,2.63671875,0,0
-2.70696491497802E-05,1.24553989735432E-05,2.63671875,0,0
-1.97541485249531E-05,1.19486358016729E-05,2.63671875,0,0
-2.38093434745679E-05,1.75725363078527E-05,2.63671875,0,0
-1.91101080417866E-05,1.65841574926162E-05,2.63671875,0,0
-2.10353282454889E-05,1.60880626935977E-05,2.63671875,0,0
-1.87172536243452E-05,1.30851012727362E-05,2.63671875,0,0
-2.03481249627657E-05,1.27073089970509E-05,2.63671875,0,0
-2.02693827304756E-05,1.23425506899366E-05,2.63671875,0,0
-2.06223157874774E-05,1.25976785056992E-05,2.63671875,0,0
-2.09245954465587E-05,1.25835676954011E-05,2.63671875,0,0
-2.07386310648872E-05,1.1863171494042E-05,2.63671875,0,0
-2.16579664993333E-05,1.12395537144039E-05,2.63671875,0,0
-2.12399827432819E-05,1.03253669294645E-05,2.63671875,0,0
-2.36402138398262E-05,1.17020290417713E-05,2.63671875,0,0
-2.37502172240056E-05,1.24231419249554E-05,2.63671875,0,0
-2.43509639403783E-05,1.28534393297741E-05,2.63671875,0,0
-2.19049688894302E-05,1.13158694148296E-05,2.63671875,0,0
-2.213244442828E-05,1.03395695987274E-05,2.63671875,0,0
-2.12286686291918E-05,8.3093636931153E-06,2.63671875,0,0
-2.20141464524204E-05,7.76392062107334E-06,2.63671875,0,0
-2.12655158975394E-05,8.12779035186395E-06,2.63671875,0,0
-2.14092124224408E-05,9.31904833123554E-06,2.63671875,0,0
-2.09749650821323E-05,9.93391768133733E-06,2.63671875,0,0
-2.26494739763439E-05,1.06502966445987E-05,2.63671875,0,0
-2.49158147198614E-05,1.05535718830652E-05,2.63671875,0,0
-2.5791492589633E-05,1.08664671643055E-05,2.63671875,0,0
-2.09837562579196E-05,8.99375027074711E-06,2.63671875,0,0
-2.99144521704875E-05,1.21058565127896E-05,2.63671875,0,0
-2.26702195504913E-05,7.39688539397321E-06,2.63671875,0,0
-2.79035502899205E-05,8.19041360955453E-06,2.63671875,0,0
-2.34027702390449E-05,5.12554424858536E-06,2.63671875,0,0
-2.56460989476182E-05,5.54837015442899E-06,2.63671875,0,0
-2.32233469432686E-05,4.73778891318943E-06,2.63671875,0,0
-2.42589940171456E-05,6.7327382566873E-06,2.63671875,0,0
-2.42545684159268E-05,7.43782311474206E-06,2.63671875,0,0
-2.52886056841817E-05,6.62237107462715E-06,2.63671875,0,0
-2.54709648288554E-05,6.8619074227172E-06,2.63671875,0,0
-2.52815443673171E-05,7.62652189223445E-06,2.63671875,0,0
-2.77559156529605E-05,8.67886592459399E-06,2.63671875,0,0
-2.83837125607533E-05,8.75661044119624E-06,2.63671875,0,0
-3.06662514049094E-05,1.03827869679662E-05,2.63671875,0,0
-3.01859327009879E-05,1.0394041055406E-05,2.63671875,0,0
-3.07241680275183E-05,9.9119934020564E-06,2.63671875,0,0
-2.74738122243434E-05,8.94775530468905E-06,2.63671875,0,0
-2.61156419583131E-05,9.34406853048131E-06,2.63671875,0,0
-2.37378299061675E-05,8.47364208311774E-06,2.63671875,0,0
-2.37934982578736E-05,8.81071719049942E-06,2.63671875,0,0
-2.3437478375854E-05,9.41068356041797E-06,2.63671875,0,0
-2.46096915361704E-05,1.02022468126961E-05,2.63671875,0,0
-2.4727141862968E-05,9.78184561972739E-06,2.63671875,0,0
-2.54998103628168E-05,8.53047095006332E-06,2.63671875,0,0
-2.49884760705754E-05,6.77145771987853E-06,2.63671875,0,0
-2.3341950509348E-05,4.8625843191985E-06,2.63671875,0,0
-1.84012569661718E-05,2.87448187918926E-06,2.63671875,0,0
-2.72870292974403E-05,5.23364633409074E-06,2.63671875,0,0
-2.2788044589106E-05,5.96590462009772E-06,2.63671875,0,0
-2.7445777959656E-05,5.67604638490593E-06,2.63671875,0,0
-2.29508241318399E-05,5.11948792336625E-06,2.63671875,0,0
-2.46453673753422E-05,8.53370875120163E-06,2.63671875,0,0
-2.12938502954785E-05,1.0486010069144E-05,2.63671875,0,0
-2.21301652345574E-05,1.17860372483847E-05,2.63671875,0,0
-2.28886801778572E-05,1.26549866763526E-05,2.63671875,0,0
-2.47142706939485E-05,1.26797558550606E-05,2.63671875,0,0
-2.65683920588344E-05,1.11711269710213E-05,2.63671875,0,0
-2.62535631918581E-05,1.00468469099724E-05,2.63671875,0,0
-2.66301103692967E-05,1.03203101389227E-05,2.63671875,0,0
-2.53976959356805E-05,1.09772863652324E-05,2.63671875,0,0
-2.59854678006377E-05,1.06080688055954E-05,2.63671875,0,0
-2.4446761017316E-05,9.16789667826379E-06,2.63671875,0,0
-2.44997809204506E-05,9.42021506489255E-06,2.63671875,0,0
-2.22065518755699E-05,1.05466706372681E-05,2.63671875,0,0
-2.24055784201482E-05,1.18355583254015E-05,2.63671875,0,0
-2.23223996727029E-05,1.17812396638328E-05,2.63671875,0,0
-2.28842600336066E-05,1.16623732537846E-05,2.63671875,0,0
-2.17335054912837E-05,1.13904352474492E-05,2.63671875,0,0
-2.28196640819078E-05,1.06378702184884E-05,2.63671875,0,0
-2.29964953177841E-05,8.04663159215124E-06,2.63671875,0,0
-2.26916981773684E-05,5.07789036419126E-06,2.63671875,0,0
-2.16893276956398E-05,4.18228455600911E-06,2.63671875,0,0
-2.08366273000138E-05,5.68944142287364E-06,2.63671875,0,0
-1.78540012711892E-05,5.03304863741505E-06,2.63671875,0,0
-2.55931317951763E-05,6.90152364768437E-06,2.63671875,0,0
-1.95976153918309E-05,5.32404692421551E-06,2.63671875,0,0
-2.45031133090379E-05,7.72474868426798E-06,2.63671875,0,0
-2.21746468014317E-05,9.57951851887628E-06,2.63671875,0,0
-2.54627884714864E-05,1.31450069602579E-05,2.63671875,0,0
-2.34903491218574E-05,1.29007121358882E-05,2.63671875,0,0
-2.43509075517068E-05,1.25173755805008E-05,2.63671875,0,0
-2.43794947891729E-05,1.16032597361482E-05,2.63671875,0,0
-2.52485860983143E-05,1.16931223601568E-05,2.63671875,0,0
-2.54891110671451E-05,1.14541062430362E-05,2.63671875,0,0
-2.38251232076436E-05,1.05613462437759E-05,2.63671875,0,0
-2.43755821429659E-05,1.03690126707079E-05,2.63671875,0,0
-2.4181223125197E-05,1.00870784081053E-05,2.63671875,0,0
-2.49303338932805E-05,1.00075139926048E-05,2.63671875,0,0
-2.34370672842488E-05,9.51479978539282E-06,2.63671875,0,0
-2.47744610533118E-05,1.09509783214889E-05,2.63671875,0,0
-2.43463346123463E-05,1.17336176117533E-05,2.63671875,0,0
-2.42468613578239E-05,1.23745003293152E-05,2.63671875,0,0
-2.17153265111847E-05,1.19814785648487E-05,2.63671875,0,0
-2.09041299967794E-05,1.17349491119967E-05,2.63671875,0,0
-1.94817057490582E-05,1.12731831904966E-05,2.63671875,0,0
-2.00565154955257E-05,1.08876010926906E-05,2.63671875,0,0
-2.1452431610669E-05,1.10793353087502E-05,2.63671875,0,0
-2.27082946366863E-05,1.20744962259778E-05,2.63671875,0,0
-2.21202481043292E-05,1.24274574773153E-05,2.63671875,0,0
-2.11016540561104E-05,1.26992435980355E-05,2.63671875,0,0
-1.73088938026922E-05,9.9415419754223E-06,2.63671875,0,0
-2.48201449721819E-05,1.41236905619735E-05,2.63671875,0,0
-1.91326635103906E-05,1.14023960122722E-05,2.63671875,0,0
-2.35948318731971E-05,1.54349672811804E-05,2.63671875,0,0
-2.07909124583239E-05,1.38363466248848E-05,2.63671875,0,0
-2.40383724303683E-05,1.51378735608887E-05,2.63671875,0,0
-2.26038318942301E-05,1.27744315250311E-05,2.63671875,0,0
-2.36073774431134E-05,1.12455791168031E-05,2.63671875,0,0
-2.25418789341347E-05,1.07487367131398E-05,2.63671875,0,0
-2.22237322304863E-05,1.11251201815321E-05,2.63671875,0,0
-2.32562015298754E-05,1.25119022413855E-05,2.63671875,0,0
-2.44040638790466E-05,1.34284973682952E-05,2.63671875,0,0
-2.63468900811858E-05,1.4443758118432E-05,2.63671875,0,0
-2.484543256287E-05,1.47939472299186E-05,2.63671875,0,0
-2.44430138991447E-05,1.57786471390864E-05,2.63671875,0,0
-2.27408090722747E-05,1.50271735037677E-05,2.63671875,0,0
-2.34579274547286E-05,1.51280501086148E-05,2.63671875,0,0
-2.27691707550548E-05,1.4449638001679E-05,2.63671875,0,0
-2.42379537667148E-05,1.48370972965495E-05,2.63671875,0,0
-2.3899787265691E-05,1.48652634379687E-05,2.63671875,0,0
-2.3606668037246E-05,1.49177367347875E-05,2.63671875,0,0
-2.2005715436535E-05,1.27959474411909E-05,2.63671875,0,0
-2.24877185246442E-05,1.05200388134108E-05,2.63671875,0,0
-2.27515683945967E-05,8.41166274767602E-06,2.63671875,0,0
-2.41695906879613E-05,8.20499826659216E-06,2.63671875,0,0
-2.43658978433814E-05,9.74280737864319E-06,2.63671875,0,0
-2.21954833250493E-05,1.12032730612555E-05,2.63671875,0,0
-1.73001189978095E-05,9.40181780606508E-06,2.63671875,0,0
-2.60142005572561E-05,1.40027550514787E-05,2.63671875,0,0
-2.17244778468739E-05,1.05051713035209E-05,2.63671875,0,0
-2.67619980149902E-05,1.04018508864101E-05,2.63671875,0,0
-2.35213301493786E-05,6.00930161454016E-06,2.63671875,0,0
-2.63504098256817E-05,6.88920408720151E-06,2.63671875,0,0
-2.59881853708066E-05,7.14005818736041E-06,2.63671875,0,0
-2.78089883067878E-05,7.70564474805724E-06,2.63671875,0,0
-2.75919810519554E-05,6.50873153063003E-06,2.63671875,0,0
-2.76200789812719E-05,6.17768500887905E-06,2.63671875,0,0
-2.80791809927905E-05,7.18146156941657E-06,2.63671875,0,0
-2.740270429058E-05,8.24827384349192E-06,2.63671875,0,0
-2.68151561613195E-05,9.46543059399119E-06,2.63671875,0,0
-2.45074734266382E-05,1.00118259069859E-05,2.63671875,0,0
-2.50453540502349E-05,1.13293726826669E-05,2.63671875,0,0
-2.4611086701043E-05,1.08087897388032E-05,2.63671875,0,0
-2.55550021392992E-05,1.03451657196274E-05,2.63671875,0,0
-2.441280594212E-05,9.09511800273322E-06,2.63671875,0,0
-2.50545344897546E-05,9.22654908208642E-06,2.63671875,0,0
-2.5526283934596E-05,8.72451892064419E-06,2.63671875,0,0
-2.74882422672817E-05,8.72392683959333E-06,2.63671875,0,0
-2.68070980382618E-05,7.20214757166104E-06,2.63671875,0,0
-2.66915194515605E-05,6.5924091359193E-06,2.63671875,0,0
-2.64467016677372E-05,8.09556240710663E-06,2.63671875,0,0
-2.55703580478439E-05,1.08468420876306E-05,2.63671875,0,0
-2.24728828470688E-05,1.18685065899626E-05,2.63671875,0,0
-2.08229594136355E-05,1.13433043225086E-05,2.63671875,0,0
-1.75634140759939E-05,8.03500006441027E-06,2.63671875,0,0
-2.44363400270231E-05,1.16793507913826E-05,2.63671875,0,0
-1.85174394573551E-05,1.00959041446913E-05,2.63671875,0,0
-2.49156619247515E-05,1.38556551974034E-05,2.63671875,0,0
-2.28881144721527E-05,1.35823365781107E-05,2.63671875,0,0
-2.62126559391618E-05,1.48270046338439E-05,2.63671875,0,0
-2.51132696575951E-05,1.25128335639602E-05,2.63671875,0,0
-2.63212477875641E-05,1.08509384517674E-05,2.63671875,0,0
-2.50158173003001E-05,9.66256175161107E-06,2.63671875,0,0
-2.36575742746936E-05,1.11470117190038E-05,2.63671875,0,0
-2.28401913773268E-05,1.29759800984175E-05,2.63671875,0,0
-2.18341156141832E-05,1.3302143997862E-05,2.63671875,0,0
-2.29245652008103E-05,1.35855680127861E-05,2.63671875,0,0
-2.27067557716509E-05,1.38157192850485E-05,2.63671875,0,0
-2.34489343711175E-05,1.48796698340448E-05,2.63671875,0,0
-2.26708634727402E-05,1.4001268937136E-05,2.63671875,0,0
-2.46373056143057E-05,1.28683332150104E-05,2.63671875,0,0
-2.38424181588925E-05,1.11905137600843E-05,2.63671875,0,0
-2.3530319595011E-05,1.16192350105848E-05,2.63671875,0,0
-2.19060602830723E-05,1.13128062366741E-05,2.63671875,0,0
-2.21621139644412E-05,1.23708614410134E-05,2.63671875,0,0
-2.11876067623962E-05,1.37955385071109E-05,2.63671875,0,0
-2.19359044422163E-05,1.41827904371894E-05,2.63671875,0,0
-2.27160544454819E-05,1.1848886970256E-05,2.63671875,0,0
-2.36675932683283E-05,9.53774360823445E-06,2.63671875,0,0
-2.33684349950636E-05,7.93541767052375E-06,2.63671875,0,0
-2.29662182391621E-05,8.13155656942399E-06,2.63671875,0,0
-1.9750614228542E-05,8.44148053147364E-06,2.63671875,0,0
-2.89694471575785E-05,1.26536351672257E-05,2.63671875,0,0
-2.24807645281544E-05,9.59556382440496E-06,2.63671875,0,0
-2.63066085608443E-05,1.1615681614785E-05,2.63671875,0,0
-2.18916356971022E-05,1.07070864032721E-05,2.63671875,0,0
-2.52378267759923E-05,1.03988040791592E-05,2.63671875,0,0
-2.37451295106439E-05,7.8071961979731E-06,2.63671875,0,0
-2.47922052949434E-05,8.81749656400643E-06,2.63671875,0,0
-2.3822118237149E-05,9.06239165487932E-06,2.63671875,0,0
-2.31864942179527E-05,7.87541648605838E-06,2.63671875,0,0
-2.30707883019932E-05,6.62460251987795E-06,2.63671875,0,0
-2.22834496526048E-05,5.94031507716863E-06,2.63671875,0,0
-2.32678812608356E-05,7.42153861210682E-06,2.63671875,0,0
-2.23493589146528E-05,8.85604367795167E-06,2.63671875,0,0
-2.2728414478479E-05,1.0304929674021E-05,2.63671875,0,0
-2.06223921850324E-05,9.41243251872947E-06,2.63671875,0,0
-2.12191025639186E-05,9.44115799939027E-06,2.63671875,0,0
-2.12927971006138E-05,9.3507333076559E-06,2.63671875,0,0
-2.40199933614349E-05,9.16535373107763E-06,2.63671875,0,0
-2.39617638726486E-05,6.69732207825291E-06,2.63671875,0,0
-2.3525744836661E-05,4.81618599224021E-06,2.63671875,0,0
-2.19463345274562E-05,4.90875709147076E-06,2.63671875,0,0
-2.24847444769694E-05,7.08112838765373E-06,2.63671875,0,0
-2.2137290216051E-05,8.15742623672122E-06,2.63671875,0,0
-2.18581881199498E-05,1.00691950137843E-05,2.63671875,0,0
-2.2246831576922E-05,1.19812175398692E-05,2.63671875,0,0
-2.38315333263017E-05,1.24498783407034E-05,2.63671875,0,0
-1.96134660654934E-05,9.10644030227559E-06,2.63671875,0,0
-2.66742517851526E-05,1.35100435727509E-05,2.63671875,0,0
-1.8136959624826E-05,1.15102857307647E-05,2.63671875,0,0
-2.16685239138315E-05,1.43632341860211E-05,2.63671875,0,0
-1.71334013430169E-05,1.33427711261902E-05,2.63671875,0,0
-2.23894203372765E-05,1.61260231834603E-05,2.63671875,0,0
-2.29523175221402E-05,1.46232441693428E-05,2.63671875,0,0
-2.42719579546247E-05,1.31354754557833E-05,2.63671875,0,0
-2.30040641326923E-05,1.11421395558864E-05,2.63671875,0,0
-2.34840645134682E-05,1.12889156298479E-05,2.63671875,0,0
-2.5137826014543E-05,1.17725758173037E-05,2.63671875,0,0
-2.56478069786681E-05,1.15026168714394E-05,2.63671875,0,0
-2.65852413576795E-05,1.21718676382443E-05,2.63671875,0,0
-2.54729911830509E-05,1.28172714539687E-05,2.63671875,0,0
-2.70530217676423E-05,1.39080966619076E-05,2.63671875,0,0
-2.62185712927021E-05,1.23016607176396E-05,2.63671875,0,0
-2.62499415839557E-05,1.09922211777302E-05,2.63671875,0,0
-2.30024470511125E-05,9.47129228734411E-06,2.63671875,0,0
-2.16206062759738E-05,1.05222825368401E-05,2.63671875,0,0
-2.00487629626878E-05,1.14695103548001E-05,2.63671875,0,0
-2.14198207686422E-05,1.20369049909641E-05,2.63671875,0,0
-2.15297313843621E-05,1.04166601886391E-05,2.63671875,0,0
-2.27801883738721E-05,1.05756325865514E-05,2.63671875,0,0
-2.24853993131546E-05,1.2723176041618E-05,2.63671875,0,0
-2.19010580622125E-05,1.58175789692905E-05,2.63671875,0,0
-2.11730784940301E-05,1.7193284293171E-05,2.63671875,0,0
-2.1085934349685E-05,1.57121958181961E-05,2.63671875,0,0
-1.7854014004115E-05,1.23905101645505E-05,2.63671875,0,0
-2.57255687756697E-05,1.86595916602528E-05,2.63671875,0,0
-2.0039839000674E-05,1.46986712934449E-05,2.63671875,0,0
-2.44250786636258E-05,1.55795059981756E-05,2.63671875,0,0
-2.07927987503354E-05,9.93076355371159E-06,2.63671875,0,0
-2.40755271079252E-05,9.37713957682718E-06,2.63671875,0,0
-2.39879009313881E-05,8.80647530721035E-06,2.63671875,0,0
-2.64270038314862E-05,1.10081036837073E-05,2.63671875,0,0
-2.6212999728159E-05,9.8958853413933E-06,2.63671875,0,0
-2.62879657384474E-05,7.57194356992841E-06,2.63671875,0,0
-2.67458199232351E-05,5.87088425163529E-06,2.63671875,0,0
-2.6845074899029E-05,4.8264673750964E-06,2.63671875,0,0
-2.84220495814225E-05,5.51514403923647E-06,2.63671875,0,0
-2.78259540209547E-05,5.89775527259917E-06,2.63671875,0,0
-2.86919166683219E-05,7.38984044801327E-06,2.63671875,0,0
-2.79489831882529E-05,7.23878019925905E-06,2.63671875,0,0
-2.94864057650557E-05,8.468389751215E-06,2.63671875,0,0
-2.87249968096148E-05,9.31248086999403E-06,2.63671875,0,0
-2.86908652924467E-05,1.24498083096114E-05,2.63671875,0,0
-2.66819697571918E-05,1.33389448819798E-05,2.63671875,0,0
-2.70808923232835E-05,1.23672589324997E-05,2.63671875,0,0
-2.73331788775977E-05,9.49256082094507E-06,2.63671875,0,0
-2.88096707663499E-05,7.99594636191614E-06,2.63671875,0,0
-2.89505005639512E-05,7.86055898061022E-06,2.63671875,0,0
-2.88446808553999E-05,9.3902863227413E-06,2.63671875,0,0
-2.80455369647825E-05,9.91663637250895E-06,2.63671875,0,0
-2.64935461018467E-05,1.01641517176176E-05,2.63671875,0,0
-1.97379413293675E-05,9.00169015949359E-06,2.63671875,0,0
-2.75382899417309E-05,1.30182761495234E-05,2.63671875,0,0
-2.08700330404099E-05,9.50030153035186E-06,2.63671875,0,0
-2.6889496439253E-05,1.07273326648283E-05,2.63671875,0,0
-2.2254647774389E-05,8.80516381585039E-06,2.63671875,0,0
-2.44523889705306E-05,9.88462488749065E-06,2.63671875,0,0
-2.17626875382848E-05,8.85019835550338E-06,2.63671875,0,0
-2.24008781515295E-05,9.4509186965297E-06,2.63671875,0,0
-2.22779890464153E-05,8.37565767142223E-06,2.63671875,0,0
-2.35808201978216E-05,8.16796728031477E-06,2.63671875,0,0
-2.55979794019368E-05,1.01131672636257E-05,2.63671875,0,0
-2.49818749580299E-05,1.15002931124764E-05,2.63671875,0,0
-2.4441311325063E-05,1.29726076920633E-05,2.63671875,0,0
-2.20922956941649E-05,1.3084138117847E-05,2.63671875,0,0
-2.22977778321365E-05,1.2516179594968E-05,2.63671875,0,0
-2.14802657865221E-05,1.06721672636922E-05,2.63671875,0,0
-2.33609953284031E-05,1.04836608443293E-05,2.63671875,0,0
-2.23421484406572E-05,1.00100305644446E-05,2.63671875,0,0
-2.16455973713892E-05,1.01271598396124E-05,2.63671875,0,0
-1.93630730791483E-05,8.96938036021311E-06,2.63671875,0,0
-2.03423169296002E-05,9.35958360059885E-06,2.63671875,0,0
-2.12681879929733E-05,9.75064904196188E-06,2.63671875,0,0
-2.40505305555416E-05,9.25540189200547E-06,2.63671875,0,0
-2.62211924564326E-05,7.86166401667288E-06,2.63671875,0,0
-2.76283753919415E-05,7.65926688472973E-06,2.63671875,0,0
-2.67133800662123E-05,7.03225396136986E-06,2.63671875,0,0
-2.4541468519601E-05,7.04034209775273E-06,2.63671875,0,0
-1.85253393283347E-05,6.13220299783279E-06,2.63671875,0,0
-2.670423782547E-05,8.17657110019354E-06,2.63671875,0,0
-2.19039011426503E-05,6.51179925625911E-06,2.63671875,0,0
-2.68104395217961E-05,9.20698221307248E-06,2.63671875,0,0
-2.19703852053499E-05,8.2281057984801E-06,2.63671875,0,0
-2.54717615462141E-05,1.02177145890892E-05,2.63671875,0,0
-2.48442993324716E-05,9.96636481431779E-06,2.63671875,0,0
-2.6375702873338E-05,9.82400160864927E-06,2.63671875,0,0
-2.44101211137604E-05,9.8429973149905E-06,2.63671875,0,0
-2.20618530875072E-05,1.10455230242223E-05,2.63671875,0,0
-2.04908919840818E-05,1.31015040096827E-05,2.63671875,0,0
-1.87873611139366E-05,1.39679204949061E-05,2.63671875,0,0
-1.93725791177712E-05,1.39679823405459E-05,2.63671875,0,0
-1.94468611880438E-05,1.26642262330279E-05,2.63671875,0,0
-2.17109409277327E-05,1.2834989320254E-05,2.63671875,0,0
-2.16516145883361E-05,1.26876029753475E-05,2.63671875,0,0
-2.35835050261812E-05,1.20952490760828E-05,2.63671875,0,0
-2.30734822252998E-05,1.10294695332414E-05,2.63671875,0,0
-2.33413356909296E-05,1.15725497380481E-05,2.63671875,0,0
-2.10465004784055E-05,1.1470178833406E-05,2.63671875,0,0
-2.05974356504157E-05,1.14618705993053E-05,2.63671875,0,0
-2.00197337107966E-05,1.06615079857875E-05,2.63671875,0,0
-2.18147179111838E-05,1.10743258119328E-05,2.63671875,0,0
-2.25877010961995E-05,1.23120053103776E-05,2.63671875,0,0
-2.29525248869322E-05,1.26008699226077E-05,2.63671875,0,0
-2.24121504288632E-05,1.19698424896342E-05,2.63671875,0,0
-2.17690194403986E-05,1.18616899271728E-05,2.63671875,0,0
-1.78436584974406E-05,9.3859225671622E-06,2.63671875,0,0
-2.62628964264877E-05,1.40195261337794E-05,2.63671875,0,0
-2.10445123229874E-05,1.2006600627501E-05,2.63671875,0,0
-2.49277145485394E-05,1.45043040902237E-05,2.63671875,0,0
-2.16464995901333E-05,1.0029159966507E-05,2.63671875,0,0
-2.71690332738217E-05,8.88373142515775E-06,2.63671875,0,0
-2.78657316812314E-05,9.23830793908564E-06,2.63671875,0,0
-2.79872347164201E-05,1.38054538183496E-05,2.63671875,0,0
-2.44984403252602E-05,1.56284713739296E-05,2.63671875,0,0
-2.26553311222233E-05,1.38431387313176E-05,2.63671875,0,0
-2.25552867050283E-05,1.1607072337938E-05,2.63671875,0,0
-2.2468051611213E-05,1.00960478448542E-05,2.63671875,0,0
-2.34571070905076E-05,9.46890759223606E-06,2.63671875,0,0
-2.20468755287584E-05,8.8635451902519E-06,2.63671875,0,0
-2.34069284488214E-05,1.01192845249898E-05,2.63671875,0,0
-2.36151554418029E-05,1.08270996861393E-05,2.63671875,0,0
-2.45817846007412E-05,1.32031418615952E-05,2.63671875,0,0
-2.18888890231028E-05,1.47244627441978E-05,2.63671875,0,0
-2.04506795853376E-05,1.59323390107602E-05,2.63671875,0,0
-1.82796411536401E-05,1.49713905557292E-05,2.63671875,0,0
-1.86235447472427E-05,1.44897203426808E-05,2.63671875,0,0
-1.84833970706677E-05,1.35458849399583E-05,2.63671875,0,0
-1.93352425412741E-05,1.21480361485737E-05,2.63671875,0,0
-1.96588061953662E-05,9.96111884887796E-06,2.63671875,0,0
-2.10663092730101E-05,9.48965953284642E-06,2.63671875,0,0
-2.29393972404068E-05,9.35475873120595E-06,2.63671875,0,0
-2.49401800829219E-05,9.41490361583419E-06,2.63671875,0,0
-2.13739476748742E-05,9.3990038294578E-06,2.63671875,0,0
-2.98561826639343E-05,1.46614511322696E-05,2.63671875,0,0
-2.17600554606179E-05,1.19659898700775E-05,2.63671875,0,0
-2.70361033472E-05,1.40904867294012E-05,2.63671875,0,0
-2.25372004933888E-05,1.30959688249277E-05,2.63671875,0,0
-2.54110873356694E-05,1.46599259096547E-05,2.63671875,0,0
-2.2704547518515E-05,1.33278927023639E-05,2.63671875,0,0
-2.41768157138722E-05,1.29430763990968E-05,2.63671875,0,0
-2.46727668127278E-05,1.25549840959138E-05,2.63671875,0,0
-2.58284908341011E-05,1.32668628793908E-05,2.63671875,0,0
-2.69883221335476E-05,1.39242292789277E-05,2.63671875,0,0
-2.70214040938299E-05,1.33884377646609E-05,2.63671875,0,0
-2.83749814116163E-05,1.39734174808837E-05,2.63671875,0,0
-2.68008534476394E-05,1.29897589431494E-05,2.63671875,0,0
-2.71604549197946E-05,1.13868545668083E-05,2.63671875,0,0
-2.57601714110933E-05,8.62155957292998E-06,2.63671875,0,0
-2.71441385848448E-05,8.22593301563757E-06,2.63671875,0,0
-2.67645264102612E-05,9.12467112357263E-06,2.63671875,0,0
-2.80179392575519E-05,1.16563787742052E-05,2.63671875,0,0
-2.56838411587523E-05,1.24055486594443E-05,2.63671875,0,0
-2.50461289397208E-05,1.2162689017714E-05,2.63671875,0,0
-2.45241826632991E-05,1.05026892924798E-05,2.63671875,0,0
-2.56755338341463E-05,9.88310785032809E-06,2.63671875,0,0
-2.56139119301224E-05,1.04422842923668E-05,2.63671875,0,0
-2.5995042960858E-05,1.0432003364258E-05,2.63671875,0,0
-2.57624578807736E-05,9.66621519182809E-06,2.63671875,0,0
-2.5572449885658E-05,1.00664256024174E-05,2.63671875,0,0
-2.16563748836052E-05,9.39501660468522E-06,2.63671875,0,0
-3.10219220409635E-05,1.34824795168242E-05,2.63671875,0,0
-2.2830825400888E-05,9.73704663920216E-06,2.63671875,0,0
-2.78479801636422E-05,1.19929109132499E-05,2.63671875,0,0
-2.30972927965922E-05,1.02677477116231E-05,2.63671875,0,0
-2.47251336986665E-05,1.1824959074147E-05,2.63671875,0,0
-2.23422939598095E-05,1.20857293950394E-05,2.63671875,0,0
-2.47357820626348E-05,1.28538313219906E-05,2.63671875,0,0
-2.63060701399809E-05,1.21188413686468E-05,2.63671875,0,0
-2.71350727416575E-05,1.25971473607933E-05,2.63671875,0,0
-2.61209261225304E-05,1.34290830828832E-05,2.63671875,0,0
-2.37828644458205E-05,1.27284420159413E-05,2.63671875,0,0
-2.43571812461596E-05,1.24324587886804E-05,2.63671875,0,0
-2.39457676798338E-05,1.17246190711739E-05,2.63671875,0,0
-2.4835502699716E-05,1.27491684907E-05,2.63671875,0,0
-2.23440583795309E-05,1.18307143566199E-05,2.63671875,0,0
-2.13598432310391E-05,9.77596027951222E-06,2.63671875,0,0
-1.88069061550777E-05,6.6996508394368E-06,2.63671875,0,0
-1.99173282453557E-05,6.15401586401276E-06,2.63671875,0,0
-2.0616345864255E-05,6.02480713496334E-06,2.63671875,0,0
-2.34545768762473E-05,6.25633401796222E-06,2.63671875,0,0
-2.36380346905207E-05,5.72870567339123E-06,2.63671875,0,0
-2.22335747821489E-05,6.45452564640436E-06,2.63671875,0,0
-2.04471671167994E-05,7.82188544690143E-06,2.63671875,0,0
-2.17184297071071E-05,8.81991945789196E-06,2.63671875,0,0
-2.29019042308209E-05,8.15988369140541E-06,2.63671875,0,0
-2.33233040489722E-05,7.35828507458791E-06,2.63671875,0,0
-1.97611589101143E-05,5.86280430070474E-06,2.63671875,0,0
-2.89595791400643E-05,8.05008767201798E-06,2.63671875,0,0
-2.29959969146876E-05,6.60055638945778E-06,2.63671875,0,0
-2.75388210866367E-05,8.65197671373608E-06,2.63671875,0,0
-2.31352914852323E-05,6.71902080284781E-06,2.63671875,0,0
-2.58238706010161E-05,6.60548766973079E-06,2.63671875,0,0
-2.41410543821985E-05,5.13689246872673E-06,2.63671875,0,0
-2.60514480032725E-05,6.85881877870997E-06,2.63671875,0,0
-2.58272248174762E-05,9.46628824749496E-06,2.63671875,0,0
-2.47240132011939E-05,1.05688859548536E-05,2.63671875,0,0
-2.35249208344612E-05,1.00363313322305E-05,2.63671875,0,0
-2.22845301323105E-05,8.53393339639297E-06,2.63671875,0,0
-2.34208255278645E-05,7.57414318286465E-06,2.63671875,0,0
-2.30366949836025E-05,6.36808954368462E-06,2.63671875,0,0
-2.42261321545811E-05,6.41750375507399E-06,2.63671875,0,0
-2.23163551709149E-05,7.45030911275535E-06,2.63671875,0,0
-2.17720462387661E-05,1.10828041215427E-05,2.63671875,0,0
-1.96538057934958E-05,1.42493654493592E-05,2.63671875,0,0
-1.99081059690798E-05,1.57071008288767E-05,2.63671875,0,0
-1.82190178747987E-05,1.44306432048324E-05,2.63671875,0,0
-1.75813711393857E-05,1.4213886061043E-05,2.63671875,0,0
-1.65464225574397E-05,1.47516120705404E-05,2.63671875,0,0
-1.81027771759545E-05,1.44064915730269E-05,2.63671875,0,0
-1.91948674910236E-05,1.14999320430798E-05,2.63671875,0,0
-2.03555882762885E-05,9.62072226684541E-06,2.63671875,0,0
-2.05820324481465E-05,1.02038638942759E-05,2.63671875,0,0
-2.00570739252726E-05,1.10019236672088E-05,2.63671875,0,0
-1.81376162800007E-05,8.02107388153672E-06,2.63671875,0,0
-2.79409177892376E-05,9.71999088505981E-06,2.63671875,0,0
-2.26409556489671E-05,7.47378589949221E-06,2.63671875,0,0
-2.54594633588567E-05,1.35758818942122E-05,2.63671875,0,0
-2.17835276998812E-05,1.35776062961668E-05,2.63671875,0,0
-2.47151110670529E-05,1.42641438287683E-05,2.63671875,0,0
-2.40674417000264E-05,1.20408176371711E-05,2.63671875,0,0
-2.5180945158354E-05,1.31974011310376E-05,2.63671875,0,0
-2.3556513042422E-05,1.3429174941848E-05,2.63671875,0,0
-2.21441132453037E-05,1.12200332296197E-05,2.63671875,0,0
-2.16838052438106E-05,9.10221297090175E-06,2.63671875,0,0
-2.14032370422501E-05,8.14913073554635E-06,2.63671875,0,0
-2.31636222451925E-05,9.03671843843767E-06,2.63671875,0,0
-2.34136186918477E-05,1.03259908428299E-05,2.63671875,0,0
-2.4719334760448E-05,1.26645445561735E-05,2.63671875,0,0
-2.35464485740522E-05,1.32419909277814E-05,2.63671875,0,0
-2.36649029830005E-05,1.3769686120213E-05,2.63671875,0,0
-2.18784134631278E-05,1.19403757707914E-05,2.63671875,0,0
-2.24599825742189E-05,1.08605518107652E-05,2.63671875,0,0
-2.1958427169011E-05,1.0650460353645E-05,2.63671875,0,0
-2.18611257878365E-05,1.22220390039729E-05,2.63671875,0,0
-2.07663943001535E-05,1.28102947201114E-05,2.63671875,0,0
-2.11670412681997E-05,1.33339462990989E-05,2.63671875,0,0
-2.13237181014847E-05,1.28811852846411E-05,2.63671875,0,0
-2.3672653696849E-05,1.19425349112134E-05,2.63671875,0,0
-2.65175312961219E-05,1.13859059638344E-05,2.63671875,0,0
-2.72380875685485E-05,1.06736060843104E-05,2.63671875,0,0
-2.13703478948446E-05,6.95733888278482E-06,2.63671875,0,0
-2.90713160211453E-05,9.72487214312423E-06,2.63671875,0,0
-2.12430568353739E-05,8.7348889792338E-06,2.63671875,0,0
-2.79352952929912E-05,1.34636175062042E-05,2.63671875,0,0
-2.35073894145899E-05,1.3048627806711E-05,2.63671875,0,0
-2.65533344645519E-05,1.24803273138241E-05,2.63671875,0,0
-2.3987440727069E-05,1.04901191662066E-05,2.63671875,0,0
-2.49173572228756E-05,1.1160255780851E-05,2.63671875,0,0
-2.36979885812616E-05,1.12148591142613E-05,2.63671875,0,0
-2.34588624152821E-05,1.10180490082712E-05,2.63671875,0,0
-2.44161346927285E-05,1.07437326732907E-05,2.63671875,0,0
-2.3833441446186E-05,1.10668788693147E-05,2.63671875,0,0
-2.40644421864999E-05,1.35739182951511E-05,2.63671875,0,0
-2.24191917368444E-05,1.50147388922051E-05,2.63671875,0,0
-2.37939002545318E-05,1.5155334949668E-05,2.63671875,0,0
-2.34333510888973E-05,1.29225254568155E-05,2.63671875,0,0
-2.58748150372412E-05,1.16571036414825E-05,2.63671875,0,0
-2.54674960160628E-05,1.06819143184111E-05,2.63671875,0,0
-2.66024144366384E-05,1.01185787571012E-05,2.63671875,0,0
-2.60578726738459E-05,8.63814784679562E-06,2.63671875,0,0
-2.71005683316616E-05,9.30545684241224E-06,2.63671875,0,0
-2.56741059274646E-05,9.76475712377578E-06,2.63671875,0,0
-2.59282041952247E-05,8.28013162390562E-06,2.63671875,0,0
-2.64238060481148E-05,6.67594395054039E-06,2.63671875,0,0
-2.7225847588852E-05,7.91486581874778E-06,2.63671875,0,0
-2.73083605861757E-05,9.93090361589566E-06,2.63671875,0,0
-2.66110801021568E-05,1.06145635072608E-05,2.63671875,0,0
-2.04316002054838E-05,7.21432979844394E-06,2.63671875,0,0
-2.84923680737847E-05,7.23305447536404E-06,2.63671875,0,0
-2.07353368750773E-05,2.03382683139353E-06,2.63671875,0,0
-2.64737282122951E-05,4.33187778980937E-06,2.63671875,0,0
-2.30339574045502E-05,5.29300132257049E-06,2.63671875,0,0
-2.48302712861914E-05,1.06834495454677E-05,2.63671875,0,0
-2.07703142223181E-05,1.07779769678018E-05,2.63671875,0,0
-2.17979031731375E-05,9.70809196587652E-06,2.63671875,0,0
-2.3008538846625E-05,7.99421013653046E-06,2.63671875,0,0
-2.52591435128124E-05,8.08603635960026E-06,2.63671875,0,0
-2.62860903603723E-05,8.40536176838214E-06,2.63671875,0,0
-2.47110929194605E-05,7.98880864749663E-06,2.63671875,0,0
-2.39015662373276E-05,8.24599283077987E-06,2.63671875,0,0
-2.15099917113548E-05,8.69319046614692E-06,2.63671875,0,0
-2.25434105232125E-05,1.02734302345198E-05,2.63671875,0,0
-2.22149355977308E-05,9.61922523856629E-06,2.63671875,0,0
-2.36326231970452E-05,8.51798995427089E-06,2.63671875,0,0
-2.20012680074433E-05,5.88846023674705E-06,2.63671875,0,0
-2.26268894039094E-05,6.43059593130602E-06,2.63671875,0,0
-2.26971715164837E-05,8.36152958072489E-06,2.63671875,0,0
-2.50167740887264E-05,1.03573447631788E-05,2.63671875,0,0
-2.50569955824176E-05,9.95901700662216E-06,2.63671875,0,0
-2.48639407800511E-05,9.54543520492734E-06,2.63671875,0,0
-2.26023876166437E-05,1.00275383374537E-05,2.63671875,0,0
-2.10472517210292E-05,1.18253610708052E-05,2.63671875,0,0
-2.0898110960843E-05,1.29191921587335E-05,2.63671875,0,0
-2.20465117308777E-05,1.27621169667691E-05,2.63671875,0,0
-1.92041352420347E-05,8.17392538010608E-06,2.63671875,0,0
-2.72775832854677E-05,1.13450396383996E-05,2.63671875,0,0
-2.06779222935438E-05,1.03666825452819E-05,2.63671875,0,0
-2.54448641499039E-05,1.50029445649125E-05,2.63671875,0,0
-2.12630784517387E-05,1.37483393700677E-05,2.63671875,0,0
-2.36415689869318E-05,1.51666745296097E-05,2.63671875,0,0
-2.28103690460557E-05,1.41266673381324E-05,2.63671875,0,0
-2.64509453700157E-05,1.47325627040118E-05,2.63671875,0,0
-2.70210475719068E-05,1.41609043566859E-05,2.63671875,0,0
-2.68349795078393E-05,1.34912716021063E-05,2.63671875,0,0
-2.54401347774547E-05,1.37239640025655E-05,2.63671875,0,0
-2.27033197006676E-05,1.36106318677776E-05,2.63671875,0,0
-2.29233119171113E-05,1.35653554025339E-05,2.63671875,0,0
-2.31613448704593E-05,1.26542945508845E-05,2.63671875,0,0
-2.55555969488341E-05,1.29654636111809E-05,2.63671875,0,0
-2.48739779635798E-05,1.26084751173039E-05,2.63671875,0,0
-2.55191098403884E-05,1.25080141515355E-05,2.63671875,0,0
-2.32995462283725E-05,1.04779692264856E-05,2.63671875,0,0
-2.36077721638139E-05,8.91572835826082E-06,2.63671875,0,0
-2.34823783102911E-05,6.8516769715643E-06,2.63671875,0,0
-2.48752694460563E-05,6.8000704231963E-06,2.63671875,0,0
-2.38479897234356E-05,6.99792462910409E-06,2.63671875,0,0
-2.26566535275197E-05,6.84141878082301E-06,2.63671875,0,0
-2.05063261091709E-05,5.50268123333808E-06,2.63671875,0,0
-2.05906908377074E-05,5.06150945511763E-06,2.63671875,0,0
-2.22092312469613E-05,6.38966184851597E-06,2.63671875,0,0
-2.35684910876444E-05,8.29174859973136E-06,2.63671875,0,0
-1.94779022422154E-05,6.81624351273058E-06,2.63671875,0,0
-2.8058426323696E-05,9.27256405702792E-06,2.63671875,0,0
-2.16720345633803E-05,6.81018082104856E-06,2.63671875,0,0
-2.66937113337917E-05,8.72184227773687E-06,2.63671875,0,0
-2.35748830164084E-05,6.91897002980113E-06,2.63671875,0,0
-2.687687992875E-05,7.77496825321577E-06,2.63671875,0,0
-2.48676496994449E-05,8.62559227243764E-06,2.63671875,0,0
-2.65490161837079E-05,1.14574531835387E-05,2.63671875,0,0
-2.66013466898585E-05,1.19646010716679E-05,2.63671875,0,0
-2.67007690126775E-05,1.22219917102484E-05,2.63671875,0,0
-2.6985542717739E-05,1.32453551486833E-05,2.63671875,0,0
-2.61265849985648E-05,1.39323328767205E-05,2.63671875,0,0
-2.61869863606989E-05,1.53999571921304E-05,2.63671875,0,0
-2.60495780821657E-05,1.60274303198094E-05,2.63671875,0,0
-2.83853514702059E-05,1.64201974257594E-05,2.63671875,0,0
-2.7741773010348E-05,1.45895028254017E-05,2.63671875,0,0
-2.88670144072967E-05,1.27325183711946E-05,2.63671875,0,0
-2.76397058769362E-05,1.04969012681977E-05,2.63671875,0,0
-2.76031405519461E-05,9.83982954494422E-06,2.63671875,0,0
-2.55401973845437E-05,8.62009255797602E-06,2.63671875,0,0
-2.57810734183295E-05,7.68042718846118E-06,2.63671875,0,0
-2.54072383540915E-05,7.33488104742719E-06,2.63671875,0,0
-2.52488935075235E-05,8.63205787027255E-06,2.63671875,0,0
-2.35867137234891E-05,9.43093073146883E-06,2.63671875,0,0
-2.46391391556244E-05,1.00837023637723E-05,2.63671875,0,0
-2.72667803074E-05,1.09107577372924E-05,2.63671875,0,0
-2.82935998257017E-05,1.17889903776813E-05,2.63671875,0,0
-2.23327151616104E-05,9.11292499949923E-06,2.63671875,0,0
-3.19949540426023E-05,1.2712959687633E-05,2.63671875,0,0
-2.39416422118666E-05,8.85577355802525E-06,2.63671875,0,0
-2.70302789431298E-05,1.02192252597888E-05,2.63671875,0,0
-2.00835656869458E-05,7.67046094551915E-06,2.63671875,0,0
-2.31345766223967E-05,9.41871712711873E-06,2.63671875,0,0
-2.13660114241065E-05,1.00135248430888E-05,2.63671875,0,0
-2.30284513236256E-05,1.19087389975903E-05,2.63671875,0,0
-2.19981920963619E-05,1.16094488475937E-05,2.63671875,0,0
-2.09927165997215E-05,1.21121966003557E-05,2.63671875,0,0
-2.13053426705301E-05,1.33301709865918E-05,2.63671875,0,0
-2.26888678298565E-05,1.33558996822103E-05,2.63671875,0,0
-2.49161184910918E-05,1.33116154756863E-05,2.63671875,0,0
-2.3507245714427E-05,1.15567818284035E-05,2.63671875,0,0
-2.32005368161481E-05,9.9294375104364E-06,2.63671875,0,0
-2.03959771170048E-05,9.27174551179633E-06,2.63671875,0,0
-2.18383956962498E-05,1.17395584311453E-05,2.63671875,0,0
-2.22061134991236E-05,1.29652153191273E-05,2.63671875,0,0
-2.38060802075779E-05,1.41080090543255E-05,2.63671875,0,0
-2.16550924960757E-05,1.35690061142668E-05,2.63671875,0,0
-2.14307256101165E-05,1.33045823531575E-05,2.63671875,0,0
-2.09457612072583E-05,1.29472791741136E-05,2.63671875,0,0
-2.22462549572811E-05,1.36330763780279E-05,2.63671875,0,0
-2.22455637413077E-05,1.46426073115435E-05,2.63671875,0,0
-2.22184662561631E-05,1.50721207319293E-05,2.63671875,0,0
-2.2411635654862E-05,1.3940931239631E-05,2.63671875,0,0
-2.39962246268988E-05,1.41969230753602E-05,2.63671875,0,0
-2.03053696168354E-05,1.18474590635742E-05,2.63671875,0,0
-2.93402044917457E-05,1.70961975527462E-05,2.63671875,0,0
-2.27586078835884E-05,1.37220304168295E-05,2.63671875,0,0
-2.6962658012053E-05,1.64158464031061E-05,2.63671875,0,0
-2.16974622162525E-05,1.30394419102231E-05,2.63671875,0,0
-2.33441296586534E-05,1.4225648556021E-05,2.63671875,0,0
-2.12884442589711E-05,1.22946785268141E-05,2.63671875,0,0
-2.35789757425664E-05,1.29532108985586E-05,2.63671875,0,0
-2.38938391703414E-05,1.25818041851744E-05,2.63671875,0,0
-2.53379821515409E-05,1.21582606880111E-05,2.63671875,0,0
-2.54707047133707E-05,1.17169893201208E-05,2.63671875,0,0
-2.34658673434751E-05,1.13279447759851E-05,2.63671875,0,0
-2.30108053074218E-05,1.2143491403549E-05,2.63671875,0,0
-2.14532483369112E-05,1.06394772956264E-05,2.63671875,0,0
-2.24879586312454E-05,9.93848061625613E-06,2.63671875,0,0
-2.15587042475818E-05,9.15083546715323E-06,2.63671875,0,0
-2.34552917390829E-05,1.14103613668703E-05,2.63671875,0,0
-2.26650954573415E-05,1.28298470372101E-05,2.63671875,0,0
-2.27156197070144E-05,1.39468120323727E-05,2.63671875,0,0
-2.06079457711894E-05,1.19393116619904E-05,2.63671875,0,0
-2.04880288947606E-05,9.65252002060879E-06,2.63671875,0,0
-2.01606071641436E-05,7.91386355558643E-06,2.63671875,0,0
-2.2058904505684E-05,9.09817208594177E-06,2.63671875,0,0
-2.29443739954149E-05,9.2214577307459E-06,2.63671875,0,0
-2.27955642913003E-05,9.40073005040176E-06,2.63671875,0,0
-2.08276560442755E-05,1.0941161235678E-05,2.63671875,0,0
-1.9856022845488E-05,1.08674212242477E-05,2.63671875,0,0
-1.74622873601038E-05,6.00938756178948E-06,2.63671875,0,0
-2.64427217189223E-05,7.44594490242889E-06,2.63671875,0,0
-2.21562331716996E-05,6.87518604536308E-06,2.63671875,0,0
-2.65413509623613E-05,1.18826583275222E-05,2.63671875,0,0
-2.35208608501125E-05,1.17581921585952E-05,2.63671875,0,0
-2.61290169873973E-05,1.23793961392948E-05,2.63671875,0,0
-2.36868272622814E-05,1.20448639790993E-05,2.63671875,0,0
-2.47940461122198E-05,1.36642020152067E-05,2.63671875,0,0
-2.69674528681207E-05,1.21035855045193E-05,2.63671875,0,0
-2.93500288535142E-05,9.70758446783293E-06,2.63671875,0,0
-3.03659035125747E-05,8.85832287167432E-06,2.63671875,0,0
-2.95440913760103E-05,9.21243827178841E-06,2.63671875,0,0
-2.96514936053427E-05,1.00237029982964E-05,2.63671875,0,0
-2.78421157418052E-05,1.06195457192371E-05,2.63671875,0,0
-2.83527569990838E-05,1.21665971164475E-05,2.63671875,0,0
-2.74899630312575E-05,1.29705640574684E-05,2.63671875,0,0
-2.77157269010786E-05,1.43156839840231E-05,2.63671875,0,0
-2.62012108578347E-05,1.2776215953636E-05,2.63671875,0,0
-2.67640261881752E-05,9.78230582404649E-06,2.63671875,0,0
-2.61918066826183E-05,5.86567102800473E-06,2.63671875,0,0
-2.68281000899151E-05,4.77206231153104E-06,2.63671875,0,0
-2.65164326265221E-05,6.0389720601961E-06,2.63671875,0,0
-2.73619716608664E-05,8.30803764984012E-06,2.63671875,0,0
-2.8133728847024E-05,1.016780424834E-05,2.63671875,0,0
-2.85490132228006E-05,1.23944664665032E-05,2.63671875,0,0
-2.70519303740002E-05,1.25153455883265E-05,2.63671875,0,0
-2.53213365795091E-05,1.11373346953769E-05,2.63671875,0,0
-1.94729291251861E-05,7.2229281613545E-06,2.63671875,0,0
-2.74066278507235E-05,9.98737323243404E-06,2.63671875,0,0
-2.07114426302724E-05,8.57885879668174E-06,2.63671875,0,0
-2.59512034972431E-05,9.78761636361014E-06,2.63671875,0,0
-2.18454442801885E-05,4.43323187937494E-06,2.63671875,0,0
-2.44690691033611E-05,3.4118863823096E-06,2.63671875,0,0
-2.21429891098524E-05,1.75717286765575E-06,2.63671875,0,0
-2.25506828428479E-05,2.69350471171492E-06,2.63671875,0,0
-2.09479676414048E-05,4.1216958379664E-06,2.63671875,0,0
-2.06639560929034E-05,5.48559637536528E-06,2.63671875,0,0
-2.10465987038333E-05,6.26447535978514E-06,2.63671875,0,0
-2.06277436518576E-05,6.27895815341617E-06,2.63671875,0,0
-2.12012673728168E-05,7.6827991506434E-06,2.63671875,0,0
-2.01122784346808E-05,8.09787252364913E-06,2.63671875,0,0
-2.14104129554471E-05,8.06163279776229E-06,2.63671875,0,0
-2.03810359380441E-05,7.07488788975752E-06,2.63671875,0,0
-2.12305512832245E-05,7.74230647948571E-06,2.63671875,0,0
-1.98479101527482E-05,7.6357064244803E-06,2.63671875,0,0
-2.02121264010202E-05,7.59368685976369E-06,2.63671875,0,0
-1.87892892427044E-05,6.30627891951008E-06,2.63671875,0,0
-1.97125154954847E-05,5.78699427933316E-06,2.63671875,0,0
-2.02876235562144E-05,4.53328675575904E-06,2.63671875,0,0
-2.16369007830508E-05,3.19664241033024E-06,2.63671875,0,0
-2.11763799597975E-05,3.04492073155416E-06,2.63671875,0,0
-2.09552636079025E-05,5.53965492144926E-06,2.63671875,0,0
-1.97070821741363E-05,8.43792895466322E-06,2.63671875,0,0
-1.82005223905435E-05,9.98408813757123E-06,2.63671875,0,0
-1.55475299834507E-05,8.03346483735368E-06,2.63671875,0,0
-2.45323353738058E-05,1.16805776997353E-05,2.63671875,0,0
-2.17322303797118E-05,9.84187590802321E-06,2.63671875,0,0
-2.49065160460304E-05,1.32361556097749E-05,2.63671875,0,0
-2.05042852030601E-05,1.1974036169704E-05,2.63671875,0,0
-2.20956608245615E-05,1.36872977236635E-05,2.63671875,0,0
-2.13545863516629E-05,1.40452802952495E-05,2.63671875,0,0
-2.25775456783595E-05,1.47572691275855E-05,2.63671875,0,0
-2.18349232454784E-05,1.44567657116568E-05,2.63671875,0,0
-2.07426746783312E-05,1.39381863846211E-05,2.63671875,0,0
-2.00335889530834E-05,1.34956862893887E-05,2.63671875,0,0
-2.04306998057291E-05,1.33698249555891E-05,2.63671875,0,0
-2.36155301536201E-05,1.43177348945756E-05,2.63671875,0,0
-2.54758833762025E-05,1.48337312566582E-05,2.63671875,0,0
-2.75962829618948E-05,1.56703372340417E-05,2.63671875,0,0
-2.69564734480809E-05,1.46635493365466E-05,2.63671875,0,0
-2.73046171059832E-05,1.40457987072296E-05,2.63671875,0,0
-2.64428908849368E-05,1.28922938529286E-05,2.63671875,0,0
-2.73606656264747E-05,1.25079168356024E-05,2.63671875,0,0
-2.69238626060542E-05,1.11655153887114E-05,2.63671875,0,0
-2.74167159659555E-05,1.06117668110528E-05,2.63671875,0,0
-2.69804913841654E-05,1.10792843770469E-05,2.63671875,0,0
-2.71785265795188E-05,1.23343897939776E-05,2.63671875,0,0
-2.69160373136401E-05,1.15222910608281E-05,2.63671875,0,0
-2.71174430963583E-05,1.03504680737387E-05,2.63671875,0,0
-2.73476453003241E-05,9.03975069377339E-06,2.63671875,0,0
-2.82305172731867E-05,8.31736906548031E-06,2.63671875,0,0
-2.24463037739042E-05,7.49226501284284E-06,2.63671875,0,0
-3.19496029987931E-05,1.19544101835345E-05,2.63671875,0,0
-2.40620574913919E-05,1.04038954304997E-05,2.63671875,0,0
-2.93274260911858E-05,1.15502552944236E-05,2.63671875,0,0
-2.35705247177975E-05,8.87945225258591E-06,2.63671875,0,0
-2.57060564763378E-05,9.71261761151254E-06,2.63671875,0,0
-2.23065962927649E-05,9.41746657190379E-06,2.63671875,0,0
-2.31871836149367E-05,9.22244180401322E-06,2.63671875,0,0
-2.19214416574687E-05,8.86664565769024E-06,2.63671875,0,0
-2.09682038985193E-05,9.77067975327373E-06,2.63671875,0,0
-2.1442276192829E-05,1.16699056889047E-05,2.63671875,0,0
-2.15799518628046E-05,1.22155679491698E-05,2.63671875,0,0
-2.25288167712279E-05,1.23989457279094E-05,2.63671875,0,0
-2.08692999876803E-05,1.3013919669902E-05,2.63671875,0,0
-2.18202731048223E-05,1.49028810483287E-05,2.63671875,0,0
-2.08884266612586E-05,1.51743797687232E-05,2.63671875,0,0
-2.23907063627848E-05,1.58670954988338E-05,2.63671875,0,0
-2.15389536606381E-05,1.63066306413384E-05,2.63671875,0,0
-2.3184065867099E-05,1.67933867487591E-05,2.63671875,0,0
-2.25457824853947E-05,1.54360532178544E-05,2.63671875,0,0
-2.30836012633517E-05,1.39855073939543E-05,2.63671875,0,0
-2.17754695768235E-05,1.32301393023226E-05,2.63671875,0,0
-2.0790796043002E-05,1.35499394673388E-05,2.63671875,0,0
-1.89832717296667E-05,1.31188808154548E-05,2.63671875,0,0
-1.88908124982845E-05,1.29899790408672E-05,2.63671875,0,0
-2.01158709387528E-05,1.37529959829408E-05,2.63671875,0,0
-2.19075045606587E-05,1.31685956148431E-05,2.63671875,0,0
-1.86776123882737E-05,8.98144571692683E-06,2.63671875,0,0
-2.68798012257321E-05,1.29090913105756E-05,2.63671875,0,0
-2.11846927413717E-05,9.91852994047804E-06,2.63671875,0,0
-2.54111855610972E-05,1.13017631520052E-05,2.63671875,0,0
-2.05946507776389E-05,8.75218211149331E-06,2.63671875,0,0
-2.35437055380316E-05,1.01972282209317E-05,2.63671875,0,0
-2.3063927073963E-05,8.93365904630627E-06,2.63671875,0,0
-2.52133468165994E-05,1.00613142421935E-05,2.63671875,0,0
-2.48633223236538E-05,1.04080463643186E-05,2.63671875,0,0
-2.42110054387013E-05,9.79058222583262E-06,2.63671875,0,0
-2.35087863984518E-05,7.67816436564317E-06,2.63671875,0,0
-2.29814468184486E-05,5.89548790230765E-06,2.63671875,0,0
-2.38755219470477E-05,8.13785391073907E-06,2.63671875,0,0
-2.24603627430042E-05,1.04836171885836E-05,2.63671875,0,0
-2.38387674471596E-05,1.24318403322832E-05,2.63671875,0,0
-2.45644241658738E-05,1.20189115477842E-05,2.63671875,0,0
-2.70332093350589E-05,1.19780934255687E-05,2.63671875,0,0
-2.59442949754884E-05,1.20390413940186E-05,2.63671875,0,0
-2.64173195319017E-05,1.42827402669354E-05,2.63671875,0,0
-2.62907342403196E-05,1.46274724102113E-05,2.63671875,0,0
-2.7146641514264E-05,1.40622569233528E-05,2.63671875,0,0
-2.52723129960941E-05,1.23633481052821E-05,2.63671875,0,0
-2.40426852542441E-05,1.20418289952795E-05,2.63671875,0,0
-2.35491279454436E-05,1.27179282571888E-05,2.63671875,0,0
-2.51086057687644E-05,1.42774570122128E-05,2.63671875,0,0
-2.58319232671056E-05,1.48561639434774E-05,2.63671875,0,0
-2.50758384936489E-05,1.42413082357962E-05,2.63671875,0,0
-1.88047870324226E-05,8.5578039943357E-06,2.63671875,0,0
-2.72161869361298E-05,1.11631716208649E-05,2.63671875,0,0
-2.16363732761238E-05,7.73796909925295E-06,2.63671875,0,0
-2.74055764748482E-05,9.91021715890383E-06,2.63671875,0,0
-2.5751718567335E-05,7.37372511139256E-06,2.63671875,0,0
-2.95644858852029E-05,9.99719759420259E-06,2.63671875,0,0
-2.62407447735313E-05,1.06668185253511E-05,2.63671875,0,0
-2.5484936486464E-05,1.04417204056517E-05,2.63671875,0,0
-2.27746331802337E-05,7.22558161214693E-06,2.63671875,0,0
-2.07649864023551E-05,5.63647563467384E-06,2.63671875,0,0
-2.03530653379858E-05,5.53806648895261E-06,2.63671875,0,0
-2.10351827263366E-05,5.48779962628032E-06,2.63671875,0,0
-2.35455245274352E-05,6.11126461080858E-06,2.63671875,0,0
-2.31263838941231E-05,7.35155617803684E-06,2.63671875,0,0
-2.37909589486662E-05,1.05043100120383E-05,2.63671875,0,0
-2.25808962568408E-05,1.18606021715095E-05,2.63671875,0,0
-2.35605184570886E-05,1.26325003293459E-05,2.63671875,0,0
-2.27303426072467E-05,1.11396730062552E-05,2.63671875,0,0
-2.40303907048656E-05,1.04839782579802E-05,2.63671875,0,0
-2.36471569223795E-05,1.03430538729299E-05,2.63671875,0,0
-2.36525975196855E-05,1.14090134957223E-05,2.63671875,0,0
-2.25348430831218E-05,1.01506993814837E-05,2.63671875,0,0
-2.39904165937332E-05,8.72849795996444E-06,2.63671875,0,0
-2.4790459065116E-05,7.92478567746002E-06,2.63671875,0,0
-2.53300731856143E-05,9.31799968384439E-06,2.63671875,0,0
-2.53814960160526E-05,1.10016280814307E-05,2.63671875,0,0
-2.72066972684115E-05,1.08262092908262E-05,2.63671875,0,0
-2.30081204790622E-05,9.00547456694767E-06,2.63671875,0,0
-3.27055495290551E-05,1.44605774039519E-05,2.63671875,0,0
-2.3531563783763E-05,1.324946697423E-05,2.63671875,0,0
-2.76171522273216E-05,1.4579465641873E-05,2.63671875,0,0
-2.2193782569957E-05,1.08927670225967E-05,2.63671875,0,0
-2.48144897341263E-05,1.13631094791344E-05,2.63671875,0,0
-2.13456005440094E-05,1.12926327346941E-05,2.63671875,0,0
-2.20748952415306E-05,1.23184372569085E-05,2.63671875,0,0
-2.22815615416039E-05,1.19097776405397E-05,2.63671875,0,0
-2.40687277255347E-05,1.23238260130165E-05,2.63671875,0,0
-2.50386692641769E-05,1.32688583107665E-05,2.63671875,0,0
-2.41601883317344E-05,1.24118987514521E-05,2.63671875,0,0
-2.5035753424163E-05,1.09103712020442E-05,2.63671875,0,0
-2.34191211347934E-05,8.22750280349283E-06,2.63671875,0,0
-2.37013064179337E-05,8.22690708446316E-06,2.63671875,0,0
-2.19221874431241E-05,9.16465432965197E-06,2.63671875,0,0
-2.27089094551047E-05,1.05516210169299E-05,2.63671875,0,0
-2.096713433275E-05,9.86034592642682E-06,2.63671875,0,0
-2.19389203266473E-05,9.8115542641608E-06,2.63671875,0,0
-2.21146292460617E-05,9.6753528850968E-06,2.63671875,0,0
-2.48285887209931E-05,1.00246479632915E-05,2.63671875,0,0
-2.58295385719975E-05,8.46331658976851E-06,2.63671875,0,0
-2.71930166491074E-05,7.04875537849148E-06,2.63671875,0,0
-2.58618601947092E-05,7.08712468622252E-06,2.63671875,0,0
-2.4594310161774E-05,8.34069305710727E-06,2.63671875,0,0
-2.37941949308151E-05,8.86650195752736E-06,2.63671875,0,0
-2.29264551308006E-05,8.15696694189683E-06,2.63671875,0,0
-1.86763918463839E-05,5.31674913872848E-06,2.63671875,0,0
-2.7539043003344E-05,8.1998932728311E-06,2.63671875,0,0
-2.30227324209409E-05,7.59483691581408E-06,2.63671875,0,0
-2.96696125587914E-05,8.9853310782928E-06,2.63671875,0,0
-2.66176884906599E-05,7.45138140700874E-06,2.63671875,0,0
-2.80152253253618E-05,8.69192081154324E-06,2.63671875,0,0
-2.54426176979905E-05,9.33676983549958E-06,2.63671875,0,0
-2.67150626314105E-05,1.09856937342556E-05,2.63671875,0,0
-2.65106718870811E-05,1.08234125946183E-05,2.63671875,0,0
-2.58753352682106E-05,1.01541909316438E-05,2.63671875,0,0
-2.46724575845292E-05,9.45636656979332E-06,2.63671875,0,0
-2.30695350182941E-05,8.9299801402376E-06,2.63671875,0,0
-2.42708847508766E-05,9.98748782876646E-06,2.63671875,0,0
-2.44851489696885E-05,1.05609633465065E-05,2.63671875,0,0
-2.51745150308125E-05,1.06028928712476E-05,2.63671875,0,0
-2.2854954295326E-05,9.79665310296696E-06,2.63671875,0,0
-2.34125072893221E-05,1.06156085166731E-05,2.63671875,0,0
-2.30650384764886E-05,1.09425100163207E-05,2.63671875,0,0
-2.37720778386574E-05,1.10616483652848E-05,2.63671875,0,0
-2.23311744775856E-05,1.07920523078064E-05,2.63671875,0,0
-2.33329774346203E-05,1.18798770927242E-05,2.63671875,0,0
-2.35637216974283E-05,1.26052100313245E-05,2.63671875,0,0
-2.46367981162621E-05,1.26922441268107E-05,2.63671875,0,0
-2.55373288382543E-05,1.13460437205504E-05,2.63671875,0,0
-2.63697565969778E-05,9.42650422075531E-06,2.63671875,0,0
-2.5815603294177E-05,9.82217807177221E-06,2.63671875,0,0
-2.44967195612844E-05,1.17472372949123E-05,2.63671875,0,0
-1.98881425603759E-05,9.24223877518671E-06,2.63671875,0,0
-2.8109401682741E-05,1.22551073218347E-05,2.63671875,0,0
-2.04702173505211E-05,8.67627204570454E-06,2.63671875,0,0
-2.54403475992149E-05,1.21805796879926E-05,2.63671875,0,0
-2.22155886149267E-05,1.07969854070689E-05,2.63671875,0,0
-2.47343195951544E-05,1.24746529763797E-05,2.63671875,0,0
-2.17625729419524E-05,1.06763845906244E-05,2.63671875,0,0
-2.23363622353645E-05,1.08973999886075E-05,2.63671875,0,0
-2.20710462599527E-05,1.18885554911685E-05,2.63671875,0,0
-2.27138389163883E-05,1.33885587274563E-05,2.63671875,0,0
-2.35855823120801E-05,1.33997409648146E-05,2.63671875,0,0
-2.29875386139611E-05,1.17647032311652E-05,2.63671875,0,0
-2.29778343054932E-05,1.16152996270102E-05,2.63671875,0,0
-2.21997033804655E-05,1.0451149137225E-05,2.63671875,0,0
-2.53553371294402E-05,1.07841469798586E-05,2.63671875,0,0
-2.62858557107393E-05,1.05007602542173E-05,2.63671875,0,0
-2.72858924290631E-05,1.05203744169557E-05,2.63671875,0,0
-2.56157745752716E-05,9.4665128926863E-06,2.63671875,0,0
-2.71957105724141E-05,1.05176031865994E-05,2.63671875,0,0
-2.74114845524309E-05,1.16433639050229E-05,2.63671875,0,0
-2.85330188489752E-05,1.29518821267993E-05,2.63671875,0,0
-2.7925314498134E-05,1.23039553727722E-05,2.63671875,0,0
-2.75685324595543E-05,1.12938369056792E-05,2.63671875,0,0
-2.67449995590141E-05,1.04028249552357E-05,2.63671875,0,0
-2.84817415376892E-05,1.04020409708028E-05,2.63671875,0,0
-3.09991410176735E-05,8.91816398507217E-06,2.63671875,0,0
-3.21012885251548E-05,4.98538747706334E-06,2.63671875,0,0
-2.54559181485092E-05,1.92955735656142E-06,2.63671875,0,0
-3.48751855199225E-05,3.87081627195585E-06,2.63671875,0,0
-2.54165588557953E-05,6.83983216731576E-06,2.63671875,0,0
-3.19700411637314E-05,9.39872916205786E-06,2.63671875,0,0
-2.45810952037573E-05,8.85247118276311E-06,2.63671875,0,0
-2.55090035352623E-05,9.9035332823405E-06,2.63671875,0,0
-2.10577909456333E-05,1.07899095382891E-05,2.63671875,0,0
-2.1620868210448E-05,1.15313650894677E-05,2.63671875,0,0
-1.8727741917246E-05,1.24277985378285E-05,2.63671875,0,0
-1.67221460287692E-05,1.38855994009646E-05,2.63671875,0,0
-1.52075162986876E-05,1.35142963699764E-05,2.63671875,0,0
-1.28371921164216E-05,1.18501047836617E-05,2.63671875,0,0
-1.29284753711545E-05,1.20804916150519E-05,2.63671875,0,0
-1.11192266558646E-05,1.27036037156358E-05,2.63671875,0,0
-1.25172618936631E-05,1.24772113849758E-05,2.63671875,0,0
-1.08582444227068E-05,1.2134311873524E-05,2.63671875,0,0
-1.30592998175416E-05,1.26456816360587E-05,2.63671875,0,0
-1.35172076625167E-05,1.264136244572E-05,2.63671875,0,0
-1.53093133121729E-05,1.14098193080281E-05,2.63671875,0,0
-1.29306981762056E-05,8.61068838275969E-06,2.63671875,0,0
-1.3388767001743E-05,8.01768783276202E-06,2.63671875,0,0
-1.42876988320495E-05,1.0119168109668E-05,2.63671875,0,0
-1.75617260538274E-05,1.23123563753325E-05,2.63671875,0,0
-1.83797310455702E-05,1.32934719658806E-05,2.63671875,0,0
-1.81106915988494E-05,1.36784183268901E-05,2.63671875,0,0
-1.61660354933701E-05,1.19703418022254E-05,2.63671875,0,0
-1.55614725372288E-05,9.33494629862253E-06,2.63671875,0,0
-1.36568060042919E-05,8.15877774584806E-06,2.63671875,0,0
-1.9440785763436E-05,1.28031515487237E-05,2.63671875,0,0
-1.48546623677248E-05,1.10660121208639E-05,2.63671875,0,0
-1.88871363206999E-05,1.3488122021954E-05,2.63671875,0,0
-1.73096723301569E-05,1.15804496090277E-05,2.63671875,0,0
-1.85429307748564E-05,1.24748257803731E-05,2.63671875,0,0
-1.66525260283379E-05,1.17581075755879E-05,2.63671875,0,0
-1.94858330360148E-05,1.16864557639929E-05,2.63671875,0,0
-2.2065769371693E-05,1.33362909764401E-05,2.63671875,0,0
-2.4968654543045E-05,1.55814468598692E-05,2.63671875,0,0
-2.9350929253269E-05,1.61833304446191E-05,2.63671875,0,0
-3.44571162713692E-05,1.53318578668404E-05,2.63671875,0,0
-4.01526995119639E-05,1.48559065564768E-05,2.63671875,0,0
-4.27117010985967E-05,1.40551856020465E-05,2.63671875,0,0
-4.5030454202788E-05,1.27998846437549E-05,2.63671875,0,0
-4.49708168162033E-05,9.1354304458946E-06,2.63671875,0,0
-4.50406841991935E-05,6.68364145894884E-06,2.63671875,0,0
-4.31019034294877E-05,5.58363171876408E-06,2.63671875,0,0
-4.32066481153015E-05,6.76842091706931E-06,2.63671875,0,0
-4.2595525883371E-05,7.79236779635539E-06,2.63671875,0,0
-4.21136173827108E-05,8.42476129037095E-06,2.63671875,0,0
-4.02248915634118E-05,7.46234763937537E-06,2.63671875,0,0
-3.94735398003832E-05,6.19564889348112E-06,2.63671875,0,0
-3.68280816473998E-05,6.24240919933072E-06,2.63671875,0,0
-3.50376903952565E-05,8.48959098220803E-06,2.63671875,0,0
-3.47666609741282E-05,9.25565746001666E-06,2.63671875,0,0
-3.38082645612303E-05,9.19475314731244E-06,2.63671875,0,0
-2.48783580900636E-05,6.26116889179684E-06,2.63671875,0,0
-3.25578257616144E-05,8.24776725494303E-06,2.63671875,0,0
-1.93370324268471E-05,7.09041387381149E-06,2.63671875,0,0
-2.29360466619255E-05,9.83111840469064E-06,2.63671875,0,0
-1.52691554831108E-05,7.92353148426628E-06,2.63671875,0,0
-1.76637186086737E-05,9.28259760257788E-06,2.63671875,0,0
-1.39652929647127E-05,8.80580864759395E-06,2.63671875,0,0
-1.41136233651196E-05,9.42622227739776E-06,2.63671875,0,0
-1.14981321530649E-05,9.34399213292636E-06,2.63671875,0,0
-1.00475454019033E-05,1.00280030892463E-05,2.63671875,0,0
-8.6610152720823E-06,1.05939070635941E-05,2.63671875,0,0
-5.55766746401787E-06,1.09147031253087E-05,2.63671875,0,0
-5.46720366401132E-06,1.18501293400186E-05,2.63671875,0,0
-4.69420820081723E-06,1.16815372166457E-05,2.63671875,0,0
-7.32213220544509E-06,1.24946272990201E-05,2.63671875,0,0
-7.4331524047011E-06,1.18800562631804E-05,2.63671875,0,0
-1.07592386484612E-05,1.13963587864419E-05,2.63671875,0,0
-1.21971861517522E-05,1.13984451672877E-05,2.63671875,0,0
-1.59949013323057E-05,1.36287353598163E-05,2.63671875,0,0
-1.56446931214305E-05,1.40147940328461E-05,2.63671875,0,0
-1.63199092639843E-05,1.34068250190467E-05,2.63671875,0,0
-1.67485559359193E-05,1.28426381706959E-05,2.63671875,0,0
-1.96580385818379E-05,1.31799506561947E-05,2.63671875,0,0
-2.09423451451585E-05,1.22289638966322E-05,2.63671875,0,0
-2.2945654563955E-05,1.14679924081429E-05,2.63671875,0,0
-2.49179865932092E-05,1.1579921192606E-05,2.63671875,0,0
-2.68181320279837E-05,1.21625007523107E-05,2.63671875,0,0
-2.27549699047813E-05,9.11441838979954E-06,2.63671875,0,0
-3.22980595228728E-05,1.1263969099673E-05,2.63671875,0,0
-2.45232258748729E-05,6.25330540060531E-06,2.63671875,0,0
-2.9722028557444E-05,8.6633272076142E-06,2.63671875,0,0
-2.3770313418936E-05,7.65718414186267E-06,2.63671875,0,0
-2.55293816735502E-05,1.05054432424367E-05,2.63671875,0,0
-2.15193012991222E-05,9.44508610700723E-06,2.63671875,0,0
-2.09272839128971E-05,1.00210181699367E-05,2.63671875,0,0
-1.93907835637219E-05,1.09436614366132E-05,2.63671875,0,0
-2.01554212253541E-05,1.28327073980472E-05,2.63671875,0,0
-2.02390856429702E-05,1.46464135468705E-05,2.63671875,0,0
-1.75408840732416E-05,1.44790919875959E-05,2.63671875,0,0
-1.64618668350158E-05,1.38431250888971E-05,2.63671875,0,0
-1.41568425533478E-05,1.19005526357796E-05,2.63671875,0,0
-1.44424757309025E-05,1.1400429684727E-05,2.63671875,0,0
-1.25455289889942E-05,9.98151062958641E-06,2.63671875,0,0
-1.45112753671128E-05,1.00422212199192E-05,2.63671875,0,0
-1.57407339429483E-05,9.10148355615092E-06,2.63671875,0,0
-2.06839104066603E-05,8.37816514831502E-06,2.63671875,0,0
-2.46075105678756E-05,6.74478542350698E-06,2.63671875,0,0
-2.99801340588601E-05,8.35459013615036E-06,2.63671875,0,0
-3.14638855343219E-05,1.20135437100544E-05,2.63671875,0,0
-3.22676569339819E-05,1.60208710440202E-05,2.63671875,0,0
-3.18756028718781E-05,1.76785906660371E-05,2.63671875,0,0
-3.19105420203414E-05,1.73717071447754E-05,2.63671875,0,0
-3.23778294841759E-05,1.70517505466705E-05,2.63671875,0,0
-3.4444747143425E-05,1.67102916748263E-05,2.63671875,0,0
-3.37775527441408E-05,1.12891484604916E-05,2.63671875,0,0
-5.62614477530587E-05,1.44967407322838E-05,2.63671875,0,0
-5.6084605603246E-05,8.54475820233347E-06,2.63671875,0,0
-6.96001370670274E-05,1.12587858893676E-05,2.63671875,0,0
-6.48812565486878E-05,8.32547630125191E-06,2.63671875,0,0
-6.96829374646768E-05,9.353965651826E-06,2.63671875,0,0
-6.82360332575627E-05,7.6920823630644E-06,2.63671875,0,0
-6.9895620981697E-05,7.68104564485839E-06,2.63671875,0,0
-6.51228911010548E-05,7.1274862420978E-06,2.63671875,0,0
-5.86285059398506E-05,7.2713801273494E-06,2.63671875,0,0
-5.21772890351713E-05,7.78530466050142E-06,2.63671875,0,0
-4.49727303930558E-05,8.01233363745268E-06,2.63671875,0,0
-4.03846788685769E-05,9.27703331399243E-06,2.63671875,0,0
-3.33467869495507E-05,8.78005812410265E-06,2.63671875,0,0
-2.96205798804294E-05,8.31896159070311E-06,2.63671875,0,0
-2.25615804083645E-05,7.14960242476081E-06,2.63671875,0,0
-1.70519379025791E-05,7.61330420573358E-06,2.63671875,0,0
-6.93197625878383E-06,6.09120797889773E-06,2.63671875,0,0
-3.60592224524225E-07,5.82237862545298E-06,2.63671875,0,0
7.82821280154167E-06,7.15215037416783E-06,2.63671875,0,0
1.17733243314433E-05,1.04177424873342E-05,2.63671875,0,0
1.47939235830563E-05,1.05107910712832E-05,2.63671875,0,0
1.33408102556132E-05,9.38896209845552E-06,2.63671875,0,0
1.1043261110899E-05,8.26431278255768E-06,2.63671875,0,0
7.11208713255473E-06,7.16196655048407E-06,2.63671875,0,0
5.47984564036597E-06,5.25582345289877E-06,2.63671875,0,0
8.61635180626763E-06,4.83486019220436E-06,2.63671875,0,0
9.96021390164969E-06,3.70019006368238E-06,2.63671875,0,0
1.50919104271452E-05,6.38599703961518E-06,2.63671875,0,0
1.07448277049116E-05,8.12478538136929E-06,2.63671875,0,0
1.05019425973296E-05,1.03562324511586E-05,2.63671875,0,0
5.67035294807283E-06,9.02795272850199E-06,2.63671875,0,0
4.3043187361036E-06,9.01364182936959E-06,2.63671875,0,0
-1.38047118980467E-06,9.52690697886283E-06,2.63671875,0,0
-5.75678950553993E-06,1.19806272778078E-05,2.63671875,0,0
-1.06988263723906E-05,1.25640099213342E-05,2.63671875,0,0
-1.2937772225996E-05,1.3839920029568E-05,2.63671875,0,0
-1.37033666760544E-05,1.81852410605643E-05,2.63671875,0,0
-1.4570417079085E-05,2.22715370910009E-05,2.63671875,0,0
-1.42856169986771E-05,2.34418894251576E-05,2.63671875,0,0
-1.35338896143367E-05,2.19059093069518E-05,2.63671875,0,0
-1.16453411465045E-05,1.95976172108203E-05,2.63671875,0,0
-1.07680325527326E-05,1.70754374266835E-05,2.63671875,0,0
-8.99968108569738E-06,1.59559804160381E-05,2.63671875,0,0
-8.95029734238051E-06,1.47901091622771E-05,2.63671875,0,0
-8.20583045424428E-06,1.47645723700407E-05,2.63671875,0,0
-9.52034042711603E-06,1.42810531542636E-05,2.63671875,0,0
-1.09600932773901E-05,1.16664086817764E-05,2.63671875,0,0
-1.33477324197884E-05,6.67062795400852E-06,2.63671875,0,0
-1.64006305567455E-05,3.94891321775503E-06,2.63671875,0,0
-2.07683660846669E-05,4.05886021326296E-06,2.63671875,0,0
-2.47414445766481E-05,4.89807280246168E-06,2.63671875,0,0
-2.81339762295829E-05,5.86009400649345E-06,2.63671875,0,0
-2.99080966215115E-05,7.07221488482901E-06,2.63671875,0,0
-2.67298601102084E-05,6.80334687785944E-06,2.63671875,0,0
-4.26860242441762E-05,1.03366219263989E-05,2.63671875,0,0
-4.03887352149468E-05,8.32611567602726E-06,2.63671875,0,0
-5.12545229867101E-05,9.56580061028944E-06,2.63671875,0,0
-4.65609628008679E-05,7.80316531745484E-06,2.63671875,0,0
-4.85351010865998E-05,9.03065210877685E-06,2.63671875,0,0
-4.2488427425269E-05,8.40306893223897E-06,2.63671875,0,0
-4.00190001528244E-05,8.13213955552783E-06,2.63671875,0,0
-3.51527669408824E-05,8.07344349595951E-06,2.63671875,0,0
-3.16901350743137E-05,9.46563159232028E-06,2.63671875,0,0
-2.86012073047459E-05,1.21214679893455E-05,2.63671875,0,0
-2.58249710896052E-05,1.36284897962469E-05,2.63671875,0,0
-2.64009086095029E-05,1.4572246982425E-05,2.63671875,0,0
-2.63611400441732E-05,1.41566906677326E-05,2.63671875,0,0
-2.98160521197133E-05,1.36444878080511E-05,2.63671875,0,0
-2.90514599328162E-05,1.2738107216137E-05,2.63671875,0,0
-2.79055457212962E-05,1.32700915855821E-05,2.63671875,0,0
-2.14509545912733E-05,1.30863691083505E-05,2.63671875,0,0
-1.66762292792555E-05,1.3031235539529E-05,2.63671875,0,0
-1.16150004032534E-05,1.19205933515332E-05,2.63671875,0,0
-1.20295289889327E-05,1.06394963950152E-05,2.63671875,0,0
-1.26481400002376E-05,1.02590574897476E-05,2.63671875,0,0
-1.47289292726782E-05,1.27210214486695E-05,2.63671875,0,0
-1.59487299242755E-05,1.57995673362166E-05,2.63671875,0,0
-2.1603527784464E-05,1.79096678039059E-05,2.63671875,0,0
-2.99545736197615E-05,1.86427441803971E-05,2.63671875,0,0
-3.72290633094963E-05,1.87593286682386E-05,2.63671875,0,0
-3.33522657456342E-05,1.5636649550288E-05,2.63671875,0,0
-5.10976751684211E-05,2.30635014304426E-05,2.63671875,0,0
-4.89406738779508E-05,1.80867154995212E-05,2.63671875,0,0
-7.11168977431953E-05,1.98430243472103E-05,2.63671875,0,0
-7.71442355471663E-05,1.36881881189765E-05,2.63671875,0,0
-8.69541399879381E-05,1.53265737026231E-05,2.63671875,0,0
-8.29853524919599E-05,1.50286177813541E-05,2.63671875,0,0
-8.24816161184572E-05,1.75415207195329E-05,2.63671875,0,0
-7.89415571489371E-05,1.68289698194712E-05,2.63671875,0,0
-7.65976146794856E-05,1.44220584843424E-05,2.63671875,0,0
-7.26837024558336E-05,1.18264315460692E-05,2.63671875,0,0
-6.50448564556427E-05,9.80136883299565E-06,2.63671875,0,0
-5.98660008108709E-05,9.38329412747407E-06,2.63671875,0,0
-5.24124188814312E-05,8.42107510834467E-06,2.63671875,0,0
-4.89521808049176E-05,9.67548203334445E-06,2.63671875,0,0
-4.34823268733453E-05,7.74862201069482E-06,2.63671875,0,0
-4.32403503509704E-05,6.14320742897689E-06,2.63671875,0,0
-4.02989862777758E-05,3.49375500263704E-06,2.63671875,0,0
-4.05203427362721E-05,3.85953762815916E-06,2.63671875,0,0
-3.74740920960903E-05,2.55130180448759E-06,2.63671875,0,0
-3.55046868207864E-05,1.50318919622805E-06,2.63671875,0,0
-2.9761951736873E-05,-5.27624422375084E-07,2.63671875,0,0
-2.45617320615565E-05,-1.5274790712283E-06,2.63671875,0,0
-1.83669271791587E-05,-3.44005775332334E-06,2.63671875,0,0
-1.53207729454152E-05,-5.17644639330683E-06,2.63671875,0,0
-1.2432197763701E-05,-4.67056588604464E-06,2.63671875,0,0
-6.98279836797155E-06,-1.47573109643417E-06,2.63671875,0,0
1.1412123512855E-06,1.82244980351243E-06,2.63671875,0,0
7.47816420698655E-06,3.77628293790622E-06,2.63671875,0,0
1.33795429064776E-05,5.52602705283789E-06,2.63671875,0,0
1.49858478835085E-05,7.49736091165687E-06,2.63671875,0,0
1.18476473289775E-05,8.66593654791359E-06,2.63671875,0,0
4.13862926507136E-06,9.28008830669569E-06,2.63671875,0,0
-1.67394534855703E-06,1.0244817531202E-05,2.63671875,0,0
-2.77398657999584E-06,1.37882425406133E-05,2.63671875,0,0
-1.38196821808378E-06,1.72643758560298E-05,2.63671875,0,0
-8.22677293399465E-07,1.91836716112448E-05,2.63671875,0,0
-1.30327237002348E-06,2.00704653252615E-05,2.63671875,0,0
-2.30158661906898E-06,1.98860398086254E-05,2.63671875,0,0
-4.21418735641055E-06,2.02044393518008E-05,2.63671875,0,0
-6.68704069539672E-06,2.02414012164809E-05,2.63671875,0,0
-9.2063764896011E-06,2.02364462893456E-05,2.63671875,0,0
-1.07545556602417E-05,1.92054412764264E-05,2.63671875,0,0
-1.19978794828057E-05,1.72861891769571E-05,2.63671875,0,0
-1.4140715393296E-05,1.51864260260481E-05,2.63671875,0,0
-1.87597088370239E-05,1.40711499625468E-05,2.63671875,0,0
-2.25547391892178E-05,1.37826364152716E-05,2.63671875,0,0
-2.24800987780327E-05,1.42118442454375E-05,2.63671875,0,0
-2.05716205528006E-05,1.56362766574603E-05,2.63671875,0,0
-2.31873218581313E-05,1.79558446689043E-05,2.63671875,0,0
-3.17224366881419E-05,1.91491762961959E-05,2.63671875,0,0
-3.83463557227515E-05,1.79476955963764E-05,2.63671875,0,0
-3.72308422811329E-05,1.60742329171626E-05,2.63671875,0,0
-3.19150676659774E-05,1.52386164700147E-05,2.63671875,0,0
-1.99524893105263E-05,1.15450557132135E-05,2.63671875,0,0
-2.61450513789896E-05,1.54253502842039E-05,2.63671875,0,0
-2.2986569092609E-05,1.09807278931839E-05,2.63671875,0,0
-4.17290175391827E-05,1.33411012939177E-05,2.63671875,0,0
-5.00122660014313E-05,7.66623816161882E-06,2.63671875,0,0
-5.96033460169565E-05,7.14730140316533E-06,2.63671875,0,0
-5.7117020332953E-05,5.75723834117525E-06,2.63671875,0,0
-5.59502841497306E-05,6.10185998084489E-06,2.63671875,0,0
-4.95873355248477E-05,1.6822046973175E-06,2.63671875,0,0
-4.22199882450514E-05,-3.44589375345095E-06,2.63671875,0,0
-3.47963832609821E-05,-5.78758317715256E-06,2.63671875,0,0
-2.8913033020217E-05,-6.58110229778686E-06,2.63671875,0,0
-2.61904515355127E-05,-6.42854320176411E-06,2.63671875,0,0
-1.96126711671241E-05,-5.63546018383931E-06,2.63671875,0,0
-1.2874747881142E-05,-1.05715662357397E-06,2.63671875,0,0
-5.50283675693208E-06,2.24808968596335E-06,2.63671875,0,0
-4.93446350446902E-06,5.70107613384607E-06,2.63671875,0,0
-4.63054357169312E-06,6.40471080259886E-06,2.63671875,0,0
-8.29644250188721E-06,6.35791684544529E-06,2.63671875,0,0
-1.00045663202764E-05,3.6815392832068E-06,2.63671875,0,0
-1.11501967694494E-05,1.71298825080157E-06,2.63671875,0,0
-9.3921826191945E-06,6.22673468342327E-08,2.63671875,0,0
-1.07988798845327E-05,1.61332241077616E-06,2.63671875,0,0
-1.24681309898733E-05,4.03176409236039E-06,2.63671875,0,0
-1.25063124869484E-05,5.92902233620407E-06,2.63671875,0,0
-6.23365485807881E-06,7.36139054424712E-06,2.63671875,0,0
4.43562839791412E-06,9.16711906029377E-06,2.63671875,0,0
1.31225742734387E-05,9.4236274890136E-06,2.63671875,0,0
2.56910170719493E-05,1.43729230330791E-05,2.63671875,0,0
3.04804616462206E-05,1.1736512533389E-05,2.63671875,0,0
4.00824319513049E-05,1.35897180371103E-05,2.63671875,0,0
4.10299580835272E-05,1.2349331882433E-05,2.63671875,0,0
4.00013486796524E-05,1.47093669511378E-05,2.63671875,0,0
3.60145713784732E-05,1.55239249579608E-05,2.63671875,0,0
3.66324966307729E-05,1.72060335899005E-05,2.63671875,0,0
3.64843654097058E-05,1.83835691132117E-05,2.63671875,0,0
3.55760239472147E-05,2.20948459173087E-05,2.63671875,0,0
3.28900132444687E-05,2.74918384093326E-05,2.63671875,0,0
2.88100764009869E-05,3.18718375638127E-05,2.63671875,0,0
2.63028359768214E-05,3.48249195667449E-05,2.63671875,0,0
2.41502984863473E-05,3.40167644026224E-05,2.63671875,0,0
2.05969117814675E-05,3.15966208290774E-05,2.63671875,0,0
9.79276774160098E-06,2.74825160886394E-05,2.63671875,0,0
-5.68535369893652E-06,2.53111811616691E-05,2.63671875,0,0
-2.36266823776532E-05,2.32995280384785E-05,2.63671875,0,0
-3.66669773939066E-05,2.1968713554088E-05,2.63671875,0,0
-4.27181730628945E-05,1.92598417925183E-05,2.63671875,0,0
-4.07432489737403E-05,1.66575700859539E-05,2.63671875,0,0
-3.7809422792634E-05,1.22730343719013E-05,2.63671875,0,0
-3.56822893081699E-05,8.07386095402762E-06,2.63671875,0,0
-3.78207696485333E-05,4.92535127705196E-06,2.63671875,0,0
-4.50567749794573E-05,4.0082986743073E-06,2.63671875,0,0
-5.53224635950755E-05,2.77212097898882E-06,2.63671875,0,0
-6.51545924483798E-05,1.70053340298182E-06,2.63671875,0,0
-6.17950354353525E-05,1.51083565924637E-06,2.63671875,0,0
-9.42458937061019E-05,1.98463590095344E-06,2.63671875,0,0
-7.82784263719805E-05,1.06353013507032E-06,2.63671875,0,0
-9.39595847739838E-05,2.26505267164612E-06,2.63671875,0,0
-8.08073891676031E-05,3.04783225146821E-06,2.63671875,0,0
-9.06364366528578E-05,2.30567093240097E-06,2.63671875,0,0
-8.90194933163002E-05,1.20059564778785E-06,2.63671875,0,0
-9.81825432972983E-05,2.34156959777465E-06,2.63671875,0,0
-9.92931891232729E-05,4.85803775518434E-06,2.63671875,0,0
-9.68799795373343E-05,6.44485726297717E-06,2.63671875,0,0
-9.00293161976151E-05,7.42480142434943E-06,2.63671875,0,0
-7.70975384511985E-05,8.61524858919438E-06,2.63671875,0,0
-6.48520290269516E-05,1.06418983705225E-05,2.63671875,0,0
-4.56729248980992E-05,1.45393496495672E-05,2.63671875,0,0
-3.43061619787477E-05,2.04149055207381E-05,2.63671875,0,0
-2.09698373510037E-05,2.64050759142265E-05,2.63671875,0,0
-1.76300763996551E-05,3.20395338349044E-05,2.63671875,0,0
-8.18417902337387E-06,3.64475454261992E-05,2.63671875,0,0
-9.05593935840443E-07,3.89743509003893E-05,2.63671875,0,0
1.49456154758809E-05,3.96331015508622E-05,2.63671875,0,0
2.57846477325074E-05,3.75823692593258E-05,2.63671875,0,0
3.98266456613783E-05,3.30974216922186E-05,2.63671875,0,0
5.03355004184414E-05,2.97943188343197E-05,2.63671875,0,0
5.95807723584585E-05,2.83824538200861E-05,2.63671875,0,0
6.3371735450346E-05,2.66980950982543E-05,2.63671875,0,0
6.62637903587893E-05,2.46788531512721E-05,2.63671875,0,0
6.54124960419722E-05,2.25804324145429E-05,2.63671875,0,0
4.66598030470777E-05,1.46587144627119E-05,2.63671875,0,0
6.15540484432131E-05,1.80537881533382E-05,2.63671875,0,0
3.88871849281713E-05,9.53054041019641E-06,2.63671875,0,0
4.85936288896482E-05,9.72757970885141E-06,2.63671875,0,0
3.17417689075228E-05,-1.52492054894537E-06,2.63671875,0,0
2.69077245320659E-05,-6.85085524310125E-06,2.63671875,0,0
-1.24356233754952E-06,-1.23190329759382E-05,2.63671875,0,0
-2.23316546907881E-05,-9.8164264272782E-06,2.63671875,0,0
-4.2476302041905E-05,-6.16539318798459E-06,2.63671875,0,0
-5.13989834871609E-05,-3.05395610666892E-06,2.63671875,0,0
-5.49529941054061E-05,-1.56089072333998E-06,2.63671875,0,0
-5.97591097175609E-05,-2.02464548237913E-06,2.63671875,0,0
-6.21016806690022E-05,-2.51872120315966E-06,2.63671875,0,0
-6.80896118865348E-05,-3.95214419768308E-06,2.63671875,0,0
-6.65290426695719E-05,-1.74830495325295E-06,2.63671875,0,0
-6.94611735525541E-05,6.91133834607172E-08,2.63671875,0,0
-6.75299306749366E-05,2.23948973143706E-06,2.63671875,0,0
-7.1430804382544E-05,-4.14227088185726E-07,2.63671875,0,0
-6.98218937031925E-05,-2.95854329124268E-06,2.63671875,0,0
-7.21199248800986E-05,-4.973979685019E-06,2.63671875,0,0
-6.93959300406277E-05,-3.79268112737918E-06,2.63671875,0,0
-6.91520326654427E-05,-5.42690486327047E-06,2.63671875,0,0
-6.45550971967168E-05,-9.0903386080754E-06,2.63671875,0,0
-6.11345749348402E-05,-1.43558136187494E-05,2.63671875,0,0
-5.5192009313032E-05,-1.88793619599892E-05,2.63671875,0,0
-4.90763231937308E-05,-2.35538209381048E-05,2.63671875,0,0
-4.14544920204207E-05,-2.67745836026734E-05,2.63671875,0,0
-2.65909748122795E-05,-1.52511956912349E-05,2.63671875,0,0
-3.07265145238489E-05,-9.90550142887514E-06,2.63671875,0,0
-9.5325358415721E-06,9.12864015845116E-06,2.63671875,0,0
-8.02494105300866E-06,9.10671587917022E-06,2.63671875,0,0
6.80869652569527E-06,1.9896739104297E-05,2.63671875,0,0
6.17346449871548E-06,2.19506309804274E-05,2.63671875,0,0
