biceps_emg, triceps_emg, subject_position, position_estimate, brace_position
4.43707631347934E-06,-9.57303382165264E-06,1.40625,0,0
5.01447038914193E-06,-1.87456553248921E-05,1.40625,0,0
5.86297846894013E-06,-2.39120054175146E-05,1.40625,0,0
8.40349275676999E-06,-2.52387981163338E-05,1.40625,0,0
7.48064530853298E-06,-2.38265110965585E-05,1.40625,0,0
9.33589672058588E-06,-3.75439049093984E-05,1.40625,0,0
4.67713425678085E-06,-3.22993255394977E-05,1.40625,0,0
4.39922769146506E-06,-4.06847066187765E-05,1.40625,0,0
3.28918815739598E-07,-4.28867933806032E-05,1.40625,0,0
5.87170859489561E-07,-5.0058493798133E-05,1.40625,0,0
-9.35567996407372E-08,-4.54759865533561E-05,1.40625,0,0
7.3093656283163E-07,-4.06576946261339E-05,1.40625,0,0
2.33077713573948E-07,-3.42420062224846E-05,1.40625,0,0
-8.89243779056415E-07,-3.06547080981545E-05,1.40625,0,0
-1.5222967704176E-06,-2.87727598333731E-05,1.40625,0,0
-1.41015550525481E-06,-2.54409260378452E-05,1.40625,0,0
-4.24560596457013E-07,-2.39274068007944E-05,1.40625,0,0
-1.04077048490581E-06,-2.07763405342121E-05,1.40625,0,0
-8.15251496533165E-07,-1.97908193513285E-05,1.40625,0,0
-1.74343497860718E-07,-1.80774986802135E-05,1.40625,0,0
6.01252281740017E-07,-2.12159247894306E-05,1.40625,0,0
-1.13915120891761E-06,-2.2331478248816E-05,1.40625,0,0
-2.18115542338637E-06,-2.32824222621275E-05,1.40625,0,0
-2.79387586488156E-06,-2.03565050469479E-05,1.40625,0,0
-1.20479785437055E-06,-1.94965177797712E-05,1.40625,0,0
-4.97499073048857E-08,-1.82745388883632E-05,1.40625,0,0
7.11341556325351E-07,-1.78361860889709E-05,1.40625,0,0
1.3673372905032E-06,-1.66010977409314E-05,1.40625,0,0
1.61038667556568E-06,-1.77072051883442E-05,1.40625,0,0
-6.00249592253022E-08,-1.91273320524488E-05,1.40625,0,0
-1.76066464518954E-06,-1.8953667677124E-05,1.40625,0,0
-2.28997078011162E-06,-1.34895881274133E-05,1.40625,0,0
-2.52382756116276E-06,-1.59914488904178E-05,1.40625,0,0
4.30855465083368E-07,-5.47471927347942E-06,1.40625,0,0
1.37094718866138E-06,-5.10790914631798E-06,1.40625,0,0
1.8359257865086E-06,-1.30771570638899E-06,1.40625,0,0
1.98334782908205E-06,-4.75926117360359E-06,1.40625,0,0
4.97378732688958E-06,-6.44847159492201E-06,1.40625,0,0
7.26314920029836E-06,-1.19427477329737E-05,1.40625,0,0
7.51327115722233E-06,-1.34951742438716E-05,1.40625,0,0
6.46938678983133E-06,-1.12151637949864E-05,1.40625,0,0
4.78589527119766E-06,-9.47904391068732E-06,1.40625,0,0
3.38865015692136E-06,-8.75981368153589E-06,1.40625,0,0
3.72047998098424E-06,-1.02816738944966E-05,1.40625,0,0
6.12481471762294E-06,-1.09071615952416E-05,1.40625,0,0
8.09158882475458E-06,-1.33407493194682E-05,1.40625,0,0
8.46760758577148E-06,-1.37549304781714E-05,1.40625,0,0
7.04557396602468E-06,-1.42525814226246E-05,1.40625,0,0
6.12959547652281E-06,-1.30601711134659E-05,1.40625,0,0
5.96567588218022E-06,-1.56400710693561E-05,1.40625,0,0
6.02794398218975E-06,-2.02135033759987E-05,1.40625,0,0
5.82201619181433E-06,-2.51578385359608E-05,1.40625,0,0
6.21190520178061E-06,-2.55244922300335E-05,1.40625,0,0
5.89484443480615E-06,-2.55529394053156E-05,1.40625,0,0
6.23897039986332E-06,-2.67337818513624E-05,1.40625,0,0
7.56304370952421E-06,-2.68244839389808E-05,1.40625,0,0
6.95204244038905E-06,-2.28028802666813E-05,1.40625,0,0
5.03898991155438E-06,-1.89315233001253E-05,1.40625,0,0
2.29937199947017E-06,-1.51174535858445E-05,1.40625,0,0
2.25402027353994E-06,-2.30538807954872E-05,1.40625,0,0
2.48203036790073E-06,-1.84121581696672E-05,1.40625,0,0
5.41737153980648E-06,-2.08236833714182E-05,1.40625,0,0
4.40506801169249E-06,-1.73642292793375E-05,1.40625,0,0
3.58974102709908E-06,-1.83055253728526E-05,1.40625,0,0
2.81473330687732E-06,-1.49945090015535E-05,1.40625,0,0
4.08678306484944E-06,-1.31744545797119E-05,1.40625,0,0
4.03735111831338E-06,-1.01490404631477E-05,1.40625,0,0
2.9157336030039E-06,-1.02764233815833E-05,1.40625,0,0
1.3236996210253E-06,-1.19732767416281E-05,1.40625,0,0
6.65124332499545E-07,-1.35556883833488E-05,1.40625,0,0
2.0986788058508E-06,-1.62144988280488E-05,1.40625,0,0
4.06828121413128E-06,-1.62601882038871E-05,1.40625,0,0
5.69460780752706E-06,-1.57342074089684E-05,1.40625,0,0
4.69836368210963E-06,-1.28391729958821E-05,1.40625,0,0
2.54367023444502E-06,-1.29581358123687E-05,1.40625,0,0
3.74032310901384E-07,-1.28065057651838E-05,1.40625,0,0
-2.07453027201154E-07,-1.43642873808858E-05,1.40625,0,0
-7.19330500942306E-07,-1.48455228554667E-05,1.40625,0,0
-1.68504044495421E-07,-1.63528566190507E-05,1.40625,0,0
1.44132411605824E-06,-1.67873895406956E-05,1.40625,0,0
2.35407151194522E-06,-1.75477543962188E-05,1.40625,0,0
9.60698798735393E-07,-1.69634822668741E-05,1.40625,0,0
6.78706953749497E-07,-1.61139960255241E-05,1.40625,0,0
1.758198322932E-06,-1.31995284391451E-05,1.40625,0,0
1.91035655916494E-06,-1.05869930848712E-05,1.40625,0,0
6.87218118855526E-07,-9.00509621715173E-06,1.40625,0,0
6.98884321082005E-07,-1.39361272886163E-05,1.40625,0,0
1.75260277046618E-06,-1.12179759526043E-05,1.40625,0,0
3.53913583239773E-06,-1.23405634440132E-05,1.40625,0,0
3.04615696222754E-06,-1.09975480881985E-05,1.40625,0,0
3.50780760527414E-06,-1.22672663565027E-05,1.40625,0,0
4.1560388126527E-06,-1.18078569357749E-05,1.40625,0,0
4.27059603680391E-06,-1.44283258123323E-05,1.40625,0,0
3.61457000508381E-06,-1.59590417752042E-05,1.40625,0,0
2.76678997579438E-06,-1.68910755746765E-05,1.40625,0,0
2.63447509496473E-06,-1.78248155862093E-05,1.40625,0,0
2.89914123641211E-06,-1.81645827979082E-05,1.40625,0,0
3.83442466045381E-06,-1.80191982508404E-05,1.40625,0,0
4.3535410441109E-06,-1.67942871485138E-05,1.40625,0,0
3.71039368474158E-06,-1.6720518033253E-05,1.40625,0,0
3.21252923640714E-06,-1.60509825946065E-05,1.40625,0,0
4.8884126044868E-06,-1.70083440025337E-05,1.40625,0,0
7.26850066712359E-06,-1.91232102224603E-05,1.40625,0,0
7.85477095632814E-06,-2.43173271883279E-05,1.40625,0,0
6.34795378573472E-06,-2.7649761250359E-05,1.40625,0,0
4.92721483169589E-06,-2.89999443339184E-05,1.40625,0,0
4.67028075945564E-06,-2.88750452455133E-05,1.40625,0,0
4.89531294078915E-06,-2.71755197900347E-05,1.40625,0,0
4.72684268970625E-06,-2.18631321331486E-05,1.40625,0,0
3.88814942198223E-06,-1.74969918589341E-05,1.40625,0,0
2.6727432214102E-06,-1.65641922649229E-05,1.40625,0,0
3.4297861475352E-06,-1.73856842593523E-05,1.40625,0,0
3.66806739293679E-06,-1.48332437674981E-05,1.40625,0,0
5.36495690539596E-06,-2.24149316636613E-05,1.40625,0,0
4.5438118831953E-06,-1.97501158254454E-05,1.40625,0,0
4.70944996777689E-06,-2.42766964220209E-05,1.40625,0,0
1.95371717381931E-06,-1.97397366719088E-05,1.40625,0,0
1.46575575854513E-06,-2.0020857846248E-05,1.40625,0,0
8.2780206867028E-07,-1.73482894751942E-05,1.40625,0,0
5.05049911225797E-07,-1.71143183251843E-05,1.40625,0,0
-1.16483397505363E-06,-1.514084306109E-05,1.40625,0,0
-1.80277390882111E-06,-1.48814478961867E-05,1.40625,0,0
-7.35745800284349E-07,-1.61950738402084E-05,1.40625,0,0
5.07398794979963E-07,-1.63350887305569E-05,1.40625,0,0
2.48668197855295E-06,-1.61279203894082E-05,1.40625,0,0
4.31978060078109E-06,-1.37482038553571E-05,1.40625,0,0
4.57919304608367E-06,-1.42706776387058E-05,1.40625,0,0
2.69133533947752E-06,-1.43795041367412E-05,1.40625,0,0
1.58295847541012E-06,-1.53609380504349E-05,1.40625,0,0
1.12417467335035E-06,-1.57131944433786E-05,1.40625,0,0
2.40058693634637E-06,-2.07766497624107E-05,1.40625,0,0
4.41542579210363E-06,-2.53040252573555E-05,1.40625,0,0
6.03548824074096E-06,-2.58384479820961E-05,1.40625,0,0
5.7159932111972E-06,-1.98702509806026E-05,1.40625,0,0
5.10786549057229E-06,-1.51513750097365E-05,1.40625,0,0
4.81285451314761E-06,-1.37875986183644E-05,1.40625,0,0
4.84522297483636E-06,-1.64765369845554E-05,1.40625,0,0
4.17156024923315E-06,-1.98160214495147E-05,1.40625,0,0
2.71768999482447E-06,-2.15603158721933E-05,1.40625,0,0
1.78207051249046E-06,-1.83822194230743E-05,1.40625,0,0
2.23946540245379E-06,-2.9016584448982E-05,1.40625,0,0
6.63651974264212E-07,-2.6640911528375E-05,1.40625,0,0
-3.40681395982756E-07,-3.25816836266313E-05,1.40625,0,0
-9.44007354064524E-07,-2.94537858280819E-05,1.40625,0,0
1.0643826726664E-06,-3.14789394906256E-05,1.40625,0,0
2.07930270335055E-06,-2.76420269074151E-05,1.40625,0,0
1.53011637848977E-06,-2.47812658926705E-05,1.40625,0,0
8.75322257343214E-07,-1.80784554686397E-05,1.40625,0,0
2.00592785404297E-06,-1.38480208988767E-05,1.40625,0,0
4.09684389524045E-06,-1.31749948195647E-05,1.40625,0,0
4.13643101637717E-06,-1.1678151167871E-05,1.40625,0,0
2.91492096948787E-06,-1.04187147371704E-05,1.40625,0,0
1.29709997054306E-06,-7.92105220170924E-06,1.40625,0,0
6.65582945202914E-07,-9.42490169109078E-06,1.40625,0,0
6.99864187936328E-07,-1.09982729554758E-05,1.40625,0,0
1.52223867644352E-06,-1.36796015794971E-05,1.40625,0,0
2.0215911717969E-06,-1.24092557598487E-05,1.40625,0,0
1.86790612133336E-06,-1.16109704322298E-05,1.40625,0,0
1.72048316926521E-06,-8.93134256330086E-06,1.40625,0,0
2.36672872233612E-06,-7.87837598181795E-06,1.40625,0,0
3.47208060702542E-06,-5.79471361561446E-06,1.40625,0,0
3.51795029018831E-06,-5.00134638059535E-06,1.40625,0,0
3.41731765729492E-06,-5.79509787712595E-06,1.40625,0,0
4.84096244690591E-06,-8.18437274574535E-06,1.40625,0,0
5.79043717152672E-06,-8.39750191516941E-06,1.40625,0,0
5.33683805770124E-06,-7.60485818318557E-06,1.40625,0,0
4.49826711701462E-06,-5.8920763876813E-06,1.40625,0,0
7.16956810720149E-06,-9.86296618066262E-06,1.40625,0,0
6.65041852698778E-06,-1.04381615528837E-05,1.40625,0,0
8.86692032509018E-06,-1.47305518112262E-05,1.40625,0,0
8.7293501565E-06,-1.68698825291358E-05,1.40625,0,0
8.80679817782948E-06,-1.89084657904459E-05,1.40625,0,0
8.32360819913447E-06,-1.72235704667401E-05,1.40625,0,0
9.38452194532147E-06,-1.55485995492199E-05,1.40625,0,0
9.17698980629211E-06,-1.56943733600201E-05,1.40625,0,0
7.80714890424861E-06,-1.68594597198535E-05,1.40625,0,0
6.67217454974889E-06,-1.70027105923509E-05,1.40625,0,0
5.93638424106757E-06,-1.63496715686051E-05,1.40625,0,0
6.45785439701285E-06,-1.74618235178059E-05,1.40625,0,0
6.53079223411623E-06,-1.87871009984519E-05,1.40625,0,0
6.13190240983386E-06,-1.85074859473389E-05,1.40625,0,0
4.88727027914138E-06,-1.688392876531E-05,1.40625,0,0
4.57091573480284E-06,-1.75274144567084E-05,1.40625,0,0
4.0346167224925E-06,-1.82643943844596E-05,1.40625,0,0
3.27901966556965E-06,-1.79816088348161E-05,1.40625,0,0
1.65712276611885E-06,-1.6296851754305E-05,1.40625,0,0
-4.50784000349813E-07,-1.47164255395182E-05,1.40625,0,0
-2.93126436190505E-06,-1.13059559225803E-05,1.40625,0,0
-2.94078108709073E-06,-6.37304901829339E-06,1.40625,0,0
4.61860842904116E-08,-2.4064995614026E-06,1.40625,0,0
3.05210551232449E-06,-5.01399767927069E-07,1.40625,0,0
3.58885154128075E-06,-4.44383658759762E-07,1.40625,0,0
3.01856175610737E-06,-3.66207359547843E-06,1.40625,0,0
2.18090394810133E-06,-8.31483157526236E-06,1.40625,0,0
2.69951942755142E-06,-1.8632817955222E-05,1.40625,0,0
2.42184296439518E-06,-2.34870676649734E-05,1.40625,0,0
4.76561490359018E-06,-2.7470501663629E-05,1.40625,0,0
6.16184252066887E-06,-2.8209211450303E-05,1.40625,0,0
7.14427324055578E-06,-3.12004740408156E-05,1.40625,0,0
6.05923696639366E-06,-3.49912043020595E-05,1.40625,0,0
5.31207206222462E-06,-3.78992735932115E-05,1.40625,0,0
4.60522778666927E-06,-3.68921828339808E-05,1.40625,0,0
4.17718774770037E-06,-3.64346269634552E-05,1.40625,0,0
3.51256608155381E-06,-3.6638568417402E-05,1.40625,0,0
2.66079268840258E-06,-3.65208252333105E-05,1.40625,0,0
1.54642373217939E-06,-3.47808563674334E-05,1.40625,0,0
1.11795181112484E-07,-2.9531085601775E-05,1.40625,0,0
-2.19936353573758E-07,-2.30053119594231E-05,1.40625,0,0
6.88506816004519E-07,-1.68078495335067E-05,1.40625,0,0
2.86702447738207E-06,-1.45739386425703E-05,1.40625,0,0
4.17284854847821E-06,-1.52675838762661E-05,1.40625,0,0
4.25778807766619E-06,-1.82277199201053E-05,1.40625,0,0
3.04727814182115E-06,-2.04963398573454E-05,1.40625,0,0
2.49241975325276E-06,-2.24509294639574E-05,1.40625,0,0
2.08502569876146E-06,-2.42270125454525E-05,1.40625,0,0
1.76516391547921E-06,-2.67276864178712E-05,1.40625,0,0
1.81752716343908E-06,-2.8389093131409E-05,1.40625,0,0
2.14364445128012E-06,-2.88355768134352E-05,1.40625,0,0
1.74211083958653E-06,-2.88150349661009E-05,1.40625,0,0
1.47309231124382E-06,-2.77135859505506E-05,1.40625,0,0
6.81850167438824E-07,-2.080309241137E-05,1.40625,0,0
5.72617409488885E-07,-2.96351772703929E-05,1.40625,0,0
4.17809985719941E-07,-2.2539166820934E-05,1.40625,0,0
2.54705901170382E-06,-2.66557708528126E-05,1.40625,0,0
4.43025282947929E-06,-1.89455749932677E-05,1.40625,0,0
4.83317853650078E-06,-1.85544195119292E-05,1.40625,0,0
3.46006731888338E-06,-1.40148131322348E-05,1.40625,0,0
2.5634747089498E-06,-1.36951603053603E-05,1.40625,0,0
3.14755766339658E-06,-1.1570223250601E-05,1.40625,0,0
3.71186956726888E-06,-1.08050780909252E-05,1.40625,0,0
3.44260524798301E-06,-1.08120038930792E-05,1.40625,0,0
2.09694621844392E-06,-1.03551319625694E-05,1.40625,0,0
8.00436225745216E-07,-1.13962396426359E-05,1.40625,0,0
5.40893097422668E-07,-1.00080651463941E-05,1.40625,0,0
1.63027516464354E-06,-9.86971463134978E-06,1.40625,0,0
3.10523455482326E-06,-7.39422284823377E-06,1.40625,0,0
3.59476234734757E-06,-8.20739933260484E-06,1.40625,0,0
2.90619959741889E-06,-7.25343898011488E-06,1.40625,0,0
1.84543000614212E-06,-8.55071721161949E-06,1.40625,0,0
1.78569518993754E-06,-7.13733697921271E-06,1.40625,0,0
2.84678435491514E-06,-6.51257732897648E-06,1.40625,0,0
3.28064470522804E-06,-5.42521820534603E-06,1.40625,0,0
3.48734965882613E-06,-6.81424171489198E-06,1.40625,0,0
3.7834042814211E-06,-7.31579984858399E-06,1.40625,0,0
4.02811065214337E-06,-7.36158153813449E-06,1.40625,0,0
3.48394064531021E-06,-6.85990426063654E-06,1.40625,0,0
2.21486948248639E-06,-7.30146894056816E-06,1.40625,0,0
1.48970968893991E-06,-7.26556572772097E-06,1.40625,0,0
2.26825227400695E-06,-1.21787979878718E-05,1.40625,0,0
1.42556450555276E-06,-1.27538605738664E-05,1.40625,0,0
1.12531904505886E-06,-1.6283762306557E-05,1.40625,0,0
4.57257897323871E-07,-1.6219597455347E-05,1.40625,0,0
5.80393304971949E-07,-1.75598634086782E-05,1.40625,0,0
2.73811515683065E-08,-1.81350806087721E-05,1.40625,0,0
-3.90730519939098E-07,-1.87946770893177E-05,1.40625,0,0
-3.05280281054365E-07,-1.77526835614117E-05,1.40625,0,0
8.35862238091067E-07,-1.72817799466429E-05,1.40625,0,0
2.35852553487348E-06,-1.57744270836702E-05,1.40625,0,0
2.89474360215536E-06,-1.3971302905702E-05,1.40625,0,0
3.44171144206484E-06,-1.36060098157031E-05,1.40625,0,0
3.68045357390656E-06,-1.23686222650576E-05,1.40625,0,0
2.77588173958065E-06,-1.16630881166202E-05,1.40625,0,0
8.54828044793976E-07,-1.1650026863208E-05,1.40625,0,0
-2.19730338812951E-07,-1.37257547976333E-05,1.40625,0,0
-7.59285043727687E-08,-1.59232167789014E-05,1.40625,0,0
8.12487286339092E-08,-1.99233945750166E-05,1.40625,0,0
-6.52413973512012E-07,-2.21701702685095E-05,1.40625,0,0
-5.90010188261658E-07,-2.1343561456888E-05,1.40625,0,0
5.80546895889711E-07,-1.83892916538753E-05,1.40625,0,0
1.35651009713911E-06,-1.65693527378608E-05,1.40625,0,0
8.60023817494948E-07,-1.70207567862235E-05,1.40625,0,0
1.16913167858002E-06,-2.15658747038106E-05,1.40625,0,0
2.81454981632123E-06,-2.49290005740477E-05,1.40625,0,0
2.14661667996552E-06,-2.41678862948902E-05,1.40625,0,0
-4.08536436680151E-07,-1.69871873367811E-05,1.40625,0,0
-3.15723127641832E-07,-2.26443335122895E-05,1.40625,0,0
1.96074461200624E-06,-1.56058085849509E-05,1.40625,0,0
3.98571773985168E-06,-2.11581245821435E-05,1.40625,0,0
4.29866076956387E-06,-1.90957689483184E-05,1.40625,0,0
4.39076529801241E-06,-2.2943666408537E-05,1.40625,0,0
4.87596844322979E-06,-2.11229853448458E-05,1.40625,0,0
6.4939413277898E-06,-2.15354448300786E-05,1.40625,0,0
7.67026540415827E-06,-1.88717476703459E-05,1.40625,0,0
7.5022476266895E-06,-1.65606343216496E-05,1.40625,0,0
7.81404469307745E-06,-1.42423687066184E-05,1.40625,0,0
8.74785928317579E-06,-1.17197323561413E-05,1.40625,0,0
8.67158905748511E-06,-1.26292270579142E-05,1.40625,0,0
6.95574317433056E-06,-1.30774405988632E-05,1.40625,0,0
4.90894854010548E-06,-1.5514040569542E-05,1.40625,0,0
5.01879958392237E-06,-1.5967230865499E-05,1.40625,0,0
6.88095315126702E-06,-1.77914116648026E-05,1.40625,0,0
8.42602003103821E-06,-1.61604712047847E-05,1.40625,0,0
8.31094348541228E-06,-1.58486673171865E-05,1.40625,0,0
6.69500468575279E-06,-1.49227525980677E-05,1.40625,0,0
5.36286461283453E-06,-1.44603272929089E-05,1.40625,0,0
5.5223140407179E-06,-1.14487584141898E-05,1.40625,0,0
6.25202665105462E-06,-1.10163546196418E-05,1.40625,0,0
7.12710243533365E-06,-1.2399712431943E-05,1.40625,0,0
7.96464155428112E-06,-1.61738862516358E-05,1.40625,0,0
8.2024544099113E-06,-1.84109430847457E-05,1.40625,0,0
9.13180610950803E-06,-1.83197244041367E-05,1.40625,0,0
7.47176090953872E-06,-1.48567305586766E-05,1.40625,0,0
9.34412219066871E-06,-2.09445242944639E-05,1.40625,0,0
4.66966457679519E-06,-1.5902593077044E-05,1.40625,0,0
6.10668030276429E-06,-2.19091816688888E-05,1.40625,0,0
5.72851467950386E-06,-2.29321940423688E-05,1.40625,0,0
8.61357693793252E-06,-2.74728099611821E-05,1.40625,0,0
8.28255724627525E-06,-2.6142375645577E-05,1.40625,0,0
8.20144214230822E-06,-2.69935080723371E-05,1.40625,0,0
8.10894562164322E-06,-2.73810910584871E-05,1.40625,0,0
8.68937422637828E-06,-2.86325630440842E-05,1.40625,0,0
9.03987256606342E-06,-2.99519360851264E-05,1.40625,0,0
8.88406975718681E-06,-2.78845691354945E-05,1.40625,0,0
7.5852017289435E-06,-2.41384750552243E-05,1.40625,0,0
4.48698574473383E-06,-1.94200802070554E-05,1.40625,0,0
2.99397220260289E-06,-1.87353598448681E-05,1.40625,0,0
1.76281730546179E-06,-1.88181566045387E-05,1.40625,0,0
1.26574241221533E-06,-2.08165147341788E-05,1.40625,0,0
6.01013368850545E-07,-1.97587451111758E-05,1.40625,0,0
2.20326364797074E-06,-1.76013109012274E-05,1.40625,0,0
2.89777767648047E-06,-1.27141056509572E-05,1.40625,0,0
4.00630960939452E-06,-1.07995028884034E-05,1.40625,0,0
4.63284413854126E-06,-1.24314356071409E-05,1.40625,0,0
4.7099433686526E-06,-1.80619317688979E-05,1.40625,0,0
4.47479214926716E-06,-2.38281845668098E-05,1.40625,0,0
5.0759113037202E-06,-2.75470592896454E-05,1.40625,0,0
3.83307406082167E-06,-2.65760645561386E-05,1.40625,0,0
2.22342964661948E-06,-2.56906678259838E-05,1.40625,0,0
2.1976252355671E-06,-1.97244244191097E-05,1.40625,0,0
4.52330414191238E-06,-2.20255788008217E-05,1.40625,0,0
3.97237727156607E-06,-6.01261126575992E-06,1.40625,0,0
2.84057909993862E-06,-7.01604176356341E-06,1.40625,0,0
2.64605887423386E-06,-1.32807849695382E-06,1.40625,0,0
2.73856403509853E-06,-4.88462728753802E-06,1.40625,0,0
8.18952059944422E-07,-4.56989937447361E-06,1.40625,0,0
-9.26036193504842E-07,-7.91536058386555E-06,1.40625,0,0
-4.5906173795629E-07,-7.62530089559732E-06,1.40625,0,0
1.76802939222398E-06,-6.7922455855296E-06,1.40625,0,0
3.18293882628495E-06,-6.46554235572694E-06,1.40625,0,0
1.75038303495967E-06,-5.38958329343586E-06,1.40625,0,0
5.82248844693822E-07,-6.19113870925503E-06,1.40625,0,0
1.10010273601802E-06,-8.28973588795634E-06,1.40625,0,0
1.00129057045706E-06,-1.81649320438737E-05,1.40625,0,0
-2.43000926047898E-07,-2.8326794563327E-05,1.40625,0,0
-8.05041224793968E-07,-3.74791488866322E-05,1.40625,0,0
-5.41539542098235E-08,-3.5531134926714E-05,1.40625,0,0
1.48398260080285E-06,-2.79102405329468E-05,1.40625,0,0
2.38102165894816E-06,-1.75510012923041E-05,1.40625,0,0
2.18657487494056E-06,-1.27455032270518E-05,1.40625,0,0
1.87942077900516E-06,-1.05457611425663E-05,1.40625,0,0
1.96310770661512E-06,-1.19972983156913E-05,1.40625,0,0
7.57628868086613E-07,-1.1843412721646E-05,1.40625,0,0
-1.1174313385709E-06,-1.05430872281431E-05,1.40625,0,0
-5.86301894145436E-07,-9.43583199841669E-06,1.40625,0,0
1.94346011994639E-06,-9.7709726105677E-06,1.40625,0,0
4.22364655605634E-06,-1.01223040473997E-05,1.40625,0,0
6.91426748744561E-06,-1.63755685207434E-05,1.40625,0,0
5.02937245983048E-06,-1.51555395859759E-05,1.40625,0,0
5.41133977094432E-06,-1.71462816069834E-05,1.40625,0,0
5.05745128975832E-06,-1.43068691613735E-05,1.40625,0,0
4.85141436001868E-06,-1.56807564053452E-05,1.40625,0,0
4.84894962937688E-06,-1.59580231411383E-05,1.40625,0,0
5.8188479670207E-06,-1.74063152371673E-05,1.40625,0,0
4.88196747028269E-06,-1.76314006239409E-05,1.40625,0,0
2.90414959636109E-06,-1.71669144037878E-05,1.40625,0,0
2.23366919271939E-06,-1.71706979017472E-05,1.40625,0,0
2.19899402509327E-06,-1.73466269188793E-05,1.40625,0,0
2.3477134618588E-06,-1.88674493983854E-05,1.40625,0,0
2.45971909862419E-06,-1.88043413800187E-05,1.40625,0,0
3.28425016959955E-06,-1.76709672814468E-05,1.40625,0,0
3.57055751010193E-06,-1.5042180166347E-05,1.40625,0,0
4.08466075896285E-06,-1.43421511893393E-05,1.40625,0,0
4.1355742723681E-06,-1.40221982292132E-05,1.40625,0,0
3.41071108778124E-06,-1.53118780872319E-05,1.40625,0,0
1.63284448717604E-06,-1.46778147609439E-05,1.40625,0,0
8.21666333195026E-07,-1.37826518766815E-05,1.40625,0,0
1.09092161437729E-06,-1.35670643430785E-05,1.40625,0,0
1.08795018149976E-06,-1.42562212204211E-05,1.40625,0,0
2.24910522206301E-07,-1.40741722134408E-05,1.40625,0,0
9.12514437345635E-08,-1.4967136849009E-05,1.40625,0,0
1.38892607992602E-06,-1.70797684404533E-05,1.40625,0,0
2.49628419624059E-06,-1.90736154763727E-05,1.40625,0,0
2.18282730202191E-06,-1.41338250614353E-05,1.40625,0,0
3.35506865667412E-06,-1.81808409251971E-05,1.40625,0,0
3.12502697852324E-06,-1.29528871184448E-05,1.40625,0,0
3.55635097548657E-06,-1.95730663108407E-05,1.40625,0,0
2.24750942834362E-06,-1.8122287656297E-05,1.40625,0,0
1.36751009449654E-06,-2.04813404707238E-05,1.40625,0,0
-5.94431242006976E-07,-1.89071852219058E-05,1.40625,0,0
-1.82811618287815E-06,-2.05694850592408E-05,1.40625,0,0
-1.89924060123303E-06,-2.05143387574935E-05,1.40625,0,0
-1.3051027281108E-06,-2.09107638511341E-05,1.40625,0,0
-1.48508468100772E-06,-2.07723987841746E-05,1.40625,0,0
-2.24995710595977E-06,-1.96502896869788E-05,1.40625,0,0
-1.74872366187628E-06,-1.91015406016959E-05,1.40625,0,0
-6.76944239330624E-07,-1.81629075086676E-05,1.40625,0,0
7.45281454328506E-07,-2.026802758337E-05,1.40625,0,0
1.67097505254787E-06,-2.12432532862294E-05,1.40625,0,0
2.45415662902815E-06,-2.2984409952187E-05,1.40625,0,0
3.48418780049542E-06,-2.04509178729495E-05,1.40625,0,0
5.39726170245558E-06,-1.85318876901874E-05,1.40625,0,0
6.11855512033799E-06,-1.70408638950903E-05,1.40625,0,0
5.91323441767599E-06,-1.81695686478633E-05,1.40625,0,0
5.6921139730548E-06,-1.82045641849982E-05,1.40625,0,0
4.97510927743861E-06,-1.93794458027696E-05,1.40625,0,0
3.95524375562673E-06,-1.89874990610406E-05,1.40625,0,0
4.31485659646569E-06,-1.83796291821636E-05,1.40625,0,0
6.36768936601584E-06,-1.78099307959201E-05,1.40625,0,0
8.0259878814104E-06,-1.80433198693208E-05,1.40625,0,0
5.70664224142092E-06,-1.45746698763105E-05,1.40625,0,0
7.08800325810444E-06,-2.01729126274586E-05,1.40625,0,0
4.5282149585546E-06,-1.55313737195684E-05,1.40625,0,0
6.21475919615477E-06,-2.02770970645361E-05,1.40625,0,0
4.63703008790617E-06,-1.68723363458412E-05,1.40625,0,0
6.29863598078373E-06,-1.76936719071819E-05,1.40625,0,0
6.65175593894674E-06,-1.4530795851897E-05,1.40625,0,0
6.47763954475522E-06,-1.5386396626127E-05,1.40625,0,0
5.15579858983983E-06,-1.59027022164082E-05,1.40625,0,0
5.2502214202832E-06,-1.56462410814129E-05,1.40625,0,0
5.68149607715895E-06,-1.55353009176906E-05,1.40625,0,0
5.70193378734984E-06,-1.55765574163524E-05,1.40625,0,0
5.60965327167651E-06,-1.67842681548791E-05,1.40625,0,0
4.54846531283692E-06,-1.65092660608934E-05,1.40625,0,0
4.02051591663621E-06,-1.74268279806711E-05,1.40625,0,0
3.16028649649525E-06,-1.58667953655822E-05,1.40625,0,0
2.77614162769169E-06,-1.60217477969127E-05,1.40625,0,0
1.50468883930444E-06,-1.52280927068205E-05,1.40625,0,0
1.82305575435748E-06,-1.60446215886623E-05,1.40625,0,0
2.17406841329648E-06,-1.59454011736671E-05,1.40625,0,0
2.90670095637324E-06,-1.81168579729274E-05,1.40625,0,0
2.47474895331834E-06,-2.07969114853768E-05,1.40625,0,0
1.65834364906914E-06,-2.44499879045179E-05,1.40625,0,0
-3.57535014927635E-07,-2.37589683820261E-05,1.40625,0,0
-1.82256508196588E-06,-2.04455573111773E-05,1.40625,0,0
-2.23200936488865E-06,-1.83031461347127E-05,1.40625,0,0
-1.11411816305917E-06,-1.73643475136487E-05,1.40625,0,0
2.84581687992613E-07,-1.225809501193E-05,1.40625,0,0
3.7425954246828E-07,-1.62295473273844E-05,1.40625,0,0
4.34455358799823E-07,-1.1684646779031E-05,1.40625,0,0
1.02890885500528E-06,-1.3904176739743E-05,1.40625,0,0
2.15380782719876E-06,-7.88450051913969E-06,1.40625,0,0
3.38906193064759E-06,-7.56549479774549E-06,1.40625,0,0
3.83269843950984E-06,-5.29553653905168E-06,1.40625,0,0
3.63970502803568E-06,-5.40736255061347E-06,1.40625,0,0
2.94519918497826E-06,-3.85296561944415E-06,1.40625,0,0
2.55754548561526E-06,-4.19812613472459E-06,1.40625,0,0
3.50863365383702E-06,-5.78077469981508E-06,1.40625,0,0
5.49041897102143E-06,-5.86230225962936E-06,1.40625,0,0
6.76591071169241E-06,-6.21464823780116E-06,1.40625,0,0
5.38667018190608E-06,-5.98462838752312E-06,1.40625,0,0
4.17348337578005E-06,-8.36397975945147E-06,1.40625,0,0
5.02298735227669E-06,-9.91740762401605E-06,1.40625,0,0
5.91857269682805E-06,-1.36417284011259E-05,1.40625,0,0
5.18048636877211E-06,-1.6849699022714E-05,1.40625,0,0
3.81017366635206E-06,-2.28262852033367E-05,1.40625,0,0
3.36745324602816E-06,-2.71405915555079E-05,1.40625,0,0
3.42467978953209E-06,-2.91484757326543E-05,1.40625,0,0
3.2219877539319E-06,-2.82916116702836E-05,1.40625,0,0
3.85027487936895E-06,-2.88399824057706E-05,1.40625,0,0
4.60768615084817E-06,-2.91101259790594E-05,1.40625,0,0
3.78421941604756E-06,-2.91853211820126E-05,1.40625,0,0
2.06162485483219E-06,-2.83512981695822E-05,1.40625,0,0
1.67177347520919E-06,-2.65619964920916E-05,1.40625,0,0
2.85403166344622E-06,-1.94564163393807E-05,1.40625,0,0
4.33083278039703E-06,-2.65026719716843E-05,1.40625,0,0
3.47601667272102E-06,-1.79671333171427E-05,1.40625,0,0
4.03541889681946E-06,-2.12641425605398E-05,1.40625,0,0
3.1045378818817E-06,-1.50692403622088E-05,1.40625,0,0
2.86350223177578E-06,-1.68565184139879E-05,1.40625,0,0
1.53676126046776E-06,-1.45334861372248E-05,1.40625,0,0
2.26740030484507E-06,-1.51064459714689E-05,1.40625,0,0
3.94567587136407E-06,-1.34715082822368E-05,1.40625,0,0
4.56102861789986E-06,-1.37354263642919E-05,1.40625,0,0
5.30967554368544E-06,-1.48947901834617E-05,1.40625,0,0
5.05747402712586E-06,-1.51998838191503E-05,1.40625,0,0
4.15684417021112E-06,-1.82128005690174E-05,1.40625,0,0
3.22211440106912E-06,-1.9005850845133E-05,1.40625,0,0
4.04039883505902E-06,-1.88791455002502E-05,1.40625,0,0
5.0366925279377E-06,-1.44723107950995E-05,1.40625,0,0
4.68817643195507E-06,-1.28011552078533E-05,1.40625,0,0
3.77736250811722E-06,-1.16262208393891E-05,1.40625,0,0
4.52265612693736E-06,-1.48864201037213E-05,1.40625,0,0
6.06757294008275E-06,-1.66509289556416E-05,1.40625,0,0
7.20604111847933E-06,-1.85124135896331E-05,1.40625,0,0
7.10879658072372E-06,-1.78211685124552E-05,1.40625,0,0
6.58145700072055E-06,-1.8534328773967E-05,1.40625,0,0
6.41528367850697E-06,-1.890040221042E-05,1.40625,0,0
6.76605441185529E-06,-1.86138822755311E-05,1.40625,0,0
6.22879269940313E-06,-1.64925750141265E-05,1.40625,0,0
4.25411144533427E-06,-1.38405121106189E-05,1.40625,0,0
2.04211437448976E-06,-1.13383302959846E-05,1.40625,0,0
3.69345730177884E-06,-1.76007160916924E-05,1.40625,0,0
4.99955967825372E-06,-1.45710382639663E-05,1.40625,0,0
6.35158357908949E-06,-1.82119929377222E-05,1.40625,0,0
5.07285449202755E-06,-2.14615174627397E-05,1.40625,0,0
6.02600312049617E-06,-2.95908885163954E-05,1.40625,0,0
7.3901865107473E-06,-3.02299886243418E-05,1.40625,0,0
6.92785397404805E-06,-2.47211100941058E-05,1.40625,0,0
4.25693679062533E-06,-1.64933953783475E-05,1.40625,0,0
2.30474483942089E-06,-1.2881511793239E-05,1.40625,0,0
2.39879750552063E-06,-1.38091918415739E-05,1.40625,0,0
3.48043636222428E-06,-1.49837678691256E-05,1.40625,0,0
4.62612251794781E-06,-1.67050784511957E-05,1.40625,0,0
4.91091577714542E-06,-1.65978544828249E-05,1.40625,0,0
4.7939447540557E-06,-1.46609227158478E-05,1.40625,0,0
3.99681584895006E-06,-1.05212420749012E-05,1.40625,0,0
3.17589274345664E-06,-1.02555895864498E-05,1.40625,0,0
3.18800289278443E-06,-1.08261901914375E-05,1.40625,0,0
4.22043149228557E-06,-1.0618438864185E-05,1.40625,0,0
4.24499148721225E-06,-8.51341064844746E-06,1.40625,0,0
3.97492522097309E-06,-8.84294058778323E-06,1.40625,0,0
4.30905538451043E-06,-1.07007135738968E-05,1.40625,0,0
5.14660132466815E-06,-1.31451761262724E-05,1.40625,0,0
5.16991667609545E-06,-1.37899369292427E-05,1.40625,0,0
4.59860211776686E-06,-1.55449361045612E-05,1.40625,0,0
4.72632700621034E-06,-1.89268030226231E-05,1.40625,0,0
6.01606188865844E-06,-1.92867664736696E-05,1.40625,0,0
6.39084373688092E-06,-1.27934563352028E-05,1.40625,0,0
9.10185099201044E-06,-1.70130533660995E-05,1.40625,0,0
5.91439038544195E-06,-1.06200341178919E-05,1.40625,0,0
6.15161070527392E-06,-1.24390444398159E-05,1.40625,0,0
4.27947861680877E-06,-9.57826341618784E-06,1.40625,0,0
3.16822547574702E-06,-1.37175711643067E-05,1.40625,0,0
4.08188554956723E-07,-1.66933696164051E-05,1.40625,0,0
5.43361807103793E-07,-2.12436043511843E-05,1.40625,0,0
1.48717106185359E-06,-2.08223791560158E-05,1.40625,0,0
3.00089186566765E-06,-1.9114919268759E-05,1.40625,0,0
2.67397626885213E-06,-1.82560324901715E-05,1.40625,0,0
1.60189438247471E-06,-1.77236652234569E-05,1.40625,0,0
7.69525399846316E-07,-1.78814752871403E-05,1.40625,0,0
-7.97993891410442E-07,-1.65657984325662E-05,1.40625,0,0
-1.31192120988999E-06,-1.73798052856E-05,1.40625,0,0
-1.29172360630037E-06,-1.74720917129889E-05,1.40625,0,0
4.93756033392856E-07,-1.8149179595639E-05,1.40625,0,0
2.27875307245995E-06,-1.65268284035847E-05,1.40625,0,0
5.31901650902E-06,-1.78007794602308E-05,1.40625,0,0
6.87404963173321E-06,-2.01403308892623E-05,1.40625,0,0
6.85130680722068E-06,-2.46930976572912E-05,1.40625,0,0
5.40249493496958E-06,-2.89235485979589E-05,1.40625,0,0
5.30000897924765E-06,-3.11725343635771E-05,1.40625,0,0
5.02999955642736E-06,-2.74891372100683E-05,1.40625,0,0
4.49645131084253E-06,-2.21319605770987E-05,1.40625,0,0
4.05157425120706E-06,-1.81532141141361E-05,1.40625,0,0
5.33341381014907E-06,-1.74748438439565E-05,1.40625,0,0
6.00207386014517E-06,-1.40226184157655E-05,1.40625,0,0
8.23811751615722E-06,-1.96705641428707E-05,1.40625,0,0
3.2121397453011E-06,-1.48073513628333E-05,1.40625,0,0
1.23779841487703E-06,-1.76403955265414E-05,1.40625,0,0
2.57049862284475E-07,-1.27075700220303E-05,1.40625,0,0
3.33521188622399E-06,-1.52108414113172E-05,1.40625,0,0
5.08565972268116E-06,-1.81861214514356E-05,1.40625,0,0
5.40818064109772E-06,-2.43684826273238E-05,1.40625,0,0
2.91779269900871E-06,-2.75792626780458E-05,1.40625,0,0
5.62272532533825E-07,-2.86087597487494E-05,1.40625,0,0
-6.1401254924931E-07,-2.6841000362765E-05,1.40625,0,0
-1.14035867682105E-06,-2.31786179938354E-05,1.40625,0,0
-3.88809183959893E-07,-2.13572384382132E-05,1.40625,0,0
-9.58353325586359E-07,-1.96662695088889E-05,1.40625,0,0
-1.70375881225482E-06,-1.98985926544992E-05,1.40625,0,0
-1.72774764450878E-06,-1.97653389477637E-05,1.40625,0,0
-1.99246400711672E-07,-2.27225500566419E-05,1.40625,0,0
5.4961727613545E-08,-2.33494265557965E-05,1.40625,0,0
1.78077840473634E-07,-2.2801923478255E-05,1.40625,0,0
1.33812591229798E-07,-2.00415634026285E-05,1.40625,0,0
1.54786550865538E-06,-2.01215952984057E-05,1.40625,0,0
2.46515310209361E-06,-2.0267847503419E-05,1.40625,0,0
1.76524019934732E-06,-2.0489729649853E-05,1.40625,0,0
4.70398248353376E-07,-1.92536372196628E-05,1.40625,0,0
8.85232452674245E-07,-1.76691464730538E-05,1.40625,0,0
2.81349412034615E-06,-1.56088863150217E-05,1.40625,0,0
4.96290522278287E-06,-1.34959764181986E-05,1.40625,0,0
3.25991982208507E-06,-9.68437871051719E-06,1.40625,0,0
2.41773705056403E-06,-1.319532020716E-05,1.40625,0,0
-1.23341396829346E-06,-1.04856771940831E-05,1.40625,0,0
-1.12261409412895E-06,-1.45208941830788E-05,1.40625,0,0
-2.40644749283092E-06,-1.37085826281691E-05,1.40625,0,0
-1.82089581812761E-06,-1.79815979208797E-05,1.40625,0,0
-2.93260450234811E-06,-2.04274238058133E-05,1.40625,0,0
-3.15380543725041E-06,-2.23054885282181E-05,1.40625,0,0
-3.58294573743478E-06,-1.9744984456338E-05,1.40625,0,0
-3.27003635902656E-06,-1.6360489098588E-05,1.40625,0,0
-1.0338437732571E-06,-1.59498740686104E-05,1.40625,0,0
1.44221655773435E-06,-1.72252075572032E-05,1.40625,0,0
2.60842557509022E-06,-1.89693237189204E-05,1.40625,0,0
2.34121694120404E-06,-1.80246170202736E-05,1.40625,0,0
2.4657892936375E-06,-1.7855014448287E-05,1.40625,0,0
1.74580588918616E-06,-1.72330383065855E-05,1.40625,0,0
7.27359463326138E-07,-1.72173404280329E-05,1.40625,0,0
-4.20149689261962E-07,-1.4863216165395E-05,1.40625,0,0
-1.19358688266402E-07,-1.36686394398566E-05,1.40625,0,0
5.81168322355552E-08,-1.24327361845644E-05,1.40625,0,0
4.73845716442156E-07,-1.17304080049507E-05,1.40625,0,0
1.36290680075035E-06,-1.10467162812711E-05,1.40625,0,0
3.20627850669553E-06,-1.22430647024885E-05,1.40625,0,0
3.89110937248915E-06,-1.44015457408386E-05,1.40625,0,0
4.15260319641675E-06,-1.50881942317938E-05,1.40625,0,0
4.21811682826956E-06,-1.36043890961446E-05,1.40625,0,0
3.8733342080377E-06,-1.35569607664365E-05,1.40625,0,0
3.81850122721517E-06,-1.04913242466864E-05,1.40625,0,0
4.48926766694058E-06,-1.50260921145673E-05,1.40625,0,0
-1.06542557887224E-07,-1.1425232514739E-05,1.40625,0,0
-8.65238121150469E-07,-1.31226724988665E-05,1.40625,0,0
-1.45254318795196E-07,-9.86081704468234E-06,1.40625,0,0
1.64402172231348E-06,-1.16551827886724E-05,1.40625,0,0
1.15459602056944E-06,-1.16335122584132E-05,1.40625,0,0
4.74970676123121E-07,-1.26943605209817E-05,1.40625,0,0
5.71827570183814E-07,-1.14398353616707E-05,1.40625,0,0
8.09819937330758E-07,-1.09156953840284E-05,1.40625,0,0
1.68094106811623E-06,-1.24547868836089E-05,1.40625,0,0
3.42837529387907E-06,-1.43104616654455E-05,1.40625,0,0
5.94794528296916E-06,-1.63153399626026E-05,1.40625,0,0
7.03178739058785E-06,-1.62715441547334E-05,1.40625,0,0
7.49821583667654E-06,-1.62770138558699E-05,1.40625,0,0
7.56991266825935E-06,-1.44694404298207E-05,1.40625,0,0
7.30687406758079E-06,-1.33473322421196E-05,1.40625,0,0
6.41813812762848E-06,-1.03946495073615E-05,1.40625,0,0
6.66537653160049E-06,-7.86767213867279E-06,1.40625,0,0
7.57133011575206E-06,-5.54322014068021E-06,1.40625,0,0
7.5936914072372E-06,-6.84334145262255E-06,1.40625,0,0
6.47742263026885E-06,-9.59797398536466E-06,1.40625,0,0
5.87238992011407E-06,-1.17655599751743E-05,1.40625,0,0
4.78561514682951E-06,-1.04102855402743E-05,1.40625,0,0
4.35254787589656E-06,-8.31571014714427E-06,1.40625,0,0
6.34883872407954E-06,-8.41366727399873E-06,1.40625,0,0
8.18822718429146E-06,-9.84576126938919E-06,1.40625,0,0
5.98137148699607E-06,-1.03690554169589E-05,1.40625,0,0
6.55127860227367E-06,-1.7445367120672E-05,1.40625,0,0
2.8582503546204E-06,-1.82786297955317E-05,1.40625,0,0
5.07182812725659E-06,-2.42732476181118E-05,1.40625,0,0
3.08834773932176E-06,-2.43770409724675E-05,1.40625,0,0
1.77126332800981E-06,-2.7186641091248E-05,1.40625,0,0
7.04186930988726E-08,-2.91258202196332E-05,1.40625,0,0
2.40035774368152E-06,-2.98293962259777E-05,1.40625,0,0
3.4956285617227E-06,-2.59519183600787E-05,1.40625,0,0
3.17829153573257E-06,-2.20000256376807E-05,1.40625,0,0
2.59224884757714E-06,-1.97132449102355E-05,1.40625,0,0
2.19674279833271E-06,-1.72067429957679E-05,1.40625,0,0
2.62187609223474E-06,-1.64719695021631E-05,1.40625,0,0
2.15442719309067E-06,-1.78481041075429E-05,1.40625,0,0
2.28746739594499E-06,-2.12938048207434E-05,1.40625,0,0
1.31492708987935E-06,-2.15889886021614E-05,1.40625,0,0
1.47957780427532E-06,-2.08229430427309E-05,1.40625,0,0
1.11349368125957E-06,-1.92419829545543E-05,1.40625,0,0
6.89217756644211E-07,-2.00037757167593E-05,1.40625,0,0
-5.86374653721577E-07,-2.27917880692985E-05,1.40625,0,0
-4.69299919814148E-07,-2.74201029242249E-05,1.40625,0,0
-8.00759266894602E-07,-3.0258810511441E-05,1.40625,0,0
-1.04230684883078E-06,-3.53910509147681E-05,1.40625,0,0
-6.96018560120137E-07,-3.95776623918209E-05,1.40625,0,0
1.13667852019717E-06,-3.3656891901046E-05,1.40625,0,0
3.0064820748521E-06,-1.81974082806846E-05,1.40625,0,0
4.212109161017E-06,-4.02424075218732E-06,1.40625,0,0
4.50236802862491E-06,2.28842827709741E-06,1.40625,0,0
6.50727679385454E-06,1.9974165752501E-06,1.40625,0,0
5.32173817191506E-06,-2.58424392995948E-06,1.40625,0,0
6.93893798597855E-06,-6.11356563240406E-06,1.40625,0,0
6.55617486700066E-06,-9.95851951302029E-06,1.40625,0,0
7.7800059443689E-06,-1.17104909804766E-05,1.40625,0,0
6.84878614265472E-06,-1.21497587315389E-05,1.40625,0,0
5.20249795954442E-06,-1.22312176245032E-05,1.40625,0,0
3.61880302079953E-06,-1.39299781949376E-05,1.40625,0,0
3.41888198818197E-06,-1.51044077938423E-05,1.40625,0,0
4.2162682802882E-06,-1.37603619805304E-05,1.40625,0,0
4.92790195494308E-06,-1.13591058834572E-05,1.40625,0,0
5.96078598391614E-06,-1.0498974006623E-05,1.40625,0,0
5.94594257563585E-06,-1.13183623398072E-05,1.40625,0,0
5.9363478612795E-06,-1.18772004498169E-05,1.40625,0,0
5.70941392652458E-06,-1.27973489725264E-05,1.40625,0,0
6.47587057756027E-06,-1.39323155963211E-05,1.40625,0,0
6.95894777891226E-06,-1.55780817294726E-05,1.40625,0,0
7.42062002245802E-06,-1.73417665791931E-05,1.40625,0,0
7.19081072020344E-06,-1.92746101674857E-05,1.40625,0,0
6.44706187813426E-06,-2.02397332031978E-05,1.40625,0,0
5.43328178537195E-06,-2.07600751309656E-05,1.40625,0,0
6.55204166832846E-06,-2.16687221836764E-05,1.40625,0,0
7.43250939194695E-06,-2.30367550102528E-05,1.40625,0,0
6.49318735668203E-06,-2.32696893363027E-05,1.40625,0,0
4.61436684418004E-06,-2.15014097193489E-05,1.40625,0,0
2.66796382675238E-06,-1.68621227203403E-05,1.40625,0,0
1.09697577954648E-06,-1.03109696283354E-05,1.40625,0,0
1.01481259662251E-06,-1.61922253028024E-05,1.40625,0,0
-2.09601168421614E-07,-1.51672247739043E-05,1.40625,0,0
-3.22566279464809E-07,-1.90764330909587E-05,1.40625,0,0
-6.03702801527106E-07,-1.67983744177036E-05,1.40625,0,0
-1.10135226805141E-06,-1.67009857250378E-05,1.40625,0,0
-1.64307675731834E-06,-1.39037611006643E-05,1.40625,0,0
-1.45567358167398E-09,-1.53258224599995E-05,1.40625,0,0
1.31108265577495E-06,-1.65152850968298E-05,1.40625,0,0
1.87347438895813E-07,-1.80449169420172E-05,1.40625,0,0
-1.13554972358543E-06,-1.87596360774478E-05,1.40625,0,0
-2.85616891915197E-07,-1.8839658878278E-05,1.40625,0,0
2.16597550206643E-06,-2.04841617232887E-05,1.40625,0,0
4.29311103289365E-06,-2.16477546928218E-05,1.40625,0,0
5.75219291931717E-06,-2.33987484534737E-05,1.40625,0,0
6.42621580482228E-06,-2.34121635003248E-05,1.40625,0,0
6.05053537583444E-06,-2.5187922801706E-05,1.40625,0,0
4.80016979054199E-06,-2.54610658885213E-05,1.40625,0,0
3.94620701626991E-06,-2.39340915868524E-05,1.40625,0,0
3.94955714000389E-06,-1.9406519641052E-05,1.40625,0,0
4.64069717054372E-06,-1.72088748513488E-05,1.40625,0,0
5.01389831697452E-06,-1.68036058312282E-05,1.40625,0,0
5.37773757969262E-06,-1.74665856320644E-05,1.40625,0,0
6.10983397564269E-06,-1.73286261997418E-05,1.40625,0,0
6.73254317007377E-06,-1.6404315829277E-05,1.40625,0,0
7.5814832598553E-06,-1.47531873153639E-05,1.40625,0,0
7.23530638424563E-06,-1.59458886628272E-05,1.40625,0,0
4.22386074205861E-06,-1.51092153828358E-05,1.40625,0,0
5.99610439167009E-06,-2.30610658036312E-05,1.40625,0,0
6.47278602627921E-06,-1.89122583833523E-05,1.40625,0,0
9.12543237063801E-06,-2.3040871383273E-05,1.40625,0,0
6.88535692461301E-06,-2.07875673368108E-05,1.40625,0,0
6.63649507259834E-06,-2.26817992370343E-05,1.40625,0,0
6.14339387539076E-06,-2.07517168746563E-05,1.40625,0,0
6.38001256447751E-06,-2.03073304874124E-05,1.40625,0,0
5.5900518418639E-06,-1.74920278368518E-05,1.40625,0,0
5.41226836503483E-06,-1.51089798237081E-05,1.40625,0,0
6.0807797126472E-06,-1.46261754707666E-05,1.40625,0,0
5.60310945729725E-06,-1.42452554428019E-05,1.40625,0,0
4.5665374273085E-06,-1.54610133904498E-05,1.40625,0,0
3.10874315800902E-06,-1.54201261466369E-05,1.40625,0,0
3.65349637831969E-06,-1.56231581058819E-05,1.40625,0,0
4.59580724054831E-06,-1.36125900098705E-05,1.40625,0,0
4.95286212753854E-06,-1.2745066669595E-05,1.40625,0,0
3.60615877070813E-06,-1.06706302176462E-05,1.40625,0,0
2.8527106223919E-06,-1.14975500764558E-05,1.40625,0,0
2.63656806964718E-06,-1.20754293675418E-05,1.40625,0,0
4.21861386712408E-06,-1.27518023873563E-05,1.40625,0,0
5.79207880946342E-06,-1.15295661089476E-05,1.40625,0,0
5.90591707805288E-06,-1.14557306005736E-05,1.40625,0,0
3.60636909135792E-06,-1.36694761749823E-05,1.40625,0,0
9.51477943544887E-07,-1.78217487700749E-05,1.40625,0,0
2.16251905271747E-07,-2.06487184186699E-05,1.40625,0,0
1.31084880194976E-06,-2.18110708374297E-05,1.40625,0,0
2.72776134124797E-07,-1.7833910533227E-05,1.40625,0,0
-1.05814581274899E-06,-2.48250726144761E-05,1.40625,0,0
-2.06057279683591E-06,-1.62798514793394E-05,1.40625,0,0
-1.9602511258654E-07,-1.9325758330524E-05,1.40625,0,0
7.10456106389756E-07,-1.68069309438579E-05,1.40625,0,0
3.94507566170432E-07,-2.1097455828567E-05,1.40625,0,0
1.13728916062428E-07,-2.01766324607888E-05,1.40625,0,0
1.01508499028569E-06,-2.07187713385792E-05,1.40625,0,0
1.95490224541572E-06,-1.85750795935746E-05,1.40625,0,0
2.16368448491266E-06,-1.67051948665176E-05,1.40625,0,0
2.11475912692549E-06,-1.69682971318252E-05,1.40625,0,0
2.39646374211588E-06,-1.76809862750815E-05,1.40625,0,0
2.96042890113313E-06,-1.96924120245967E-05,1.40625,0,0
2.21627760765841E-06,-1.90418249985669E-05,1.40625,0,0
4.94762616654043E-07,-1.96416731341742E-05,1.40625,0,0
-2.98217059935268E-07,-1.92410825547995E-05,1.40625,0,0
9.02585782114329E-07,-2.17849901673617E-05,1.40625,0,0
2.38232109950332E-06,-2.18183013203088E-05,1.40625,0,0
3.05731282423949E-06,-2.22797880269354E-05,1.40625,0,0
3.02378816741111E-06,-2.15092131838901E-05,1.40625,0,0
2.64826053353318E-06,-2.22722410399001E-05,1.40625,0,0
2.65186281467322E-06,-2.10799244086957E-05,1.40625,0,0
2.29399074669345E-06,-2.08671026484808E-05,1.40625,0,0
1.88728768080182E-06,-2.00662379938876E-05,1.40625,0,0
1.80378594905051E-06,-1.98522029677406E-05,1.40625,0,0
1.73924456703389E-06,-2.12717186514055E-05,1.40625,0,0
1.92453967429174E-06,-2.25167405005777E-05,1.40625,0,0
9.57965198722377E-07,-1.91940453078132E-05,1.40625,0,0
1.21906168715213E-06,-2.66292991000228E-05,1.40625,0,0
1.22434698823781E-06,-1.79436501639429E-05,1.40625,0,0
2.91362061943801E-06,-2.03619074454764E-05,1.40625,0,0
3.23303879667947E-06,-1.50315563587355E-05,1.40625,0,0
3.37099504577054E-06,-1.74912365764612E-05,1.40625,0,0
4.22913990405505E-06,-1.48789704326191E-05,1.40625,0,0
4.55029385193484E-06,-1.5119763702387E-05,1.40625,0,0
4.71372959509608E-06,-1.38093109853799E-05,1.40625,0,0
4.7973826440284E-06,-1.27532739497838E-05,1.40625,0,0
5.45606826563017E-06,-1.22161072795279E-05,1.40625,0,0
6.82399104334763E-06,-1.09834363684058E-05,1.40625,0,0
6.53502866043709E-06,-1.13461101136636E-05,1.40625,0,0
4.62402022094466E-06,-1.12691468530102E-05,1.40625,0,0
3.05326420857455E-06,-1.374653311359E-05,1.40625,0,0
2.39094310927612E-06,-1.3548319657275E-05,1.40625,0,0
2.64827826867986E-06,-1.49617635543109E-05,1.40625,0,0
3.94375774703803E-06,-1.36386033773306E-05,1.40625,0,0
5.03712226418429E-06,-1.36625212689978E-05,1.40625,0,0
4.71901421406074E-06,-1.18939533422235E-05,1.40625,0,0
4.53516122433939E-06,-1.2468382010411E-05,1.40625,0,0
4.52494532510173E-06,-1.31218557726243E-05,1.40625,0,0
3.77575565835286E-06,-1.4476157957688E-05,1.40625,0,0
3.51738640347321E-06,-1.37934212034452E-05,1.40625,0,0
3.92345691579976E-06,-1.41553864523303E-05,1.40625,0,0
3.09208030557784E-06,-1.53384571603965E-05,1.40625,0,0
1.62304638706701E-06,-1.56376536324387E-05,1.40625,0,0
1.63611161951849E-06,-1.18659409054089E-05,1.40625,0,0
2.97628002954298E-06,-1.60260005941382E-05,1.40625,0,0
2.85503097074979E-06,-1.1453323168098E-05,1.40625,0,0
2.52833024205756E-06,-1.46765969475382E-05,1.40625,0,0
1.53992107243539E-06,-1.22067240226897E-05,1.40625,0,0
2.12990948966763E-06,-1.25557744468097E-05,1.40625,0,0
2.70433815785509E-06,-8.60008640302112E-06,1.40625,0,0
2.5471731532889E-06,-6.80441280564992E-06,1.40625,0,0
2.90952107206977E-06,-4.95363383379299E-06,1.40625,0,0
3.68177802556602E-06,-6.50643505650805E-06,1.40625,0,0
3.67987104255008E-06,-1.15681905299425E-05,1.40625,0,0
3.26735266753531E-06,-1.59240571520058E-05,1.40625,0,0
2.96268262900412E-06,-1.68215101439273E-05,1.40625,0,0
2.61525133282703E-06,-1.36204507725779E-05,1.40625,0,0
2.38706184063631E-06,-1.15996699605603E-05,1.40625,0,0
2.37097992794588E-06,-1.05567260106909E-05,1.40625,0,0
2.77441358775832E-06,-1.44739888128242E-05,1.40625,0,0
3.17245098813146E-06,-1.86761590157403E-05,1.40625,0,0
3.26994040733553E-06,-2.32160527957603E-05,1.40625,0,0
2.92801428258826E-06,-2.40307599597145E-05,1.40625,0,0
3.13190275846864E-06,-2.42979294853285E-05,1.40625,0,0
3.20609251502901E-06,-2.44236307480605E-05,1.40625,0,0
3.7919096484984E-06,-2.66081042354926E-05,1.40625,0,0
4.18909621657804E-06,-3.01784693874652E-05,1.40625,0,0
3.61370689461182E-06,-3.50017398886848E-05,1.40625,0,0
2.64824302576017E-06,-3.75802228518296E-05,1.40625,0,0
2.11648330150638E-06,-3.68478540622164E-05,1.40625,0,0
3.12915881295339E-06,-2.5964576707338E-05,1.40625,0,0
5.37185223947745E-06,-3.30569564539474E-05,1.40625,0,0
4.8559381866653E-06,-1.97462668438675E-05,1.40625,0,0
5.57881639906554E-06,-2.50695502472809E-05,1.40625,0,0
4.9703371587384E-06,-1.69760005519493E-05,1.40625,0,0
4.67162544737221E-06,-1.75122459040722E-05,1.40625,0,0
3.51746712112799E-06,-9.50862613535719E-06,1.40625,0,0
2.04736875275557E-06,-7.42306883694255E-06,1.40625,0,0
1.94572544387484E-06,-5.32682361154002E-06,1.40625,0,0
2.97245810543245E-06,-6.20988203081652E-06,1.40625,0,0
2.91006881525391E-06,-7.16064232619829E-06,1.40625,0,0
2.58360933003132E-06,-5.59913905817666E-06,1.40625,0,0
2.47994671553897E-06,-6.04270826443098E-06,1.40625,0,0
1.58877503508847E-06,-5.17754097018042E-06,1.40625,0,0
6.223949071682E-07,-7.89537079981528E-06,1.40625,0,0
8.65612605593924E-07,-7.99697500042384E-06,1.40625,0,0
2.75397178484127E-06,-1.39796020448557E-05,1.40625,0,0
4.31663102062885E-06,-1.91595208889339E-05,1.40625,0,0
4.87406578031369E-06,-2.5447718144278E-05,1.40625,0,0
3.91422008760856E-06,-2.61719396803528E-05,1.40625,0,0
3.02045668831852E-06,-2.75694292213302E-05,1.40625,0,0
2.53979715125752E-06,-2.70631790044717E-05,1.40625,0,0
2.99984435514489E-06,-2.77703402389307E-05,1.40625,0,0
3.94347034671227E-06,-2.40324225160293E-05,1.40625,0,0
5.49562309970497E-06,-1.75959758053068E-05,1.40625,0,0
6.53898632663186E-06,-1.23653553600889E-05,1.40625,0,0
6.99545171300997E-06,-1.1057198207709E-05,1.40625,0,0
5.29903036294854E-06,-9.0460143837845E-06,1.40625,0,0
7.16365775588201E-06,-1.36330390887451E-05,1.40625,0,0
3.52322399521654E-06,-1.13808682726813E-05,1.40625,0,0
2.69015845333342E-06,-1.51889080370893E-05,1.40625,0,0
1.71819078786939E-06,-1.68676961038727E-05,1.40625,0,0
4.10930351790739E-06,-1.95508564502234E-05,1.40625,0,0
5.07045388076222E-06,-1.79337002919056E-05,1.40625,0,0
5.6948806559376E-06,-1.71581559698097E-05,1.40625,0,0
4.65259972770582E-06,-1.59130049723899E-05,1.40625,0,0
4.39091945736436E-06,-1.50373243741342E-05,1.40625,0,0
3.34758465214691E-06,-1.55442612594925E-05,1.40625,0,0
2.41101906794938E-06,-1.54156205098843E-05,1.40625,0,0
2.80470521829557E-06,-1.55184679897502E-05,1.40625,0,0
2.55852455666172E-06,-1.5286699635908E-05,1.40625,0,0
3.34285959979752E-06,-1.74010965565685E-05,1.40625,0,0
4.35003130405676E-06,-1.99629812414059E-05,1.40625,0,0
5.03186220157659E-06,-2.43932227022015E-05,1.40625,0,0
4.09226959163789E-06,-2.68630537902936E-05,1.40625,0,0
4.47868342234869E-06,-2.64670816250145E-05,1.40625,0,0
4.88707155454904E-06,-2.26556931011146E-05,1.40625,0,0
5.53250811208272E-06,-1.99749374587554E-05,1.40625,0,0
5.1819197324221E-06,-1.85935987246921E-05,1.40625,0,0
5.39718894287944E-06,-1.59731825988274E-05,1.40625,0,0
6.26281052973354E-06,-1.11032477434492E-05,1.40625,0,0
6.75787623549695E-06,-8.06615935289301E-06,1.40625,0,0
6.32703995506745E-06,-8.65179390530102E-06,1.40625,0,0
5.6631311053934E-06,-8.47847059048945E-06,1.40625,0,0
4.22935272581526E-06,-6.4157898123085E-06,1.40625,0,0
5.85799716645852E-06,-1.039393737301E-05,1.40625,0,0
3.75841477762151E-06,-9.1091660578968E-06,1.40625,0,0
4.83128405903699E-06,-1.21903476610896E-05,1.40625,0,0
5.6792364375724E-06,-1.48744493344566E-05,1.40625,0,0
6.58004455544869E-06,-1.76720350282267E-05,1.40625,0,0
4.57434816780733E-06,-1.71763003891101E-05,1.40625,0,0
4.45638897872414E-06,-1.78056579898112E-05,1.40625,0,0
4.83836447529029E-06,-1.82520307134837E-05,1.40625,0,0
4.91319042339455E-06,-1.75242203113157E-05,1.40625,0,0
4.49660410595243E-06,-1.67078251251951E-05,1.40625,0,0
3.51720018443302E-06,-1.73668759089196E-05,1.40625,0,0
3.60099056706531E-06,-1.91689450730337E-05,1.40625,0,0
3.67220218322473E-06,-1.97730205400148E-05,1.40625,0,0
3.88236730941571E-06,-1.91593189811101E-05,1.40625,0,0
3.85498515242944E-06,-1.76355770236114E-05,1.40625,0,0
4.19357002101606E-06,-1.79532780748559E-05,1.40625,0,0
4.28164730692515E-06,-1.78541449713521E-05,1.40625,0,0
5.5589430303371E-06,-1.69754057424143E-05,1.40625,0,0
5.34521404915722E-06,-1.50125724758254E-05,1.40625,0,0
3.83271662940388E-06,-1.39333396873553E-05,1.40625,0,0
1.84879206699406E-06,-1.37769065986504E-05,1.40625,0,0
1.52809184328362E-06,-1.46941074490314E-05,1.40625,0,0
3.56546865987184E-06,-1.49775478348602E-05,1.40625,0,0
4.88487603433896E-06,-1.45963131217286E-05,1.40625,0,0
2.92510640065302E-06,-1.33175526570994E-05,1.40625,0,0
-4.89670526349073E-07,-1.23069621622562E-05,1.40625,0,0
-2.70817236014409E-06,-1.04795899460441E-05,1.40625,0,0
-3.0940120723244E-06,-1.56925998453517E-05,1.40625,0,0
1.04276061563269E-07,-1.19935539260041E-05,1.40625,0,0
5.3352704298959E-07,-1.40388401632663E-05,1.40625,0,0
4.1354178392794E-07,-1.39920612127753E-05,1.40625,0,0
-1.63791594331997E-06,-1.7439124349039E-05,1.40625,0,0
-2.98468899018189E-06,-1.58310940605588E-05,1.40625,0,0
-2.66955089500698E-06,-1.56279693328543E-05,1.40625,0,0
-1.05481831269572E-06,-1.51221365740639E-05,1.40625,0,0
-7.3319495186297E-07,-1.45895364767057E-05,1.40625,0,0
-2.30371301768173E-06,-1.44652158269309E-05,1.40625,0,0
-2.9846510187781E-06,-1.48266508404049E-05,1.40625,0,0
-1.83674342224549E-06,-1.66071513376664E-05,1.40625,0,0
1.1533602162217E-07,-1.80169681698317E-05,1.40625,0,0
1.16605235689349E-06,-2.0741812477354E-05,1.40625,0,0
2.37139374803519E-06,-2.2425581846619E-05,1.40625,0,0
3.76970615434402E-06,-2.49255790549796E-05,1.40625,0,0
5.68589939575759E-06,-2.4908938939916E-05,1.40625,0,0
6.79490540278493E-06,-2.41815414483426E-05,1.40625,0,0
6.7111959651811E-06,-2.22029029828263E-05,1.40625,0,0
5.83273731535883E-06,-2.14409301406704E-05,1.40625,0,0
5.48645220987964E-06,-2.07070879696403E-05,1.40625,0,0
5.16032469022321E-06,-2.10914113267791E-05,1.40625,0,0
4.79365598948789E-06,-2.10108009923715E-05,1.40625,0,0
5.15648343935027E-06,-2.06086169782793E-05,1.40625,0,0
5.71254395254073E-06,-1.8961371097248E-05,1.40625,0,0
5.85659654461779E-06,-1.62676169566112E-05,1.40625,0,0
3.65322443940386E-06,-1.2122387488489E-05,1.40625,0,0
3.93341861126828E-06,-1.69536542671267E-05,1.40625,0,0
2.04986008611741E-06,-1.12330699266749E-05,1.40625,0,0
3.7247182262945E-06,-1.31614269776037E-05,1.40625,0,0
3.91462663174025E-06,-1.07850100903306E-05,1.40625,0,0
6.46337639409467E-06,-1.35432101160404E-05,1.40625,0,0
6.77585012454074E-06,-1.35577001856291E-05,1.40625,0,0
6.56651900499128E-06,-1.35702612169553E-05,1.40625,0,0
4.84953716295422E-06,-1.22398696476012E-05,1.40625,0,0
4.36310574514209E-06,-1.21173106890637E-05,1.40625,0,0
4.76038349006558E-06,-1.36348153318977E-05,1.40625,0,0
4.79934487884748E-06,-1.48100061778678E-05,1.40625,0,0
4.87782972413697E-06,-1.73880162037676E-05,1.40625,0,0
4.74229273095261E-06,-2.00958420464303E-05,1.40625,0,0
5.33634693056229E-06,-2.33778027904918E-05,1.40625,0,0
5.60044964004192E-06,-2.4381492039538E-05,1.40625,0,0
5.80995674681617E-06,-2.45028641074896E-05,1.40625,0,0
4.57943588116905E-06,-2.04305033548735E-05,1.40625,0,0
3.69604117622657E-06,-1.70187267940491E-05,1.40625,0,0
2.97810561278311E-06,-1.5473955500056E-05,1.40625,0,0
2.4220187242463E-06,-1.76901594386436E-05,1.40625,0,0
1.18633954571123E-06,-2.05909655051073E-05,1.40625,0,0
2.37928816204658E-06,-2.3800712369848E-05,1.40625,0,0
4.01693569074268E-06,-2.40123281400884E-05,1.40625,0,0
4.03702642870485E-06,-2.12728718906874E-05,1.40625,0,0
2.57408078141452E-06,-1.69896648003487E-05,1.40625,0,0
1.56657688421546E-06,-1.3766715710517E-05,1.40625,0,0
2.87970874524035E-06,-1.0215784641332E-05,1.40625,0,0
5.35576054971898E-06,-1.56934456754243E-05,1.40625,0,0
4.65102084490354E-06,-1.4553906112269E-05,1.40625,0,0
2.93981429422274E-06,-1.77555320988176E-05,1.40625,0,0
7.02335455571301E-07,-1.50020086948643E-05,1.40625,0,0
6.7964890604344E-07,-1.58580078277737E-05,1.40625,0,0
1.39971336921008E-06,-1.52997290570056E-05,1.40625,0,0
2.53219695878215E-06,-1.85938988579437E-05,1.40625,0,0
2.87617649519234E-06,-2.30237073992612E-05,1.40625,0,0
3.17851754516596E-06,-2.80746517091757E-05,1.40625,0,0
4.46134026788059E-06,-3.02351600112161E-05,1.40625,0,0
5.4103252296045E-06,-2.93377779598814E-05,1.40625,0,0
5.60709440833307E-06,-2.70440559688723E-05,1.40625,0,0
5.24432834936306E-06,-2.28480275836773E-05,1.40625,0,0
5.13027771376073E-06,-1.88356279977597E-05,1.40625,0,0
4.69792485091602E-06,-1.50461810335401E-05,1.40625,0,0
4.5343972487899E-06,-1.53501769091235E-05,1.40625,0,0
4.57350324722938E-06,-1.52770298882388E-05,1.40625,0,0
5.64500760447118E-06,-1.63251934282016E-05,1.40625,0,0
6.8079416450928E-06,-1.66163463291014E-05,1.40625,0,0
6.80897710481077E-06,-1.70183411682956E-05,1.40625,0,0
5.32403100805823E-06,-1.64108387252782E-05,1.40625,0,0
4.14944224758074E-06,-1.6957928892225E-05,1.40625,0,0
4.94521145810722E-06,-1.73826065292815E-05,1.40625,0,0
6.1703503888566E-06,-1.67032249009935E-05,1.40625,0,0
5.5301629799942E-06,-1.36981070681941E-05,1.40625,0,0
4.04706497647567E-06,-1.22921792353736E-05,1.40625,0,0
2.45640512730461E-06,-1.20028580568032E-05,1.40625,0,0
4.00432509195525E-06,-1.97670160559937E-05,1.40625,0,0
3.92859692510683E-06,-1.72654035850428E-05,1.40625,0,0
5.0193011702504E-06,-1.81953946594149E-05,1.40625,0,0
5.63656658414402E-06,-1.35452446556883E-05,1.40625,0,0
6.34493926554569E-06,-1.22116825878038E-05,1.40625,0,0
5.32210879100603E-06,-1.02364974736702E-05,1.40625,0,0
4.55792360298801E-06,-1.26417926367139E-05,1.40625,0,0
3.06543006445281E-06,-1.48419940160238E-05,1.40625,0,0
2.03718968805333E-06,-1.58146158355521E-05,1.40625,0,0
1.69288284723734E-06,-1.6021582268877E-05,1.40625,0,0
1.72255226971174E-06,-1.61080170073546E-05,1.40625,0,0
1.90171419944818E-06,-1.80078968696762E-05,1.40625,0,0
1.42629687616136E-06,-1.73948337760521E-05,1.40625,0,0
7.6015282957087E-07,-1.64022221724736E-05,1.40625,0,0
2.26920406021236E-07,-1.56159821926849E-05,1.40625,0,0
1.00004274372623E-06,-1.74188935488928E-05,1.40625,0,0
1.98126622308337E-06,-1.74221786437556E-05,1.40625,0,0
2.7379180664866E-06,-1.79687413037755E-05,1.40625,0,0
3.08346375277324E-06,-1.8974893464474E-05,1.40625,0,0
4.30700401921058E-06,-2.05927517527016E-05,1.40625,0,0
3.83897213396267E-06,-2.06243203138001E-05,1.40625,0,0
2.17145043279743E-06,-1.99626374524087E-05,1.40625,0,0
1.43775434935378E-06,-1.80828174052294E-05,1.40625,0,0
9.39363985708042E-07,-1.63876029546373E-05,1.40625,0,0
9.85734118330583E-07,-1.50809528349782E-05,1.40625,0,0
2.06393201551691E-06,-1.6284951925627E-05,1.40625,0,0
2.45172441282193E-06,-1.66129630088108E-05,1.40625,0,0
2.42851479015371E-06,-2.57084720942657E-05,1.40625,0,0
-5.13107636379573E-07,-2.06734621315263E-05,1.40625,0,0
-1.44445050409558E-06,-2.1913825548836E-05,1.40625,0,0
-2.40373833548801E-06,-1.5513540347456E-05,1.40625,0,0
-2.00301747099729E-06,-1.69069826370105E-05,1.40625,0,0
-2.93704397336114E-06,-1.81914056156529E-05,1.40625,0,0
-2.69175234279828E-06,-2.37918175116647E-05,1.40625,0,0
-2.44950285832601E-07,-2.5527027901262E-05,1.40625,0,0
3.35302911480539E-06,-2.17388405872043E-05,1.40625,0,0
5.57070416107308E-06,-1.66419849847443E-05,1.40625,0,0
4.57611849924433E-06,-1.20718359539751E-05,1.40625,0,0
1.96953169506742E-06,-9.38763241720153E-06,1.40625,0,0
-1.03028310149966E-06,-6.2082849581202E-06,1.40625,0,0
-2.81444886240934E-06,-6.57142345517059E-06,1.40625,0,0
-2.86392605630681E-06,-7.18219234840944E-06,1.40625,0,0
-6.30214003649598E-07,-9.50553658185527E-06,1.40625,0,0
8.92919217676535E-07,-9.23056359170005E-06,1.40625,0,0
7.68208224144473E-07,-9.62520971370395E-06,1.40625,0,0
8.02909369213012E-07,-9.4509214250138E-06,1.40625,0,0
2.83017971014488E-06,-1.13942141979351E-05,1.40625,0,0
5.19721970704268E-06,-1.24722464533988E-05,1.40625,0,0
4.95811718792538E-06,-1.36165645017172E-05,1.40625,0,0
1.8572670796857E-06,-1.41207028718782E-05,1.40625,0,0
2.4401325049439E-07,-1.65480014402419E-05,1.40625,0,0
4.86755027395702E-07,-1.88727717613801E-05,1.40625,0,0
1.40051918151585E-06,-1.90143528016051E-05,1.40625,0,0
1.64096456956031E-06,-1.51168378579314E-05,1.40625,0,0
2.44693296735932E-06,-2.50292505370453E-05,1.40625,0,0
1.46074137319374E-06,-2.39279670495307E-05,1.40625,0,0
1.34992103539844E-06,-2.87384809780633E-05,1.40625,0,0
3.81228034029846E-07,-2.61104396486189E-05,1.40625,0,0
1.34633253878746E-07,-2.76453174592461E-05,1.40625,0,0
1.05309220543859E-06,-2.49605691351462E-05,1.40625,0,0
2.58726981883228E-06,-2.3811237042537E-05,1.40625,0,0
3.34709329763427E-06,-2.16228545468766E-05,1.40625,0,0
2.58058094004809E-06,-1.96044002223061E-05,1.40625,0,0
1.83573104095558E-06,-1.65079909493215E-05,1.40625,0,0
2.07349876291119E-06,-1.24128400784684E-05,1.40625,0,0
2.84542147710454E-06,-1.13158830572502E-05,1.40625,0,0
3.09533811559959E-06,-1.12738243842614E-05,1.40625,0,0
3.24305028698291E-06,-1.2859670277976E-05,1.40625,0,0
3.61096613232803E-06,-1.142071596405E-05,1.40625,0,0
4.15790873375954E-06,-1.10743676486891E-05,1.40625,0,0
4.79298932987149E-06,-1.07409159681993E-05,1.40625,0,0
4.9477125685371E-06,-1.21426292025717E-05,1.40625,0,0
4.09472659157473E-06,-1.21025150292553E-05,1.40625,0,0
3.71065607396304E-06,-1.16775763672194E-05,1.40625,0,0
4.54738346888917E-06,-9.17579018278047E-06,1.40625,0,0
6.08204345553531E-06,-9.06952391233062E-06,1.40625,0,0
7.77956847741734E-06,-9.73646911006654E-06,1.40625,0,0
8.33813192002708E-06,-9.57297288550762E-06,1.40625,0,0
7.15821897756541E-06,-8.42808822199004E-06,1.40625,0,0
6.36267486697761E-06,-9.22411072679097E-06,1.40625,0,0
6.1200512391224E-06,-9.27061137190321E-06,1.40625,0,0
9.76601586444303E-06,-1.1698202797561E-05,1.40625,0,0
8.03238526714267E-06,-3.89567230740795E-06,1.40625,0,0
9.15392865863396E-06,-3.56962345904321E-06,1.40625,0,0
6.97150790074375E-06,-4.47573211204144E-06,1.40625,0,0
6.57018199490267E-06,-1.12238612928195E-05,1.40625,0,0
7.57451880417648E-06,-1.53614255395951E-05,1.40625,0,0
9.39769688557135E-06,-1.86100096470909E-05,1.40625,0,0
9.49492732615909E-06,-2.06857112061698E-05,1.40625,0,0
8.66550544742495E-06,-2.16608132177498E-05,1.40625,0,0
7.00668260833481E-06,-2.08644160011318E-05,1.40625,0,0
5.4897127483855E-06,-1.94759868463734E-05,1.40625,0,0
4.72514466309804E-06,-1.93480700545479E-05,1.40625,0,0
4.18307490690495E-06,-1.81822524609743E-05,1.40625,0,0
4.06020217269543E-06,-1.71430201589828E-05,1.40625,0,0
2.92126014755922E-06,-1.57663653226336E-05,1.40625,0,0
2.90976208816573E-06,-1.68417955137556E-05,1.40625,0,0
4.17361115978565E-06,-1.76908142748289E-05,1.40625,0,0
5.62513878321624E-06,-2.06195472856052E-05,1.40625,0,0
4.54793735116255E-06,-2.58558393397834E-05,1.40625,0,0
3.10643031298241E-06,-3.21400002576411E-05,1.40625,0,0
1.8136960306947E-06,-3.38109966833144E-05,1.40625,0,0
1.99800251721172E-06,-3.06319125229493E-05,1.40625,0,0
2.74727335636271E-06,-2.48668948188424E-05,1.40625,0,0
4.27886834586388E-06,-2.07250832318095E-05,1.40625,0,0
6.25612938165432E-06,-1.71305182448123E-05,1.40625,0,0
7.95682990428759E-06,-1.3810798918712E-05,1.40625,0,0
5.43864280189155E-06,-1.1441215974628E-05,1.40625,0,0
6.03919943387154E-06,-1.76960202225018E-05,1.40625,0,0
2.7768562631536E-06,-1.43685492730583E-05,1.40625,0,0
4.46163767264807E-06,-1.553713264002E-05,1.40625,0,0
2.7675434921548E-06,-1.1982800970145E-05,1.40625,0,0
3.10452514895587E-06,-1.2962434993824E-05,1.40625,0,0
1.48317496950767E-06,-1.16285691547091E-05,1.40625,0,0
1.22388144063734E-06,-1.35378350023529E-05,1.40625,0,0
8.84694486558146E-07,-1.59879546117736E-05,1.40625,0,0
-3.02392095363757E-07,-1.75513578142272E-05,1.40625,0,0
-1.32461150315066E-06,-1.76776229636744E-05,1.40625,0,0
-6.23519895270874E-07,-1.7782474969863E-05,1.40625,0,0
1.48551021084131E-06,-2.06202239496633E-05,1.40625,0,0
2.46960985350597E-06,-2.30366349569522E-05,1.40625,0,0
2.52908262154961E-06,-2.69525626208633E-05,1.40625,0,0
5.47615115920053E-07,-2.96563212032197E-05,1.40625,0,0
-4.16805761460637E-07,-3.09475326503161E-05,1.40625,0,0
-7.52463677144988E-07,-2.7123342078994E-05,1.40625,0,0
3.71993053249753E-07,-2.32243965001544E-05,1.40625,0,0
1.04473042483733E-06,-2.0146870156168E-05,1.40625,0,0
1.94813583220821E-06,-1.91906965483213E-05,1.40625,0,0
1.8520166804592E-06,-1.90017835848266E-05,1.40625,0,0
1.46964828218188E-06,-2.02459414140321E-05,1.40625,0,0
5.65124537388328E-07,-2.07226403290406E-05,1.40625,0,0
7.58021428737266E-07,-2.0403365851962E-05,1.40625,0,0
2.24396785597492E-06,-1.758693906595E-05,1.40625,0,0
3.61543175131374E-06,-1.44939431265811E-05,1.40625,0,0
2.04722914531885E-06,-1.21178600238636E-05,1.40625,0,0
1.97850613403716E-06,-1.88002777576912E-05,1.40625,0,0
1.76457865563862E-06,-1.64297889568843E-05,1.40625,0,0
4.11713790526846E-06,-1.89161983144004E-05,1.40625,0,0
4.04491993322154E-06,-1.45376570799272E-05,1.40625,0,0
4.21264076067018E-06,-1.60675153892953E-05,1.40625,0,0
3.69794997823192E-06,-1.69817303685704E-05,1.40625,0,0
3.75787408302131E-06,-1.89310776477214E-05,1.40625,0,0
3.74446153728059E-06,-1.85068529390264E-05,1.40625,0,0
5.0779112825694E-06,-1.76672638190212E-05,1.40625,0,0
6.02458612775081E-06,-1.75922450580401E-05,1.40625,0,0
5.96684503761935E-06,-1.69421946338844E-05,1.40625,0,0
5.74994328417233E-06,-1.63977711054031E-05,1.40625,0,0
4.61429817733006E-06,-1.59745341079542E-05,1.40625,0,0
4.07061088480987E-06,-1.79853504960192E-05,1.40625,0,0
3.82159714718E-06,-1.8558665033197E-05,1.40625,0,0
4.17125193052925E-06,-1.90804694284452E-05,1.40625,0,0
4.0067357076623E-06,-1.71487099578371E-05,1.40625,0,0
3.82258895115228E-06,-1.63706336024916E-05,1.40625,0,0
3.35130289386143E-06,-1.55032048496651E-05,1.40625,0,0
3.79644166059734E-06,-1.60417530423729E-05,1.40625,0,0
4.47432967121131E-06,-1.54439076140989E-05,1.40625,0,0
4.15549220633693E-06,-1.45521044032648E-05,1.40625,0,0
2.77369827017537E-06,-1.38025416163146E-05,1.40625,0,0
1.95668917513103E-06,-1.46380843943916E-05,1.40625,0,0
1.95199686459091E-06,-1.43915422086138E-05,1.40625,0,0
2.50020320891053E-06,-1.35505797516089E-05,1.40625,0,0
2.4603514248156E-06,-1.07551559267449E-05,1.40625,0,0
4.52609492640477E-06,-1.50253254105337E-05,1.40625,0,0
3.93717982660746E-06,-1.20284639706369E-05,1.40625,0,0
2.90328262053663E-06,-1.43638199006091E-05,1.40625,0,0
9.36351000291324E-07,-1.03395777841797E-05,1.40625,0,0
2.20046540988506E-08,-1.2574540960486E-05,1.40625,0,0
-1.05187851318078E-07,-1.33759258460486E-05,1.40625,0,0
6.64863932797743E-07,-1.46539359775488E-05,1.40625,0,0
6.32532874078606E-07,-1.37109054776374E-05,1.40625,0,0
4.81465519897029E-07,-1.4147632100503E-05,1.40625,0,0
1.39742928695341E-06,-1.38735795189859E-05,1.40625,0,0
2.50613015850831E-06,-1.16319006338017E-05,1.40625,0,0
2.42211808654247E-06,-1.08402437035693E-05,1.40625,0,0
6.79249012591754E-07,-1.09764760054532E-05,1.40625,0,0
-8.99692906841665E-07,-1.24946309369989E-05,1.40625,0,0
-4.47253142965565E-07,-1.20174754556501E-05,1.40625,0,0
1.65427354659187E-06,-1.34267120301956E-05,1.40625,0,0
3.08390235659317E-06,-1.33513112814398E-05,1.40625,0,0
3.52703250428021E-06,-1.3030708032602E-05,1.40625,0,0
2.8810952699132E-06,-1.12289999378845E-05,1.40625,0,0
1.23746110602951E-06,-1.14159929580637E-05,1.40625,0,0
-6.68691654936993E-07,-1.20598497233004E-05,1.40625,0,0
-7.69436553582636E-07,-1.28441897686571E-05,1.40625,0,0
6.19216791619692E-07,-1.13088153739227E-05,1.40625,0,0
1.9614024040493E-06,-1.11504377855454E-05,1.40625,0,0
3.10119139612652E-06,-1.25089827633929E-05,1.40625,0,0
4.74329772259807E-06,-1.36709049911587E-05,1.40625,0,0
4.21710274167708E-06,-1.17169747682055E-05,1.40625,0,0
6.00273915551952E-06,-1.70281309692655E-05,1.40625,0,0
4.82130508316914E-06,-1.36451317302999E-05,1.40625,0,0
6.07227138971211E-06,-1.8859866031562E-05,1.40625,0,0
4.78971378470305E-06,-2.05153937713476E-05,1.40625,0,0
4.93760080644279E-06,-2.59356547758216E-05,1.40625,0,0
4.65627908852184E-06,-2.90603584289784E-05,1.40625,0,0
5.99665781919612E-06,-3.41426493832842E-05,1.40625,0,0
5.99983741267351E-06,-3.6396555515239E-05,1.40625,0,0
5.35334265805432E-06,-3.66894964827225E-05,1.40625,0,0
4.77118601338589E-06,-3.58495090040378E-05,1.40625,0,0
4.22974380853702E-06,-3.44487525580917E-05,1.40625,0,0
4.89759759148001E-06,-3.39727266691625E-05,1.40625,0,0
4.68629514216445E-06,-3.19930040859617E-05,1.40625,0,0
4.34109506386449E-06,-2.99041585094528E-05,1.40625,0,0
2.9158622965042E-06,-2.55262057180516E-05,1.40625,0,0
2.3496495487052E-06,-2.33523787755985E-05,1.40625,0,0
3.51664107256511E-06,-2.16885473491857E-05,1.40625,0,0
6.01505735176033E-06,-2.15561340155546E-05,1.40625,0,0
6.88337604515255E-06,-1.9499180780258E-05,1.40625,0,0
6.89763783157105E-06,-1.84334894584026E-05,1.40625,0,0
5.28604687133338E-06,-1.76110333995894E-05,1.40625,0,0
3.35432423526072E-06,-1.65893015946494E-05,1.40625,0,0
2.6479926873435E-06,-1.39056064654142E-05,1.40625,0,0
3.46456408806262E-06,-1.24127063827473E-05,1.40625,0,0
4.56204998044996E-06,-1.31145870909677E-05,1.40625,0,0
5.24614915775601E-06,-1.39503308673739E-05,1.40625,0,0
3.66845870303223E-06,-9.39381152420538E-06,1.40625,0,0
4.70800023322226E-06,-1.2039976354572E-05,1.40625,0,0
3.33501429850003E-06,-9.02313331607729E-06,1.40625,0,0
4.92153913000948E-06,-1.42499802677776E-05,1.40625,0,0
4.53799293609336E-06,-1.34263882500818E-05,1.40625,0,0
5.44129125046311E-06,-1.40380279844976E-05,1.40625,0,0
5.23054541190504E-06,-1.12306443043053E-05,1.40625,0,0
5.4709889809601E-06,-1.0754060895124E-05,1.40625,0,0
4.9238092287851E-06,-1.18731886686874E-05,1.40625,0,0
4.87838860863121E-06,-1.63008317031199E-05,1.40625,0,0
4.4700409489451E-06,-2.10718608286697E-05,1.40625,0,0
2.88922410618397E-06,-2.19583198486362E-05,1.40625,0,0
1.31658225654974E-06,-1.97393401322188E-05,1.40625,0,0
4.06072700798177E-07,-1.65407327585854E-05,1.40625,0,0
8.74558111263468E-07,-1.56295664055506E-05,1.40625,0,0
1.5320377997341E-06,-1.43001152537181E-05,1.40625,0,0
3.26167400999111E-06,-1.40185875352472E-05,1.40625,0,0
4.65836410512566E-06,-1.24953030535835E-05,1.40625,0,0
5.63380126550328E-06,-1.15607736006496E-05,1.40625,0,0
5.0893240768346E-06,-9.79611377260881E-06,1.40625,0,0
4.26891165261623E-06,-9.5980967671494E-06,1.40625,0,0
4.37632661487442E-06,-9.74492650129832E-06,1.40625,0,0
5.98021961195627E-06,-1.16402179628494E-05,1.40625,0,0
5.15443889526068E-06,-1.33042203742662E-05,1.40625,0,0
3.1796560051589E-06,-1.37782681122189E-05,1.40625,0,0
1.92071979654429E-06,-1.17991012302809E-05,1.40625,0,0
1.18337106869149E-06,-1.19750875455793E-05,1.40625,0,0
2.05444189305126E-06,-1.10327555375989E-05,1.40625,0,0
3.94114113078103E-06,-1.54062199726468E-05,1.40625,0,0
4.51307141702273E-06,-1.14443246275187E-05,1.40625,0,0
4.70443865197012E-06,-1.48616200021934E-05,1.40625,0,0
3.34495621245878E-06,-1.27663834064151E-05,1.40625,0,0
3.33074785885401E-06,-1.375121428282E-05,1.40625,0,0
4.1078969843511E-06,-1.2483425962273E-05,1.40625,0,0
5.20501589562627E-06,-1.33740759338252E-05,1.40625,0,0
4.98951567351469E-06,-1.33839639602229E-05,1.40625,0,0
2.9865027499909E-06,-1.46532656799536E-05,1.40625,0,0
1.3132729463905E-06,-1.78825011971639E-05,1.40625,0,0
8.12327812127478E-07,-2.08543260669103E-05,1.40625,0,0
8.73727628913912E-07,-2.25203184527345E-05,1.40625,0,0
1.22533674584702E-06,-1.98615143744973E-05,1.40625,0,0
2.73045066023769E-06,-1.61319258040749E-05,1.40625,0,0
4.30874115409097E-06,-1.33044813992456E-05,1.40625,0,0
4.90657112095505E-06,-1.63829809025628E-05,1.40625,0,0
4.57217265648069E-06,-1.99227379198419E-05,1.40625,0,0
4.83713029097999E-06,-2.21861027966952E-05,1.40625,0,0
5.08273478772026E-06,-2.05484502657782E-05,1.40625,0,0
4.64618642581627E-06,-1.8656324755284E-05,1.40625,0,0
3.42598764291324E-06,-1.60962372319773E-05,1.40625,0,0
2.5863316750474E-06,-1.51620679389453E-05,1.40625,0,0
2.61103173215815E-06,-1.57873510033824E-05,1.40625,0,0
2.5210902094841E-06,-1.73593143699691E-05,1.40625,0,0
1.89829609098524E-06,-1.88116173376329E-05,1.40625,0,0
1.79995060989313E-06,-1.9220075046178E-05,1.40625,0,0
9.51104652813228E-07,-1.45611074913177E-05,1.40625,0,0
2.01588136405917E-06,-1.9529128621798E-05,1.40625,0,0
3.75314471057209E-06,-1.29183408716926E-05,1.40625,0,0
5.77433684156858E-06,-1.70894381881226E-05,1.40625,0,0
4.98108556712396E-06,-1.52602460730122E-05,1.40625,0,0
3.30284865412978E-06,-1.71621595654869E-05,1.40625,0,0
1.82114445124171E-06,-1.45133735713898E-05,1.40625,0,0
9.03212594494107E-07,-1.59001956490101E-05,1.40625,0,0
-1.27641939684509E-07,-1.75301811395912E-05,1.40625,0,0
-3.37673185413223E-07,-1.99089718080359E-05,1.40625,0,0
2.10152123258922E-07,-2.12945487874094E-05,1.40625,0,0
2.43069933958395E-07,-2.0273986592656E-05,1.40625,0,0
1.5157446853209E-08,-2.04775296879234E-05,1.40625,0,0
7.59941542582965E-07,-2.02031005755998E-05,1.40625,0,0
1.45081776281586E-06,-2.17753040487878E-05,1.40625,0,0
-4.74692910756858E-07,-2.15634845517343E-05,1.40625,0,0
-2.73231330538692E-06,-2.19497251237044E-05,1.40625,0,0
-1.99447163140576E-06,-1.96761557162972E-05,1.40625,0,0
8.15967723610811E-07,-1.84744440048235E-05,1.40625,0,0
2.52757081398158E-06,-1.71876799868187E-05,1.40625,0,0
3.13091936732235E-06,-1.93591422430472E-05,1.40625,0,0
4.00988301407779E-06,-2.01754319277825E-05,1.40625,0,0
4.68616462967475E-06,-1.93287087313365E-05,1.40625,0,0
4.29794772571768E-06,-1.8236994947074E-05,1.40625,0,0
3.783686679526E-06,-1.89645907084923E-05,1.40625,0,0
3.85947350878268E-06,-1.8875980458688E-05,1.40625,0,0
5.04796980749234E-06,-1.72210347955115E-05,1.40625,0,0
5.30453644387308E-06,-1.32231516545289E-05,1.40625,0,0
8.60429736349033E-06,-1.95429001905723E-05,1.40625,0,0
8.5394394773175E-06,-1.62278265634086E-05,1.40625,0,0
9.76309638645034E-06,-1.97001863853075E-05,1.40625,0,0
7.60899183660513E-06,-1.56909118231852E-05,1.40625,0,0
7.99441204435425E-06,-1.61393236339791E-05,1.40625,0,0
6.88472937326878E-06,-1.4928561540728E-05,1.40625,0,0
7.07517301634653E-06,-1.59209503181046E-05,1.40625,0,0
7.32802573111258E-06,-1.5104548765521E-05,1.40625,0,0
7.71627765061567E-06,-1.52389065988245E-05,1.40625,0,0
8.48402396513848E-06,-1.63245476869633E-05,1.40625,0,0
8.97220161277801E-06,-1.69368013303028E-05,1.40625,0,0
8.74244324222673E-06,-1.84132077265531E-05,1.40625,0,0
7.32878561393591E-06,-1.8258748241351E-05,1.40625,0,0
7.43080181564437E-06,-1.86925626621814E-05,1.40625,0,0
7.8927660069894E-06,-1.73022435774328E-05,1.40625,0,0
7.92983246356016E-06,-1.82693129318068E-05,1.40625,0,0
6.04277056481806E-06,-1.86959696293343E-05,1.40625,0,0
5.22523714607814E-06,-1.99205060198437E-05,1.40625,0,0
5.30813940713415E-06,-1.80383412953233E-05,1.40625,0,0
6.02661975790397E-06,-1.56139740283834E-05,1.40625,0,0
4.9456339183962E-06,-1.35986629175022E-05,1.40625,0,0
3.67613552043622E-06,-1.34595493364031E-05,1.40625,0,0
4.51838877779664E-06,-1.17641802717117E-05,1.40625,0,0
6.53153801977169E-06,-9.82201072474709E-06,1.40625,0,0
7.1595450208406E-06,-1.01482910395134E-05,1.40625,0,0
6.80527864460601E-06,-1.23680556498584E-05,1.40625,0,0
4.22228958996129E-06,-1.03567408586969E-05,1.40625,0,0
5.47236959391739E-06,-1.75942604982993E-05,1.40625,0,0
2.9224418085505E-06,-2.05993710551411E-05,1.40625,0,0
3.40846440849418E-06,-2.76535956800217E-05,1.40625,0,0
1.32537900299212E-06,-2.54816532105906E-05,1.40625,0,0
5.99992631578061E-07,-2.60673568845959E-05,1.40625,0,0
-6.79207943221627E-08,-2.47647858486744E-05,1.40625,0,0
3.59849366304843E-07,-2.47803782258416E-05,1.40625,0,0
2.36467272429763E-07,-2.30008718062891E-05,1.40625,0,0
-7.13328688561887E-07,-2.02914234250784E-05,1.40625,0,0
-9.55351765696832E-07,-1.86994384421268E-05,1.40625,0,0
-1.2228864534336E-06,-1.87782770808553E-05,1.40625,0,0
-2.20240326598287E-06,-1.95630564121529E-05,1.40625,0,0
-4.26134465669747E-06,-1.83603860932635E-05,1.40625,0,0
-5.42495854460867E-06,-1.80705665115966E-05,1.40625,0,0
-5.52965229871916E-06,-1.74048836925067E-05,1.40625,0,0
-5.3874505283602E-06,-1.89425772987306E-05,1.40625,0,0
-6.34242724117939E-06,-1.9633256670204E-05,1.40625,0,0
-6.46473517917912E-06,-2.02912506210851E-05,1.40625,0,0
-5.67739925827482E-06,-1.85518256330397E-05,1.40625,0,0
-4.79717891721521E-06,-1.70511830219766E-05,1.40625,0,0
-4.6202994781197E-06,-1.62750930030597E-05,1.40625,0,0
-3.1311642487708E-06,-1.71769952430623E-05,1.40625,0,0
-1.97273880075954E-06,-1.81229770532809E-05,1.40625,0,0
-2.530284518798E-06,-1.83135143743129E-05,1.40625,0,0
-3.90815057471627E-06,-1.72248255694285E-05,1.40625,0,0
-4.28142629971262E-06,-1.7163412849186E-05,1.40625,0,0
-2.70602276941645E-06,-1.51073063534568E-05,1.40625,0,0
-2.96662119581015E-06,-2.2141968656797E-05,1.40625,0,0
-1.09114171209512E-06,-1.73221342265606E-05,1.40625,0,0
-7.90758747371001E-07,-2.16154603549512E-05,1.40625,0,0
1.2636232895602E-06,-2.00281392608304E-05,1.40625,0,0
1.2938695590492E-06,-2.28416465688497E-05,1.40625,0,0
3.45780586030742E-06,-2.13750245166011E-05,1.40625,0,0
5.58562214791891E-06,-2.25404710363364E-05,1.40625,0,0
6.13529937254498E-06,-2.18255481740925E-05,1.40625,0,0
4.93536117573967E-06,-2.15660766116343E-05,1.58203125,0,0
3.09065376313811E-06,-2.16878142964561E-05,1.58203125,0,0
1.24799817058374E-06,-1.98790439753793E-05,1.58203125,0,0
-9.80059326138871E-07,-1.89960865100147E-05,1.58203125,0,0
-2.37307222050731E-06,-1.82738713192521E-05,1.58203125,0,0
-1.82510632384947E-06,-1.97179615497589E-05,1.58203125,0,0
6.89896751282504E-07,-1.8386788724456E-05,1.58203125,0,0
1.85819635589723E-06,-1.68725946423365E-05,1.58203125,0,0
2.76459968517884E-06,-1.40986367114238E-05,1.58203125,0,0
4.14119585911976E-06,-1.38414097818895E-05,1.58203125,0,0
5.88651801081141E-06,-1.1725405784091E-05,1.58203125,0,0
6.81466417518095E-06,-1.05755316326395E-05,1.58203125,0,0
7.72166913520778E-06,-1.02987341961125E-05,1.58203125,0,0
9.49719469645061E-06,-1.2370737749734E-05,1.58203125,0,0
1.12934176286217E-05,-1.36325452331221E-05,1.58203125,0,0
1.11569534055889E-05,-1.35662248794688E-05,1.58203125,0,0
1.06449906525086E-05,-1.37843135235016E-05,1.58203125,0,0
9.934772606357E-06,-1.58020902745193E-05,1.58203125,0,0
8.13547194411512E-06,-1.33568801174988E-05,1.58203125,0,0
1.16433348011924E-05,-1.92134102690034E-05,1.58203125,0,0
7.8061175372568E-06,-1.49756551763858E-05,1.58203125,0,0
8.92754178494215E-06,-1.72519121406367E-05,1.58203125,0,0
7.89264413469937E-06,-1.279602656723E-05,1.58203125,0,0
1.06072920971201E-05,-1.40377087518573E-05,1.58203125,0,0
1.06300785773783E-05,-1.22309365906403E-05,1.58203125,0,0
1.03420179584646E-05,-1.23479303510976E-05,1.58203125,0,0
9.12139421416214E-06,-9.59921544563258E-06,1.58203125,0,0
9.90583157545188E-06,-6.56318161418312E-06,1.58203125,0,0
1.10343817141256E-05,-6.41356018604711E-06,1.58203125,0,0
1.03698048405931E-05,-7.37676555218059E-06,1.58203125,0,0
9.52167829382233E-06,-9.01244675333146E-06,1.58203125,0,0
8.91284071258269E-06,-8.50119886308676E-06,1.58203125,0,0
9.80210643319879E-06,-8.86637462826911E-06,1.58203125,0,0
9.19385365705239E-06,-8.81566211319296E-06,1.58203125,0,0
8.49468960950617E-06,-1.12912894110195E-05,1.58203125,0,0
7.05112097421079E-06,-1.19948672363535E-05,1.58203125,0,0
6.74578495818423E-06,-1.3791378478345E-05,1.58203125,0,0
6.17668774793856E-06,-1.41976561280899E-05,1.58203125,0,0
6.4787573137437E-06,-1.49997149492265E-05,1.58203125,0,0
5.63166986466968E-06,-1.53941346070496E-05,1.58203125,0,0
4.50772040494485E-06,-1.65614910656586E-05,1.58203125,0,0
3.29766021422984E-06,-1.57800259330543E-05,1.58203125,0,0
2.58933391705796E-06,-1.52713892020984E-05,1.58203125,0,0
1.08204892512731E-06,-1.53607797983568E-05,1.58203125,0,0
9.25000279039523E-07,-1.60724594024941E-05,1.58203125,0,0
7.02184934198158E-07,-1.37510442073108E-05,1.58203125,0,0
9.4695855068494E-07,-1.90184418897843E-05,1.58203125,0,0
1.769247660377E-06,-1.31215010696906E-05,1.58203125,0,0
3.25912446896837E-06,-1.57036392920418E-05,1.58203125,0,0
4.24765448769904E-06,-1.3059094271739E-05,1.58203125,0,0
6.08024129178375E-06,-1.5464584066649E-05,1.58203125,0,0
6.8074555201747E-06,-1.46465808938956E-05,1.58203125,0,0
6.04709066465148E-06,-1.75427194335498E-05,1.58203125,0,0
5.96705831412692E-06,-1.96331002371153E-05,1.58203125,0,0
7.26983262211434E-06,-2.22015933104558E-05,1.58203125,0,0
8.1597236203379E-06,-2.44050370383775E-05,1.58203125,0,0
9.92221157503081E-06,-2.44300172198564E-05,1.58203125,0,0
1.27020975924097E-05,-2.45010542130331E-05,1.58203125,0,0
1.34551819428452E-05,-2.38553020608379E-05,1.58203125,0,0
1.23267163871787E-05,-2.38291195273632E-05,1.58203125,0,0
1.10503715404775E-05,-1.99878304556478E-05,1.58203125,0,0
1.07188670881442E-05,-1.69806080521084E-05,1.58203125,0,0
9.89654381555738E-06,-1.34967513076845E-05,1.58203125,0,0
7.99814552010503E-06,-1.2894765859528E-05,1.58203125,0,0
5.87744580116123E-06,-1.240909932676E-05,1.58203125,0,0
3.72491831512889E-06,-1.40274332807167E-05,1.58203125,0,0
1.28138117361232E-06,-1.45632238854887E-05,1.58203125,0,0
8.38490507248935E-07,-1.43123825182556E-05,1.58203125,0,0
1.43134957397706E-06,-1.27187186080846E-05,1.58203125,0,0
5.93537492932228E-07,-1.27090997921186E-05,1.58203125,0,0
-2.57597935160447E-06,-1.36956050482695E-05,1.58203125,0,0
-6.05759896643576E-06,-1.51284793901141E-05,1.58203125,0,0
-4.20171090809163E-06,-1.32181994558778E-05,1.58203125,0,0
-4.4408793655748E-06,-1.91531053133076E-05,1.58203125,0,0
-2.13477142096963E-06,-1.57773902174085E-05,1.58203125,0,0
-3.11756980408973E-06,-2.05366686714115E-05,1.58203125,0,0
-1.20756601518224E-06,-1.70895491464762E-05,1.58203125,0,0
-2.97628776024794E-06,-1.67453290487174E-05,1.58203125,0,0
-2.86260069515265E-06,-1.52303018694511E-05,1.58203125,0,0
-2.18483091884991E-06,-1.69927516253665E-05,1.58203125,0,0
-9.29802183691208E-07,-1.8493405150366E-05,1.58203125,0,0
-3.81041417085726E-07,-2.10594771488104E-05,1.58203125,0,0
-3.87980378491193E-07,-2.22458875214215E-05,1.58203125,0,0
-9.08105732833064E-07,-2.06749100470915E-05,1.58203125,0,0
-1.71231499734859E-06,-2.00177655642619E-05,1.58203125,0,0
-2.38591383094899E-06,-1.94517560885288E-05,1.58203125,0,0
-4.6749328248552E-06,-2.03187573788455E-05,1.58203125,0,0
-6.05411150900181E-06,-1.95036809600424E-05,1.58203125,0,0
-6.85253371557337E-06,-1.9377806893317E-05,1.58203125,0,0
-5.81742142458097E-06,-1.68960996234091E-05,1.58203125,0,0
-4.60439105154364E-06,-1.47845030369353E-05,1.58203125,0,0
-3.06766946778225E-06,-1.05292974694748E-05,1.58203125,0,0
-2.84848442788643E-06,-8.66357549966779E-06,1.58203125,0,0
-2.55743634625105E-06,-9.00808390724706E-06,1.58203125,0,0
-2.67914197138452E-06,-1.04172695500893E-05,1.58203125,0,0
-1.6693901443432E-06,-9.78744719759561E-06,1.58203125,0,0
7.48826835206273E-07,-8.99509905138984E-06,1.58203125,0,0
2.41693078351091E-06,-8.83498341863742E-06,1.58203125,0,0
2.01253192244621E-06,-1.08504818854271E-05,1.58203125,0,0
1.48593449011969E-06,-1.24041935123387E-05,1.58203125,0,0
3.45561670656025E-06,-1.98286543309223E-05,1.58203125,0,0
4.02536306864931E-06,-1.57985541591188E-05,1.58203125,0,0
5.01250178785995E-06,-1.42693561429041E-05,1.58203125,0,0
4.78190804642509E-06,-8.79127946973313E-06,1.58203125,0,0
2.64761411017389E-06,-1.23344798339531E-05,1.58203125,0,0
4.1889583712873E-07,-1.53747350850608E-05,1.58203125,0,0
-1.0090196838064E-06,-1.82445874088444E-05,1.58203125,0,0
-2.14447186408506E-06,-2.00609847524902E-05,1.58203125,0,0
-3.43679698744381E-06,-2.32760303333635E-05,1.58203125,0,0
-3.9053688851709E-06,-2.69519914581906E-05,1.58203125,0,0
-2.4993248644023E-06,-2.9476594136213E-05,1.58203125,0,0
-1.21765663152473E-06,-3.16256555379368E-05,1.58203125,0,0
-1.33156356696418E-06,-3.1716135708848E-05,1.58203125,0,0
-2.32567367675074E-06,-3.31455121340696E-05,1.58203125,0,0
-3.09697543343646E-06,-3.36797129421029E-05,1.58203125,0,0
-4.16177044826327E-06,-3.44973159371875E-05,1.58203125,0,0
-5.9765129662992E-06,-3.19596510962583E-05,1.58203125,0,0
-6.84620772517519E-06,-2.84174984699348E-05,1.58203125,0,0
-5.73213583265897E-06,-2.28785502258688E-05,1.58203125,0,0
-4.03028298023855E-06,-1.8766118955682E-05,1.58203125,0,0
-2.94968162961595E-06,-1.61914358614013E-05,1.58203125,0,0
-1.33994956286188E-06,-1.61748484970303E-05,1.58203125,0,0
4.40822844893773E-07,-1.71283281815704E-05,1.58203125,0,0
1.23186589462421E-06,-1.8822309357347E-05,1.58203125,0,0
1.49987761233206E-06,-2.13315215660259E-05,1.58203125,0,0
2.41251973420731E-06,-2.24829072976718E-05,1.58203125,0,0
2.03556942324212E-06,-1.53712026076391E-05,1.58203125,0,0
2.64655886894616E-06,-1.84627424459904E-05,1.58203125,0,0
3.08923745251377E-06,-9.15749296837021E-06,1.58203125,0,0
4.46817557531176E-06,-1.39435487653827E-05,1.58203125,0,0
3.09401548292954E-06,-1.45525345942588E-05,1.58203125,0,0
4.25424468630808E-06,-2.17584329220699E-05,1.58203125,0,0
5.28003693034407E-06,-2.29545767069794E-05,1.58203125,0,0
5.0561857278808E-06,-2.45695810008328E-05,1.58203125,0,0
4.24838663093396E-06,-2.24538725888124E-05,1.58203125,0,0
5.7713978094398E-06,-2.00737576960819E-05,1.58203125,0,0
8.62667639012216E-06,-1.86056386155542E-05,1.58203125,0,0
9.21111950447084E-06,-1.81441082531819E-05,1.58203125,0,0
7.84493568062317E-06,-1.90569098776905E-05,1.58203125,0,0
7.31785530661E-06,-1.72184827533783E-05,1.58203125,0,0
9.36047217692249E-06,-1.73289827216649E-05,1.58203125,0,0
1.17154340841807E-05,-1.73832686414244E-05,1.58203125,0,0
1.30454354803078E-05,-1.93929572560592E-05,1.58203125,0,0
1.35767204483273E-05,-1.68809347087517E-05,1.58203125,0,0
1.57567810674664E-05,-1.53145101648988E-05,1.58203125,0,0
1.83285810635425E-05,-1.4546702914231E-05,1.58203125,0,0
2.00077738554683E-05,-1.59721148520475E-05,1.58203125,0,0
2.08150941034546E-05,-1.4781972822675E-05,1.58203125,0,0
2.21210957533913E-05,-1.38182358568884E-05,1.58203125,0,0
2.2542542865267E-05,-1.26298582472373E-05,1.58203125,0,0
2.26244392251829E-05,-1.19980186354951E-05,1.58203125,0,0
2.28565368161071E-05,-1.15910070235259E-05,1.58203125,0,0
2.29497054533567E-05,-1.18384677989525E-05,1.58203125,0,0
1.83385891432408E-05,-9.00442410056712E-06,1.58203125,0,0
2.57711799349636E-05,-1.19650721899234E-05,1.58203125,0,0
1.85390963451937E-05,-7.97317079559434E-06,1.58203125,0,0
2.14185038203141E-05,-9.53013568505412E-06,1.58203125,0,0
1.39927524287486E-05,-5.48767957297969E-06,1.58203125,0,0
1.33075063786237E-05,-5.33962611370953E-06,1.58203125,0,0
9.62562626227736E-06,-4.63446531284717E-06,1.58203125,0,0
9.79859942162875E-06,-5.90594618188334E-06,1.58203125,0,0
7.21425385563634E-06,-6.14452665104182E-06,1.58203125,0,0
4.52922040494741E-06,-5.01557133247843E-06,1.58203125,0,0
1.96414202946471E-06,-4.90342472403427E-06,1.58203125,0,0
-5.0322199740549E-07,-7.81478320277529E-06,2.4609375,0,0
-1.10307752265726E-07,-1.56443074956769E-05,2.4609375,0,0
-1.21652396956051E-06,-2.37435651797568E-05,2.4609375,0,0
-2.10141661227681E-06,-3.07772352243774E-05,2.4609375,0,0
-4.82513269162155E-06,-3.58172146661673E-05,2.4609375,0,0
-3.18417141897953E-06,-4.15916911151726E-05,2.4609375,0,0
-2.52250288212963E-06,-4.50886109319981E-05,2.4609375,0,0
-1.29058480524691E-06,-4.60215087514371E-05,2.4609375,0,0
-3.49213792105729E-06,-4.26058759330772E-05,2.4609375,0,0
-5.90940862821299E-06,-3.7664474803023E-05,2.4609375,0,0
-9.6861758720479E-06,-3.23941712849773E-05,2.4609375,0,0
-9.89165528153535E-06,-2.84263551293407E-05,2.4609375,0,0
-8.62604065332562E-06,-2.40964982367586E-05,2.4609375,0,0
-8.20242621557554E-06,-2.05375599762192E-05,2.4609375,0,0
-1.10673809103901E-05,-1.88664980669273E-05,2.4609375,0,0
-1.24768221212435E-05,-1.64963112183614E-05,2.4609375,0,0
-8.76606645761058E-06,-1.10388191387756E-05,2.4609375,0,0
-1.24004091048846E-05,-1.48744802572764E-05,2.4609375,0,0
-8.36152594274608E-06,-1.10657711047679E-05,2.4609375,0,0
-9.36852120503318E-06,-1.45804142448469E-05,2.4609375,0,0
-6.23260211796151E-06,-1.2475774383347E-05,2.4609375,0,0
-5.70540396438446E-06,-1.34571837406838E-05,2.4609375,0,0
-1.53237363065273E-06,-1.07930163721903E-05,2.4609375,0,0
1.16765271229724E-07,-1.17860290629324E-05,2.4609375,0,0
2.14577721635578E-06,-1.13093929030583E-05,2.4609375,0,0
3.2440086670249E-06,-1.06753968793782E-05,2.4609375,0,0
4.68352300231345E-06,-1.13928781502182E-05,2.4609375,0,0
5.21272067999234E-06,-1.20512731882627E-05,2.4609375,0,0
4.08362348025548E-06,-1.39450803544605E-05,2.4609375,0,0
4.63106607639929E-06,-1.37151073431596E-05,2.4609375,0,0
5.12026053911541E-06,-1.31926708490937E-05,2.4609375,0,0
7.30364854462096E-06,-1.052347215591E-05,2.4609375,0,0
9.51287165662507E-06,-9.62441936280811E-06,2.4609375,0,0
1.33927469505579E-05,-8.00261204858543E-06,2.4609375,0,0
1.50273644976551E-05,-8.22570655145682E-06,2.4609375,0,0
1.54030713019893E-05,-8.3525592344813E-06,2.4609375,0,0
1.33801859192317E-05,-1.04018008642015E-05,2.4609375,0,0
1.05457766039763E-05,-1.24403904919745E-05,2.4609375,0,0
7.56750432628905E-06,-1.34874226205284E-05,2.4609375,0,0
6.17983187112259E-06,-1.2087075447198E-05,2.4609375,0,0
3.8396551644837E-06,-1.23482841445366E-05,2.4609375,0,0
2.15484897125862E-06,-1.36694161483319E-05,2.4609375,0,0
-1.02094190879143E-08,-1.47047903737985E-05,2.4609375,0,0
-1.79240419129201E-06,-1.23863765111309E-05,2.4609375,0,0
-3.15042302645452E-06,-1.65609890245833E-05,2.4609375,0,0
-2.26148972615192E-06,-1.04994160210481E-05,2.4609375,0,0
-5.91612547395926E-07,-1.28285537357442E-05,2.4609375,0,0
9.24098458199296E-07,-1.09643760879408E-05,2.4609375,0,0
8.28440647637763E-07,-1.34270558191929E-05,2.4609375,0,0
6.52056257877121E-07,-1.1152534170833E-05,2.4609375,0,0
8.77222987583082E-07,-1.13883934318437E-05,2.4609375,0,0
2.47726666202652E-06,-1.18651887532906E-05,2.4609375,0,0
5.71654209124972E-06,-1.35111213239725E-05,2.4609375,0,0
8.66460322868079E-06,-1.46170614243601E-05,2.4609375,0,0
8.59930969454581E-06,-1.41916252687224E-05,2.4609375,0,0
5.99325267103268E-06,-1.42652925205766E-05,2.4609375,0,0
4.23905339630437E-06,-1.38960349431727E-05,2.4609375,0,0
4.54378914582776E-06,-1.55723537318408E-05,2.4609375,0,0
4.9844184104586E-06,-1.41867876664037E-05,2.4609375,0,0
4.64087725049467E-06,-1.34613628688385E-05,2.4609375,0,0
5.77002492718748E-06,-1.38176255859435E-05,2.4609375,0,0
7.93170875112992E-06,-1.72921500052325E-05,2.4609375,0,0
8.13210317573976E-06,-1.92819061339833E-05,2.4609375,0,0
5.51457969777402E-06,-2.18038694583811E-05,2.4609375,0,0
3.40675615007058E-06,-2.1828263925272E-05,2.4609375,0,0
2.94354936158925E-06,-2.1150986867724E-05,2.4609375,0,0
2.87459101855347E-06,-2.14723004319239E-05,2.4609375,0,0
2.59250509770936E-06,-2.26355805352796E-05,2.4609375,0,0
3.21912170875294E-06,-2.44231396209216E-05,2.4609375,0,0
3.32278023051913E-06,-2.70784094027476E-05,2.4609375,0,0
1.0775504506455E-06,-2.02670616999967E-05,2.4609375,0,0
2.45540348942086E-07,-2.46449326368747E-05,2.4609375,0,0
-6.15089675193303E-07,-9.26849770621629E-06,2.4609375,0,0
1.7198897239723E-07,-8.39785116113489E-06,2.4609375,0,0
-2.2902718228579E-06,-2.94544724965817E-06,2.4609375,0,0
-4.93287052449887E-06,-9.08020138012944E-06,2.4609375,0,0
-6.38111714579281E-06,-1.13170526674367E-05,2.4609375,0,0
-5.17171974934172E-06,-1.75933328137035E-05,2.4609375,0,0
-3.31734645442339E-06,-2.15451927942922E-05,2.4609375,0,0
-2.6664201868698E-06,-2.52643458225066E-05,2.4609375,0,0
-3.56107602783595E-06,-2.86183440039167E-05,2.4609375,0,0
-4.23419805883896E-06,-2.94495202979306E-05,2.4609375,0,0
-3.08574044538545E-06,-2.89490562863648E-05,2.4609375,0,0
-1.90018283774407E-06,-2.64977279584855E-05,2.4609375,0,0
-2.44385614678322E-06,-2.77155722869793E-05,2.4609375,0,0
-4.0328732211492E-06,-2.6419182177051E-05,2.4609375,0,0
-4.23204710386926E-06,-2.56688217632473E-05,2.4609375,0,0
-2.3849027002143E-06,-2.0708894226118E-05,2.4609375,0,0
2.57791242574967E-07,-1.75193272298202E-05,2.4609375,0,0
7.68055826938507E-07,-1.39693911478389E-05,2.4609375,0,0
-4.49369309762915E-07,-1.41907703437028E-05,2.4609375,0,0
-1.68540520917304E-06,-1.38634450195241E-05,2.4609375,0,0
-1.64786058576283E-06,-1.39615021907957E-05,2.4609375,0,0
-1.41302882639138E-06,-1.29352174553787E-05,2.4609375,0,0
-5.47716979326651E-07,-1.31170036183903E-05,2.4609375,0,0
3.60902447482658E-07,-1.38909190354752E-05,2.4609375,0,0
1.05827552943083E-06,-1.61533043865347E-05,2.4609375,0,0
2.45460137193732E-06,-1.54145491251256E-05,2.4609375,0,0
4.13513362218509E-06,-2.36776759265922E-05,2.4609375,0,0
3.61616525879072E-06,-2.06343647732865E-05,2.4609375,0,0
4.04552929467172E-06,-2.65208691416774E-05,2.4609375,0,0
3.72653585145599E-06,-2.42929036176065E-05,2.4609375,0,0
4.1739681364561E-06,-2.33723294513766E-05,2.4609375,0,0
4.27705845140736E-06,-1.88587309821742E-05,2.4609375,0,0
4.78380843560444E-06,-1.735598743835E-05,2.4609375,0,0
5.17940088684554E-06,-1.46734273585025E-05,2.4609375,0,0
5.1573451855802E-06,-1.28129968288704E-05,2.4609375,0,0
4.91073387820506E-06,-1.16565242933575E-05,2.4609375,0,0
4.94685264129657E-06,-1.05204444480478E-05,2.4609375,0,0
6.37765970168402E-06,-1.20241575132241E-05,2.4609375,0,0
7.14734233042691E-06,-1.29157961055171E-05,2.4609375,0,0
7.41229041523184E-06,-1.44408722917433E-05,2.4609375,0,0
7.42854217605782E-06,-1.34088095364859E-05,2.4609375,0,0
7.05666207068134E-06,-1.40479996844078E-05,2.4609375,0,0
6.72402711643372E-06,-1.26816185002099E-05,2.4609375,0,0
9.00799932423979E-06,-1.13443611553521E-05,2.4609375,0,0
1.30260150399408E-05,-9.22747403819812E-06,2.4609375,0,0
1.59442206495442E-05,-1.03735201264499E-05,2.4609375,0,0
1.63994172908133E-05,-1.14441290861578E-05,2.4609375,0,0
1.58893799380166E-05,-1.13600772237987E-05,2.4609375,0,0
1.50463065438089E-05,-9.63294587563723E-06,2.4609375,0,0
1.18902780741337E-05,-9.64215905696619E-06,2.4609375,0,0
8.33242665976286E-06,-1.11559193101129E-05,2.4609375,0,0
7.38382959752926E-06,-1.23321233331808E-05,2.4609375,0,0
6.39387508272193E-06,-1.00889674286009E-05,2.4609375,0,0
9.3629942057305E-06,-1.35170785142691E-05,2.4609375,0,0
6.80309085510089E-06,-9.52957907429663E-06,2.4609375,0,0
6.47691467747791E-06,-1.18099842438824E-05,2.4609375,0,0
4.12934377891361E-06,-9.77511081146076E-06,2.4609375,0,0
6.51484378977329E-06,-1.43305478559341E-05,2.4609375,0,0
7.94676634541247E-06,-1.79783473868156E-05,2.4609375,0,0
9.1166539277765E-06,-2.02664323296631E-05,2.4609375,0,0
8.40044322103495E-06,-1.85323515324853E-05,2.4609375,0,0
7.75806711317273E-06,-1.92057668755297E-05,2.4609375,0,0
7.59917611503624E-06,-2.2677448214381E-05,2.4609375,0,0
8.52457469591172E-06,-2.5231844119844E-05,2.4609375,0,0
1.00224042398622E-05,-2.55377617577324E-05,2.4609375,0,0
9.35842126636999E-06,-2.20213260035962E-05,2.4609375,0,0
8.10622532299021E-06,-1.94612985069398E-05,2.4609375,0,0
6.2329318097909E-06,-1.74481174326502E-05,2.4609375,0,0
5.64031233807327E-06,-1.77942965819966E-05,2.4609375,0,0
5.02229249832453E-06,-1.74465531017631E-05,2.4609375,0,0
5.36836023456999E-06,-1.96387281903299E-05,2.4609375,0,0
4.57149326393846E-06,-2.23841871047625E-05,2.4609375,0,0
2.92164509119175E-06,-2.60419601545436E-05,2.4609375,0,0
2.22416034034723E-07,-2.77329327218467E-05,2.4609375,0,0
-9.60187435339321E-07,-2.95410864055157E-05,2.4609375,0,0
-7.83127006798168E-07,-3.00401188724209E-05,2.4609375,0,0
9.23487334603124E-07,-2.86141785181826E-05,2.4609375,0,0
1.53457017404435E-06,-2.57642386713997E-05,2.4609375,0,0
1.17854199288558E-06,-2.21681148104835E-05,2.4609375,0,0
2.87527626596784E-07,-1.53711589518934E-05,2.4609375,0,0
1.09748107490759E-07,-1.99079622689169E-05,2.4609375,0,0
4.32554884355341E-07,-1.23984445963288E-05,2.4609375,0,0
6.88589466335543E-07,-1.65565288625658E-05,2.4609375,0,0
-7.84263761488546E-07,-1.37732704388327E-05,2.4609375,0,0
-1.47304831443762E-06,-1.61646676133387E-05,2.4609375,0,0
-8.36051867736387E-07,-1.4328178622236E-05,2.4609375,0,0
-7.66938569540798E-07,-1.57132853928488E-05,2.4609375,0,0
-2.21822256207815E-06,-1.53232267621206E-05,2.4609375,0,0
-3.26496365232742E-06,-1.47197633850737E-05,2.4609375,0,0
-2.02558817363752E-06,-1.38602927108877E-05,2.4609375,0,0
7.79037065967714E-08,-1.23404724945431E-05,2.4609375,0,0
7.87716544436989E-07,-1.35006121126935E-05,2.4609375,0,0
-4.98822657846176E-07,-1.46312650031177E-05,2.4609375,0,0
-2.33293667406542E-06,-1.67057805811055E-05,2.4609375,0,0
-3.0712449188286E-06,-1.50765063153813E-05,2.4609375,0,0
-2.30398200073978E-06,-1.6023863281589E-05,2.4609375,0,0
-6.46372029677877E-07,-1.69714185176417E-05,2.4609375,0,0
1.14488955205161E-06,-1.89128495549085E-05,2.4609375,0,0
1.80578808794962E-06,-1.78257523657521E-05,2.4609375,0,0
7.15306612164568E-07,-1.70656803675229E-05,2.4609375,0,0
-6.20595699274418E-07,-1.55131056089886E-05,2.4609375,0,0
-1.10611676973349E-06,-1.54328809003346E-05,2.4609375,0,0
-1.18719970032544E-06,-1.50193436638801E-05,2.4609375,0,0
-8.1595629808362E-07,-1.54625595314428E-05,2.4609375,0,0
-5.5335999604722E-07,-1.67265880008927E-05,2.4609375,0,0
-6.17071691522142E-07,-1.73958542291075E-05,2.4609375,0,0
-1.26336630046353E-07,-1.22674382510013E-05,2.4609375,0,0
8.48733407110558E-07,-1.68784226843854E-05,2.4609375,0,0
2.14823785427143E-06,-1.20140402941615E-05,2.4609375,0,0
2.38048278333736E-06,-1.43109018608811E-05,2.4609375,0,0
1.889516056508E-06,-1.15332768473309E-05,2.4609375,0,0
1.47046159781894E-06,-1.37225906655658E-05,2.4609375,0,0
2.65670837507059E-06,-1.27952116599772E-05,2.4609375,0,0
3.73774901163415E-06,-1.46738266266766E-05,2.4609375,0,0
4.8304154915968E-06,-1.4965816262702E-05,2.4609375,0,0
5.4920701586525E-06,-1.57931626745267E-05,2.4609375,0,0
5.44519025424961E-06,-1.64649445650866E-05,2.4609375,0,0
5.20396588399308E-06,-1.52093343785964E-05,2.4609375,0,0
5.11624512000708E-06,-1.44421528602834E-05,2.4609375,0,0
4.91281298309332E-06,-1.43965498864418E-05,2.4609375,0,0
4.87647821501014E-06,-1.699289350654E-05,2.4609375,0,0
5.39786515219021E-06,-1.70035182236461E-05,2.4609375,0,0
5.78296476305695E-06,-1.78943937498843E-05,2.4609375,0,0
6.06059256824665E-06,-1.7318448954029E-05,2.4609375,0,0
5.8865598475677E-06,-1.73358166648541E-05,2.4609375,0,0
5.31252180735464E-06,-1.59167011588579E-05,2.4609375,0,0
4.31058333560941E-06,-1.59458159032511E-05,2.4609375,0,0
3.86946430808166E-06,-1.6182802937692E-05,2.4609375,0,0
3.69968734048598E-06,-1.79621729330393E-05,2.4609375,0,0
2.90559705717897E-06,-1.87420537258731E-05,2.4609375,0,0
2.24198151954624E-06,-1.8245500541525E-05,2.4609375,0,0
2.98864983960812E-06,-1.72422587638721E-05,2.4609375,0,0
4.24116024078103E-06,-1.66995559993666E-05,2.4609375,0,0
4.07193920182181E-06,-1.32157319967519E-05,2.4609375,0,0
5.81781341679743E-06,-1.95511638594326E-05,2.4609375,0,0
3.52686538462876E-06,-1.57128197315615E-05,2.4609375,0,0
2.98384179586719E-06,-1.90764076251071E-05,2.4609375,0,0
1.04697971892165E-06,-1.72405525518116E-05,2.4609375,0,0
1.6173761423488E-06,-1.98309280676767E-05,2.4609375,0,0
1.39720668812515E-06,-1.80704155354761E-05,2.4609375,0,0
6.55340727462317E-07,-1.86365577974357E-05,2.4609375,0,0
-1.35268192025251E-06,-1.91775488929125E-05,2.4609375,0,0
-2.24620271183085E-06,-1.9427858205745E-05,2.4609375,0,0
-1.15033060410497E-06,-1.86410725291353E-05,2.4609375,0,0
9.64237614198282E-08,-1.8050888684229E-05,2.4609375,0,0
1.50776116925044E-07,-1.93119631148875E-05,2.4609375,0,0
-1.3344924809644E-06,-1.87097011803417E-05,2.4609375,0,0
-1.43838462918211E-06,-1.77098845597357E-05,2.4609375,0,0
-7.37614243462303E-07,-1.53159362525912E-05,2.4609375,0,0
3.83414999305387E-07,-1.65694527822779E-05,2.4609375,0,0
1.51704716699896E-06,-1.77023703145096E-05,2.4609375,0,0
3.21023412652721E-06,-1.96059536392568E-05,2.4609375,0,0
3.66297649634362E-06,-1.98577017727075E-05,2.4609375,0,0
2.82029031950515E-06,-2.07155990210595E-05,2.4609375,0,0
1.44920932143577E-06,-1.98365069081774E-05,2.4609375,0,0
2.79383880297246E-06,-1.88619287655456E-05,2.4609375,0,0
5.6788503570715E-06,-1.68731039593695E-05,2.4609375,0,0
8.30988301459001E-06,-1.55310353875393E-05,2.4609375,0,0
8.66454684000928E-06,-1.51661788549973E-05,2.4609375,0,0
8.91399031388573E-06,-1.42928365676198E-05,2.4609375,0,0
9.78847037913511E-06,-1.00853230833309E-05,2.4609375,0,0
1.61820444191108E-05,-1.44423183883191E-05,2.4609375,0,0
1.53700857481454E-05,-1.23786639960599E-05,2.4609375,0,0
1.94971689779777E-05,-1.75577242771396E-05,2.4609375,0,0
1.94231361092534E-05,-1.78711434273282E-05,2.4609375,0,0
2.08139936148655E-05,-2.0470964955166E-05,2.4609375,0,0
1.95278662431519E-05,-1.97597964870511E-05,2.4609375,0,0
1.99191417777911E-05,-1.90577211469645E-05,2.4609375,0,0
1.87720397661906E-05,-1.58920192916412E-05,2.4609375,0,0
1.69459726748755E-05,-1.4536160051648E-05,2.4609375,0,0
1.46214342748863E-05,-1.4891480532242E-05,2.4609375,0,0
1.16143237391952E-05,-1.4304802789411E-05,2.4609375,0,0
9.81442099146079E-06,-1.39473313538474E-05,2.4609375,0,0
7.97369375504786E-06,-1.53854562086053E-05,2.4609375,0,0
6.94066193318577E-06,-1.9435439753579E-05,2.4609375,0,0
5.4135343816597E-06,-2.12524664675584E-05,2.4609375,0,0
5.22160871696542E-06,-2.23714832827682E-05,2.4609375,0,0
3.62972673428885E-06,-2.06157983484445E-05,2.4609375,0,0
2.1886189642828E-06,-1.88468402484432E-05,2.4609375,0,0
1.0978130831063E-06,-1.69673694472294E-05,2.4609375,0,0
2.45640831053606E-06,-1.75130953721236E-05,4.39453125,0,0
2.61289665104414E-06,-1.73412736330647E-05,4.39453125,0,0
6.63211608298298E-07,-1.70538514794316E-05,4.39453125,0,0
-2.79538426184445E-06,-1.62309461302357E-05,4.39453125,0,0
-3.64621746484772E-06,-1.65134588314686E-05,4.39453125,0,0
-2.96894359053113E-06,-1.68417172972113E-05,4.39453125,0,0
-3.22519781548181E-06,-1.64238899742486E-05,4.39453125,0,0
-3.50630421053211E-06,-1.29384261526866E-05,4.39453125,0,0
-5.72229737372254E-06,-1.89050660992507E-05,4.39453125,0,0
-5.00963597005466E-06,-1.47801119965152E-05,4.39453125,0,0
-5.93043978369678E-06,-1.73054104379844E-05,4.39453125,0,0
-4.77547700938885E-06,-1.40938718686812E-05,4.39453125,0,0
-4.57297801403911E-06,-1.56660698849009E-05,4.39453125,0,0
-4.1474759200355E-06,-1.52939046529355E-05,4.39453125,0,0
-4.77711319035734E-06,-1.87033947440796E-05,4.39453125,0,0
-4.26348151449929E-06,-2.04054595087655E-05,4.39453125,0,0
-2.80124731943943E-06,-2.18552431761054E-05,4.39453125,0,0
-1.50154221500998E-06,-2.36312989727594E-05,4.39453125,0,0
-7.08441348251654E-07,-2.47613825195003E-05,4.39453125,0,0
-1.87066248713563E-07,-2.59105781879043E-05,4.39453125,0,0
7.63855325658369E-07,-2.42509468080243E-05,4.39453125,0,0
1.87539330909203E-06,-2.29254819714697E-05,4.39453125,0,0
3.47158288604987E-06,-2.09851405088557E-05,4.39453125,0,0
3.73562943423167E-06,-2.19747453229502E-05,4.39453125,0,0
3.86898545912118E-06,-2.1817035303684E-05,4.39453125,0,0
3.89294291380793E-06,-2.15785166801652E-05,4.39453125,0,0
3.83021097150049E-06,-1.94160220416961E-05,4.39453125,0,0
3.35898675984936E-06,-1.99507630895823E-05,4.39453125,0,0
3.77907781512477E-06,-2.16299140447518E-05,4.39453125,0,0
4.70946224595536E-06,-2.37009371630847E-05,4.39453125,0,0
4.89178319185157E-06,-2.40268163906876E-05,4.39453125,0,0
4.03171452489914E-06,-2.32171532843495E-05,4.39453125,0,0
3.90380046155769E-06,-2.21824539039517E-05,4.39453125,0,0
4.42927284893813E-06,-2.18090426642448E-05,4.39453125,0,0
3.7907282148808E-06,-1.62028591148555E-05,4.39453125,0,0
5.83491964789573E-06,-2.25019612116739E-05,4.39453125,0,0
4.93339302920504E-06,-1.65340879902942E-05,4.39453125,0,0
5.98846145294374E-06,-1.91703820746625E-05,4.39453125,0,0
5.89726278121816E-06,-1.36540002131369E-05,4.39453125,0,0
7.67165602155728E-06,-1.60217387019657E-05,4.39453125,0,0
8.11044083093293E-06,-1.49967236211523E-05,4.39453125,0,0
8.70150142873172E-06,-1.57507838594029E-05,4.39453125,0,0
7.81198104959913E-06,-1.39457170007518E-05,4.39453125,0,0
6.07308311373345E-06,-1.39021203722223E-05,4.39453125,0,0
3.72315957974934E-06,-1.52766133396653E-05,4.39453125,0,0
1.30069759052276E-06,-1.57169179146877E-05,4.39453125,0,0
-1.41705669420844E-07,-1.55350444401847E-05,4.39453125,0,0
1.90620603746083E-08,-1.29672462207964E-05,4.39453125,0,0
1.58071645728342E-06,-1.3660315744346E-05,4.39453125,0,0
1.54508370542317E-06,-1.31077013065806E-05,4.39453125,0,0
5.36040147380845E-07,-1.43417591971229E-05,4.39453125,0,0
-1.4858413805996E-06,-1.41111522680148E-05,4.39453125,0,0
-2.7769572170655E-06,-1.51046988321468E-05,4.39453125,0,0
-3.22796836371708E-06,-1.36162070702994E-05,4.39453125,0,0
-2.56817929766839E-06,-1.34287047330872E-05,4.39453125,0,0
-1.85449573564256E-06,-1.21014418255072E-05,4.39453125,0,0
-7.95597600244946E-07,-1.11328308776137E-05,4.39453125,0,0
3.97529227313953E-08,-9.91901833913289E-06,4.39453125,0,0
7.69098164710158E-07,-9.08559741219506E-06,4.39453125,0,0
2.30301270676136E-06,-7.97045959188836E-06,4.39453125,0,0
4.76295599582954E-06,-9.56794337980682E-06,4.39453125,0,0
6.14065220361226E-06,-1.1748092219932E-05,4.39453125,0,0
9.74388512986479E-06,-1.92307525139768E-05,4.39453125,0,0
7.92879473010544E-06,-1.66705140145496E-05,4.39453125,0,0
8.69922769197728E-06,-1.8201832062914E-05,4.39453125,0,0
6.58590488455957E-06,-1.56647383846575E-05,4.39453125,0,0
6.35744345345302E-06,-1.62341111717978E-05,4.39453125,0,0
6.7780347308144E-06,-1.53710516315186E-05,4.39453125,0,0
8.1374091678299E-06,-1.6805439372547E-05,4.39453125,0,0
8.00411635282217E-06,-1.67210819199681E-05,4.39453125,0,0
7.55202972868574E-06,-1.58053935592761E-05,4.39453125,0,0
7.30910551283159E-06,-1.48673198054894E-05,4.39453125,0,0
6.25872053205967E-06,-1.40659321914427E-05,4.39453125,0,0
6.38688425169676E-06,-1.3976603440824E-05,4.39453125,0,0
7.21362448530272E-06,-1.19073274618131E-05,4.39453125,0,0
8.41054043121403E-06,-1.02868143585511E-05,4.39453125,0,0
7.84562689659651E-06,-8.99571932677645E-06,4.39453125,0,0
6.70745976094622E-06,-1.18440821097465E-05,4.39453125,0,0
4.65667108073831E-06,-1.45296517075622E-05,4.39453125,0,0
3.98698557546595E-06,-1.64112989295973E-05,4.39453125,0,0
5.26169742443017E-06,-1.56091227836441E-05,4.39453125,0,0
8.27639996714424E-06,-1.46378297358751E-05,4.39453125,0,0
1.01588138932129E-05,-1.35591290018056E-05,4.39453125,0,0
1.04432156149414E-05,-1.419071759301E-05,4.39453125,0,0
9.12616724235704E-06,-1.5446346878889E-05,4.39453125,0,0
7.33517617845791E-06,-1.71399951796047E-05,4.39453125,0,0
5.23701282872935E-06,-1.82029798452277E-05,4.39453125,0,0
2.4830751499394E-06,-1.81976884050528E-05,4.39453125,0,0
-9.4440525799655E-07,-1.23792515296373E-05,4.39453125,0,0
-3.33408661390422E-06,-1.63077947945567E-05,4.39453125,0,0
-4.52286440122407E-06,-1.30163271023775E-05,4.39453125,0,0
-3.87169393434306E-06,-1.74874985532369E-05,4.39453125,0,0
-3.98897509512608E-06,-1.34956708279788E-05,4.39453125,0,0
-5.17951866640942E-06,-1.64140255947132E-05,4.39453125,0,0
-5.7958372963185E-06,-1.65174660651246E-05,4.39453125,0,0
-5.66155267733848E-06,-1.73982662090566E-05,4.39453125,0,0
-5.33492038812255E-06,-1.50458663483732E-05,4.39453125,0,0
-5.19508375873556E-06,-1.39124622364761E-05,4.39453125,0,0
-5.46869068784872E-06,-1.49801599036437E-05,4.39453125,0,0
-5.87493650527904E-06,-1.59549672389403E-05,4.39453125,0,0
-5.35985554961371E-06,-1.72370055224746E-05,4.39453125,0,0
-3.89291744795628E-06,-1.67119615070987E-05,4.39453125,0,0
-3.1712775125925E-06,-1.64573775691679E-05,4.39453125,0,0
-3.27242651110282E-06,-1.47640575960395E-05,4.39453125,0,0
-1.87902514880989E-06,-1.6278605471598E-05,4.39453125,0,0
1.72400643805304E-06,-1.66563368111383E-05,4.39453125,0,0
4.51998221251415E-06,-1.77198835444869E-05,4.39453125,0,0
5.48399930266896E-06,-1.70955554494867E-05,4.39453125,0,0
6.27827421340044E-06,-1.68520236911718E-05,4.39453125,0,0
6.39870904706186E-06,-1.53193304868182E-05,4.39453125,0,0
6.19260572420899E-06,-1.57074337039376E-05,4.39453125,0,0
7.37534219297231E-06,-1.5404395526275E-05,4.39453125,0,0
9.41109010454966E-06,-1.47322652992443E-05,4.39453125,0,0
1.01708174042869E-05,-1.54897279571742E-05,4.39453125,0,0
8.21174580778461E-06,-1.83558549906593E-05,4.39453125,0,0
3.38387530973705E-06,-1.62067626661155E-05,4.39453125,0,0
2.22860762733035E-06,-2.17063679883722E-05,4.39453125,0,0
-1.66983909366536E-06,-1.48914914461784E-05,4.39453125,0,0
-6.4900501683951E-07,-2.03007093659835E-05,4.39453125,0,0
5.26499150055315E-07,-1.9053666619584E-05,4.39453125,0,0
4.20804371970007E-06,-2.25188523472752E-05,4.39453125,0,0
5.51667017134605E-06,-2.1094967451063E-05,4.39453125,0,0
7.93062827142421E-06,-2.18980276258662E-05,4.39453125,0,0
9.42544556892244E-06,-2.09554054890759E-05,4.39453125,0,0
1.05506278487155E-05,-2.09325226023793E-05,4.39453125,0,0
1.08017466118326E-05,-2.12677769013681E-05,4.39453125,0,0
9.25222866499098E-06,-2.05971045943443E-05,4.39453125,0,0
6.78927017361275E-06,-2.02680603251792E-05,4.39453125,0,0
4.20384003518848E-06,-1.81088653334882E-05,4.39453125,0,0
2.78727770819387E-06,-1.80333390744636E-05,4.39453125,0,0
-5.69603670896868E-08,-1.63873028213857E-05,4.39453125,0,0
-2.81201346297166E-06,-1.73949465533951E-05,4.39453125,0,0
-3.68982910003979E-06,-1.69059258041671E-05,4.39453125,0,0
-8.27565315830725E-07,-1.71176143339835E-05,4.39453125,0,0
2.82452560895763E-06,-1.55892921611667E-05,4.39453125,0,0
5.8710434132081E-06,-1.5682720913901E-05,4.39453125,0,0
6.41257747702184E-06,-1.6352078091586E-05,4.39453125,0,0
6.40586858935421E-06,-1.90242262760876E-05,4.39453125,0,0
6.68716029395E-06,-1.9852948753396E-05,4.39453125,0,0
6.58640419715084E-06,-1.91567196452525E-05,4.39453125,0,0
5.22379514222848E-06,-1.68497481354279E-05,4.39453125,0,0
4.27855593443383E-06,-1.68323422258254E-05,4.39453125,0,0
4.23584515374387E-06,-1.62343530973885E-05,4.39453125,0,0
7.82421648182208E-06,-2.43083868554095E-05,4.39453125,0,0
7.13362123860861E-06,-1.94958647625754E-05,4.39453125,0,0
6.3695702010591E-06,-2.37944605032681E-05,4.39453125,0,0
5.26266921951901E-06,-2.21055397560121E-05,4.39453125,0,0
4.86860517412424E-06,-2.54892220254987E-05,4.39453125,0,0
1.27517637338315E-06,-2.66447932517622E-05,4.39453125,0,0
-2.15945351556002E-06,-3.05841131194029E-05,4.39453125,0,0
-3.42888552040677E-06,-2.99994844681351E-05,4.39453125,0,0
-3.24000120599521E-06,-2.70964392257156E-05,4.39453125,0,0
-4.20502283304813E-06,-2.4814042262733E-05,4.39453125,0,0
-6.26777409706847E-06,-2.26200590986991E-05,4.39453125,0,0
-6.68866914566024E-06,-2.20574002014473E-05,4.39453125,0,0
-5.01770455230144E-06,-2.03990093723405E-05,4.39453125,0,0
-2.47990283241961E-06,-2.08628352993401E-05,4.39453125,0,0
-1.60840897933667E-06,-1.98547004401917E-05,4.39453125,0,0
-1.19504056783626E-06,-1.91363378689857E-05,4.39453125,0,0
-8.06344985448959E-07,-1.60126346600009E-05,4.39453125,0,0
-1.26222488461281E-07,-1.55483940034173E-05,4.39453125,0,0
3.91251859355179E-07,-1.55177440319676E-05,4.39453125,0,0
1.68979340742226E-06,-1.71435021911748E-05,4.39453125,0,0
2.78009838439175E-06,-1.63829954544781E-05,4.39453125,0,0
4.11284054280259E-06,-1.56780333782081E-05,4.39453125,0,0
3.57651288140914E-06,-1.48867429743405E-05,4.39453125,0,0
1.14253759875282E-06,-1.37030147016048E-05,4.39453125,0,0
4.10689324326086E-07,-1.24914704429102E-05,4.39453125,0,0
2.20735068978684E-06,-1.29272011690773E-05,4.39453125,0,0
3.67490429198369E-06,-1.04962045952561E-05,4.39453125,0,0
5.61960587219801E-06,-1.27832445286913E-05,4.39453125,0,0
6.07399124419317E-06,-7.68360223446507E-06,4.39453125,0,0
9.00433497008635E-06,-1.15112570711062E-05,4.39453125,0,0
7.93553681432968E-06,-1.17015142677701E-05,4.39453125,0,0
6.63137734591146E-06,-1.75581208168296E-05,4.39453125,0,0
5.24408869750914E-06,-1.90374685189454E-05,4.39453125,0,0
5.68591167393606E-06,-1.87882451427868E-05,4.39453125,0,0
5.89131968808942E-06,-1.5583695130772E-05,4.39453125,0,0
5.46151022717822E-06,-1.39626190502895E-05,4.39453125,0,0
4.562664344121E-06,-1.39373232741491E-05,4.39453125,0,0
2.62306957665714E-06,-1.34378378788824E-05,4.39453125,0,0
1.59199976224045E-06,-1.34308302222053E-05,4.39453125,0,0
2.26825682148046E-06,-1.23405407066457E-05,4.39453125,0,0
4.45366549683968E-06,-1.32808136186213E-05,4.39453125,0,0
5.39378743269481E-06,-1.28636129375082E-05,4.39453125,0,0
5.01030308441841E-06,-1.32505965666496E-05,4.39453125,0,0
3.81550444217282E-06,-1.2162567145424E-05,4.39453125,0,0
3.32207855535671E-06,-1.24539010357694E-05,4.39453125,0,0
3.56192390427168E-06,-1.22779993034783E-05,4.39453125,0,0
5.68901396036381E-06,-1.32415507323458E-05,4.39453125,0,0
7.99323061073665E-06,-1.34515430545434E-05,4.39453125,0,0
9.58997588895727E-06,-1.38214627440902E-05,4.39453125,0,0
9.72754696704214E-06,-1.23881845865981E-05,4.39453125,0,0
8.48986564960796E-06,-1.11753179226071E-05,4.39453125,0,0
5.78526714889449E-06,-1.00645402199007E-05,4.39453125,0,0
2.65481457972783E-06,-9.45005376706831E-06,4.39453125,0,0
9.64865648711566E-07,-8.59078227222199E-06,4.39453125,0,0
2.39551104641578E-06,-1.28352749015903E-05,4.39453125,0,0
3.32887179865793E-06,-1.11455465230392E-05,4.39453125,0,0
4.69938322567032E-06,-1.5322624676628E-05,4.39453125,0,0
6.65575862512924E-06,-1.81542363861809E-05,4.39453125,0,0
7.90395097283181E-06,-2.40808021771954E-05,4.39453125,0,0
7.60494367568754E-06,-2.42211499426048E-05,4.39453125,0,0
8.56759106682148E-06,-2.28024255193304E-05,4.39453125,0,0
1.1187733434781E-05,-2.0733108613058E-05,4.39453125,0,0
1.300262647419E-05,-1.99122423509834E-05,4.39453125,0,0
1.41462287501781E-05,-1.8775755961542E-05,4.39453125,0,0
1.48447916217265E-05,-1.69526465469971E-05,4.39453125,0,0
1.53409782797098E-05,-1.6731399227865E-05,4.39453125,0,0
1.54640201799339E-05,-1.62462474690983E-05,4.39453125,0,0
1.48863919093856E-05,-1.66566605912521E-05,4.39453125,0,0
1.33758549054619E-05,-1.72767831827514E-05,4.39453125,0,0
1.15471930257627E-05,-1.95603570318781E-05,4.39453125,0,0
1.05856888694689E-05,-1.9128694475512E-05,4.39453125,0,0
9.34377385419793E-06,-1.79624403244816E-05,4.39453125,0,0
6.85533450450748E-06,-1.70230523508508E-05,4.39453125,0,0
4.28833436671994E-06,-1.74287742993329E-05,4.39453125,0,0
3.73478223991697E-06,-1.74126071215142E-05,4.39453125,0,0
4.27064605901251E-06,-1.78632526512956E-05,4.39453125,0,0
2.48520268542052E-06,-1.81699306267546E-05,4.39453125,0,0
-1.88022067959537E-06,-1.99406895262655E-05,4.39453125,0,0
-5.7480278883304E-06,-2.09233367058914E-05,4.39453125,0,0
-6.87759347783867E-06,-2.05583382921759E-05,4.39453125,0,0
-6.6574571064848E-06,-1.5918509234325E-05,4.39453125,0,0
-1.15993289000471E-05,-2.26527445192914E-05,4.39453125,0,0
-1.02687254184275E-05,-1.67381676874356E-05,4.39453125,0,0
-1.0917785402853E-05,-1.92789229913615E-05,4.39453125,0,0
-1.03804477475933E-05,-1.41277087095659E-05,4.39453125,0,0
-1.18097150334506E-05,-1.62566193466773E-05,4.39453125,0,0
-1.2203234291519E-05,-1.46576048791758E-05,4.39453125,0,0
-1.39674384627142E-05,-1.3971656699141E-05,4.39453125,0,0
-1.34486081151408E-05,-1.20574841275811E-05,4.39453125,0,0
-1.06575862446334E-05,-1.19850992632564E-05,4.39453125,0,0
-6.10632878306205E-06,-1.23471691040322E-05,4.39453125,0,0
-1.26252700738405E-06,-1.27024386529229E-05,4.39453125,0,0
2.39666906054481E-06,-1.46694264913094E-05,4.39453125,0,0
5.65742629987653E-06,-1.38844598041032E-05,4.39453125,0,0
7.83149789640447E-06,-1.34232686832547E-05,4.39453125,0,0
1.09849161162856E-05,-1.21911225505755E-05,4.39453125,0,0
1.37094202727894E-05,-1.36367925733794E-05,4.39453125,0,0
1.70033745234832E-05,-1.28515766846249E-05,4.39453125,0,0
1.95017964870203E-05,-1.39323010444059E-05,4.39453125,0,0
2.11138776649022E-05,-1.51492649820284E-05,4.39453125,0,0
2.09503396035871E-05,-1.81482246262021E-05,4.39453125,0,0
2.05570831894875E-05,-1.8996033759322E-05,4.39453125,0,0
1.93530777323758E-05,-1.85256139957346E-05,4.39453125,0,0
1.82498151843902E-05,-1.64264984050533E-05,4.39453125,0,0
1.58903603733052E-05,-1.54845474753529E-05,4.39453125,0,0
1.24158559628995E-05,-1.55475845531328E-05,7.20703125,0,0
9.89636555459583E-06,-1.71128867805237E-05,7.20703125,0,0
7.18341516403598E-06,-1.51275044117938E-05,7.20703125,0,0
9.2358723122743E-06,-2.23853094212245E-05,7.20703125,0,0
3.85540806746576E-06,-1.77226138475817E-05,7.20703125,0,0
3.03251954392181E-06,-2.05612559511792E-05,7.20703125,0,0
-1.19260434416901E-07,-1.66092067956924E-05,7.20703125,0,0
-3.26801483652162E-07,-1.85780190804508E-05,7.20703125,0,0
-2.71664021056495E-06,-1.7901424143929E-05,7.20703125,0,0
-4.04226784667117E-06,-1.95620177692035E-05,7.20703125,0,0
-5.46881710761227E-06,-1.8889530110755E-05,7.20703125,0,0
-5.4495430958923E-06,-1.76158428075723E-05,7.20703125,0,0
-4.24332120019244E-06,-1.69381673913449E-05,7.20703125,0,0
-2.81684674519056E-06,-1.71620504261227E-05,7.20703125,0,0
-1.22696576454473E-06,-1.91794333659345E-05,7.20703125,0,0
-1.02400315427076E-06,-1.94379445019877E-05,7.20703125,0,0
-1.10324663182837E-06,-2.09650133911055E-05,7.20703125,0,0
-2.73097725767002E-06,-2.14237625186797E-05,7.20703125,0,0
-3.24330312651E-06,-2.39678029174684E-05,7.20703125,0,0
-3.82791768060997E-06,-2.36449468502542E-05,7.20703125,0,0
-4.49487379228231E-06,-2.32692091231002E-05,7.20703125,0,0
-6.63902892483748E-06,-2.17010929191019E-05,7.20703125,0,0
-7.63841217121808E-06,-2.10351208806969E-05,7.20703125,0,0
-8.2382639448042E-06,-1.81826144398656E-05,7.20703125,0,0
-7.46819614505512E-06,-1.60272356879432E-05,7.20703125,0,0
-6.32963929092512E-06,-1.47030914376955E-05,7.20703125,0,0
-5.4338720474334E-06,-1.46257189044263E-05,7.20703125,0,0
-5.20450475960388E-06,-1.45072635859833E-05,7.20703125,0,0
-5.81045014769188E-06,-1.5091249224497E-05,7.20703125,0,0
-5.81490439799381E-06,-1.32153500089771E-05,7.20703125,0,0
-8.75494970387081E-06,-1.98143115994753E-05,7.20703125,0,0
-5.7374372772756E-06,-1.60946365213022E-05,7.20703125,0,0
-5.22484469911433E-06,-2.059062171611E-05,7.20703125,0,0
-2.92107870336622E-06,-2.0051369574503E-05,7.20703125,0,0
-2.28836847782077E-06,-2.15997770283138E-05,7.20703125,0,0
-2.22729553911449E-07,-1.91285744222114E-05,7.20703125,0,0
1.76250850358883E-07,-2.00859612959903E-05,7.20703125,0,0
2.04988987206889E-06,-2.07673219847493E-05,7.20703125,0,0
4.09898257203167E-06,-2.16579846892273E-05,7.20703125,0,0
4.67178551843972E-06,-2.19769117393298E-05,7.20703125,0,0
4.49659910373157E-06,-2.09201789402869E-05,7.20703125,0,0
5.04931222167215E-06,-2.13858747883933E-05,7.20703125,0,0
5.71069858779083E-06,-2.14041683648247E-05,7.20703125,0,0
5.99633494857699E-06,-2.14971387322294E-05,7.20703125,0,0
9.21188075153623E-06,-1.91784511116566E-05,7.20703125,0,0
1.25550468510482E-05,-1.82099211087916E-05,7.20703125,0,0
1.44977539093816E-05,-1.66353675012942E-05,7.20703125,0,0
1.33303210532176E-05,-1.72228938026819E-05,7.20703125,0,0
1.24073676488479E-05,-1.74636152223684E-05,7.20703125,0,0
1.32743298308924E-05,-1.88334797712741E-05,7.20703125,0,0
1.50442092490266E-05,-1.87053337867837E-05,7.20703125,0,0
1.34144829644356E-05,-1.82751155080041E-05,7.20703125,0,0
9.6666335593909E-06,-1.6822685211082E-05,7.20703125,0,0
7.01827957527712E-06,-1.5961781173246E-05,7.20703125,0,0
7.94765946920961E-06,-1.76312678377144E-05,7.20703125,0,0
9.64588070928585E-06,-1.9835702914861E-05,7.20703125,0,0
6.35682681604521E-06,-1.56586593220709E-05,7.20703125,0,0
7.29814064470702E-06,-2.04103653231869E-05,7.20703125,0,0
4.59489501736243E-06,-1.2015011634503E-05,7.20703125,0,0
1.01779151009396E-05,-1.53723958646879E-05,7.20703125,0,0
1.27817720567691E-05,-1.32435397972586E-05,7.20703125,0,0
1.46496622619452E-05,-1.61961052072002E-05,7.20703125,0,0
1.15409666250343E-05,-1.40884230859228E-05,7.20703125,0,0
1.04122518678196E-05,-1.31215574583621E-05,7.20703125,0,0
9.03399723028997E-06,-1.08229769466561E-05,7.20703125,0,0
7.51669995224802E-06,-1.12860861918307E-05,7.20703125,0,0
6.04416800342733E-06,-1.29974478113581E-05,7.20703125,0,0
5.50971526536159E-06,-1.3640090401168E-05,7.20703125,0,0
5.48575417269603E-06,-1.49393208630499E-05,7.20703125,0,0
3.6156570786261E-06,-1.45925650940626E-05,7.20703125,0,0
2.06048707696027E-06,-1.5875069948379E-05,7.20703125,0,0
5.57034127268707E-07,-1.56024270836497E-05,7.20703125,0,0
4.00407259348867E-07,-1.67178059200523E-05,7.20703125,0,0
-4.13248102404395E-07,-1.57706272148062E-05,7.20703125,0,0
-1.43456176715517E-07,-1.61566204042174E-05,7.20703125,0,0
-4.27596347662984E-07,-1.50603882502764E-05,7.20703125,0,0
1.21445992817826E-07,-1.63285458256723E-05,7.20703125,0,0
-3.15497260316988E-07,-1.77882593561662E-05,7.20703125,0,0
-1.23945903851563E-06,-1.94542826648103E-05,7.20703125,0,0
-3.16269006361836E-06,-1.88700050784973E-05,7.20703125,0,0
-4.57554142485606E-06,-1.80162642209325E-05,7.20703125,0,0
-5.2128275456198E-06,-1.75294262589887E-05,7.20703125,0,0
-4.61561012343736E-06,-1.8257107512909E-05,7.20703125,0,0
-3.37390770255297E-06,-1.43093720907927E-05,7.20703125,0,0
-3.02531793749949E-06,-2.05695359909441E-05,7.20703125,0,0
1.28946464883484E-06,-1.63853783305967E-05,7.20703125,0,0
2.21442019210372E-06,-1.92272582353326E-05,7.20703125,0,0
4.72438250653795E-06,-1.40613374242093E-05,7.20703125,0,0
6.30088652542327E-06,-1.60097570187645E-05,7.20703125,0,0
9.19141803024104E-06,-1.57394770212704E-05,7.20703125,0,0
1.0731237125583E-05,-1.69251416082261E-05,7.20703125,0,0
1.10872997538536E-05,-1.63193180924281E-05,7.20703125,0,0
1.0629344615154E-05,-1.60268937179353E-05,7.20703125,0,0
1.01000314316479E-05,-1.58673647092655E-05,7.20703125,0,0
1.06107809187961E-05,-1.54019035107922E-05,7.20703125,0,0
1.23216341307852E-05,-1.79645012394758E-05,7.20703125,0,0
1.30656071632984E-05,-2.11699370993301E-05,7.20703125,0,0
1.02716112451162E-05,-2.45798346441006E-05,7.20703125,0,0
7.08869765730924E-06,-2.32558759307722E-05,7.20703125,0,0
5.36806373929721E-06,-2.25199710257584E-05,7.20703125,0,0
6.20425134911784E-06,-2.16044936678372E-05,7.20703125,0,0
5.65059372092946E-06,-2.31416452152189E-05,7.20703125,0,0
1.378718138767E-06,-2.30900150199886E-05,7.20703125,0,0
-4.78459696751088E-06,-2.31034300668398E-05,7.20703125,0,0
-7.47145577406627E-06,-2.16756234294735E-05,7.20703125,0,0
-6.64916933601489E-06,-2.04211792151909E-05,7.20703125,0,0
-4.3929921957897E-06,-1.88165904546622E-05,7.20703125,0,0
-4.15364456785028E-06,-1.83872434718069E-05,7.20703125,0,0
-5.41455892744125E-06,-1.79718772415072E-05,7.20703125,0,0
-4.74228409075295E-06,-1.83629090315662E-05,7.20703125,0,0
-2.86149202111119E-06,-1.56652513396693E-05,7.20703125,0,0
-3.66647986993485E-06,-2.04028310690774E-05,7.20703125,0,0
-2.14817850974214E-06,-1.27824960145517E-05,7.20703125,0,0
-2.10771213460248E-06,-1.60094041348202E-05,7.20703125,0,0
1.17728674808859E-07,-1.21359871627646E-05,7.20703125,0,0
1.93697042050189E-06,-1.47361479321262E-05,7.20703125,0,0
4.16314242102089E-06,-1.44089144669124E-05,7.20703125,0,0
5.90902754993294E-06,-1.5942421669024E-05,7.20703125,0,0
8.5663705249317E-06,-1.40009160531918E-05,7.20703125,0,0
9.80164350039558E-06,-1.29562049551168E-05,7.20703125,0,0
9.32646071305498E-06,-1.35110058181453E-05,7.20703125,0,0
8.30095996207092E-06,-1.3918262993684E-05,7.20703125,0,0
7.08627430867637E-06,-1.61113748617936E-05,7.20703125,0,0
7.02012675901642E-06,-1.63076110766269E-05,7.20703125,0,0
6.85142549627926E-06,-1.72191012097755E-05,7.20703125,0,0
6.72498845233349E-06,-1.61830648721661E-05,7.20703125,0,0
6.42965096631087E-06,-1.74209599208552E-05,7.20703125,0,0
5.17800617672037E-06,-1.63216191140236E-05,7.20703125,0,0
1.38056032028544E-06,-1.61713724082801E-05,7.20703125,0,0
-2.1641378680215E-06,-1.52843404066516E-05,7.20703125,0,0
-5.01961403642781E-06,-1.62458363774931E-05,7.20703125,0,0
-7.07604885974433E-06,-1.62409905897221E-05,7.20703125,0,0
-7.37470190870226E-06,-1.63828826771351E-05,7.20703125,0,0
-5.61103934160201E-06,-1.48682984217885E-05,7.20703125,0,0
-4.96604343425133E-06,-1.36937478600885E-05,7.20703125,0,0
-6.19004367763409E-06,-1.2262102245586E-05,7.20703125,0,0
-6.52317203275743E-06,-1.14586073323153E-05,7.20703125,0,0
-4.0837612687028E-06,-9.42784117796691E-06,7.20703125,0,0
-4.62262687506154E-06,-1.37135421027779E-05,7.20703125,0,0
-4.28291997423003E-07,-1.05288499980816E-05,7.20703125,0,0
1.78605421297107E-06,-1.30729204101954E-05,7.20703125,0,0
4.87991519548814E-06,-1.3114924513502E-05,7.20703125,0,0
