biceps_emg, triceps_emg, subject_position, position_estimate, brace_position
-2.64119876192126E-06,-1.04371292763972E-05,1.0546875,0,0
-3.10659424940241E-06,-8.20100012788316E-06,1.0546875,0,0
-3.87739419238642E-06,-1.07027735793963E-05,1.0546875,0,0
-4.47743423137581E-06,-1.03704069260857E-05,1.0546875,0,0
-3.89890828955686E-06,-1.23454883578233E-05,1.0546875,0,0
-3.86339934266289E-06,-1.5284455002984E-05,1.0546875,0,0
-4.08640789828496E-06,-1.81050327228149E-05,1.0546875,0,0
-2.92964455184119E-06,-1.94398744497448E-05,1.0546875,0,0
-1.46621061958285E-06,-2.09977879421785E-05,1.0546875,0,0
3.4460219922039E-07,-2.56022285611834E-05,1.0546875,0,0
1.63185995916137E-06,-2.87866769212997E-05,1.0546875,0,0
1.13474345653231E-06,-2.82202490780037E-05,1.0546875,0,0
-2.66697355755241E-07,-2.39779619732872E-05,1.0546875,0,0
-7.29823568690335E-07,-2.45485789491795E-05,1.0546875,0,0
-5.16665409122652E-07,-2.57998199231224E-05,1.0546875,0,0
-8.59092722294008E-07,-2.40816352743423E-05,1.0546875,0,0
-1.83281667887059E-06,-1.91682120203041E-05,1.0546875,0,0
-2.01891793949471E-06,-1.66249956237152E-05,1.0546875,0,0
-8.39162794363801E-07,-1.4869227015879E-05,1.0546875,0,0
1.11497035959474E-06,-1.38053346745437E-05,1.0546875,0,0
3.09205825033132E-06,-1.30857342810486E-05,1.0546875,0,0
4.27144323111861E-06,-1.31124306790298E-05,1.0546875,0,0
4.52185850008391E-06,-1.20557879199623E-05,1.0546875,0,0
3.49975948665815E-06,-1.23735608212883E-05,1.0546875,0,0
2.44521424974664E-06,-1.02139947557589E-05,1.0546875,0,0
4.67271456727758E-06,-1.45122257890762E-05,1.0546875,0,0
6.39117024547886E-06,-1.08086214822833E-05,1.0546875,0,0
8.64854882820509E-06,-1.35141763166757E-05,1.0546875,0,0
7.65901586419204E-06,-1.17057488751016E-05,1.0546875,0,0
6.03853095526574E-06,-1.34163483380689E-05,1.0546875,0,0
4.23887058786931E-06,-1.35140071506612E-05,1.0546875,0,0
4.59948978459579E-06,-1.49496027006535E-05,1.0546875,0,0
5.08402854393353E-06,-1.40640822792193E-05,1.0546875,0,0
5.17821172252297E-06,-1.39003695949214E-05,1.0546875,0,0
5.15917508892016E-06,-1.44151545100613E-05,1.0546875,0,0
5.05847310705576E-06,-1.44826080941129E-05,1.0546875,0,0
5.72557655686978E-06,-1.50311034303741E-05,1.0546875,0,0
5.71588816455915E-06,-1.41931250254856E-05,1.0546875,0,0
4.95757467433577E-06,-1.52065340444096E-05,1.0546875,0,0
4.36475829701521E-06,-1.63543591042981E-05,1.0546875,0,0
5.02979401062476E-06,-1.80753595486749E-05,1.0546875,0,0
6.1628588809981E-06,-1.7072221453418E-05,1.0546875,0,0
7.23537323210621E-06,-1.62027008627774E-05,1.0546875,0,0
7.36184165361919E-06,-1.42768258228898E-05,1.0546875,0,0
7.70505721447989E-06,-1.37562028612592E-05,1.0546875,0,0
7.074572295096E-06,-1.34657129819971E-05,1.0546875,0,0
5.99461691308534E-06,-1.36952494358411E-05,1.0546875,0,0
6.19348475083825E-06,-1.348575551674E-05,1.0546875,0,0
6.83752523400472E-06,-1.32254463096615E-05,1.0546875,0,0
6.43814746581484E-06,-1.20654185593594E-05,1.0546875,0,0
4.09731592299067E-06,-1.17772760859225E-05,1.0546875,0,0
1.50310290791822E-06,-1.15792518045055E-05,1.0546875,0,0
2.64965115093219E-06,-1.93347059394E-05,1.0546875,0,0
3.14964131575834E-06,-1.83881129487418E-05,1.0546875,0,0
4.47522370450315E-06,-2.07375287573086E-05,1.0546875,0,0
4.70911299998988E-06,-1.71464580489555E-05,1.0546875,0,0
5.60364833290805E-06,-1.72781092260266E-05,1.0546875,0,0
5.49356445844751E-06,-1.73089792951941E-05,1.0546875,0,0
5.10898735228693E-06,-2.04909756575944E-05,1.0546875,0,0
5.4778101912234E-06,-2.03045310627203E-05,1.0546875,0,0
5.57622388441814E-06,-1.98062607523752E-05,1.0546875,0,0
5.93210961596924E-06,-2.03929266717751E-05,1.0546875,0,0
5.92512196817552E-06,-2.0607632905012E-05,1.0546875,0,0
5.9034668993263E-06,-2.07784014492063E-05,1.0546875,0,0
5.70900829188759E-06,-1.92674124264158E-05,1.0546875,0,0
5.10198015035712E-06,-1.9140914446325E-05,1.0546875,0,0
4.6781615310465E-06,-1.8457809346728E-05,1.0546875,0,0
6.05242530582473E-06,-1.94607328012353E-05,1.0546875,0,0
7.893584552221E-06,-1.98070738406386E-05,1.0546875,0,0
7.91672846389702E-06,-2.17679043998942E-05,1.0546875,0,0
6.65482684780727E-06,-2.27987711696187E-05,1.0546875,0,0
5.7242255024903E-06,-2.39391574723413E-05,1.0546875,0,0
5.33351021658746E-06,-2.29635334108025E-05,1.0546875,0,0
4.43182716480806E-06,-2.01725524675567E-05,1.0546875,0,0
3.1296356155508E-06,-1.62369724421296E-05,1.0546875,0,0
3.36357538799348E-06,-1.37971901494893E-05,1.0546875,0,0
5.93573076912435E-06,-1.29975105664926E-05,1.0546875,0,0
7.76833621785045E-06,-1.52213606270379E-05,1.0546875,0,0
5.57283101443318E-06,-1.51143649418373E-05,1.0546875,0,0
7.68138579587685E-06,-2.22658363782102E-05,1.0546875,0,0
5.90743456996279E-06,-1.90395439858548E-05,1.0546875,0,0
7.1298454713542E-06,-2.37773310800549E-05,1.0546875,0,0
4.41929387307027E-06,-1.94534241018118E-05,1.0546875,0,0
4.70903614768758E-06,-2.00037593458546E-05,1.0546875,0,0
4.16992725149612E-06,-1.74447486642748E-05,1.0546875,0,0
4.56621228295262E-06,-1.94214353541611E-05,1.0546875,0,0
5.38269841854344E-06,-2.17406304727774E-05,1.0546875,0,0
6.25665416009724E-06,-2.40642020798987E-05,1.0546875,0,0
5.12991800860618E-06,-2.53340331255458E-05,1.0546875,0,0
2.33523087445064E-06,-2.44532675424125E-05,1.0546875,0,0
9.07510752767848E-07,-2.40211102209287E-05,1.0546875,0,0
1.13666396828194E-06,-2.19290996028576E-05,1.0546875,0,0
2.21863274418865E-06,-2.14897681871662E-05,1.0546875,0,0
1.07397318060976E-06,-1.79338185262168E-05,1.0546875,0,0
7.82602796789433E-07,-1.42733624670655E-05,1.0546875,0,0
1.18064190246514E-06,-1.00093275250401E-05,1.0546875,0,0
1.88664648703707E-06,-9.06115747056901E-06,1.0546875,0,0
1.7048802192221E-06,-7.94368315837346E-06,1.0546875,0,0
3.0134458484099E-06,-9.64335595199373E-06,1.0546875,0,0
4.31057333116769E-06,-1.24974858408677E-05,1.0546875,0,0
4.57146597909741E-06,-1.64139964908827E-05,1.0546875,0,0
2.54539850175206E-06,-1.74149281519931E-05,1.0546875,0,0
6.52688697755366E-07,-1.67382586369058E-05,1.0546875,0,0
1.02916331456981E-07,-1.58998100232566E-05,1.0546875,0,0
3.56124502332023E-07,-1.54995595949003E-05,1.0546875,0,0
1.41512174423042E-07,-1.10413911897922E-05,1.0546875,0,0
-1.25835867947899E-06,-1.35580676214886E-05,1.0546875,0,0
-3.21230049848964E-06,-7.51231436879607E-06,1.0546875,0,0
-2.50499715548358E-06,-9.78066691459389E-06,1.0546875,0,0
-4.17923246232021E-07,-7.38086509954883E-06,1.0546875,0,0
1.79967543090243E-07,-9.13547410164028E-06,1.0546875,0,0
-7.45729721529642E-07,-7.34949526304263E-06,1.0546875,0,0
-6.99121471825492E-07,-7.09696223566425E-06,1.0546875,0,0
4.92364335968887E-07,-4.66475057692151E-06,1.0546875,0,0
2.22757148549135E-06,-4.14197256759508E-06,1.0546875,0,0
2.97104497803957E-06,-5.43041323908255E-06,1.0546875,0,0
1.52021937083191E-06,-5.95364417677047E-06,1.0546875,0,0
-5.90982324411016E-07,-7.30860847397707E-06,1.0546875,0,0
-1.65961262155179E-06,-8.35060291137779E-06,1.0546875,0,0
-1.10848611711845E-06,-1.20026306831278E-05,1.0546875,0,0
-4.40417591285325E-10,-1.52232623804593E-05,1.0546875,0,0
-2.28995176598801E-07,-1.8951914171339E-05,1.0546875,0,0
-1.25274175388768E-06,-1.82891690201359E-05,1.0546875,0,0
-1.14243391635682E-06,-1.83942047442542E-05,1.0546875,0,0
-1.51249963664668E-07,-2.10312773560872E-05,1.0546875,0,0
4.1406721607018E-07,-2.73013811238343E-05,1.0546875,0,0
7.55906967242481E-07,-2.98438280879054E-05,1.0546875,0,0
2.2379190340871E-06,-2.70128675765591E-05,1.0546875,0,0
3.4984016110684E-06,-2.29917004617164E-05,1.0546875,0,0
3.58578040504653E-06,-2.16346033994341E-05,1.0546875,0,0
2.49817071562575E-06,-2.12323993764585E-05,1.0546875,0,0
1.63416086707002E-06,-2.328500704607E-05,1.0546875,0,0
9.46312582073006E-07,-2.17756060010288E-05,1.0546875,0,0
2.41506927523005E-06,-3.0046754545765E-05,1.0546875,0,0
3.05579487758223E-06,-1.87168498086976E-05,1.0546875,0,0
3.12721499540203E-06,-2.01277071028017E-05,1.0546875,0,0
2.13935504689289E-06,-1.48686494867434E-05,1.0546875,0,0
6.69421069687814E-07,-1.93981759366579E-05,1.0546875,0,0
4.97294251999847E-07,-1.77683723450173E-05,1.0546875,0,0
1.57101953845995E-06,-1.78387235791888E-05,1.0546875,0,0
1.81410791810777E-06,-1.66765639733057E-05,1.0546875,0,0
2.59632633969886E-06,-1.67318758030888E-05,1.0546875,0,0
3.39918824465713E-06,-1.64960110851098E-05,1.0546875,0,0
2.36612527260149E-06,-1.48274530147319E-05,1.0546875,0,0
-1.97907965571176E-07,-1.46026968650403E-05,1.0546875,0,0
-2.41422753788356E-06,-1.2372991477605E-05,1.0546875,0,0
-2.84114253190637E-06,-1.16257251647767E-05,1.0546875,0,0
-1.84252360213577E-06,-9.9513945315266E-06,1.0546875,0,0
-5.8174100558972E-07,-1.32921904878458E-05,1.0546875,0,0
2.26851753382107E-07,-1.57886915985728E-05,1.0546875,0,0
9.92816353573289E-07,-1.97970566659933E-05,1.0546875,0,0
1.23965969578421E-06,-1.96668406715617E-05,1.0546875,0,0
1.89983325071807E-07,-1.98039706447162E-05,1.0546875,0,0
-1.37188362714369E-06,-1.900976349134E-05,1.0546875,0,0
-9.68462700257078E-07,-1.84934669960057E-05,1.0546875,0,0
1.69815359640779E-06,-1.6403580957558E-05,1.0546875,0,0
3.22689515996899E-06,-1.61388379638083E-05,1.0546875,0,0
2.91184460365912E-06,-1.61435436893953E-05,1.0546875,0,0
3.69680765288649E-06,-1.63422209880082E-05,1.0546875,0,0
5.03500632476062E-06,-1.24248190331855E-05,1.0546875,0,0
6.89683156451792E-06,-1.6390964447055E-05,1.0546875,0,0
3.55934753315523E-06,-1.11055378511082E-05,1.0546875,0,0
3.4963627513207E-06,-1.48675508171436E-05,1.0546875,0,0
2.94502274300612E-06,-1.28236133605242E-05,1.0546875,0,0
4.63272181150387E-06,-1.46646452776622E-05,1.0546875,0,0
4.05094579036813E-06,-1.42061444421415E-05,1.0546875,0,0
2.22785820369609E-06,-1.655831511016E-05,1.0546875,0,0
-3.80360660301449E-07,-1.90415830729762E-05,1.0546875,0,0
-1.60592253450886E-06,-2.21819409489399E-05,1.0546875,0,0
-1.15479747364589E-06,-2.29784473049222E-05,1.0546875,0,0
-1.1746391237466E-06,-2.10797752515646E-05,1.0546875,0,0
-5.55582914785191E-07,-2.00765243789647E-05,1.0546875,0,0
8.31042768822954E-07,-1.92954630620079E-05,1.0546875,0,0
2.57606257036969E-06,-2.19623616430908E-05,1.0546875,0,0
2.99403063763748E-06,-2.47034531639656E-05,1.0546875,0,0
2.54409792432853E-06,-2.78863499261206E-05,1.0546875,0,0
9.8937982784264E-07,-2.57276296906639E-05,1.0546875,0,0
8.76774151947757E-07,-2.16311527765356E-05,1.0546875,0,0
1.23635163618019E-06,-1.76338071469218E-05,1.0546875,0,0
2.08647452382138E-06,-1.80229544639587E-05,1.0546875,0,0
2.79106416201103E-06,-1.88942703971406E-05,1.0546875,0,0
3.04731133837777E-06,-2.02649825951084E-05,1.0546875,0,0
2.04927459890314E-06,-2.21260670514312E-05,1.0546875,0,0
2.56472117143858E-06,-2.37672684306744E-05,1.0546875,0,0
5.14963039677241E-06,-2.38004668062786E-05,1.0546875,0,0
7.92274568084395E-06,-2.42760415858356E-05,1.0546875,0,0
6.2466529016092E-06,-1.90517130249646E-05,1.0546875,0,0
5.49824562767753E-06,-2.68394323938992E-05,1.0546875,0,0
-1.35653090183041E-06,-2.13943621929502E-05,1.0546875,0,0
-8.8058322944562E-07,-2.68681942543481E-05,1.0546875,0,0
-1.41594352953689E-06,-1.9679026081576E-05,1.0546875,0,0
2.14383976526733E-06,-1.91303151950706E-05,1.0546875,0,0
4.490124865697E-06,-1.49912921187934E-05,1.0546875,0,0
5.97514372202568E-06,-1.52495858856128E-05,1.0546875,0,0
3.91000048693968E-06,-1.59137543960242E-05,1.0546875,0,0
3.33141406372306E-06,-1.71400170074776E-05,1.0546875,0,0
4.09257199862623E-06,-1.67946582223522E-05,1.0546875,0,0
3.46063211509318E-06,-1.51758140418679E-05,1.0546875,0,0
2.74883609563403E-06,-1.59283299581148E-05,1.0546875,0,0
2.16427247323736E-06,-1.58002749230945E-05,1.0546875,0,0
3.18715456160135E-06,-1.7500989997643E-05,1.0546875,0,0
2.49261347562424E-06,-1.69947052199859E-05,1.0546875,0,0
1.87574653409683E-06,-1.78982900251867E-05,1.0546875,0,0
1.28243641484005E-06,-1.58470484166173E-05,1.0546875,0,0
2.38684197029215E-06,-1.6663952919771E-05,1.0546875,0,0
2.10703456104966E-06,-1.5919405996101E-05,1.0546875,0,0
1.30476826143422E-06,-1.48799745147699E-05,1.0546875,0,0
5.36969189113279E-08,-1.28829015011434E-05,1.0546875,0,0
3.62838989076408E-07,-1.42927583510755E-05,1.0546875,0,0
2.91333390123327E-06,-1.58725888468325E-05,1.0546875,0,0
6.63270293443929E-06,-1.7528958778712E-05,1.0546875,0,0
6.66960022499552E-06,-1.70756138686556E-05,1.0546875,0,0
4.64202275907155E-06,-1.62191045092186E-05,1.0546875,0,0
3.14493286168727E-06,-1.02192516351352E-05,1.0546875,0,0
4.8324450290238E-06,-1.05624776551849E-05,1.0546875,0,0
4.98929966852302E-06,-3.82121743314201E-06,1.0546875,0,0
6.41252154309768E-06,-9.43830582400551E-06,1.0546875,0,0
4.68423968413845E-06,-1.28294614114566E-05,1.0546875,0,0
4.38053120888071E-06,-2.07713928830344E-05,1.0546875,0,0
3.60636772711587E-06,-2.45580213231733E-05,1.0546875,0,0
3.92029596696375E-06,-2.7780357413576E-05,1.0546875,0,0
5.73818306293106E-06,-2.59576045209542E-05,1.0546875,0,0
7.44372846384067E-06,-2.33597656915663E-05,1.0546875,0,0
7.80469417804852E-06,-2.19921312236693E-05,1.0546875,0,0
6.12522171650198E-06,-2.17717952182284E-05,1.0546875,0,0
5.59246109332889E-06,-2.23760707740439E-05,1.0546875,0,0
6.50102674626396E-06,-2.00826252694242E-05,1.0546875,0,0
7.21549895388307E-06,-1.76615540112834E-05,1.0546875,0,0
5.66804646950914E-06,-1.54987774294568E-05,1.0546875,0,0
3.58557076651778E-06,-1.73856442415854E-05,1.0546875,0,0
1.47044181630918E-06,-1.84568343684077E-05,1.0546875,0,0
-1.84296652605553E-07,-2.00283466256224E-05,1.0546875,0,0
-1.63084871473984E-06,-2.02422033908078E-05,1.0546875,0,0
-1.87737191481574E-06,-2.16762728086906E-05,1.0546875,0,0
-7.73425426814356E-07,-2.07547691388754E-05,1.0546875,0,0
1.92046869074147E-07,-1.82832009159029E-05,1.0546875,0,0
-1.76507768401279E-07,-1.50612522702431E-05,1.0546875,0,0
1.03662910078128E-06,-1.44086825457634E-05,1.0546875,0,0
3.29727890857612E-06,-1.36952639877563E-05,1.0546875,0,0
3.25484529639652E-06,-1.12617299237172E-05,1.0546875,0,0
9.46618513353314E-07,-8.58929888636339E-06,1.0546875,0,0
1.10046346435411E-06,-1.24415455502458E-05,1.0546875,0,0
2.15846171158773E-06,-9.81353150564246E-06,1.0546875,0,0
5.93346703681163E-06,-1.21618295452208E-05,1.0546875,0,0
7.22278900866513E-06,-1.05499093479011E-05,1.0546875,0,0
6.9415505095094E-06,-1.29597001432558E-05,1.0546875,0,0
6.9797461037524E-06,-1.3256392776384E-05,1.0546875,0,0
7.28960412743618E-06,-1.21612147268024E-05,1.0546875,0,0
6.49608409730718E-06,-9.68296353676124E-06,1.0546875,0,0
6.10401093581459E-06,-9.46058025874663E-06,1.0546875,0,0
5.99035911363899E-06,-1.13669057100196E-05,1.0546875,0,0
4.68514826934552E-06,-1.25830611068523E-05,1.0546875,0,0
3.18149773192999E-06,-1.37656033984968E-05,1.0546875,0,0
2.63599827121652E-06,-1.31468650579336E-05,1.0546875,0,0
3.66242625204904E-06,-1.21711573228822E-05,1.0546875,0,0
5.10225208927295E-06,-1.09589827843593E-05,1.0546875,0,0
5.45796956430422E-06,-1.21903558465419E-05,1.0546875,0,0
3.87033378501656E-06,-1.22974179248558E-05,1.0546875,0,0
1.34349181735161E-06,-1.2044139111822E-05,1.0546875,0,0
5.91497382629314E-07,-1.26134546007961E-05,1.0546875,0,0
2.19861180994485E-06,-1.56499554577749E-05,1.0546875,0,0
2.82926089312241E-06,-1.80254428414628E-05,1.0546875,0,0
2.52499512498616E-06,-1.84990312845912E-05,1.0546875,0,0
2.65410631072882E-06,-1.62661890499294E-05,1.0546875,0,0
3.58167835656786E-06,-1.51456597450306E-05,1.0546875,0,0
4.14668966186582E-06,-1.51246504174196E-05,1.0546875,0,0
2.74764443020104E-06,-1.55173638631823E-05,1.0546875,0,0
8.14402767446154E-07,-1.29285326693207E-05,1.0546875,0,0
1.82228723133449E-06,-2.01006023416994E-05,1.0546875,0,0
2.84699922303844E-06,-1.67373982549179E-05,1.0546875,0,0
3.6077062759432E-06,-1.77093606907874E-05,1.0546875,0,0
3.30897069034108E-06,-1.40806359922863E-05,1.0546875,0,0
2.41229190578451E-06,-1.81869891093811E-05,1.0546875,0,0
1.46344416407374E-06,-2.09188674489269E-05,1.0546875,0,0
2.72478087026684E-06,-2.63453966908855E-05,1.0546875,0,0
3.97997564505204E-06,-2.75083220913075E-05,1.0546875,0,0
4.27644908995717E-06,-2.60335527855204E-05,1.0546875,0,0
4.54196060672984E-06,-2.30006244237302E-05,1.0546875,0,0
5.03444834976108E-06,-1.82004205271369E-05,1.0546875,0,0
4.83510120830033E-06,-1.65169967658585E-05,1.0546875,0,0
4.13235602536588E-06,-1.68380356626585E-05,1.0546875,0,0
4.35076708527049E-06,-1.92769639397739E-05,1.0546875,0,0
5.03544242747012E-06,-1.88309622899396E-05,1.0546875,0,0
5.25404948348296E-06,-1.864822479547E-05,1.0546875,0,0
4.9537134145794E-06,-1.78591799340211E-05,1.0546875,0,0
4.34305820817826E-06,-2.01718739845091E-05,1.0546875,0,0
3.32527633872814E-06,-2.18630975723499E-05,1.0546875,0,0
2.79314099316252E-06,-2.2176554921316E-05,1.0546875,0,0
3.08108837998589E-06,-1.8705442926148E-05,1.0546875,0,0
4.70950999442721E-06,-1.75124077941291E-05,1.0546875,0,0
6.31878629064886E-06,-2.0438876163098E-05,1.0546875,0,0
5.96176278122584E-06,-2.24894338316517E-05,1.0546875,0,0
4.56719590147259E-06,-2.01454840862425E-05,1.0546875,0,0
4.49756316811545E-06,-1.69807281054091E-05,1.0546875,0,0
3.80874871552805E-06,-1.32097820824129E-05,1.0546875,0,0
5.55336418983643E-06,-1.71874144143658E-05,1.0546875,0,0
3.43130909641332E-06,-9.49227433011401E-06,1.0546875,0,0
3.24441020893573E-06,-1.16218980110716E-05,1.0546875,0,0
3.18325191983604E-06,-1.00544275483117E-05,1.0546875,0,0
5.20701496498077E-06,-1.33687144625583E-05,1.0546875,0,0
5.47197532796417E-06,-1.31894566948176E-05,1.0546875,0,0
4.06659910368035E-06,-1.51498397826799E-05,1.0546875,0,0
1.10881012460595E-06,-1.48226117744343E-05,1.0546875,0,0
-2.05669607566961E-07,-1.43098386615748E-05,1.0546875,0,0
-7.42221061500459E-07,-1.42961789606488E-05,1.0546875,0,0
-9.9055046121066E-07,-1.29971649585059E-05,1.0546875,0,0
-8.2827909864136E-07,-1.23005056593684E-05,1.0546875,0,0
-1.03566185316595E-06,-1.11061754068942E-05,1.0546875,0,0
-2.7497497967488E-07,-1.30945827550022E-05,1.0546875,0,0
9.90962575997401E-07,-1.46389556903159E-05,1.0546875,0,0
3.28782857650367E-06,-1.63159002113389E-05,1.0546875,0,0
4.49073240815778E-06,-1.46276697705616E-05,1.0546875,0,0
4.49959406978451E-06,-1.48023827932775E-05,1.0546875,0,0
3.78211507268134E-06,-1.55773468577536E-05,1.0546875,0,0
4.03323383579846E-06,-1.78985028469469E-05,1.0546875,0,0
4.16920556745026E-06,-1.73386870301329E-05,1.0546875,0,0
3.79563812202832E-06,-1.42098751894082E-05,1.0546875,0,0
2.49736740443041E-06,-1.15929842650075E-05,1.0546875,0,0
2.00267459149472E-06,-1.23460331451497E-05,1.0546875,0,0
3.04060017697338E-06,-1.38476852953318E-05,1.0546875,0,0
4.34116418546182E-06,-1.53098026203224E-05,1.0546875,0,0
1.90551008927287E-06,-1.70426865224727E-05,1.0546875,0,0
7.38786923193402E-07,-2.91590258711949E-05,1.0546875,0,0
-1.30778380480479E-06,-2.39470427914057E-05,1.0546875,0,0
-1.84067502573271E-07,-2.18394834519131E-05,1.0546875,0,0
-1.24246719224175E-06,-1.65808360179653E-05,1.0546875,0,0
-1.82632652467873E-06,-1.84883356268983E-05,1.0546875,0,0
-2.421890030746E-06,-1.77452002390055E-05,1.0546875,0,0
-1.65186509093473E-06,-1.91454437299399E-05,1.0546875,0,0
-5.7567638123146E-07,-1.9778723071795E-05,1.0546875,0,0
1.15211184947839E-06,-2.01551338250283E-05,1.0546875,0,0
1.88360627362272E-06,-1.91205472219735E-05,1.0546875,0,0
1.0576980002952E-06,-1.53530745592434E-05,1.0546875,0,0
9.24185940220923E-07,-1.35252403197228E-05,1.0546875,0,0
2.28767976295785E-06,-1.27723187688389E-05,1.0546875,0,0
3.19019864036818E-06,-1.32761188069708E-05,1.0546875,0,0
1.92732522918959E-06,-1.12596208055038E-05,1.0546875,0,0
1.28182841763191E-06,-1.07864907477051E-05,1.0546875,0,0
1.48504750541179E-06,-9.33728006202728E-06,1.0546875,0,0
1.75744901298458E-06,-1.03244738056674E-05,1.0546875,0,0
1.30363059724914E-06,-1.20164067993755E-05,1.0546875,0,0
1.96128712559585E-06,-1.52668999362504E-05,1.0546875,0,0
2.80447534350969E-06,-1.74076012626756E-05,1.0546875,0,0
4.32419074058998E-06,-2.0743453205796E-05,1.0546875,0,0
5.15290639668819E-06,-2.6005027393694E-05,1.0546875,0,0
4.47774527856382E-06,-3.08002563542686E-05,1.0546875,0,0
3.27431257574062E-06,-3.05745961668435E-05,1.0546875,0,0
2.22513244807487E-06,-2.69251759164035E-05,1.0546875,0,0
1.77122115019301E-06,-1.68610040418571E-05,1.0546875,0,0
2.51360279435175E-06,-2.09958088817075E-05,1.0546875,0,0
2.04666321224067E-06,-1.37454135256121E-05,1.0546875,0,0
1.72147213106655E-06,-1.9279317712062E-05,1.0546875,0,0
-9.83480504146428E-07,-1.5654499293305E-05,1.0546875,0,0
-2.00393537852506E-06,-2.01780148927355E-05,1.0546875,0,0
-1.22913320410589E-06,-1.87405385077E-05,1.0546875,0,0
3.38308808522925E-07,-1.83517968253E-05,1.0546875,0,0
1.2577285133375E-06,-1.6762753148214E-05,1.0546875,0,0
2.04666707759316E-06,-1.7164336895803E-05,1.0546875,0,0
3.09665824715921E-06,-1.58986931637628E-05,1.0546875,0,0
3.16178238790599E-06,-1.31729229906341E-05,1.0546875,0,0
2.5106135126407E-06,-1.29509417092777E-05,1.0546875,0,0
1.82979692908702E-06,-1.24865919133299E-05,1.0546875,0,0
2.2536530650541E-06,-1.42804101415095E-05,1.0546875,0,0
3.30411921822815E-06,-1.2934774531459E-05,1.0546875,0,0
4.28814655606402E-06,-1.29672580442275E-05,1.0546875,0,0
5.13724535267102E-06,-1.08271406134008E-05,1.0546875,0,0
6.65302741253981E-06,-1.17986382974777E-05,1.0546875,0,0
7.54027814764413E-06,-1.27684652397875E-05,1.0546875,0,0
7.5742741501017E-06,-1.58013735926943E-05,1.0546875,0,0
6.63654145682813E-06,-1.61700027092593E-05,1.0546875,0,0
5.03880619362462E-06,-1.70579332916532E-05,1.0546875,0,0
3.2464558898937E-06,-1.71288884303067E-05,1.0546875,0,0
2.60131378126971E-06,-1.9237235392211E-05,1.0546875,0,0
3.64932884622249E-06,-2.43175509240245E-05,1.0546875,0,0
5.36386960447999E-06,-2.87990096694557E-05,1.0546875,0,0
4.4815074033977E-06,-2.38193188124569E-05,1.0546875,0,0
6.79313279761118E-06,-3.40033839165699E-05,1.0546875,0,0
4.41391011918313E-06,-2.63743258983595E-05,1.0546875,0,0
3.6764745345863E-06,-3.19988103001378E-05,1.0546875,0,0
1.60194429099647E-06,-2.4665388991707E-05,1.0546875,0,0
2.4398193545494E-06,-2.40945864788955E-05,1.0546875,0,0
2.77706158158253E-06,-1.73433472809847E-05,1.0546875,0,0
2.36596838476544E-06,-1.63728909683414E-05,1.0546875,0,0
1.37910740249936E-06,-1.48480321513489E-05,1.0546875,0,0
2.08411620405968E-06,-1.5071283087309E-05,1.0546875,0,0
3.46665456163464E-06,-1.56278292706702E-05,1.0546875,0,0
3.7794561649207E-06,-1.5350999092334E-05,1.0546875,0,0
3.80058531845862E-06,-1.6797168427729E-05,1.0546875,0,0
3.9942442526808E-06,-1.57088834384922E-05,1.0546875,0,0
5.93619097344344E-06,-1.70138519024476E-05,1.0546875,0,0
7.06027185515268E-06,-1.67325597431045E-05,1.0546875,0,0
6.41778024146333E-06,-1.89853908523219E-05,1.0546875,0,0
4.64198910776759E-06,-1.84117798198713E-05,1.0546875,0,0
3.65184246220451E-06,-2.20273614104372E-05,1.0546875,0,0
2.63933338828792E-06,-2.45035680563888E-05,1.0546875,0,0
2.8920580916747E-06,-2.57797673839377E-05,1.0546875,0,0
4.07506831834326E-06,-2.17928700294578E-05,1.0546875,0,0
4.58842669104342E-06,-1.98051002371358E-05,1.0546875,0,0
4.17737601310364E-06,-1.73303324118024E-05,1.0546875,0,0
4.38001598013216E-06,-1.50775940710446E-05,1.0546875,0,0
4.43440649178228E-06,-1.3233999197837E-05,1.0546875,0,0
3.40899964612618E-06,-1.39696176120196E-05,1.0546875,0,0
2.189842007283E-06,-1.25623419080512E-05,1.0546875,0,0
3.87401178159053E-06,-1.84242526302114E-05,1.0546875,0,0
4.14853366237367E-06,-1.4305967852124E-05,1.0546875,0,0
4.16170041717123E-06,-1.67414727911819E-05,1.0546875,0,0
2.14173815038521E-06,-1.530032568553E-05,1.0546875,0,0
6.36794652564276E-07,-1.91019207704812E-05,1.0546875,0,0
-4.8635918403761E-08,-2.11254318855936E-05,1.0546875,0,0
1.81769223672745E-07,-2.49071617872687E-05,1.0546875,0,0
-2.71648474381436E-07,-2.51277469942579E-05,1.0546875,0,0
5.12561229015773E-08,-2.37731073866598E-05,1.0546875,0,0
1.94201518866066E-07,-2.08254241442773E-05,1.0546875,0,0
1.07654443581851E-07,-1.58743750944268E-05,1.0546875,0,0
1.16174999220675E-06,-1.09782049548812E-05,1.0546875,0,0
1.87321313660505E-06,-7.73542251408799E-06,1.0546875,0,0
1.19743583582022E-06,-1.05810959212249E-05,1.0546875,0,0
-4.53702256208999E-07,-1.52814809553092E-05,1.0546875,0,0
-8.76190597409732E-07,-2.06112727028085E-05,1.0546875,0,0
-1.11299050331581E-06,-2.05021533474792E-05,1.0546875,0,0
-2.67135646936367E-06,-1.91984890989261E-05,1.0546875,0,0
-4.79533537145471E-06,-1.86247070814716E-05,1.0546875,0,0
-5.07429786011926E-06,-2.10304206120782E-05,1.0546875,0,0
-4.73699310532538E-06,-2.33245955314487E-05,1.0546875,0,0
-4.54872406407958E-06,-2.49882305070059E-05,1.0546875,0,0
-4.89009244120098E-06,-2.24521409109002E-05,1.0546875,0,0
-5.17687976753223E-06,-1.95251177501632E-05,1.0546875,0,0
-5.19911918672733E-06,-1.72310046764323E-05,1.0546875,0,0
-4.91485252496204E-06,-1.62550750246737E-05,1.0546875,0,0
-3.11230473926116E-06,-1.38976574817207E-05,1.0546875,0,0
-2.49680783781514E-06,-1.95951415662421E-05,1.0546875,0,0
5.00695307437127E-07,-1.38533923745854E-05,1.0546875,0,0
-7.25622953723359E-07,-1.63247605087236E-05,1.0546875,0,0
-8.26754160243581E-07,-1.45865433296422E-05,1.0546875,0,0
-2.74593139693025E-06,-1.77282690856373E-05,1.0546875,0,0
-2.7322089408699E-06,-1.6019044778659E-05,1.0546875,0,0
-1.79766709607065E-06,-1.48422868733178E-05,1.0546875,0,0
-3.09581963620076E-07,-1.17972494990681E-05,1.0546875,0,0
8.77778560948173E-08,-1.14280228444841E-05,1.0546875,0,0
1.3539428778131E-07,-1.10473511085729E-05,1.0546875,0,0
2.33599450893962E-07,-9.3006638053339E-06,1.0546875,0,0
-3.01572100624981E-07,-9.76454884948907E-06,1.0546875,0,0
-7.7813308507757E-07,-9.76094361249125E-06,1.0546875,0,0
-1.15324849048193E-06,-9.85115184448659E-06,1.0546875,0,0
-3.68501105185715E-07,-7.13946610630956E-06,1.0546875,0,0
1.34531333628729E-07,-6.7491805566533E-06,1.0546875,0,0
2.67583288859896E-07,-6.63771243125666E-06,1.0546875,0,0
-1.20865581720864E-06,-8.63058903632918E-06,1.0546875,0,0
-2.26146312343189E-06,-8.77323873282876E-06,1.0546875,0,0
-1.72149179888947E-06,-1.03697921076673E-05,1.0546875,0,0
1.23162465115456E-06,-1.07265150290914E-05,1.0546875,0,0
4.02972591473372E-06,-1.15084922072128E-05,1.0546875,0,0
6.29465193924261E-06,-1.38199120556237E-05,1.0546875,0,0
6.90475008013891E-06,-1.68884998856811E-05,1.0546875,0,0
6.58853150525829E-06,-1.69097638718085E-05,1.0546875,0,0
7.11344591763918E-06,-1.70990915648872E-05,1.0546875,0,0
5.69031089980854E-06,-1.48464605445042E-05,1.0546875,0,0
7.23529456081451E-06,-2.31918183999369E-05,1.0546875,0,0
6.85544364387169E-06,-2.2930991690373E-05,1.0546875,0,0
1.15282855404075E-05,-3.31644296238665E-05,1.0546875,0,0
8.50694323162315E-06,-3.53362047462724E-05,1.0546875,0,0
5.35490653419402E-06,-3.45762709912378E-05,1.0546875,0,0
2.39558926296013E-06,-2.40184799622511E-05,1.0546875,0,0
3.85724160878453E-06,-1.64286138897296E-05,1.0546875,0,0
4.96652910442208E-06,-1.19610194815323E-05,1.0546875,0,0
4.13044153901865E-06,-1.27131288536475E-05,1.0546875,0,0
3.406974428799E-06,-1.45581961987773E-05,1.0546875,0,0
4.87552597405738E-06,-1.54267563630128E-05,1.0546875,0,0
8.4117555161356E-06,-1.69223894772585E-05,1.0546875,0,0
1.04477740023867E-05,-1.57916110765655E-05,1.0546875,0,0
1.11336712507182E-05,-1.44811756399577E-05,1.0546875,0,0
9.4795432232786E-06,-1.18758507596795E-05,1.0546875,0,0
7.99336521595251E-06,-1.24620555652655E-05,1.0546875,0,0
5.8792284107767E-06,-1.17851714094286E-05,1.0546875,0,0
5.45543525731773E-06,-1.10705968836555E-05,1.0546875,0,0
4.89788044433226E-06,-7.88202396506676E-06,1.0546875,0,0
4.6319159991981E-06,-8.46051898406586E-06,1.0546875,0,0
4.98969666296034E-06,-1.21813891382772E-05,1.0546875,0,0
6.65382867737208E-06,-1.56810310727451E-05,1.0546875,0,0
7.41124767955625E-06,-1.53450273501221E-05,1.0546875,0,0
7.00704322298407E-06,-1.28501169456285E-05,1.0546875,0,0
5.38009089723346E-06,-1.05032704595942E-05,1.0546875,0,0
4.89750618726248E-06,-1.20780123324948E-05,1.0546875,0,0
4.90795946461731E-06,-1.18776461022208E-05,1.0546875,0,0
7.88041324994992E-06,-1.91698800335871E-05,1.0546875,0,0
6.65217930873041E-06,-1.89570182556054E-05,1.0546875,0,0
6.92259163770359E-06,-2.49061213253299E-05,1.0546875,0,0
5.0790658860933E-06,-2.36089454119792E-05,1.0546875,0,0
4.30138879892183E-06,-2.30531568377046E-05,1.0546875,0,0
2.5042877496162E-06,-1.92045008589048E-05,1.0546875,0,0
2.54102860708372E-06,-1.7514305000077E-05,1.0546875,0,0
2.69265751740022E-06,-1.55557409016183E-05,1.0546875,0,0
3.75173863176315E-06,-1.37374827318126E-05,1.0546875,0,0
4.81869028590154E-06,-1.24312509797164E-05,1.0546875,0,0
4.26161113864509E-06,-1.14577514978009E-05,1.0546875,0,0
3.59781279257732E-06,-1.18328589451266E-05,1.0546875,0,0
2.54285077971872E-06,-1.24386833704193E-05,1.0546875,0,0
2.77755384558986E-06,-1.53103737829952E-05,1.0546875,0,0
3.86602187063545E-06,-1.60985873662867E-05,1.0546875,0,0
5.33656839252217E-06,-1.70034163602395E-05,1.0546875,0,0
4.8332672122342E-06,-1.68855531228473E-05,1.0546875,0,0
4.1654543565528E-06,-1.78218069777358E-05,1.0546875,0,0
4.26622500526719E-06,-1.78576538019115E-05,1.0546875,0,0
5.06439891978516E-06,-1.99019468709594E-05,1.0546875,0,0
5.94049242863548E-06,-2.19394296436803E-05,1.0546875,0,0
7.30218698663521E-06,-2.18611421587411E-05,1.0546875,0,0
6.83867438056041E-06,-1.71901665453333E-05,1.0546875,0,0
5.86199121244135E-06,-1.34584724946762E-05,1.0546875,0,0
5.06985361425905E-06,-1.44877112688846E-05,1.0546875,0,0
4.25078678745194E-06,-1.66135741892504E-05,1.0546875,0,0
2.86490717371635E-06,-1.51093099702848E-05,1.0546875,0,0
4.19052321376512E-06,-2.345554457861E-05,1.0546875,0,0
3.92467063647928E-06,-2.06237691600109E-05,1.0546875,0,0
6.03857097303262E-06,-2.37298918364104E-05,1.0546875,0,0
6.248400950426E-06,-1.97610224859091E-05,1.0546875,0,0
6.13302563579055E-06,-2.07142802537419E-05,1.0546875,0,0
4.37368180428166E-06,-1.79166763700778E-05,1.0546875,0,0
3.11907774630527E-06,-1.97094668692444E-05,1.0546875,0,0
2.95209792966489E-06,-1.99827463802649E-05,1.0546875,0,0
3.20629487760016E-06,-2.01812326849904E-05,1.0546875,0,0
3.20088906846649E-06,-2.18625373236137E-05,1.0546875,0,0
4.28920293416013E-06,-2.32837846851908E-05,1.0546875,0,0
6.83242024024366E-06,-2.36093346757116E-05,1.0546875,0,0
7.1525701059727E-06,-2.20088295463938E-05,1.0546875,0,0
5.19672312293551E-06,-2.226602009614E-05,1.0546875,0,0
4.40977828475297E-06,-2.13007133424981E-05,1.0546875,0,0
5.64732272323454E-06,-2.16093631024705E-05,1.0546875,0,0
5.14340081281262E-06,-1.87712430488318E-05,1.0546875,0,0
3.4227455216751E-06,-1.78287882590666E-05,1.0546875,0,0
2.2857191197545E-06,-1.87931273103459E-05,1.0546875,0,0
1.68025610491895E-06,-2.18373170355335E-05,1.0546875,0,0
5.11115047174826E-07,-1.98181860469049E-05,1.0546875,0,0
5.24076313013211E-07,-1.5990228348528E-05,1.0546875,0,0
1.74892363702384E-06,-1.26237991935341E-05,1.0546875,0,0
3.4832676192309E-06,-1.09464972410933E-05,1.0546875,0,0
4.46445665147621E-06,-1.11060780909611E-05,1.0546875,0,0
4.13426005252404E-06,-1.40032998388051E-05,1.0546875,0,0
2.04097887035459E-06,-1.29544123410597E-05,1.0546875,0,0
2.64222398982383E-06,-1.7177877452923E-05,1.0546875,0,0
1.06775496533373E-06,-1.19379210445913E-05,1.0546875,0,0
5.98034887389076E-07,-1.69594604813028E-05,1.0546875,0,0
6.42615532342461E-07,-1.52372394950362E-05,1.0546875,0,0
2.32979846259695E-06,-1.52902375702979E-05,1.0546875,0,0
1.80511074177048E-06,-1.2377465282043E-05,1.0546875,0,0
4.63141930140409E-07,-1.34909387270454E-05,1.0546875,0,0
2.55996923215207E-07,-1.33638095576316E-05,1.0546875,0,0
1.37531503696664E-06,-1.34177598738461E-05,1.0546875,0,0
1.68745805240178E-06,-1.44295845529996E-05,1.0546875,0,0
1.75616889919183E-07,-1.39959811349399E-05,1.0546875,0,0
-2.29692864195385E-06,-1.41036207423895E-05,1.0546875,0,0
-3.23112431033223E-06,-1.35248983497149E-05,1.0546875,0,0
-1.43622207815497E-06,-1.46243146446068E-05,1.0546875,0,0
3.08833676854192E-07,-1.36705875775078E-05,1.0546875,0,0
2.41809743783961E-07,-1.36244671011809E-05,1.0546875,0,0
-1.74945091657719E-06,-1.34698830152047E-05,1.0546875,0,0
-2.76575065072393E-06,-1.86520301213022E-05,1.0546875,0,0
-1.58496868607472E-06,-2.52564241236541E-05,1.0546875,0,0
7.16593604010995E-07,-3.01272430078825E-05,1.0546875,0,0
1.61791001573874E-06,-2.92615877697244E-05,1.0546875,0,0
9.34878357838898E-07,-2.69024549197638E-05,1.0546875,0,0
-4.60171833083223E-07,-2.4239590857178E-05,1.0546875,0,0
-5.21839581324457E-07,-2.14830561162671E-05,1.0546875,0,0
1.08395954612206E-06,-1.96963774214964E-05,1.0546875,0,0
1.69467784871813E-06,-2.0157458493486E-05,1.0546875,0,0
4.18164745497052E-07,-1.53757227963069E-05,1.0546875,0,0
1.76360984482926E-07,-2.08261080842931E-05,1.0546875,0,0
2.58917481232857E-07,-1.48738354255329E-05,1.0546875,0,0
1.02256490208674E-06,-1.89395104825962E-05,1.0546875,0,0
1.52892596361198E-06,-1.54980116349179E-05,1.0546875,0,0
2.97168026008876E-06,-1.84368600457674E-05,1.0546875,0,0
3.40003680321388E-06,-1.91213548532687E-05,1.0546875,0,0
2.60524075201829E-06,-2.36037558352109E-05,1.0546875,0,0
1.86301451776671E-06,-2.4233244403149E-05,1.0546875,0,0
1.57785700594104E-06,-2.2164889742271E-05,1.0546875,0,0
8.31602051221125E-07,-1.85737990250345E-05,1.0546875,0,0
-1.09516122392961E-06,-1.63881595653947E-05,1.0546875,0,0
-2.56549810728757E-06,-1.72485433722613E-05,1.0546875,0,0
-2.16196212932118E-06,-1.63063104992034E-05,1.0546875,0,0
-3.86608064673055E-07,-1.72403670148924E-05,1.0546875,0,0
6.66051846565097E-07,-1.7472673789598E-05,1.0546875,0,0
3.95228624938682E-07,-1.92527750186855E-05,1.0546875,0,0
2.27198725610833E-07,-1.73536791407969E-05,1.0546875,0,0
1.35652794597263E-06,-1.6534713722649E-05,1.0546875,0,0
2.8888914584968E-06,-1.54420085891616E-05,1.0546875,0,0
3.49888796336018E-06,-1.68576170835877E-05,1.0546875,0,0
3.03553338198981E-06,-1.71874435181962E-05,1.0546875,0,0
2.11367705560406E-06,-1.57391077664215E-05,1.0546875,0,0
2.24275368054805E-07,-1.28861738630803E-05,1.0546875,0,0
-9.03769659998943E-07,-1.32471814140445E-05,1.0546875,0,0
1.18481551680816E-07,-1.31643482745858E-05,1.0546875,0,0
1.99304827219748E-06,-1.12128518594545E-05,1.0546875,0,0
1.21697655686148E-06,-9.02627471077722E-06,1.0546875,0,0
9.62544959293155E-07,-1.470353527111E-05,1.0546875,0,0
-1.09435643480538E-06,-1.213154882862E-05,1.0546875,0,0
-2.33563901019807E-06,-1.30844709929079E-05,1.0546875,0,0
-2.38039092437248E-06,-1.26417762658093E-05,1.0546875,0,0
-1.71262666270877E-08,-1.43263514473801E-05,1.0546875,0,0
1.25035626297176E-06,-1.28788933579926E-05,1.0546875,0,0
2.05349851967185E-06,-1.22356441352167E-05,1.0546875,0,0
2.17200499719183E-06,-1.12094403448282E-05,1.0546875,0,0
2.17469118979352E-06,-1.15724506031256E-05,1.0546875,0,0
2.5470740183664E-06,-1.41450682349387E-05,1.0546875,0,0
3.32506033373647E-06,-1.5738231013529E-05,1.0546875,0,0
4.50611105407006E-06,-1.65751935128355E-05,1.0546875,0,0
5.4444394663733E-06,-1.63927525136387E-05,1.0546875,0,0
5.05713433085475E-06,-1.52942520799115E-05,1.0546875,0,0
2.97790347758564E-06,-1.27719804368098E-05,1.0546875,0,0
2.02614955924219E-06,-1.25859687614138E-05,1.0546875,0,0
3.324435056129E-06,-1.32322356876102E-05,1.0546875,0,0
5.94276207266375E-06,-1.53321689140284E-05,1.0546875,0,0
7.24389610695653E-06,-1.59054234245559E-05,1.0546875,0,0
6.98885105521185E-06,-1.50497908180114E-05,1.0546875,0,0
6.40844791632844E-06,-1.31449769469327E-05,1.0546875,0,0
6.72975966153899E-06,-1.25813730846858E-05,1.0546875,0,0
7.71831855672644E-06,-1.29681557154981E-05,1.0546875,0,0
7.6964961408521E-06,-1.31972356030019E-05,1.0546875,0,0
6.02843601882341E-06,-1.33385592562263E-05,1.0546875,0,0
5.59670206712326E-06,-1.55639045260614E-05,1.0546875,0,0
4.75561500934418E-06,-1.50999503603089E-05,1.0546875,0,0
6.78289779898478E-06,-2.26753018068848E-05,1.0546875,0,0
5.27874362887815E-06,-1.88377725862665E-05,1.0546875,0,0
7.71709983382607E-06,-2.17737469938584E-05,1.0546875,0,0
8.91491708898684E-06,-1.72545351233566E-05,1.0546875,0,0
1.07626074168365E-05,-1.94292369997129E-05,1.0546875,0,0
9.49306195252575E-06,-1.81717678060522E-05,1.0546875,0,0
8.46151306177489E-06,-1.97285407921299E-05,1.0546875,0,0
7.72263047110755E-06,-2.12006943911547E-05,1.0546875,0,0
7.54020129534183E-06,-2.25246712943772E-05,1.0546875,0,0
6.81468463881174E-06,-2.26290303544374E-05,1.0546875,0,0
5.95051051277551E-06,-2.20661822822876E-05,1.0546875,0,0
5.91166144658928E-06,-2.18966579268454E-05,1.0546875,0,0
5.36879861101625E-06,-2.05499254661845E-05,1.0546875,0,0
5.34062655788148E-06,-2.19722605834249E-05,1.0546875,0,0
5.18816796102328E-06,-2.16972384805558E-05,1.0546875,0,0
5.43516171092051E-06,-2.22087091970025E-05,1.0546875,0,0
4.58644490208826E-06,-1.90583432413405E-05,1.0546875,0,0
4.76828290629783E-06,-1.56036330736242E-05,1.0546875,0,0
5.48574098502286E-06,-1.25957785712671E-05,1.0546875,0,0
4.95347330797813E-06,-1.42400958793587E-05,1.0546875,0,0
2.73629211733351E-06,-1.61983607540606E-05,1.0546875,0,0
1.99826877178566E-06,-1.90248483704636E-05,1.0546875,0,0
1.65298718002305E-06,-2.21779355342733E-05,1.0546875,0,0
2.41559723690443E-06,-2.60073047684273E-05,1.0546875,0,0
3.24993857248046E-06,-2.79067808151012E-05,1.0546875,0,0
3.42994758284476E-06,-2.79489850072423E-05,1.0546875,0,0
1.76743674273894E-06,-2.02711362362606E-05,1.0546875,0,0
1.33615480990557E-06,-2.47719854087336E-05,1.0546875,0,0
6.78125289255149E-08,-1.21215653052786E-05,1.0546875,0,0
1.82759106337471E-06,-1.4082597772358E-05,1.0546875,0,0
3.24272855323215E-06,-7.22946333553409E-06,1.0546875,0,0
5.10068275616504E-06,-1.06039487945964E-05,1.0546875,0,0
4.88170371681917E-06,-9.63220463745529E-06,1.0546875,0,0
4.39929044659948E-06,-1.26438835650333E-05,1.0546875,0,0
3.48998241861409E-06,-1.27545508803451E-05,1.0546875,0,0
4.07881498176721E-06,-1.19573705887888E-05,1.0546875,0,0
6.00355815549847E-06,-1.23867939691991E-05,1.0546875,0,0
6.91048944645445E-06,-1.25947253764025E-05,1.0546875,0,0
6.73408248985652E-06,-1.49231600516941E-05,1.0546875,0,0
5.64550055059954E-06,-1.61776843015105E-05,1.0546875,0,0
4.79029540656484E-06,-1.88576741493307E-05,1.0546875,0,0
3.71146825273172E-06,-1.74851957126521E-05,1.0546875,0,0
2.95528275273682E-06,-1.81998784682946E-05,1.0546875,0,0
2.25060352931905E-06,-1.70867933775298E-05,1.0546875,0,0
1.8995876871486E-06,-1.85659573617158E-05,1.0546875,0,0
1.81050609171507E-06,-1.95617467397824E-05,1.0546875,0,0
2.71501676252228E-06,-2.38926513702609E-05,1.0546875,0,0
3.25660971611796E-06,-2.68775311269565E-05,1.0546875,0,0
2.54534234045423E-06,-2.64401369349798E-05,1.0546875,0,0
1.57609645157208E-06,-2.05547257792205E-05,1.0546875,0,0
2.20223159885791E-06,-1.57631966430927E-05,1.0546875,0,0
3.34019568981603E-06,-1.31521310322569E-05,1.0546875,0,0
4.55490908279899E-06,-1.23970821732655E-05,1.0546875,0,0
4.49111803391133E-06,-8.35185164760333E-06,1.0546875,0,0
5.33467300556367E-06,-1.17600939120166E-05,1.0546875,0,0
1.69532540894579E-06,-1.10626879177289E-05,1.0546875,0,0
8.27584926810232E-07,-1.68514143297216E-05,1.0546875,0,0
-1.27823977891239E-06,-1.77170277311234E-05,1.0546875,0,0
-3.90468848365799E-08,-1.95532775251195E-05,1.0546875,0,0
8.48500121719553E-07,-1.78355658135843E-05,1.0546875,0,0
2.27119789997232E-06,-1.63072218128946E-05,1.0546875,0,0
2.12164695767569E-06,-1.42469016282121E-05,1.0546875,0,0
1.41073587656138E-06,-1.34753709062352E-05,1.0546875,0,0
8.2050996752514E-07,-1.254683775187E-05,1.0546875,0,0
1.31773035150218E-07,-1.17584158942918E-05,1.0546875,0,0
1.05983303910762E-06,-1.34873298520688E-05,1.0546875,0,0
1.92031734513876E-06,-1.61952393682441E-05,1.0546875,0,0
1.76085359271383E-06,-1.83401716640219E-05,1.0546875,0,0
2.95535357963672E-07,-1.69442009791965E-05,1.0546875,0,0
7.1242089916268E-07,-1.6193052942981E-05,1.0546875,0,0
1.65448807365465E-06,-1.51950980580295E-05,1.0546875,0,0
2.59458693108172E-06,-1.61216848937329E-05,1.0546875,0,0
1.88370802334248E-06,-1.63953955052421E-05,1.0546875,0,0
2.48621145892969E-09,-1.53563178173499E-05,1.0546875,0,0
-1.79477751771628E-06,-1.26027271107887E-05,1.0546875,0,0
-1.19241440188489E-06,-1.15453340185923E-05,1.0546875,0,0
7.46842943044612E-07,-1.31613260236918E-05,1.0546875,0,0
2.13409066418535E-06,-1.78289956238586E-05,1.0546875,0,0
1.58287434715021E-06,-2.10007456189487E-05,1.0546875,0,0
9.91964839158754E-07,-2.27334094233811E-05,1.0546875,0,0
1.37686379275692E-06,-1.99935711862054E-05,1.0546875,0,0
2.050756393146E-06,-2.74127978627803E-05,1.0546875,0,0
1.68173369274882E-06,-1.53292257891735E-05,1.0546875,0,0
3.18484353556414E-06,-1.47476912388811E-05,1.0546875,0,0
4.0885297494242E-06,-1.05654680737644E-05,1.0546875,0,0
3.62021091859788E-06,-1.69718150573317E-05,1.0546875,0,0
3.51942389897886E-06,-1.81546092790086E-05,1.0546875,0,0
3.95174993172986E-06,-2.08248384296894E-05,1.0546875,0,0
2.57068063547194E-06,-2.10572798096109E-05,1.0546875,0,0
6.60460159451759E-07,-2.31919002544601E-05,1.0546875,0,0
1.16524006443797E-06,-2.5753435693332E-05,1.0546875,0,0
2.5821382223512E-06,-2.63084602920571E-05,1.0546875,0,0
2.29743682211847E-06,-2.83987246803008E-05,1.0546875,0,0
2.35090439559826E-07,-2.85225105471909E-05,1.0546875,0,0
-7.02382862982631E-07,-2.78685765806586E-05,1.0546875,0,0
1.59252564913004E-07,-2.31455978791928E-05,1.0546875,0,0
1.16170110686653E-06,-2.14184528886108E-05,1.0546875,0,0
8.83214454461267E-07,-1.81018658622634E-05,1.0546875,0,0
2.19200856577118E-07,-1.7054975614883E-05,1.0546875,0,0
2.89382256823956E-07,-1.62921223818557E-05,1.0546875,0,0
8.82537051438703E-07,-1.86528995982371E-05,1.0546875,0,0
1.01487069059658E-06,-1.91392409760738E-05,1.0546875,0,0
3.57401233941346E-07,-1.87107943929732E-05,1.0546875,0,0
-7.99739865442461E-08,-1.66857098520268E-05,1.0546875,0,0
7.30667295556486E-07,-1.6288760889438E-05,1.0546875,0,0
2.43529325416603E-06,-1.57122449309099E-05,1.0546875,0,0
4.07030483984272E-06,-1.578409501235E-05,1.0546875,0,0
5.30989382241387E-06,-1.29536729218671E-05,1.0546875,0,0
7.28129361959873E-06,-1.83650154212955E-05,1.0546875,0,0
3.60371177521301E-06,-1.58009916049195E-05,1.0546875,0,0
3.11954454446095E-06,-2.10359958146E-05,1.0546875,0,0
2.39639075516607E-06,-1.92771531146718E-05,1.0546875,0,0
3.94036487705307E-06,-2.1425954400911E-05,1.0546875,0,0
3.90240620617988E-06,-1.66606587299611E-05,1.0546875,0,0
4.10664006267325E-06,-1.38377263283473E-05,1.0546875,0,0
3.99212012780481E-06,-1.40352194648585E-05,1.0546875,0,0
4.93959169034497E-06,-1.71668034454342E-05,1.0546875,0,0
5.71323926124023E-06,-1.88360336323967E-05,1.0546875,0,0
5.35240906174295E-06,-1.77762849489227E-05,1.0546875,0,0
5.17586022397154E-06,-1.75582372321514E-05,1.0546875,0,0
4.09268295697984E-06,-1.67273901752196E-05,1.0546875,0,0
2.99149019156175E-06,-1.78648788278224E-05,1.0546875,0,0
1.95011693904235E-06,-1.68543574545765E-05,1.0546875,0,0
2.85467899630021E-06,-1.62113719852641E-05,1.0546875,0,0
3.61669754056493E-06,-1.44002051456482E-05,1.0546875,0,0
3.3255091693718E-06,-1.49944116856204E-05,1.0546875,0,0
1.79714174919354E-06,-1.42461976793129E-05,1.0546875,0,0
2.74508397524187E-06,-1.35050122480607E-05,1.0546875,0,0
4.78461515740491E-06,-1.24656899060938E-05,1.0546875,0,0
4.93219658892485E-06,-1.32187651615823E-05,1.0546875,0,0
2.97467408927332E-06,-1.20655031423667E-05,1.0546875,0,0
1.99496503228147E-06,-1.02308940768125E-05,1.0546875,0,0
2.54390988629893E-06,-8.10194796940777E-06,1.0546875,0,0
3.23279391523101E-06,-7.68476820667274E-06,1.0546875,0,0
3.14767271447636E-06,-6.82825748299365E-06,1.0546875,0,0
5.35475464857882E-06,-8.07618562248535E-06,1.0546875,0,0
6.01030933466973E-06,-3.46056390299054E-06,1.0546875,0,0
7.99144436314236E-06,-4.42240207121358E-06,1.0546875,0,0
6.76818626743625E-06,-5.83952578381286E-06,1.0546875,0,0
4.42467080574716E-06,-1.28958736240747E-05,1.0546875,0,0
2.25821418098349E-06,-1.87104360520607E-05,1.0546875,0,0
1.98232396542153E-06,-2.37077274505282E-05,1.0546875,0,0
1.80981248831813E-06,-2.35495645029005E-05,1.0546875,0,0
1.84609700681904E-06,-2.17261385841994E-05,1.0546875,0,0
1.44485147757223E-06,-2.13079292734619E-05,1.0546875,0,0
7.74463160269079E-07,-2.15455456782365E-05,1.0546875,0,0
1.27862313092919E-06,-2.21141326619545E-05,1.0546875,0,0
1.97710687643848E-06,-2.36907435464673E-05,1.0546875,0,0
2.62650155491428E-06,-2.71708995569497E-05,1.0546875,0,0
2.45759792960598E-06,-2.8959924748051E-05,1.0546875,0,0
1.63195682034711E-06,-3.07707996398676E-05,1.0546875,0,0
5.72878434468294E-07,-3.03475189866731E-05,1.0546875,0,0
1.57945703449514E-06,-2.86132453766186E-05,1.0546875,0,0
3.71678197552683E-06,-2.46607050939929E-05,1.0546875,0,0
5.02033844895777E-06,-2.20104011532385E-05,1.0546875,0,0
4.27343138653669E-06,-2.10021153179696E-05,1.0546875,0,0
4.13113957620226E-06,-2.09232257475378E-05,1.0546875,0,0
3.96803989133332E-06,-2.06445147341583E-05,1.0546875,0,0
1.90657522125548E-06,-1.99198384507326E-05,1.0546875,0,0
-3.70004471506036E-07,-1.63393524417188E-05,1.0546875,0,0
-6.18049227796291E-07,-1.39703806780744E-05,1.0546875,0,0
-2.66415412397691E-07,-1.13021351353382E-05,1.0546875,0,0
-5.24083588970825E-07,-1.64543471328216E-05,1.0546875,0,0
-6.07250115081115E-07,-1.24364360090112E-05,1.0546875,0,0
3.83122483071929E-07,-1.37829038067139E-05,1.0546875,0,0
1.85225076165807E-06,-9.94901529338676E-06,1.0546875,0,0
1.75496097654104E-06,-1.07617288449546E-05,1.0546875,0,0
1.88556748526025E-06,-9.43786199059105E-06,1.0546875,0,0
2.15005252357514E-06,-1.01680661828141E-05,1.0546875,0,0
1.19860885661183E-06,-9.60939996730303E-06,1.0546875,0,0
-2.86823052420004E-07,-9.79497053776868E-06,1.0546875,0,0
-1.58372159830833E-07,-1.04044838735717E-05,1.0546875,0,0
1.76257037765026E-06,-1.0591684258543E-05,1.0546875,0,0
3.545990693965E-06,-1.24345961012295E-05,1.0546875,0,0
4.06545086661936E-06,-1.30990683828713E-05,1.0546875,0,0
3.32613217324251E-06,-1.34462634377996E-05,1.0546875,0,0
2.92445110972039E-06,-1.13499836515984E-05,1.0546875,0,0
4.34051662523416E-06,-9.92575223790482E-06,1.0546875,0,0
6.44514466330293E-06,-7.59455906518269E-06,1.0546875,0,0
6.66385676595382E-06,-7.21801734471228E-06,1.0546875,0,0
4.87429497297853E-06,-7.14966699888464E-06,1.0546875,0,0
3.27095426655433E-06,-8.50887863634853E-06,1.0546875,0,0
3.39303051077877E-06,-7.94423613115214E-06,1.0546875,0,0
3.82405551135889E-06,-8.18507123767631E-06,1.0546875,0,0
3.58064085048682E-06,-8.18582793726819E-06,1.0546875,0,0
2.62403864326188E-06,-7.6583273767028E-06,1.0546875,0,0
2.13150678973761E-06,-8.18575881567085E-06,1.0546875,0,0
2.37059839491849E-06,-9.42862243391573E-06,1.0546875,0,0
2.72304350801278E-06,-9.54343067860464E-06,1.0546875,0,0
5.05317666465999E-06,-1.47147338793729E-05,1.0546875,0,0
5.93417598793167E-06,-1.30704720504582E-05,1.0546875,0,0
5.81111407882418E-06,-1.73919925146038E-05,1.0546875,0,0
2.38457255363755E-06,-1.78009195224149E-05,1.0546875,0,0
9.66242510003212E-07,-1.94248041225364E-05,1.0546875,0,0
1.57098781983223E-06,-1.68153947015526E-05,1.0546875,0,0
2.84621046375833E-06,-1.42942508318811E-05,1.0546875,0,0
2.47261118602182E-06,-1.27711982713663E-05,1.0546875,0,0
2.00299655261915E-06,-1.47806103996118E-05,1.0546875,0,0
2.10036819225934E-06,-1.94770800590049E-05,1.0546875,0,0
2.67642963081016E-06,-2.55598079093033E-05,1.0546875,0,0
3.04275317830616E-06,-3.11231815430801E-05,1.0546875,0,0
3.69771873920399E-06,-3.12088450300507E-05,1.0546875,0,0
5.37789310328662E-06,-2.86856102320598E-05,1.0546875,0,0
6.79376626067096E-06,-2.64525751845213E-05,1.0546875,0,0
7.40794848752557E-06,-2.79187406704295E-05,1.0546875,0,0
5.87490376346977E-06,-2.80640160781331E-05,1.0546875,0,0
3.52920687873848E-06,-2.6450496079633E-05,1.0546875,0,0
2.28647309086227E-06,-2.29808629228501E-05,1.0546875,0,0
3.17489252665837E-06,-2.08951150852954E-05,1.0546875,0,0
3.4016004519799E-06,-1.93735668290174E-05,1.0546875,0,0
2.35829065786675E-06,-2.02369774342515E-05,1.0546875,0,0
2.43298956092985E-07,-2.21667160076322E-05,1.0546875,0,0
-3.9731844481139E-07,-2.5062852728297E-05,1.0546875,0,0
-4.36500414480179E-07,-2.68915737251518E-05,1.0546875,0,0
-5.62365698897338E-07,-2.56246166827623E-05,1.0546875,0,0
1.44885419217644E-07,-1.91754097613739E-05,1.0546875,0,0
-2.10978839731979E-07,-2.69124320766423E-05,1.0546875,0,0
-2.87695911538322E-07,-1.90636783372611E-05,1.0546875,0,0
6.40220946479531E-07,-2.27862710744375E-05,1.0546875,0,0
2.29101897275541E-06,-1.87075238500256E-05,1.0546875,0,0
3.67261736755609E-06,-2.2500460545416E-05,1.0546875,0,0
3.83536598747014E-06,-2.11431051866384E-05,1.0546875,0,0
3.67008897228516E-06,-2.14975461858558E-05,1.0546875,0,0
3.98353677155683E-06,-1.88893009180902E-05,1.0546875,0,0
5.87233807891607E-06,-1.7377136828145E-05,1.0546875,0,0
8.15163730294444E-06,-1.72663676494267E-05,1.0546875,0,0
9.05259457795182E-06,-1.7175425455207E-05,1.0546875,0,0
8.47297542350134E-06,-1.79539056262001E-05,1.0546875,0,0
6.28386987955309E-06,-1.58134062075987E-05,1.0546875,0,0
3.57040948983922E-06,-1.58535076479893E-05,1.0546875,0,0
2.05743799597258E-06,-1.54850149556296E-05,1.0546875,0,0
2.75574825536751E-06,-1.87114692380419E-05,1.0546875,0,0
5.08913672092604E-06,-1.99985697690863E-05,1.0546875,0,0
6.58939461573027E-06,-2.35401839745464E-05,1.0546875,0,0
5.31668638359406E-06,-2.47619373112684E-05,1.0546875,0,0
2.95971904051839E-06,-2.43177219090285E-05,1.0546875,0,0
1.12204179458786E-06,-1.94364693015814E-05,1.0546875,0,0
-1.8001214741048E-08,-1.51171498146141E-05,1.0546875,0,0
-7.92740380006762E-08,-1.27775492728688E-05,1.0546875,0,0
5.04433558035089E-07,-1.3899272744311E-05,1.0546875,0,0
1.45622732361517E-06,-1.44114383147098E-05,1.0546875,0,0
1.99948772205971E-06,-1.17386189231183E-05,1.0546875,0,0
1.09815618998255E-06,-6.7107598624716E-06,1.0546875,0,0
1.53921052969963E-06,-9.44393832469359E-06,1.0546875,0,0
2.20092806557659E-06,-8.27569874672918E-06,1.0546875,0,0
3.94110884371912E-06,-1.29002073663287E-05,1.0546875,0,0
3.61320940100995E-06,-1.21588009278639E-05,1.0546875,0,0
2.62489970737079E-06,-1.14833701445605E-05,1.0546875,0,0
1.44663260925881E-06,-1.33015346364118E-05,1.0546875,0,0
1.06319203041494E-06,-1.89532111107837E-05,1.0546875,0,0
9.21495256989147E-07,-2.21817590499995E-05,1.0546875,0,0
1.72592820035788E-07,-2.16560329135973E-05,1.0546875,0,0
-1.29171803564532E-06,-1.95642660401063E-05,1.0546875,0,0
-2.15098884837062E-06,-1.86329089046922E-05,1.0546875,0,0
-1.58453326548624E-06,-2.0769128241227E-05,1.0546875,0,0
-1.57561453306698E-06,-2.27577093028231E-05,1.0546875,0,0
-2.02637602342293E-06,-2.4222796128015E-05,1.0546875,0,0
-2.1051055227872E-06,-2.35302013606997E-05,1.0546875,0,0
-1.42939404668141E-06,-2.20750353037147E-05,1.0546875,0,0
-6.52489461572259E-07,-1.91337676369585E-05,1.0546875,0,0
3.07427612256106E-08,-1.65300898515852E-05,1.0546875,0,0
1.3614503586723E-06,-1.32935110741528E-05,1.0546875,0,0
3.60500916940509E-06,-1.14318854684825E-05,1.0546875,0,0
4.51204005003092E-06,-1.09832208181615E-05,1.0546875,0,0
4.0685754356673E-06,-1.15906022983836E-05,1.0546875,0,0
2.57481588050723E-06,-1.17554491225746E-05,1.0546875,0,0
2.09655036087497E-06,-1.05810840977938E-05,1.0546875,0,0
3.16022692459228E-06,-8.84352357388707E-06,1.0546875,0,0
2.91728429147042E-06,-8.17499403638067E-06,1.0546875,0,0
9.43414249832131E-07,-6.94339314577519E-06,1.0546875,0,0
1.23450365663302E-06,-1.11854178612703E-05,1.0546875,0,0
1.71469912402245E-06,-1.01879331850796E-05,1.0546875,0,0
3.68377482118376E-06,-1.1509214346006E-05,1.0546875,0,0
3.12610154651338E-06,-1.01711702882312E-05,1.0546875,0,0
2.55326153819624E-06,-1.03998645499814E-05,1.0546875,0,0
3.61808088200632E-06,-6.70255622026161E-06,1.0546875,0,0
5.09669098391896E-06,-4.49903609478497E-06,1.0546875,0,0
5.46046476301854E-06,-3.60435365109879E-06,1.0546875,0,0
5.25230734638171E-06,-4.71856446893071E-06,1.0546875,0,0
5.05177513332455E-06,-5.12069664182491E-06,1.0546875,0,0
4.35272750110016E-06,-4.05979199058493E-06,1.0546875,0,0
3.49484639627917E-06,-5.98591623202083E-06,1.0546875,0,0
3.14779276777699E-06,-1.13950109152938E-05,1.0546875,0,0
3.76217599296069E-06,-1.776424687705E-05,1.0546875,0,0
4.39002769780927E-06,-2.07482098630862E-05,1.0546875,0,0
4.22185576098855E-06,-2.18052409763914E-05,1.0546875,0,0
3.351671693963E-06,-2.01697130250977E-05,1.0546875,0,0
3.14475187224161E-06,-2.03715244424529E-05,1.0546875,0,0
3.60853232450609E-06,-2.36866253544576E-05,1.0546875,0,0
2.47014145315916E-06,-2.93760294880485E-05,1.0546875,0,0
-1.00066586128378E-06,-3.3130869269371E-05,1.0546875,0,0
-3.16421119350707E-06,-3.33087482431438E-05,1.0546875,0,0
-2.32630782193155E-06,-2.89885974780191E-05,1.0546875,0,0
-8.41453129396541E-07,-2.34914168686373E-05,1.0546875,0,0
-1.006331800113E-07,-2.07590364880161E-05,1.0546875,0,0
-5.16036834596889E-07,-2.11355709325289E-05,1.0546875,0,0
-9.46111128996563E-07,-1.78211503225612E-05,1.0546875,0,0
-1.88809781320742E-06,-2.6679364964366E-05,1.0546875,0,0
-7.75708429046063E-07,-2.17226515815128E-05,1.0546875,0,0
1.07429775653145E-06,-2.58284653682495E-05,1.0546875,0,0
2.10660891752923E-06,-2.25813037104672E-05,1.0546875,0,0
1.92289348888153E-06,-2.55113754974445E-05,1.0546875,0,0
3.4392664929328E-06,-2.33429127547424E-05,1.0546875,0,0
5.05948355566943E-06,-2.44343664235203E-05,1.0546875,0,0
4.33888590123388E-06,-2.32546462939354E-05,1.0546875,0,0
3.50037885255006E-06,-2.11763581319246E-05,1.0546875,0,0
3.42296357302985E-06,-1.86353408935247E-05,1.0546875,0,0
3.80035453417804E-06,-1.72094587469473E-05,1.0546875,0,0
3.8475022847706E-06,-1.90394075616496E-05,1.0546875,0,0
3.65224059351021E-06,-1.94588301383192E-05,1.0546875,0,0
3.56327382178279E-06,-2.02649698621826E-05,1.0546875,0,0
4.44183251602226E-06,-1.80884817382321E-05,1.0546875,0,0
6.3949328250601E-06,-1.75566055986565E-05,1.0546875,0,0
8.62168417370413E-06,-1.49572797454312E-05,1.0546875,0,0
9.75653802015586E-06,-1.47181726788403E-05,1.0546875,0,0
8.91536365088541E-06,-1.30833723233081E-05,1.0546875,0,0
7.26917505744495E-06,-1.24135749501875E-05,1.0546875,0,0
6.72436999593629E-06,-1.02083240562933E-05,1.0546875,0,0
6.97395216775476E-06,-1.0357539395045E-05,1.0546875,0,0
5.49711739949998E-06,-1.07457908598008E-05,1.0546875,0,0
3.66697349818423E-06,-1.03928086900851E-05,1.0546875,0,0
3.80077904083009E-06,-1.04681093944237E-05,1.0546875,0,0
5.09918754687533E-06,-1.28577012219466E-05,1.0546875,0,0
4.62004072687705E-06,-1.13109954327228E-05,1.0546875,0,0
6.85139593770145E-06,-1.36828130052891E-05,1.0546875,0,0
5.51432367501548E-06,-7.55317205403117E-06,1.0546875,0,0
6.85967097524554E-06,-1.22208866741857E-05,1.0546875,0,0
5.6523563216615E-06,-1.25893566291779E-05,1.0546875,0,0
5.20147932547843E-06,-1.58765196829336E-05,1.0546875,0,0
4.38549341197358E-06,-1.56297683133744E-05,1.0546875,0,0
6.18743888480822E-06,-1.67656271514716E-05,1.0546875,0,0
7.30987130737049E-06,-1.66080008057179E-05,1.0546875,0,0
6.9629704739782E-06,-1.80515453394037E-05,1.0546875,0,0
6.58464114167145E-06,-1.88996273209341E-05,1.0546875,0,0
6.718093118252E-06,-1.68109709193232E-05,1.0546875,0,0
6.77032949170098E-06,-1.4984547306085E-05,1.0546875,0,0
5.53035351913422E-06,-1.34153306134976E-05,1.0546875,0,0
4.87102533952566E-06,-1.51854465002543E-05,1.0546875,0,0
4.40680787505698E-06,-1.692284240562E-05,1.0546875,0,0
4.98657163916505E-06,-1.92317893379368E-05,1.0546875,0,0
5.68019868296687E-06,-1.83029314939631E-05,1.0546875,0,0
6.62669981466024E-06,-1.88009489647811E-05,1.0546875,0,0
6.75786895953934E-06,-1.93460546142887E-05,1.0546875,0,0
7.60954617362586E-06,-2.08710771403275E-05,1.0546875,0,0
7.05631737218937E-06,-2.07600533030927E-05,1.0546875,0,0
5.1649385568453E-06,-1.97884746739874E-05,1.0546875,0,0
3.50638197232911E-06,-1.80323750100797E-05,1.0546875,0,0
2.09350400837138E-06,-1.84469263331266E-05,1.0546875,0,0
2.05567198463541E-06,-2.07187949854415E-05,1.0546875,0,0
3.61331785825314E-06,-2.17628239624901E-05,1.0546875,0,0
3.68496807823249E-06,-1.70160146808485E-05,1.0546875,0,0
3.89908109355019E-06,-2.4455077436869E-05,1.0546875,0,0
3.14009753310529E-07,-2.03335912374314E-05,1.0546875,0,0
1.97761679032737E-07,-2.69713564193808E-05,1.0546875,0,0
-1.5751314776935E-06,-2.52139561780496E-05,1.0546875,0,0
-2.15433874473092E-06,-2.9147991881473E-05,1.0546875,0,0
-2.94100686915044E-06,-2.73655696219066E-05,1.0546875,0,0
-3.82011739930022E-06,-2.6887044441537E-05,1.0546875,0,0
-4.13314501201967E-06,-2.37145577557385E-05,1.0546875,0,0
-2.64087589130213E-06,-2.16127045860048E-05,1.0546875,0,0
-8.15549299204577E-07,-2.10199905268382E-05,1.0546875,0,0
-1.04159539660031E-06,-2.05542946787318E-05,1.0546875,0,0
-2.39353721553925E-06,-2.07313769351458E-05,1.0546875,0,0
-3.05402136291377E-06,-1.83442771231057E-05,1.0546875,0,0
-2.21086452256714E-06,-1.92137977137463E-05,1.0546875,0,0
-1.36234996261919E-06,-1.92331990547245E-05,1.0546875,0,0
1.14744324264393E-07,-1.94591302715708E-05,1.0546875,0,0
1.13092505671375E-06,-1.61464140546741E-05,1.0546875,0,0
1.79985784143355E-06,-1.59319533850066E-05,1.0546875,0,0
2.3634206627321E-06,-1.63161294040037E-05,1.0546875,0,0
3.59738533006748E-06,-1.85945555131184E-05,1.0546875,0,0
3.64443326361652E-06,-1.90998271136777E-05,1.0546875,0,0
2.71232875093119E-06,-1.88327521755127E-05,1.0546875,0,0
1.00799093161186E-06,-1.61939169629477E-05,1.0546875,0,0
3.18894528561486E-08,-1.44729920066311E-05,1.0546875,0,0
1.01881036940199E-09,-1.35291193146259E-05,1.0546875,0,0
2.8945439112249E-07,-1.16764003905701E-05,1.0546875,0,0
1.10110920559237E-06,-7.51765310269548E-06,1.0546875,0,0
1.79821745405206E-06,-1.03520969787496E-05,1.0546875,0,0
1.70167118085374E-06,-1.00344705060706E-05,1.0546875,0,0
2.67215227722772E-06,-1.37752040245687E-05,1.0546875,0,0
2.66346160060493E-06,-1.09774164229748E-05,1.0546875,0,0
2.44342800215236E-06,-1.23302115753177E-05,1.0546875,0,0
3.85778184863739E-06,-1.19543665277888E-05,1.0546875,0,0
5.84092049393803E-06,-1.09532920760103E-05,1.0546875,0,0
6.02505406277487E-06,-8.01804890215863E-06,1.0546875,0,0
3.61870502274542E-06,-7.86063901614398E-06,1.0546875,0,0
1.44815328440018E-06,-1.06914130810765E-05,1.0546875,0,0
9.99510007204663E-07,-1.20483073260402E-05,1.0546875,0,0
2.17038814298576E-06,-1.37296419779886E-05,1.0546875,0,0
3.56061786987993E-06,-1.50691985254525E-05,1.0546875,0,0
3.53736913893954E-06,-1.70336115843384E-05,1.0546875,0,0
3.33747243530524E-06,-1.74898941622814E-05,1.0546875,0,0
4.37822791354847E-06,-1.76302764884895E-05,1.0546875,0,0
5.38479071110487E-06,-1.64606753969565E-05,1.0546875,0,0
4.8140796025109E-06,-1.81616087502334E-05,1.0546875,0,0
3.18938577947847E-06,-2.03576310013887E-05,1.0546875,0,0
1.86503450549935E-06,-2.1480116629391E-05,1.0546875,0,0
1.7744254137142E-06,-1.98703146452317E-05,1.0546875,0,0
3.53982818523946E-06,-1.74735268956283E-05,1.0546875,0,0
6.74250850352109E-06,-1.48741319208057E-05,1.0546875,0,0
1.02587400760967E-05,-1.36356375151081E-05,1.0546875,0,0
1.06995685200673E-05,-1.60496019816492E-05,1.0546875,0,0
8.53912206366658E-06,-2.06182176043512E-05,1.0546875,0,0
5.69949406781234E-06,-1.67235284607159E-05,1.0546875,0,0
7.22581307854853E-06,-2.13271941902349E-05,1.0546875,0,0
4.33402556154761E-06,-1.4111517884885E-05,1.0546875,0,0
6.16776014794596E-06,-1.99202841031365E-05,1.0546875,0,0
5.26859457750106E-06,-1.66271984198829E-05,1.0546875,0,0
6.37600487607415E-06,-2.01072289200965E-05,1.0546875,0,0
6.01109059061855E-06,-2.00200265680905E-05,1.0546875,0,0
6.23728010396007E-06,-2.13972271012608E-05,1.0546875,0,0
5.19651530339615E-06,-1.87396180990618E-05,1.0546875,0,0
3.56172813553712E-06,-1.71570081874961E-05,1.0546875,0,0
1.22272433600301E-06,-1.74921879079193E-05,1.0546875,0,0
-5.23283290476684E-07,-1.78356422111392E-05,1.0546875,0,0
-3.99083262436761E-07,-1.88404392247321E-05,1.0546875,0,0
9.96878668502177E-08,-1.93058585864492E-05,1.0546875,0,0
1.52316374624206E-06,-2.2437463485403E-05,1.0546875,0,0
2.04684283744427E-06,-2.29624656640226E-05,1.0546875,0,0
3.25665064337954E-06,-2.42934675043216E-05,1.0546875,0,0
4.35282754551736E-06,-2.14030951610766E-05,1.0546875,0,0
4.45515934188734E-06,-1.88604208233301E-05,1.0546875,0,0
2.4983517050714E-06,-1.48292829180718E-05,1.0546875,0,0
2.92836330118007E-06,-1.35481313918717E-05,1.0546875,0,0
4.28362955062767E-06,-1.23904756037518E-05,1.0546875,0,0
4.89478543386213E-06,-1.22712890515686E-05,1.0546875,0,0
3.36419611812744E-06,-1.05809385786415E-05,1.0546875,0,0
1.37240556341567E-06,-1.07251726149116E-05,1.0546875,0,0
9.21131004361087E-07,-1.2396620149957E-05,1.0546875,0,0
1.80714516773151E-06,-1.34519832499791E-05,1.0546875,0,0
2.05955097953847E-06,-1.01005889519001E-05,1.0546875,0,0
2.75292882179201E-06,-1.33739404191147E-05,1.0546875,0,0
1.40744771215395E-06,-1.01093946796027E-05,1.0546875,0,0
1.39933536047465E-06,-1.30237449411652E-05,1.0546875,0,0
1.15204244366396E-07,-1.04216214822372E-05,1.0546875,0,0
-1.10552616661153E-06,-1.24732323456556E-05,1.0546875,0,0
-1.14952831609116E-06,-1.12735879156389E-05,1.0546875,0,0
2.57604256148625E-07,-1.13845517262234E-05,1.0546875,0,0
1.4706513411511E-06,-1.1008604815288E-05,1.0546875,0,0
2.20202377931855E-06,-1.23172367239022E-05,1.0546875,0,0
2.73704608844128E-06,-1.44093237395282E-05,1.0546875,0,0
3.29697127199324E-06,-1.5861227439018E-05,1.0546875,0,0
3.91856292480952E-06,-1.82486310222885E-05,1.0546875,0,0
3.59314049092063E-06,-1.87930199899711E-05,1.0546875,0,0
3.21618949783442E-06,-1.90975661098491E-05,1.0546875,0,0
2.99748853649362E-06,-1.79182588908589E-05,1.0546875,0,0
3.48305525221804E-06,-1.96052878891351E-05,1.0546875,0,0
3.4102920380974E-06,-2.02158771571703E-05,1.0546875,0,0
2.92914614874462E-06,-1.99198166228598E-05,1.0546875,0,0
2.63100514530379E-06,-1.79088110598968E-05,1.0546875,0,0
2.10955886359443E-06,-1.72416330315173E-05,1.0546875,0,0
1.31479669107648E-06,-1.68746628332883E-05,1.0546875,0,0
1.23687482300738E-06,-1.77964502654504E-05,1.0546875,0,0
1.54673887209356E-06,-1.73854223248782E-05,1.0546875,0,0
2.15079239751503E-06,-1.80760071089026E-05,1.0546875,0,0
2.55457075581944E-06,-2.06260756385745E-05,1.0546875,0,0
2.92890172204352E-06,-2.43589129240718E-05,1.0546875,0,0
2.85836017610563E-06,-2.27193886530586E-05,1.0546875,0,0
4.32793012805632E-06,-3.22009327646811E-05,1.0546875,0,0
3.98378369936836E-06,-2.26546890189638E-05,1.0546875,0,0
4.0604968489788E-06,-2.52069476118777E-05,1.0546875,0,0
1.89316199339373E-06,-1.77895326487487E-05,1.0546875,0,0
2.44890361500438E-06,-2.07592092920095E-05,1.0546875,0,0
3.11602866531757E-06,-2.11884234886384E-05,1.0546875,0,0
4.00799535782426E-06,-2.62500525423093E-05,1.0546875,0,0
4.20508922616136E-06,-2.69243173534051E-05,1.0546875,0,0
4.25176358476165E-06,-2.44234142883215E-05,1.0546875,0,0
4.68394273411832E-06,-2.13571311178384E-05,1.0546875,0,0
4.80593462270917E-06,-1.92557363334345E-05,1.0546875,0,0
4.48458558821585E-06,-2.01023995032301E-05,1.0546875,0,0
3.14423596137203E-06,-2.0468616639846E-05,1.0546875,0,0
2.11882888834225E-06,-2.35936804529047E-05,1.0546875,0,0
1.86271438451513E-06,-2.25458697968861E-05,1.0546875,0,0
2.99007319881639E-06,-2.12126124097267E-05,1.0546875,0,0
3.1007555207907E-06,-1.59002465807134E-05,1.0546875,0,0
1.89256434168783E-06,-1.32784980451106E-05,1.0546875,0,0
-1.87635819770549E-07,-1.05144263216062E-05,1.0546875,0,0
-1.08603819626296E-06,-1.15327557068667E-05,1.0546875,0,0
4.03023420858517E-07,-1.23283134598751E-05,1.0546875,0,0
3.54605140273634E-06,-1.51880294652074E-05,1.0546875,0,0
5.00092755828518E-06,-1.60451963893138E-05,1.0546875,0,0
4.85175405628979E-06,-1.46505317388801E-05,1.0546875,0,0
4.40038593296777E-06,-1.12763300421648E-05,1.0546875,0,0
4.03070544052753E-06,-9.82748133537825E-06,1.0546875,0,0
3.1309734822571E-06,-9.0317043941468E-06,1.0546875,0,0
4.31990429206053E-06,-1.57514004968107E-05,1.0546875,0,0
3.32726176566212E-06,-1.56862242874922E-05,1.0546875,0,0
3.5330010632606E-06,-1.82705025508767E-05,1.0546875,0,0
2.32449633585929E-06,-1.82478015631204E-05,1.0546875,0,0
4.19503021475975E-06,-1.9841643734253E-05,1.0546875,0,0
4.71067824037164E-06,-1.71343945112312E-05,1.0546875,0,0
3.46939873452357E-06,-1.51348940562457E-05,1.0546875,0,0
7.55424252929515E-07,-1.42026983667165E-05,1.0546875,0,0
-7.76279591718776E-07,-1.38811110446113E-05,1.0546875,0,0
-6.8134193043079E-07,-1.24540492834058E-05,1.0546875,0,0
-8.92862317414256E-08,-1.05032204373856E-05,1.0546875,0,0
2.21630898522562E-07,-1.01033165265108E-05,1.0546875,0,0
-7.91400054822589E-07,-9.46407362789614E-06,1.0546875,0,0
-5.3837015911995E-07,-9.9065591712133E-06,1.0546875,0,0
2.72974659765168E-07,-9.87301154964371E-06,1.0546875,0,0
6.60632622384583E-07,-1.07556134025799E-05,1.0546875,0,0
2.05203491532302E-07,-1.08688300315407E-05,1.0546875,0,0
8.30999454137782E-07,-1.16901846922701E-05,1.0546875,0,0
7.2207717494166E-07,-1.2366324881441E-05,1.0546875,0,0
6.60301679999975E-07,-1.4736962839379E-05,1.0546875,0,0
1.66436257131863E-06,-1.60203453560825E-05,1.0546875,0,0
2.50521929956449E-06,-1.55937777890358E-05,1.0546875,0,0
1.9553394849936E-06,-1.50397918332601E-05,1.0546875,0,0
3.46557811781167E-07,-1.45124586197198E-05,1.0546875,0,0
-6.72667283652117E-07,-1.44983305290225E-05,1.0546875,0,0
3.60654183850784E-07,-1.61550597113092E-05,1.0546875,0,0
1.64687639880867E-06,-1.45655521919252E-05,1.0546875,0,0
2.17643037103699E-06,-2.24177856580354E-05,1.0546875,0,0
7.53431947941863E-08,-2.02853552764282E-05,1.0546875,0,0
-2.53330631494464E-06,-2.4731874873396E-05,1.0546875,0,0
-5.17133912580903E-06,-2.17931246879743E-05,1.0546875,0,0
-4.75001752420212E-06,-2.36756623053225E-05,1.0546875,0,0
-2.3427255655406E-06,-1.9991455701529E-05,1.0546875,0,0
2.01416909817453E-07,-1.84206946869381E-05,1.0546875,0,0
7.77582272348809E-07,-1.70300572790438E-05,1.0546875,0,0
-6.73347074098274E-07,-1.77347519638715E-05,1.0546875,0,0
-2.02583350983332E-06,-1.74661636265228E-05,1.0546875,0,0
-2.71614430857881E-06,-1.37514807647676E-05,1.0546875,0,0
-2.21289474211517E-06,-1.13258220153512E-05,1.0546875,0,0
-1.19032529255492E-06,-1.01167152024573E-05,1.0546875,0,0
-9.09719517494523E-07,-1.17930185297155E-05,1.0546875,0,0
-1.83756685601111E-06,-1.25409796964959E-05,1.0546875,0,0
-2.12377722164092E-06,-1.57815666170791E-05,1.0546875,0,0
-1.20161814720632E-06,-1.65666715474799E-05,1.0546875,0,0
-7.53329231883981E-07,-1.74366905412171E-05,1.0546875,0,0
-1.07138725979894E-06,-1.69946270034416E-05,1.0546875,0,0
-1.39677376864711E-06,-1.71399551618379E-05,1.0546875,0,0
-1.17489264539472E-06,-1.62652613653336E-05,1.0546875,0,0
1.07516677871899E-06,-1.74265987880062E-05,1.0546875,0,0
3.62289597433119E-06,-1.770331437001E-05,1.0546875,0,0
4.68219059257535E-06,-1.68376809597248E-05,1.0546875,0,0
4.48102082373225E-06,-1.64347002282739E-05,1.0546875,0,0
5.30624765815446E-06,-1.82136209332384E-05,1.0546875,0,0
6.25744678472984E-06,-1.64822631631978E-05,1.0546875,0,0
9.56350322667276E-06,-2.48534142883727E-05,1.0546875,0,0
7.73554711486213E-06,-1.98274337890325E-05,1.0546875,0,0
9.4392244136543E-06,-2.2693166101817E-05,1.0546875,0,0
8.11120207799831E-06,-1.70381208590698E-05,1.0546875,0,0
8.31321813166142E-06,-1.65760375239188E-05,1.0546875,0,0
9.39029814617243E-06,-1.42794451676309E-05,1.0546875,0,0
1.33110524984659E-05,-1.6207188309636E-05,1.0546875,0,0
1.67811776918825E-05,-1.7197084162035E-05,1.0546875,0,0
1.78283771674614E-05,-1.79849466803717E-05,1.0546875,0,0
1.55237976287026E-05,-1.89659949683119E-05,1.0546875,0,0
1.30162425193703E-05,-1.83326756086899E-05,1.0546875,0,0
1.3049170775048E-05,-1.88041212823009E-05,1.0546875,0,0
1.38385557875154E-05,-1.81700143002672E-05,1.0546875,0,0
1.36917451527552E-05,-1.80141196324257E-05,1.0546875,0,0
1.09127258838271E-05,-1.57508911797777E-05,1.0546875,0,0
8.26622363092611E-06,-1.69705690495903E-05,1.0546875,0,0
6.97840641805669E-06,-1.86977049452253E-05,1.0546875,0,0
7.95125106378691E-06,-2.10112211789237E-05,1.0546875,0,0
7.8149951150408E-06,-1.85711705853464E-05,1.0546875,0,0
7.01430735716713E-06,-1.54616936924867E-05,1.0546875,0,0
5.99743316342938E-06,-1.43733859658823E-05,1.0546875,0,0
6.8669896791107E-06,-1.59848568728194E-05,1.0546875,0,0
7.15181477062288E-06,-1.54585504787974E-05,1.0546875,0,0
6.40730513623566E-06,-1.45007006722153E-05,1.0546875,0,0
4.35162019130075E-06,-1.3727984878642E-05,1.0546875,0,0
1.97716667571513E-06,-1.47956698128837E-05,1.0546875,0,0
1.23672941754194E-06,-1.48549852383439E-05,1.0546875,0,0
2.38743723457446E-06,-2.10756206797669E-05,1.0546875,0,0
1.28108399621851E-06,-1.66019308380783E-05,1.0546875,0,0
-1.67006919582491E-06,-2.22020698856795E-05,1.0546875,0,0
-2.92338472718257E-06,-2.03483668883564E-05,1.0546875,0,0
-9.21292212296976E-07,-2.20338079088833E-05,1.0546875,0,0
8.85864665178815E-07,-2.03953477466712E-05,1.0546875,0,0
1.19049605018517E-06,-2.02937626454514E-05,1.0546875,0,0
-8.91717149897886E-07,-1.70668336068047E-05,1.0546875,0,0
-2.54936253440974E-06,-1.46243864946882E-05,1.0546875,0,0
-1.60566185058997E-06,-1.43815304909367E-05,1.0546875,0,0
4.81508095617755E-07,-1.40797928906977E-05,1.0546875,0,0
1.38608845645649E-06,-1.43799015859258E-05,1.0546875,0,0
8.60534612456831E-07,-1.38765090014203E-05,1.0546875,0,0
6.09944322604861E-07,-1.54582521645352E-05,1.0546875,0,0
8.09784751254483E-07,-1.46933562064078E-05,1.0546875,0,0
9.18869375254872E-07,-1.4673093573947E-05,1.0546875,0,0
6.08618677233608E-07,-1.24542757475865E-05,1.0546875,0,0
1.47348202972353E-06,-1.17789850264671E-05,1.0546875,0,0
2.26730071517522E-06,-1.10362179839285E-05,1.0546875,0,0
1.54400561314105E-06,-1.32447303258232E-05,1.0546875,0,0
5.88281920954614E-07,-1.53624678205233E-05,1.0546875,0,0
9.58440409704053E-07,-1.78786722244695E-05,1.0546875,0,0
2.03809804588673E-06,-1.91113394976128E-05,1.0546875,0,0
3.15884904011909E-06,-1.93732939806068E-05,1.0546875,0,0
5.05115940541145E-06,-1.85126682481496E-05,1.0546875,0,0
7.11023267285782E-06,-1.66075733432081E-05,1.0546875,0,0
5.29653516423423E-06,-1.32307259264053E-05,1.0546875,0,0
5.71936561755138E-06,-1.95341071957955E-05,1.0546875,0,0
1.42172098094306E-06,-1.48454555528588E-05,1.0546875,0,0
1.52974280354101E-06,-1.79799626494059E-05,1.0546875,0,0
-1.04761909369699E-06,-1.71530555235222E-05,1.0546875,0,0
1.44076423680417E-07,-2.05605319933966E-05,1.0546875,0,0
6.93316849265102E-07,-2.1403286154964E-05,1.0546875,0,0
1.69089696555602E-06,-2.3032140234136E-05,1.0546875,0,0
2.04705770556757E-06,-2.22938724618871E-05,1.0546875,0,0
2.22927337745205E-06,-2.29587567446288E-05,1.0546875,0,0
2.18494301407191E-06,-2.31497469940223E-05,1.0546875,0,0
4.96302277497307E-07,-2.23016631935025E-05,1.0546875,0,0
-1.91772733160178E-06,-2.28281624004012E-05,1.0546875,0,0
-3.76000571122859E-06,-2.16943117266055E-05,1.0546875,0,0
-2.19937669498904E-06,-2.18835357372882E-05,1.0546875,0,0
8.60697184634773E-07,-2.03620311367558E-05,1.0546875,0,0
4.34135290561244E-06,-1.98642483155709E-05,1.0546875,0,0
4.79039590572938E-06,-1.90563787327847E-05,1.0546875,0,0
4.08509049520944E-06,-2.04438601940637E-05,1.0546875,0,0
3.28728583554039E-06,-2.09861536859535E-05,1.0546875,0,0
3.67928328159906E-06,-2.27960554184392E-05,1.0546875,0,0
2.40986605604121E-06,-2.23358456423739E-05,1.0546875,0,0
-1.03842921816977E-06,-1.96873952518217E-05,1.0546875,0,0
-4.35878064308781E-06,-1.61780317284865E-05,1.0546875,0,0
-4.22509219788481E-06,-1.47340278999764E-05,1.0546875,0,0
6.5216731570672E-08,-1.61692332767416E-05,1.0546875,0,0
3.52768142874993E-06,-1.9916144083254E-05,1.0546875,0,0
1.36890093926922E-06,-1.59173123392975E-05,1.0546875,0,0
1.00926126833656E-06,-2.16038897633553E-05,1.0546875,0,0
-7.43573991712765E-07,-1.5839163097553E-05,1.0546875,0,0
1.94183471080578E-07,-2.06087370315799E-05,1.0546875,0,0
1.16231001356937E-06,-1.62009255291196E-05,1.0546875,0,0
1.94361041394586E-06,-1.72232921613613E-05,1.0546875,0,0
2.62685216512182E-06,-1.49365478137042E-05,1.0546875,0,0
3.20700587508327E-06,-1.57228460011538E-05,1.0546875,0,0
3.43296551363892E-06,-1.47141363413539E-05,1.0546875,0,0
4.10485245083692E-06,-1.48397002703859E-05,1.0546875,0,0
4.79502432426671E-06,-1.5811563571333E-05,1.0546875,0,0
5.69662051930209E-06,-1.65007422765484E-05,1.0546875,0,0
6.68599568598438E-06,-1.78088866960024E-05,1.0546875,0,0
7.11934035280137E-06,-1.63508702826221E-05,1.0546875,0,0
7.15109808879788E-06,-1.55605157488026E-05,1.0546875,0,0
7.29565681467648E-06,-1.45476533361943E-05,1.0546875,0,0
8.25304778118152E-06,-1.74260712810792E-05,1.0546875,0,0
9.58638611336937E-06,-1.88685553439427E-05,1.0546875,0,0
9.92670084087877E-06,-2.10351427085698E-05,1.0546875,0,0
9.10075868887361E-06,-1.93394407688174E-05,1.0546875,0,0
8.8171182142105E-06,-1.77339479705552E-05,1.0546875,0,0
8.83479970070766E-06,-1.63328768394422E-05,1.0546875,0,0
8.92001025931677E-06,-1.77756410266738E-05,1.0546875,0,0
8.67022572492715E-06,-1.85204335139133E-05,1.0546875,0,0
8.41921064420603E-06,-1.85645803867374E-05,1.0546875,0,0
8.08442928246222E-06,-1.72028467204655E-05,1.0546875,0,0
8.32797377370298E-06,-1.53864984895336E-05,1.0546875,0,0
6.52100607112516E-06,-1.21324746942264E-05,1.0546875,0,0
9.04031367099378E-06,-1.66799891303526E-05,1.0546875,0,0
6.5564781834837E-06,-1.16215787784313E-05,1.0546875,0,0
6.02997715759557E-06,-1.5561658074148E-05,1.0546875,0,0
9.76007640929311E-07,-1.44663772516651E-05,1.0546875,0,0
9.63386582952808E-07,-1.58381972141797E-05,1.0546875,0,0
1.32313732592593E-06,-1.3810368727718E-05,1.0546875,0,0
2.73739442491205E-06,-1.48427725434885E-05,1.0546875,0,0
1.24179462090979E-06,-1.59984974743566E-05,1.0546875,0,0
-7.7759619898643E-07,-1.66498048201902E-05,1.0546875,0,0
-1.76788500994007E-06,-1.63446547958301E-05,1.0546875,0,0
-2.98105442197993E-06,-1.50253226820496E-05,1.0546875,0,0
-3.05789126286982E-06,-1.49264396895887E-05,1.0546875,0,0
-2.2595270365855E-06,-1.48025064845569E-05,1.0546875,0,0
-1.02962599157763E-06,-1.69727827596944E-05,1.0546875,0,0
-1.92080619854096E-06,-1.67278885783162E-05,1.0546875,0,0
-1.65678773100808E-06,-1.72758500411874E-05,1.0546875,0,0
-1.1008251021849E-06,-1.80385231942637E-05,1.0546875,0,0
-3.9011365515762E-07,-2.03325071197469E-05,1.0546875,0,0
-1.86122190370952E-06,-2.00075228349306E-05,1.0546875,0,0
-2.60337606050598E-06,-1.99549394892529E-05,1.0546875,0,0
-2.42706596509379E-06,-1.98016732610995E-05,1.0546875,0,0
-1.89585477983201E-06,-1.85430235433159E-05,1.0546875,0,0
-2.77811409432616E-06,-1.57307131303241E-05,1.0546875,0,0
-3.72002637050173E-06,-1.4708622074977E-05,1.0546875,0,0
-3.59062369170715E-06,-1.49781617437839E-05,1.0546875,0,0
-2.59336661656562E-06,-1.47342552736518E-05,1.0546875,0,0
-1.19769038064987E-06,-1.07649884739658E-05,1.0546875,0,0
-1.50704352108733E-06,-1.55430752784014E-05,1.0546875,0,0
-3.13827648312781E-08,-1.3304785170476E-05,1.0546875,0,0
7.90115223026078E-07,-1.76561770786066E-05,1.0546875,0,0
1.70172847901995E-06,-1.54754252434941E-05,1.0546875,0,0
2.03733407033724E-06,-1.66666413861094E-05,1.0546875,0,0
4.27722989115864E-06,-1.53140754264314E-05,1.0546875,0,0
6.13854626863031E-06,-1.54119006765541E-05,1.0546875,0,0
7.2930251917569E-06,-1.41637619890389E-05,1.0546875,0,0
8.89046805241378E-06,-1.32256509459694E-05,1.0546875,0,0
9.2960999609204E-06,-1.37476472445996E-05,1.0546875,0,0
7.52790947444737E-06,-1.36113458211184E-05,1.0546875,0,0
5.14474959345534E-06,-1.30179514599149E-05,1.0546875,0,0
4.40120265920996E-06,-1.28498058984405E-05,1.0546875,0,0
4.398967121233E-06,-1.49115667227306E-05,1.0546875,0,0
4.67450718133477E-06,-1.44441128213657E-05,1.0546875,0,0
5.17259877597098E-06,-1.4152511539578E-05,1.0546875,0,0
5.64527545066085E-06,-1.47287064464763E-05,1.0546875,0,0
4.63064679934178E-06,-1.75422646861989E-05,1.0546875,0,0
3.05495018437796E-06,-1.62878259288846E-05,1.0546875,0,0
2.92104982690944E-06,-1.40478277899092E-05,1.0546875,0,0
2.25933877118223E-06,-1.3653112546308E-05,1.0546875,0,0
1.97597103124281E-07,-1.5408659237437E-05,1.0546875,0,0
-5.71717123420967E-07,-1.61151710926788E-05,1.0546875,0,0
-8.58767180034192E-07,-1.70864568644902E-05,1.0546875,0,0
-1.74706804045854E-06,-1.8805920262821E-05,1.0546875,0,0
-1.77490460373519E-06,-2.02672545128735E-05,1.0546875,0,0
-1.0910168839473E-06,-1.71484934980981E-05,1.0546875,0,0
-1.15159855340607E-06,-2.49140157393413E-05,1.0546875,0,0
-6.09426876962971E-07,-1.82040475920076E-05,1.0546875,0,0
-2.35339643950283E-06,-2.07002049137373E-05,1.0546875,0,0
-3.34017136083276E-06,-1.80246843228815E-05,1.0546875,0,0
-2.8748490876751E-06,-2.43016165768495E-05,1.0546875,0,0
-2.97710869290313E-07,-2.64972604782088E-05,1.0546875,0,0
1.32651268813788E-06,-2.92397726298077E-05,1.0546875,0,0
1.65911913541095E-07,-2.84114794339985E-05,1.0546875,0,0
-9.53905669121013E-07,-2.71790686383611E-05,1.0546875,0,0
-1.55303030169307E-06,-2.64602294919314E-05,1.0546875,0,0
-2.22230914914689E-06,-2.48715641646413E-05,1.0546875,0,0
-2.2794822598371E-06,-2.51142755587352E-05,1.0546875,0,0
-6.35704907381296E-07,-2.47958541876869E-05,1.0546875,0,0
5.95217784393753E-07,-2.50998618867015E-05,1.0546875,0,0
6.78185699598544E-07,-2.23940551222768E-05,1.0546875,0,0
2.29772737725398E-07,-2.15368272620253E-05,2.63671875,0,0
2.10190023608448E-07,-1.88297890417743E-05,2.63671875,0,0
1.08330482362362E-06,-1.82552303158445E-05,2.63671875,0,0
2.62085268332157E-06,-1.7027357898769E-05,2.63671875,0,0
3.73898888028634E-06,-1.67814869200811E-05,2.63671875,0,0
3.5046218727075E-06,-1.6060685084085E-05,2.63671875,0,0
3.15061629407865E-06,-1.66951958817663E-05,2.63671875,0,0
3.95230244976119E-06,-1.59647061082069E-05,2.63671875,0,0
5.47936951988959E-06,-1.64481753017753E-05,2.63671875,0,0
6.28890438747476E-06,-1.71928531926824E-05,2.63671875,0,0
5.4114584600029E-06,-1.83693209692137E-05,2.63671875,0,0
3.94093467548373E-06,-1.59344435815001E-05,2.63671875,0,0
6.53925235383213E-06,-2.14514511753805E-05,2.63671875,0,0
7.50531353332917E-06,-1.54190147441113E-05,2.63671875,0,0
1.05433264252497E-05,-2.10278230952099E-05,2.63671875,0,0
8.84040764503879E-06,-1.85156241059303E-05,2.63671875,0,0
6.57105829304783E-06,-2.07136017706944E-05,2.63671875,0,0
4.86990256831632E-06,-1.89879647223279E-05,2.63671875,0,0
5.17914486408699E-06,-2.16191310755676E-05,2.63671875,0,0
4.98178496854962E-06,-2.30378354899585E-05,2.63671875,0,0
4.2908791328955E-06,-2.25476833293214E-05,2.63671875,0,0
3.27998100146942E-06,-2.13279963645618E-05,2.63671875,0,0
1.79454866611195E-06,-1.90732062037569E-05,2.63671875,0,0
7.78117453137384E-07,-1.80115293915151E-05,2.63671875,0,0
1.75135085100919E-07,-1.56963033077773E-05,2.63671875,0,0
3.98985093852389E-07,-1.49097677422105E-05,2.63671875,0,0
4.53919881238107E-07,-1.24156458696234E-05,2.63671875,0,0
8.282801218229E-07,-1.33116491269902E-05,2.63671875,0,0
6.33592605936428E-07,-1.34863475977909E-05,2.63671875,0,0
3.91788120168712E-07,-1.4590648788726E-05,2.63671875,0,0
-6.17469140706817E-07,-1.32064078570693E-05,2.63671875,0,0
-9.72313614511222E-07,-1.35356021928601E-05,2.63671875,0,0
-2.93610526114207E-07,-1.31832721308456E-05,2.63671875,0,0
1.99629255348555E-07,-1.17625877464889E-05,2.63671875,0,0
-1.40538679715974E-06,-1.00532379292417E-05,2.63671875,0,0
-2.78260449704248E-06,-9.95290702121565E-06,2.63671875,0,0
-3.13148689201626E-06,-1.04701412055874E-05,2.63671875,0,0
-2.05399351216329E-06,-1.21094408314093E-05,2.63671875,0,0
9.72234033724817E-07,-1.00992056104587E-05,2.63671875,0,0
3.96455288864672E-06,-1.39018920890521E-05,2.63671875,0,0
6.38877327219234E-06,-1.02377143775811E-05,2.63671875,0,0
7.25330119166756E-06,-1.3290296010382E-05,2.63671875,0,0
6.98456915415591E-06,-1.23664058264694E-05,2.63671875,0,0
5.23175049238489E-06,-1.5303332475014E-05,2.63671875,0,0
5.08829771206365E-06,-1.43429469972034E-05,2.63671875,0,0
6.8478548200801E-06,-1.27344037537114E-05,2.63671875,0,0
9.56810163188493E-06,-1.0171131179959E-05,2.63671875,0,0
1.08792200990138E-05,-1.0431710506964E-05,2.63671875,0,0
9.94543552224059E-06,-1.24756415971206E-05,2.63671875,0,0
8.21332469058689E-06,-1.3225615475676E-05,2.63671875,0,0
8.31255238153972E-06,-1.39924186441931E-05,2.63671875,0,0
9.66579318628646E-06,-1.36615071824053E-05,2.63671875,0,0
1.05420313047944E-05,-1.42124299600255E-05,2.63671875,0,0
1.15100228867959E-05,-1.3651904737344E-05,2.63671875,0,0
1.26441836982849E-05,-1.40883694257354E-05,2.63671875,0,0
1.44896293932106E-05,-1.28571718960302E-05,2.63671875,0,0
1.73059725057101E-05,-1.14117401608382E-05,2.63671875,0,0
2.00402264454169E-05,-8.56846054375637E-06,2.63671875,0,0
2.08209767151857E-05,-8.14666145743104E-06,2.63671875,0,0
1.95213724509813E-05,-8.9986151579069E-06,2.63671875,0,0
1.7405642211088E-05,-1.00506395028788E-05,2.63671875,0,0
1.71261344803497E-05,-9.45084957493236E-06,2.63671875,0,0
1.78923164639855E-05,-9.6847907116171E-06,2.63671875,0,0
1.76235971593997E-05,-1.15355842353893E-05,2.63671875,0,0
1.64332668646239E-05,-1.42789258461562E-05,2.63671875,0,0
1.38610457725008E-05,-1.42969756780076E-05,2.63671875,0,0
1.93673913599923E-05,-2.08414949156577E-05,2.63671875,0,0
1.19198093671002E-05,-1.67613961821189E-05,2.63671875,0,0
1.20919967230293E-05,-2.09874815482181E-05,2.63671875,0,0
5.92151991440915E-06,-1.77103211171925E-05,2.63671875,0,0
4.7055277718755E-06,-1.92669558600755E-05,2.63671875,0,0
1.8660418845684E-06,-2.04213811230147E-05,2.63671875,0,0
1.05061428712361E-06,-2.46886211243691E-05,2.63671875,0,0
-1.3526532711694E-06,-2.47619518631836E-05,2.63671875,0,0
-2.81392681245052E-06,-2.28565804718528E-05,2.63671875,0,0
-4.34520643466385E-06,-2.05571359401802E-05,2.63671875,0,0
-6.62581851429422E-06,-2.01596722035902E-05,2.63671875,0,0
-7.06227683622274E-06,-2.33115570154041E-05,2.63671875,0,0
-8.88874092197511E-06,-2.4038321498665E-05,2.63671875,0,0
-1.08298190752976E-05,-2.38948850892484E-05,2.63671875,0,0
-1.44752375490498E-05,-2.13768544199411E-05,2.63671875,0,0
-1.58837974595372E-05,-2.15920390473912E-05,2.63671875,0,0
-1.76801695488393E-05,-2.15126074181171E-05,2.63671875,0,0
-1.6789748769952E-05,-2.24715549848042E-05,2.63671875,0,0
-1.54468089021975E-05,-2.10622347367462E-05,2.63671875,0,0
-1.30553144117584E-05,-2.1229769117781E-05,2.63671875,0,0
-1.32480890897568E-05,-2.10795533348573E-05,2.63671875,0,0
-1.35601512738504E-05,-2.10009129659738E-05,2.63671875,0,0
-1.28884539662977E-05,-1.975339546334E-05,2.63671875,0,0
-1.01962586995796E-05,-1.83253814611817E-05,2.63671875,0,0
-8.01678652351256E-06,-1.78465215867618E-05,2.63671875,0,0
-4.98924646308296E-06,-2.0099649191252E-05,2.63671875,0,0
-2.25399261921666E-07,-1.81046434590826E-05,2.63671875,0,0
1.80026461293892E-06,-2.5739895136212E-05,2.63671875,0,0
2.99810358228569E-06,-1.96142427739687E-05,2.63671875,0,0
2.13251450986718E-06,-2.52681529673282E-05,2.63671875,0,0
3.98347674490651E-06,-2.26500324060908E-05,2.63671875,0,0
4.80185053675086E-06,-2.64287991740275E-05,2.63671875,0,0
6.81560550219729E-06,-2.49493368755793E-05,2.63671875,0,0
9.06186414795229E-06,-2.33775681408588E-05,2.63671875,0,0
1.07318146547186E-05,-2.10016496566823E-05,2.63671875,0,0
1.20099603009294E-05,-2.06217700906564E-05,2.63671875,0,0
1.29403561004438E-05,-1.97620756807737E-05,2.63671875,0,0
1.29624722831068E-05,-1.70391085703159E-05,2.63671875,0,0
1.31527012854349E-05,-1.45212306961184E-05,2.63671875,0,0
1.51118765643332E-05,-1.07936475615134E-05,2.63671875,0,0
1.71957344718976E-05,-9.79697870207019E-06,2.63671875,0,0
1.86929228220833E-05,-8.95864013727987E-06,2.63671875,0,0
1.96216005861061E-05,-1.04355294752168E-05,2.63671875,0,0
2.03311137738638E-05,-8.3807180999429E-06,2.63671875,0,0
1.94503663806245E-05,-8.07489504950354E-06,2.63671875,0,0
1.7486592696514E-05,-7.92734590504551E-06,2.63671875,0,0
1.49112875078572E-05,-1.0348280738981E-05,2.63671875,0,0
1.23610989248846E-05,-1.15751317935064E-05,2.63671875,0,0
1.07027181002195E-05,-1.31547694763867E-05,2.63671875,0,0
9.57381689659087E-06,-1.39993053380749E-05,2.63671875,0,0
8.07745345809963E-06,-1.47808295878349E-05,2.63671875,0,0
6.17966679783422E-06,-1.45236881508026E-05,2.63671875,0,0
3.85252360501909E-06,-1.5073424037837E-05,2.63671875,0,0
3.87858506201155E-07,-1.41916834763833E-05,2.63671875,0,0
-1.23793358852708E-06,-2.20637375605293E-05,2.63671875,0,0
-2.75962383966544E-06,-2.02620067284442E-05,2.63671875,0,0
-2.15539898817951E-06,-2.5536844987073E-05,2.63671875,0,0
-3.33271214003616E-06,-2.37521326198475E-05,2.63671875,0,0
-3.96146788261831E-06,-2.53619618888479E-05,2.63671875,0,0
-4.03999365516938E-06,-2.29158231377369E-05,2.63671875,0,0
-2.58611407844001E-06,-2.27129730774323E-05,2.63671875,0,0
-2.33489959100552E-06,-2.15792515518842E-05,2.63671875,0,0
-5.25975019627367E-06,-2.03976705961395E-05,2.63671875,0,0
-8.47467708808836E-06,-1.88388512469828E-05,2.63671875,0,0
-1.00160377769498E-05,-1.66791251103859E-05,2.63671875,0,0
-1.02849799077376E-05,-1.69149680004921E-05,2.63671875,0,0
-1.06486295408104E-05,-1.74405140569434E-05,2.63671875,0,0
-1.03494485301781E-05,-1.99766673176782E-05,2.63671875,0,0
-8.78231912793126E-06,-2.04951138584875E-05,2.63671875,0,0
-7.02477609593188E-06,-2.14429546758765E-05,2.63671875,0,0
-6.65775087327347E-06,-2.06588283617748E-05,2.63671875,0,0
-6.98745043337112E-06,-2.18534805753734E-05,2.63671875,0,0
-7.73893498262623E-06,-2.13921321119415E-05,2.63671875,0,0
-8.45424619910773E-06,-2.16403805097798E-05,2.63671875,0,0
-7.24007031749352E-06,-2.13503735722043E-05,2.63671875,0,0
-5.14555858899257E-06,-1.975976920221E-05,2.63671875,0,0
-4.47417960458552E-06,-1.76690064108698E-05,2.63671875,0,0
-3.74602927877277E-06,-1.84389919013483E-05,2.63671875,0,0
-3.31453748003696E-06,-1.7732942069415E-05,2.63671875,0,0
-3.09693405142752E-06,-1.52720440382836E-05,2.63671875,0,0
-1.21354912607785E-06,-1.29513255160418E-05,2.63671875,0,0
-1.22849473882525E-06,-1.91539857041789E-05,2.63671875,0,0
-1.05659819382709E-06,-1.49235520439106E-05,2.63671875,0,0
-2.3070465431374E-06,-1.85491408046801E-05,2.63671875,0,0
-2.71673752649804E-06,-1.66857862495817E-05,2.63671875,0,0
-2.62759840552462E-06,-1.83664724318078E-05,2.63671875,0,0
-5.49167893382219E-08,-1.81522955244873E-05,2.63671875,0,0
1.395639628754E-06,-1.92489114851924E-05,2.63671875,0,0
1.11656231638335E-06,-1.75115892488975E-05,2.63671875,0,0
6.3271407668708E-08,-1.69276918313699E-05,2.63671875,0,0
2.73478320877985E-07,-1.77967704075854E-05,2.63671875,0,0
7.87792714618263E-07,-1.55453308252618E-05,2.63671875,0,0
5.64060997021443E-07,-1.28451656564721E-05,2.63671875,0,0
1.1729275684047E-06,-1.06030147435376E-05,2.63671875,0,0
3.8051557567087E-06,-1.23421705211513E-05,2.63671875,0,0
7.680897397222E-06,-1.38716704896069E-05,2.63671875,0,0
9.84418511507101E-06,-1.48507060657721E-05,2.63671875,0,0
1.03258234958048E-05,-1.33366638692678E-05,2.63671875,0,0
9.50357571127824E-06,-1.42381477417075E-05,10.01953125,0,0
8.24939888843801E-06,-1.4713242308062E-05,10.01953125,0,0
6.76057788950857E-06,-1.45587173392414E-05,10.01953125,0,0
6.8906374508515E-06,-1.19458609333378E-05,10.01953125,0,0
7.83626182965236E-06,-1.02122521639103E-05,10.01953125,0,0
8.20602781459456E-06,-1.08529375211219E-05,10.01953125,0,0
7.62076024329872E-06,-1.23901718325214E-05,10.01953125,0,0
6.32182718618424E-06,-1.24888119898969E-05,10.01953125,0,0
4.93290144731873E-06,-1.26394415929099E-05,10.01953125,0,0
4.88988325741957E-06,-9.39468009164557E-06,10.01953125,0,0
7.76558954385109E-06,-1.08539325083257E-05,10.01953125,0,0
6.8258709688962E-06,-3.38625613949262E-06,10.01953125,0,0
9.41716007218929E-06,-3.16265527544601E-06,10.01953125,0,0
9.90902753983391E-06,-1.12611098757043E-06,10.01953125,0,0
1.05159842860303E-05,-4.68543203169247E-06,10.01953125,0,0
1.05077842817991E-05,-5.54561984245083E-06,10.01953125,0,0
1.17559520731447E-05,-6.84397491568234E-06,10.01953125,0,0
1.2761586731358E-05,-7.08464449417079E-06,10.01953125,0,0
1.34593874463462E-05,-1.02428257378051E-05,10.01953125,0,0
1.41499476740137E-05,-1.39380726977834E-05,10.01953125,0,0
1.43986007969943E-05,-1.3936189134256E-05,10.01953125,0,0
1.38774003062281E-05,-1.23264962894609E-05,10.01953125,0,0
1.26777613331797E-05,-1.08641097540385E-05,10.01953125,0,0
1.10132286863518E-05,-1.168344533653E-05,10.01953125,0,0
7.62502077122917E-06,-1.15649072540691E-05,10.01953125,0,0
4.73113141197246E-06,-1.31463402794907E-05,10.01953125,0,0
2.60565616372332E-06,-1.34822448671912E-05,10.01953125,0,0
1.32503907934733E-06,-1.49467841765727E-05,10.01953125,0,0
-2.10489403684733E-07,-1.63716049428331E-05,10.01953125,0,0
-1.50583264257875E-06,-1.73981770785758E-05,10.01953125,0,0
-3.82222469852422E-06,-1.55580073624151E-05,10.01953125,0,0
-5.56918848815258E-06,-1.50986297740019E-05,10.01953125,0,0
-5.98292217546259E-06,-1.50163059515762E-05,10.01953125,0,0
-5.70243673791992E-06,-1.54221033881186E-05,10.01953125,0,0
-5.09424262418179E-06,-1.63307649927447E-05,10.01953125,0,0
-4.99457109981449E-06,-1.74161614268087E-05,10.01953125,0,0
-4.87042234453838E-06,-1.37341276058578E-05,10.01953125,0,0
-6.6024922489305E-06,-1.7984186342801E-05,10.01953125,0,0
-3.31560636368522E-06,-1.29684949570219E-05,10.01953125,0,0
-2.2904496290721E-06,-1.86627803486772E-05,10.01953125,0,0
5.81259257614875E-07,-1.61963871505577E-05,10.01953125,0,0
1.34646904825786E-06,-1.82132080226438E-05,10.01953125,0,0
4.41618976765312E-06,-1.73482039826922E-05,10.01953125,0,0
7.44608041713946E-06,-1.82868297997629E-05,10.01953125,0,0
1.04132395790657E-05,-1.74130727828015E-05,10.01953125,0,0
1.20053437058232E-05,-1.89194142876659E-05,10.01953125,0,0
1.29111704154639E-05,-2.07935827347683E-05,10.01953125,0,0
1.36649887281237E-05,-2.04647731152363E-05,10.01953125,0,0
1.35281261464115E-05,-1.94336716958787E-05,10.01953125,0,0
1.22465507956804E-05,-1.61050575115951E-05,10.01953125,0,0
9.88223473541439E-06,-1.53770743054338E-05,10.01953125,0,0
9.02805641089799E-06,-1.49875222632545E-05,10.01953125,0,0
8.88082013261737E-06,-1.69859322340926E-05,10.01953125,0,0
1.04635209936532E-05,-1.72929248947185E-05,10.01953125,0,0
1.08725962491008E-05,-1.94109543372178E-05,10.01953125,0,0
9.13126405066578E-06,-1.9969702407252E-05,10.01953125,0,0
6.28072621111642E-06,-1.99179685296258E-05,10.01953125,0,0
5.04945819557179E-06,-1.73135576915229E-05,10.01953125,0,0
3.61386946678977E-06,-1.52450129462522E-05,10.01953125,0,0
2.64606092059694E-06,-1.4281555195339E-05,10.01953125,0,0
1.87054411071585E-06,-1.64528246386908E-05,10.01953125,0,0
1.34435481413675E-06,-1.91539202205604E-05,10.01953125,0,0
1.2000484730379E-06,-2.01361981453374E-05,10.01953125,0,0
2.30623118113726E-06,-1.59452392836101E-05,10.01953125,0,0
3.03245406030328E-06,-2.15718791878317E-05,10.01953125,0,0
4.7713029971419E-07,-1.68863971339306E-05,10.01953125,0,0
-9.65585400081181E-07,-2.29313500312855E-05,10.01953125,0,0
-2.66410233962233E-06,-1.86411089089233E-05,10.01953125,0,0
-3.93878735849285E-06,-2.09630652534543E-05,10.01953125,0,0
-5.74648447582149E-06,-2.09876507142326E-05,10.01953125,0,0
-6.6388111008564E-06,-2.18165496335132E-05,10.01953125,0,0
-6.40557209408144E-06,-2.03954386961414E-05,10.01953125,0,0
-5.01367730976199E-06,-2.0724792193505E-05,10.01953125,0,0
-3.7855745631532E-06,-2.09443242056295E-05,10.01953125,0,0
-4.14371834267513E-06,-1.90664177353028E-05,10.01953125,0,0
-4.43021826868062E-06,-1.80248243850656E-05,10.01953125,0,0
-3.6775902572117E-06,-1.63162440003362E-05,10.01953125,0,0
-2.88353589894541E-06,-1.78041482286062E-05,10.01953125,0,0
-3.54165877070045E-06,-1.80874212674098E-05,10.01953125,0,0
-4.72375859317253E-06,-2.05906799237709E-05,10.01953125,0,0
-5.46397359357798E-06,-2.12162722164067E-05,10.01953125,0,0
-4.40601115769823E-06,-2.22779963223729E-05,10.01953125,0,0
-3.04845161736012E-06,-2.02956507564522E-05,10.01953125,0,0
-2.58906425187888E-06,-2.04830103029963E-05,10.01953125,0,0
-2.94861683869385E-06,-2.0137431420153E-05,10.01953125,0,0
-4.71048269901075E-06,-1.95024513232056E-05,10.01953125,0,0
-7.7432805483113E-06,-1.90312912309309E-05,10.01953125,0,0
-1.01941432149033E-05,-1.94401509361342E-05,10.01953125,0,0
-1.08648582681781E-05,-1.8669063138077E-05,10.01953125,0,0
-8.42399913381087E-06,-1.73748321685707E-05,10.01953125,0,0
-3.51347102878208E-06,-1.3492733160092E-05,10.01953125,0,0
-3.21795346280851E-06,-1.96704768313793E-05,10.01953125,0,0
-7.54894244892057E-07,-1.61368789122207E-05,10.01953125,0,0
-2.86654426417954E-06,-2.02582923520822E-05,10.01953125,0,0
-2.38723987422418E-06,-1.80111419467721E-05,10.01953125,0,0
-2.6992520361091E-06,-1.94879048649454E-05,10.01953125,0,0
1.967044624962E-07,-1.65845867741155E-05,10.01953125,0,0
3.18846127811412E-06,-1.58651746460237E-05,10.01953125,0,0
3.8736889109714E-06,-1.48575927596539E-05,10.01953125,0,0
3.09823167299328E-06,-1.59393639478367E-05,10.01953125,0,0
4.66082519778865E-06,-1.74850101757329E-05,10.01953125,0,0
7.38093513064086E-06,-1.7157981346827E-05,10.01953125,0,0
7.75869102653814E-06,-1.68475526152179E-05,10.01953125,0,0
7.12151404513861E-06,-1.55872494360665E-05,10.01953125,0,0
7.58149508328643E-06,-1.54897261381848E-05,10.01953125,0,0
1.014265944832E-05,-1.47262398968451E-05,10.01953125,0,0
1.08688773252652E-05,-1.7143724107882E-05,10.01953125,0,0
9.21948321774835E-06,-1.80990664375713E-05,10.01953125,0,0
6.59727220408968E-06,-1.81569321284769E-05,10.01953125,0,0
5.88539842283353E-06,-1.58735256263753E-05,10.01953125,0,0
5.41760664418689E-06,-1.57639369717799E-05,10.01953125,0,0
5.21899528393988E-06,-1.57818649313413E-05,10.01953125,0,0
4.91957052872749E-06,-1.74105789483292E-05,10.01953125,0,0
5.30504257767461E-06,-1.86769611900672E-05,10.01953125,0,0
4.88795103592565E-06,-1.9623488697107E-05,10.01953125,0,0
1.42222665999725E-06,-1.89750026038382E-05,10.01953125,0,0
-1.5539369542239E-06,-1.77392957994016E-05,10.01953125,0,0
6.73159604502871E-07,-1.43053421197692E-05,10.01953125,0,0
3.47264040101436E-06,-2.07028915610863E-05,10.01953125,0,0
3.72573981621827E-06,-1.67029083968373E-05,10.01953125,0,0
5.17731450599968E-07,-2.11431506613735E-05,10.01953125,0,0
-7.74540012571379E-07,-1.84525470103836E-05,10.01953125,0,0
1.87529849426937E-07,-2.04736661544302E-05,10.01953125,0,0
2.28926001000218E-06,-1.88858139154036E-05,10.01953125,0,0
3.88968237530207E-06,-1.93702253454831E-05,10.01953125,0,0
6.04751676291926E-06,-1.79080871021142E-05,10.01953125,0,0
7.94995048636338E-06,-1.69622599059949E-05,10.01953125,0,0
7.68191421229858E-06,-1.76162229763577E-05,10.01953125,0,0
5.40763221579255E-06,-1.77471556526143E-05,10.01953125,0,0
3.8239331843215E-06,-1.91759954759618E-05,10.01953125,0,0
4.60545516034472E-06,-2.0083864001208E-05,10.01953125,0,0
5.74654723095591E-06,-2.2116244508652E-05,10.01953125,0,0
5.81993526793667E-06,-2.06285185413435E-05,10.01953125,0,0
4.54601104138419E-06,-1.9604251065175E-05,10.01953125,0,0
3.23783115163678E-06,-1.74238703039009E-05,10.01953125,0,0
2.32046295423061E-06,-1.74293545569526E-05,10.01953125,0,0
2.42464807342913E-06,-1.6975260223262E-05,10.01953125,0,0
3.2084574286273E-06,-1.82277781277662E-05,10.01953125,0,0
3.56061491402215E-06,-1.96925739146536E-05,10.01953125,0,0
2.93316452371073E-06,-2.20434230868705E-05,10.01953125,0,0
2.88783076030086E-06,-2.30000096053118E-05,10.01953125,0,0
3.77062519874016E-06,-2.32855036301771E-05,10.01953125,0,0
5.07521554027335E-06,-2.32800248340936E-05,10.01953125,0,0
6.05290188104846E-06,-2.37851054407656E-05,10.01953125,0,0
5.02537841384765E-06,-1.86462020792533E-05,10.01953125,0,0
6.38209212411311E-06,-2.38870015891735E-05,10.01953125,0,0
2.90996831608936E-06,-1.5118287592486E-05,10.01953125,0,0
3.09887491312111E-06,-2.00297708943253E-05,10.01953125,0,0
2.93916514237935E-06,-1.58626626216574E-05,10.01953125,0,0
4.78275160276098E-06,-1.98764118977124E-05,10.01953125,0,0
3.72640101886645E-06,-1.97228673641803E-05,10.01953125,0,0
2.78373613582517E-06,-2.19603352888953E-05,10.01953125,0,0
1.20873903597385E-06,-2.09006884688279E-05,10.01953125,0,0
1.19406684007117E-06,-1.95343836821849E-05,10.01953125,0,0
1.42568001137988E-06,-1.70292823895579E-05,10.01953125,0,0
1.69440124864195E-06,-1.34404899654328E-05,10.01953125,0,0
3.44191107615188E-06,-1.30200487546972E-05,10.01953125,0,0
3.60045055458613E-06,-1.17123163363431E-05,10.01953125,0,0
2.18927061723662E-06,-1.3208351447247E-05,10.01953125,0,0
3.32428240490401E-09,-1.33465819089906E-05,10.01953125,0,0
7.23019070392183E-07,-1.5314064512495E-05,10.01953125,0,0
1.34567903842253E-06,-1.35492118715774E-05,10.01953125,0,0
2.53560983765055E-07,-1.34285510284826E-05,10.01953125,0,0
-2.07329799195577E-06,-1.18610932986485E-05,10.01953125,0,0
-1.25911265058676E-06,-1.25647047752864E-05,10.01953125,0,0
9.78001139628759E-07,-1.33448156702798E-05,10.01953125,0,0
1.65319261213881E-06,-1.48314938996918E-05,10.01953125,0,0
1.0741815685833E-06,-1.55549150804291E-05,10.01953125,0,0
2.9381032717879E-08,-1.78447789949132E-05,10.01953125,0,0
-2.2950282527745E-06,-2.0607718397514E-05,10.01953125,0,0
-2.1191729047132E-06,-2.34648632613244E-05,10.01953125,0,0
7.03167359006329E-07,-1.94821295735892E-05,10.01953125,0,0
2.2593362700718E-06,-2.60811066254973E-05,10.01953125,0,0
2.54302972280129E-06,-1.72956024471205E-05,10.01953125,0,0
1.47554942486749E-06,-2.09630761673907E-05,10.01953125,0,0
2.16231046579196E-06,-1.60069230332738E-05,10.01953125,0,0
4.30010049967677E-06,-1.97453391592717E-05,10.01953125,0,0
6.12367784924572E-06,-1.87073419510853E-05,10.01953125,0,0
6.14931786913075E-06,-2.08528545044828E-05,10.01953125,0,0
4.38406141256564E-06,-2.17079123103758E-05,10.01953125,0,0
2.08531309908722E-06,-2.06820895982673E-05,10.01953125,0,0
1.16060982691124E-06,-1.79921335075051E-05,10.01953125,0,0
1.67290443187085E-06,-1.56525311467703E-05,10.01953125,0,0
3.17133662974811E-06,-1.68509523064131E-05,10.01953125,0,0
5.07280219608219E-06,-1.69552040460985E-05,10.01953125,0,0
5.62790137337288E-06,-1.84957243618555E-05,10.01953125,0,0
4.28815428676899E-06,-1.79681264853571E-05,10.01953125,0,0
2.84268980976776E-06,-1.95451757463161E-05,10.01953125,0,0
2.91029141408217E-06,-1.74075812537922E-05,10.01953125,0,0
3.67756547348108E-06,-1.69847917277366E-05,10.01953125,0,0
3.84739132641698E-06,-1.5782981790835E-05,10.01953125,0,0
2.5641811589594E-06,-1.62826363521162E-05,10.01953125,0,0
5.95966582750407E-07,-1.64530683832709E-05,10.01953125,0,0
-1.05423112017888E-06,-1.85430526471464E-05,10.01953125,0,0
-2.05862534130574E-06,-1.85901444638148E-05,10.01953125,0,0
-1.71527153725037E-06,-1.85734334081644E-05,10.01953125,0,0
-2.17010756387026E-06,-1.79918424692005E-05,10.01953125,0,0
-3.23905919685785E-06,-1.64049815793987E-05,10.01953125,0,0
-1.62779167567351E-06,-1.24135995065444E-05,10.01953125,0,0
-3.5534520748115E-07,-1.837573654484E-05,10.01953125,0,0
1.35156290070881E-06,-1.59804822033038E-05,10.01953125,0,0
6.59622969578777E-07,-1.86875568033429E-05,10.01953125,0,0
1.18133539217524E-06,-1.51413214553031E-05,10.01953125,0,0
4.7517031021016E-07,-1.84981563506881E-05,10.01953125,0,0
2.13000362236926E-06,-1.9161707314197E-05,10.01953125,0,0
3.20561480293691E-06,-2.04586922336603E-05,10.01953125,0,0
4.61199215351371E-06,-1.97078861674527E-05,10.01953125,0,0
5.81858921577805E-06,-2.04390853468794E-05,10.01953125,0,0
6.33182071396732E-06,-2.16736862057587E-05,10.01953125,0,0
6.62725506117567E-06,-2.19142530113459E-05,10.01953125,0,0
6.67994891045964E-06,-2.1717518393416E-05,10.01953125,0,0
8.07187825557776E-06,-1.89740276255179E-05,10.01953125,0,0
9.29944962990703E-06,-1.84802811418194E-05,10.01953125,0,0
9.9084572866559E-06,-1.83264182851417E-05,10.01953125,0,0
1.03471711554448E-05,-1.93027408386115E-05,10.01953125,0,0
1.23101217468502E-05,-1.73166699823923E-05,10.01953125,0,0
1.37168590299552E-05,-1.63767035701312E-05,10.01953125,0,0
1.38785189847113E-05,-1.38770474222838E-05,10.01953125,0,0
1.36597809614614E-05,-1.23022928164573E-05,10.01953125,0,0
1.45935619002557E-05,-1.21276825666428E-05,10.01953125,0,0
1.55087236635154E-05,-1.5904422980384E-05,10.01953125,0,0
1.76613502844702E-05,-1.82941003004089E-05,10.01953125,0,0
2.07218054129044E-05,-1.67850466823438E-05,10.01953125,0,0
2.28257249546004E-05,-1.48875742524979E-05,10.01953125,0,0
2.20995279960334E-05,-1.59899864229374E-05,10.01953125,0,0
1.50573268911103E-05,-1.33395578814088E-05,10.01953125,0,0
1.94319090951467E-05,-1.84420860023238E-05,10.01953125,0,0
1.23764402815141E-05,-1.36863181978697E-05,10.01953125,0,0
1.62277483468642E-05,-1.73963089764584E-05,10.01953125,0,0
1.03531829154235E-05,-1.50339492392959E-05,10.01953125,0,0
8.13425685919356E-06,-1.81549767148681E-05,10.01953125,0,0
2.45513842855871E-06,-1.81729119503871E-05,10.01953125,0,0
8.20362743070291E-07,-1.9807057469734E-05,10.01953125,0,0
-3.57170233655779E-06,-1.87211462616688E-05,10.01953125,0,0
-7.17250259185676E-06,-1.83202191692544E-05,10.01953125,0,0
-8.58459770824993E-06,-1.88098165381234E-05,10.01953125,0,0
-8.68792903929716E-06,-1.90440896403743E-05,10.01953125,0,0
-6.75474984745961E-06,-2.02663923118962E-05,10.01953125,0,0
-6.77789330438827E-06,-1.99442420125706E-05,10.01953125,0,0
-5.49556671103346E-06,-1.99065998458536E-05,10.01953125,0,0
-4.4445960156736E-06,-1.80776387423975E-05,10.01953125,0,0
-1.36244898385485E-06,-1.97890913113952E-05,10.01953125,0,0
-1.47732396271749E-06,-2.05133965209825E-05,10.01953125,0,0
2.41311823856449E-07,-1.99948499357561E-05,10.01953125,0,0
1.97868280338298E-06,-1.70817002071999E-05,10.01953125,0,0
5.08904895468731E-06,-1.80652441486018E-05,10.01953125,0,0
6.05808509135386E-06,-1.96602468349738E-05,10.01953125,0,0
7.42053271096665E-06,-1.98677134903846E-05,10.01953125,0,0
7.32339049136499E-06,-1.75678760570008E-05,10.01953125,0,0
7.03979640093166E-06,-1.63122222147649E-05,10.01953125,0,0
6.4843211475818E-06,-1.57039685291238E-05,10.01953125,0,0
6.70895406074123E-06,-1.41706759677618E-05,10.01953125,0,0
6.84904034642386E-06,-1.00904426290072E-05,23.203125,0,0
1.16054807222099E-05,-1.41733553391532E-05,23.203125,0,0
9.26791926758597E-06,-9.09288428374566E-06,23.203125,0,0
6.35277638139087E-06,-9.1474848886719E-06,23.203125,0,0
6.86097394009266E-07,-8.0103936852538E-06,23.203125,0,0
-9.14778865990229E-07,-1.22221217679908E-05,23.203125,0,0
-1.76888272562792E-06,-1.18822936201468E-05,23.203125,0,0
-1.3174983450881E-06,-1.09318216345855E-05,23.203125,0,0
-8.49614650633157E-07,-8.36913113744231E-06,23.203125,0,0
-9.07044523046352E-07,-7.95880077930633E-06,23.203125,0,0
-4.13811505950434E-07,-9.40445352171082E-06,23.203125,0,0
8.10460278444225E-07,-1.10490573206334E-05,23.203125,0,0
3.1894383027975E-06,-1.34074334710022E-05,23.203125,0,0
4.1116904867522E-06,-1.41364307637559E-05,23.203125,0,0
2.82688688457711E-06,-1.51509484567214E-05,23.203125,0,0
-3.89069413131438E-07,-1.61235475388821E-05,23.203125,0,0
-2.70928421741701E-06,-1.9251614503446E-05,23.203125,0,0
-3.9701308196527E-06,-1.96365108422469E-05,23.203125,0,0
-3.65221035281138E-06,-1.91578656085767E-05,23.203125,0,0
-4.07523157264222E-06,-1.88248923223E-05,23.203125,0,0
-3.27272346112295E-06,-2.12536415347131E-05,23.203125,0,0
-1.57290628521878E-06,-2.18955738091609E-05,23.203125,0,0
-6.91327045387879E-07,-2.07522170967422E-05,23.203125,0,0
-3.29046173419556E-07,-1.91133713087766E-05,23.203125,0,0
5.27274266914901E-07,-1.74685119418427E-05,23.203125,0,0
-1.63006717457392E-07,-1.67370944836875E-05,23.203125,0,0
-9.31940576265333E-07,-1.75447185029043E-05,23.203125,0,0
4.24170252699696E-07,-1.23899417303619E-05,23.203125,0,0
1.685966566356E-07,-1.68223250511801E-05,23.203125,0,0
-1.37705592351267E-06,-1.30324087876943E-05,23.203125,0,0
-1.68225778907072E-06,-1.81581235665362E-05,23.203125,0,0
-1.03871957435331E-06,-1.58868406288093E-05,23.203125,0,0
-7.22563356703176E-07,-1.61450789164519E-05,23.203125,0,0
-1.0102475300755E-07,-1.34882420752547E-05,23.203125,0,0
-5.3402453659146E-07,-1.45071862789337E-05,23.203125,0,0
-2.60195201917668E-06,-1.39301009767223E-05,23.203125,0,0
-5.44151953363325E-06,-1.44444957186352E-05,23.203125,0,0
-6.55359644952114E-06,-1.51312624439015E-05,23.203125,0,0
-6.37486209598137E-06,-1.45839567267103E-05,23.203125,0,0
-6.59659190205275E-06,-1.49453062476823E-05,23.203125,0,0
-6.82807058183244E-06,-1.38629829962156E-05,23.203125,0,0
-5.64321726415074E-06,-1.44422401717748E-05,23.203125,0,0
-3.74872251995839E-06,-1.37611314130481E-05,23.203125,0,0
-2.54042038250191E-06,-1.35877435241127E-05,23.203125,0,0
-1.06567324564821E-06,-1.09498541860376E-05,23.203125,0,0
1.74159606558533E-06,-1.01978757811594E-05,23.203125,0,0
5.22261416335823E-06,-1.02219737527776E-05,23.203125,0,0
7.50950493966229E-06,-1.38063114718534E-05,23.203125,0,0
8.01197893451899E-06,-1.72530599229503E-05,23.203125,0,0
8.28742031444563E-06,-1.92428396985633E-05,23.203125,0,0
9.2599357230938E-06,-1.81592695298605E-05,23.203125,0,0
9.80943059403216E-06,-1.69390532391844E-05,23.203125,0,0
9.45180272537982E-06,-1.81384639290627E-05,23.203125,0,0
8.46539751364617E-06,-1.94402327906573E-05,23.203125,0,0
5.15062447448145E-06,-1.52571710714255E-05,23.203125,0,0
7.51055540604284E-06,-2.17964334296994E-05,23.203125,0,0
6.78074820825714E-06,-1.83634183485992E-05,23.203125,0,0
1.08493122752407E-05,-2.37618587561883E-05,23.203125,0,0
1.12392272058059E-05,-2.0346395103843E-05,23.203125,0,0
9.99758140096674E-06,-2.26188294618623E-05,23.203125,0,0
5.85794168728171E-06,-2.05992073460948E-05,23.203125,0,0
4.67102199763758E-06,-2.20886868191883E-05,23.203125,0,0
4.93557581648929E-06,-2.28072913159849E-05,23.203125,0,0
5.08659059050842E-06,-2.33231021411484E-05,23.203125,0,0
5.00662417834974E-06,-2.39235905610258E-05,23.203125,0,0
3.64304446520691E-06,-2.27573837037198E-05,23.203125,0,0
1.91568187801749E-06,-2.34075814660173E-05,23.203125,0,0
1.25879898860148E-06,-2.40258577832719E-05,23.203125,0,0
2.67345740212477E-06,-2.4807497538859E-05,23.203125,0,0
2.99107023238321E-06,-2.09822082979372E-05,23.203125,0,0
1.2734315077978E-06,-1.91059079952538E-05,23.203125,0,0
-1.80146423645056E-06,-1.74770048033679E-05,23.203125,0,0
-3.12768020194198E-06,-1.75311652128585E-05,23.203125,0,0
-3.35018899022543E-06,-1.53525106725283E-05,23.203125,0,0
-2.03900367523602E-06,-1.41114251164254E-05,23.203125,0,0
-7.41885799016018E-07,-1.22091096272925E-05,23.203125,0,0
7.7543262477775E-07,-1.31451124616433E-05,23.203125,0,0
2.56008502219629E-06,-1.49960151247797E-05,23.203125,0,0
4.57567603007192E-06,-1.6797028365545E-05,23.203125,0,0
4.83812209495227E-06,-1.8342867406318E-05,23.203125,0,0
5.02802913615596E-06,-1.83828578883549E-05,23.203125,0,0
5.71829650652944E-06,-1.44398763950448E-05,23.203125,0,0
1.08893618744332E-05,-2.05042779271025E-05,23.203125,0,0
1.28598558148951E-05,-1.47562222991837E-05,23.203125,0,0
1.53036926349159E-05,-1.83746706170496E-05,23.203125,0,0
1.32530976770795E-05,-1.67977486853488E-05,23.203125,0,0
1.18888929137029E-05,-2.00804715859704E-05,23.203125,0,0
9.32205330173019E-06,-2.0014520487166E-05,23.203125,0,0
9.15090004127705E-06,-2.14299889194081E-05,23.203125,0,0
9.64202990871854E-06,-1.95756456378149E-05,23.203125,0,0
1.02351514215115E-05,-1.66528716363246E-05,23.203125,0,0
1.08413705675048E-05,-1.56601545313606E-05,23.203125,0,0
1.03167840279639E-05,-1.64544562721858E-05,23.203125,0,0
9.48195975070121E-06,-1.83899046533043E-05,23.203125,0,0
7.40105133445468E-06,-1.89896218216745E-05,23.203125,0,0
4.85194732391392E-06,-2.03967883862788E-05,23.203125,0,0
2.77147591987159E-06,-1.91782237379812E-05,23.203125,0,0
3.38302402269619E-06,-2.05936357815517E-05,23.203125,0,0
3.08572634821758E-06,-2.2044818251743E-05,23.203125,0,0
-5.77021069148032E-07,-2.32139391300734E-05,23.203125,0,0
-6.56199381410261E-06,-2.16047301364597E-05,23.203125,0,0
-8.83842130861012E-06,-2.27186046686256E-05,23.203125,0,0
-8.08410368335899E-06,-2.39785076701082E-05,23.203125,0,0
-8.52569610287901E-06,-2.40971639868803E-05,23.203125,0,0
-9.88665851764381E-06,-2.27290274779079E-05,23.203125,0,0
-8.32864679978229E-06,-2.25763069465756E-05,23.203125,0,0
-5.45484726899304E-06,-2.25456387852319E-05,23.203125,0,0
-4.56476936960826E-06,-2.18262575799599E-05,23.203125,0,0
-6.10503639109083E-06,-1.64759021572536E-05,23.203125,0,0
-1.14899248728761E-05,-2.2755937607144E-05,23.203125,0,0
-1.15125594675192E-05,-1.68935239344137E-05,23.203125,0,0
-1.18938150990289E-05,-2.13414496101905E-05,23.203125,0,0
-8.60025465954095E-06,-1.61667667271104E-05,23.203125,0,0
-5.41071904081036E-06,-1.55632351379609E-05,23.203125,0,0
-1.75197669705085E-06,-1.27833718579495E-05,23.203125,0,0
-1.15497152819444E-06,-1.52960710693151E-05,23.203125,0,0
-1.64954258252692E-06,-1.62865799211431E-05,23.203125,0,0
-1.67327686995122E-06,-1.77458732650848E-05,23.203125,0,0
-1.20602237529965E-07,-1.81025534402579E-05,23.203125,0,0
1.88970295766921E-06,-1.61041280080099E-05,23.203125,0,0
3.83749647880904E-06,-1.60265153681394E-05,23.203125,0,0
5.30669740328449E-06,-1.5151431398408E-05,23.203125,0,0
4.75861952509149E-06,-1.55596499098465E-05,23.203125,0,0
4.32406386607909E-06,-1.42524631883134E-05,23.203125,0,0
3.29460112880042E-06,-1.62136639119126E-05,23.203125,0,0
2.59956846093701E-06,-1.61467669386184E-05,23.203125,0,0
2.22156768359127E-06,-1.73388034454547E-05,23.203125,0,0
3.17202966471086E-06,-1.80225688382052E-05,23.203125,0,0
4.23789788328577E-06,-1.93155592569383E-05,23.203125,0,0
6.68081065668957E-06,-1.83331558218924E-05,23.203125,0,0
8.84494875208475E-06,-1.86742672667606E-05,23.203125,0,0
1.0575234227872E-05,-1.72526451933663E-05,23.203125,0,0
1.14767417471739E-05,-1.59992232511286E-05,23.203125,0,0
1.23185582197038E-05,-1.59535302373115E-05,23.203125,0,0
1.29566369651002E-05,-1.62025517056463E-05,23.203125,0,0
9.7660476967576E-06,-1.32203631437733E-05,23.203125,0,0
1.25231154015637E-05,-1.80992101377342E-05,23.203125,0,0
6.58573799228179E-06,-1.41254922709777E-05,23.203125,0,0
7.68184145272244E-06,-1.90267055586446E-05,23.203125,0,0
5.14004887008923E-06,-1.63478325703181E-05,23.203125,0,0
7.15823261998594E-06,-1.6919420886552E-05,23.203125,0,0
6.43083467366523E-06,-1.20969416457228E-05,23.203125,0,0
7.00972123013344E-06,-9.21990522328997E-06,23.203125,0,0
7.19554282113677E-06,-7.55848350308952E-06,23.203125,0,0
8.11311747384025E-06,-8.1679290815373E-06,23.203125,0,0
8.57920713315252E-06,-8.56109272717731E-06,23.203125,0,0
7.74354703025892E-06,-6.98006533639273E-06,23.203125,0,0
5.90376566833584E-06,-6.82298286847072E-06,23.203125,0,0
2.27015107157058E-06,-8.86644374986645E-06,23.203125,0,0
6.43870805561164E-07,-1.42431745189242E-05,23.203125,0,0
-5.71408975247323E-07,-1.65332767210202E-05,23.203125,0,0
-4.80607056374538E-08,-1.80119659489719E-05,23.203125,0,0
-1.44604030083428E-07,-1.50710566231282E-05,23.203125,0,0
6.95267033279379E-07,-1.14482227218105E-05,23.203125,0,0
1.37349260853625E-07,-8.20644163468387E-06,23.203125,0,0
5.77512423660664E-07,-9.41715006774757E-06,23.203125,0,0
8.00444865944883E-07,-1.07850655695074E-05,23.203125,0,0
2.57888495980296E-06,-1.18721209219075E-05,23.203125,0,0
4.03647936764173E-06,-1.17473200589302E-05,23.203125,0,0
4.36785967394826E-06,-1.25416572700487E-05,23.203125,0,0
3.20125764119439E-06,-1.40965739774401E-05,23.203125,0,0
1.81830989731679E-06,-1.49709603647352E-05,23.203125,0,0
1.11740382635617E-06,-1.21319017125643E-05,23.203125,0,0
2.96695475299202E-06,-1.83921856660163E-05,23.203125,0,0
5.71046530239983E-06,-1.6502795915585E-05,23.203125,0,0
8.74016677698819E-06,-2.04911157197785E-05,23.203125,0,0
1.02540861917078E-05,-1.79547259904211E-05,23.203125,0,0
1.06271627373644E-05,-1.97052158910083E-05,23.203125,0,0
9.15940290724393E-06,-1.69973409356317E-05,23.203125,0,0
6.12212670603185E-06,-1.51925314639811E-05,23.203125,0,0
2.74988587989355E-06,-1.31177857838338E-05,23.203125,0,0
6.00322493937711E-07,-1.23988811537856E-05,23.203125,0,0
7.27105259556993E-07,-1.14850145109813E-05,23.203125,0,0
1.40549195748463E-06,-8.96393157745479E-06,23.203125,0,0
2.07776565730455E-06,-8.60821273818146E-06,23.203125,0,0
2.71255476036458E-06,-8.98529833648354E-06,23.203125,0,0
3.09753067995189E-06,-1.15391267172527E-05,23.203125,0,0
3.60078024641552E-06,-1.33675885081175E-05,23.203125,0,0
5.38973699804046E-06,-1.76780013134703E-05,23.203125,0,0
7.8776802183711E-06,-2.04834032047074E-05,23.203125,0,0
8.71290649229195E-06,-2.34130075114081E-05,23.203125,0,0
7.32574926587404E-06,-2.43866579694441E-05,23.203125,0,0
5.91225989410304E-06,-2.4739465516177E-05,23.203125,0,0
6.11211817158619E-06,-2.23447405005572E-05,23.203125,0,0
6.51118671157747E-06,-1.91150866157841E-05,23.203125,0,0
6.71191401124815E-06,-1.72932577697793E-05,23.203125,0,0
7.72874955146108E-06,-1.69153572642244E-05,23.203125,0,0
9.73236456047744E-06,-1.52717366290744E-05,23.203125,0,0
1.21183875307906E-05,-1.44981713674497E-05,23.203125,0,0
9.10026665223995E-06,-1.10276396299014E-05,23.203125,0,0
1.12788429760258E-05,-1.51509002535022E-05,23.203125,0,0
5.47882427781587E-06,-1.07997202576371E-05,23.203125,0,0
6.93949186825193E-06,-1.35887439682847E-05,23.203125,0,0
4.75160550195142E-06,-1.17368563223863E-05,23.203125,0,0
5.45396824236377E-06,-1.59167611855082E-05,23.203125,0,0
4.2728720472951E-06,-1.68046517501352E-05,23.203125,0,0
4.47020693172817E-06,-1.74162778421305E-05,23.203125,0,0
1.73599369190924E-06,-1.6592846804997E-05,23.203125,0,0
-5.81590256842901E-07,-1.54457902681315E-05,23.203125,0,0
-1.70187308867753E-06,-1.4899150301062E-05,23.203125,0,0
-2.98157624456508E-06,-1.45576150316629E-05,23.203125,0,0
-4.64150889456505E-06,-1.47375840242603E-05,23.203125,0,0
-7.85933661973104E-06,-1.33693774841959E-05,23.203125,0,0
-1.04571954580024E-05,-1.43447659866069E-05,23.203125,0,0
-1.33591383928433E-05,-1.56625519593945E-05,23.203125,0,0
-1.37594470288604E-05,-1.73099924722919E-05,23.203125,0,0
-1.49175984915928E-05,-1.65229521371657E-05,23.203125,0,0
-1.66105019161478E-05,-1.73848675331101E-05,23.203125,0,0
-1.88689391507069E-05,-1.77027086465387E-05,23.203125,0,0
-1.71048541233176E-05,-1.78819409484277E-05,23.203125,0,0
-1.36979879243881E-05,-1.7241487512365E-05,23.203125,0,0
-9.2048376245657E-06,-1.76662651938386E-05,23.203125,0,0
-6.13070187682752E-06,-1.76429730345262E-05,23.203125,0,0
-4.30988256994169E-06,-1.81284285645233E-05,23.203125,0,0
-3.63761637345306E-06,-2.0024459445267E-05,23.203125,0,0
-1.82088365363597E-06,-2.06671629712218E-05,23.203125,0,0
2.62339790424448E-06,-1.52417951539974E-05,23.203125,0,0
8.10972687759204E-06,-2.15499512705719E-05,23.203125,0,0
1.36330481836922E-05,-1.50539299283992E-05,23.203125,0,0
1.73856751644053E-05,-1.67122034326894E-05,23.203125,0,0
1.79483376996359E-05,-1.36774197017075E-05,23.203125,0,0
1.67908674484352E-05,-1.74795259226812E-05,23.203125,0,0
1.58970069605857E-05,-1.58046022988856E-05,23.203125,0,0
1.40375132104964E-05,-1.66234822245315E-05,23.203125,0,0
1.09662969407509E-05,-1.64497942023445E-05,23.203125,0,0
8.64822504809126E-06,-1.65707806445425E-05,23.203125,0,0
8.17001182440436E-06,-1.67834405147005E-05,23.203125,0,0
8.20240893517621E-06,-1.7088741515181E-05,23.203125,0,0
7.25913378119003E-06,-1.88479771168204E-05,23.203125,0,0
4.67629251943436E-06,-1.89447964658029E-05,23.203125,0,0
1.85477938430267E-06,-1.99273199541494E-05,23.203125,0,0
-1.26884663131932E-06,-1.87641835509567E-05,23.203125,0,0
-4.95492577101686E-06,-1.89406637218781E-05,23.203125,0,0
-8.43836460262537E-06,-1.69429040397517E-05,23.203125,0,0
-1.08379435914685E-05,-1.62788019224536E-05,23.203125,0,0
-1.13006608444266E-05,-1.35250347739202E-05,23.203125,0,0
-1.00407723948592E-05,-1.15875354822492E-05,23.203125,0,0
-8.4696221165359E-06,-1.0132043826161E-05,23.203125,0,0
-5.75680496694986E-06,-1.09357088149409E-05,23.203125,0,0
-1.35685490931792E-06,-1.05656226878637E-05,23.203125,0,0
2.92141385216382E-06,-1.19109708975884E-05,23.203125,0,0
6.73960130370688E-06,-1.54796816786984E-05,23.203125,0,0
1.01213145171641E-05,-1.76277389982715E-05,23.203125,0,0
1.00579391073552E-05,-1.45802387123695E-05,23.203125,0,0
1.52573629748076E-05,-2.00346275960328E-05,23.203125,0,0
1.19810310934554E-05,-1.53481942106737E-05,23.203125,0,0
1.30570924739004E-05,-2.15768177440623E-05,23.203125,0,0
9.24330015550368E-06,-2.04510924959322E-05,23.203125,0,0
9.8248874564888E-06,-2.17653359868564E-05,39.7265625,0,0
9.64358150667977E-06,-1.84178352355957E-05,39.7265625,0,0
1.27987250380102E-05,-1.86548950296128E-05,39.7265625,0,0
1.49896286529838E-05,-1.92590268852655E-05,39.7265625,0,0
1.49845836858731E-05,-2.0615327230189E-05,39.7265625,0,0
1.45391704791109E-05,-2.09731333598029E-05,39.7265625,0,0
1.37690331030171E-05,-1.98816196643747E-05,39.7265625,0,0
1.33437351905741E-05,-1.86846864380641E-05,39.7265625,0,0
1.16512846943806E-05,-1.50531395775033E-05,39.7265625,0,0
1.06441575553617E-05,-1.35150148707908E-05,39.7265625,0,0
9.58513282967033E-06,-1.1599506251514E-05,39.7265625,0,0
1.05448598333169E-05,-1.13367132144049E-05,39.7265625,0,0
9.96678863884881E-06,-8.76690228324151E-06,39.7265625,0,0
8.90795763552887E-06,-8.54034078656696E-06,39.7265625,0,0
6.53502092973213E-06,-9.05784690985456E-06,39.7265625,0,0
5.03562932863133E-06,-1.17711606435478E-05,39.7265625,0,0
3.08606763610442E-06,-1.29218087749905E-05,39.7265625,0,0
1.72937029674358E-06,-1.39156481964164E-05,39.7265625,0,0
-9.54978247591498E-08,-1.37197284857393E-05,39.7265625,0,0
-1.65489836945198E-06,-1.4197521522874E-05,39.7265625,0,0
-2.94136157208413E-06,-1.36109683808172E-05,39.7265625,0,0
-5.33228148924536E-06,-1.17636391223641E-05,39.7265625,0,0
-7.45167290006066E-06,-9.42140650295187E-06,39.7265625,0,0
-1.25194055726752E-05,-1.60878134920495E-05,39.7265625,0,0
-1.12572151920176E-05,-1.67407670232933E-05,39.7265625,0,0
-1.37083379740943E-05,-1.96837663679617E-05,39.7265625,0,0
-1.29426616695127E-05,-1.72441759787034E-05,39.7265625,0,0
-1.3191764082876E-05,-1.67237794812536E-05,39.7265625,0,0
-1.14584308903432E-05,-1.40741140057798E-05,39.7265625,0,0
-1.12140933197225E-05,-1.54385998030193E-05,39.7265625,0,0
-1.14513386506587E-05,-1.73160933627514E-05,39.7265625,0,0
-1.21021330414806E-05,-1.95818302017869E-05,39.7265625,0,0
-1.25945707623032E-05,-2.20151432586135E-05,39.7265625,0,0
-1.13393471110612E-05,-2.28436183533631E-05,39.7265625,0,0
-8.37409152154578E-06,-2.28876178880455E-05,39.7265625,0,0
-4.89218882648856E-06,-2.30213208851637E-05,39.7265625,0,0
-3.49856372849899E-06,-2.51105066126911E-05,39.7265625,0,0
-1.17321735615405E-06,-2.48490923695499E-05,39.7265625,0,0
2.70212990471919E-06,-2.4166456569219E-05,39.7265625,0,0
8.9489058154868E-06,-2.31150552281179E-05,39.7265625,0,0
1.39508465508698E-05,-2.38349093706347E-05,39.7265625,0,0
1.72653726622229E-05,-2.27300060942071E-05,39.7265625,0,0
1.88223784789443E-05,-2.22056969505502E-05,39.7265625,0,0
2.22322505578632E-05,-2.26846987061435E-05,39.7265625,0,0
2.78905772574944E-05,-2.41413490584819E-05,39.7265625,0,0
3.35994081979152E-05,-2.34707385970978E-05,39.7265625,0,0
3.76184616470709E-05,-2.05779342650203E-05,39.7265625,0,0
4.10776956414338E-05,-1.72775216924492E-05,39.7265625,0,0
4.28147905040532E-05,-1.63792483363068E-05,39.7265625,0,0
3.43481260642875E-05,-1.40039719553897E-05,39.7265625,0,0
4.80034177599009E-05,-2.07407720154151E-05,39.7265625,0,0
3.36700431944337E-05,-1.5304549378925E-05,39.7265625,0,0
3.86739302484784E-05,-1.73464650288224E-05,39.7265625,0,0
2.48165961238556E-05,-1.58417624334106E-05,39.7265625,0,0
2.2440830434789E-05,-2.088354267471E-05,39.7265625,0,0
1.25312517411658E-05,-2.07779903576011E-05,39.7265625,0,0
1.2236524526088E-05,-2.05382384592667E-05,39.7265625,0,0
1.00224915513536E-05,-1.88974372576922E-05,39.7265625,0,0
7.09710047885892E-06,-1.84923464985332E-05,39.7265625,0,0
2.40816098084906E-06,-1.93939504242735E-05,39.7265625,0,0
-4.30176942245453E-06,-1.97688841581112E-05,39.7265625,0,0
-6.52337848805473E-06,-1.9945753592765E-05,39.7265625,0,0
-1.01074992926442E-05,-1.91939616343006E-05,39.7265625,0,0
-1.06538100226317E-05,-2.02112041733926E-05,39.7265625,0,0
-1.46598977153189E-05,-1.96231903828448E-05,39.7265625,0,0
-1.42148373925011E-05,-2.03176750801504E-05,39.7265625,0,0
-1.72379077412188E-05,-1.95477223314811E-05,39.7265625,0,0
-1.55117450049147E-05,-1.90459359146189E-05,39.7265625,0,0
-1.47081173054175E-05,-1.49944016811787E-05,39.7265625,0,0
-9.75872808339773E-06,-1.11772596937953E-05,39.7265625,0,0
-9.20839102036553E-06,-9.37834010983352E-06,39.7265625,0,0
-1.0676419151423E-05,-1.1646779057628E-05,39.7265625,0,0
-1.4202892089088E-05,-1.41930649988353E-05,39.7265625,0,0
-1.46705779116019E-05,-1.63664171850542E-05,39.7265625,0,0
-1.45019248520839E-05,-1.75593067979207E-05,39.7265625,0,0
-1.45981457535527E-05,-1.88406811503228E-05,39.7265625,0,0
-1.19804317364469E-05,-1.62028154591098E-05,39.7265625,0,0
-1.59126520884456E-05,-2.11833412322449E-05,39.7265625,0,0
-9.24894629861228E-06,-1.34932115543052E-05,39.7265625,0,0
-1.0422219929751E-05,-1.63299591804389E-05,39.7265625,0,0
-5.65746449865401E-06,-1.31395490825525E-05,39.7265625,0,0
-6.85629038343905E-06,-1.92630977835506E-05,39.7265625,0,0
-5.47119861948886E-06,-2.0384979507071E-05,39.7265625,0,0
-7.74923864810262E-06,-2.22228918573819E-05,39.7265625,0,0
-7.83795621828176E-06,-2.22735034185462E-05,39.7265625,0,0
-6.77965545037296E-06,-2.29647430387558E-05,39.7265625,0,0
-3.68164614883426E-06,-2.38286520470865E-05,39.7265625,0,0
1.1667253829728E-07,-2.26082629524171E-05,39.7265625,0,0
2.52397285294137E-06,-2.07837965717772E-05,39.7265625,0,0
