biceps_emg, triceps_emg, subject_position, position_estimate, brace_position
-2.60007273027441E-05,1.12360930870636E-05,5.09765625,0,0
-2.8327953259577E-05,1.22119026855216E-05,5.09765625,0,0
-2.97372262139106E-05,9.50400954025099E-06,5.09765625,0,0
-3.20097060466651E-05,6.37076891507604E-06,5.09765625,0,0
-3.21572661050595E-05,5.151010100235E-06,5.09765625,0,0
-3.11476578644942E-05,5.90665240451926E-06,5.09765625,0,0
-2.97265651170164E-05,7.57576617615996E-06,5.09765625,0,0
-2.9060884116916E-05,7.97626853454858E-06,5.09765625,0,0
-2.31395843002247E-05,5.31082059751498E-06,5.09765625,0,0
-3.25084329233505E-05,6.62604770695907E-06,5.09765625,0,0
-2.39892124227481E-05,3.90985360354534E-06,5.09765625,0,0
-3.00100491585908E-05,5.72144062971347E-06,5.09765625,0,0
-2.56160819844808E-05,5.23518883710494E-06,5.09765625,0,0
-2.87940019916277E-05,8.02629165264079E-06,5.09765625,0,0
-2.61026852967916E-05,1.02482790680369E-05,5.09765625,0,0
-2.75732072623214E-05,1.07995247162762E-05,5.09765625,0,0
-2.64304999291198E-05,9.4274782895809E-06,5.09765625,0,0
-2.57089268416166E-05,8.33195917948615E-06,5.09765625,0,0
-2.51770143222529E-05,7.29621660866542E-06,5.09765625,0,0
-2.4145600036718E-05,7.29018984202412E-06,5.09765625,0,0
-2.57538304140326E-05,8.92244770511752E-06,5.09765625,0,0
-2.5448944143136E-05,1.04715563793434E-05,5.09765625,0,0
-2.73187361017335E-05,1.17129384307191E-05,5.09765625,0,0
-2.67735667875968E-05,1.13835085358005E-05,5.09765625,0,0
-2.8196500352351E-05,1.17239369501476E-05,5.09765625,0,0
-2.59349635598483E-05,1.13509086077102E-05,5.09765625,0,0
-2.54596325248713E-05,1.0075188583869E-05,5.09765625,0,0
-2.36877167480998E-05,7.97295888332883E-06,5.09765625,0,0
-2.4903309167712E-05,8.69351970322896E-06,5.09765625,0,0
-2.44523835135624E-05,1.06653242255561E-05,5.09765625,0,0
-2.46477266045986E-05,1.22626233860501E-05,5.09765625,0,0
-2.4220100385719E-05,1.25795932035544E-05,5.09765625,0,0
-2.41406542045297E-05,1.37741308208206E-05,5.09765625,0,0
-2.30695113714319E-05,1.59818464453565E-05,5.09765625,0,0
-2.18454842979554E-05,1.88885405805195E-05,5.09765625,0,0
-1.74614233401371E-05,1.82163003046298E-05,5.09765625,0,0
-2.43393897108035E-05,2.63505717157386E-05,5.09765625,0,0
-1.7836335246102E-05,1.87952427950222E-05,5.09765625,0,0
-2.14082501770463E-05,2.1591014956357E-05,5.09765625,0,0
-1.79094640770927E-05,1.75285167642869E-05,5.09765625,0,0
-2.22505477722734E-05,2.06998338398989E-05,5.09765625,0,0
-2.25192234211136E-05,1.93637733900687E-05,5.09765625,0,0
-2.45757837546989E-05,2.1513467800105E-05,5.09765625,0,0
-2.41996021941304E-05,2.31745434575714E-05,5.09765625,0,0
-2.39971232076641E-05,1.97232966456795E-05,5.09765625,0,0
-2.41284324147273E-05,8.39349922898691E-06,5.09765625,0,0
-2.42441874434007E-05,-2.64550726569723E-06,5.09765625,0,0
-2.60578854067717E-05,-1.14798649519798E-06,5.09765625,0,0
-2.58529962593457E-05,7.45933175494429E-06,5.09765625,0,0
-2.75386828434421E-05,1.63760341820307E-05,5.09765625,0,0
-2.7701065846486E-05,1.72583568200935E-05,5.09765625,0,0
-2.92809127131477E-05,1.62583110068226E-05,5.09765625,0,0
-2.81728298432427E-05,1.37345332404948E-05,5.09765625,0,0
-2.86846861854428E-05,1.40059210025356E-05,5.09765625,0,0
-2.76981390925357E-05,1.26412714962498E-05,5.09765625,0,0
-2.81346328847576E-05,1.23554109450197E-05,5.09765625,0,0
-2.67750292550772E-05,1.25597998703597E-05,5.09765625,0,0
-2.5902823836077E-05,1.58438306243625E-05,5.09765625,0,0
-2.52682311838726E-05,1.68008973560063E-05,5.09765625,0,0
-2.60535889538005E-05,1.48839053508709E-05,5.09765625,0,0
-2.63226411334472E-05,1.26587437989656E-05,5.09765625,0,0
-2.61876921285875E-05,1.39810381369898E-05,5.09765625,0,0
-2.04224670596886E-05,1.56768710439792E-05,5.09765625,0,0
-2.83700319414493E-05,2.31509620789438E-05,5.09765625,0,0
-2.02823848667322E-05,1.42744538607076E-05,5.09765625,0,0
-2.58338695857674E-05,9.65850995271467E-06,5.09765625,0,0
-2.24707346205832E-05,2.88256637759332E-06,5.09765625,0,0
-2.6132833227166E-05,1.08789890873595E-05,5.09765625,0,0
-2.4015031158342E-05,2.08017027034657E-05,5.09765625,0,0
-2.45504179474665E-05,2.92059085040819E-05,5.09765625,0,0
-2.3599086489412E-05,3.00795400107745E-05,5.09765625,0,0
-2.36458708968712E-05,2.69244283117587E-05,5.09765625,0,0
-2.52539648499805E-05,2.22411254071631E-05,5.09765625,0,0
-2.57205647358205E-05,1.67317339219153E-05,5.09765625,0,0
-2.62850244325818E-05,1.21386019600322E-05,5.09765625,0,0
-2.3457789211534E-05,8.40288612380391E-06,5.09765625,0,0
-2.19738412852166E-05,1.03829861473059E-05,5.09765625,0,0
-1.99529440578772E-05,1.20276536108577E-05,5.09765625,0,0
-2.25374533329159E-05,1.24504740597331E-05,5.09765625,0,0
-2.32333713938715E-05,9.78493062575581E-06,5.09765625,0,0
-2.45053070102585E-05,1.0664068213373E-05,5.09765625,0,0
-2.38005359278759E-05,1.24433445307659E-05,5.09765625,0,0
-2.48092364927288E-05,1.41696391438018E-05,5.09765625,0,0
-2.48001979343826E-05,1.35613763632136E-05,5.09765625,0,0
-2.56313796853647E-05,1.42950711961021E-05,5.09765625,0,0
-2.37931344599929E-05,1.60282052092953E-05,5.09765625,0,0
-2.0680699890363E-05,1.7673424736131E-05,5.09765625,0,0
-1.81295927177416E-05,1.69248032761971E-05,5.09765625,0,0
-1.73352200363297E-05,1.78252539626556E-05,5.09765625,0,0
-1.40515458042501E-05,1.78504942596192E-05,5.09765625,0,0
-2.09563986572903E-05,2.3883983885753E-05,5.09765625,0,0
-1.62385695148259E-05,8.63998138811439E-06,5.09765625,0,0
-1.90855189430295E-05,1.89704951480962E-06,5.09765625,0,0
-1.61089574248763E-05,-3.23727613249503E-06,5.09765625,0,0
-1.74011674971553E-05,5.20059757036506E-06,5.09765625,0,0
-1.64833727467339E-05,9.5264294941444E-06,5.09765625,0,0
-1.82093172043096E-05,1.21718203445198E-05,5.09765625,0,0
-1.99862515728455E-05,1.28474612210994E-05,5.09765625,0,0
-2.226745345979E-05,1.607454578334E-05,5.09765625,0,0
-2.3510045139119E-05,1.9107761545456E-05,5.09765625,0,0
-2.30140212806873E-05,1.88211706699803E-05,5.09765625,0,0
-2.32842685363721E-05,1.68146762007382E-05,5.09765625,0,0
-2.29560064326506E-05,1.09972997961449E-05,5.09765625,0,0
-2.40623794525163E-05,7.48294223740231E-06,5.09765625,0,0
-2.36212872550823E-05,4.0719364733377E-06,5.09765625,0,0
-2.44802959059598E-05,4.31654689236893E-06,5.09765625,0,0
-2.38295942835975E-05,4.66904930362944E-06,5.09765625,0,0
-2.43665635935031E-05,7.15589658284443E-06,5.09765625,0,0
-2.37509611906717E-05,7.01445242157206E-06,5.09765625,0,0
-2.31906451517716E-05,6.23635969532188E-06,5.09765625,0,0
-2.23928109335247E-05,4.36668960901443E-06,5.09765625,0,0
-2.42508795054164E-05,5.16441878062324E-06,5.09765625,0,0
-2.65452399617061E-05,4.67918243884924E-06,5.09765625,0,0
-2.83090212178649E-05,2.90508387479349E-06,5.09765625,0,0
-2.89037234324496E-05,1.27132727811841E-06,5.09765625,0,0
-2.89652598439716E-05,7.63535240366764E-07,5.09765625,0,0
-2.36796768149361E-05,1.27074599731714E-06,5.09765625,0,0
-3.42069506586995E-05,2.74889043794246E-06,5.09765625,0,0
-2.52791214734316E-05,3.2771590667835E-06,5.09765625,0,0
-2.91522082989104E-05,3.01135150948539E-06,5.09765625,0,0
-2.32077236432815E-05,3.02360058412887E-06,5.09765625,0,0
-2.66399893007474E-05,5.15616284246789E-06,5.09765625,0,0
-2.55168615694856E-05,7.51642755858484E-06,5.09765625,0,0
-2.82483797491295E-05,8.65085348777939E-06,5.09765625,0,0
-2.80217809631722E-05,9.23789139051223E-06,5.09765625,0,0
-2.72223624051549E-05,8.62910655996529E-06,5.09765625,0,0
-2.60242868534988E-05,7.28599616195424E-06,5.09765625,0,0
-2.4955736080301E-05,5.75852345718886E-06,5.09765625,0,0
-2.57781139225699E-05,5.22815435033408E-06,5.09765625,0,0
-2.4379332899116E-05,5.54007237951737E-06,5.09765625,0,0
-2.57004394370597E-05,6.50371794108651E-06,5.09765625,0,0
-2.53795042226557E-05,7.67868732509669E-06,5.09765625,0,0
-2.72411125479266E-05,8.74926990945823E-06,5.09765625,0,0
-2.59020416706335E-05,9.53486960497685E-06,5.09765625,0,0
-2.68832136498531E-05,1.02633011920261E-05,5.09765625,0,0
-2.63679103227332E-05,1.06894613054465E-05,5.09765625,0,0
-2.88420887954999E-05,1.10621886051376E-05,5.09765625,0,0
-2.92666500172345E-05,1.18091747935978E-05,5.09765625,0,0
-2.98784143524244E-05,1.16546061690315E-05,5.09765625,0,0
-2.9177524993429E-05,1.18094330900931E-05,5.09765625,0,0
-2.86430931737414E-05,1.3895030861022E-05,5.09765625,0,0
-2.65055550698889E-05,1.64059129019734E-05,5.09765625,0,0
-2.45455739786848E-05,1.61901571118506E-05,5.09765625,0,0
-1.98935194930527E-05,1.10003375084489E-05,5.09765625,0,0
-2.83675926766591E-05,1.35986219902406E-05,5.09765625,0,0
-2.17420238186605E-05,8.23240407044068E-06,5.09765625,0,0
-2.51126912189648E-05,1.19212118079304E-05,5.09765625,0,0
-1.84476484719198E-05,9.86541181191569E-06,5.09765625,0,0
-1.96806067833677E-05,1.19919513963396E-05,5.09765625,0,0
-1.6436111764051E-05,1.09400225483114E-05,5.09765625,0,0
-1.78931441041641E-05,1.29158488562098E-05,5.09765625,0,0
-1.90470727829961E-05,1.36135295178974E-05,5.09765625,0,0
-2.06769454962341E-05,1.24125726870261E-05,5.09765625,0,0
-2.15655436477391E-05,9.24614596442552E-06,5.09765625,0,0
-2.12738632399123E-05,5.89860201216652E-06,5.09765625,0,0
-2.28257631533779E-05,5.24546931046643E-06,5.09765625,0,0
-2.27458131121239E-05,4.68775442641345E-06,5.09765625,0,0
-2.44844850385562E-05,5.80102732783416E-06,5.09765625,0,0
-2.3519474780187E-05,5.88586271987879E-06,5.09765625,0,0
-2.33572354773059E-05,7.96432868810371E-06,5.09765625,0,0
-1.96621513168793E-05,8.92955176823307E-06,5.09765625,0,0
-1.7979669792112E-05,9.58611144596944E-06,5.09765625,0,0
-1.56845162564423E-05,8.14642862678738E-06,5.09765625,0,0
-1.68631504493533E-05,8.69782161316834E-06,5.09765625,0,0
-1.7489175661467E-05,9.31058002606733E-06,5.09765625,0,0
-1.84238087967969E-05,9.9162525657448E-06,5.09765625,0,0
-1.83883385034278E-05,9.51775200519478E-06,5.09765625,0,0
-1.96356540982379E-05,1.02312296803575E-05,5.09765625,0,0
-1.98358538909815E-05,1.02100466392585E-05,5.09765625,0,0
-1.97380977624562E-05,9.339906682726E-06,5.09765625,0,0
-1.66319750860566E-05,5.87110253036371E-06,5.09765625,0,0
-2.42440164583968E-05,6.46410808258224E-06,5.09765625,0,0
-1.88436133612413E-05,4.19106936533353E-06,5.09765625,0,0
-2.25716685235966E-05,8.48093077365775E-06,5.09765625,0,0
-1.93790474440902E-05,9.055509508471E-06,5.09765625,0,0
-2.20301262743305E-05,1.0333910722693E-05,5.09765625,0,0
-2.13797829928808E-05,8.64015873958124E-06,5.09765625,0,0
-2.40442859649193E-05,8.88389695319347E-06,5.09765625,0,0
-2.45528462983202E-05,1.03350612334907E-05,5.09765625,0,0
-2.339955244679E-05,1.24724783745478E-05,5.09765625,0,0
-2.08963901968673E-05,1.30115613501403E-05,5.09765625,0,0
-1.84144373633899E-05,1.14577214844758E-05,5.09765625,0,0
-1.83521788130747E-05,9.52159734879388E-06,5.09765625,0,0
-1.78654427145375E-05,6.99490374245215E-06,5.09765625,0,0
-1.96595028683078E-05,6.0299407778075E-06,5.09765625,0,0
-1.90685186680639E-05,5.50247887076694E-06,5.09765625,0,0
-1.98583056771895E-05,7.73486863181461E-06,5.09765625,0,0
-1.9411365428823E-05,9.90514035947854E-06,5.09765625,0,0
-2.07448447326897E-05,1.14465719889267E-05,5.09765625,0,0
-2.01569891942199E-05,1.16310784505913E-05,5.09765625,0,0
-2.00589383894112E-05,1.32701325128437E-05,5.09765625,0,0
-1.86779125215253E-05,1.4202209058567E-05,5.09765625,0,0
-1.90588907571509E-05,1.3456497072184E-05,5.09765625,0,0
-1.87906916835345E-05,1.26292115965043E-05,5.09765625,0,0
-1.82372932613362E-05,1.31265805976E-05,5.09765625,0,0
-1.91499584616395E-05,1.40823913170607E-05,5.09765625,0,0
-2.14742176467553E-05,1.52874454215635E-05,5.09765625,0,0
-1.92071584024234E-05,1.23894451462547E-05,5.09765625,0,0
-2.71416956820758E-05,1.8136441212846E-05,5.09765625,0,0
-1.89739366760477E-05,1.3930809473095E-05,5.09765625,0,0
-2.19323319470277E-05,1.6200738173211E-05,5.09765625,0,0
-1.70066905411659E-05,1.28094534375123E-05,5.09765625,0,0
-2.0239711375325E-05,1.42783110277378E-05,5.09765625,0,0
-2.03551153390436E-05,1.29425279737916E-05,5.09765625,0,0
-2.20737219933653E-05,1.3880187907489E-05,5.09765625,0,0
-2.07283173949691E-05,1.35305899675586E-05,5.09765625,0,0
-1.98217276192736E-05,1.23082118079765E-05,5.09765625,0,0
-1.97987337742234E-05,1.15602178993868E-05,5.09765625,0,0
-1.97544286493212E-05,1.14847553049913E-05,5.09765625,0,0
-2.2332844309858E-05,1.37083889057976E-05,5.09765625,0,0
-2.32337151828688E-05,1.58424554683734E-05,5.09765625,0,0
-2.52009049290791E-05,1.98923135030782E-05,5.09765625,0,0
-2.45019800786395E-05,2.1532976461458E-05,5.09765625,0,0
-2.52724621532252E-05,2.2080526832724E-05,5.09765625,0,0
-2.39213622990064E-05,2.04423195100389E-05,5.09765625,0,0
-2.53073649219004E-05,2.12866725632921E-05,5.09765625,0,0
-2.65953422058374E-05,2.21171285375021E-05,5.09765625,0,0
-2.91103169729467E-05,2.23725401156116E-05,5.09765625,0,0
-2.85860296571627E-05,1.98911930056056E-05,5.09765625,0,0
-2.78011466434691E-05,1.76567973539932E-05,5.09765625,0,0
-2.71410299319541E-05,1.5886771507212E-05,5.09765625,0,0
-2.72361940005794E-05,1.31055539895897E-05,5.09765625,0,0
-2.60882679867791E-05,8.6329582700273E-06,5.09765625,0,0
-2.56174444075441E-05,4.30201089329785E-06,5.09765625,0,0
-2.09715217351913E-05,7.12190001195268E-07,5.09765625,0,0
-3.01914933515945E-05,2.51748497248627E-06,5.09765625,0,0
-2.30366549658356E-05,5.20370758749777E-06,5.09765625,0,0
-2.83407371171052E-05,6.143978680484E-06,5.09765625,0,0
-2.56823823292507E-05,6.86009434502921E-06,5.09765625,0,0
-3.03457291011E-05,9.49657078308519E-06,5.09765625,0,0
-2.82189957943046E-05,1.05342514871154E-05,5.09765625,0,0
-2.81876436929451E-05,1.03243273770204E-05,5.09765625,0,0
-2.63848141912604E-05,1.03577331174165E-05,5.09765625,0,0
-2.64064037764911E-05,1.09385910036508E-05,5.09765625,0,0
-2.73588811978698E-05,1.28439487525611E-05,5.09765625,0,0
-2.70215987256961E-05,1.50119840327534E-05,5.09765625,0,0
-2.64850914390991E-05,1.53487508214312E-05,5.09765625,0,0
-2.38968532357831E-05,1.31753695313819E-05,5.09765625,0,0
-2.45991541305557E-05,1.06372608570382E-05,5.09765625,0,0
-2.40553854382597E-05,1.03556521935388E-05,5.09765625,0,0
-2.60494252870558E-05,1.26160575746326E-05,5.09765625,0,0
-2.55247960012639E-05,1.44267860378022E-05,5.09765625,0,0
-2.60113174590515E-05,1.36202779685846E-05,5.09765625,0,0
-2.37796539295232E-05,1.110813991545E-05,5.09765625,0,0
-2.32947986660292E-05,9.02979991224129E-06,5.09765625,0,0
-2.22738526645117E-05,7.94753577793017E-06,5.09765625,0,0
-2.40966819546884E-05,5.17937769473065E-06,5.09765625,0,0
-2.56869261647807E-05,-1.60406284521741E-06,5.09765625,0,0
-2.61300720012514E-05,-7.52687355998205E-06,5.09765625,0,0
-2.46743893512758E-05,-4.34702860729885E-06,5.09765625,0,0
-2.38809116126504E-05,6.49749063086347E-06,5.09765625,0,0
-1.97619956452399E-05,1.27785324366414E-05,5.09765625,0,0
-2.8037664378644E-05,1.72844593180344E-05,5.09765625,0,0
-2.14086940104607E-05,9.4807264758856E-06,5.09765625,0,0
-2.69610482064309E-05,1.15661787276622E-05,5.09765625,0,0
-2.31019985221792E-05,1.24841972137801E-05,5.09765625,0,0
-2.52417867159238E-05,1.73739990714239E-05,5.09765625,0,0
-2.25078802031931E-05,1.7480160749983E-05,5.09765625,0,0
-2.3479786250391E-05,1.80012757482473E-05,5.09765625,0,0
-2.27725922741229E-05,1.5945297491271E-05,5.09765625,0,0
-2.14314004551852E-05,1.33779194584349E-05,5.09765625,0,0
-2.00876984308707E-05,9.9063499874319E-06,5.09765625,0,0
-1.85868284461321E-05,6.33182298770407E-06,5.09765625,0,0
-1.90349255717592E-05,5.9389117268438E-06,5.09765625,0,0
-1.79238541022642E-05,7.02247143635759E-06,5.09765625,0,0
-1.96877608686918E-05,8.02317299530841E-06,5.09765625,0,0
-2.05061387532623E-05,1.31627234623011E-06,5.09765625,0,0
-2.39748696913011E-05,-8.79860817804001E-06,5.09765625,0,0
-2.38856646319618E-05,-1.52833599713631E-05,5.09765625,0,0
-2.38912507484201E-05,-8.75897967489436E-06,5.09765625,0,0
-2.24668656301219E-05,2.99190674013516E-06,5.09765625,0,0
-2.39245218836004E-05,1.28962119561038E-05,5.09765625,0,0
-2.4652677893755E-05,1.49355291796383E-05,5.09765625,0,0
-2.49042313953396E-05,1.19040332720033E-05,5.09765625,0,0
-2.23848910536617E-05,8.05173112894408E-06,5.09765625,0,0
-2.08612091228133E-05,6.36593722447287E-06,5.09765625,0,0
-2.15716627280926E-05,2.68868302555347E-06,5.09765625,0,0
-2.3610657081008E-05,-2.11616634260281E-06,5.09765625,0,0
-2.08429410122335E-05,-2.67365589934343E-06,5.09765625,0,0
-3.02521402772982E-05,4.22114652565142E-07,5.09765625,0,0
-2.32806632993743E-05,9.72045563685242E-06,5.09765625,0,0
-2.79605101241032E-05,1.38200566652813E-05,5.09765625,0,0
-2.36403884628089E-05,1.65055935212877E-05,5.09765625,0,0
-2.66840106633026E-05,1.90456194104627E-05,5.09765625,0,0
-2.49411714321468E-05,2.44004895648686E-05,5.09765625,0,0
-2.59007829299662E-05,2.89659183181357E-05,5.09765625,0,0
-2.47794268943835E-05,3.05013109027641E-05,5.09765625,0,0
-2.48789237957681E-05,2.7270534701529E-05,5.09765625,0,0
-2.49097120104125E-05,2.30844434554456E-05,5.09765625,0,0
-2.39422643062426E-05,1.9723551304196E-05,5.09765625,0,0
-2.48229007411283E-05,1.48260514833964E-05,5.09765625,0,0
-2.34453309531091E-05,7.66568518884014E-06,5.09765625,0,0
-2.3874346879893E-05,-2.54722181125544E-07,5.09765625,0,0
-2.26190495595802E-05,-4.39266750618117E-06,5.09765625,0,0
-2.47423486143816E-05,-2.09462837119645E-06,5.09765625,0,0
-2.52885365625843E-05,6.93176752974978E-06,5.09765625,0,0
-2.61574732576264E-05,1.58464390551671E-05,5.09765625,0,0
-2.38401462411275E-05,1.86294055311009E-05,5.09765625,0,0
-2.55964769166894E-05,1.49169027281459E-05,5.09765625,0,0
-2.76510127150686E-05,1.01168279798003E-05,5.09765625,0,0
-2.88889659714187E-05,7.23561834092834E-06,5.09765625,0,0
-2.76438313449034E-05,7.62846002544393E-06,5.09765625,0,0
-2.71462904493092E-05,9.38380708248587E-06,5.09765625,0,0
-2.64778300334001E-05,1.05568506114651E-05,5.09765625,0,0
-2.60627330135321E-05,9.40918198466534E-06,5.09765625,0,0
-2.2469277610071E-05,5.54775397176854E-06,5.09765625,0,0
-3.25810324284248E-05,8.23378013592446E-06,5.09765625,0,0
-2.52977224590722E-05,7.27673341316404E-06,5.09765625,0,0
-3.16391051455867E-05,9.30624901229749E-06,5.09765625,0,0
-2.74916892522015E-05,1.00706747616641E-05,5.09765625,0,0
-2.98734303214587E-05,1.46459869938553E-05,5.09765625,0,0
-2.7932725060964E-05,1.44624036693131E-05,5.09765625,0,0
-3.02755834127311E-05,1.1667599210341E-05,5.09765625,0,0
-3.05584180750884E-05,8.58405292092357E-06,5.09765625,0,0
-3.1445080821868E-05,9.2219188445597E-06,5.09765625,0,0
-3.17486628773622E-05,9.79065498540876E-06,5.09765625,0,0
-2.96363086818019E-05,8.96375877346145E-06,5.09765625,0,0
-2.83294411929091E-05,8.69928226165939E-06,5.09765625,0,0
-2.47239931923104E-05,8.82057247508783E-06,5.09765625,0,0
-2.4783661501715E-05,1.02613203125657E-05,5.09765625,0,0
-2.50706198130501E-05,1.11882291093934E-05,5.09765625,0,0
-2.8528902475955E-05,1.24053958643344E-05,5.09765625,0,0
-2.84897596429801E-05,1.21034563562716E-05,5.09765625,0,0
-2.94404562737327E-05,1.2212118235766E-05,5.09765625,0,0
-2.8539594495669E-05,1.15024622573401E-05,5.09765625,0,0
-3.01764703181107E-05,1.20092372526415E-05,5.09765625,0,0
-3.02296666632174E-05,1.33937564896769E-05,5.09765625,0,0
-3.00038154819049E-05,1.50852911247057E-05,5.09765625,0,0
-2.91211563308025E-05,1.42234021041077E-05,5.09765625,0,0
-2.91579908662243E-05,1.27145685837604E-05,5.09765625,0,0
-2.83040535578039E-05,1.29047075461131E-05,5.09765625,0,0
-2.74725498456974E-05,1.44208715937566E-05,5.09765625,0,0
-2.1526111595449E-05,1.23730587802129E-05,5.09765625,0,0
-2.87184720946243E-05,1.68359565577703E-05,5.09765625,0,0
-1.92555653484305E-05,1.2136135410401E-05,5.09765625,0,0
-2.45745031861588E-05,1.50230653161998E-05,5.09765625,0,0
-2.04477291845251E-05,1.01596851891372E-05,5.09765625,0,0
-2.33189457503613E-05,1.09719821921317E-05,5.09765625,0,0
-1.95063585124444E-05,9.40212703426369E-06,5.09765625,0,0
-2.01299808395561E-05,8.91629497346003E-06,5.09765625,0,0
-1.98952384380391E-05,8.42446661408758E-06,5.09765625,0,0
-2.10447688004933E-05,9.70434030023171E-06,5.09765625,0,0
-2.27602686209138E-05,1.18150828711805E-05,5.09765625,0,0
-2.25560506805778E-05,1.25251053759712E-05,5.09765625,0,0
-2.31504582188791E-05,1.23006902867928E-05,5.09765625,0,0
-2.15643121919129E-05,9.8798318504123E-06,5.09765625,0,0
-2.20474030356854E-05,9.71910139924148E-06,5.09765625,0,0
-1.85897752089659E-05,9.20650381885935E-06,5.09765625,0,0
-1.75086988747353E-05,9.3551952886628E-06,5.09765625,0,0
-1.61677617143141E-05,7.40002906240989E-06,5.09765625,0,0
-1.85270000656601E-05,7.36554193281336E-06,5.09765625,0,0
-1.81494669959648E-05,6.96821689416538E-06,5.09765625,0,0
-1.73287917277776E-05,7.85283191362396E-06,5.09765625,0,0
-1.40518186526606E-05,9.10546896193409E-06,5.09765625,0,0
-1.30875487229787E-05,1.06640718513518E-05,5.09765625,0,0
-1.23786030599149E-05,1.00628403743031E-05,5.09765625,0,0
-1.29017817016575E-05,9.32971943257144E-06,5.09765625,0,0
-1.30367179735913E-05,8.42721783556044E-06,5.09765625,0,0
-1.35314076032955E-05,6.70005510983174E-06,5.09765625,0,0
-1.35174805109273E-05,5.21194397151703E-06,5.09765625,0,0
-2.09589361475082E-05,9.81408811639994E-06,5.09765625,0,0
-1.83262054633815E-05,1.0027226380771E-05,5.09765625,0,0
-2.1498484784388E-05,9.9474427770474E-06,5.09765625,0,0
-1.81769555638311E-05,7.78454159444664E-06,5.09765625,0,0
-1.88622052519349E-05,7.85745851317188E-06,5.09765625,0,0
-1.77976689883508E-05,8.49704792926786E-06,5.09765625,0,0
-1.97991175809875E-05,1.07061068774783E-05,5.09765625,0,0
-2.08626079256646E-05,1.34072424771148E-05,5.09765625,0,0
-2.27599921345245E-05,1.57372960529756E-05,5.09765625,0,0
-2.48024498432642E-05,1.80710048880428E-05,5.09765625,0,0
-2.50487464654725E-05,2.04109255719231E-05,5.09765625,0,0
-2.47579027927713E-05,2.15815307456069E-05,5.09765625,0,0
-2.35827865253668E-05,2.06604272534605E-05,5.09765625,0,0
-2.43435661104741E-05,1.96226537809707E-05,5.09765625,0,0
-2.40218523686053E-05,1.84180880751228E-05,5.09765625,0,0
-2.60311080637621E-05,1.8010992789641E-05,5.09765625,0,0
-2.76098326139618E-05,1.77541387529345E-05,5.09765625,0,0
-3.00596948363818E-05,1.73899716173764E-05,5.09765625,0,0
-2.88605242531048E-05,1.49974730447866E-05,5.09765625,0,0
-2.61997975030681E-05,1.23317631732789E-05,5.09765625,0,0
-2.34167509916006E-05,1.06986144601251E-05,5.09765625,0,0
-2.39354067161912E-05,1.0919752639893E-05,5.09765625,0,0
-2.59169974015094E-05,1.15352595457807E-05,5.09765625,0,0
-2.80419972114032E-05,1.12321631604573E-05,5.09765625,0,0
-2.84004781860858E-05,1.05397930383333E-05,5.09765625,0,0
-2.8904640203109E-05,9.10711969481781E-06,5.09765625,0,0
-2.54467013292015E-05,6.66736559651326E-06,5.09765625,0,0
-3.75133349734824E-05,9.7488136816537E-06,5.09765625,0,0
-2.92269614874385E-05,7.85856718721334E-06,5.09765625,0,0
-3.44863219652325E-05,1.01611822174164E-05,5.09765625,0,0
-2.81597422144841E-05,9.75823240878526E-06,5.09765625,0,0
-3.12792799377348E-05,1.22551255117287E-05,5.09765625,0,0
-2.95039899356198E-05,1.23813724712818E-05,5.09765625,0,0
-3.11692056129687E-05,1.30629878185573E-05,5.09765625,0,0
-3.04308505292283E-05,1.4075690160098E-05,5.09765625,0,0
-3.03833057841985E-05,1.40281472340575E-05,5.09765625,0,0
-2.96136495308019E-05,1.17446197691606E-05,5.09765625,0,0
-2.73346868198132E-05,8.26549603516469E-06,5.09765625,0,0
-2.73547211691039E-05,6.72964188197511E-06,5.09765625,0,0
-2.61739805864636E-05,6.75410910844221E-06,5.09765625,0,0
-2.84387097053695E-05,8.43174166220706E-06,5.09765625,0,0
-2.84916914097266E-05,8.78468745213468E-06,5.09765625,0,0
-3.11106414301321E-05,9.44232124311384E-06,5.09765625,0,0
-3.07885893562343E-05,9.60973284236388E-06,5.09765625,0,0
-3.1812032830203E-05,1.01381665444933E-05,5.09765625,0,0
-2.91548694804078E-05,1.0334032594983E-05,5.09765625,0,0
-2.73858113359893E-05,1.11024965008255E-05,5.09765625,0,0
-2.5351540898555E-05,9.85796305030817E-06,5.09765625,0,0
-2.6277601136826E-05,6.89034322931548E-06,5.09765625,0,0
-2.57553529081633E-05,3.9225806176546E-06,5.09765625,0,0
-2.54347123700427E-05,3.39619668920932E-06,5.09765625,0,0
-2.4125731215463E-05,5.67823326491634E-06,5.09765625,0,0
-2.25107960432069E-05,8.40248594613513E-06,5.09765625,0,0
-1.6915242667892E-05,8.30959561426425E-06,5.09765625,0,0
-2.31742651521927E-05,1.24565476653515E-05,5.09765625,0,0
-1.67953367053997E-05,9.07128014659975E-06,5.09765625,0,0
-2.10267007787479E-05,9.0419152911636E-06,5.09765625,0,0
-1.79339604073903E-05,6.3680527091492E-06,5.09765625,0,0
-2.09863101190422E-05,7.46498380976846E-06,5.09765625,0,0
-1.87320292752702E-05,6.86287694406928E-06,5.09765625,0,0
-1.85581229743548E-05,6.88377667756868E-06,5.09765625,0,0
-1.67645648616599E-05,6.16904480921221E-06,5.09765625,0,0
-1.67291236721212E-05,6.30554950475926E-06,5.09765625,0,0
-1.81554569280706E-05,7.48991669752286E-06,5.09765625,0,0
-1.87897185242036E-05,9.35977823246503E-06,5.09765625,0,0
-1.97546251001768E-05,1.06639536170405E-05,5.09765625,0,0
-1.83604079211364E-05,1.00010529422434E-05,5.09765625,0,0
-1.99081878236029E-05,1.02487720141653E-05,5.09765625,0,0
-2.10831003641943E-05,1.01341811387101E-05,5.09765625,0,0
-2.42944861383876E-05,1.04478240245953E-05,5.09765625,0,0
-2.47455664066365E-05,8.86408997757826E-06,5.09765625,0,0
-2.59651933447458E-05,7.61016917749657E-06,5.09765625,0,0
-2.51644487434532E-05,6.05562263444881E-06,5.09765625,0,0
-2.62365192611469E-05,5.78703838982619E-06,5.09765625,0,0
-2.61633304035058E-05,5.84827284910716E-06,5.09765625,0,0
-2.52585341513623E-05,6.76049921821686E-06,5.09765625,0,0
-2.31901558436221E-05,6.78661672282033E-06,5.09765625,0,0
-2.25615694944281E-05,7.6168780651642E-06,5.09765625,0,0
-2.19456433114829E-05,9.21241917239968E-06,5.09765625,0,0
-2.10878624784527E-05,9.38563516683644E-06,5.09765625,0,0
-1.59421451826347E-05,5.31256046087947E-06,5.09765625,0,0
-2.1840050976607E-05,7.28383383830078E-06,5.09765625,0,0
-1.67550842888886E-05,6.00108205617289E-06,5.09765625,0,0
-2.34566869039554E-05,7.07803474142565E-06,5.09765625,0,0
-2.25579915422713E-05,4.77732510262285E-06,5.09765625,0,0
-2.54810456681298E-05,5.95288702243124E-06,5.09765625,0,0
-2.27535765588982E-05,6.00455405219691E-06,5.09765625,0,0
-2.23089973587776E-05,6.53442839393392E-06,5.09765625,0,0
-2.0924240743625E-05,6.96465031069238E-06,5.09765625,0,0
-2.13229941437021E-05,8.00364887254545E-06,5.09765625,0,0
-2.20286601688713E-05,6.41931274003582E-06,5.09765625,0,0
-2.10342550417408E-05,2.78419156529708E-06,5.09765625,0,0
-2.03302843146957E-05,1.96365050442182E-07,5.09765625,0,0
-1.90667869901517E-05,-2.07815631370067E-07,5.09765625,0,0
-2.10697780858027E-05,2.5313484002254E-06,5.09765625,0,0
-2.11678216146538E-05,5.81069707550341E-06,5.09765625,0,0
-2.15621785173425E-05,1.04710125015117E-05,5.09765625,0,0
-1.91163853742182E-05,1.5304332919186E-05,5.09765625,0,0
-1.84053624252556E-05,2.10642720048781E-05,5.09765625,0,0
-1.67126545420615E-05,2.3349672119366E-05,5.09765625,0,0
-1.71176870935597E-05,2.03815252461936E-05,5.09765625,0,0
-1.75333134393441E-05,1.38125560624758E-05,5.09765625,0,0
-1.90772443602327E-05,8.32286150398431E-06,5.09765625,0,0
-1.89785969268996E-05,2.68348730969592E-06,5.09765625,0,0
-1.96677101484966E-05,-3.34093874698738E-06,5.09765625,0,0
-2.06170661840588E-05,-5.23129074281314E-06,5.09765625,0,0
-2.12299419217743E-05,2.83208578366612E-06,5.09765625,0,0
-1.70216808328405E-05,1.66347435879288E-05,5.09765625,0,0
-2.3133892682381E-05,3.4229062293889E-05,5.09765625,0,0
-1.65331712196348E-05,3.65277192031499E-05,5.09765625,0,0
-2.1058334823465E-05,3.51310300175101E-05,5.09765625,0,0
-1.74237302417168E-05,2.63436522800475E-05,5.09765625,0,0
-1.98385187104577E-05,2.19697431020904E-05,5.09765625,0,0
-1.83120628207689E-05,1.60485033120494E-05,5.09765625,0,0
-2.07876182685141E-05,1.05717017504503E-05,5.09765625,0,0
-2.13672155950917E-05,4.44861552750808E-06,5.09765625,0,0
-2.2126061594463E-05,1.06973902802565E-06,5.09765625,0,0
-2.27349719352787E-05,2.75902334578859E-06,5.09765625,0,0
-2.20559722947655E-05,7.30804822524078E-06,5.09765625,0,0
-2.31325666391058E-05,1.23641029858845E-05,5.09765625,0,0
-2.38925022131298E-05,1.4355717212311E-05,5.09765625,0,0
-2.75966249319026E-05,1.62738688231912E-05,5.09765625,0,0
-2.89425533992471E-05,1.60232630150858E-05,5.09765625,0,0
-3.14408462145366E-05,1.58596758410567E-05,5.09765625,0,0
-3.17098310915753E-05,1.44590085255913E-05,5.09765625,0,0
-3.32247072947212E-05,1.40166321216384E-05,5.09765625,0,0
-3.24171742249746E-05,1.35176187541219E-05,5.09765625,0,0
-3.31371411448345E-05,1.44762452691793E-05,5.09765625,0,0
-3.30006987496745E-05,1.46454367495608E-05,5.09765625,0,0
-3.27415873471182E-05,1.55488996824715E-05,5.09765625,0,0
-3.09617753373459E-05,1.51376189023722E-05,5.09765625,0,0
-3.14731332764495E-05,1.37228325911565E-05,5.09765625,0,0
-3.33291245624423E-05,1.32036257127766E-05,5.09765625,0,0
-3.31305891450029E-05,1.32813593154424E-05,5.09765625,0,0
-2.44951497734291E-05,1.0762645615614E-05,5.09765625,0,0
-3.44514082826208E-05,1.48859371620347E-05,5.09765625,0,0
-2.72264387604082E-05,1.04536002254463E-05,5.09765625,0,0
-3.44965919794049E-05,1.28604669953347E-05,5.09765625,0,0
-2.83589943137486E-05,9.84850885288324E-06,5.09765625,0,0
-3.23904787364881E-05,1.13851219794014E-05,5.09765625,0,0
-3.10434006678406E-05,1.20791701192502E-05,5.09765625,0,0
-3.3406111469958E-05,1.44773257488851E-05,5.09765625,0,0
-3.26597873936407E-05,1.52266002260149E-05,5.09765625,0,0
-3.22901760227978E-05,1.50954874698073E-05,5.09765625,0,0
-3.11157382384408E-05,1.5331734175561E-05,5.09765625,0,0
-2.91453798126895E-05,1.60666550073074E-05,5.09765625,0,0
-2.97433562082006E-05,1.74485812749481E-05,5.09765625,0,0
-2.77749404631322E-05,1.59520477609476E-05,5.09765625,0,0
-2.8513248253148E-05,1.20563599921297E-05,5.09765625,0,0
-2.6982383133145E-05,2.92666072709835E-06,5.09765625,0,0
-2.78823663393268E-05,-5.10408926857053E-06,5.09765625,0,0
-2.48060168814845E-05,-7.10218228050508E-06,5.09765625,0,0
-2.36858813877916E-05,4.78607944387477E-07,5.09765625,0,0
-2.11109763768036E-05,8.94082404556684E-06,5.09765625,0,0
-2.20916881517041E-05,1.32468112497008E-05,5.09765625,0,0
-2.2730799173587E-05,1.25224860312301E-05,5.09765625,0,0
-2.48365086008562E-05,1.16958181024529E-05,5.09765625,0,0
-2.56612947850954E-05,1.1233493751206E-05,5.09765625,0,0
-2.62098656094167E-05,1.0689560440369E-05,5.09765625,0,0
-2.39139080804307E-05,1.00579600257333E-05,5.09765625,0,0
-2.17738288483815E-05,1.03543206932954E-05,5.09765625,0,0
-1.6509678971488E-05,8.58845578477485E-06,5.09765625,0,0
-2.3117409000406E-05,1.21805442176992E-05,5.09765625,0,0
-1.87632394954562E-05,1.10739174488117E-05,5.09765625,0,0
-2.4133087208611E-05,1.49251300172182E-05,5.09765625,0,0
-2.00499307538848E-05,1.34367828650284E-05,5.09765625,0,0
-2.13102302950574E-05,1.66424724739045E-05,5.09765625,0,0
-1.9143028112012E-05,1.7302145352005E-05,5.09765625,0,0
-2.04306143132271E-05,1.7227324860869E-05,5.09765625,0,0
-1.95938646356808E-05,1.47672117236652E-05,5.09765625,0,0
-1.99593996512704E-05,1.21015273180092E-05,5.09765625,0,0
-2.13148960028775E-05,1.06384250102565E-05,5.09765625,0,0
-2.07839693757705E-05,9.91573688224889E-06,5.09765625,0,0
-1.94722688320326E-05,1.01070481832721E-05,5.09765625,0,0
-1.69015875144396E-05,1.0801867574628E-05,5.09765625,0,0
-1.83508091140538E-05,1.35961063278955E-05,5.09765625,0,0
-1.91264007298741E-05,1.38424593387754E-05,5.09765625,0,0
-2.040120671154E-05,1.29055679281009E-05,5.09765625,0,0
-1.85394019354135E-05,1.10589398900629E-05,5.09765625,0,0
-1.86848046723753E-05,1.16014170998824E-05,5.09765625,0,0
-1.73647822521161E-05,1.13888654595939E-05,5.09765625,0,0
-1.78065329237143E-05,1.02259482446243E-05,5.09765625,0,0
-1.83718675543787E-05,7.52749247112661E-06,5.09765625,0,0
-2.09088630072074E-05,7.29918610886671E-06,5.09765625,0,0
-2.21680784306955E-05,8.91734271135647E-06,5.09765625,0,0
-2.27307718887459E-05,1.21740067697829E-05,5.09765625,0,0
-2.25515177589841E-05,1.77269394043833E-05,5.09765625,0,0
-2.34482668020064E-05,2.42370242631296E-05,5.09765625,0,0
-1.97431927517755E-05,2.13428302231478E-05,5.09765625,0,0
-2.75313323072623E-05,2.64670179603854E-05,5.09765625,0,0
-1.94863059732597E-05,1.43649631354492E-05,5.09765625,0,0
-2.2983418602962E-05,1.83685497177066E-05,5.09765625,0,0
-1.86127181223128E-05,1.12992684080382E-05,5.09765625,0,0
-2.31235499086324E-05,1.02664234873373E-05,5.09765625,0,0
-2.20124820771161E-05,-1.26473969430663E-06,5.09765625,0,0
-2.23036659008358E-05,-1.05454273580108E-05,5.09765625,0,0
-2.02439623535611E-05,-1.26644144984311E-05,5.09765625,0,0
-2.00647064048098E-05,-2.47216667048633E-06,5.09765625,0,0
-2.12058403121773E-05,1.00926945378887E-05,5.09765625,0,0
-2.08424280572217E-05,1.53823275468312E-05,5.09765625,0,0
-2.17758497456089E-05,1.56087789946469E-05,5.09765625,0,0
-2.10299022000981E-05,1.12593452286092E-05,5.09765625,0,0
-2.2527636247105E-05,9.37682034418685E-06,5.09765625,0,0
-2.23513270611875E-05,5.20480989507632E-06,5.09765625,0,0
-2.40534900513012E-05,4.54493056167848E-06,5.09765625,0,0
-2.25267576752231E-05,3.63123399438336E-06,5.09765625,0,0
-2.27294767682906E-05,6.01003011979628E-06,5.09765625,0,0
-2.22904272959568E-05,5.73845727558364E-06,5.09765625,0,0
-2.3890253942227E-05,5.93090862821555E-06,5.09765625,0,0
-2.369338835706E-05,3.63958838534018E-06,5.09765625,0,0
-2.3887905626907E-05,4.0788631849864E-06,5.09765625,0,0
-2.25216226681368E-05,5.17654007126112E-06,5.09765625,0,0
-2.16948701563524E-05,7.31753425498027E-06,5.09765625,0,0
-2.07693028642097E-05,7.87462067819433E-06,5.09765625,0,0
-1.916715700645E-05,8.74234137882013E-06,5.09765625,0,0
-1.4592386833101E-05,9.98532868834445E-06,5.09765625,0,0
-2.1471281797858E-05,1.40770398502355E-05,5.09765625,0,0
-1.78350128408056E-05,1.05647031887202E-05,5.09765625,0,0
-2.17198776226724E-05,1.29730815388029E-05,5.09765625,0,0
-1.84553264261922E-05,1.11430226752418E-05,5.09765625,0,0
-2.07403845706722E-05,1.28977244457928E-05,5.09765625,0,0
-1.93249761650804E-05,1.14619715532172E-05,5.09765625,0,0
-2.02904848265462E-05,9.65081289905356E-06,5.09765625,0,0
-2.15226355066989E-05,8.4688499555341E-06,5.09765625,0,0
-2.27840482693864E-05,8.9018139988184E-06,5.09765625,0,0
-2.09680019906955E-05,9.88390092970803E-06,5.09765625,0,0
-1.79143062268849E-05,1.13649502964108E-05,5.09765625,0,0
-1.84963882929878E-05,1.43878551170928E-05,5.09765625,0,0
-1.9284307199996E-05,1.57689082698198E-05,5.09765625,0,0
-2.22163198486669E-05,1.68791320902528E-05,5.09765625,0,0
-2.39946912188316E-05,1.61142816068605E-05,5.09765625,0,0
-2.63710626313696E-05,1.63302702276269E-05,5.09765625,0,0
-2.53865364356898E-05,1.62676715262933E-05,5.09765625,0,0
-2.41483339777915E-05,1.71676620084327E-05,5.09765625,0,0
-2.1860276319785E-05,1.63332824740792E-05,5.09765625,0,0
-2.30384048336418E-05,1.6141153537319E-05,5.09765625,0,0
-2.48078686126973E-05,1.60612908075564E-05,5.09765625,0,0
-2.61540808423888E-05,1.6364365365007E-05,5.09765625,0,0
-2.55498016485944E-05,1.4521219782182E-05,5.09765625,0,0
-2.54226979450323E-05,1.21721204777714E-05,5.09765625,0,0
-2.51688834396191E-05,1.14823214971693E-05,5.09765625,0,0
-2.52982135862112E-05,1.23809686556342E-05,5.09765625,0,0
-2.1920181097812E-05,1.17113322630757E-05,5.09765625,0,0
-3.26009540003724E-05,1.74278266058536E-05,5.09765625,0,0
-2.53414909821004E-05,1.3200675311964E-05,5.09765625,0,0
-2.76532064162893E-05,1.5617970348103E-05,5.09765625,0,0
-2.11902079172432E-05,1.4622532944486E-05,5.09765625,0,0
-2.47452826442895E-05,1.87040750461165E-05,5.09765625,0,0
-2.32691254495876E-05,1.85109001904493E-05,5.09765625,0,0
-2.49411223194329E-05,1.74869019247126E-05,5.09765625,0,0
-2.39435212279204E-05,1.57657104864484E-05,5.09765625,0,0
-2.34581457334571E-05,1.51733665916254E-05,5.09765625,0,0
-2.4631519409013E-05,1.50187497638399E-05,5.09765625,0,0
-2.66073675447842E-05,1.37822353281081E-05,5.09765625,0,0
-2.99700168397976E-05,1.36338485390297E-05,5.09765625,0,0
-2.95320351142436E-05,1.25971046145423E-05,5.09765625,0,0
-2.99817220366094E-05,1.26171717056422E-05,5.09765625,0,0
-2.79245650744997E-05,1.15290822577663E-05,5.09765625,0,0
-2.8574775569723E-05,1.19579235615674E-05,5.09765625,0,0
-2.82814216916449E-05,1.16587198135676E-05,5.09765625,0,0
-3.11278163280804E-05,1.21451830636943E-05,5.09765625,0,0
-3.12413794745225E-05,1.12369007183588E-05,5.09765625,0,0
-3.20503459079191E-05,9.49342029343825E-06,5.09765625,0,0
-3.18765123665798E-05,6.0972702158324E-06,5.09765625,0,0
-3.31346818711609E-05,4.5347055674938E-06,5.09765625,0,0
-3.22446685458999E-05,4.75253273179987E-06,5.09765625,0,0
-3.14844292006455E-05,7.24416622688295E-06,5.09765625,0,0
-3.09989263769239E-05,9.28773170016939E-06,5.09765625,0,0
-3.04533914459171E-05,1.00605248007923E-05,5.09765625,0,0
-2.41023262788076E-05,8.03336297394708E-06,5.09765625,0,0
-3.34583382937126E-05,9.83913741947617E-06,5.09765625,0,0
-2.49656168307411E-05,5.39891561857075E-06,5.09765625,0,0
-3.18326674459968E-05,6.31038574283593E-06,5.09765625,0,0
-2.71542739938013E-05,3.48673597727611E-06,5.09765625,0,0
-3.12386873702053E-05,5.01184968015878E-06,5.09765625,0,0
-2.92380555038108E-05,3.63830940841581E-06,5.09765625,0,0
-3.05409485008568E-05,3.83133237846778E-06,5.09765625,0,0
-2.8692340492853E-05,5.11375083078747E-06,5.09765625,0,0
-2.77052313322201E-05,6.99293877914897E-06,5.09765625,0,0
-2.66175138676772E-05,6.96106008035713E-06,5.09765625,0,0
-2.47577936534071E-05,3.34452693095955E-06,5.09765625,0,0
-2.69224692601711E-05,-1.59707224156591E-06,5.09765625,0,0
-2.76657556241844E-05,-3.98268412027392E-06,5.09765625,0,0
-2.99489038297907E-05,8.3643794823729E-07,5.09765625,0,0
-2.86918657366186E-05,7.44238423067145E-06,5.09765625,0,0
-3.01416930597043E-05,1.22210421977798E-05,5.09765625,0,0
-2.87260336335748E-05,1.16985474960529E-05,5.09765625,0,0
-2.8855260097771E-05,1.03448173831566E-05,5.09765625,0,0
-2.69329902948812E-05,8.34586990094977E-06,5.09765625,0,0
-2.81540360447252E-05,7.88468150858535E-06,5.09765625,0,0
-2.82508644886548E-05,8.4275552580948E-06,5.09765625,0,0
-2.86992799374275E-05,1.08169087980059E-05,5.09765625,0,0
-2.71383632934885E-05,1.26063223433448E-05,5.09765625,0,0
-2.65578819380607E-05,1.31272108774283E-05,5.09765625,0,0
-2.65675098489737E-05,1.23898253150401E-05,5.09765625,0,0
-2.70252876362065E-05,1.13829728434212E-05,5.09765625,0,0
-2.15350919461343E-05,8.31176112114917E-06,5.09765625,0,0
-2.98942704830552E-05,1.08767681012978E-05,5.09765625,0,0
-2.1359459424275E-05,7.79461697675288E-06,5.09765625,0,0
-2.55116174230352E-05,1.15459533844842E-05,5.09765625,0,0
-2.12814775295556E-05,1.16731944217463E-05,5.09765625,0,0
-2.4975650376291E-05,1.42294602483162E-05,5.09765625,0,0
-2.15623931580922E-05,1.14654503704514E-05,5.09765625,0,0
-2.20373731281143E-05,8.2835058492492E-06,5.09765625,0,0
-2.04604748432757E-05,6.20911487203557E-06,5.09765625,0,0
-1.90071496035671E-05,5.90762419960811E-06,5.09765625,0,0
-1.88887734111631E-05,7.98286964709405E-06,5.09765625,0,0
-1.89064212463563E-05,1.19023734441726E-05,5.09765625,0,0
-1.99896676349454E-05,1.55743291543331E-05,5.09765625,0,0
-1.85906719707418E-05,1.61933967319783E-05,5.09765625,0,0
-1.95739976334153E-05,1.65876754181227E-05,5.09765625,0,0
-1.85989811143372E-05,1.5001180145191E-05,5.09765625,0,0
-2.0539195247693E-05,1.32682444018428E-05,5.09765625,0,0
-1.99607584363548E-05,1.03554402812733E-05,5.09765625,0,0
-2.06753102247603E-05,8.88890645001084E-06,5.09765625,0,0
-1.89267320820363E-05,7.22070444680867E-06,5.09765625,0,0
-1.86798170034308E-05,6.7100145315635E-06,5.09765625,0,0
-1.70291932590771E-05,6.17149726167554E-06,5.09765625,0,0
-1.7559113985044E-05,5.6049070735753E-06,5.09765625,0,0
-1.76593075593701E-05,6.09801963946666E-06,5.09765625,0,0
-1.83624688361306E-05,7.97235770733096E-06,5.09765625,0,0
-1.84404543688288E-05,8.56979113450507E-06,5.09765625,0,0
-1.84329092007829E-05,8.08560162113281E-06,5.09765625,0,0
-1.48698081829934E-05,7.78881349106086E-06,5.09765625,0,0
-2.11952792597003E-05,1.31044316731277E-05,5.09765625,0,0
-1.64221182785695E-05,1.18710258902865E-05,5.09765625,0,0
-2.1293933968991E-05,1.13314163172618E-05,5.09765625,0,0
-2.09622958209366E-05,6.7886567194364E-06,5.09765625,0,0
-2.54008227784652E-05,7.22883851267397E-06,5.09765625,0,0
-2.31895210163202E-05,8.31620764074614E-06,5.09765625,0,0
-2.23280767386314E-05,1.03098172985483E-05,5.09765625,0,0
-2.19822413782822E-05,1.23286245070631E-05,5.09765625,0,0
-2.27155287575442E-05,1.35329000841011E-05,5.09765625,0,0
-2.36402302107308E-05,1.41865566547494E-05,5.09765625,0,0
-2.39442979363957E-05,1.44952900882345E-05,5.09765625,0,0
-2.61910608969629E-05,1.40727333928226E-05,5.09765625,0,0
-2.71986755251419E-05,1.20603763207328E-05,5.09765625,0,0
-2.82283072010614E-05,1.21520251923357E-05,5.09765625,0,0
-2.58211402979214E-05,1.48109238580219E-05,5.09765625,0,0
-2.44896327785682E-05,1.94191343325656E-05,5.09765625,0,0
-2.24775176320691E-05,2.04943462449592E-05,5.09765625,0,0
-2.30326568271266E-05,1.78222835529596E-05,5.09765625,0,0
-2.26436022785492E-05,1.24477373901755E-05,5.09765625,0,0
-2.27376403927337E-05,9.30232454265933E-06,5.09765625,0,0
-2.18520217458718E-05,9.50581488723401E-06,5.09765625,0,0
-2.27528016694123E-05,1.14841895992868E-05,5.09765625,0,0
-2.32316597248428E-05,1.07497571661952E-05,5.09765625,0,0
-2.30209898290923E-05,7.67831534176366E-06,5.09765625,0,0
-2.25862968363799E-05,4.72494275527424E-06,5.09765625,0,0
-2.31308222282678E-05,3.02500279758533E-06,5.09765625,0,0
-1.97331610252149E-05,3.68887936019746E-06,5.09765625,0,0
-2.83306653727777E-05,7.7101913120714E-06,5.09765625,0,0
-2.16335538425483E-05,8.50780725158984E-06,5.09765625,0,0
-2.66160677711014E-05,8.6245463535306E-06,5.09765625,0,0
-2.24220239033457E-05,7.87645603850251E-06,5.09765625,0,0
-2.49409531534184E-05,9.32001057663001E-06,5.09765625,0,0
-2.21375794353662E-05,1.01012456070748E-05,5.09765625,0,0
-2.24415580305504E-05,1.03206457424676E-05,5.09765625,0,0
-2.15881300391629E-05,1.09320844785543E-05,5.09765625,0,0
-2.08356650546193E-05,1.1052346053475E-05,5.09765625,0,0
-1.96517976291943E-05,1.04077453215723E-05,5.09765625,0,0
-1.84160780918319E-05,9.93158300843788E-06,5.09765625,0,0
-1.9885943402187E-05,1.05081235233229E-05,5.09765625,0,0
-1.90372920769732E-05,1.17031995614525E-05,5.09765625,0,0
-1.87893510883441E-05,1.41401869768742E-05,5.09765625,0,0
-1.68047899933299E-05,1.62042324518552E-05,5.09765625,0,0
-1.87572131835623E-05,1.70081821124768E-05,5.09765625,0,0
-1.94039621419506E-05,1.7055994248949E-05,5.09765625,0,0
-2.09733843803406E-05,1.76031608134508E-05,5.09765625,0,0
-1.99675650947029E-05,1.75494642462581E-05,5.09765625,0,0
-2.06704298761906E-05,1.60145027621184E-05,5.09765625,0,0
-2.03779472940369E-05,1.31983742903685E-05,5.09765625,0,0
-2.08500096050557E-05,9.925998710969E-06,5.09765625,0,0
-2.05223477678373E-05,4.4555772547028E-06,5.09765625,0,0
-2.08910660148831E-05,-2.31006742978934E-06,5.09765625,0,0
-2.10842499654973E-05,-2.19929165723443E-06,5.09765625,0,0
-2.2942336727283E-05,6.90798196956166E-06,5.09765625,0,0
-2.17928427446168E-05,1.48342332977336E-05,5.09765625,0,0
-3.18713719025254E-05,2.43816393776797E-05,5.09765625,0,0
-2.36821888393024E-05,1.97124518308556E-05,5.09765625,0,0
-2.65777034655912E-05,1.87715559150092E-05,5.09765625,0,0
-2.08312339964323E-05,1.330062514171E-05,5.09765625,0,0
-2.37702734011691E-05,1.53162436618004E-05,5.09765625,0,0
-2.21103673538892E-05,1.59739884111332E-05,5.09765625,0,0
-2.40371500694891E-05,1.81271661858773E-05,5.09765625,0,0
-2.53651105595054E-05,2.01009133888874E-05,5.09765625,0,0
-2.82380442513386E-05,2.17043343582191E-05,5.09765625,0,0
-3.02947919408325E-05,1.88410776900128E-05,5.09765625,0,0
-2.92954518954502E-05,9.73797523329267E-06,5.09765625,0,0
-2.90982188744238E-05,1.85845067335322E-07,5.09765625,0,0
-2.77377494057873E-05,-6.20096125203418E-06,5.09765625,0,0
-2.92295117105823E-05,-4.64996674054419E-06,5.09765625,0,0
-2.75832499028184E-05,-7.55922883399762E-07,5.09765625,0,0
-2.85171881841961E-05,3.64566699317948E-06,5.09765625,0,0
-2.79902797046816E-05,5.24097868037643E-06,5.09765625,0,0
-2.86087233689614E-05,7.91709953773534E-06,5.09765625,0,0
-2.6718278604676E-05,9.26672237255843E-06,5.09765625,0,0
-2.74926078418503E-05,1.05224880826427E-05,5.09765625,0,0
-2.77275539701805E-05,9.44514522416284E-06,5.09765625,0,0
-2.79062551271636E-05,8.39919812278822E-06,5.09765625,0,0
-2.56102557614213E-05,8.21738922240911E-06,5.09765625,0,0
-2.39997316384688E-05,9.27131168282358E-06,5.09765625,0,0
-2.3111751943361E-05,1.02540698208031E-05,5.09765625,0,0
-2.28592471103184E-05,1.1691761756083E-05,5.09765625,0,0
-1.81137565959943E-05,1.06271527329227E-05,5.09765625,0,0
-2.56014172919095E-05,1.41647678901791E-05,5.09765625,0,0
-1.99345176952193E-05,8.02655904408311E-06,5.09765625,0,0
-2.45332830672851E-05,8.23198843136197E-06,5.09765625,0,0
-1.92787865671562E-05,6.00511111770174E-06,5.09765625,0,0
-2.0866684280918E-05,9.33969113248168E-06,5.09765625,0,0
-1.8702698071138E-05,9.51563197304495E-06,5.09765625,0,0
-1.96024484466761E-05,1.03907295851968E-05,5.09765625,0,0
-1.83867614396149E-05,9.29345060285414E-06,5.09765625,0,0
-1.9145394617226E-05,7.9017927419045E-06,5.09765625,0,0
-2.16398784687044E-05,6.89436274114996E-06,5.09765625,0,0
-2.24110099225072E-05,6.90148408466484E-06,5.09765625,0,0
-2.28689441428287E-05,8.76972535479581E-06,5.09765625,0,0
-2.18661207327386E-05,8.65083893586416E-06,5.09765625,0,0
-2.36484866036335E-05,8.81107098393841E-06,5.09765625,0,0
-2.30287605518242E-05,8.38675441627856E-06,5.09765625,0,0
-2.41757970798062E-05,9.94238325802144E-06,5.09765625,0,0
-2.44706752710044E-05,1.06635852716863E-05,5.09765625,0,0
-2.7083202439826E-05,1.23885847642669E-05,5.09765625,0,0
-2.69174852292053E-05,1.29173631648882E-05,5.09765625,0,0
-2.73939967883052E-05,1.43014576678979E-05,5.09765625,0,0
-2.73288587777643E-05,1.5044332940306E-05,5.09765625,0,0
-2.99309467663988E-05,1.61695570568554E-05,5.09765625,0,0
-3.21964980685152E-05,1.68037204275606E-05,5.09765625,0,0
-3.32886884280015E-05,1.69427275977796E-05,5.09765625,0,0
-3.27501402352937E-05,1.43426959766657E-05,5.09765625,0,0
-3.25256369251292E-05,1.16442670332617E-05,5.09765625,0,0
-2.47626412601676E-05,8.03672082838602E-06,5.09765625,0,0
-3.35276999976486E-05,1.08888771137572E-05,5.09765625,0,0
-2.39639011851978E-05,8.95190169103444E-06,5.09765625,0,0
-3.07954906020314E-05,1.2105364476156E-05,5.09765625,0,0
-2.51598830800503E-05,1.1886763786606E-05,5.09765625,0,0
-2.95223235298181E-05,1.61393945745658E-05,5.09765625,0,0
-2.78557126875967E-05,1.77682213688968E-05,5.09765625,0,0
-2.9716691642534E-05,2.11317328648875E-05,5.09765625,0,0
-2.87937837128993E-05,2.14949322980829E-05,5.09765625,0,0
-2.87952680082526E-05,1.97687240870437E-05,5.09765625,0,0
-2.84699672192801E-05,1.85223907465115E-05,5.09765625,0,0
-2.65598118858179E-05,1.86330962606007E-05,5.09765625,0,0
-2.64859190792777E-05,1.96684759430354E-05,5.09765625,0,0
-2.38273205468431E-05,1.88975391210988E-05,5.09765625,0,0
-2.36006471823202E-05,1.84759937837953E-05,5.09765625,0,0
-2.19989869947312E-05,1.8077140339301E-05,5.09765625,0,0
-2.4740087610553E-05,1.99479145521764E-05,5.09765625,0,0
-2.43466765823541E-05,1.89661823242204E-05,5.09765625,0,0
-2.5474781068624E-05,1.33773119159741E-05,5.09765625,0,0
-2.35279676417122E-05,2.17972433347313E-06,5.09765625,0,0
-2.29442139243474E-05,-6.60127716400893E-06,5.09765625,0,0
-2.16465741686989E-05,-7.3615647124825E-06,5.09765625,0,0
-2.35879742831457E-05,1.73032765360404E-06,5.09765625,0,0
-2.44640450546285E-05,1.16317760330276E-05,5.09765625,0,0
-2.43636277446058E-05,1.55498819367494E-05,5.09765625,0,0
-2.16205808101222E-05,1.41508426168002E-05,5.09765625,0,0
-1.96775908989366E-05,1.20987742775469E-05,5.09765625,0,0
-1.70629646163434E-05,8.85797999217175E-06,5.09765625,0,0
-2.62481516983826E-05,1.13856958705583E-05,5.09765625,0,0
-2.30534915317548E-05,7.11952088749968E-06,5.09765625,0,0
-2.68356343440246E-05,9.56432813836727E-06,5.09765625,0,0
-2.12990853469819E-05,7.68323570810026E-06,5.09765625,0,0
-2.2574235117645E-05,9.02078227227321E-06,5.09765625,0,0
-2.26122883759672E-05,9.09568461793242E-06,5.09765625,0,0
-2.47472380578984E-05,1.05707349575823E-05,5.09765625,0,0
-2.42515689024003E-05,1.01146861197776E-05,5.09765625,0,0
-2.39296550716972E-05,8.19767137727467E-06,5.09765625,0,0
-2.3317574232351E-05,4.93103516419069E-06,5.09765625,0,0
-2.22711441892898E-05,2.57246006185596E-06,5.09765625,0,0
-2.27954424190102E-05,4.72590545541607E-06,5.09765625,0,0
-2.16150274354732E-05,8.75196292327018E-06,5.09765625,0,0
-2.19100056710886E-05,1.26513868963229E-05,5.09765625,0,0
-2.03423369384836E-05,1.19180676847463E-05,5.09765625,0,0
-2.02169685508125E-05,9.31197791942395E-06,5.09765625,0,0
-1.88479862117674E-05,5.89562841923907E-06,5.09765625,0,0
-2.03206091100583E-05,5.5374971452693E-06,5.09765625,0,0
-2.03278723347466E-05,4.48272658104543E-06,5.09765625,0,0
-2.08428264159011E-05,7.0679891450709E-07,5.09765625,0,0
-2.01265247596893E-05,-4.43116914539132E-06,5.09765625,0,0
-2.04979223781265E-05,-2.72703914561134E-06,5.09765625,0,0
-2.06735348911025E-05,3.59523528459249E-06,5.09765625,0,0
-2.19483681576094E-05,6.79339746056939E-06,5.09765625,0,0
-2.26312840823084E-05,3.67208531315555E-06,5.09765625,0,0
-2.20533675019396E-05,2.50951671887378E-07,5.09765625,0,0
-1.78416121343616E-05,4.26370024797507E-06,5.09765625,0,0
-2.61330878856825E-05,1.42393591886503E-05,5.09765625,0,0
-2.07257380679948E-05,2.03109266294632E-05,5.09765625,0,0
-2.44688599195797E-05,1.8855047528632E-05,5.09765625,0,0
-1.92631650861586E-05,1.46141965160496E-05,5.09765625,0,0
-2.03864565264666E-05,1.29076270241058E-05,5.09765625,0,0
-1.88703161256853E-05,1.52378852362745E-05,5.09765625,0,0
-2.16820826608455E-05,1.6743610103731E-05,5.09765625,0,0
-2.14138490264304E-05,1.65066376212053E-05,5.09765625,0,0
-2.00073664018419E-05,1.39170842885505E-05,5.09765625,0,0
-1.9682627680595E-05,1.13533196781646E-05,5.09765625,0,0
-1.93227569980081E-05,1.037934453052E-05,5.09765625,0,0
-1.97329100046773E-05,1.01246896520024E-05,5.09765625,0,0
-1.90841528819874E-05,9.08288802747848E-06,5.09765625,0,0
-2.2082866053097E-05,8.70976964506553E-06,5.09765625,0,0
-2.33655064221239E-05,1.01459572761087E-05,5.09765625,0,0
-2.42741843976546E-05,1.20302947834716E-05,5.09765625,0,0
-2.21840364247328E-05,1.25631340779364E-05,5.09765625,0,0
-2.3053158656694E-05,1.09355059976224E-05,5.09765625,0,0
-2.34070575970691E-05,9.14853990252595E-06,5.09765625,0,0
-2.46342788159382E-05,8.79186791280517E-06,5.09765625,0,0
-2.39470809901832E-05,1.00672641565325E-05,5.09765625,0,0
-2.35467668971978E-05,1.2192273970868E-05,5.09765625,0,0
-2.17306696868036E-05,1.38768300530501E-05,5.09765625,0,0
-2.00794111151481E-05,1.30657717818394E-05,5.09765625,0,0
-1.83522133738734E-05,1.20642380352365E-05,5.09765625,0,0
-1.79114231286803E-05,1.23989839266869E-05,5.09765625,0,0
-1.56780588440597E-05,1.07205460153637E-05,5.09765625,0,0
-2.36790619965177E-05,1.53229866555193E-05,5.09765625,0,0
-1.89559741556877E-05,1.26293762150453E-05,5.09765625,0,0
-2.23072365770349E-05,1.70169259945396E-05,5.09765625,0,0
-2.0493331248872E-05,1.48912404256407E-05,5.09765625,0,0
-2.45980700128712E-05,1.58714756253175E-05,5.09765625,0,0
-2.36527121160179E-05,1.41220352816163E-05,5.09765625,0,0
-2.39126820815727E-05,1.51973454194376E-05,5.09765625,0,0
-2.35336119658314E-05,1.67678117577452E-05,5.09765625,0,0
-2.35848638112657E-05,1.86604920600075E-05,5.09765625,0,0
-2.40384106291458E-05,1.87194618774811E-05,5.09765625,0,0
-2.43733302340843E-05,1.73539028764935E-05,5.09765625,0,0
-2.59266289504012E-05,1.67407561093569E-05,5.09765625,0,0
-2.50396133196773E-05,1.53820656123571E-05,5.09765625,0,0
-2.48548876697896E-05,1.61072639457416E-05,5.09765625,0,0
-2.36398427659879E-05,1.66990739671746E-05,5.09765625,0,0
-2.52376012213063E-05,1.78554982994683E-05,5.09765625,0,0
-2.62211160588777E-05,1.69330578501103E-05,5.09765625,0,0
-2.85816531686578E-05,1.76822850335157E-05,5.09765625,0,0
-2.88732189801522E-05,1.73542648553848E-05,5.09765625,0,0
-2.90834013867425E-05,1.62556098075584E-05,5.09765625,0,0
-2.80159165413352E-05,1.38437126224744E-05,5.09765625,0,0
-2.89320105366642E-05,1.34474348669755E-05,5.09765625,0,0
-3.09861316054594E-05,1.22030196507694E-05,5.09765625,0,0
-3.30637012666557E-05,1.08131662273081E-05,5.09765625,0,0
-3.35327167704236E-05,1.05756853372441E-05,5.09765625,0,0
-3.31212468154263E-05,1.10017781480565E-05,5.09765625,0,0
-2.6937717848341E-05,7.62335048420937E-06,5.09765625,0,0
-3.74133596778847E-05,9.52400387177477E-06,5.09765625,0,0
-2.63321198872291E-05,5.08200946569559E-06,5.09765625,0,0
-3.1593819585396E-05,7.26500320524792E-06,5.09765625,0,0
-2.55685008596629E-05,6.89584112478769E-06,5.09765625,0,0
-2.9563625503215E-05,8.3164431998739E-06,5.09765625,0,0
-2.54449714702787E-05,6.38862002233509E-06,5.09765625,0,0
-2.60691849689465E-05,7.1326148827211E-06,5.09765625,0,0
-2.55274353548884E-05,8.77630827744724E-06,5.09765625,0,0
-2.69642005150672E-05,9.35775733523769E-06,5.09765625,0,0
-2.7790219974122E-05,9.14059273782186E-06,5.09765625,0,0
-2.55954983003903E-05,1.00508032119251E-05,5.09765625,0,0
-2.53412490565097E-05,1.33080056912149E-05,5.09765625,0,0
-2.34802373597631E-05,1.55710222315975E-05,5.09765625,0,0
-2.50242937909206E-05,1.67562775459373E-05,5.09765625,0,0
-2.43202321144054E-05,1.50446176121477E-05,5.09765625,0,0
-2.65010112343589E-05,1.35060099637485E-05,5.09765625,0,0
-2.46182535192929E-05,1.19999631351675E-05,5.09765625,0,0
-2.4747952920734E-05,1.27952871480375E-05,5.09765625,0,0
-2.29302531806752E-05,1.20579506983631E-05,5.09765625,0,0
-2.44827133428771E-05,8.52051925903652E-06,5.09765625,0,0
-2.46588242589496E-05,3.35284494212829E-06,5.09765625,0,0
-2.58244417636888E-05,1.92712974467213E-07,5.09765625,0,0
-2.55404611380072E-05,-4.06269577979401E-07,5.09765625,0,0
-2.64577120105969E-05,1.43055513035506E-06,5.09765625,0,0
-2.69603024207754E-05,2.43168688029982E-06,5.09765625,0,0
-2.73139812634327E-05,1.2298215779083E-06,5.09765625,0,0
-2.22188300540438E-05,5.71252542158618E-07,5.09765625,0,0
-3.13843738695141E-05,2.06282629733323E-06,5.09765625,0,0
-2.42562400671886E-05,4.16905004385626E-06,5.09765625,0,0
-3.03141005133512E-05,4.90334878122667E-06,5.09765625,0,0
-2.55117029155372E-05,5.62248533242382E-06,5.09765625,0,0
-2.8594567993423E-05,7.20299158274429E-06,5.09765625,0,0
-2.64107256953139E-05,6.92917956257588E-06,5.09765625,0,0
-2.84699472103966E-05,6.25013035460142E-06,5.09765625,0,0
-2.93093107757159E-05,6.94256550559658E-06,5.09765625,0,0
-3.09946408378892E-05,7.66589255363215E-06,5.09765625,0,0
-3.21989173244219E-05,8.25076767796418E-06,5.09765625,0,0
-3.03269935102435E-05,9.04525677469792E-06,5.09765625,0,0
-2.86609047179809E-05,9.66033894655993E-06,5.09765625,0,0
-2.58320578723215E-05,8.94043932930799E-06,5.09765625,0,0
-2.65633152594091E-05,7.39904953661608E-06,5.09765625,0,0
-2.47519274125807E-05,7.27589940652251E-06,5.09765625,0,0
-2.4200524421758E-05,9.9884309747722E-06,5.09765625,0,0
-2.07946031878237E-05,1.4802732039243E-05,5.09765625,0,0
-2.08117708098143E-05,2.00987760763383E-05,5.09765625,0,0
-1.98691759578651E-05,2.23133811232401E-05,5.09765625,0,0
-2.0434463294805E-05,1.91827584785642E-05,5.09765625,0,0
-1.8797829397954E-05,1.44033447213587E-05,5.09765625,0,0
-1.85757398867281E-05,1.22306364573888E-05,5.09765625,0,0
-1.83881620614557E-05,1.26339709822787E-05,5.09765625,0,0
-1.84096315933857E-05,1.39002995638293E-05,5.09765625,0,0
-1.76665635081008E-05,1.46216289067524E-05,5.09765625,0,0
-1.81364393938566E-05,1.51805725181475E-05,5.09765625,0,0
-1.56867426994722E-05,1.18132784336922E-05,5.09765625,0,0
-2.22237522393698E-05,1.5289548173314E-05,5.09765625,0,0
-1.59792834892869E-05,1.06364741441212E-05,5.09765625,0,0
-1.89661859621992E-05,1.62147298397031E-05,5.09765625,0,0
-1.61841217050096E-05,1.44409714266658E-05,5.09765625,0,0
-1.95820575754624E-05,1.64572447829414E-05,5.09765625,0,0
-2.0022922399221E-05,1.53396795212757E-05,5.09765625,0,0
-2.19296271097846E-05,1.58871389430715E-05,5.09765625,0,0
-2.07293032872258E-05,1.56666083057644E-05,5.09765625,0,0
-1.93025389307877E-05,1.48627359521925E-05,5.09765625,0,0
-1.91355866263621E-05,1.45011426866404E-05,5.09765625,0,0
-2.00235572265228E-05,1.48480539792217E-05,5.09765625,0,0
-2.18240093090571E-05,1.6547726772842E-05,5.09765625,0,0
-2.11127298825886E-05,1.62255182658555E-05,5.09765625,0,0
-2.22000944631873E-05,1.73063544934848E-05,5.09765625,0,0
-2.27073614951223E-05,1.76153607753804E-05,5.09765625,0,0
-2.49811891990248E-05,1.79469625436468E-05,5.09765625,0,0
-2.48413125518709E-05,1.53782584675355E-05,5.09765625,0,0
-2.632214454934E-05,1.37572396852192E-05,5.09765625,0,0
-2.78304523817496E-05,1.14153463073308E-05,5.09765625,0,0
-3.05999856209382E-05,9.93089361145394E-06,5.09765625,0,0
-3.08293783746194E-05,8.32118257676484E-06,5.09765625,0,0
-3.06056463159621E-05,8.07494780019624E-06,5.09765625,0,0
-3.00863994198153E-05,8.10323035693727E-06,5.09765625,0,0
-3.16423829644918E-05,9.39008805289632E-06,5.09765625,0,0
-3.22568266710732E-05,9.09335994947469E-06,5.09765625,0,0
-3.17216654366348E-05,8.41525343275862E-06,5.09765625,0,0
-2.44862912950339E-05,6.13286420048098E-06,5.09765625,0,0
-3.26174995279871E-05,8.0462496043765E-06,5.09765625,0,0
-2.10055222851224E-05,5.05267689732136E-06,5.09765625,0,0
-2.67578870989382E-05,5.47455056221224E-06,5.09765625,0,0
-2.26368483708939E-05,4.02923751607887E-06,5.09765625,0,0
-2.6596359020914E-05,6.41485621599713E-06,5.09765625,0,0
-2.35118732234696E-05,5.17859643878182E-06,5.09765625,0,0
-2.58391828538151E-05,4.27760051024961E-06,5.09765625,0,0
-2.62756202573655E-05,4.42442888015648E-06,5.09765625,0,0
-2.67068480752641E-05,4.86502403873601E-06,5.09765625,0,0
-2.54896349360934E-05,4.75983097203425E-06,5.09765625,0,0
-2.21233567572199E-05,5.38515723746968E-06,5.09765625,0,0
-2.07390985451639E-05,7.32697753846878E-06,5.09765625,0,0
-1.87371297215577E-05,7.27982251191861E-06,5.09765625,0,0
-2.11129809031263E-05,6.88490626998828E-06,5.09765625,0,0
-2.05578417080687E-05,6.01245073994505E-06,5.09765625,0,0
-2.26608899538405E-05,5.40044266017503E-06,5.09765625,0,0
-2.28958924708422E-05,3.78297727365862E-06,5.09765625,0,0
-2.5701743652462E-05,4.39188806922175E-06,5.09765625,0,0
-2.51795700023649E-05,5.46573437532061E-06,5.09765625,0,0
-2.60351007455029E-05,6.44468764221529E-06,5.09765625,0,0
-2.50335215241648E-05,7.73404917708831E-06,5.09765625,0,0
-2.56332641583867E-05,1.07274081528885E-05,5.09765625,0,0
-2.54347014561063E-05,1.18681773528806E-05,5.09765625,0,0
-2.53361940849572E-05,6.16433453615173E-06,5.09765625,0,0
-2.34070957958465E-05,-5.75320200368878E-06,5.09765625,0,0
-2.12790746445535E-05,-1.27188041005866E-05,5.09765625,0,0
-1.62337473739171E-05,-6.61481362840277E-06,5.09765625,0,0
-2.23385759454686E-05,-2.96467942462186E-06,5.09765625,0,0
-1.66283716680482E-05,8.9541417764849E-06,5.09765625,0,0
-2.11885453609284E-05,1.3592051800515E-05,5.09765625,0,0
-1.74188862729352E-05,2.03715480893152E-05,5.09765625,0,0
-1.93415362446103E-05,2.03019371838309E-05,5.09765625,0,0
-1.84153177542612E-05,2.15914751606761E-05,5.09765625,0,0
-2.06044824153651E-05,1.89619622688042E-05,5.09765625,0,0
-2.15071104321396E-05,1.4801643374085E-05,5.09765625,0,0
-2.28689368668711E-05,9.01404928299598E-06,5.09765625,0,0
-2.35315874306252E-05,3.38817608280806E-06,5.09765625,0,0
-2.2695221559843E-05,3.5130847209075E-07,5.09765625,0,0
-2.29642755584791E-05,-9.11402139536222E-07,5.09765625,0,0
-2.16360294871265E-05,8.79687888755143E-07,5.09765625,0,0
-2.14913761737989E-05,3.33537036567577E-06,5.09765625,0,0
-1.97484587260988E-05,6.80352559356834E-06,5.09765625,0,0
-2.05820397241041E-05,7.38957442081301E-06,5.09765625,0,0
-2.02923692995682E-05,7.50817571315565E-06,5.09765625,0,0
-2.14327483263332E-05,7.50405570215662E-06,5.09765625,0,0
-1.96290056919679E-05,9.79438755166484E-06,5.09765625,0,0
-1.80667611857643E-05,1.10014361780486E-05,5.09765625,0,0
-1.64963530551177E-05,1.11423096313956E-05,5.09765625,0,0
-1.78908321686322E-05,9.42022415983956E-06,5.09765625,0,0
-1.83405136340298E-05,8.44319129100768E-06,5.09765625,0,0
-1.7978245523409E-05,7.89560363045894E-06,5.09765625,0,0
-1.72397230926435E-05,8.0627696661395E-06,5.09765625,0,0
-1.75865479832282E-05,8.66614482220029E-06,5.09765625,0,0
-1.56676160258939E-05,7.71844679547939E-06,5.09765625,0,0
-2.30318892135983E-05,1.15978855319554E-05,5.09765625,0,0
-1.83712927537272E-05,1.01425484899664E-05,5.09765625,0,0
-2.2619278752245E-05,1.32177601699368E-05,5.09765625,0,0
-2.11274655157467E-05,1.23178188005113E-05,5.09765625,0,0
-2.53004218393471E-05,1.47248838402447E-05,5.09765625,0,0
-2.4171567929443E-05,1.50726009451319E-05,5.09765625,0,0
-2.48630094574764E-05,1.6518193660886E-05,5.09765625,0,0
-2.50877419603057E-05,1.71357969520614E-05,5.09765625,0,0
-2.62088433373719E-05,1.79175876837689E-05,5.09765625,0,0
-2.70593354798621E-05,1.80344231921481E-05,5.09765625,0,0
-2.60066153714433E-05,1.70816783793271E-05,5.09765625,0,0
-2.53202397288987E-05,1.6632071492495E-05,5.09765625,0,0
-2.38094035012182E-05,1.59439096023561E-05,5.09765625,0,0
-2.42849982896587E-05,1.48453264046111E-05,5.09765625,0,0
-2.32577531278366E-05,9.96111612039385E-06,5.09765625,0,0
-2.42313035414554E-05,4.49414301328943E-06,5.09765625,0,0
-2.41768830164801E-05,1.12630868898123E-06,5.09765625,0,0
-2.61999193753581E-05,3.49072593053279E-06,5.09765625,0,0
-2.66639108303934E-05,7.46275327401236E-06,5.09765625,0,0
-2.71145599981537E-05,1.07462865344132E-05,5.09765625,0,0
-2.56275834544795E-05,9.98701580101624E-06,5.09765625,0,0
-2.48561918851919E-05,8.65775746206054E-06,5.09765625,0,0
-2.39199616771657E-05,9.12004816200351E-06,5.09765625,0,0
-2.34399194596335E-05,9.90779790299712E-06,5.09765625,0,0
-2.36629548453493E-05,7.99240388005273E-06,5.09765625,0,0
-2.49778040597448E-05,6.74424154567532E-06,5.09765625,0,0
-2.01510029000929E-05,7.49491573515115E-06,5.09765625,0,0
-2.92974273179425E-05,1.27390903799096E-05,5.09765625,0,0
-2.36681153182872E-05,1.38326895466889E-05,5.09765625,0,0
-2.99695238936692E-05,1.97245572053362E-05,5.09765625,0,0
-2.61920085904421E-05,2.2285217710305E-05,5.09765625,0,0
-2.87103594018845E-05,2.5964161977754E-05,5.09765625,0,0
-2.63346555584576E-05,2.60209326370386E-05,5.09765625,0,0
-2.76606733677909E-05,2.31913036259357E-05,5.09765625,0,0
-2.7035594030167E-05,1.72319087141659E-05,5.09765625,0,0
-2.62810317508411E-05,1.09318343675113E-05,5.09765625,0,0
-2.56450621236581E-05,7.77975856181001E-06,5.09765625,0,0
-2.44685033976566E-05,9.50253888731822E-06,5.09765625,0,0
-2.55903578363359E-05,1.48175922731753E-05,5.09765625,0,0
-2.58749478234677E-05,1.89160728041315E-05,5.09765625,0,0
-2.86689064523671E-05,2.13271778193302E-05,5.09765625,0,0
-2.88002047454938E-05,2.17943252209807E-05,5.09765625,0,0
-2.93107677862281E-05,2.15071686398005E-05,5.09765625,0,0
-2.63995079876622E-05,1.89373604371212E-05,5.09765625,0,0
-2.49793702096213E-05,1.66491918207612E-05,5.09765625,0,0
-2.14617957681185E-05,1.51925878526527E-05,5.09765625,0,0
-1.93783489521593E-05,1.5638006516383E-05,5.09765625,0,0
-1.71428218891378E-05,1.58834081958048E-05,5.09765625,0,0
-1.7740419934853E-05,1.61375555762788E-05,5.09765625,0,0
-1.76541070686653E-05,1.49027819134062E-05,5.09765625,0,0
-1.86044107977068E-05,1.36676089823595E-05,5.09765625,0,0
-2.08134442800656E-05,1.35784002850414E-05,5.09765625,0,0
-2.25661915465025E-05,1.40442043630173E-05,5.09765625,0,0
-1.6887304809643E-05,1.18355255835922E-05,5.09765625,0,0
-2.22828730329638E-05,1.69759823620552E-05,5.09765625,0,0
-1.66952613653848E-05,1.44065506901825E-05,5.09765625,0,0
-2.4565646526753E-05,1.94179156096652E-05,5.09765625,0,0
-2.4002179998206E-05,1.71751071320614E-05,5.09765625,0,0
-2.8293348805164E-05,1.91525505215395E-05,5.09765625,0,0
-2.68069925368764E-05,1.96123837667983E-05,5.09765625,0,0
-2.70403706963407E-05,2.24973482545465E-05,5.09765625,0,0
-2.37247168115573E-05,2.35343904932961E-05,5.09765625,0,0
-2.13669773074798E-05,2.31447666010354E-05,5.09765625,0,0
-2.057512938336E-05,2.15486143133603E-05,5.09765625,0,0
-2.11213773582131E-05,1.98397992789978E-05,5.09765625,0,0
-2.36359555856325E-05,1.9535051251296E-05,5.09765625,0,0
-2.35522784350906E-05,1.75653494807193E-05,5.09765625,0,0
-2.49826716753887E-05,1.60522267833585E-05,5.09765625,0,0
-2.39687797147781E-05,1.31195756694069E-05,5.09765625,0,0
-2.45819028350525E-05,1.10725877675577E-05,5.09765625,0,0
-2.33649152505677E-05,5.47569425179972E-06,5.09765625,0,0
-2.40318950091023E-05,-2.69339466285601E-06,5.09765625,0,0
-2.24018058361253E-05,-1.23425588753889E-05,5.09765625,0,0
-2.19739213207504E-05,-1.40172196552157E-05,5.09765625,0,0
-2.04645039048046E-05,-6.95467770128744E-06,5.09765625,0,0
-2.01393850147724E-05,4.21372351411264E-06,5.09765625,0,0
-1.9379307559575E-05,1.09479178718175E-05,5.09765625,0,0
-1.98580473806942E-05,1.20734357551555E-05,5.09765625,0,0
-2.1480153009179E-05,8.5165575001156E-06,5.09765625,0,0
-2.35377792705549E-05,5.281209723762E-06,5.09765625,0,0
-1.94782860489795E-05,6.1589339566126E-06,5.09765625,0,0
-2.64790323853958E-05,1.14355798359611E-05,5.09765625,0,0
-1.93838186532957E-05,1.11864164864528E-05,5.09765625,0,0
-2.59863591054454E-05,1.0790571650432E-05,5.09765625,0,0
-2.17977394640911E-05,8.37896459415788E-06,5.09765625,0,0
-2.41073757933918E-05,7.58116721044644E-06,5.09765625,0,0
-2.26330103032524E-05,5.25934228789993E-06,5.09765625,0,0
-2.33863574976567E-05,4.17648698203266E-06,5.09765625,0,0
-2.24864088522736E-05,5.02106331623509E-06,5.09765625,0,0
-2.24224950216012E-05,7.38276230549673E-06,5.09765625,0,0
-2.18543409573613E-05,9.95609025267186E-06,5.09765625,0,0
-1.98668039956829E-05,1.10172168206191E-05,5.09765625,0,0
-1.98455181816826E-05,1.06344132291269E-05,5.09765625,0,0
-1.86533889063867E-05,9.37232016440248E-06,5.09765625,0,0
-1.93739251699299E-05,9.02245938050328E-06,5.09765625,0,0
-1.87065779755358E-05,9.31515296542784E-06,5.09765625,0,0
-2.15419404412387E-05,1.11978297354653E-05,5.09765625,0,0
-2.26189313252689E-05,1.22090432341793E-05,5.09765625,0,0
-2.49068689299747E-05,1.12032503238879E-05,5.09765625,0,0
-2.45365918090101E-05,7.99532062956132E-06,5.09765625,0,0
-2.52470617851941E-05,6.14852160651935E-06,5.09765625,0,0
-2.5349936549901E-05,6.43537941868999E-06,5.09765625,0,0
-2.61312925431412E-05,7.8442853919114E-06,5.09765625,0,0
-2.47412299358984E-05,8.34502679936122E-06,5.09765625,0,0
-2.36552386922995E-05,7.5746343100036E-06,5.09765625,0,0
-2.39768323808676E-05,5.65614573133644E-06,5.09765625,0,0
-2.56187759077875E-05,4.98321696795756E-06,5.09765625,0,0
-2.13905186683405E-05,4.77285038869013E-06,5.09765625,0,0
-2.95762492896756E-05,6.50134279567283E-06,5.09765625,0,0
-2.07624179893173E-05,3.90389959648019E-06,5.09765625,0,0
-2.589863652247E-05,4.67440941065433E-06,5.09765625,0,0
-2.27817181439605E-05,3.16345472128887E-06,5.09765625,0,0
-2.67357281700242E-05,2.31861986321746E-06,5.09765625,0,0
-2.38941465795506E-05,5.23287098985747E-07,5.09765625,0,0
-2.46405088546453E-05,2.74002303513043E-07,5.09765625,0,0
-2.44341426878236E-05,1.24757752928417E-06,5.09765625,0,0
-2.46700546995271E-05,2.93941479867499E-06,5.09765625,0,0
-2.47638345172163E-05,5.17832268087659E-06,5.09765625,0,0
-2.39278579101665E-05,7.27940414435579E-06,5.09765625,0,0
-2.42352289205883E-05,9.73663463810226E-06,5.09765625,0,0
-2.14417595998384E-05,1.16442715807352E-05,5.09765625,0,0
-2.12598915823037E-05,1.34779284053366E-05,5.09765625,0,0
-2.08859928534366E-05,1.36740927700885E-05,5.09765625,0,0
-2.39376204262953E-05,1.30146872834302E-05,5.09765625,0,0
-2.38524789892836E-05,1.20657805382507E-05,5.09765625,0,0
-2.51612400461454E-05,1.20324075396638E-05,5.09765625,0,0
-2.49975146289216E-05,1.11126619231072E-05,5.09765625,0,0
-2.67453578999266E-05,1.06102397694485E-05,5.09765625,0,0
-2.66974875557935E-05,1.05461349448888E-05,5.09765625,0,0
-2.79173891613027E-05,1.05949447970488E-05,5.09765625,0,0
-2.88718674710253E-05,1.06431261883699E-05,5.09765625,0,0
-2.89513573079603E-05,1.13259320642101E-05,5.09765625,0,0
-2.70807613560464E-05,1.3025743101025E-05,5.09765625,0,0
-2.60341239481932E-05,1.50755140566616E-05,5.09765625,0,0
-2.13914481719257E-05,1.23648078442784E-05,5.09765625,0,0
-3.02332427963847E-05,1.73722928593634E-05,5.09765625,0,0
-2.41213256231276E-05,1.30142270791112E-05,5.09765625,0,0
-3.08385569951497E-05,1.5581035768264E-05,5.09765625,0,0
-2.63403690041741E-05,1.05343679024372E-05,5.09765625,0,0
-2.90877032966819E-05,1.09722504930687E-05,5.09765625,0,0
-2.68147796305129E-05,1.09935581349418E-05,5.09765625,0,0
-2.89177733066026E-05,1.44876421472873E-05,5.09765625,0,0
-2.86349513771711E-05,1.58329366968246E-05,5.09765625,0,0
-2.85145360976458E-05,1.58614075189689E-05,5.09765625,0,0
-2.7422911443864E-05,1.52303346112603E-05,5.09765625,0,0
-2.47373955062358E-05,1.39520743687171E-05,5.09765625,0,0
-2.54828646575334E-05,1.36719127112883E-05,5.09765625,0,0
-2.48018131969729E-05,1.27433531815768E-05,5.09765625,0,0
-2.54437472904101E-05,1.44495079439366E-05,5.09765625,0,0
-2.42521527979989E-05,1.59642313519726E-05,5.09765625,0,0
-2.5960993298213E-05,1.80130100488896E-05,5.09765625,0,0
-2.42123351199552E-05,1.6653599232086E-05,5.09765625,0,0
-2.42255446210038E-05,1.62439118867042E-05,5.09765625,0,0
-2.30181394726969E-05,1.59679748321651E-05,5.09765625,0,0
-2.34984454436926E-05,1.70625953614945E-05,5.09765625,0,0
-2.29211436817423E-05,1.61458920047153E-05,5.09765625,0,0
-2.40591634792509E-05,1.57160429807846E-05,5.09765625,0,0
-2.29401266551577E-05,1.57829435920576E-05,5.09765625,0,0
-2.28312437684508E-05,1.6464702639496E-05,5.09765625,0,0
-2.41367815760896E-05,1.70558341778815E-05,5.09765625,0,0
-2.47486186708556E-05,1.68536589626456E-05,5.09765625,0,0
-1.97641202248633E-05,1.4026370990905E-05,5.09765625,0,0
-2.80368567473488E-05,1.88742778846063E-05,5.09765625,0,0
-2.15348682104377E-05,1.19006726890802E-05,5.09765625,0,0
-2.66650986304739E-05,1.45746107591549E-05,5.09765625,0,0
-2.33203736570431E-05,1.22335204650881E-05,5.09765625,0,0
-2.75499696726911E-05,1.4920998182788E-05,5.09765625,0,0
-2.61487293755636E-05,1.22614101201179E-05,5.09765625,0,0
-2.72535962722031E-05,1.03002003015717E-05,5.09765625,0,0
-2.63284637185279E-05,8.45728936837986E-06,5.09765625,0,0
-2.64531208813423E-05,7.96548465586966E-06,5.09765625,0,0
-2.78174793493235E-05,7.8098128142301E-06,5.09765625,0,0
-2.9471058951458E-05,7.51208654037328E-06,5.09765625,0,0
-3.23306594509631E-05,8.18941589386668E-06,5.09765625,0,0
-3.15756660711486E-05,6.37390803603921E-06,5.09765625,0,0
-3.14992794301361E-05,6.27632834948599E-06,5.09765625,0,0
-2.91368560283445E-05,5.11658436153084E-06,5.09765625,0,0
-3.00992833217606E-05,4.88874775328441E-06,5.09765625,0,0
-2.8826754714828E-05,2.56642692875175E-06,5.09765625,0,0
-2.87899474642472E-05,9.11051245111594E-07,5.09765625,0,0
-2.80162475974066E-05,-1.03715876775823E-06,5.09765625,0,0
-2.98435006698128E-05,3.77304786525201E-07,5.09765625,0,0
-2.88494338747114E-05,1.85773740213335E-06,5.09765625,0,0
-2.71460849035066E-05,3.9166538954305E-06,5.09765625,0,0
-2.44352613663068E-05,5.67399774809019E-06,5.09765625,0,0
-2.22777562157717E-05,6.71206316837925E-06,5.09765625,0,0
-2.06791519303806E-05,5.67121469430276E-06,5.09765625,0,0
-2.02763312699972E-05,5.546936790779E-06,5.09765625,0,0
-1.64925404533278E-05,5.33930051460629E-06,5.09765625,0,0
-2.28702829190297E-05,8.04414139565779E-06,5.09765625,0,0
-1.73547177837463E-05,6.92296453053132E-06,5.09765625,0,0
-2.22160051635001E-05,6.96234337738133E-06,5.09765625,0,0
-1.92067745956592E-05,4.31075159212924E-06,5.09765625,0,0
-2.30021814786596E-05,5.08040466229431E-06,5.09765625,0,0
-2.33145728998352E-05,5.11351481691236E-06,5.09765625,0,0
-2.60306514974218E-05,7.09498226569849E-06,5.09765625,0,0
-2.70540313067613E-05,9.32624425331596E-06,5.09765625,0,0
-2.92186559818219E-05,9.86648046819028E-06,5.09765625,0,0
-3.04753193631768E-05,8.65431229613023E-06,5.09765625,0,0
-2.84574434772367E-05,7.51759171180311E-06,5.09765625,0,0
-2.7248583137407E-05,7.92013725003926E-06,5.09765625,0,0
-2.54249825957231E-05,8.19045453681611E-06,5.09765625,0,0
-2.60872184298933E-05,9.20238562684972E-06,5.09765625,0,0
-2.4501243387931E-05,9.88909505394986E-06,5.09765625,0,0
-2.42268342844909E-05,1.10701175799477E-05,5.09765625,0,0
-2.32493111980148E-05,1.05152039395762E-05,5.09765625,0,0
-2.5798601200222E-05,9.48472188611049E-06,5.09765625,0,0
-2.71715070994105E-05,9.04145417734981E-06,5.09765625,0,0
-2.84258330793818E-05,1.18397219921462E-05,5.09765625,0,0
-2.69990250671981E-05,1.61946900334442E-05,5.09765625,0,0
-2.62232442764798E-05,1.93625710380729E-05,5.09765625,0,0
-2.56218700087629E-05,1.91567505680723E-05,5.09765625,0,0
-2.51606415986316E-05,1.70647526829271E-05,5.09765625,0,0
-2.31077920034295E-05,1.27543480630266E-05,5.09765625,0,0
-2.13758066820446E-05,4.85110331283067E-06,5.09765625,0,0
-1.78484624484554E-05,-2.84460315924662E-06,5.09765625,0,0
-2.67836094280938E-05,-3.67871757589455E-06,5.09765625,0,0
-2.11808273888892E-05,2.92161416837189E-06,5.09765625,0,0
-2.44568764173891E-05,1.0291501894244E-05,5.09765625,0,0
-2.13166495086625E-05,1.51616222865414E-05,5.09765625,0,0
-2.49985641858075E-05,1.53318324009888E-05,5.09765625,0,0
-2.35047300520819E-05,1.24570115076494E-05,5.09765625,0,0
-2.38061857089633E-05,1.04880718936329E-05,5.09765625,0,0
-2.26435331569519E-05,1.17245799629018E-05,5.09765625,0,0
-2.24019167944789E-05,1.33164576254785E-05,5.09765625,0,0
-2.21191603486659E-05,1.28455003505223E-05,5.09765625,0,0
-1.990310374822E-05,1.23593963508029E-05,5.09765625,0,0
-1.98342149815289E-05,1.33797311718808E-05,5.09765625,0,0
-2.05007272597868E-05,1.59807404997991E-05,5.09765625,0,0
-2.36416999541689E-05,1.84462587640155E-05,5.09765625,0,0
-2.38634820561856E-05,1.97777571884217E-05,5.09765625,0,0
-2.43467238760786E-05,1.94978401850676E-05,5.09765625,0,0
-2.19324247154873E-05,1.78148402483203E-05,5.09765625,0,0
-2.0568151740008E-05,1.50799305629334E-05,5.09765625,0,0
-1.86199486051919E-05,1.35904920171015E-05,5.09765625,0,0
-2.02267765416764E-05,1.41787431857665E-05,5.09765625,0,0
-2.16235148400301E-05,1.44549530887161E-05,5.09765625,0,0
-2.21327791223302E-05,1.30323114717612E-05,5.09765625,0,0
-1.87373207154451E-05,1.14704535008059E-05,5.09765625,0,0
-1.46957199831377E-05,1.15132152131991E-05,5.09765625,0,0
-1.36083690449595E-05,1.28705987663125E-05,5.09765625,0,0
-1.54874760482926E-05,1.29767213365994E-05,5.09765625,0,0
-1.51298454511561E-05,9.35812659008661E-06,5.09765625,0,0
-2.23813931370387E-05,1.28632218547864E-05,5.09765625,0,0
-1.91198632819578E-05,1.01361674751388E-05,5.09765625,0,0
-2.39658475038596E-05,1.44496143548167E-05,5.09765625,0,0
-2.09191257454222E-05,1.24384660011856E-05,5.09765625,0,0
-2.24910581891891E-05,1.43948582262965E-05,5.09765625,0,0
-2.02438623091439E-05,1.46710008266382E-05,5.09765625,0,0
-2.03569634322776E-05,1.50454270624323E-05,5.09765625,0,0
-1.91850995179266E-05,1.37400475068716E-05,5.09765625,0,0
-1.85415428859415E-05,1.19942924357019E-05,5.09765625,0,0
-1.78454665729078E-05,1.15773109428119E-05,5.09765625,0,0
-1.75747918547131E-05,1.37429633468855E-05,5.09765625,0,0
-1.90594910236541E-05,1.73837579495739E-05,5.09765625,0,0
-1.81326649908442E-05,1.76777630258584E-05,5.09765625,0,0
-1.82687654159963E-05,1.70998519024579E-05,5.09765625,0,0
-1.7314829165116E-05,1.63470376719488E-05,5.09765625,0,0
-1.8473914678907E-05,1.57650447363267E-05,5.09765625,0,0
-1.83070387720363E-05,1.11057452159002E-05,5.09765625,0,0
-2.0730241885758E-05,5.52518986296491E-06,5.09765625,0,0
-2.25974672503071E-05,1.07944038063579E-06,5.09765625,0,0
-2.42985206568846E-05,6.68354061872378E-07,5.09765625,0,0
-2.28722383326385E-05,3.95943061448634E-07,5.09765625,0,0
-2.26859574468108E-05,-5.34679465147292E-08,5.09765625,0,0
-2.22396956814919E-05,-6.53049312404619E-07,5.09765625,0,0
-2.17390588659327E-05,1.9793097294496E-07,5.09765625,0,0
-2.17650995182339E-05,1.22262019885966E-06,5.09765625,0,0
-2.18335426325211E-05,3.05491539620562E-06,5.09765625,0,0
-1.86585129995365E-05,4.23606115873554E-06,5.09765625,0,0
-2.71611042990116E-05,7.43013652027003E-06,5.09765625,0,0
-2.05368705792353E-05,6.81315350448131E-06,5.09765625,0,0
-2.3488972146879E-05,6.17718524154043E-06,5.09765625,0,0
-1.93090818356723E-05,4.83330723000108E-06,5.09765625,0,0
-2.31755620916374E-05,6.16245051787701E-06,5.09765625,0,0
-2.21546706598019E-05,5.88686089031398E-06,5.09765625,0,0
-2.29760898946552E-05,5.49813194083981E-06,5.09765625,0,0
-2.17707056435756E-05,5.46283490621136E-06,5.09765625,0,0
-2.15726377064129E-05,5.81053018322564E-06,5.09765625,0,0
-2.23213100980502E-05,6.76674471833394E-06,5.09765625,0,0
-2.28052449529059E-05,8.99382303032326E-06,5.09765625,0,0
-2.49544991675066E-05,1.11906483653001E-05,5.09765625,0,0
-2.55695194937289E-05,1.05922663351521E-05,5.09765625,0,0
-2.8102640499128E-05,8.31042780191638E-06,5.09765625,0,0
-2.79470368695911E-05,5.99695567871095E-06,5.09765625,0,0
-2.84879752143752E-05,6.10037341175484E-06,5.09765625,0,0
-2.6319890821469E-05,7.98518794908887E-06,5.09765625,0,0
-2.58804975601379E-05,9.93154480966041E-06,5.09765625,0,0
-2.46219260588987E-05,1.02687372418586E-05,5.09765625,0,0
-2.62781668425305E-05,1.12365532913827E-05,5.09765625,0,0
-2.68827880063327E-05,1.3227420822659E-05,5.09765625,0,0
-2.7872301870957E-05,1.61071184265893E-05,5.09765625,0,0
-2.77858616755111E-05,1.79323196789483E-05,5.09765625,0,0
-2.71114495262736E-05,1.85699846042553E-05,5.09765625,0,0
-2.57058491115458E-05,1.65771452884655E-05,5.09765625,0,0
-2.50248849624768E-05,1.2763495760737E-05,5.09765625,0,0
-1.96084893104853E-05,8.1564385254751E-06,5.09765625,0,0
-2.72056622634409E-05,1.33352641569218E-05,5.09765625,0,0
-2.0539911929518E-05,1.43511633723392E-05,5.09765625,0,0
-2.67904761130922E-05,1.84785112651298E-05,5.09765625,0,0
-2.32301081268815E-05,1.56780024553882E-05,5.09765625,0,0
-2.61147451965371E-05,1.63424647325883E-05,5.09765625,0,0
-2.43528247665381E-05,1.56970872922102E-05,5.09765625,0,0
-2.56328112300253E-05,1.50592777572456E-05,5.09765625,0,0
-2.53740818152437E-05,1.33676412588102E-05,5.09765625,0,0
-2.70380187430419E-05,1.27029607028817E-05,5.09765625,0,0
-2.78547231573612E-05,1.31968681671424E-05,5.09765625,0,0
-2.64775444520637E-05,1.36396993184462E-05,5.09765625,0,0
-2.71286771749146E-05,1.42478065754403E-05,5.09765625,0,0
-2.65637299889931E-05,1.54226854647277E-05,5.09765625,0,0
-2.71568242169451E-05,1.87408877536654E-05,5.09765625,0,0
-2.52792942774249E-05,2.05509604711551E-05,5.09765625,0,0
-2.69604770437581E-05,2.09453846764518E-05,5.09765625,0,0
-2.69227948592743E-05,1.85200951818842E-05,5.09765625,0,0
-2.78865099971881E-05,1.81237446668092E-05,5.09765625,0,0
-2.58691052295035E-05,1.93108426174149E-05,5.09765625,0,0
-2.50623634201474E-05,2.13018574868329E-05,5.09765625,0,0
-2.4180591935874E-05,2.12055056181271E-05,5.09765625,0,0
-2.56213661486981E-05,2.00784652406583E-05,5.09765625,0,0
-2.60849974438315E-05,1.58871498570079E-05,5.09765625,0,0
-2.71906264970312E-05,7.60758712203824E-06,5.09765625,0,0
-2.85412115772488E-05,-3.08257290271285E-06,5.09765625,0,0
-2.96804628305836E-05,-9.56263374973787E-06,5.09765625,0,0
-2.20523943426088E-05,-2.81327265838627E-06,5.09765625,0,0
-2.87242892227368E-05,7.85739212005865E-06,5.09765625,0,0
-1.93106097867712E-05,2.35538645938504E-05,5.09765625,0,0
-2.6955558496411E-05,2.48400374402991E-05,5.09765625,0,0
-2.52383106271736E-05,2.28003355005058E-05,5.09765625,0,0
-3.12062620650977E-05,1.71766732819378E-05,5.09765625,0,0
-2.93707198579796E-05,1.61441930686124E-05,5.09765625,0,0
-3.05184985336382E-05,1.41782275022706E-05,5.09765625,0,0
-2.86997274088208E-05,1.41853543027537E-05,5.09765625,0,0
-2.70719319814816E-05,1.37708002512227E-05,5.09765625,0,0
-2.53855778282741E-05,1.2070210686943E-05,5.09765625,0,0
-2.32304337259848E-05,1.12333955257782E-05,5.09765625,0,0
-2.34838062169729E-05,1.01845416793367E-05,5.09765625,0,0
-2.08370111067779E-05,9.31619069888256E-06,5.09765625,0,0
-1.95056891243439E-05,7.94513198343338E-06,5.09765625,0,0
-1.6603651602054E-05,8.76517424330814E-06,5.09765625,0,0
-1.80143579200376E-05,9.68869881035062E-06,5.09765625,0,0
-1.75414334080415E-05,1.1545871529961E-05,5.09765625,0,0
-1.94251642824383E-05,1.20052263810067E-05,5.09765625,0,0
-1.93875821423717E-05,1.26605773402844E-05,5.09765625,0,0
-2.11274909815984E-05,1.2646604773181E-05,5.09765625,0,0
-2.03476138267433E-05,1.48800681927241E-05,5.09765625,0,0
-2.09273857763037E-05,1.67366088135168E-05,5.09765625,0,0
-2.17480392166181E-05,1.66410609381273E-05,5.09765625,0,0
-2.30438163271174E-05,1.64797620527679E-05,5.09765625,0,0
-2.36807063629385E-05,1.67378129845019E-05,5.09765625,0,0
-2.46500349021517E-05,1.49034285641392E-05,5.09765625,0,0
-2.0585455786204E-05,9.47850185184507E-06,5.09765625,0,0
-2.91924516204745E-05,1.29420968733029E-05,5.09765625,0,0
-2.06544191314606E-05,9.0629455371527E-06,5.09765625,0,0
-2.41475954680936E-05,1.05625276773935E-05,5.09765625,0,0
-1.99492151295999E-05,6.75297224006499E-06,5.09765625,0,0
-2.37468411796726E-05,8.25927327241516E-06,5.09765625,0,0
-2.29672205023235E-05,6.78450942359632E-06,5.09765625,0,0
-2.32049933401868E-05,6.23999585513957E-06,5.09765625,0,0
-1.95135253306944E-05,5.03218234371161E-06,5.09765625,0,0
-1.70378280017758E-05,4.01474881073227E-06,5.09765625,0,0
-1.77479560079519E-05,2.3887757834018E-06,5.09765625,0,0
-1.94200674741296E-05,9.06622119600797E-07,5.09765625,0,0
-2.15421914617764E-05,9.18387570436607E-07,5.09765625,0,0
-2.05328233278124E-05,-8.90505589268287E-07,5.09765625,0,0
-2.15557192859706E-05,-2.2690185232932E-06,5.09765625,0,0
-2.01034108613385E-05,-2.49911408900516E-06,5.09765625,0,0
-2.12813574762549E-05,5.01510344363965E-09,5.09765625,0,0
-2.13514067581855E-05,-2.57738683728803E-08,5.09765625,0,0
-2.23402712435927E-05,-2.76909815966064E-07,5.09765625,0,0
-1.97656499949517E-05,-1.01991543033364E-06,5.09765625,0,0
-1.94131534954067E-05,-1.32670504626731E-06,5.09765625,0,0
-1.93881405721186E-05,-3.12493966703187E-06,5.09765625,0,0
-2.03260678972583E-05,-3.1079275686352E-06,5.09765625,0,0
-2.07597404369153E-05,-1.34701213028166E-06,5.09765625,0,0
-2.14794363273541E-05,2.11365417612797E-07,5.09765625,0,0
-2.15678664972074E-05,-1.38286665674059E-07,5.09765625,0,0
-2.21205245907186E-05,8.44523526666308E-08,5.09765625,0,0
-1.8810202163877E-05,1.93910773305106E-06,5.09765625,0,0
-2.76033806585474E-05,3.85783869205625E-06,5.09765625,0,0
-2.1964697225485E-05,5.46350474905921E-06,5.09765625,0,0
-2.62530593317933E-05,9.12879204406636E-06,5.09765625,0,0
-2.26248939725338E-05,1.27943294501165E-05,5.09765625,0,0
-2.54016085818876E-05,1.50769474203116E-05,5.09765625,0,0
-2.35964744206285E-05,1.47006821862306E-05,5.09765625,0,0
-2.53839189099381E-05,1.26440590975108E-05,5.09765625,0,0
-2.50278390012681E-05,1.08238400571281E-05,5.09765625,0,0
-2.44736238528276E-05,9.1951424110448E-06,5.09765625,0,0
-2.33306418522261E-05,7.59450313125853E-06,5.09765625,0,0
-2.20412966882577E-05,7.17371540304157E-06,5.09765625,0,0
-2.34715862461599E-05,7.82506231189473E-06,5.09765625,0,0
-2.38776610785862E-05,7.8721932368353E-06,5.09765625,0,0
-2.63061883742921E-05,7.70037604524987E-06,5.09765625,0,0
-2.61708446487319E-05,7.88025954534533E-06,5.09765625,0,0
-2.75709935522173E-05,8.77906222740421E-06,5.09765625,0,0
-2.70786458713701E-05,9.2006330305594E-06,5.09765625,0,0
-2.91255200863816E-05,9.43971826927736E-06,5.09765625,0,0
-2.96176021947758E-05,1.0075810678245E-05,5.09765625,0,0
-3.05963549180888E-05,1.04530390672153E-05,5.09765625,0,0
-2.90089337795507E-05,8.57777649798663E-06,5.09765625,0,0
-2.82160708593437E-05,5.84727376917726E-06,5.09765625,0,0
-2.76481059700018E-05,4.78616129839793E-06,5.09765625,0,0
-2.83944100374356E-05,5.32385456608608E-06,5.09765625,0,0
-2.88752835331252E-05,7.54378470446682E-06,5.09765625,0,0
-2.92735076072859E-05,1.14312779260217E-05,5.09765625,0,0
-2.46399868046865E-05,1.11365307020606E-05,5.09765625,0,0
-3.5948909498984E-05,1.51063632074511E-05,5.09765625,0,0
-2.77768849628046E-05,1.20616987260291E-05,5.09765625,0,0
-3.35366894432809E-05,1.66057252499741E-05,5.09765625,0,0
-2.90128809865564E-05,1.39411695272429E-05,5.09765625,0,0
-3.22797786793672E-05,1.62467677000677E-05,5.09765625,0,0
-2.87565344478935E-05,1.58900547830854E-05,5.09765625,0,0
-2.93862249236554E-05,1.52792708831839E-05,5.09765625,0,0
-2.84014604403637E-05,1.21215125545859E-05,5.09765625,0,0
-2.829110417224E-05,1.06576244434109E-05,5.09765625,0,0
-2.75863530987408E-05,1.14727508844226E-05,5.09765625,0,0
-2.64014888671227E-05,1.24295029308996E-05,5.09765625,0,0
-2.71325206995243E-05,1.13995401989087E-05,5.09765625,0,0
-2.43924641836202E-05,8.09082484920509E-06,5.09765625,0,0
-2.37662570725661E-05,8.08618460723665E-06,5.09765625,0,0
-2.1625177396345E-05,9.75643524725456E-06,5.09765625,0,0
-2.28885528485989E-05,1.43029010359896E-05,5.09765625,0,0
-2.13227176573128E-05,1.62118703883607E-05,5.09765625,0,0
-2.30258592637256E-05,1.71824431163259E-05,5.09765625,0,0
-2.34991930483375E-05,1.64389184647007E-05,5.09765625,0,0
-2.45171449932968E-05,1.66508852998959E-05,5.09765625,0,0
-2.23290371650364E-05,1.39456451506703E-05,5.09765625,0,0
-2.09351619560039E-05,1.07601208583219E-05,5.09765625,0,0
-1.94343683688203E-05,9.31576869334094E-06,5.09765625,0,0
-1.98232301045209E-05,1.13616770249791E-05,5.09765625,0,0
-2.02400824491633E-05,1.56634523591492E-05,5.09765625,0,0
-2.1501595256268E-05,2.04679563466925E-05,5.09765625,0,0
-1.78650643647416E-05,1.78274549398338E-05,5.09765625,0,0
-2.45314677158603E-05,2.37788317463128E-05,5.09765625,0,0
-1.71930259966757E-05,1.66460995387752E-05,5.09765625,0,0
-2.2463620553026E-05,2.05958331207512E-05,5.09765625,0,0
-2.0062232579221E-05,1.60198869707529E-05,5.09765625,0,0
-2.26622796617448E-05,2.00820031750482E-05,5.09765625,0,0
-2.12155428016558E-05,1.87935947906226E-05,5.09765625,0,0
-2.25668718485394E-05,1.84322088898625E-05,5.09765625,0,0
-2.20243218791438E-05,1.57844406203367E-05,5.09765625,0,0
-2.24334526137682E-05,1.56844671437284E-05,5.09765625,0,0
-2.39658093050821E-05,1.57502308866242E-05,5.09765625,0,0
-2.40752215177054E-05,1.33408002511715E-05,5.09765625,0,0
-2.43159011006355E-05,1.18587104225298E-05,5.09765625,0,0
-2.21377376874443E-05,9.68873064266518E-06,5.09765625,0,0
-2.29683973884676E-05,1.06428651633905E-05,5.09765625,0,0
-2.38850316236494E-05,1.01506630016956E-05,5.09765625,0,0
-2.65302351181163E-05,1.17008739835001E-05,5.09765625,0,0
-2.56549737969181E-05,1.06552242868929E-05,5.09765625,0,0
-2.60360411630245E-05,1.19419073598692E-05,5.09765625,0,0
-2.59981807175791E-05,1.15604707389139E-05,5.09765625,0,0
-2.69840984401526E-05,1.18203615784296E-05,5.09765625,0,0
-2.60609194810968E-05,1.20783006423153E-05,5.09765625,0,0
-2.54573042184347E-05,1.68254355230602E-05,5.09765625,0,0
-2.36565792874899E-05,2.23638489842415E-05,5.09765625,0,0
-2.1776828361908E-05,2.57438696280587E-05,5.09765625,0,0
-1.93594514712458E-05,2.23781116801547E-05,5.09765625,0,0
-1.83172178367386E-05,1.70146722666686E-05,5.09765625,0,0
-1.45889525811072E-05,1.21503799164202E-05,5.09765625,0,0
-2.18702462007059E-05,1.73209791682893E-05,5.09765625,0,0
-1.8528897271608E-05,1.2717363460979E-05,5.09765625,0,0
-2.26067786570638E-05,1.38135510496795E-05,5.09765625,0,0
-1.90527389349882E-05,7.12603377905907E-06,5.09765625,0,0
-2.10808557312703E-05,4.59525790574844E-06,5.09765625,0,0
-2.16220232687192E-05,3.81427889806218E-06,5.09765625,0,0
-2.50307166425046E-05,8.79930030350806E-06,5.09765625,0,0
-2.58456075243885E-05,1.36796588776633E-05,5.09765625,0,0
-2.53749294643058E-05,1.62818596436409E-05,5.09765625,0,0
-2.45745104621165E-05,1.53454766405048E-05,5.09765625,0,0
-2.24967025133083E-05,1.31082670122851E-05,5.09765625,0,0
-2.09769641514868E-05,1.23568624985637E-05,5.09765625,0,0
-1.86236738954904E-05,1.06512397906044E-05,5.09765625,0,0
-1.84134041774087E-05,1.15607954285224E-05,5.09765625,0,0
-1.75048517121468E-05,1.26172344607767E-05,5.09765625,0,0
-1.9399429220357E-05,1.42562312248629E-05,5.09765625,0,0
-2.06288441404467E-05,1.27133525893441E-05,5.09765625,0,0
-2.2687932869303E-05,1.17261324703577E-05,5.09765625,0,0
-2.33768787438748E-05,1.01246632766561E-05,5.09765625,0,0
-2.46863673964981E-05,9.21563605515985E-06,5.09765625,0,0
-2.39706569118425E-05,7.0584123932349E-06,5.09765625,0,0
-2.33069786190754E-05,5.65336131330696E-06,5.09765625,0,0
-2.23953793465625E-05,4.97874862048775E-06,5.09765625,0,0
-2.25444528041407E-05,5.17711805514409E-06,5.09765625,0,0
-2.24789837375283E-05,4.80279595649336E-06,5.09765625,0,0
-2.24692485062405E-05,4.88919613417238E-06,5.09765625,0,0
-1.90624868992018E-05,4.78705032946891E-06,5.09765625,0,0
-2.77470007858938E-05,7.14580437488621E-06,5.09765625,0,0
-2.09733225347009E-05,6.38856636214769E-06,5.09765625,0,0
-2.41676752921194E-05,8.76963076734683E-06,5.09765625,0,0
-1.90258142538369E-05,8.04523915576283E-06,5.09765625,0,0
-2.07183165912284E-05,8.15765724837547E-06,5.09765625,0,0
-1.88383237400558E-05,8.19951856101397E-06,5.09765625,0,0
-2.09996924240841E-05,8.96463461685926E-06,5.09765625,0,0
-2.16212483792333E-05,9.05691194930114E-06,5.09765625,0,0
-2.28568496822845E-05,9.8484870250104E-06,5.09765625,0,0
-2.36453943216475E-05,1.1644205187622E-05,5.09765625,0,0
-2.29087236220948E-05,1.23345971587696E-05,5.09765625,0,0
-2.34226390602998E-05,1.22944293252658E-05,5.09765625,0,0
-2.23708611883922E-05,1.10989858512767E-05,5.09765625,0,0
-2.25156964006601E-05,9.58167129283538E-06,5.09765625,0,0
-1.98375273612328E-05,8.38956657389645E-06,5.09765625,0,0
-1.96133096324047E-05,9.5051427706494E-06,5.09765625,0,0
-1.88834892469458E-05,1.07424511952559E-05,5.09765625,0,0
-2.08958044822793E-05,1.17283016152214E-05,5.09765625,0,0
-2.08892051887233E-05,1.24105217764736E-05,5.09765625,0,0
-2.22511698666494E-05,1.48327171700657E-05,5.09765625,0,0
-2.29984798352234E-05,1.76820321939886E-05,5.09765625,0,0
-2.43499416683335E-05,1.8910850485554E-05,5.09765625,0,0
-2.33653918257914E-05,1.76113135239575E-05,5.09765625,0,0
-2.35572861129185E-05,1.60153922479367E-05,5.09765625,0,0
-2.47768639383139E-05,1.58847415150376E-05,5.09765625,0,0
-2.56015900959028E-05,1.58386555995094E-05,5.09765625,0,0
-2.16515818465268E-05,1.23702120617963E-05,5.09765625,0,0
-3.05000194202876E-05,1.76292160176672E-05,5.09765625,0,0
-2.28232293011388E-05,1.28963019960793E-05,5.09765625,0,0
-2.93548564513912E-05,1.57269805640681E-05,5.09765625,0,0
-2.48880314757116E-05,1.23941154015483E-05,5.09765625,0,0
-2.6252075258526E-05,1.33955618366599E-05,5.09765625,0,0
-2.28913559112698E-05,1.28829769892036E-05,5.09765625,0,0
-2.33307146118023E-05,1.50101104736677E-05,5.09765625,0,0
-2.26949578063795E-05,1.46396496347734E-05,5.09765625,0,0
-2.32945931202266E-05,1.3146546734788E-05,5.09765625,0,0
-2.42029454966541E-05,1.22115379781462E-05,5.09765625,0,0
-2.41768648265861E-05,1.15202292363392E-05,5.09765625,0,0
-2.6271651222487E-05,1.18764473882038E-05,5.09765625,0,0
-2.72647721430985E-05,1.10341561594396E-05,5.09765625,0,0
-3.05813045997638E-05,1.15035700218868E-05,5.09765625,0,0
-3.08222115563694E-05,1.05778681245283E-05,5.09765625,0,0
-3.27588240907062E-05,1.10663040686632E-05,5.09765625,0,0
-3.20392755384091E-05,1.07016512629343E-05,5.09765625,0,0
-3.28982750943396E-05,1.15305019789957E-05,5.09765625,0,0
-3.14413737214636E-05,1.21014218166238E-05,5.09765625,0,0
-3.1456169381272E-05,1.41081436595414E-05,5.09765625,0,0
-3.10604264086578E-05,1.50735340866959E-05,5.09765625,0,0
-3.31436203850899E-05,1.57711147039663E-05,5.09765625,0,0
-3.3944543247344E-05,1.45871890708804E-05,5.09765625,0,0
-3.34493706759531E-05,1.43621509778313E-05,5.09765625,0,0
-3.27206180372741E-05,1.52066704686149E-05,5.09765625,0,0
-3.19504906656221E-05,1.61952812050004E-05,5.09765625,0,0
-2.57432257058099E-05,1.21152825158788E-05,5.09765625,0,0
-3.76142852474004E-05,1.45950261867256E-05,5.09765625,0,0
-2.97944716294296E-05,8.29428790893871E-06,5.09765625,0,0
-3.48696994478814E-05,1.20793529276852E-05,5.09765625,0,0
-2.78361549135298E-05,8.13893529993948E-06,5.09765625,0,0
-3.02466578432359E-05,5.35342451257748E-06,5.09765625,0,0
-2.66421011474449E-05,-3.75487411474751E-06,5.09765625,0,0
-2.82328019238776E-05,-7.10938002157491E-06,5.09765625,0,0
-2.72877314273501E-05,-3.13406576424313E-06,5.09765625,0,0
-2.73493478744058E-05,4.93500238007982E-06,5.09765625,0,0
-2.72597135335673E-05,1.09008942672517E-05,5.09765625,0,0
-2.5417621145607E-05,1.25963224490988E-05,5.09765625,0,0
-2.59108583122725E-05,1.18785810627742E-05,5.09765625,0,0
-2.40346835198579E-05,8.3301911217859E-06,5.09765625,0,0
-2.51312976615736E-05,8.06432217359543E-06,5.09765625,0,0
-2.37178846873576E-05,8.46831608214416E-06,5.09765625,0,0
-2.44293041760102E-05,1.02960029835231E-05,5.09765625,0,0
-2.1272473532008E-05,9.90642456599744E-06,5.09765625,0,0
-2.06383556360379E-05,9.69939446804347E-06,5.09765625,0,0
-1.85798016900662E-05,7.66194261814235E-06,5.09765625,0,0
-1.95464308490045E-05,7.70726364862639E-06,5.09765625,0,0
-1.99370697373524E-05,7.1258668867813E-06,5.09765625,0,0
-2.12874001590535E-05,5.90054696658626E-06,5.09765625,0,0
-2.07470984605607E-05,4.23436313212733E-06,5.09765625,0,0
-2.10394809982972E-05,4.618243110599E-06,5.09765625,0,0
-2.15622658288339E-05,6.07899755777908E-06,5.09765625,0,0
-2.31531703320798E-05,6.88462523612543E-06,5.09765625,0,0
-1.89560269063804E-05,5.33496358912089E-06,5.09765625,0,0
-2.55522772931727E-05,7.91721959103597E-06,5.09765625,0,0
-1.83696010935819E-05,7.73979718360351E-06,5.09765625,0,0
-2.4464110538247E-05,9.78374373516999E-06,5.09765625,0,0
-2.12626055144938E-05,8.27530766400741E-06,5.09765625,0,0
-2.49306976911612E-05,8.86808538780315E-06,5.09765625,0,0
-2.48003761953441E-05,8.34076854516752E-06,5.09765625,0,0
-2.74735029961448E-05,9.41129292186815E-06,5.09765625,0,0
-2.66517017735168E-05,9.34725449042162E-06,5.09765625,0,0
-2.52836689469405E-05,9.17719899007352E-06,5.09765625,0,0
-2.48518008447718E-05,9.50442063185619E-06,5.09765625,0,0
-2.43454087467398E-05,1.01710766102769E-05,5.09765625,0,0
-2.53573034569854E-05,1.17010376925464E-05,5.09765625,0,0
-2.2919357434148E-05,1.18394618766615E-05,5.09765625,0,0
-2.20294896280393E-05,1.20955182865146E-05,5.09765625,0,0
-2.00014474103227E-05,1.15014527182211E-05,5.09765625,0,0
-2.08761830435833E-05,1.05980680018547E-05,5.09765625,0,0
-1.98469642782584E-05,8.0263471318176E-06,5.09765625,0,0
-2.04322041099658E-05,6.72638861942687E-06,5.09765625,0,0
-1.97017361642793E-05,7.12242763256654E-06,5.09765625,0,0
-2.10436428460525E-05,9.60732450039359E-06,5.09765625,0,0
-2.16165408346569E-05,1.01642172012362E-05,5.09765625,0,0
-2.30134373850888E-05,8.88394424691796E-06,5.09765625,0,0
-2.35339539358392E-05,7.90657122706762E-06,5.09765625,0,0
-2.36119230976328E-05,7.83544146543136E-06,5.09765625,0,0
-2.22851340367924E-05,7.60136845201487E-06,5.09765625,0,0
-2.11135065910639E-05,7.05691491020843E-06,5.09765625,0,0
-1.78653208422475E-05,5.71970485907514E-06,5.09765625,0,0
-2.74244539468782E-05,8.38918913359521E-06,5.09765625,0,0
-2.21512618736597E-05,6.3245524870581E-06,5.09765625,0,0
-2.44618640863337E-05,7.26720281818416E-06,5.09765625,0,0
-2.00714912352851E-05,5.35943172508269E-06,5.09765625,0,0
-2.29723918891978E-05,6.00989278609632E-06,5.09765625,0,0
-2.10255984711694E-05,7.66511675465154E-06,5.09765625,0,0
-1.98304715013364E-05,1.05876224552048E-05,5.09765625,0,0
-1.94338590517873E-05,1.1515267942741E-05,5.09765625,0,0
-2.13638395507587E-05,1.23753543448402E-05,5.09765625,0,0
-2.21676691580797E-05,1.5007612091722E-05,5.09765625,0,0
-2.14384072023677E-05,1.82895328180166E-05,5.09765625,0,0
-2.2100864953245E-05,1.99373262148583E-05,5.09765625,0,0
-2.13314306165557E-05,1.87270561582409E-05,5.09765625,0,0
-2.20286638068501E-05,1.76917146745836E-05,5.09765625,0,0
-2.11671649594791E-05,1.77646488737082E-05,5.09765625,0,0
-2.19539178942796E-05,1.96974233404035E-05,5.09765625,0,0
-2.07376906473655E-05,1.96875007532071E-05,5.09765625,0,0
-2.17947126657236E-05,1.82052281161305E-05,5.09765625,0,0
-2.19181201828178E-05,1.57079393829918E-05,5.09765625,0,0
-2.33858845604118E-05,1.37548095153761E-05,5.09765625,0,0
-2.39100390899694E-05,1.04847922557383E-05,5.09765625,0,0
-2.50128759944346E-05,2.0442889763217E-06,5.09765625,0,0
-2.53041362157092E-05,-1.0534758985159E-05,5.09765625,0,0
-2.60911510849837E-05,-1.51177046063822E-05,5.09765625,0,0
-2.69366119027836E-05,-7.66834727983223E-06,5.09765625,0,0
-2.73591231234604E-05,1.77877791429637E-06,5.09765625,0,0
-2.09557601920096E-05,6.28215775577701E-06,5.09765625,0,0
-2.83663084701402E-05,8.48344643600285E-06,5.09765625,0,0
-2.04755142476643E-05,4.21415188611718E-06,5.09765625,0,0
-2.59607732004952E-05,4.94862570121768E-06,5.09765625,0,0
-2.06697459361749E-05,6.10206188866869E-06,5.09765625,0,0
-2.37612930504838E-05,1.06779207271757E-05,5.09765625,0,0
-2.17232245631749E-05,1.2578417226905E-05,5.09765625,0,0
-2.42965379584348E-05,1.01603845905629E-05,5.09765625,0,0
-2.57468836935004E-05,6.35899414191954E-06,5.09765625,0,0
-2.70407763309777E-05,4.78998117614537E-06,5.09765625,0,0
-2.68832700385246E-05,4.94056621391792E-06,5.09765625,0,0
-2.56420753430575E-05,6.09235394222196E-06,5.09765625,0,0
-2.58687086898135E-05,8.72015516506508E-06,5.09765625,0,0
-2.47264033532701E-05,1.06595061879489E-05,5.09765625,0,0
-2.73965324595338E-05,1.14551203296287E-05,5.09765625,0,0
-2.86461436189711E-05,1.04240452856175E-05,5.09765625,0,0
-3.12883894366678E-05,9.50393405219074E-06,5.09765625,0,0
-3.00725696433801E-05,7.70730093790917E-06,5.09765625,0,0
-3.07171940221451E-05,6.7319956542633E-06,5.09765625,0,0
-2.89763738692272E-05,5.79086008656304E-06,5.09765625,0,0
-2.87281945929863E-05,5.20615412824554E-06,5.09765625,0,0
-2.75601687462768E-05,5.61787373953848E-06,5.09765625,0,0
-2.814398794726E-05,7.48468573874561E-06,5.09765625,0,0
-2.70038908638526E-05,9.36046853894368E-06,5.09765625,0,0
-2.62659395957598E-05,1.30272746901028E-05,5.09765625,0,0
-2.53230118687497E-05,1.5232293662848E-05,5.09765625,0,0
-2.44222283072304E-05,1.3956664588477E-05,5.09765625,0,0
-1.6892141502467E-05,1.06120869531878E-05,5.09765625,0,0
-2.33319678955013E-05,1.54961107909912E-05,5.09765625,0,0
-1.79702819878003E-05,1.33349685711437E-05,5.09765625,0,0
-2.30791774811223E-05,1.76336743606953E-05,5.09765625,0,0
-1.95099055417813E-05,1.5491561498493E-05,5.09765625,0,0
-2.26312386075733E-05,1.75465993379476E-05,5.09765625,0,0
-2.09369663934922E-05,1.78427399077918E-05,5.09765625,0,0
-2.10418857022887E-05,1.91731705854181E-05,5.09765625,0,0
-1.83783376996871E-05,1.80198585439939E-05,5.09765625,0,0
-1.68912101798924E-05,1.59575611178298E-05,5.09765625,0,0
-1.58769526024116E-05,1.44617861224106E-05,5.09765625,0,0
-1.37680954139796E-05,1.34452666316065E-05,5.09765625,0,0
-1.35225627673208E-05,1.37275501401746E-05,5.09765625,0,0
-1.2104699635529E-05,1.24529278764385E-05,5.09765625,0,0
-1.23874242490274E-05,1.26174109027488E-05,5.09765625,0,0
-1.20655495265964E-05,1.21872217277996E-05,5.09765625,0,0
-1.55861198436469E-05,1.2580817383423E-05,5.09765625,0,0
-1.68223104992649E-05,1.10880473584984E-05,5.09765625,0,0
-1.81544928636868E-05,1.05178696685471E-05,5.09765625,0,0
-1.72787677001907E-05,1.04064129118342E-05,5.09765625,0,0
-1.79169292096049E-05,1.24627958939527E-05,5.09765625,0,0
-1.75082350324374E-05,1.46667362059816E-05,5.09765625,0,0
-1.85540557140484E-05,1.81610012077726E-05,5.09765625,0,0
-1.90303508134093E-05,2.03704621526413E-05,5.09765625,0,0
-1.88502908713417E-05,1.95950487977825E-05,5.09765625,0,0
-1.85598564712564E-05,1.67159560078289E-05,5.09765625,0,0
-1.96907694771653E-05,1.57638369273627E-05,5.09765625,0,0
-1.67621747095836E-05,1.45652238643379E-05,5.09765625,0,0
-2.37856384046609E-05,2.14964857150335E-05,5.09765625,0,0
-1.81581053766422E-05,1.7305917936028E-05,5.09765625,0,0
-2.23209499381483E-05,2.20792480831733E-05,5.09765625,0,0
-1.93107680388493E-05,1.89272177522071E-05,5.09765625,0,0
-2.3866237825132E-05,1.82664662133902E-05,5.09765625,0,0
-2.41281504713697E-05,1.34170295496006E-05,5.09765625,0,0
-2.48164051299682E-05,1.04501295936643E-05,5.09765625,0,0
-2.3625234462088E-05,8.91731178853661E-06,5.09765625,0,0
-2.45422143052565E-05,1.0710770766309E-05,5.09765625,0,0
-2.55112299782922E-05,1.35920199682005E-05,5.09765625,0,0
-2.42555088334484E-05,1.39865651362925E-05,5.09765625,0,0
-2.40284389292356E-05,1.11347872007173E-05,5.09765625,0,0
-2.28572644118685E-05,5.2476316341199E-06,5.09765625,0,0
-2.46827330556698E-05,3.12041947836406E-06,5.09765625,0,0
-2.58141863014316E-05,1.88720582627866E-06,5.09765625,0,0
-2.89646814053413E-05,1.24188943573245E-06,5.09765625,0,0
-2.90675579890376E-05,-1.3932252613813E-06,5.09765625,0,0
-2.9335662475205E-05,6.27416511633783E-07,5.09765625,0,0
-2.8157113774796E-05,5.81480662731337E-06,5.09765625,0,0
-2.8591210138984E-05,1.23419094961719E-05,5.09765625,0,0
-2.76462033070857E-05,1.41217224154389E-05,5.09765625,0,0
-2.69821412075544E-05,1.35099953695317E-05,5.09765625,0,0
-2.49078530032421E-05,1.16279934445629E-05,5.09765625,0,0
-2.36194355238695E-05,1.11414374259766E-05,5.09765625,0,0
-2.20960173464846E-05,1.06402030723984E-05,5.09765625,0,0
-2.05235719477059E-05,9.15725831873715E-06,5.09765625,0,0
-1.70302064361749E-05,6.96134839017759E-06,5.09765625,0,0
-2.52294030360645E-05,9.58796408667695E-06,5.09765625,0,0
-2.02281080419198E-05,7.66472294344567E-06,5.09765625,0,0
-2.4390516045969E-05,1.08928807094344E-05,5.09765625,0,0
-2.17929937207373E-05,1.07164241853752E-05,5.09765625,0,0
-2.48097821895499E-05,1.27121156765497E-05,5.09765625,0,0
-2.21859754674369E-05,1.21602743092808E-05,5.09765625,0,0
-2.05800552066648E-05,1.11165636553778E-05,5.09765625,0,0
-1.76392586581642E-05,9.54396182351047E-06,5.09765625,0,0
-1.81713530764682E-05,9.20424827199895E-06,5.09765625,0,0
-2.07803223020164E-05,9.58013151830528E-06,5.09765625,0,0
-2.20912334043533E-05,9.28725785342976E-06,5.09765625,0,0
-2.39933469856624E-05,9.29065572563559E-06,5.09765625,0,0
-2.46815197897376E-05,9.83552490652073E-06,5.09765625,0,0
-2.7278472771286E-05,1.11784002001514E-05,5.09765625,0,0
-2.76851005764911E-05,9.9528306236607E-06,5.09765625,0,0
-2.89105282718083E-05,8.36310755403247E-06,5.09765625,0,0
-2.7103333195555E-05,6.29204396318528E-06,5.09765625,0,0
-2.6410487407702E-05,5.54469397684443E-06,5.09765625,0,0
-2.52573554462288E-05,6.07978336120141E-06,5.09765625,0,0
-2.67567138507729E-05,1.06829329524771E-05,5.09765625,0,0
-2.70441632892471E-05,1.59866685862653E-05,5.09765625,0,0
-2.70798536803341E-05,1.87655768968398E-05,5.09765625,0,0
-2.58048876276007E-05,1.89738930203021E-05,5.09765625,0,0
-2.58176532952348E-05,1.86314537131693E-05,5.09765625,0,0
-2.69342526735272E-05,1.72205072885845E-05,5.09765625,0,0
-2.84008401649771E-05,1.65749333973508E-05,5.09765625,0,0
-2.31355625146534E-05,1.31942206280655E-05,5.09765625,0,0
-3.27759044012055E-05,1.77307465492049E-05,5.09765625,0,0
-2.51254841714399E-05,1.25151318570715E-05,5.09765625,0,0
-3.13246418954805E-05,1.62423148140078E-05,5.09765625,0,0
-2.58832224062644E-05,1.31446577142924E-05,5.09765625,0,0
-2.86384110950166E-05,1.51051735883811E-05,5.09765625,0,0
-2.5318631742266E-05,1.36146063596243E-05,5.09765625,0,0
-2.62046632997226E-05,1.38845161927748E-05,5.09765625,0,0
-2.62069479504135E-05,1.30156604427611E-05,5.09765625,0,0
-2.66222086793277E-05,1.24271118693287E-05,5.09765625,0,0
-2.71148546744371E-05,1.13407959361211E-05,5.09765625,0,0
-2.76882710750215E-05,1.12951338451239E-05,5.09765625,0,0
-2.98751838272437E-05,1.35389482238679E-05,5.09765625,0,0
-2.85418518615188E-05,1.37674187499215E-05,5.09765625,0,0
-2.84906273009256E-05,1.48871167766629E-05,5.09765625,0,0
-2.61610421148362E-05,1.32410577862174E-05,5.09765625,0,0
-2.70363361778436E-05,1.12788111437112E-05,5.09765625,0,0
-2.57209703704575E-05,7.83866562414914E-06,5.09765625,0,0
-2.63858510152204E-05,7.43579994377797E-06,5.09765625,0,0
-2.53057733061723E-05,6.82728887113626E-06,5.09765625,0,0
-2.66670394921675E-05,6.99367546985741E-06,5.09765625,0,0
-2.64543577941367E-05,5.74085061089136E-06,5.09765625,0,0
-2.76592800219078E-05,5.35752405994572E-06,5.09765625,0,0
-2.77730177913327E-05,4.92279832542408E-06,5.09765625,0,0
-2.78343704849249E-05,6.36329332337482E-06,5.09765625,0,0
-2.71930930466624E-05,9.09983737074072E-06,5.09765625,0,0
-2.75851398328086E-05,1.21376142487861E-05,5.09765625,0,0
-2.34341005125316E-05,1.1315612027829E-05,5.09765625,0,0
-3.28716159856413E-05,1.44665855259518E-05,5.09765625,0,0
-2.44354723690776E-05,7.69163398217643E-06,5.09765625,0,0
-3.06623514916282E-05,9.54000097408425E-06,5.09765625,0,0
-2.65239450527588E-05,9.18335172173101E-06,5.09765625,0,0
-2.960221900139E-05,1.31435626826715E-05,5.09765625,0,0
-2.67329105554381E-05,1.10025257527013E-05,5.09765625,0,0
-2.88772243948188E-05,9.01247494766722E-06,5.09765625,0,0
-2.85436271951767E-05,8.2698097685352E-06,5.09765625,0,0
-2.73175119218649E-05,9.73767510004109E-06,5.09765625,0,0
-2.53756406891625E-05,1.17816807687632E-05,5.09765625,0,0
-2.31384619837627E-05,1.25579099403694E-05,5.09765625,0,0
-2.34905382967554E-05,1.21171915452578E-05,5.09765625,0,0
-2.18946624954697E-05,8.36945309856674E-06,5.09765625,0,0
-2.24564282689244E-05,5.22104301126092E-06,5.09765625,0,0
-1.9989891370642E-05,2.98078202831675E-06,5.09765625,0,0
-2.10657708521467E-05,4.67010113425204E-06,5.09765625,0,0
-2.10021826205775E-05,5.92852347836015E-06,5.09765625,0,0
-2.26534666580847E-05,7.3561500357755E-06,5.09765625,0,0
-2.07475986826466E-05,7.10866834197077E-06,5.09765625,0,0
-2.15515319723636E-05,9.48820979829179E-06,5.09765625,0,0
-2.18091336137149E-05,1.27591893033241E-05,5.09765625,0,0
-2.26215270231478E-05,1.41096688821563E-05,5.09765625,0,0
-2.23392307816539E-05,1.09778038677177E-05,5.09765625,0,0
-2.31516933126841E-05,8.04468527348945E-06,5.09765625,0,0
-2.39077216974692E-05,7.53368112782482E-06,5.09765625,0,0
-2.49194163188804E-05,8.43823727336712E-06,5.09765625,0,0
-1.93510259123286E-05,7.23088169252151E-06,5.09765625,0,0
-2.71999124379363E-05,9.05688375496538E-06,5.09765625,0,0
-2.14617939491291E-05,5.8622954384191E-06,5.09765625,0,0
-2.70770578936208E-05,8.2310316429357E-06,5.09765625,0,0
-2.22951275645755E-05,6.25982966084848E-06,5.09765625,0,0
-2.49182030529482E-05,6.99859992892016E-06,5.09765625,0,0
-2.27700693358202E-05,7.349764018727E-06,5.09765625,0,0
-2.37231579376385E-05,8.68287497723941E-06,5.09765625,0,0
-2.32875536312349E-05,7.68814788898453E-06,5.09765625,0,0
-2.28967819566606E-05,6.97023824614007E-06,5.09765625,0,0
-2.21547215915052E-05,7.16953854862368E-06,5.09765625,0,0
-2.20410638576141E-05,7.22368531569373E-06,5.09765625,0,0
-2.36991927522467E-05,8.05175750429044E-06,5.09765625,0,0
-2.21040863834787E-05,8.43531142891152E-06,5.09765625,0,0
-2.24832947424147E-05,9.9690896604443E-06,5.09765625,0,0
-2.23459319386166E-05,1.002616227197E-05,5.09765625,0,0
-2.45034607360139E-05,9.27473138290225E-06,5.09765625,0,0
-2.37314252444776E-05,7.52308096707566E-06,5.09765625,0,0
-2.54293790931115E-05,8.62913657329045E-06,5.09765625,0,0
-2.57303690887056E-05,1.00109136838E-05,5.09765625,0,0
-2.69383017439395E-05,1.06150037026964E-05,5.09765625,0,0
-2.61850909737404E-05,1.05736871773843E-05,5.09765625,0,0
-2.68746225629002E-05,1.23518721011351E-05,5.09765625,0,0
-2.67515333689516E-05,1.34180736495182E-05,5.09765625,0,0
-2.58724576269742E-05,1.3875903277949E-05,5.09765625,0,0
-2.36640298680868E-05,1.36214157464565E-05,5.09765625,0,0
-2.2876482034917E-05,1.26641671158723E-05,5.09765625,0,0
-1.81140676431824E-05,8.57195573189529E-06,5.09765625,0,0
-2.52058125624899E-05,1.08830627141288E-05,5.09765625,0,0
-1.89840375242056E-05,7.37552591090207E-06,5.09765625,0,0
-2.4001670681173E-05,1.12906373033184E-05,5.09765625,0,0
-1.98427278519375E-05,1.04583114080015E-05,5.09765625,0,0
-2.20887868636055E-05,1.25413480418501E-05,5.09765625,0,0
-2.00513986783335E-05,1.1525438821991E-05,5.09765625,0,0
-2.17495799006429E-05,1.02705480458098E-05,5.09765625,0,0
-2.22183316509472E-05,8.31813940749271E-06,5.09765625,0,0
-2.21514528675471E-05,7.66644916438963E-06,5.09765625,0,0
-2.14735318877501E-05,8.51823642733507E-06,5.09765625,0,0
-2.09048066608375E-05,1.08907597677899E-05,5.09765625,0,0
-2.24348459596513E-05,1.34487099785474E-05,5.09765625,0,0
-2.20419169636443E-05,1.27882367451093E-05,5.09765625,0,0
-2.23740116780391E-05,1.18609523269697E-05,5.09765625,0,0
-2.05401902348967E-05,1.07180494524073E-05,5.09765625,0,0
-2.11363676498877E-05,1.20933100333787E-05,5.09765625,0,0
-2.00751255761134E-05,1.23677500596386E-05,5.09765625,0,0
-2.17053020605817E-05,1.19678970804671E-05,5.09765625,0,0
-2.2063817596063E-05,9.21325590752531E-06,5.09765625,0,0
-2.33665705309249E-05,8.2820715761045E-06,5.09765625,0,0
-2.30520163313486E-05,9.28130157262785E-06,5.09765625,0,0
-2.35476381931221E-05,1.07007845144835E-05,5.09765625,0,0
-2.32362599490443E-05,1.01055720733711E-05,5.09765625,0,0
-2.38330212596338E-05,7.68317386246054E-06,5.09765625,0,0
-2.35805327974958E-05,5.27100701219752E-06,5.09765625,0,0
-2.36923006013967E-05,4.83120811622939E-06,5.09765625,0,0
-2.01555158128031E-05,5.05676644024788E-06,5.09765625,0,0
-2.81069260381628E-05,8.98146208783146E-06,5.09765625,0,0
-1.99345540750073E-05,7.64251126383897E-06,5.09765625,0,0
-2.46211675403174E-05,5.56563691134215E-06,5.09765625,0,0
-2.25127896555932E-05,4.27758732257644E-06,5.09765625,0,0
-2.82375713140937E-05,8.29311466077343E-06,5.09765625,0,0
-2.69568827206967E-05,1.05349226942053E-05,5.09765625,0,0
-2.58621621469501E-05,1.09289803731372E-05,5.09765625,0,0
-2.23133883991977E-05,1.05045264717774E-05,5.09765625,0,0
-2.20592410187237E-05,1.05875469671446E-05,5.09765625,0,0
-2.34484487009468E-05,1.1294462638034E-05,5.09765625,0,0
-2.35484385484597E-05,1.25330652736011E-05,5.09765625,0,0
-2.41676207224373E-05,1.32658706206712E-05,5.09765625,0,0
-2.32254569709767E-05,1.23548988995026E-05,5.09765625,0,0
-2.56097027886426E-05,1.15786033347831E-05,5.09765625,0,0
-2.58899617620045E-05,1.11839799501467E-05,5.09765625,0,0
-2.72332526947139E-05,1.1528634786373E-05,5.09765625,0,0
-2.50511657213792E-05,1.18603657028871E-05,5.09765625,0,0
-2.45899518631632E-05,1.39310550366645E-05,5.09765625,0,0
-2.29483102884842E-05,1.5875908502494E-05,5.09765625,0,0
-2.3478618459194E-05,1.71489518834278E-05,5.09765625,0,0
-2.22510043386137E-05,1.76333232957404E-05,5.09765625,0,0
-2.23272018047282E-05,1.81585492100567E-05,5.09765625,0,0
-2.19585817831103E-05,1.73648204508936E-05,5.09765625,0,0
-2.15640811802587E-05,1.68382393894717E-05,5.09765625,0,0
-2.07633966056164E-05,1.62879478011746E-05,5.09765625,0,0
-2.16991193155991E-05,1.41853388413438E-05,5.09765625,0,0
-1.8799055396812E-05,9.24005325941835E-06,5.09765625,0,0
-2.682558442757E-05,1.17308563858387E-05,5.09765625,0,0
-2.14412375498796E-05,8.67075232235948E-06,5.09765625,0,0
-2.65505677816691E-05,1.44145760714309E-05,5.09765625,0,0
-2.12604627449764E-05,1.49889874592191E-05,5.09765625,0,0
-2.24542145588202E-05,1.77289784915047E-05,5.09765625,0,0
-2.1042946173111E-05,1.64495631906902E-05,5.09765625,0,0
-2.38036609516712E-05,1.47751279655495E-05,5.09765625,0,0
-2.32623351621442E-05,1.13715541374404E-05,5.09765625,0,0
-2.34695216931868E-05,9.9978678917978E-06,5.09765625,0,0
-2.42489295487758E-05,9.84565122053027E-06,5.09765625,0,0
-2.40657427639235E-05,1.01993764474173E-05,5.09765625,0,0
-2.55648628808558E-05,1.14058893814217E-05,5.09765625,0,0
-2.52665813604835E-05,1.16044866445009E-05,5.09765625,0,0
-2.56995153904427E-05,1.36214794110856E-05,5.09765625,0,0
-2.38208667724393E-05,1.43200713864644E-05,5.09765625,0,0
-2.50119483098388E-05,1.55338111653691E-05,5.09765625,0,0
-2.41857342189178E-05,1.50306550494861E-05,5.09765625,0,0
-2.43270260398276E-05,1.49489487739629E-05,5.09765625,0,0
-2.16728712985059E-05,1.2729470654449E-05,5.09765625,0,0
-2.0468531147344E-05,1.15700622700388E-05,5.09765625,0,0
-1.90429709618911E-05,1.20379218060407E-05,5.09765625,0,0
-2.10366542887641E-05,1.47924565681024E-05,5.09765625,0,0
-2.30701480177231E-05,1.65369947353611E-05,5.09765625,0,0
-2.38214997807518E-05,1.61195257533109E-05,5.09765625,0,0
-2.34537801588885E-05,1.54496337927412E-05,5.09765625,0,0
-2.39392029470764E-05,1.6753729141783E-05,5.09765625,0,0
-1.9753319065785E-05,1.36062453748309E-05,5.09765625,0,0
-2.69942611339502E-05,1.72554555319948E-05,5.09765625,0,0
-2.01264920178801E-05,1.05487679320504E-05,5.09765625,0,0
-2.67550130956806E-05,1.24480857266462E-05,5.09765625,0,0
-2.32276361202821E-05,7.37331538402941E-06,5.09765625,0,0
-2.68904495897004E-05,1.07787291199202E-05,5.09765625,0,0
-2.57443589362083E-05,1.18512416520389E-05,5.09765625,0,0
-2.70998807536671E-05,1.40603360705427E-05,5.09765625,0,0
-2.67520190391224E-05,1.45768790389411E-05,5.09765625,0,0
-2.71259414148517E-05,1.71125939232297E-05,5.09765625,0,0
-2.69401825789828E-05,1.99226815311704E-05,5.09765625,0,0
-2.47775788011495E-05,1.90584341908107E-05,5.09765625,0,0
-2.49761742452392E-05,1.61595580721041E-05,5.09765625,0,0
-2.39946621150011E-05,1.18906700663501E-05,5.09765625,0,0
-2.43757895077579E-05,1.25879696497577E-05,5.09765625,0,0
-2.19811099668732E-05,1.39571866384358E-05,5.09765625,0,0
-2.19908215512987E-05,1.37666711452766E-05,5.09765625,0,0
-2.0596449758159E-05,7.16191289029666E-06,5.09765625,0,0
-2.17349352169549E-05,1.3719496791964E-06,5.09765625,0,0
-2.0950425096089E-05,-1.2468485692807E-06,5.09765625,0,0
-2.16258540604031E-05,3.22487539961003E-06,5.09765625,0,0
-2.11290498555172E-05,8.74404395290185E-06,5.09765625,0,0
-2.20556503336411E-05,1.19001770144678E-05,5.09765625,0,0
-2.32887778111035E-05,9.13731400942197E-06,5.09765625,0,0
-2.54906371992547E-05,5.90600620853365E-06,5.09765625,0,0
-2.61715849774191E-05,4.34366393164964E-06,5.09765625,0,0
-2.5853574697976E-05,4.34563025919488E-06,5.09765625,0,0
-2.0019217117806E-05,4.79565551358974E-06,5.09765625,0,0
-2.76529699476669E-05,8.58401199366199E-06,5.09765625,0,0
-2.05396299861604E-05,9.12873474590015E-06,5.09765625,0,0
-2.53556536335964E-05,1.01384321169462E-05,5.09765625,0,0
-1.98113139049383E-05,8.127454748319E-06,5.09765625,0,0
-2.18838395085186E-05,8.0746676758281E-06,5.09765625,0,0
-1.95277880266076E-05,7.16919475962641E-06,5.09765625,0,0
-2.19092635234119E-05,6.43077510176227E-06,5.09765625,0,0
-2.22592352656648E-05,8.16368901723763E-06,5.09765625,0,0
-2.2213516785996E-05,1.02225612863549E-05,5.09765625,0,0
-2.18841632886324E-05,9.53046765062027E-06,5.09765625,0,0
-2.10807993425988E-05,8.32220848678844E-06,5.09765625,0,0
-2.2452248231275E-05,8.69096493261168E-06,5.09765625,0,0
-2.24096893362002E-05,8.68382994667627E-06,5.09765625,0,0
-2.51836863753852E-05,7.71324266679585E-06,5.09765625,0,0
-2.51764413405908E-05,5.64993297302863E-06,5.09765625,0,0
-2.56043367699021E-05,4.0515960790799E-06,5.09765625,0,0
-2.26109877985436E-05,2.30284672397829E-06,5.09765625,0,0
-2.21884856728138E-05,2.16102534977836E-06,5.09765625,0,0
-2.14300980587723E-05,4.0141494537238E-06,5.09765625,0,0
-2.32464262808207E-05,6.90590741214692E-06,5.09765625,0,0
-2.33217597269686E-05,8.53705205372535E-06,5.09765625,0,0
-2.25486000999808E-05,9.42258793656947E-06,5.09765625,0,0
-2.06565473490627E-05,1.004815021588E-05,5.09765625,0,0
-2.20401780097745E-05,9.8643367891782E-06,5.09765625,0,0
-2.36035430134507E-05,8.00985981186386E-06,5.09765625,0,0
-2.45627325057285E-05,8.66762911755359E-06,5.09765625,0,0
-2.05744727281854E-05,8.29102100396995E-06,5.09765625,0,0
-2.98623181151925E-05,1.10295077320188E-05,5.09765625,0,0
-2.39998898905469E-05,7.33156184651307E-06,5.09765625,0,0
-2.97085771308048E-05,8.95116954779951E-06,5.09765625,0,0
-2.46597901423229E-05,5.48447314940859E-06,5.09765625,0,0
-2.66908391495235E-05,5.77655100642005E-06,5.09765625,0,0
-2.45726278080838E-05,4.80506832900574E-06,5.09765625,0,0
-2.62753128481563E-05,3.6582359825843E-06,5.09765625,0,0
-2.73465229838621E-05,1.0801634289237E-06,5.09765625,0,0
-2.95336722047068E-05,7.4764091095858E-07,5.09765625,0,0
-3.12658557959367E-05,2.35388665714709E-06,5.09765625,0,0
-3.09199240291491E-05,3.37156006935402E-06,5.09765625,0,0
-3.13122072839178E-05,4.05319769924972E-06,5.09765625,0,0
-2.92179029202089E-05,4.84781912746257E-06,5.09765625,0,0
-2.92391287075588E-05,8.15811836218927E-06,5.09765625,0,0
-2.81194425042486E-05,9.80757431534585E-06,5.09765625,0,0
-3.03168471873505E-05,1.05943236121675E-05,5.09765625,0,0
-3.01893996947911E-05,1.06295447039884E-05,5.09765625,0,0
-3.0014431104064E-05,1.30978050947306E-05,5.09765625,0,0
-2.75013771897648E-05,1.47850887515233E-05,5.09765625,0,0
-2.80514068435878E-05,1.46205866258242E-05,5.09765625,0,0
-2.78903244179673E-05,1.2196799616504E-05,5.09765625,0,0
-2.86480462818872E-05,1.18503403427894E-05,5.09765625,0,0
-2.72532925009727E-05,1.32101895360393E-05,5.09765625,0,0
-2.48839442065218E-05,1.46242218761472E-05,5.09765625,0,0
-2.36607938859379E-05,1.5087699466676E-05,5.09765625,0,0
-2.43725153268315E-05,1.54014633153565E-05,5.09765625,0,0
-2.02954452106496E-05,1.25190163089428E-05,5.09765625,0,0
-2.8034495699103E-05,1.75467466760892E-05,5.09765625,0,0
-2.02086266654078E-05,1.406705359841E-05,5.09765625,0,0
-2.55010854743887E-05,1.8401668057777E-05,5.09765625,0,0
-2.09579611691879E-05,1.51038866533781E-05,5.09765625,0,0
-2.25403418880887E-05,1.76650701178005E-05,5.09765625,0,0
-1.88588364835596E-05,1.74479191628052E-05,5.09765625,0,0
-1.9726539903786E-05,1.60135314217769E-05,5.09765625,0,0
-2.06323420570698E-05,1.17908239190001E-05,5.09765625,0,0
-2.27250857278705E-05,8.72968666953966E-06,5.09765625,0,0
-2.42981459450675E-05,8.28855718282284E-06,5.09765625,0,0
-2.39432702073827E-05,1.01398572951439E-05,5.09765625,0,0
-2.48217093030689E-05,1.33251805891632E-05,5.09765625,0,0
-2.35175302805146E-05,1.35914051497821E-05,5.09765625,0,0
-2.35780153161613E-05,1.38890482048737E-05,5.09765625,0,0
-2.13409348361893E-05,1.19314645417035E-05,5.09765625,0,0
-2.23421739065088E-05,1.1460663699836E-05,5.09765625,0,0
-2.1946460037725E-05,1.11325962279807E-05,5.09765625,0,0
-2.34265407925704E-05,1.27862604131224E-05,5.09765625,0,0
-2.2101676222519E-05,1.29283034766559E-05,5.09765625,0,0
-2.18663080886472E-05,1.40095089591341E-05,5.09765625,0,0
-2.06691474886611E-05,1.37201541292598E-05,5.09765625,0,0
-2.07755056180758E-05,1.38382993100095E-05,5.09765625,0,0
-2.08838755497709E-05,1.31213282656972E-05,5.09765625,0,0
-2.19954308704473E-05,1.24164689623285E-05,5.09765625,0,0
-2.20016572711756E-05,1.11340150397155E-05,5.09765625,0,0
-2.1635954908561E-05,9.81631546892459E-06,5.09765625,0,0
-1.75798195414245E-05,7.49213359085843E-06,5.09765625,0,0
-2.53413545578951E-05,9.19263766263612E-06,5.09765625,0,0
-1.97413082787534E-05,5.89004321227549E-06,5.09765625,0,0
-2.33331138588255E-05,9.83551217359491E-06,5.09765625,0,0
-1.77270376298111E-05,1.09620032162638E-05,5.09765625,0,0
-1.95573629753198E-05,1.38619134304463E-05,5.09765625,0,0
-1.82587027666159E-05,1.26082049973775E-05,5.09765625,0,0
-1.92950610653497E-05,1.27112198242685E-05,5.09765625,0,0
-1.94502317754086E-05,1.31505057652248E-05,5.09765625,0,0
-1.97497520275647E-05,1.35763575599412E-05,5.09765625,0,0
-1.94780113815796E-05,1.40354695759015E-05,5.09765625,0,0
-1.84062755579362E-05,1.47797518366133E-05,5.09765625,0,0
-1.86245706572663E-05,1.65648052643519E-05,5.09765625,0,0
-1.75214281625813E-05,1.73535026988247E-05,5.09765625,0,0
-1.85529697773745E-05,1.79854450834682E-05,5.09765625,0,0
-1.79454364115372E-05,1.76682660821825E-05,5.09765625,0,0
-1.8850869309972E-05,1.85737699212041E-05,5.09765625,0,0
-1.75791337824194E-05,1.71740502992179E-05,5.09765625,0,0
-1.82166804734152E-05,1.55352918227436E-05,5.09765625,0,0
-1.71396750374697E-05,1.37640872708289E-05,5.09765625,0,0
-1.68146507348865E-05,1.36303960971418E-05,5.09765625,0,0
-1.53516048158053E-05,1.25991746244836E-05,5.09765625,0,0
-1.59067458298523E-05,9.98835730570136E-06,5.09765625,0,0
-1.70977855304955E-05,7.60431521484861E-06,5.09765625,0,0
-1.87734240171267E-05,7.25528116163332E-06,5.09765625,0,0
-1.93260457308497E-05,6.58496310279588E-06,5.09765625,0,0
-1.93992909771623E-05,6.49382172923652E-06,5.09765625,0,0
-1.70304974744795E-05,5.59563568458543E-06,5.09765625,0,0
-2.62808807747206E-05,7.13071131031029E-06,5.09765625,0,0
-2.15027048398042E-05,3.6511426060315E-06,5.09765625,0,0
-2.36316591326613E-05,3.7553945730906E-06,5.09765625,0,0
-1.98196848941734E-05,2.7820080958918E-06,5.09765625,0,0
-2.39476084971102E-05,4.64128834209987E-06,5.09765625,0,0
-2.36894957197364E-05,3.67889992958226E-06,5.09765625,0,0
-2.37100593949435E-05,2.95611562250997E-06,5.09765625,0,0
-2.1293293684721E-05,3.82869393433793E-06,5.09765625,0,0
-2.07395187317161E-05,4.95399171995814E-06,5.09765625,0,0
-2.19889989239164E-05,4.34295498052961E-06,5.09765625,0,0
-2.31735448323889E-05,4.35042738899938E-06,5.09765625,0,0
-2.56534804066177E-05,5.16531781613594E-06,5.09765625,0,0
-2.54045935434988E-05,4.53017582913162E-06,5.09765625,0,0
