biceps_emg, triceps_emg, subject_position, position_estimate, brace_position
-2.18196582864039E-05,-4.0026052374742E-06,3.69140625,0,0
-1.93508731172187E-05,-6.00013026996749E-06,3.69140625,0,0
-1.91098915820476E-05,-8.089751645457E-06,3.69140625,0,0
-1.86016386578558E-05,-7.04847752786009E-06,3.69140625,0,0
-1.83579231816111E-05,-2.43025669988128E-06,3.69140625,0,0
-1.69228769664187E-05,-2.34065032600483E-06,3.69140625,0,0
-1.71021438291064E-05,-9.87471412372543E-06,3.69140625,0,0
-1.84665950655472E-05,-1.83945467142621E-05,3.69140625,0,0
-1.94610565813491E-05,-1.86990928341402E-05,3.69140625,0,0
-1.50138257595245E-05,-9.88647116173524E-06,3.69140625,0,0
-2.16443440876901E-05,-6.81410756442347E-06,3.69140625,0,0
-1.7844075046014E-05,2.24858283104368E-07,3.69140625,0,0
-2.28481003432535E-05,3.3365654417139E-06,3.69140625,0,0
-1.99640398932388E-05,1.74811993929325E-05,3.69140625,0,0
-2.09980407817056E-05,1.31546596549015E-06,3.69140625,0,0
-1.80060305865482E-05,-2.96347479888937E-06,3.69140625,0,0
-1.78006303030998E-05,1.41314876600518E-05,3.69140625,0,0
-1.7753140127752E-05,1.81978321052156E-05,3.69140625,0,0
-1.91271992662223E-05,1.94323147297837E-05,3.69140625,0,0
-2.01528673642315E-05,2.85228779830504E-05,3.69140625,0,0
-1.96471373783425E-05,2.52131321758498E-05,3.69140625,0,0
-1.95668908418156E-05,1.77577985596145E-05,3.69140625,0,0
-1.8803224520525E-05,2.63030997302849E-05,3.69140625,0,0
-2.01966122403974E-05,3.13664349960163E-05,3.69140625,0,0
-2.02489663934102E-05,2.68598250841023E-05,3.69140625,0,0
-2.23047045437852E-05,2.27169075515121E-05,3.69140625,0,0
-2.31707817874849E-05,2.60220804193523E-05,3.69140625,0,0
-2.5118975827354E-05,2.84704237856204E-05,3.69140625,0,0
-2.51493929681601E-05,3.14951794280205E-05,3.69140625,0,0
-2.67983341473155E-05,3.47038367181085E-05,3.69140625,0,0
-2.75811835308559E-05,3.91909416066483E-05,3.69140625,0,0
-2.87239890894853E-05,3.79600132873748E-05,3.69140625,0,0
-2.87380935333204E-05,3.1879997550277E-05,3.69140625,0,0
-2.77993713098112E-05,2.49611457547871E-05,3.69140625,0,0
-2.59036969509907E-05,1.82031199074117E-05,3.69140625,0,0
-2.53224352491088E-05,1.1242252185184E-05,3.69140625,0,0
-2.00083559320774E-05,6.07011816100567E-06,3.69140625,0,0
-2.73998794000363E-05,1.03434049378848E-05,3.69140625,0,0
-1.88835583685432E-05,4.69483711640351E-06,3.69140625,0,0
-2.36637733905809E-05,1.11793515316094E-05,3.69140625,0,0
-1.89031889021862E-05,1.97594963537995E-05,3.69140625,0,0
-2.07564044103492E-05,3.10487507704238E-06,3.69140625,0,0
-1.99889527721098E-05,-9.9457993201213E-06,3.69140625,0,0
-2.47067855525529E-05,-3.88720673072385E-06,3.69140625,0,0
-2.63054371316684E-05,-1.03469410532853E-05,3.69140625,0,0
-2.56645034824032E-05,-1.08492658910109E-05,3.69140625,0,0
-2.4260514692287E-05,1.67261339356628E-06,3.69140625,0,0
-2.34430463024182E-05,2.76249807029672E-06,3.69140625,0,0
-2.48914129770128E-05,2.63379092757532E-06,3.69140625,0,0
-2.45436312980019E-05,1.42924145620782E-05,3.69140625,0,0
-2.69766551355133E-05,1.89786769624334E-05,3.69140625,0,0
-2.70288437604904E-05,1.16025184979662E-05,3.69140625,0,0
-2.82204473478487E-05,8.60000000102445E-06,3.69140625,0,0
-2.58769923675573E-05,1.35221416712739E-05,3.69140625,0,0
-2.49458789767232E-05,1.92676307051443E-05,3.69140625,0,0
-2.35137285926612E-05,2.01724487851607E-05,3.69140625,0,0
-2.53088383033173E-05,1.79852340806974E-05,3.69140625,0,0
-2.64140217041131E-05,1.64581106218975E-05,3.69140625,0,0
-2.8206362912897E-05,1.74702836375218E-05,3.69140625,0,0
-2.83297304122243E-05,1.84660693776095E-05,3.69140625,0,0
-2.88572882709559E-05,2.09535282920115E-05,3.69140625,0,0
-2.746793688857E-05,2.3307184164878E-05,3.69140625,0,0
-2.42518362938426E-05,2.52870740951039E-05,3.69140625,0,0
-1.86649285751628E-05,1.88656540558441E-05,3.69140625,0,0
-2.8209351512487E-05,2.68289550149348E-05,3.69140625,0,0
-2.26979136641603E-05,1.32869090521126E-05,3.69140625,0,0
-2.56312796409475E-05,1.74880515260156E-05,3.69140625,0,0
-2.04696480068378E-05,1.96362252609106E-05,3.69140625,0,0
-2.27917262236588E-05,5.72551425648271E-06,3.69140625,0,0
-2.22324306378141E-05,-5.1013767006225E-06,3.69140625,0,0
-2.46855579462135E-05,6.54453606330208E-06,3.69140625,0,0
-2.41543602896854E-05,-1.49524498738174E-06,3.69140625,0,0
-2.34487324632937E-05,-7.30385136193945E-06,3.69140625,0,0
-2.35484058066504E-05,-2.08382584787614E-06,3.69140625,0,0
-2.43133490585024E-05,-9.73806800175225E-06,3.69140625,0,0
-2.65061244135723E-05,-1.68260739883408E-05,3.69140625,0,0
-2.54567839874653E-05,-1.16239261842566E-05,3.69140625,0,0
-2.5186989660142E-05,-7.12049359208322E-06,3.69140625,0,0
-2.30313089559786E-05,-1.17893732749508E-05,3.69140625,0,0
-2.42322275880724E-05,-1.14942167783738E-05,3.69140625,0,0
-2.49996937782271E-05,-7.83718223829055E-06,3.69140625,0,0
-2.71782337222248E-05,1.22790254408756E-06,3.69140625,0,0
-2.63995243585669E-05,1.02966077974997E-05,3.69140625,0,0
-2.52996887866175E-05,1.81921568582766E-05,3.69140625,0,0
-2.28967783186818E-05,2.07836146728368E-05,3.69140625,0,0
-2.34364033531165E-05,2.43741287704324E-05,3.69140625,0,0
-2.43655413214583E-05,2.93114899250213E-05,3.69140625,0,0
-2.50136326940265E-05,3.48410176229663E-05,3.69140625,0,0
-2.4421085981885E-05,3.72365975636058E-05,3.69140625,0,0
-2.42322275880724E-05,3.44340332958382E-05,3.69140625,0,0
-2.0562278223224E-05,2.51953551924089E-05,3.69140625,0,0
-2.97422666335478E-05,4.18432027800009E-05,3.69140625,0,0
-2.3418844648404E-05,3.68290639016777E-05,3.69140625,0,0
-2.96098987746518E-05,5.04875279148109E-05,3.69140625,0,0
-2.50636931014014E-05,5.50412587472238E-05,3.69140625,0,0
-2.56152361544082E-05,3.76004209101666E-05,3.69140625,0,0
-2.21367936319439E-05,1.76971152541228E-05,3.69140625,0,0
-2.33082882914459E-05,2.15354157262482E-05,3.69140625,0,0
-2.30489458772354E-05,6.89333955961047E-06,3.69140625,0,0
-2.23517963604536E-05,-7.85346583143109E-06,3.69140625,0,0
-2.08880283025792E-05,-7.00121518093511E-06,3.69140625,0,0
-1.93520245375112E-05,-1.06453862827038E-05,3.69140625,0,0
-1.96446726477006E-05,-9.59793123911368E-06,3.69140625,0,0
-1.76169432961615E-05,1.37090501084458E-06,3.69140625,0,0
-1.8080250811181E-05,6.28038333161385E-06,3.69140625,0,0
-1.71231404237915E-05,-5.22917662237887E-06,3.69140625,0,0
-1.83821375685511E-05,-1.26318354887189E-05,3.69140625,0,0
-1.76552712218836E-05,-1.41220443765633E-05,3.69140625,0,0
-1.99131955014309E-05,-1.15307157102507E-05,3.69140625,0,0
-2.19859266508138E-05,-1.3260735613585E-05,3.69140625,0,0
-2.54488277278142E-05,-1.39957110150135E-05,3.69140625,0,0
-2.56445346167311E-05,-1.33805160658085E-05,3.69140625,0,0
-2.5858911612886E-05,-7.81715880293632E-06,3.69140625,0,0
-2.5780742362258E-05,-3.0273845368356E-06,3.69140625,0,0
-2.62583689618623E-05,-4.49233226618162E-07,3.69140625,0,0
-2.53711696132086E-05,-1.91405376881448E-07,3.69140625,0,0
-2.49788481596624E-05,-4.07317664041784E-08,3.69140625,0,0
-1.93419109564275E-05,1.56149269514572E-06,3.69140625,0,0
-2.48398046096554E-05,1.19325322884833E-05,3.69140625,0,0
-1.49841625898262E-05,1.86479683179641E-05,3.69140625,0,0
-1.985702328966E-05,2.56738003372448E-05,3.69140625,0,0
-1.57337508426281E-05,3.60394515155349E-05,3.69140625,0,0
-1.87559980986407E-05,2.0124720322201E-05,3.69140625,0,0
-1.84900909516728E-05,1.35531181513215E-05,3.69140625,0,0
-2.15053842111956E-05,2.62219145952258E-05,3.69140625,0,0
-2.12510258279508E-05,2.20581114263041E-05,3.69140625,0,0
-1.97441804630216E-05,1.32091763589415E-05,3.69140625,0,0
-1.87439400178846E-05,1.47399596244213E-05,3.69140625,0,0
-2.00471913558431E-05,1.28822512124316E-05,3.69140625,0,0
-2.51351921178866E-05,1.20032736958819E-05,3.69140625,0,0
-2.64812515524682E-05,2.04693697014591E-05,3.69140625,0,0
-2.67968043772271E-05,2.11181341001065E-05,3.69140625,0,0
-2.43790509557584E-05,1.0332218153053E-05,3.69140625,0,0
-2.50683715421474E-05,4.86019359868806E-07,3.69140625,0,0
-2.28700300795026E-05,-1.95393067770056E-06,3.69140625,0,0
-2.07371776923537E-05,-3.28344162880967E-06,3.69140625,0,0
-1.75374661921524E-05,-5.54254347662209E-06,3.69140625,0,0
-1.85488952411106E-05,-7.24657820683206E-06,3.69140625,0,0
-1.96183827938512E-05,-6.85623308527283E-06,3.69140625,0,0
-2.16781481867656E-05,-8.88896829565056E-06,3.69140625,0,0
-2.21091668208828E-05,-1.14114072857774E-05,3.69140625,0,0
-2.1911837393418E-05,-9.09469326870749E-06,3.69140625,0,0
-2.25746443902608E-05,-6.91992181600654E-06,3.69140625,0,0
-2.50666780630127E-05,-7.43737291486468E-06,3.69140625,0,0
-2.02884966711281E-05,-6.39357222098624E-06,3.69140625,0,0
-2.67275991063798E-05,-4.626196641766E-06,3.69140625,0,0
-1.76582379936008E-05,-1.32921729800728E-06,3.69140625,0,0
-2.35553616221296E-05,3.04550189866859E-06,3.69140625,0,0
-2.07501143449917E-05,1.81567393156001E-05,3.69140625,0,0
-2.53829966823105E-05,7.43042710382724E-06,3.69140625,0,0
-2.29756988119334E-05,2.93240395876637E-06,3.69140625,0,0
-2.30624918913236E-05,1.69725499290507E-05,3.69140625,0,0
-2.20996516873129E-05,1.88400517799892E-05,3.69140625,0,0
-2.30482874030713E-05,1.99486512428848E-05,3.69140625,0,0
-2.5215824280167E-05,3.05473586195149E-05,3.69140625,0,0
-2.477303314663E-05,2.89354666165309E-05,3.69140625,0,0
-2.50150151259732E-05,2.35012594202999E-05,3.69140625,0,0
-2.47842763201334E-05,3.29819595208392E-05,3.69140625,0,0
-2.78851894108811E-05,3.67358734365553E-05,3.69140625,0,0
-2.77854469459271E-05,2.85149289993569E-05,3.69140625,0,0
-2.87545899482211E-05,1.90060436580097E-05,3.69140625,0,0
-2.74246776825748E-05,1.60495637828717E-05,3.69140625,0,0
-2.89623476419365E-05,1.52446909851278E-05,3.69140625,0,0
-2.92424774670508E-05,1.63475597219076E-05,3.69140625,0,0
-2.95611534966156E-05,1.68262376973871E-05,3.69140625,0,0
-2.7604632123257E-05,1.65313576871995E-05,3.69140625,0,0
-2.71635235549184E-05,1.48391782204271E-05,3.69140625,0,0
-2.59746921074111E-05,1.28431420307606E-05,3.69140625,0,0
-2.65784947259817E-05,9.3297539933701E-06,3.69140625,0,0
-2.87158254650421E-05,4.74699118058197E-06,3.69140625,0,0
-2.95465852104826E-05,1.70362091012066E-06,3.69140625,0,0
-2.13813582377043E-05,1.19427011213702E-06,3.69140625,0,0
-2.89314939436736E-05,5.71837335883174E-06,3.69140625,0,0
-2.06782951863715E-05,2.4662235773576E-06,3.69140625,0,0
-2.66089191427454E-05,3.64022821486287E-06,3.69140625,0,0
-2.32198945013806E-05,1.12638554128353E-05,3.69140625,0,0
-2.75637594313594E-05,-7.4525678428472E-06,3.69140625,0,0
-2.42361620621523E-05,-1.69971863215324E-05,3.69140625,0,0
-2.39203636738239E-05,-1.4234784657674E-06,3.69140625,0,0
-2.18131244764663E-05,-1.35144910018425E-06,3.69140625,0,0
-2.23207498493139E-05,-2.75721004072693E-06,3.69140625,0,0
-2.39143901126226E-05,7.40100176699343E-06,3.69140625,0,0
-2.39041128224926E-05,9.45602005231194E-06,3.69140625,0,0
-2.49657987296814E-05,1.16568753583124E-05,3.69140625,0,0
-2.3527583834948E-05,2.39670098380884E-05,3.69140625,0,0
-2.45988267124631E-05,2.4241457140306E-05,3.69140625,0,0
-2.36508985835826E-05,1.01440828075283E-05,3.69140625,0,0
-2.48318719968665E-05,1.92366155715717E-06,3.69140625,0,0
-2.31945559789892E-05,6.46635680823238E-06,3.69140625,0,0
-2.44831335294293E-05,1.40607726279995E-05,3.69140625,0,0
-2.38824432017282E-05,1.70357234310359E-05,3.69140625,0,0
-2.44248640228761E-05,1.50488713188679E-05,3.69140625,0,0
-2.44103284785524E-05,1.33778912640992E-05,3.69140625,0,0
-2.65296257566661E-05,1.44862206070684E-05,3.69140625,0,0
-2.63289111899212E-05,1.48178496601759E-05,3.69140625,0,0
-2.46715717366897E-05,1.35275840875693E-05,3.69140625,0,0
-2.12262511922745E-05,1.37999804792344E-05,3.69140625,0,0
-1.95407537830761E-05,1.22695673780981E-05,3.69140625,0,0
-1.66373556567123E-05,2.55402710536146E-06,3.69140625,0,0
-2.42386995523702E-05,5.57847442905768E-07,3.69140625,0,0
-1.84691070899135E-05,-7.51326797399088E-06,3.69140625,0,0
-2.29729193961248E-05,-3.32859872287372E-06,3.69140625,0,0
-2.26325119001558E-05,4.64865206595277E-06,3.69140625,0,0
-2.81107040791539E-05,-8.85612735146424E-06,3.69140625,0,0
-2.75303736998467E-05,-1.92499210243113E-05,3.69140625,0,0
-2.74699323199457E-05,-9.71594727161573E-06,3.69140625,0,0
-2.63670244748937E-05,-1.27309804156539E-05,3.69140625,0,0
-2.60115066339495E-05,-1.39062403832213E-05,3.69140625,0,0
-2.56017810897902E-05,-6.96110055287136E-06,3.69140625,0,0
-2.47832904278766E-05,-1.19116366477101E-05,3.69140625,0,0
-2.62357898463961E-05,-1.3210397810326E-05,3.69140625,0,0
-2.69121446763165E-05,2.16564944821585E-06,3.69140625,0,0
-2.84143716271501E-05,9.5439763754257E-06,3.69140625,0,0
-2.6443387469044E-05,1.19199285109062E-06,3.69140625,0,0
-2.52087302214932E-05,-4.50424931841553E-06,3.69140625,0,0
-2.3205111574498E-05,-6.0389623968149E-08,3.69140625,0,0
-2.45615119638387E-05,1.09185793917277E-05,3.69140625,0,0
-2.57849533227272E-05,2.00482318177819E-05,3.69140625,0,0
-2.76909886451904E-05,2.49662443820853E-05,3.69140625,0,0
-2.78463030554121E-05,2.52116260526236E-05,3.69140625,0,0
-2.91813921649009E-05,2.63749097939581E-05,3.69140625,0,0
-2.94702858809615E-05,3.2768879464129E-05,3.69140625,0,0
-2.867164221243E-05,3.71972928405739E-05,3.69140625,0,0
-2.76791597570991E-05,3.12724514515139E-05,3.69140625,0,0
-2.76715181826148E-05,2.38652228290448E-05,3.69140625,0,0
-2.24581526708789E-05,2.20293804886751E-05,3.69140625,0,0
-3.15413453790825E-05,4.17631563323084E-05,3.69140625,0,0
-2.3251466700458E-05,3.9961018046597E-05,3.69140625,0,0
-2.95782156172208E-05,4.91803293698467E-05,3.69140625,0,0
-2.63965466729132E-05,5.62071254535113E-05,3.69140625,0,0
-2.97062488243682E-05,4.4248256017454E-05,3.69140625,0,0
-2.52075387834338E-05,2.88694536720868E-05,3.69140625,0,0
-2.42436726693995E-05,3.49978035956156E-05,3.69140625,0,0
-2.25828680413542E-05,2.72710840363288E-05,3.69140625,0,0
-2.25056337512797E-05,2.03069848794257E-05,3.69140625,0,0
-2.30092318815878E-05,2.2954858650337E-05,3.69140625,0,0
-2.28396947932197E-05,1.37584011099534E-05,3.69140625,0,0
-2.37089989241213E-05,5.14810699314694E-06,3.69140625,0,0
-2.18928380490979E-05,9.83775134955067E-06,3.69140625,0,0
-2.25448147830321E-05,1.25804326671641E-05,3.69140625,0,0
-2.17464094021125E-05,3.3821174838522E-06,3.69140625,0,0
-2.42095975409029E-05,-2.24502559831308E-06,3.69140625,0,0
-2.33168648264837E-05,-6.59058150631608E-06,3.69140625,0,0
-2.31154881475959E-05,-1.00129054771969E-05,3.69140625,0,0
-2.14556366699981E-05,-1.10503369796788E-05,3.69140625,0,0
-2.28738263103878E-05,-5.32078365722555E-06,3.69140625,0,0
-2.20350939343916E-05,-1.12356906356581E-06,3.69140625,0,0
-2.18975419556955E-05,1.65493088388757E-06,3.69140625,0,0
-2.09031622944167E-05,4.68809366793721E-06,3.69140625,0,0
-2.0734853023896E-05,1.24384814625955E-05,3.69140625,0,0
-2.10470316233113E-05,1.90797254617792E-05,3.69140625,0,0
-2.07400025828974E-05,2.34753042605007E-05,3.69140625,0,0
-1.62259784701746E-05,2.16338503378211E-05,3.69140625,0,0
-2.19508619920816E-05,3.2096380891744E-05,3.69140625,0,0
-1.59234386956086E-05,2.05394808290293E-05,3.69140625,0,0
-2.05552478291793E-05,3.08202834276017E-05,3.69140625,0,0
-1.7883019609144E-05,4.020367123303E-05,3.69140625,0,0
-2.18714267248288E-05,3.03947090287693E-05,3.69140625,0,0
-2.06184431590373E-05,1.48101162267267E-05,3.69140625,0,0
-2.18489658436738E-05,2.06811564567033E-05,3.69140625,0,0
-2.21794034587219E-05,1.59568025992485E-05,3.69140625,0,0
-2.25628082262119E-05,1.59817700478015E-05,3.69140625,0,0
-2.26575320994016E-05,2.49964086833643E-05,3.69140625,0,0
-2.17733340832638E-05,1.60837807925418E-05,3.69140625,0,0
-2.32185338973068E-05,4.9545624278835E-06,3.69140625,0,0
-2.29329561989289E-05,9.78129810391692E-06,3.69140625,0,0
-2.39089858951047E-05,1.47816253956989E-05,3.69140625,0,0
-2.30510504479753E-05,4.55811641586479E-06,3.69140625,0,0
-2.35859806707595E-05,-3.33133971253119E-06,3.69140625,0,0
-2.07739576580934E-05,-5.87089380132966E-06,3.69140625,0,0
-1.95857628568774E-05,-6.03880835114978E-06,3.69140625,0,0
-1.85581575351534E-05,-1.43838160511223E-05,3.69140625,0,0
-1.95138745766599E-05,-2.40406898228684E-05,3.69140625,0,0
-1.9856910512317E-05,-2.93776574835647E-05,3.69140625,0,0
-2.17147298826603E-05,-2.77055696642492E-05,3.69140625,0,0
-2.28296757995849E-05,-2.61745080933906E-05,3.69140625,0,0
-2.30092609854182E-05,-2.38586308114463E-05,3.69140625,0,0
-2.20676720346091E-05,-2.10874295589747E-05,3.69140625,0,0
-2.15879863390001E-05,-1.58694692800054E-05,3.69140625,0,0
-1.81154246092774E-05,-4.8154620344576E-06,3.69140625,0,0
-2.63872934738174E-05,2.41426891989249E-06,3.69140625,0,0
-1.98185789486161E-05,1.04177743196487E-05,3.69140625,0,0
-2.24476643779781E-05,1.51840085891308E-05,3.69140625,0,0
-1.81093491846696E-05,2.54003571171779E-05,3.69140625,0,0
-2.13282710319618E-05,7.65742061048513E-06,3.69140625,0,0
-1.99093992705457E-05,4.20470132667106E-06,3.69140625,0,0
-2.12302620639093E-05,1.94172898773104E-05,3.69140625,0,0
-2.06781041924842E-05,1.87389941856964E-05,3.69140625,0,0
-2.04537645913661E-05,1.31706356114591E-05,3.69140625,0,0
-2.16641383303795E-05,1.78353948285803E-05,3.69140625,0,0
-2.29934066737769E-05,1.96973469428485E-05,3.69140625,0,0
-2.4219600163633E-05,2.616331767058E-05,3.69140625,0,0
-2.19249322981341E-05,4.46637241111603E-05,3.69140625,0,0
-2.20805122808088E-05,4.96736829518341E-05,3.69140625,0,0
-2.23256083700107E-05,3.8869595300639E-05,3.69140625,0,0
-2.5074252334889E-05,3.04192890325794E-05,3.69140625,0,0
-2.45100945903687E-05,3.4306420275243E-05,3.69140625,0,0
-2.37905987887643E-05,3.88412845495623E-05,3.69140625,0,0
-2.13054336200003E-05,3.82093348889612E-05,3.69140625,0,0
-2.21802074520383E-05,3.1058876629686E-05,3.69140625,0,0
-2.32376478379592E-05,2.52972331509227E-05,3.69140625,0,0
-2.46374765993096E-05,2.04829175345367E-05,3.69140625,0,0
-2.45465907937614E-05,1.6541154764127E-05,3.69140625,0,0
-2.4594490241725E-05,1.2264538781892E-05,3.69140625,0,0
-2.59308999375207E-05,5.37134928890737E-06,3.69140625,0,0
-2.72445358859841E-05,-2.8480741320891E-07,3.69140625,0,0
-2.15124273381662E-05,9.30272562982282E-07,3.69140625,0,0
-2.99166222248459E-05,4.26886344939703E-06,3.69140625,0,0
-2.31095673370874E-05,-2.63384731624683E-06,3.69140625,0,0
-3.02375265164301E-05,-6.60816658637486E-06,3.69140625,0,0
-2.49277636612533E-05,-5.63238870654459E-07,3.69140625,0,0
-2.59781936620129E-05,-1.66187001013896E-05,3.69140625,0,0
-2.24092837015633E-05,-2.50494122155942E-05,3.69140625,0,0
-2.36738596868236E-05,-1.10241335278261E-05,3.69140625,0,0
-2.38625852944097E-05,-9.93367484625196E-06,3.69140625,0,0
-2.5189969164785E-05,-5.29665521753486E-06,3.69140625,0,0
-2.64036261796718E-05,1.14076001409558E-05,3.69140625,0,0
-2.57684641837841E-05,1.45204739965266E-05,3.69140625,0,0
-2.61521199718118E-05,1.54463959916029E-05,3.69140625,0,0
-2.4318278519786E-05,2.81789943983313E-05,3.69140625,0,0
-2.50509656325448E-05,3.33017778757494E-05,3.69140625,0,0
-2.30034365813481E-05,2.56673083640635E-05,3.69140625,0,0
-2.25373041757848E-05,1.92292955034645E-05,3.69140625,0,0
-2.06939548661467E-05,2.0269253582228E-05,3.69140625,0,0
-2.27580621867673E-05,2.44388174905907E-05,3.69140625,0,0
-2.31847752729664E-05,2.87279599433532E-05,3.69140625,0,0
-2.43290578509914E-05,3.02149474009639E-05,3.69140625,0,0
-2.4008431864786E-05,2.87370894511696E-05,3.69140625,0,0
-2.56781750067603E-05,2.5994326279033E-05,3.69140625,0,0
-2.6175604944001E-05,2.58964610111434E-05,3.69140625,0,0
-2.56659532169579E-05,2.67770064965589E-05,3.69140625,0,0
-2.27004511543782E-05,2.22581547859591E-05,3.69140625,0,0
-2.09309127967572E-05,1.50726700667292E-05,3.69140625,0,0
-1.67688904184615E-05,1.16881219582865E-05,3.69140625,0,0
-2.35171592066763E-05,2.17910492210649E-05,3.69140625,0,0
-1.94257590919733E-05,1.66917234309949E-05,3.69140625,0,0
-2.67781106231269E-05,1.91087037819671E-05,3.69140625,0,0
-2.40003955696011E-05,1.92609149962664E-05,3.69140625,0,0
-2.51697183557553E-05,-1.26081431517377E-07,3.69140625,0,0
-2.34569743042812E-05,-1.20701915875543E-05,3.69140625,0,0
-2.69168449449353E-05,-4.99341194881708E-06,3.69140625,0,0
-2.87351522274548E-05,-1.51600597746437E-05,3.69140625,0,0
-2.92051663564052E-05,-2.31456051551504E-05,3.69140625,0,0
-2.90622374450322E-05,-1.6604999473202E-05,3.69140625,0,0
-2.81378052022774E-05,-1.71983574546175E-05,3.69140625,0,0
-2.74538688245229E-05,-1.69913637364516E-05,3.69140625,0,0
-2.41028028540313E-05,-5.75592366658384E-06,3.69140625,0,0
-2.34936142078368E-05,2.6231586502945E-07,3.69140625,0,0
-2.27433793043019E-05,-3.79558332497254E-06,3.69140625,0,0
-2.46174186031567E-05,-4.03050444219843E-06,3.69140625,0,0
-2.53910729952622E-05,6.9500401878031E-07,3.69140625,0,0
-2.83243098238017E-05,9.19289868761553E-06,3.69140625,0,0
-2.88108185486635E-05,1.76359353645239E-05,3.69140625,0,0
-2.88839437416755E-05,2.3271371901501E-05,3.69140625,0,0
-2.74774556601187E-05,2.64505870291032E-05,3.69140625,0,0
-2.77058406936703E-05,3.1605002732249E-05,3.69140625,0,0
-2.66834886133438E-05,3.47461791534442E-05,3.69140625,0,0
-2.65621183643816E-05,3.62690770998597E-05,3.69140625,0,0
-2.7170422981726E-05,3.69659355783369E-05,3.69140625,0,0
-2.76188366115093E-05,3.62959726771805E-05,3.69140625,0,0
-2.3005644834484E-05,2.74485373665811E-05,3.69140625,0,0
-3.27064990415238E-05,3.91435969504528E-05,3.69140625,0,0
-2.45443661697209E-05,2.27800919674337E-05,3.69140625,0,0
-2.98531849693973E-05,2.91914220724721E-05,3.69140625,0,0
-2.42965488723712E-05,2.96662055916386E-05,3.69140625,0,0
-2.74701742455363E-05,1.8081665984937E-05,3.69140625,0,0
-2.45858009293443E-05,5.01711201650323E-06,3.69140625,0,0
-2.51851979555795E-05,1.00554671007558E-05,3.69140625,0,0
-2.47641146415845E-05,-4.34798221249366E-06,3.69140625,0,0
-2.47067000600509E-05,-1.30753624034696E-05,3.69140625,0,0
-2.42806108872173E-05,-7.46698651710176E-06,3.69140625,0,0
-2.17290162254358E-05,-1.30085081764264E-05,3.69140625,0,0
-2.06719614652684E-05,-1.88709946087329E-05,3.69140625,0,0
-1.85494427569211E-05,-1.32736486193608E-05,3.69140625,0,0
-2.03364688786678E-05,-8.95787343324628E-06,3.69140625,0,0
-2.00616996153258E-05,-1.95306001842255E-05,3.69140625,0,0
-2.14220144698629E-05,-2.51384790317388E-05,3.69140625,0,0
-2.05026135517983E-05,-2.31264821195509E-05,3.69140625,0,0
-2.19703579205088E-05,-1.44868236020557E-05,3.69140625,0,0
-2.02212813746883E-05,-1.2456793228921E-05,3.69140625,0,0
-1.9131146473228E-05,-1.0697611287469E-05,3.69140625,0,0
-1.80577408173122E-05,-7.71806753618876E-06,3.69140625,0,0
-2.04981442948338E-05,3.8991905171315E-07,3.69140625,0,0
-2.14442570722895E-05,7.22585946277832E-06,3.69140625,0,0
-2.10648595384555E-05,1.32650138766621E-05,3.69140625,0,0
-2.01395105250413E-05,1.60384388436796E-05,3.69140625,0,0
-1.94999938685214E-05,1.56868700287305E-05,3.69140625,0,0
-1.50012683661771E-05,1.40781048685312E-05,3.69140625,0,0
-1.96835007955087E-05,2.75046004389878E-05,3.69140625,0,0
-1.40845913847443E-05,2.53023754339665E-05,3.69140625,0,0
-1.95330430869944E-05,3.23567473969888E-05,3.69140625,0,0
-1.75914701685542E-05,4.0729242755333E-05,3.69140625,0,0
-2.12367795029422E-05,2.72809793386841E-05,3.69140625,0,0
-2.02885148610221E-05,1.50634559759055E-05,3.69140625,0,0
-2.15073632716667E-05,2.55944833043031E-05,3.69140625,0,0
-2.22009039134718E-05,2.45958544837777E-05,3.69140625,0,0
-2.31644298764877E-05,2.07203829631908E-05,3.69140625,0,0
-2.33373029914219E-05,2.19370285776677E-05,3.69140625,0,0
-2.31839458137983E-05,1.23239569802536E-05,3.69140625,0,0
-2.46906292886706E-05,6.69872224534629E-06,3.69140625,0,0
-2.36804007727187E-05,1.48942071973579E-05,3.69140625,0,0
-2.33988466789015E-05,1.61085354193347E-05,3.69140625,0,0
-2.18883560592076E-05,2.07171342481161E-06,3.69140625,0,0
-2.28007265832275E-05,-1.05211811387562E-05,3.69140625,0,0
-2.23936094698729E-05,-1.58250604727073E-05,3.69140625,0,0
-2.43005961237941E-05,-1.29065274450113E-05,3.69140625,0,0
-2.49415188591229E-05,-7.88335819379427E-06,3.69140625,0,0
-2.55414797720732E-05,-5.04410081703099E-06,3.69140625,0,0
-2.44684579229215E-05,-7.14396855983068E-06,3.69140625,0,0
-2.50047505687689E-05,-1.15675056804321E-05,3.69140625,0,0
-2.5619936423027E-05,-1.45669655466918E-05,3.69140625,0,0
-2.60755750787212E-05,-9.34469971980434E-06,3.69140625,0,0
-2.50229131779633E-05,-2.45797224351918E-07,3.69140625,0,0
-2.42141250055283E-05,5.55767473997548E-06,3.69140625,0,0
-1.87912100955145E-05,9.96105518424883E-06,3.69140625,0,0
-2.59137232205831E-05,2.33087903325213E-05,3.69140625,0,0
-1.89570382644888E-05,2.47832176683005E-05,3.69140625,0,0
-2.40569424931891E-05,3.27060770359822E-05,3.69140625,0,0
-2.07339089683956E-05,4.37603630416561E-05,3.69140625,0,0
-2.49280528805684E-05,3.23181448038667E-05,3.69140625,0,0
-2.52702775469515E-05,2.41954330704175E-05,3.69140625,0,0
-2.90327443508431E-05,3.36363118549343E-05,3.69140625,0,0
-2.80876356555382E-05,2.75940910796635E-05,3.69140625,0,0
-2.53506877925247E-05,2.53453763434663E-05,3.69140625,0,0
-2.43812573899049E-05,3.59441037289798E-05,3.69140625,0,0
-2.49769254878629E-05,3.62714199582115E-05,3.69140625,0,0
-2.68066396529321E-05,3.82891339540947E-05,3.69140625,0,0
-2.57033188972855E-05,4.98684494232293E-05,3.69140625,0,0
-2.72763063549064E-05,4.78402653243393E-05,3.69140625,0,0
-2.81921893474646E-05,2.64812242676271E-05,3.69140625,0,0
-3.13996533805039E-05,9.29951966099907E-06,3.69140625,0,0
-3.15387624141295E-05,6.30169552096049E-06,3.69140625,0,0
-3.23449676216114E-05,1.02422645795741E-05,3.69140625,0,0
-3.10297546093352E-05,1.23443887787289E-05,3.69140625,0,0
-3.14072458422743E-05,9.51900074142031E-06,3.69140625,0,0
-2.95386234938633E-05,6.87864996962162E-07,3.69140625,0,0
-2.83112149190856E-05,-7.6031014941691E-06,3.69140625,0,0
-2.83997978840489E-05,-1.02249287010636E-05,3.69140625,0,0
-2.90552488877438E-05,-1.10871151264291E-05,3.69140625,0,0
-2.71218559646513E-05,-1.71605151990661E-05,3.69140625,0,0
-2.57071114901919E-05,-2.3220622097142E-05,3.69140625,0,0
-2.08406199817546E-05,-1.70993189385626E-05,3.69140625,0,0
-2.81496668321779E-05,-1.93093492271146E-05,3.69140625,0,0
-1.93400901480345E-05,-1.38702671392821E-05,3.69140625,0,0
-2.40004610532196E-05,-8.73238150234101E-06,3.69140625,0,0
-1.84859381988645E-05,1.94204694707878E-05,3.69140625,0,0
-2.207907527918E-05,1.2943731235282E-05,3.69140625,0,0
-2.13992661883822E-05,1.2313251318119E-05,3.69140625,0,0
-2.26018237299286E-05,2.35542629525298E-05,3.69140625,0,0
-2.13535677175969E-05,1.87120058399159E-05,3.69140625,0,0
-2.09322715818416E-05,1.24820635392098E-05,3.69140625,0,0
-2.16179378185188E-05,1.99734004127095E-05,3.69140625,0,0
-2.02768678718712E-05,2.16484659176786E-05,3.69140625,0,0
-1.9349350623088E-05,2.25470557779772E-05,3.69140625,0,0
-1.81351169885602E-05,3.69936678907834E-05,3.69140625,0,0
-2.11665883398382E-05,3.95801434933674E-05,3.69140625,0,0
-2.17908909689868E-05,2.94455094262958E-05,3.69140625,0,0
-2.34402941714507E-05,2.00475642486708E-05,3.69140625,0,0
-2.27714790526079E-05,2.24127834371757E-05,3.69140625,0,0
-2.43702488660347E-05,2.5419969460927E-05,3.69140625,0,0
-2.3280084860744E-05,2.92408731183968E-05,3.69140625,0,0
-2.31898466154234E-05,2.81372122117318E-05,3.69140625,0,0
-2.18476907321019E-05,2.68710409727646E-05,3.69140625,0,0
-2.23519855353516E-05,2.38268385146512E-05,3.69140625,0,0
-2.47189000219805E-05,2.0857480194536E-05,3.69140625,0,0
-2.82333166978788E-05,1.90718801604817E-05,3.69140625,0,0
-2.7746222258429E-05,1.93169635167578E-05,3.69140625,0,0
-2.53719244938111E-05,1.96383225556929E-05,3.69140625,0,0
-2.05785581783857E-05,1.39109124575043E-05,3.69140625,0,0
-3.02517346426612E-05,2.0047145881108E-05,3.69140625,0,0
-2.30597725021653E-05,5.4587808335782E-06,3.69140625,0,0
-2.75241072813515E-05,3.35194818035234E-06,3.69140625,0,0
-2.30635523621459E-05,5.29932867721072E-06,3.69140625,0,0
-2.49070963036502E-05,-8.20851710159332E-06,3.69140625,0,0
-2.39235978369834E-05,-2.29855995712569E-05,3.69140625,0,0
-2.66801398538519E-05,-1.79938924702583E-05,3.69140625,0,0
-2.68524454440922E-05,-2.35315146710491E-05,3.69140625,0,0
-2.56509192695376E-05,-1.98341367649846E-05,3.69140625,0,0
-2.40687113546301E-05,-5.82708344154526E-06,3.69140625,0,0
-2.28993339987937E-05,-5.83608925808221E-06,3.69140625,0,0
-2.4221231797128E-05,-7.09278401700431E-06,3.69140625,0,0
-2.37080548686208E-05,5.15855299454415E-06,3.69140625,0,0
-2.45218889176613E-05,1.45826161315199E-05,3.69140625,0,0
-2.32981328736059E-05,9.72525231190957E-06,3.69140625,0,0
-2.39671862800606E-05,8.10708388598869E-06,3.69140625,0,0
-2.27495929721044E-05,1.23197578432155E-05,3.69140625,0,0
-2.36332853091881E-05,1.68900496646529E-05,3.69140625,0,0
-2.36233918258222E-05,1.61130992637482E-05,3.69140625,0,0
-2.57889587373938E-05,1.57251288328553E-05,3.69140625,0,0
-2.61875829892233E-05,1.48743238241877E-05,3.69140625,0,0
-2.70675081992522E-05,1.75033837876981E-05,3.69140625,0,0
-2.59351436397992E-05,2.02208466362208E-05,3.69140625,0,0
-2.32665606745286E-05,2.09979061764898E-05,3.69140625,0,0
-2.11567421501968E-05,1.91619819815969E-05,3.69140625,0,0
-2.18431468965719E-05,1.74568012880627E-05,3.69140625,0,0
-1.77105612237938E-05,1.75776058313204E-05,3.69140625,0,0
-2.44884940912016E-05,3.08618582494091E-05,3.69140625,0,0
-1.84826803888427E-05,2.02981627808185E-05,3.69140625,0,0
-2.32412894547451E-05,1.88530102605E-05,3.69140625,0,0
-1.94425410882104E-05,1.9067347238888E-05,3.69140625,0,0
-2.36787418543827E-05,3.30059538100613E-06,3.69140625,0,0
-2.25514868361643E-05,-7.3536343734304E-06,3.69140625,0,0
-2.34757153521059E-05,3.23433778248727E-06,3.69140625,0,0
-2.36701307585463E-05,-1.83295981059928E-06,3.69140625,0,0
-2.437206239847E-05,-7.95893447502749E-06,3.69140625,0,0
-2.50081066042185E-05,-2.58810268860543E-06,3.69140625,0,0
-2.51339424721664E-05,-6.49292360321851E-06,3.69140625,0,0
-2.70131622528424E-05,-1.10980035969988E-05,3.69140625,0,0
-2.63924248429248E-05,-5.59080808670842E-06,3.69140625,0,0
-2.6342757337261E-05,-6.12174881098326E-06,3.69140625,0,0
-2.3630089344806E-05,-1.887722464744E-05,3.69140625,0,0
-2.41451889451128E-05,-2.35469815379474E-05,3.69140625,0,0
-2.36920805036789E-05,-1.73124499269761E-05,3.69140625,0,0
-2.41231518884888E-05,-7.77607510826783E-06,3.69140625,0,0
-2.34565322898561E-05,-2.46971944761754E-06,3.69140625,0,0
-2.63007405010285E-05,5.11624512000708E-06,3.69140625,0,0
-2.73445384664228E-05,1.39211269924999E-05,3.69140625,0,0
-2.69676474999869E-05,1.83366410055896E-05,3.69140625,0,0
-2.49391141551314E-05,1.74108390638139E-05,3.69140625,0,0
-2.380159094173E-05,1.74714787135599E-05,3.69140625,0,0
-2.27983346121619E-05,1.90829960047267E-05,3.69140625,0,0
-2.23620918404777E-05,2.43651447817683E-05,3.69140625,0,0
-1.83823322004173E-05,2.62555713561596E-05,3.69140625,0,0
-2.585920447018E-05,4.32849883509334E-05,3.69140625,0,0
-1.94049607671332E-05,3.31146147800609E-05,3.69140625,0,0
-2.39288965531159E-05,4.07152183470316E-05,3.69140625,0,0
-1.87221612577559E-05,4.55365734524094E-05,3.69140625,0,0
-1.90145747183124E-05,3.30995680997148E-05,3.69140625,0,0
-1.57283047883539E-05,1.90260689123534E-05,3.69140625,0,0
-1.67276102729375E-05,3.00167630484793E-05,3.69140625,0,0
-1.65904548339313E-05,2.55240356636932E-05,3.69140625,0,0
-1.70236489793751E-05,2.07526536541991E-05,3.69140625,0,0
-1.72181426023599E-05,2.42350415646797E-05,3.69140625,0,0
-1.68903625308303E-05,1.47840764839202E-05,3.69140625,0,0
-1.7243570255232E-05,6.72795613354538E-06,3.69140625,0,0
-1.58797192852944E-05,1.04034597825375E-05,3.69140625,0,0
-1.84641030500643E-05,1.07204323285259E-05,3.69140625,0,0
-2.03736854018644E-05,-4.30225418313057E-06,3.69140625,0,0
-2.22746057261247E-05,-1.58547063620063E-05,3.69140625,0,0
-1.99540863832226E-05,-1.99367241293658E-05,3.69140625,0,0
-1.95705433725379E-05,-1.44448031278444E-05,3.69140625,0,0
-1.94781659956789E-05,-1.2002489711449E-05,3.69140625,0,0
-2.26143911277177E-05,-1.44435316542513E-05,3.69140625,0,0
-2.38795346376719E-05,-2.19724242924713E-05,3.69140625,0,0
-2.46423296630383E-05,-2.27290347538656E-05,3.69140625,0,0
-2.35843781410949E-05,-1.69668946909951E-05,3.69140625,0,0
-2.27471828111447E-05,-1.10815954030841E-05,3.69140625,0,0
-2.26929842028767E-05,-1.14804633994936E-05,3.69140625,0,0
-2.37864260270726E-05,-1.36366188598913E-05,3.69140625,0,0
-2.04381431103684E-05,-4.94029154651798E-06,3.69140625,0,0
-2.99304974760162E-05,2.99655653179798E-06,3.69140625,0,0
-2.42367277678568E-05,9.53184553509345E-06,3.69140625,0,0
-2.92135555355344E-05,1.22046549222432E-05,3.69140625,0,0
-2.41715333686443E-05,2.74246085609775E-05,3.69140625,0,0
-2.68727435468463E-05,1.54696772369789E-05,3.69140625,0,0
-2.38481097767362E-05,1.43837241921574E-05,3.69140625,0,0
-2.36904343182687E-05,3.1865420169197E-05,3.69140625,0,0
-2.38555348914815E-05,3.50529626302887E-05,3.69140625,0,0
-2.53712005360285E-05,3.40935839631129E-05,3.69140625,0,0
-2.55947470577667E-05,3.81192912755068E-05,3.69140625,0,0
-2.34391645790311E-05,3.04530840367079E-05,3.69140625,0,0
-2.43111262534512E-05,2.31695048569236E-05,3.69140625,0,0
-2.565688919276E-05,2.92874337901594E-05,3.69140625,0,0
-2.88097744487459E-05,2.7419620892033E-05,3.69140625,0,0
-2.71341396000935E-05,1.69959712366108E-05,3.69140625,0,0
-2.58586533163907E-05,9.90472835837863E-06,3.69140625,0,0
-2.36257455981104E-05,9.42056885833154E-06,3.69140625,0,0
-2.50222346949158E-05,5.8084870033781E-06,3.69140625,0,0
-2.47079606197076E-05,8.94147888175212E-07,3.69140625,0,0
-2.51200690399855E-05,-2.06037270800152E-06,3.69140625,0,0
-2.53970520134317E-05,6.17510863776261E-07,3.69140625,0,0
-2.82177843473619E-05,1.40422798722284E-06,3.69140625,0,0
-2.86292652162956E-05,-2.04789876079303E-06,3.69140625,0,0
-2.67708601313643E-05,-7.695828571741E-06,3.69140625,0,0
-2.35204115597298E-05,-1.31395536300261E-05,3.69140625,0,0
-2.25334024435142E-05,-1.52783068188E-05,3.69140625,0,0
-1.83937299880199E-05,-1.11748613562668E-05,3.69140625,0,0
-2.61115874309326E-05,-1.01993246062193E-05,3.69140625,0,0
-2.0935311113135E-05,-2.13223393075168E-06,3.69140625,0,0
-2.61602071986999E-05,6.68255415803287E-06,3.69140625,0,0
-2.32763086387422E-05,2.75665461231256E-05,3.69140625,0,0
-2.89098006760469E-05,1.59954361151904E-05,3.69140625,0,0
-2.90293246507645E-05,1.03177599157789E-05,3.69140625,0,0
-3.05667708744295E-05,2.08347119041719E-05,3.69140625,0,0
-2.76291411864804E-05,1.78982918441761E-05,3.69140625,0,0
-2.50722478085663E-05,1.5075946066645E-05,3.69140625,0,0
-2.4767858121777E-05,2.04730076802662E-05,3.69140625,0,0
-2.51116398430895E-05,1.56147052621236E-05,3.69140625,0,0
-2.67552422883455E-05,1.28044412122108E-05,3.69140625,0,0
-2.51641577051487E-05,2.85727837763261E-05,3.69140625,0,0
-2.50397242780309E-05,3.48976718669292E-05,3.69140625,0,0
-2.26639149332186E-05,2.56150015047751E-05,3.69140625,0,0
-2.2982381779002E-05,1.73319840541808E-05,3.69140625,0,0
-2.26451375056058E-05,2.10041289392393E-05,3.69140625,0,0
-2.51540586759802E-05,2.43699396378361E-05,3.69140625,0,0
-2.54131864494411E-05,2.38755765167298E-05,3.69140625,0,0
-2.52401787292911E-05,1.96312212210614E-05,3.69140625,0,0
-2.22801008931128E-05,1.55638481373899E-05,3.69140625,0,0
-2.05979376914911E-05,1.1184677532583E-05,3.69140625,0,0
-1.99288606381742E-05,9.83915469987551E-06,3.69140625,0,0
-2.13118401006795E-05,9.9484677775763E-06,3.69140625,0,0
-2.18580062210094E-05,6.28569432592485E-06,3.69140625,0,0
-2.21924856305122E-05,-2.3014790713205E-06,3.69140625,0,0
-1.83923439180944E-05,-8.74861325428355E-06,3.69140625,0,0
-2.66389160969993E-05,-1.03727252280805E-05,3.69140625,0,0
-2.09382633329369E-05,-7.37835534891929E-06,3.69140625,0,0
-2.56290768447798E-05,-1.47757214108424E-06,3.69140625,0,0
-2.22760590986582E-05,1.3099801435601E-05,3.69140625,0,0
-2.53897142101778E-05,-1.18473781185457E-06,3.69140625,0,0
-2.37060412473511E-05,-8.59788269735873E-06,3.69140625,0,0
-2.56417552009225E-05,3.30590887642757E-06,3.69140625,0,0
-2.65550534095382E-05,4.63780997961294E-06,3.69140625,0,0
-2.71519547823118E-05,9.38731318456121E-06,3.69140625,0,0
-2.61737804976292E-05,2.24269642785657E-05,3.69140625,0,0
-2.52956015174277E-05,2.23579299927223E-05,3.69140625,0,0
-2.78711740975268E-05,1.87635341717396E-05,3.69140625,0,0
-2.78509123745607E-05,2.79390533250989E-05,3.69140625,0,0
-2.75339571089717E-05,2.92238601105055E-05,3.69140625,0,0
-2.46659728873055E-05,1.95077209355077E-05,3.69140625,0,0
-2.41799843934132E-05,1.30056341731688E-05,3.69140625,0,0
-2.19579214899568E-05,1.7049422240234E-05,3.69140625,0,0
-2.21239242819138E-05,2.28407661779784E-05,3.69140625,0,0
-2.15177715290338E-05,2.74069770966889E-05,3.69140625,0,0
-2.24846444325522E-05,2.9609895136673E-05,3.69140625,0,0
-2.20716337935301E-05,3.11614821839612E-05,3.69140625,0,0
-2.24647446884774E-05,3.38452009600587E-05,3.69140625,0,0
-2.18569002754521E-05,3.46509368682746E-05,3.69140625,0,0
-2.17113556573167E-05,2.57457177212927E-05,3.69140625,0,0
-2.14520696317777E-05,1.54576628119685E-05,3.69140625,0,0
-2.29554570978507E-05,1.38003633765038E-05,3.69140625,0,0
-2.01507700694492E-05,9.05261367734056E-06,3.69140625,0,0
-2.85075675492408E-05,1.17217441584216E-05,3.69140625,0,0
-2.21450663957512E-05,4.10530583394575E-06,3.69140625,0,0
-2.85022015305003E-05,1.09237016658881E-05,3.69140625,0,0
-2.45344144786941E-05,1.59349237947026E-05,3.69140625,0,0
-2.64781428995775E-05,5.95527410496288E-07,3.69140625,0,0
-2.28961635002634E-05,-8.72159216669388E-06,3.69140625,0,0
-2.43576814682456E-05,5.54584994461038E-06,3.69140625,0,0
-2.70777327386895E-05,1.83528754860163E-06,3.69140625,0,0
-2.90868374577258E-05,-3.64712536793377E-06,3.69140625,0,0
-2.73013538389932E-05,-7.93430103840365E-07,3.69140625,0,0
-2.39707060245564E-05,-9.32171769818524E-06,3.69140625,0,0
-2.34913986787433E-05,-1.70817984326277E-05,3.69140625,0,0
-2.22775179281598E-05,-9.19438480195822E-06,3.69140625,0,0
-2.3872187739471E-05,-7.24164067378297E-07,3.69140625,0,0
-2.39309374592267E-05,-5.76717593503417E-06,3.69140625,0,0
-2.63860438280972E-05,-1.22373903650441E-05,3.69140625,0,0
-2.50013381446479E-05,-1.37275019369554E-05,3.69140625,0,0
-2.30739533435553E-05,-7.43861983210081E-06,3.69140625,0,0
-1.90244682016782E-05,8.95054881766555E-07,3.69140625,0,0
-1.8934564650408E-05,7.89127989264671E-06,3.69140625,0,0
-2.04200259759091E-05,1.10804121504771E-05,3.69140625,0,0
-2.38843331317184E-05,1.51886169987847E-05,3.69140625,0,0
-2.46736362896627E-05,1.71994033735245E-05,3.69140625,0,0
-2.36602609220427E-05,1.75749682966853E-05,3.69140625,0,0
-2.20123456529109E-05,2.10966154554626E-05,3.69140625,0,0
-2.19219618884381E-05,2.81833326880587E-05,3.69140625,0,0
-1.9219394744141E-05,2.76045921054902E-05,3.69140625,0,0
-2.7787240469479E-05,4.29970859840978E-05,3.69140625,0,0
-2.25972435146105E-05,3.10794348479249E-05,3.69140625,0,0
-2.79674422927201E-05,4.02460318582598E-05,3.69140625,0,0
-2.22310518438462E-05,4.26504193455912E-05,3.69140625,0,0
-2.40084827964893E-05,2.8790667784051E-05,3.69140625,0,0
-2.37697640841361E-05,1.55807301780442E-05,3.69140625,0,0
-2.64530917775119E-05,2.47197367571061E-05,3.69140625,0,0
-2.68047624558676E-05,1.41271648317343E-05,3.69140625,0,0
-2.63898637058446E-05,5.24514052813174E-06,3.69140625,0,0
-2.56934526987607E-05,8.85737063072156E-06,3.69140625,0,0
-2.44325055973604E-05,6.70095573696017E-07,3.69140625,0,0
-2.452997432556E-05,-8.52044740895508E-06,3.69140625,0,0
-2.39224482356803E-05,-6.19751472186181E-06,3.69140625,0,0
-2.64586378762033E-05,-2.19332059714361E-06,3.69140625,0,0
-2.65827929979423E-05,-9.61689966061385E-06,3.69140625,0,0
-2.65548660536297E-05,-1.22293995445943E-05,3.69140625,0,0
-2.29474590014433E-05,-1.04170539998449E-05,3.69140625,0,0
-2.19861831283197E-05,-4.18411400460172E-06,3.69140625,0,0
-2.06541699299123E-05,-2.79529808722145E-06,3.69140625,0,0
-2.12179966183612E-05,-1.15616330731427E-06,3.69140625,0,0
-2.1655963792E-05,-1.21342247894063E-06,3.69140625,0,0
-2.38447410083609E-05,-1.35050271410364E-07,3.69140625,0,0
-2.33731007028837E-05,1.69418103723729E-06,3.69140625,0,0
-2.25324856728548E-05,5.54459211343783E-06,3.69140625,0,0
-2.31926715059672E-05,9.2038108050474E-06,3.69140625,0,0
-2.44440489041153E-05,1.47209320857655E-05,3.69140625,0,0
-1.83828342414927E-05,1.77461097337073E-05,3.69140625,0,0
-2.42818696278846E-05,3.2341580663342E-05,3.69140625,0,0
-1.72393665707204E-05,2.921295890701E-05,3.69140625,0,0
-2.31726244237507E-05,3.60429658030625E-05,3.69140625,0,0
-1.92783827515086E-05,4.10657485190313E-05,3.69140625,0,0
-2.21879654418444E-05,2.94526853394927E-05,3.69140625,0,0
-1.94487438420765E-05,2.01144011953147E-05,3.69140625,0,0
-1.99572150449967E-05,3.21826737490483E-05,3.69140625,0,0
-2.00329941435484E-05,2.97011611110065E-05,3.69140625,0,0
-2.04186180781107E-05,2.83098288491601E-05,3.69140625,0,0
-2.04336283786688E-05,3.78198856196832E-05,3.69140625,0,0
-2.0359746486065E-05,3.37399978889152E-05,3.69140625,0,0
-2.16977405216312E-05,2.62470730376663E-05,3.69140625,0,0
-1.97173721971922E-05,2.94285382551607E-05,3.69140625,0,0
-1.90026512427721E-05,2.86848189716693E-05,3.69140625,0,0
-1.84336240636185E-05,1.30286198327667E-05,3.69140625,0,0
-2.29146044148365E-05,1.79220091922616E-06,3.69140625,0,0
-2.46652689384064E-05,-7.79060655986541E-07,3.69140625,0,0
-2.59474672930082E-05,3.98214552888021E-07,3.69140625,0,0
-2.44236580329016E-05,2.50457503625512E-07,3.69140625,0,0
-2.43102222157177E-05,1.5490930991291E-06,3.69140625,0,0
-2.36363212025026E-05,-3.77544409957409E-07,3.69140625,0,0
-2.52708923653699E-05,-2.39795190282166E-06,3.69140625,0,0
-2.61202476394828E-05,-6.55657777315355E-06,3.69140625,0,0
-2.60507040366065E-05,-1.2639419765037E-05,3.69140625,0,0
-2.44580078287981E-05,-1.546018938825E-05,3.69140625,0,0
-2.19695721170865E-05,-1.33697121782461E-05,3.69140625,0,0
-1.66319114214275E-05,-7.70477436162764E-06,3.69140625,0,0
-2.51657347689616E-05,-7.66667835705448E-06,3.69140625,0,0
-2.11898786801612E-05,-7.18685214451398E-06,3.69140625,0,0
-2.54966253123712E-05,-4.25987309427001E-06,3.69140625,0,0
-2.30017176363617E-05,1.39891117214574E-05,3.69140625,0,0
-2.72977395070484E-05,3.80018946088967E-06,3.69140625,0,0
-2.82212313322816E-05,-9.76149976850138E-07,3.69140625,0,0
-3.046341589652E-05,1.24030639199191E-05,3.69140625,0,0
-2.9947219445603E-05,1.19371898108511E-05,3.69140625,0,0
-2.99221028399188E-05,8.92819662112743E-06,3.69140625,0,0
-2.99643998005195E-05,1.70696748682531E-05,3.69140625,0,0
-2.86107297142735E-05,1.63855165737914E-05,3.69140625,0,0
-2.76163482340053E-05,1.37416218422004E-05,3.69140625,0,0
-2.5882003683364E-05,2.70128966803895E-05,3.69140625,0,0
-2.64810878434218E-05,3.60545200237539E-05,3.69140625,0,0
-2.51196051976876E-05,3.29965478158556E-05,3.69140625,0,0
-2.56787388934754E-05,2.84373181784758E-05,3.69140625,0,0
-2.55340091825929E-05,3.03240867651766E-05,3.69140625,0,0
-2.7122305255034E-05,3.1562514777761E-05,3.69140625,0,0
-2.67765026364941E-05,3.16824844048824E-05,3.69140625,0,0
-2.75732509180671E-05,2.94010569632519E-05,3.69140625,0,0
-2.70359487331007E-05,2.78238330793101E-05,3.69140625,0,0
-2.75834572676104E-05,2.59128792094998E-05,3.69140625,0,0
-2.78249917755602E-05,2.2769090719521E-05,3.69140625,0,0
-2.76681093964726E-05,1.46032243719674E-05,3.69140625,0,0
-2.58148247667123E-05,4.53179609394283E-06,3.69140625,0,0
-2.44956881942926E-05,-3.79981258902262E-07,3.69140625,0,0
-2.0558902178891E-05,-1.80455583631556E-06,3.69140625,0,0
-3.01397431030637E-05,-1.95337383956939E-06,3.69140625,0,0
-2.3229618818732E-05,-8.27753683552146E-06,3.69140625,0,0
-2.80795138678513E-05,-7.81670951255364E-06,3.69140625,0,0
-2.42055939452257E-05,3.35167669618386E-06,3.69140625,0,0
-2.67869418166811E-05,-1.06555835373001E-05,3.69140625,0,0
-2.33479986491147E-05,-2.05417254619533E-05,3.69140625,0,0
-2.21908503590385E-05,-1.07448740891414E-05,3.69140625,0,0
-2.11871447390877E-05,-1.1586630535021E-05,3.69140625,0,0
-2.27320851990953E-05,-7.88513170846272E-06,3.69140625,0,0
-2.39377695834264E-05,8.41646124172257E-06,3.69140625,0,0
-2.31161357078236E-05,1.37977731355932E-05,3.69140625,0,0
-2.38712927966844E-05,1.57750673679402E-05,3.69140625,0,0
-2.29150173254311E-05,2.8950589694432E-05,3.69140625,0,0
-2.34066574194003E-05,3.31502669723704E-05,3.69140625,0,0
-2.13475850614486E-05,2.35502047871705E-05,3.69140625,0,0
-2.17248361877864E-05,1.87373425433179E-05,3.69140625,0,0
-2.03637173399329E-05,2.58643776760437E-05,3.69140625,0,0
-2.08382480195723E-05,3.28741334669758E-05,3.69140625,0,0
-1.99763635464478E-05,3.29352842527442E-05,3.69140625,0,0
-2.17848883039551E-05,2.94881047011586E-05,3.69140625,0,0
-2.36053638218436E-05,2.98185623250902E-05,3.69140625,0,0
-2.60120032180566E-05,3.37816381943412E-05,3.69140625,0,0
-2.60563738265773E-05,3.47540444636252E-05,3.69140625,0,0
-2.60035158134997E-05,3.05064513668185E-05,3.69140625,0,0
-2.51647852564929E-05,2.52912614087109E-05,3.69140625,0,0
-2.52893241849961E-05,2.25651801883942E-05,3.69140625,0,0
-2.16499338421272E-05,1.77701203938341E-05,3.69140625,0,0
-2.97129554382991E-05,2.804649011523E-05,3.69140625,0,0
-2.02838255063398E-05,1.51007789099822E-05,3.69140625,0,0
-2.56548191828188E-05,1.29191794258077E-05,3.69140625,0,0
-2.27545624511549E-05,1.33638304760098E-05,3.69140625,0,0
-2.69558404397685E-05,1.77027050085599E-06,3.69140625,0,0
-2.51113251579227E-05,-8.29068085295148E-06,3.69140625,0,0
-2.56857492786366E-05,2.47527032115613E-06,3.69140625,0,0
-2.42298228840809E-05,-1.02607884855388E-06,3.69140625,0,0
-2.36688756558578E-05,1.40056977215863E-06,3.69140625,0,0
-2.30104033107637E-05,1.25799115267E-05,3.69140625,0,0
-2.23642709897831E-05,6.95512790116481E-06,3.69140625,0,0
-2.34830295084976E-05,-2.37596009355912E-06,3.69140625,0,0
-2.22261733142659E-05,2.89007266474073E-06,3.69140625,0,0
-2.32871771004284E-05,7.95311370893614E-06,3.69140625,0,0
-2.31074809562415E-05,-1.38371024149819E-06,3.69140625,0,0
-2.64234386122553E-05,-6.46476155452547E-06,3.69140625,0,0
-2.67088689724915E-05,-3.31051614921307E-06,3.69140625,0,0
-2.59316111623775E-05,3.35120193994953E-06,3.69140625,0,0
-2.13237653952092E-05,5.73437728235149E-06,3.69140625,0,0
-2.06729328056099E-05,1.04768541859812E-05,3.69140625,0,0
-2.10639209399233E-05,1.52324464579578E-05,3.69140625,0,0
-2.37367621593876E-05,2.08318451768719E-05,3.69140625,0,0
-2.49176719080424E-05,2.58621385000879E-05,3.69140625,0,0
-2.56684525083983E-05,3.05143075820524E-05,3.69140625,0,0
-2.53678426815895E-05,3.06787114823237E-05,3.69140625,0,0
-2.45396986429114E-05,2.7594242055784E-05,3.69140625,0,0
-1.97547760762973E-05,2.00174490601057E-05,3.69140625,0,0
-2.59398075286299E-05,3.528467277647E-05,3.69140625,0,0
-1.64514876814792E-05,3.14764583890792E-05,3.69140625,0,0
-2.0888654034934E-05,4.00614080717787E-05,3.69140625,0,0
-1.55648940562969E-05,4.49298458988778E-05,3.69140625,0,0
-1.68393507919973E-05,2.92881450150162E-05,3.69140625,0,0
-1.4480683603324E-05,1.05202398117399E-05,3.69140625,0,0
-1.69275335792918E-05,1.58532620844198E-05,3.69140625,0,0
-1.89948368642945E-05,6.51277741781087E-06,3.69140625,0,0
-2.13764142245054E-05,-6.39015024717082E-06,3.69140625,0,0
-2.27851451199967E-05,-1.0628826203174E-05,3.69140625,0,0
-2.21768714254722E-05,-2.07984321605181E-05,3.69140625,0,0
-2.22161070269067E-05,-2.61687819147483E-05,3.69140625,0,0
-1.97835179278627E-05,-1.82044586836128E-05,3.69140625,0,0
-2.09293230000185E-05,-1.24664056784241E-05,3.69140625,0,0
-2.16066164284712E-05,-2.30047280638246E-05,3.69140625,0,0
-2.43887843680568E-05,-3.22078230965417E-05,3.69140625,0,0
-2.43514186877292E-05,-3.3248114050366E-05,3.69140625,0,0
-2.62283265328733E-05,-2.76759328698972E-05,3.69140625,0,0
-2.67695886577712E-05,-2.30091354751494E-05,3.69140625,0,0
-2.80731983366422E-05,-1.61374173330842E-05,3.69140625,0,0
-2.59546668530675E-05,-1.11985455077956E-05,3.69140625,0,0
-2.33352529903641E-05,-5.39185839443235E-06,3.69140625,0,0
-2.04197440325515E-05,2.06951654035947E-06,3.69140625,0,0
-2.11031874641776E-05,9.97418646875303E-06,3.69140625,0,0
-2.38675620494178E-05,1.1828179594886E-05,3.69140625,0,0
-2.63016117969528E-05,1.28396995933144E-05,3.69140625,0,0
-2.1924472093815E-05,1.37684901346802E-05,3.69140625,0,0
-2.94408673653379E-05,2.70255713985534E-05,3.69140625,0,0
-2.0511302864179E-05,2.89520976366475E-05,3.69140625,0,0
-2.74429694400169E-05,4.28416860813741E-05,3.69140625,0,0
-2.42939495365135E-05,5.15460305905435E-05,3.69140625,0,0
-2.82609034911729E-05,3.40233564202208E-05,3.69140625,0,0
-2.56146759056719E-05,2.07539542316226E-05,3.69140625,0,0
-2.5695058866404E-05,3.14258977596182E-05,3.69140625,0,0
-2.45613118750043E-05,2.92747390631121E-05,3.69140625,0,0
-2.45207775151357E-05,2.88493210973684E-05,3.69140625,0,0
-2.36272444453789E-05,3.40056030836422E-05,3.69140625,0,0
-2.14855190279195E-05,2.33446135098347E-05,3.69140625,0,0
-2.15366235352121E-05,1.42998942465056E-05,3.69140625,0,0
-2.02702412934741E-05,2.07826342375483E-05,3.69140625,0,0
-2.18258282984607E-05,1.91426643141313E-05,3.69140625,0,0
-2.04566713364329E-05,-1.08905942397541E-06,3.69140625,0,0
-2.18231052713236E-05,-1.72405998455361E-05,3.69140625,0,0
-2.20682559302077E-05,-2.37497115449514E-05,3.69140625,0,0
-2.42637634073617E-05,-2.5950612325687E-05,3.69140625,0,0
-2.36162522924133E-05,-2.73729183390969E-05,3.69140625,0,0
-2.45955452555791E-05,-2.41863726841984E-05,3.69140625,0,0
-2.33489336096682E-05,-2.15984127862612E-05,3.69140625,0,0
-2.28983280976536E-05,-2.04005027626408E-05,3.69140625,0,0
-2.29965426115086E-05,-2.11507322092075E-05,3.69140625,0,0
-2.55884951911867E-05,-2.2676127628074E-05,3.69140625,0,0
-2.76706159638707E-05,-2.1725429178332E-05,3.69140625,0,0
-2.79674022749532E-05,-1.55033721966902E-05,3.69140625,0,0
-2.04329098778544E-05,-3.07439108837571E-06,3.69140625,0,0
-2.80983585980721E-05,8.73924008715221E-08,3.69140625,0,0
-2.07933935598703E-05,-1.9575588794396E-06,3.69140625,0,0
-2.67276700469665E-05,1.89691127161495E-06,3.69140625,0,0
-2.32197489822283E-05,2.19539560930571E-05,3.69140625,0,0
-2.86264184978791E-05,1.65040546562523E-05,3.69140625,0,0
-2.82698547380278E-05,1.72571853909176E-05,3.69140625,0,0
-2.91925953206373E-05,3.11373951262794E-05,3.69140625,0,0
-2.69178799499059E-05,3.20990111504216E-05,3.69140625,0,0
-2.5756726245163E-05,3.1249837775249E-05,3.69140625,0,0
-2.52919235208537E-05,3.64179140888155E-05,3.69140625,0,0
-2.36396881518885E-05,3.20611798088066E-05,3.69140625,0,0
-2.43577451328747E-05,2.90655734715983E-05,3.69140625,0,0
-2.30560326599516E-05,4.00988428737037E-05,3.69140625,0,0
-2.40494664467406E-05,4.10572138207499E-05,3.69140625,0,0
-2.37490658037132E-05,2.86418726318516E-05,3.69140625,0,0
-2.60564484051429E-05,1.83507290785201E-05,3.69140625,0,0
-2.44073835347081E-05,1.7834627215052E-05,3.69140625,0,0
-2.32608799706213E-05,1.80176248250064E-05,3.69140625,0,0
-2.16915432247333E-05,1.73583102878183E-05,3.69140625,0,0
-2.3377573597827E-05,1.67824728123378E-05,3.69140625,0,0
-2.34415401791921E-05,1.66818899742793E-05,3.69140625,0,0
-2.43348476942629E-05,1.33313633341459E-05,3.69140625,0,0
-2.58169729931979E-05,7.58842224968248E-06,3.69140625,0,0
-2.74267149507068E-05,-6.30588317562797E-07,3.69140625,0,0
-2.58250183833297E-05,-6.61782951283385E-06,3.69140625,0,0
-2.37291260418715E-05,-6.92555295245256E-06,3.69140625,0,0
-2.05806227313587E-05,-3.40482006322418E-06,3.69140625,0,0
-3.1169878639048E-05,1.87111459126754E-06,3.69140625,0,0
-2.61701006820658E-05,3.38607492267329E-06,3.69140625,0,0
-3.06030015053693E-05,2.13241082747118E-06,3.69140625,0,0
-2.42481764871627E-05,1.00869474408682E-05,3.69140625,0,0
-2.45081355387811E-05,-2.59693456428067E-06,3.69140625,0,0
-2.14972806134028E-05,-2.95028758046101E-06,3.69140625,0,0
-2.25012172450079E-05,1.18601483336533E-05,3.69140625,0,0
-2.16244425246259E-05,7.41407257009996E-06,3.69140625,0,0
-2.16690204979386E-05,1.79705591563106E-06,3.69140625,0,0
-2.23326696868753E-05,8.3794902820955E-06,3.69140625,0,0
-2.2361124138115E-05,9.20801176107489E-06,3.69140625,0,0
-2.26439824473346E-05,1.21235998449265E-05,3.69140625,0,0
-1.98950347112259E-05,2.72570378001546E-05,3.69140625,0,0
-2.08517558348831E-05,3.21665575029328E-05,3.69140625,0,0
-2.12716768146493E-05,2.40571280301083E-05,3.69140625,0,0
-2.33885639318032E-05,1.64991488418309E-05,3.69140625,0,0
-2.24659615923883E-05,1.51810927491169E-05,3.69140625,0,0
-2.28132230404299E-05,1.40603151521645E-05,3.69140625,0,0
-2.10117323149461E-05,1.42936933116289E-05,3.69140625,0,0
-2.20414185605478E-05,1.43694169310038E-05,3.69140625,0,0
-2.2661757611786E-05,1.29556001411402E-05,3.69140625,0,0
-2.39343207795173E-05,1.09664761112072E-05,3.69140625,0,0
-2.32062884606421E-05,1.27446583064739E-05,3.69140625,0,0
-2.18217410292709E-05,1.41979708132567E-05,3.69140625,0,0
-2.200018025178E-05,1.22814826681861E-05,3.69140625,0,0
-2.40262634179089E-05,9.86506529443432E-06,3.69140625,0,0
-1.9738808987313E-05,5.53912877876428E-06,3.69140625,0,0
-2.71424560196465E-05,8.37306015455397E-06,3.69140625,0,0
-2.08053388632834E-05,-1.14453234800749E-06,3.69140625,0,0
-2.8771686629625E-05,-1.53988798956561E-06,3.69140625,0,0
-2.62574412772665E-05,3.77453557121044E-06,3.69140625,0,0
-2.83081553789089E-05,-1.39583289637812E-05,3.69140625,0,0
-2.47270909312647E-05,-2.73712685157079E-05,3.69140625,0,0
-2.59375246969284E-05,-1.64437806233764E-05,3.69140625,0,0
-2.59342468780233E-05,-1.87530204129871E-05,3.69140625,0,0
-2.60166725638555E-05,-1.88056674232939E-05,3.69140625,0,0
-2.56447292485973E-05,-7.58857959226589E-06,3.69140625,0,0
-2.38129468925763E-05,-5.89602132095024E-06,3.69140625,0,0
-2.33336559176678E-05,-2.6650859581423E-06,3.69140625,0,0
-2.13772582355887E-05,1.34211622935254E-05,3.69140625,0,0
-2.1223413568805E-05,2.33567407121882E-05,3.69140625,0,0
-1.82615549420007E-05,1.81387240445474E-05,3.69140625,0,0
-1.75568711711094E-05,1.41439004437416E-05,3.69140625,0,0
-1.59241772053065E-05,1.83328102139058E-05,3.69140625,0,0
-1.730755866447E-05,2.43960639636498E-05,3.69140625,0,0
-1.66733752848813E-05,2.45917617576197E-05,3.69140625,0,0
-1.74193191924132E-05,2.28999542741803E-05,3.69140625,0,0
-1.7356185708195E-05,2.42012556554982E-05,3.69140625,0,0
-1.92443549167365E-05,2.91536289296346E-05,3.69140625,0,0
-2.07814100576798E-05,3.32156159856822E-05,3.69140625,0,0
-2.2209622329683E-05,3.45417975040618E-05,3.69140625,0,0
-2.1762296455563E-05,3.03371489280835E-05,3.69140625,0,0
-2.06296863325406E-05,2.60785454884171E-05,3.69140625,0,0
-1.66370209626621E-05,2.47327425313415E-05,3.69140625,0,0
-2.45018782152329E-05,4.05226855946239E-05,3.69140625,0,0
-1.98631878447486E-05,3.05157500406494E-05,3.69140625,0,0
-2.27159544010647E-05,3.52941060555168E-05,3.69140625,0,0
-1.73133448697627E-05,3.16886143991724E-05,3.69140625,0,0
-2.07995617529377E-05,1.07513769762591E-05,3.69140625,0,0
-2.20505680772476E-05,-4.81486131320708E-06,3.69140625,0,0
-2.40798344748328E-05,7.86939835961675E-06,3.69140625,0,0
-2.37142157857306E-05,5.00944770465139E-06,3.69140625,0,0
-2.42264268308645E-05,2.48887567977363E-06,3.69140625,0,0
-2.52544432441937E-05,6.71131556373439E-06,3.69140625,0,0
-2.56770217674784E-05,-3.61519482794392E-06,3.69140625,0,0
-2.76972023129929E-05,-9.78526895778487E-06,3.69140625,0,0
-2.74513877229765E-05,-1.72974637280277E-06,3.69140625,0,0
-2.82180499198148E-05,1.03275431229122E-06,3.69140625,0,0
-2.73452569672372E-05,-1.27185448945966E-05,3.69140625,0,0
-2.79151699942304E-05,-2.17833585338667E-05,3.69140625,0,0
-2.64960090134991E-05,-2.2377662389772E-05,3.69140625,0,0
-2.67540563072544E-05,-1.32068162201904E-05,3.69140625,0,0
-2.56516213994473E-05,-5.85979796596803E-06,3.69140625,0,0
-2.6373647415312E-05,-1.88533203981933E-06,3.69140625,0,0
-2.77066628768807E-05,-1.38710402097786E-06,3.69140625,0,0
-3.01046147797024E-05,2.31498188441037E-06,3.69140625,0,0
-2.98375052807387E-05,1.00644556368934E-05,3.69140625,0,0
-2.86563972622389E-05,2.10384532692842E-05,3.69140625,0,0
-2.76126465905691E-05,2.62060057139024E-05,3.69140625,0,0
-2.65312191913836E-05,2.61331788351526E-05,3.69140625,0,0
-2.09707068279386E-05,2.24931482080137E-05,3.69140625,0,0
-2.90072894131299E-05,3.76866009901278E-05,3.69140625,0,0
-2.11942788155284E-05,2.89668223558692E-05,3.69140625,0,0
-2.7894064260181E-05,3.54490148311015E-05,3.69140625,0,0
-2.47643674811115E-05,4.12213958043139E-05,3.69140625,0,0
-2.74932208412793E-05,3.03736742353067E-05,3.69140625,0,0
-2.40836379816756E-05,2.01398961507948E-05,3.69140625,0,0
-2.39976343436865E-05,3.19151222356595E-05,3.69140625,0,0
-2.30018194997683E-05,2.57979281741427E-05,3.69140625,0,0
-2.345112261537E-05,2.0297258743085E-05,3.69140625,0,0
-2.49798813456437E-05,2.6694979169406E-05,3.69140625,0,0
-2.61125242104754E-05,1.95983939192956E-05,3.69140625,0,0
-2.89346462523099E-05,1.06989400592283E-05,3.69140625,0,0
-2.90621974272653E-05,1.43801125886966E-05,3.69140625,0,0
-2.9691647796426E-05,1.57061585923657E-05,3.69140625,0,0
-2.69926495093387E-05,4.63050128018949E-06,3.69140625,0,0
-2.63875153905246E-05,-2.45201192683453E-07,3.69140625,0,0
-2.34491071751108E-05,-2.19778189602948E-06,3.69140625,0,0
-2.22363341890741E-05,-5.38812855666038E-06,3.69140625,0,0
-2.02280516532483E-05,-1.05767539935187E-05,3.69140625,0,0
-2.21169357246254E-05,-9.83920654107351E-06,3.69140625,0,0
-2.30717014346737E-05,-6.98260191711597E-06,3.69140625,0,0
-2.33581031352514E-05,-3.77103151549818E-06,3.69140625,0,0
-2.21725003939355E-05,-2.84824500340619E-06,3.69140625,0,0
-2.23110564547824E-05,-2.06398658519902E-06,3.69140625,0,0
-2.27843884204049E-05,-3.72764731082498E-07,3.69140625,0,0
-2.41556481341831E-05,4.42250075138872E-06,3.69140625,0,0
-2.02992523554713E-05,5.62646482649143E-06,3.69140625,0,0
-2.69779211521382E-05,1.78916870936519E-05,3.69140625,0,0
-1.55230936798034E-05,2.53907037404133E-05,3.69140625,0,0
-1.90963237400865E-05,3.7235102354316E-05,3.69140625,0,0
-1.71838328242302E-05,4.90750862809364E-05,3.69140625,0,0
-2.17796441575047E-05,3.45355401805136E-05,3.69140625,0,0
-1.99268488358939E-05,2.69853790086927E-05,3.69140625,0,0
-2.07373523153365E-05,4.03588455810677E-05,3.69140625,0,0
-2.02038863790222E-05,3.86329666071106E-05,3.69140625,0,0
-1.947425880644E-05,3.61970705853309E-05,3.69140625,0,0
-1.91866274690256E-05,4.34161884186324E-05,3.69140625,0,0
-1.86158540600445E-05,3.91049579775427E-05,3.69140625,0,0
-1.94853910215897E-05,3.42092571372632E-05,3.69140625,0,0
-1.87063360499451E-05,4.18555864598602E-05,3.69140625,0,0
-2.00908289116342E-05,4.11333276133519E-05,3.69140625,0,0
-2.03402287297649E-05,2.6498217266635E-05,3.69140625,0,0
-2.34806011576438E-05,1.40771817314089E-05,3.69140625,0,0
-2.37753065448487E-05,1.01912710306351E-05,3.69140625,0,0
-2.48884771281155E-05,8.94373624760192E-06,3.69140625,0,0
-2.41363650275161E-05,7.51068591853254E-06,3.69140625,0,0
-2.53307844104711E-05,5.28096506968723E-06,3.69140625,0,0
-2.46835916186683E-05,-5.29171586549637E-08,3.69140625,0,0
-2.32354323088657E-05,-7.61168530516443E-06,3.69140625,0,0
-2.15234376810258E-05,-1.16306964628166E-05,3.69140625,0,0
-2.20923357119318E-05,-1.10356868390227E-05,3.69140625,0,0
-2.24801551667042E-05,-9.54342976910993E-06,3.69140625,0,0
-2.34994931815891E-05,-8.83400389284361E-06,3.69140625,0,0
-1.92056049854727E-05,-9.50793310039444E-06,3.69140625,0,0
-2.6224786779494E-05,-1.36976441353909E-05,3.69140625,0,0
-1.82652856892673E-05,-1.42939588840818E-05,3.69140625,0,0
-2.29265915550059E-05,-7.73955980548635E-06,3.69140625,0,0
-1.932976556418E-05,1.09165994217619E-05,3.69140625,0,0
-2.21537866309518E-05,-2.18709260479955E-06,3.69140625,0,0
-1.96600485651288E-05,-9.24448522710009E-06,3.69140625,0,0
-2.06479198823217E-05,1.42552130455442E-06,3.69140625,0,0
-1.93024479813175E-05,2.85411857703366E-07,3.69140625,0,0
-1.85736935236491E-05,1.2249651035745E-06,3.69140625,0,0
-2.05340111278929E-05,1.32984114316059E-05,3.69140625,0,0
-2.26603769988287E-05,1.50424029925489E-05,3.69140625,0,0
-2.35235238505993E-05,1.40897636811133E-05,3.69140625,0,0
-2.06436507141916E-05,2.6839737984119E-05,3.69140625,0,0
-2.07195989787579E-05,3.34271862811875E-05,3.69140625,0,0
-2.04617263079854E-05,2.80863678199239E-05,3.69140625,0,0
-2.25300718739163E-05,2.06295353564201E-05,3.69140625,0,0
-2.13338353205472E-05,2.13655785046285E-05,3.69140625,0,0
-2.14809824683471E-05,2.50449720624601E-05,3.69140625,0,0
-2.10714097192977E-05,2.78711358987493E-05,3.69140625,0,0
-2.35190109378891E-05,2.73650675808312E-05,3.69140625,0,0
-2.37136937357718E-05,2.84812213067198E-05,3.69140625,0,0
-2.38782631640788E-05,2.831922211044E-05,3.69140625,0,0
-2.36985015362734E-05,2.25149360630894E-05,3.69140625,0,0
-2.50789653364336E-05,1.42892085932544E-05,3.69140625,0,0
-2.55180511885555E-05,7.87836052040802E-06,3.69140625,0,0
-2.62109533650801E-05,1.22119831758027E-06,3.69140625,0,0
-2.13662315218244E-05,-3.84908389605698E-06,3.69140625,0,0
-2.88129322143504E-05,-1.82601024789619E-06,3.69140625,0,0
-2.02236478799023E-05,-6.66588164222048E-07,3.69140625,0,0
-2.66977622231934E-05,3.91092680729344E-06,3.69140625,0,0
-2.29627039516345E-05,1.61744719662238E-05,3.69140625,0,0
-2.64876125584124E-05,5.4014401484892E-07,3.69140625,0,0
-2.44026123255026E-05,-1.03784068414825E-05,3.69140625,0,0
-2.68626426986884E-05,-4.79471691505751E-06,3.69140625,0,0
-2.84809502772987E-05,-1.26892109619803E-05,3.69140625,0,0
-2.96928665193263E-05,-1.33163239297573E-05,3.69140625,0,0
-2.93315988528775E-05,-1.08493361494766E-06,3.69140625,0,0
-2.86111553577939E-05,-2.17876777242054E-06,3.69140625,0,0
-3.0216340746847E-05,-7.16174236004008E-06,3.69140625,0,0
-2.92245877062669E-05,3.27929478771694E-06,3.69140625,0,0
-2.99252424156293E-05,8.94864842848619E-06,3.69140625,0,0
-2.76307764579542E-05,2.49307004196453E-06,3.69140625,0,0
-2.80321819445817E-05,-2.06783715839265E-06,3.69140625,0,0
-2.69969277724158E-05,3.44388649864413E-06,3.69140625,0,0
-2.78883580904221E-05,1.0504887541174E-05,3.69140625,0,0
-2.58365471381694E-05,1.45565791171975E-05,3.69140625,0,0
-2.53160833381116E-05,1.67738762684166E-05,3.69140625,0,0
-2.35351799346972E-05,1.88783069461351E-05,3.69140625,0,0
-2.35920706472825E-05,2.18256409425521E-05,3.69140625,0,0
-2.34799081226811E-05,2.5143614038825E-05,3.69140625,0,0
-2.37529384321533E-05,2.75747261184733E-05,3.69140625,0,0
-2.32886104640784E-05,2.97810383926844E-05,3.69140625,0,0
-2.27214513870422E-05,3.01340223813895E-05,3.69140625,0,0
-1.81297891685972E-05,2.41605775954667E-05,3.69140625,0,0
-2.62416360783391E-05,3.5699918953469E-05,3.69140625,0,0
-2.07802950171754E-05,1.71478059201036E-05,3.69140625,0,0
-2.58045492955716E-05,1.62348442245275E-05,3.69140625,0,0
-2.29180859605549E-05,1.39041458169231E-05,3.69140625,0,0
-2.6036701456178E-05,-1.10377800410788E-06,3.69140625,0,0
-2.46080799115589E-05,-1.27102093756548E-05,3.69140625,0,0
-2.64587106357794E-05,-2.7273099476588E-06,3.69140625,0,0
-2.66174010903342E-05,-1.33542280309484E-05,3.69140625,0,0
-2.59726111835334E-05,-2.21669306483818E-05,3.69140625,0,0
-2.48907163040712E-05,-1.74954948306549E-05,3.69140625,0,0
-2.45218834606931E-05,-2.47527932515368E-05,3.69140625,0,0
-2.59803091466893E-05,-3.14740209432784E-05,3.69140625,0,0
-2.55988306889776E-05,-2.396444324404E-05,3.69140625,0,0
-2.68367821263382E-05,-1.82375606527785E-05,3.69140625,0,0
-2.56803086813306E-05,-2.68086550931912E-05,3.69140625,0,0
-2.61208642768906E-05,-3.11409421556164E-05,3.69140625,0,0
-2.48998076131102E-05,-2.79674131888896E-05,3.69140625,0,0
-2.58595682680607E-05,-1.56239766511135E-05,3.69140625,0,0
-2.44149014179129E-05,-5.40784776603687E-06,3.69140625,0,0
-2.36269261222333E-05,1.98538123186154E-06,3.69140625,0,0
-2.18090517591918E-05,5.66071093999199E-06,3.69140625,0,0
-2.25691710511455E-05,1.01702671599924E-05,3.69140625,0,0
-2.35895331570646E-05,1.30593816720648E-05,3.69140625,0,0
-2.34944982366869E-05,1.56450751092052E-05,3.69140625,0,0
-2.30516488954891E-05,1.5458133930224E-05,3.69140625,0,0
-2.48494125116849E-05,1.53918535943376E-05,3.69140625,0,0
-2.19183821172919E-05,1.33696094053448E-05,3.69140625,0,0
-3.01031141134445E-05,2.68311778199859E-05,3.69140625,0,0
-2.09560294024413E-05,2.60521883319598E-05,3.69140625,0,0
-2.67109753622208E-05,3.46852721122559E-05,3.69140625,0,0
-2.21939208131516E-05,4.42062446381897E-05,3.69140625,0,0
-2.38223910855595E-05,3.3460008125985E-05,3.69140625,0,0
-2.0627971025533E-05,2.74067479040241E-05,3.69140625,0,0
-2.10946127481293E-05,3.96929499402177E-05,3.69140625,0,0
-1.89357378985733E-05,3.1153489544522E-05,3.69140625,0,0
-1.79018497874495E-05,1.93754185602302E-05,3.69140625,0,0
-1.89196798601188E-05,1.8536808056524E-05,3.69140625,0,0
-2.04130556085147E-05,9.80127879302017E-06,3.69140625,0,0
-2.29464458243456E-05,1.31142826376163E-06,3.69140625,0,0
-2.35622064792551E-05,4.43876069766702E-06,3.69140625,0,0
-2.65760209003929E-05,4.31590933658299E-06,3.69140625,0,0
-2.51968795055291E-05,-4.50032212029328E-06,3.69140625,0,0
-2.42104106291663E-05,-6.13852716924157E-06,3.69140625,0,0
-2.0584635421983E-05,3.53139284925419E-07,3.69140625,0,0
-2.04611569643021E-05,6.94486470820266E-06,3.69140625,0,0
-2.01318089239066E-05,4.21617187384982E-06,3.69140625,0,0
-2.10154175874777E-05,-4.34202593169175E-06,3.69140625,0,0
-1.90880891750567E-05,-1.08806370917591E-05,3.69140625,0,0
-1.80776096385671E-05,-9.19066678761737E-06,3.69140625,0,0
-1.62170235853409E-05,-4.13309180657961E-06,3.69140625,0,0
-1.6356161722797E-05,2.57257738667249E-06,3.69140625,0,0
-1.6865578800207E-05,9.41468624660047E-06,3.69140625,0,0
-1.6675870938343E-05,1.38606728796731E-05,3.69140625,0,0
-1.37887509481516E-05,1.67516809597146E-05,3.69140625,0,0
-2.16120388358831E-05,3.04994337056996E-05,3.69140625,0,0
-2.05166888918029E-05,2.26997726713307E-05,3.69140625,0,0
-2.50420380325522E-05,2.69689444394317E-05,3.69140625,0,0
-2.22969156311592E-05,3.69579211110249E-05,3.69140625,0,0
-2.4907627448556E-05,2.81072098005097E-05,3.69140625,0,0
-2.36413161474047E-05,2.10144353331998E-05,3.69140625,0,0
-2.3929649614729E-05,3.43017891282216E-05,3.69140625,0,0
-2.37049061979633E-05,3.15886791213416E-05,3.69140625,0,0
-2.41432026086841E-05,2.90581465378636E-05,3.69140625,0,0
-2.41678517340915E-05,3.64549196092412E-05,3.69140625,0,0
-2.31479771173326E-05,3.4503907954786E-05,3.69140625,0,0
-2.40180597756989E-05,3.36928278557025E-05,3.69140625,0,0
-2.51152669079602E-05,4.38453644164838E-05,3.69140625,0,0
-2.82178971247049E-05,4.56813286291435E-05,3.69140625,0,0
-2.91753822239116E-05,2.83291810774244E-05,3.69140625,0,0
-3.04950244753854E-05,1.35155223688344E-05,3.69140625,0,0
-2.92829608952161E-05,9.64324772212422E-06,3.69140625,0,0
-2.8677281079581E-05,1.05107019408024E-05,3.69140625,0,0
-2.77227973128902E-05,6.39001973468112E-06,3.69140625,0,0
-2.88752380583901E-05,1.36867652145156E-06,3.69140625,0,0
-2.82684413832612E-05,-6.64923561544128E-07,3.69140625,0,0
-2.81395259662531E-05,1.18902983103908E-06,3.69140625,0,0
-2.83737444988219E-05,-2.84759244095767E-06,3.69140625,0,0
-2.88952433038503E-05,-1.1623747923295E-05,3.69140625,0,0
-2.81645443465095E-05,-1.54719036800088E-05,3.69140625,0,0
-2.6706595235737E-05,-1.21671810120461E-05,3.69140625,0,0
-2.23138158617076E-05,-9.21024638955714E-06,3.69140625,0,0
-3.20121835102327E-05,-1.136240643973E-05,3.69140625,0,0
-2.46855652221711E-05,-1.19989445011015E-05,3.69140625,0,0
-3.06049150822219E-05,-1.03538186522201E-05,3.69140625,0,0
-2.72743072855519E-05,5.54323878532159E-06,3.69140625,0,0
-3.26850167766679E-05,-4.30063755629817E-06,3.69140625,0,0
-3.16990517603699E-05,-4.89050898977439E-06,3.69140625,0,0
-3.23079839290585E-05,1.17127665362204E-05,3.69140625,0,0
-2.97811438940698E-05,1.53323708218522E-05,3.69140625,0,0
-2.87647399090929E-05,1.75032491824823E-05,3.69140625,0,0
-2.82528380921576E-05,2.74843259830959E-05,3.69140625,0,0
-2.76100527116796E-05,2.40101417148253E-05,3.69140625,0,0
-2.92730783257866E-05,1.53741439135047E-05,3.69140625,0,0
-2.85416826955043E-05,2.0111963749514E-05,3.69140625,0,0
-2.95349163934588E-05,2.17534852708923E-05,3.69140625,0,0
-2.76525224762736E-05,1.87108689715387E-05,3.69140625,0,0
-2.76762966677779E-05,1.94489748537308E-05,3.69140625,0,0
-2.52832778642187E-05,2.76177433988778E-05,3.69140625,0,0
-2.59643165918533E-05,3.33032730850391E-05,3.69140625,0,0
-2.49888234975515E-05,3.38264326273929E-05,3.69140625,0,0
-2.50815210165456E-05,2.58774525718763E-05,3.69140625,0,0
-2.32045113079948E-05,1.63687072927132E-05,3.69140625,0,0
-2.29340257646982E-05,9.63404727372108E-06,3.69140625,0,0
-2.21491245611105E-05,6.14268810750218E-06,3.69140625,0,0
-2.24679097300395E-05,1.67445057286386E-06,3.69140625,0,0
-2.11632741411449E-05,-2.77725735031709E-06,3.69140625,0,0
-1.88525718840538E-05,-6.31457032795879E-06,3.69140625,0,0
-1.48773633554811E-05,-8.17874206404667E-06,3.69140625,0,0
-2.31604462896939E-05,-9.09941081772558E-06,3.69140625,0,0
-2.06841850740602E-05,-1.08063541119918E-05,3.69140625,0,0
-2.4151378966053E-05,-1.13467403934919E-05,3.69140625,0,0
-2.02117298613302E-05,-4.71129112611379E-07,3.69140625,0,0
-2.18439890886657E-05,-1.77934161911253E-05,3.69140625,0,0
-2.13006242120173E-05,-2.37207150348695E-05,3.69140625,0,0
-2.31159847317031E-05,-8.8423594206688E-06,3.69140625,0,0
-2.34475191973615E-05,-8.63843433762668E-06,3.69140625,0,0
-2.35546194744529E-05,-1.0030480552814E-05,3.69140625,0,0
-2.28349472308764E-05,6.78193941894278E-07,3.69140625,0,0
-2.19259964069352E-05,4.75481692774338E-06,3.69140625,0,0
-2.23715869651642E-05,9.64151877269614E-06,3.69140625,0,0
-2.16569696931401E-05,2.83400258922484E-05,3.69140625,0,0
-2.23406186705688E-05,3.74051633116324E-05,3.69140625,0,0
-2.21164500544546E-05,3.13114724121988E-05,3.69140625,0,0
-2.39094388234662E-05,2.12390805245377E-05,3.69140625,0,0
-2.37373460549861E-05,1.84520849870751E-05,3.69140625,0,0
-2.36139130720403E-05,1.82312578544952E-05,3.69140625,0,0
-2.19237153942231E-05,1.8920420188806E-05,3.69140625,0,0
-2.32574711844791E-05,1.80756542249583E-05,3.69140625,0,0
-2.4633565772092E-05,1.88005033123773E-05,3.69140625,0,0
-2.56226303463336E-05,2.20016572711756E-05,3.69140625,0,0
-2.46947474806802E-05,2.62784269580152E-05,3.69140625,0,0
-2.32445654546609E-05,2.58080017374596E-05,3.69140625,0,0
-2.23137067223433E-05,2.1357102014008E-05,3.69140625,0,0
-2.39356195379514E-05,1.86260767804924E-05,3.69140625,0,0
-2.01448401639936E-05,1.77638485183707E-05,3.69140625,0,0
-2.7987292924081E-05,3.06798465317115E-05,3.69140625,0,0
-2.17557972064242E-05,2.20811871258775E-05,3.69140625,0,0
-2.83522658719448E-05,2.46377439907519E-05,3.69140625,0,0
-2.45380288106389E-05,2.42689802689711E-05,3.69140625,0,0
-2.81999109574826E-05,4.78400124848122E-06,3.69140625,0,0
-2.58630425378215E-05,-9.43547456699889E-06,3.69140625,0,0
-2.64453683485044E-05,4.86987460135424E-07,3.69140625,0,0
-2.55895847658394E-05,-5.88088551012333E-06,3.69140625,0,0
-2.55241484410362E-05,-1.32387549456325E-05,3.69140625,0,0
-2.48826745519182E-05,-1.05635053841979E-05,3.69140625,0,0
-2.3109480025596E-05,-1.41813525260659E-05,3.69140625,0,0
-2.40922800003318E-05,-1.47224382089917E-05,3.69140625,0,0
-2.44950042542769E-05,-6.07986839895602E-06,3.69140625,0,0
-2.72376419161446E-05,-4.42948248746688E-06,3.69140625,0,0
-2.70836972049437E-05,-1.36162652779603E-05,3.69140625,0,0
-2.73383393505355E-05,-1.57591512106592E-05,3.69140625,0,0
-2.33186947298236E-05,-9.98462746792939E-06,3.69140625,0,0
-2.16241533053108E-05,2.58038699030294E-06,3.69140625,0,0
-2.00708673219197E-05,1.33129988171277E-05,3.69140625,0,0
-2.06488166440977E-05,1.9011120457435E-05,3.69140625,0,0
-1.95561478903983E-05,1.76267840288347E-05,3.69140625,0,0
-2.06707754841773E-05,1.76733719854383E-05,3.69140625,0,0
-2.19987105083419E-05,2.11376427614596E-05,3.69140625,0,0
-2.29681809287285E-05,2.73787209152943E-05,3.69140625,0,0
-2.06450640689582E-05,3.27157868014183E-05,3.69140625,0,0
-1.89506408787565E-05,3.27437774103601E-05,3.69140625,0,0
-1.55493762576953E-05,2.43627473537344E-05,3.69140625,0,0
-2.21635273192078E-05,3.70125453628134E-05,3.69140625,0,0
-1.75389832293149E-05,2.78064271697076E-05,3.69140625,0,0
-2.19270514207892E-05,4.20202704844996E-05,3.69140625,0,0
-1.86809174920199E-05,5.10137324454263E-05,3.69140625,0,0
-2.13518669625046E-05,4.11577966588084E-05,3.69140625,0,0
-1.90377304534195E-05,2.77911385637708E-05,3.69140625,0,0
-1.69000977621181E-05,3.44732688972726E-05,3.69140625,0,0
-1.43947181641124E-05,2.3818232875783E-05,3.69140625,0,0
-1.46900019899476E-05,1.42328053698293E-05,3.69140625,0,0
-1.6363657778129E-05,1.38180139401811E-05,3.69140625,0,0
-1.70791245182045E-05,2.53199891631084E-06,3.69140625,0,0
-1.86847228178522E-05,-3.22929349749757E-06,3.69140625,0,0
-1.94146596186329E-05,5.11860571350553E-06,3.69140625,0,0
-2.16422376979608E-05,9.42769565881463E-06,3.69140625,0,0
-2.09311765502207E-05,-5.3635944823327E-06,3.69140625,0,0
-2.03562776732724E-05,-1.72486052179011E-05,3.69140625,0,0
-1.74547094502486E-05,-2.01359507627785E-05,3.69140625,0,0
-1.74377091752831E-05,-1.66640074894531E-05,3.69140625,0,0
-1.82683961611474E-05,-1.78797690750798E-05,3.69140625,0,0
-2.11314636544557E-05,-1.60508734552423E-05,3.69140625,0,0
-2.1695188479498E-05,-1.09445227280958E-05,3.69140625,0,0
-2.13443036045646E-05,-4.79169648315292E-06,3.69140625,0,0
-2.01593011297518E-05,-3.14376325150079E-06,3.69140625,0,0
-2.03567160497187E-05,-8.28921940865257E-07,3.69140625,0,0
-2.12908580579096E-05,5.39723032488837E-06,3.69140625,0,0
-2.22011094592744E-05,1.27688790598768E-05,3.69140625,0,0
-1.81041286850814E-05,1.9804474504781E-05,3.69140625,0,0
-2.46884974330897E-05,3.58796532964334E-05,3.69140625,0,0
-1.78335121745477E-05,2.86101076198975E-05,3.69140625,0,0
-2.35716433962807E-05,3.45865846611559E-05,3.69140625,0,0
-2.1289097276167E-05,4.44075376435649E-05,3.69140625,0,0
-2.5241264665965E-05,3.41284976457246E-05,3.69140625,0,0
-2.47706357185962E-05,2.43442063947441E-05,3.69140625,0,0
-2.69320826191688E-05,3.4883210901171E-05,3.69140625,0,0
-2.5814395485213E-05,3.20922990795225E-05,3.69140625,0,0
-2.48998585448135E-05,3.13992677547503E-05,3.69140625,0,0
-2.41699326579692E-05,3.89104898204096E-05,3.69140625,0,0
-2.41428479057504E-05,3.16379846481141E-05,3.69140625,0,0
-2.64027039520442E-05,2.15578475035727E-05,3.69140625,0,0
-2.64674090431072E-05,2.37354852288263E-05,3.69140625,0,0
-2.80140848190058E-05,2.34547696891241E-05,3.69140625,0,0
-2.66740316874348E-05,1.07871146610705E-05,3.69140625,0,0
-2.68645253527211E-05,2.09500421988196E-06,3.69140625,0,0
-2.57168594544055E-05,-7.31807915599347E-07,3.69140625,0,0
-2.66271108557703E-05,-3.04691809560609E-07,3.69140625,0,0
-2.53305952355731E-05,-1.63832157795696E-06,3.69140625,0,0
-2.61206369032152E-05,-3.10710811390891E-06,3.69140625,0,0
-2.61955574387684E-05,-7.60578814151813E-06,3.69140625,0,0
-2.73113037110306E-05,-1.07472178569878E-05,3.69140625,0,0
-2.69488464255119E-05,-1.20411023090128E-05,3.69140625,0,0
-2.71309199888492E-05,-1.18925509013934E-05,3.69140625,0,0
-2.78796978818718E-05,-1.23451136460062E-05,3.69140625,0,0
-2.97461956506595E-05,-9.9788894658559E-06,3.69140625,0,0
-2.53151010838337E-05,-2.12123291021271E-06,3.69140625,0,0
-3.42907333106268E-05,1.4459803878708E-06,3.69140625,0,0
-2.57063511526212E-05,1.85142198461108E-06,3.69140625,0,0
-3.49124711647164E-05,8.92071420821594E-06,3.69140625,0,0
-2.93122629955178E-05,2.70506170636509E-05,3.69140625,0,0
-3.12340052914806E-05,1.70400908245938E-05,3.69140625,0,0
-2.81297234323574E-05,1.33699131765752E-05,3.69140625,0,0
-3.14546705340035E-05,2.67025916400598E-05,3.69140625,0,0
-3.17005542456172E-05,2.80155636573909E-05,3.69140625,0,0
-3.00936171697686E-05,3.09531060338486E-05,3.69140625,0,0
-2.85337937384611E-05,4.15957219956908E-05,3.69140625,0,0
-2.76160535577219E-05,3.77921169274487E-05,3.69140625,0,0
-2.89260351564735E-05,3.20660074066836E-05,3.69140625,0,0
-2.81873781204922E-05,4.09726599173155E-05,3.69140625,0,0
-3.18006095767487E-05,4.28088897024281E-05,3.69140625,0,0
-3.14717435685452E-05,3.11346993839834E-05,3.69140625,0,0
-3.16765435854904E-05,2.04394600586966E-05,3.69140625,0,0
-2.92746008199174E-05,2.05495434784098E-05,3.69140625,0,0
-3.02151365758618E-05,2.28489225264639E-05,3.69140625,0,0
-2.74501326202881E-05,2.26115898840362E-05,3.69140625,0,0
-2.61953628069023E-05,1.84399959834991E-05,3.69140625,0,0
-2.52086683758534E-05,1.3252187272883E-05,3.69140625,0,0
-2.7224887162447E-05,1.1287777851976E-05,3.69140625,0,0
-2.71478984359419E-05,1.28257916003349E-05,3.69140625,0,0
-2.65688322542701E-05,1.3155433407519E-05,3.69140625,0,0
-2.37999265664257E-05,8.03515831648838E-06,3.69140625,0,0
-1.99273763428209E-05,-3.52604547515512E-06,3.69140625,0,0
-1.5155661458266E-05,-1.07621353890863E-05,3.69140625,0,0
-2.11731075978605E-05,-1.39620433401433E-05,3.69140625,0,0
-1.51474705489818E-05,-1.5578196325805E-05,3.69140625,0,0
-1.85939425136894E-05,-1.72898162418278E-05,3.69140625,0,0
-1.68049718922703E-05,-4.98039707963471E-06,3.69140625,0,0
-2.01165184989804E-05,-1.94387612282299E-05,3.69140625,0,0
-1.81649284058949E-05,-2.31967824220192E-05,3.69140625,0,0
-1.66881145560183E-05,-7.27543829270871E-06,3.69140625,0,0
-1.54482568177627E-05,-4.88889099869994E-06,3.69140625,0,0
-1.63605182024185E-05,-2.79648065770743E-06,3.69140625,0,0
-1.58898983499967E-05,7.54538814362604E-06,3.69140625,0,0
-1.45692047226476E-05,7.35611274649273E-06,3.69140625,0,0
-1.53540404426167E-05,6.11821224083542E-06,3.69140625,0,0
-1.56553542183246E-05,1.99127971427515E-05,3.69140625,0,0
-1.79772196133854E-05,2.62833600572776E-05,3.69140625,0,0
-1.73812313732924E-05,1.92754869203782E-05,3.69140625,0,0
-1.65792043844704E-05,1.08923841253272E-05,3.69140625,0,0
-1.40849360832362E-05,1.23017716759932E-05,3.69140625,0,0
-1.4918406122888E-05,1.62271990120644E-05,3.69140625,0,0
-1.56208097905619E-05,1.97094632312655E-05,3.69140625,0,0
-1.71088850038359E-05,2.11486149055418E-05,3.69140625,0,0
-1.583722041687E-05,2.35373718169285E-05,3.69140625,0,0
-1.44490104503348E-05,2.57039500866085E-05,3.69140625,0,0
-1.44571922646719E-05,2.62038138316711E-05,3.69140625,0,0
-1.57242593559204E-05,2.539248271205E-05,3.69140625,0,0
-1.62915475812042E-05,2.38733500736998E-05,3.69140625,0,0
-1.80250644916669E-05,2.14555493585067E-05,3.69140625,0,0
-1.67575435625622E-05,1.72035215655342E-05,3.69140625,0,0
-2.44471502810484E-05,2.75561342277797E-05,3.69140625,0,0
-1.94887288671453E-05,1.47469372677733E-05,3.69140625,0,0
-2.47319258050993E-05,1.41353957587853E-05,3.69140625,0,0
-2.26994889089838E-05,1.52675729623297E-05,3.69140625,0,0
-2.64625559793785E-05,6.61488229525276E-07,3.69140625,0,0
-2.63507699855836E-05,-1.22917281260015E-05,3.69140625,0,0
-2.8122960429755E-05,-3.6444482702791E-06,3.69140625,0,0
-2.84257130260812E-05,-9.25894528336357E-06,3.69140625,0,0
-2.89144209091319E-05,-1.36335720526404E-05,3.69140625,0,0
-2.90622247121064E-05,-1.15094117063563E-05,3.69140625,0,0
-2.79071209661197E-05,-2.0555931769195E-05,3.69140625,0,0
-2.71505959972274E-05,-2.31774247367866E-05,3.69140625,0,0
-2.45596220338484E-05,-7.98621476860717E-06,3.69140625,0,0
-2.45867558987811E-05,1.06906452401745E-06,3.69140625,0,0
-2.42436326516327E-05,-8.34346064948477E-06,3.69140625,0,0
-2.61373279499821E-05,-1.34274423544412E-05,3.69140625,0,0
-2.60340348177124E-05,-6.75774117553374E-06,3.69140625,0,0
-2.62062130786944E-05,7.89979822002351E-06,3.69140625,0,0
-2.38976226683008E-05,1.90102400665637E-05,3.69140625,0,0
-2.36586420214735E-05,2.57396313827485E-05,3.69140625,0,0
-2.33957543969154E-05,2.49756067205453E-05,3.69140625,0,0
-2.34994495258434E-05,2.1976993593853E-05,3.69140625,0,0
-2.2116726540844E-05,2.19173653022153E-05,3.69140625,0,0
-2.17844499275088E-05,2.59114349319134E-05,3.69140625,0,0
-2.26720712817041E-05,2.74651283689309E-05,3.69140625,0,0
-2.30675868806429E-05,2.69615811703261E-05,3.69140625,0,0
-1.89315360330511E-05,2.27375549002318E-05,3.69140625,0,0
-2.8338090487523E-05,3.42847633874044E-05,3.69140625,0,0
-2.28604967560386E-05,1.99088972294703E-05,3.69140625,0,0
-2.52284171438077E-05,2.51025176112307E-05,3.69140625,0,0
-1.96475484699477E-05,3.04669574688887E-05,3.69140625,0,0
-2.33754781220341E-05,1.8987009752891E-05,3.69140625,0,0
-2.31503327086102E-05,7.23212042430532E-06,3.69140625,0,0
-2.54107089858735E-05,1.90329519682564E-05,3.69140625,0,0
-2.52958998316899E-05,1.35955397126963E-05,3.69140625,0,0
-2.6383604563307E-05,5.1228716984042E-06,3.69140625,0,0
-2.78791030723369E-05,8.09663288237061E-06,3.69140625,0,0
-2.85840451397235E-05,2.50057655648561E-06,3.69140625,0,0
-3.04647310258588E-05,-3.47254308508127E-06,3.69140625,0,0
-2.95957452181028E-05,6.42982683984883E-07,3.69140625,0,0
-2.9847513360437E-05,1.88346814411489E-06,3.69140625,0,0
-2.74661597359227E-05,-1.15336051749182E-05,3.69140625,0,0
-2.68087242147885E-05,-2.08473520615371E-05,3.69140625,0,0
-2.47377283812966E-05,-2.34893122978974E-05,3.69140625,0,0
-2.51952169492142E-05,-1.87730438483413E-05,3.69140625,0,0
-2.39401560975239E-05,-1.25827282317914E-05,3.69140625,0,0
-2.37631247728132E-05,-3.36947982759739E-06,3.69140625,0,0
-2.23628103412921E-05,2.9743955565209E-06,3.69140625,0,0
-2.37740150623722E-05,5.81769290874945E-06,3.69140625,0,0
-2.53427915595239E-05,5.49810965821962E-06,3.69140625,0,0
-2.69630654656794E-05,6.33502349955961E-06,3.69140625,0,0
-2.73765763267875E-05,1.07358946479508E-05,3.69140625,0,0
-2.67127288680058E-05,1.92053539649351E-05,3.69140625,0,0
-2.0418461645022E-05,2.19432604353642E-05,3.69140625,0,0
-2.94272576866206E-05,3.66540371032897E-05,3.69140625,0,0
-2.39545061049284E-05,3.0269313356257E-05,3.69140625,0,0
-3.01237978419522E-05,4.04852471547201E-05,3.69140625,0,0
-2.54939259320963E-05,4.70663690066431E-05,3.69140625,0,0
-2.94633609883022E-05,3.35179502144456E-05,3.69140625,0,0
-2.87461571133463E-05,1.93737632798729E-05,3.69140625,0,0
-2.97220394713804E-05,2.79559681075625E-05,3.69140625,0,0
-2.75897036772221E-05,2.13487674045609E-05,3.69140625,0,0
-2.57232932199258E-05,1.88358899322338E-05,3.69140625,0,0
-2.4272563678096E-05,2.65822909568669E-05,3.69140625,0,0
-2.35916340898257E-05,1.88447993423324E-05,3.69140625,0,0
-2.53971447818913E-05,1.02450940175913E-05,3.69140625,0,0
-2.46311465161853E-05,1.40642032420146E-05,3.69140625,0,0
-2.60090127994772E-05,1.64961747941561E-05,3.69140625,0,0
-2.59341650235001E-05,5.20951243743184E-06,3.69140625,0,0
-2.8518539693323E-05,-3.14984390570316E-06,3.69140625,0,0
-2.78877505479613E-05,-6.26771407041815E-06,3.69140625,0,0
-2.76714454230387E-05,-6.38497613181244E-06,3.69140625,0,0
-2.5863617338473E-05,-1.13636961032171E-05,3.69140625,0,0
-2.84514117083745E-05,-1.44409714266658E-05,3.69140625,0,0
-3.04711065837182E-05,-1.54030440171482E-05,3.69140625,0,0
-3.09582537738606E-05,-1.48673479998251E-05,3.69140625,0,0
-3.00613901345059E-05,-1.90087175724329E-05,3.69140625,0,0
-3.03727501886897E-05,-2.20037891267566E-05,3.69140625,0,0
-2.93340090138372E-05,-1.88472422451014E-05,3.69140625,0,0
-2.69777228822932E-05,-1.20842860269477E-05,3.69140625,0,0
-1.94776930584339E-05,-2.92902382170723E-06,3.69140625,0,0
-2.6744633942144E-05,4.09297445003176E-06,3.69140625,0,0
-2.06470922421431E-05,8.90824139787583E-06,3.69140625,0,0
-2.77333147096215E-05,1.61125026352238E-05,3.69140625,0,0
-2.44505499722436E-05,3.53999857907183E-05,3.69140625,0,0
-2.70581695076544E-05,2.40321660385234E-05,3.69140625,0,0
-2.34448580158642E-05,1.51358990478911E-05,3.69140625,0,0
-2.43533777393168E-05,2.22049566218629E-05,3.69140625,0,0
-2.47701027547009E-05,1.94429285329534E-05,3.69140625,0,0
-2.58101681538392E-05,1.90571463463129E-05,3.69140625,0,0
-2.69921256403904E-05,2.89502677333076E-05,3.69140625,0,0
-2.71100398094859E-05,2.75303227681434E-05,3.69140625,0,0
-2.73136683972552E-05,2.22769067477202E-05,3.69140625,0,0
-2.41631005337695E-05,2.90097395918565E-05,3.69140625,0,0
-2.4938517526607E-05,3.10018913296517E-05,3.69140625,0,0
-2.53661837632535E-05,2.58247691817814E-05,3.69140625,0,0
-2.80684344033943E-05,2.18916957237525E-05,3.69140625,0,0
-2.72409615718061E-05,2.20953170355642E-05,3.69140625,0,0
-2.73392106464598E-05,1.91880608326755E-05,3.69140625,0,0
-2.5650429961388E-05,1.49595043694717E-05,3.69140625,0,0
-2.47671978286235E-05,9.49536752159474E-06,3.69140625,0,0
-2.13984203583095E-05,4.94105006509926E-06,3.69140625,0,0
-2.0088182282052E-05,-1.34611605062673E-06,3.69140625,0,0
-2.07622324523982E-05,-7.35123694539652E-06,3.69140625,0,0
-2.20448237087112E-05,-8.26915766083403E-06,3.69140625,0,0
-2.14300089282915E-05,-7.35538651497336E-06,3.69140625,0,0
-2.01393904717406E-05,-8.42803547129733E-06,3.69140625,0,0
-1.65046549227554E-05,-5.45013153896434E-06,3.69140625,0,0
-2.40413755818736E-05,-1.68618373663776E-06,3.69140625,0,0
-1.87052792171016E-05,-1.55500026721711E-06,3.69140625,0,0
-2.27435994020198E-05,-2.91485798697977E-06,3.69140625,0,0
-1.93253017641837E-05,9.76593673840398E-06,3.69140625,0,0
-2.13456914934795E-05,-5.92137496369105E-07,3.69140625,0,0
-2.06695185624994E-05,-2.71901012638409E-06,3.69140625,0,0
-2.17267897824058E-05,9.17804936761968E-06,3.69140625,0,0
-2.08758519875119E-05,6.41867927697604E-06,3.69140625,0,0
-2.07753564609447E-05,5.45781131222611E-06,3.69140625,0,0
-2.10619618883356E-05,1.58606817421969E-05,3.69140625,0,0
-2.1295471015037E-05,1.81448049261235E-05,3.69140625,0,0
-2.20356887439266E-05,2.15094532904914E-05,3.69140625,0,0
-2.03494437300833E-05,3.70162342733238E-05,3.69140625,0,0
-2.02177470782772E-05,4.07090046792291E-05,3.69140625,0,0
-1.91005347005557E-05,3.18049060297199E-05,3.69140625,0,0
-2.06070599233499E-05,2.43086033151485E-05,3.69140625,0,0
-2.13019920920487E-05,2.19772700802423E-05,3.69140625,0,0
-2.33366863540141E-05,1.77630754478741E-05,3.69140625,0,0
-2.31197009270545E-05,1.76082376128761E-05,3.69140625,0,0
-2.3596030587214E-05,2.29293309530476E-05,3.69140625,0,0
-2.30280038522324E-05,2.9431776056299E-05,3.69140625,0,0
-2.40108056459576E-05,2.89987929136259E-05,3.69140625,0,0
-2.48545657086652E-05,2.5271843696828E-05,3.69140625,0,0
-2.49126187554793E-05,2.21883710764814E-05,3.69140625,0,0
-2.43500508076977E-05,1.85081826202804E-05,3.69140625,0,0
-2.44421007664641E-05,1.16068495117361E-05,3.69140625,0,0
-1.89313195733121E-05,2.67671089204669E-06,3.69140625,0,0
-2.7287402190268E-05,4.97266728416434E-06,3.69140625,0,0
-2.14578140003141E-05,1.51329459185945E-06,3.69140625,0,0
-2.59223252214724E-05,7.26816915630479E-06,3.69140625,0,0
-2.23515380639583E-05,1.35015379782999E-05,3.69140625,0,0
-2.71025091933552E-05,-6.9600946517312E-06,3.69140625,0,0
-2.59361386270029E-05,-2.07262746698689E-05,3.69140625,0,0
-2.62591438513482E-05,-9.97430379356956E-06,3.69140625,0,0
-2.39916153077502E-05,-1.27293105833814E-05,3.69140625,0,0
-2.16528314922471E-05,-1.70856092154281E-05,3.69140625,0,0
-2.02250248548808E-05,-1.19738861030783E-05,3.69140625,0,0
-2.04353418666869E-05,-1.412460096617E-05,3.69140625,0,0
-2.25980638788315E-05,-1.29274503706256E-05,3.69140625,0,0
-2.11089791264385E-05,1.39783469421673E-06,3.69140625,0,0
-2.13256644201465E-05,8.7454063759651E-06,3.69140625,0,0
-2.09743411687668E-05,1.92387869901722E-06,3.69140625,0,0
-2.37451586144743E-05,-4.41423389929696E-06,3.69140625,0,0
-2.46340878220508E-05,-1.76320872924407E-06,3.69140625,0,0
-2.61711647908669E-05,7.6390915637603E-06,3.69140625,0,0
-2.45486153289676E-05,1.51117928908207E-05,3.69140625,0,0
-2.44378879870055E-05,1.65007277246332E-05,3.69140625,0,0
-2.28141216211952E-05,1.70411603903631E-05,3.69140625,0,0
-2.1703459424316E-05,2.29557517741341E-05,3.69140625,0,0
-2.17455581150716E-05,2.97414844681043E-05,3.69140625,0,0
-2.48083633778151E-05,3.19142709486187E-05,3.69140625,0,0
-2.69337870122399E-05,3.02357748296345E-05,3.69140625,0,0
-2.72047855105484E-05,2.88561459456105E-05,3.69140625,0,0
-2.08298424695386E-05,2.37634249060648E-05,3.69140625,0,0
-2.85574642475694E-05,3.78734512196388E-05,3.69140625,0,0
-2.00240501726512E-05,2.81838420050917E-05,3.69140625,0,0
-2.53839352808427E-05,3.63952021871228E-05,3.69140625,0,0
-2.15647978620837E-05,3.73646325897425E-05,3.69140625,0,0
-2.42515361605911E-05,2.03464423975674E-05,3.69140625,0,0
-2.04520674742525E-05,6.71667930873809E-06,4.39453125,0,0
-2.00249687623E-05,1.81879950105213E-05,4.39453125,0,0
-1.80835086212028E-05,1.50152282003546E-05,4.39453125,0,0
-1.74204778886633E-05,1.40859856401221E-05,4.39453125,0,0
-1.78924201463815E-05,1.96058499568608E-05,4.39453125,0,0
-1.76605444721645E-05,1.30068301587016E-05,4.39453125,0,0
-1.79259513970464E-05,6.82611334923422E-06,4.39453125,0,0
-1.52240627357969E-05,1.02108851933735E-05,4.39453125,0,0
-1.51321801240556E-05,8.91566196514759E-06,4.39453125,0,0
-1.43914530781331E-05,-6.48637114863959E-06,4.39453125,0,0
-1.70153252838645E-05,-1.36884682433447E-05,4.39453125,0,0
-1.71576484717662E-05,-1.08972972157062E-05,4.39453125,0,0
-1.86777924682247E-05,-4.07021934734075E-06,4.39453125,0,0
-1.84697164513636E-05,-4.34783123637317E-06,4.39453125,0,0
-1.98252419068012E-05,-3.4675956612773E-06,4.39453125,0,0
-1.90323698916472E-05,-9.03538762031531E-07,4.39453125,0,0
-1.88412723218789E-05,4.27589066021028E-06,4.39453125,0,0
-1.77763595274882E-05,7.21924925528583E-06,4.39453125,0,0
-1.77348720171722E-05,1.25816059153294E-05,4.39453125,0,0
-1.74425822478952E-05,1.94282147276681E-05,4.39453125,0,0
-1.77170659299009E-05,2.42511141550494E-05,4.39453125,0,0
-1.59627306857146E-05,2.13812509173295E-05,4.39453125,0,0
-2.47112675424432E-05,3.32680610881653E-05,4.39453125,0,0
-2.04704028874403E-05,2.36923897318775E-05,4.39453125,0,0
-2.36677551583853E-05,3.34449250658508E-05,4.39453125,0,0
-2.14916435652412E-05,4.11920555052347E-05,4.39453125,0,0
-2.58287182077765E-05,3.13103846565355E-05,4.39453125,0,0
-2.60076831182232E-05,1.89116726687644E-05,4.39453125,0,0
-2.67100294877309E-05,2.68821841018507E-05,4.39453125,0,0
-2.51362453127513E-05,2.05691321752965E-05,4.39453125,0,0
-2.31494541367283E-05,1.34452666316065E-05,4.39453125,0,0
-2.33017999562435E-05,1.48630624607904E-05,4.39453125,0,0
-2.45429127971875E-05,5.9680223785108E-06,4.39453125,0,0
-2.60597571468679E-05,9.25008194485599E-08,4.39453125,0,0
-2.41922643908765E-05,8.64546564116608E-06,4.39453125,0,0
-2.42314708884805E-05,1.42547469295096E-05,4.39453125,0,0
-2.44096390815685E-05,3.24084339808906E-06,4.39453125,0,0
-2.64656246145023E-05,-5.30514671481797E-06,4.39453125,0,0
-2.65424259850988E-05,-7.45358647691319E-06,4.39453125,0,0
-2.69071588263614E-05,-6.33747322353884E-06,4.39453125,0,0
-2.57973370025866E-05,-1.14360045699868E-05,4.39453125,0,0
-2.55180912063224E-05,-1.64703978953185E-05,4.39453125,0,0
-2.32954953389708E-05,-1.81244358827826E-05,4.39453125,0,0
-2.1666222892236E-05,-1.44500854730722E-05,4.39453125,0,0
-2.03409927053144E-05,-9.7453266789671E-06,4.39453125,0,0
-2.0481449610088E-05,-5.57439716430963E-06,4.39453125,0,0
-2.1102792743477E-05,-5.23377002537018E-06,4.39453125,0,0
-2.08582132472657E-05,-2.24680638893915E-06,4.39453125,0,0
-1.68841597769642E-05,7.1419267442252E-06,4.39453125,0,0
-2.45202554651769E-05,1.7622855011723E-05,4.39453125,0,0
-1.99393289221916E-05,1.38741370392381E-05,4.39453125,0,0
-2.78412062471034E-05,1.93144733202644E-05,4.39453125,0,0
-2.78593597613508E-05,4.14557034673635E-05,4.39453125,0,0
-3.03402484860271E-05,3.62165374099277E-05,4.39453125,0,0
-2.71496555797057E-05,2.36779396800557E-05,4.39453125,0,0
-2.62361427303404E-05,2.40245135501027E-05,4.39453125,0,0
-2.59839052887401E-05,1.29865393319051E-05,4.39453125,0,0
-2.79808064078679E-05,7.80718528403668E-06,4.39453125,0,0
-2.94346500595566E-05,1.55405195982894E-05,4.39453125,0,0
-2.85768801404629E-05,1.37707484100247E-05,4.39453125,0,0
-2.81236934824847E-05,1.00764564194833E-05,4.39453125,0,0
-2.71825811068993E-05,1.81814248207957E-05,4.39453125,0,0
-2.90392981696641E-05,1.99592395802028E-05,4.39453125,0,0
-2.86109006992774E-05,7.99988447397482E-06,4.39453125,0,0
-2.85570040432503E-05,-2.47676416620379E-06,4.39453125,0,0
-2.59021035162732E-05,-4.89243211632129E-06,4.39453125,0,0
-2.66395582002588E-05,-4.40493886344484E-06,4.39453125,0,0
-2.80502463283483E-05,-4.84146949020214E-06,4.39453125,0,0
-2.94549518002896E-05,-8.87571786734043E-06,4.39453125,0,0
-2.84405159618473E-05,-1.73285825439962E-05,4.39453125,0,0
-2.84438974631485E-05,-2.4429740733467E-05,4.39453125,0,0
-2.65690341620939E-05,-2.7949961804552E-05,4.39453125,0,0
-2.51737201324431E-05,-2.8884847779409E-05,4.39453125,0,0
-2.6698693545768E-05,-2.73465484497137E-05,4.39453125,0,0
-2.82950986729702E-05,-2.52779373113299E-05,4.39453125,0,0
-2.32678721658885E-05,-1.76266603375552E-05,4.39453125,0,0
-3.31038427248131E-05,-1.79965027200524E-05,4.39453125,0,0
-2.54617916652933E-05,-6.07472065894399E-06,4.39453125,0,0
-3.1780764402356E-05,1.19998242098518E-06,4.39453125,0,0
-2.75711463473272E-05,2.3641556254006E-05,4.39453125,0,0
-3.15268480335362E-05,8.60275304148672E-06,4.39453125,0,0
-2.88286319118924E-05,1.09342204268614E-06,4.39453125,0,0
-3.00558604067191E-05,1.24623120427714E-05,4.39453125,0,0
-2.9438122510328E-05,1.59868850460043E-05,4.39453125,0,0
-3.01186610158766E-05,1.99570240511093E-05,4.39453125,0,0
-3.10850555251818E-05,3.17254161927849E-05,4.39453125,0,0
-3.11283256451134E-05,2.93780685751699E-05,4.39453125,0,0
-3.14468670694623E-05,2.13699840969639E-05,4.39453125,0,0
-2.76770006166771E-05,2.77106319117593E-05,4.39453125,0,0
-2.70421987806913E-05,2.7800790121546E-05,4.39453125,0,0
-2.57842566497857E-05,2.14665597013664E-05,4.39453125,0,0
-2.66166280198377E-05,1.66566333064111E-05,4.39453125,0,0
-2.35479910770664E-05,2.12887061934453E-05,4.39453125,0,0
-2.36453670368064E-05,2.43413687712746E-05,4.39453125,0,0
-2.27738109970232E-05,2.49993809120497E-05,4.39453125,0,0
-2.33678038057406E-05,2.22760318138171E-05,4.39453125,0,0
-2.16757453017635E-05,2.52958434430184E-05,4.39453125,0,0
-2.20066813199082E-05,2.94392084470019E-05,4.39453125,0,0
-2.24925715883728E-05,2.93000375677366E-05,4.39453125,0,0
-2.46281306317542E-05,2.25830990530085E-05,4.39453125,0,0
-2.54599381150911E-05,1.66495792655041E-05,4.39453125,0,0
-2.44647635554429E-05,1.63304084708216E-05,4.39453125,0,0
-1.88094963959884E-05,1.47366299643181E-05,4.39453125,0,0
-2.70791206276044E-05,2.33005375775974E-05,4.39453125,0,0
-2.17048145714216E-05,1.29549707708065E-05,4.39453125,0,0
-2.71403205260867E-05,1.70963448908878E-05,4.39453125,0,0
-2.22239323193207E-05,1.97725894395262E-05,4.39453125,0,0
-2.29759370995453E-05,1.87135822216078E-06,4.39453125,0,0
-1.96733944903826E-05,-1.22979854495497E-05,4.39453125,0,0
-2.02270293812035E-05,-2.4157113784895E-06,4.39453125,0,0
-1.99842561414698E-05,-2.39666337620292E-06,4.39453125,0,0
-2.06058994081104E-05,1.90178934644791E-06,4.39453125,0,0
-2.09783556783805E-05,1.36899052449735E-05,4.39453125,0,0
-1.96917062567081E-05,1.08721378637711E-05,4.39453125,0,0
-1.94750082300743E-05,4.18117997469381E-06,4.39453125,0,0
-1.70969469763804E-05,9.96698054223089E-06,4.39453125,0,0
-1.75402292370563E-05,1.62545511557255E-05,4.39453125,0,0
-1.81701416295255E-05,1.28033270812011E-05,4.39453125,0,0
-2.17212727875449E-05,1.33335388454725E-05,4.39453125,0,0
-2.21737100218888E-05,2.0621286239475E-05,4.39453125,0,0
-2.29576089623151E-05,3.00046849588398E-05,4.39453125,0,0
-2.20193323912099E-05,3.24390894093085E-05,4.39453125,0,0
-2.32070378842764E-05,3.17326484946534E-05,4.39453125,0,0
-2.252301601402E-05,2.94292822218267E-05,4.39453125,0,0
-2.14758583751973E-05,3.1779141863808E-05,4.39453125,0,0
-2.02051760425093E-05,3.7227277061902E-05,4.39453125,0,0
-2.03634408535436E-05,4.05195060011465E-05,4.39453125,0,0
-2.02827432076447E-05,3.78475306206383E-05,4.39453125,0,0
-1.99928144866135E-05,3.61908205377404E-05,4.39453125,0,0
-1.526177766209E-05,3.29001595673617E-05,4.39453125,0,0
-2.28464923566207E-05,5.01609465572983E-05,4.39453125,0,0
-2.10288926609792E-05,3.18212842103094E-05,4.39453125,0,0
-2.71461412921781E-05,3.41655504598748E-05,4.39453125,0,0
-2.37898348132148E-05,3.06901856674813E-05,4.39453125,0,0
-2.58246873272583E-05,2.2728252588422E-05,4.39453125,0,0
-2.35872867051512E-05,1.81218929355964E-05,4.39453125,0,0
-2.32940201385645E-05,3.07958252960816E-05,4.39453125,0,0
-2.26330830628285E-05,1.80055449163774E-05,4.39453125,0,0
-2.2803667889093E-05,3.79993889509933E-06,4.39453125,0,0
-2.28032749873819E-05,3.83174210583093E-06,4.39453125,0,0
-2.24843661271734E-05,-5.18737306265393E-06,4.39453125,0,0
-2.39248111029156E-05,-1.20524928206578E-05,4.39453125,0,0
-2.47550196945667E-05,-1.09562897705473E-05,4.39453125,0,0
-2.63496112893336E-05,-1.35185155158979E-05,4.39453125,0,0
-2.52623267442686E-05,-2.60141168837436E-05,4.39453125,0,0
-2.59840817307122E-05,-2.72745892289095E-05,4.39453125,0,0
-2.57933897955809E-05,-2.25974436034448E-05,4.39453125,0,0
-2.70321888820035E-05,-1.38053101181868E-05,4.39453125,0,0
-2.58564614341594E-05,-9.72933685261523E-06,4.39453125,0,0
-2.44601560552837E-05,-5.64673337066779E-06,4.39453125,0,0
-2.17792858165922E-05,-4.45731939180405E-06,4.39453125,0,0
-2.1188467144384E-05,-2.03923355002189E-06,4.39453125,0,0
-2.13650000659982E-05,2.90653542833752E-06,4.39453125,0,0
-2.17069355130661E-05,1.11239141915576E-05,4.39453125,0,0
-2.00099548237631E-05,1.74207925738301E-05,4.39453125,0,0
-1.8714823454502E-05,2.39881010202225E-05,4.39453125,0,0
-1.63585755217355E-05,2.30331079364987E-05,4.39453125,0,0
-2.34612543863477E-05,3.71527603419963E-05,4.39453125,0,0
-1.89916445378913E-05,2.96637590508908E-05,4.39453125,0,0
-2.44737275352236E-05,4.35445363109466E-05,4.39453125,0,0
-2.17238939512754E-05,5.20978101121727E-05,4.39453125,0,0
-2.40206081798533E-05,3.52915703842882E-05,4.39453125,0,0
-2.27820873988094E-05,1.82462208613288E-05,4.39453125,0,0
-2.386328560533E-05,2.83591580227949E-05,4.39453125,0,0
-2.23887254833244E-05,2.52876106969779E-05,4.39453125,0,0
-2.15287782339146E-05,2.26542306336341E-05,4.39453125,0,0
-2.23017323150998E-05,2.45221890509129E-05,4.39453125,0,0
-2.37604890571674E-05,1.05756380435196E-05,4.39453125,0,0
-2.60464803432114E-05,3.79216771762003E-07,4.39453125,0,0
-2.42998194153188E-05,8.62500928633381E-06,4.39453125,0,0
-2.2704849470756E-05,1.53073960973416E-05,4.39453125,0,0
-2.07787124963943E-05,2.67884638560645E-06,4.39453125,0,0
-2.2115527826827E-05,-8.95496668817941E-06,4.39453125,0,0
-2.15287564060418E-05,-1.18749812827446E-05,4.39453125,0,0
-2.29029974434525E-05,-5.88093416808988E-06,4.39453125,0,0
-2.38640368479537E-05,-2.37724248108862E-06,4.39453125,0,0
-2.66646457021125E-05,-2.18356581171975E-06,4.39453125,0,0
-2.75043239525985E-05,-3.26311896969855E-06,4.39453125,0,0
-2.76476839644602E-05,1.94020913113491E-06,4.39453125,0,0
-2.72120250883745E-05,6.24195627096924E-06,4.39453125,0,0
-2.67801988229621E-05,8.30624139780412E-06,4.39453125,0,0
-2.4902083168854E-05,1.0569016012596E-05,4.39453125,0,0
-2.41561174334493E-05,1.57548602146562E-05,4.39453125,0,0
-1.97474528249586E-05,1.89482016139664E-05,4.39453125,0,0
-2.8053296773578E-05,3.21326915582176E-05,4.39453125,0,0
-2.20251949940575E-05,1.9051656636293E-05,4.39453125,0,0
-2.8163374736323E-05,1.93621362996055E-05,4.39453125,0,0
-2.38682896451792E-05,2.82190685538808E-05,4.39453125,0,0
-2.49082513619214E-05,1.92840834642993E-05,4.39453125,0,0
-2.16465741686989E-05,9.44377279665787E-06,4.39453125,0,0
-2.40331810346106E-05,2.10286052606534E-05,4.39453125,0,0
-2.50368539127521E-05,1.67388061527163E-05,4.39453125,0,0
-2.48792111960938E-05,1.40866322908551E-05,4.39453125,0,0
-2.41931466007372E-05,2.47366151597817E-05,4.39453125,0,0
-2.37134790950222E-05,2.63051642832579E-05,4.39453125,0,0
-2.51221135840751E-05,2.83288027276285E-05,4.39453125,0,0
-2.49586737481877E-05,3.86500141758006E-05,4.39453125,0,0
-2.69471711362712E-05,3.75168056052644E-05,4.39453125,0,0
-2.54973747360054E-05,1.84612763405312E-05,4.39453125,0,0
-2.5468547391938E-05,4.57831356470706E-06,4.39453125,0,0
-2.36495288845617E-05,8.75857665505464E-07,4.39453125,0,0
-2.42399546550587E-05,1.68497547292645E-06,4.39453125,0,0
-2.36383912124438E-05,-2.67815198640164E-06,4.39453125,0,0
-2.47180742007913E-05,-6.32851106274757E-06,4.39453125,0,0
-2.3938786398503E-05,-4.79062373415218E-06,4.39453125,0,0
-2.32607544603525E-05,3.99089373104289E-07,4.39453125,0,0
-2.21106874960242E-05,1.71462579601211E-06,4.39453125,0,0
-2.31946723943111E-05,2.52492827712558E-06,4.39453125,0,0
-2.24314590013819E-05,4.65736866317457E-06,4.39453125,0,0
-2.04042571567697E-05,4.57381293017534E-06,4.39453125,0,0
-1.67700345627964E-05,9.84973098638875E-07,4.39453125,0,0
-2.35140760196373E-05,2.77160052064573E-06,4.39453125,0,0
-1.71526044141501E-05,-5.1117973498549E-07,4.39453125,0,0
-2.17981360037811E-05,5.70135625821422E-06,4.39453125,0,0
-2.05978012672858E-05,1.95424217963591E-05,4.39453125,0,0
-2.53683319897391E-05,7.26584539734176E-06,4.39453125,0,0
-2.48722735705087E-05,-2.00610429601511E-06,4.39453125,0,0
-2.47036587097682E-05,7.27709993952885E-06,4.39453125,0,0
-2.25851599680027E-05,4.5412712097459E-06,4.39453125,0,0
-2.27454602281796E-05,3.75791773876699E-06,4.39453125,0,0
-2.4071861844277E-05,1.32917666633148E-05,4.39453125,0,0
-2.34825765801361E-05,1.3029308320256E-05,4.39453125,0,0
-2.20631027332274E-05,1.02901585705695E-05,4.39453125,0,0
-1.95129086932866E-05,1.72824948094785E-05,4.39453125,0,0
-2.06800850719446E-05,1.60135623445967E-05,4.39453125,0,0
-2.0596571630449E-05,3.31416322296718E-06,4.39453125,0,0
-2.12934846786084E-05,-1.91132403415395E-06,4.39453125,0,0
-2.04107327590464E-05,7.04724516253918E-06,4.39453125,0,0
-2.23265142267337E-05,1.88163558050292E-05,4.39453125,0,0
-2.23355073103448E-05,2.33007758652093E-05,4.39453125,0,0
-2.19923713302705E-05,2.00253616640111E-05,4.39453125,0,0
-2.04823063540971E-05,1.60928157129092E-05,4.39453125,0,0
-2.13661987800151E-05,1.47967584780417E-05,4.39453125,0,0
-2.24263476411579E-05,1.27654393509147E-05,4.39453125,0,0
-2.31669782806421E-05,8.23163827590179E-06,4.39453125,0,0
-2.17088618228445E-05,2.06496338250872E-06,4.39453125,0,0
-2.02260271180421E-05,-1.24464463624463E-07,4.39453125,0,0
-1.75838231371017E-05,-2.05644118977943E-06,4.39453125,0,0
-2.65190883510513E-05,-8.14899158285698E-06,4.39453125,0,0
-2.15928666875698E-05,-2.1249494238873E-05,4.39453125,0,0
-2.43758968281327E-05,-2.07266602956224E-05,4.39453125,0,0
-1.98233828996308E-05,-8.52192715683486E-06,4.39453125,0,0
-2.14157880691346E-05,-2.26378306251718E-05,4.39453125,0,0
-1.83400989044458E-05,-3.08506459987257E-05,4.39453125,0,0
-1.9191993487766E-05,-1.46723032230511E-05,4.39453125,0,0
-1.98347934201593E-05,-9.69383927440504E-06,4.39453125,0,0
-2.05425731110154E-05,-5.94067296333378E-06,4.39453125,0,0
-1.99592886929167E-05,3.43047076967196E-06,4.39453125,0,0
-1.84023429028457E-05,-3.23103222399368E-07,4.39453125,0,0
-1.84635591722326E-05,-1.76770709003904E-06,4.39453125,0,0
-1.72738800756633E-05,1.24003354358138E-05,4.39453125,0,0
-1.8097893189406E-05,1.97344033949776E-05,4.39453125,0,0
-1.74518754647579E-05,1.2559771676024E-05,5.09765625,0,0
-1.94493968592724E-05,6.49094954496832E-06,5.09765625,0,0
-2.01094335352536E-05,1.01029045254108E-05,5.09765625,0,0
-2.25430976570351E-05,1.76029388967436E-05,5.09765625,0,0
-2.32937763939844E-05,2.21638674702263E-05,5.09765625,0,0
-2.40345780184725E-05,2.1202395146247E-05,5.09765625,0,0
-2.2449881726061E-05,1.76042867678916E-05,5.09765625,0,0
-2.31354697461938E-05,1.54535173351178E-05,5.09765625,0,0
-2.36533196584787E-05,1.80534825631185E-05,5.09765625,0,0
-2.44940147240413E-05,2.21782720473129E-05,5.09765625,0,0
-2.63316978816874E-05,2.31034136959352E-05,5.09765625,0,0
-2.76788559858687E-05,1.96491982933367E-05,5.09765625,0,0
-2.20522488234565E-05,1.56344685819931E-05,5.09765625,0,0
-3.04322402371326E-05,2.96413873002166E-05,5.09765625,0,0
-2.33135178859811E-05,2.26914526137989E-05,5.09765625,0,0
-3.00686861010036E-05,2.13191069633467E-05,5.09765625,0,0
-2.53009002335602E-05,1.85457865882199E-05,5.09765625,0,0
-2.87108668999281E-05,-2.03589706870844E-06,5.09765625,0,0
-2.58984509855509E-05,-1.3001364095544E-05,5.09765625,0,0
-2.74056474154349E-05,8.5079307154956E-08,5.09765625,0,0
-2.72498691629153E-05,-2.94146025225928E-06,5.09765625,0,0
-2.7897638574359E-05,-5.15599595019012E-06,5.09765625,0,0
-2.86703361780383E-05,-4.49158392257232E-07,5.09765625,0,0
-2.76872688118601E-05,-1.00936495073256E-05,5.09765625,0,0
-2.71700882876758E-05,-1.88699414138682E-05,5.09765625,0,0
-2.43137674260652E-05,-8.75574551173486E-06,5.09765625,0,0
-2.518403744034E-05,1.0448834473209E-06,5.09765625,0,0
-2.41200614254922E-05,-3.23059680340521E-06,5.09765625,0,0
-2.45917908614501E-05,-4.9555615078134E-06,5.09765625,0,0
-2.20029687625356E-05,-1.45933233852702E-06,5.09765625,0,0
-2.33060272876173E-05,3.90050627174787E-06,5.09765625,0,0
-2.32142447202932E-05,8.53064739203546E-06,5.09765625,0,0
-2.35479146795115E-05,1.52883094415301E-05,5.09765625,0,0
-2.19873254536651E-05,1.91362505574944E-05,5.09765625,0,0
-2.31529520533513E-05,2.1677726181224E-05,5.09765625,0,0
-2.49362710746937E-05,2.38635129790055E-05,5.09765625,0,0
-2.7634250727715E-05,2.53735033766134E-05,5.09765625,0,0
-2.94598776235944E-05,2.47976731770905E-05,5.09765625,0,0
-3.11951516778208E-05,2.18905588553753E-05,5.09765625,0,0
-2.71029421128333E-05,1.64717221196042E-05,5.09765625,0,0
-3.87609761673957E-05,2.93360117211705E-05,5.09765625,0,0
-2.87326674879296E-05,2.39004111790564E-05,5.09765625,0,0
-3.40950573445298E-05,2.83467652479885E-05,5.09765625,0,0
-2.73172026936663E-05,3.22450323437806E-05,5.09765625,0,0
-3.07254886138253E-05,1.91301623999607E-05,5.09765625,0,0
-2.88660121441353E-05,7.56891449782415E-06,5.09765625,0,0
-3.1017971195979E-05,1.65471283253282E-05,5.09765625,0,0
-3.05418907373678E-05,9.09798927750671E-06,5.09765625,0,0
-3.15286233671941E-05,4.53635522035256E-07,5.09765625,0,0
-3.21662992064375E-05,-1.82254197511611E-07,5.09765625,0,0
-3.01884192595026E-05,-1.14265785668977E-05,5.09765625,0,0
-3.0531966331182E-05,-1.77051679202123E-05,5.09765625,0,0
-3.01388627121923E-05,-5.11866983288201E-06,5.09765625,0,0
-3.37507262884174E-05,6.83790494804271E-06,5.09765625,0,0
-3.24850043398328E-05,8.63626439695508E-07,5.09765625,0,0
-3.14580793201458E-05,-8.76699687069049E-06,5.09765625,0,0
-2.80685162579175E-05,-1.46794027386932E-05,5.09765625,0,0
-2.96377893391764E-05,-1.30407606775407E-05,5.09765625,0,0
-2.90841599053238E-05,-1.12893621917465E-05,5.09765625,0,0
-2.91962969640736E-05,-9.26826214708854E-06,5.09765625,0,0
-2.84599482256453E-05,-4.63139485873398E-06,5.09765625,0,0
-3.04593395412667E-05,4.04157481170841E-06,5.09765625,0,0
-2.94750334433047E-05,1.06759380287258E-05,5.09765625,0,0
-2.48763481067726E-05,1.51500007632421E-05,5.09765625,0,0
-2.16774715227075E-05,1.98451962205581E-05,5.09765625,0,0
-2.45453029492637E-05,2.40875851886813E-05,5.09765625,0,0
-2.24954674195033E-05,2.16330226976424E-05,5.09765625,0,0
-3.21613551932387E-05,3.52549250237644E-05,5.09765625,0,0
-2.5254994397983E-05,2.61287696048385E-05,5.09765625,0,0
-3.107179509243E-05,3.44720137945842E-05,5.09765625,0,0
-2.5802355594351E-05,4.14346868637949E-05,5.09765625,0,0
-2.94045294140233E-05,2.98017093882663E-05,5.09765625,0,0
-2.72689321718644E-05,1.79597282112809E-05,5.09765625,0,0
-2.69159027084243E-05,2.91969518002588E-05,5.09765625,0,0
-2.48934338742401E-05,2.63067995547317E-05,5.09765625,0,0
-2.37516105698887E-05,2.49617369263433E-05,5.09765625,0,0
-2.28844746743562E-05,3.29927825077903E-05,5.09765625,0,0
-2.20633264689241E-05,2.92643053398933E-05,5.09765625,0,0
-2.22904182010097E-05,2.45354549406329E-05,5.09765625,0,0
-1.92552543012425E-05,2.91005035251146E-05,5.09765625,0,0
-1.99219375645043E-05,2.66989518422633E-05,5.09765625,0,0
-1.9407858417253E-05,9.93396679405123E-06,5.09765625,0,0
-2.08412075153319E-05,-3.7582449152751E-08,5.09765625,0,0
-1.89411566680064E-05,-3.48921548720682E-06,5.09765625,0,0
-1.90747177839512E-05,-2.87009561361629E-06,5.09765625,0,0
-1.77364199771546E-05,-4.2016963561764E-06,5.09765625,0,0
-1.79536000359803E-05,-4.43507087766193E-06,5.09765625,0,0
-1.65884230227675E-05,-5.62896002520574E-06,5.09765625,0,0
-1.819595854613E-05,-6.91245895723114E-06,5.09765625,0,0
-2.09911268029828E-05,-9.76920728135156E-06,5.09765625,0,0
-2.33615573961288E-05,-9.11007737158798E-06,5.09765625,0,0
-2.21787686314201E-05,-7.77256263972959E-06,5.09765625,0,0
-2.05933956749504E-05,-5.77759374209563E-06,5.09765625,0,0
-1.81357736437349E-05,2.12273039323918E-06,5.09765625,0,0
-2.57071951637045E-05,9.12823998078238E-06,5.09765625,0,0
-1.83820939128054E-05,1.97283338820853E-06,5.09765625,0,0
-2.32276524911867E-05,-4.16842976846965E-06,5.09765625,0,0
-2.24917748710141E-05,7.05301408743253E-06,5.09765625,0,0
-2.62863486568676E-05,2.25248595597805E-06,5.09765625,0,0
-2.39915516431211E-05,8.89193506736774E-06,5.09765625,0,0
-2.3450622393284E-05,2.9000668291701E-05,5.09765625,0,0
-2.12453123822343E-05,2.99560433631996E-05,5.09765625,0,0
-2.02781484404113E-05,2.95613208436407E-05,5.09765625,0,0
-1.99160022020806E-05,3.79678567696828E-05,5.09765625,0,0
-1.93009727809113E-05,3.22426640195772E-05,5.09765625,0,0
-2.105630665028E-05,2.4236102035502E-05,5.09765625,0,0
-2.12612685572822E-05,3.32691997755319E-05,5.09765625,0,0
-2.18437508010538E-05,3.88349471904803E-05,5.09765625,0,0
-1.96421642613132E-05,3.05673493130598E-05,5.09765625,0,0
-1.89118909474928E-05,2.18639979721047E-05,5.09765625,0,0
-1.64949851750862E-05,2.30960922635859E-05,5.09765625,0,0
-1.73774442373542E-05,2.77441267826362E-05,5.09765625,0,0
-1.75836157723097E-05,2.8631953682634E-05,5.09765625,0,0
-1.77397541847313E-05,2.27804430323886E-05,5.09765625,0,0
-1.62135220307391E-05,1.60098934429698E-05,5.09765625,0,0
-1.69678805832518E-05,1.10632472569705E-05,5.09765625,0,0
-1.6484747902723E-05,6.49056073598331E-06,5.09765625,0,0
-1.55981051648268E-05,3.00107160455809E-07,5.09765625,0,0
-1.57294580276357E-05,-4.80886183140683E-06,5.09765625,0,0
-1.68221959029324E-05,-7.88506531534949E-06,5.09765625,0,0
-1.43130009746528E-05,-7.20546631782781E-06,5.09765625,0,0
-2.08276142075192E-05,-4.34542653238168E-06,5.09765625,0,0
-1.57606973516522E-05,-9.96185576696007E-07,5.09765625,0,0
-1.84973723662551E-05,-1.49795471315883E-06,5.09765625,0,0
-1.59430546773365E-05,8.18492117105052E-06,5.09765625,0,0
-1.98523375729565E-05,-8.22165293357102E-06,5.09765625,0,0
-2.06040604098234E-05,-1.6496958778589E-05,5.09765625,0,0
-2.12488139368361E-05,-4.00050521420781E-06,5.09765625,0,0
-2.05840169655858E-05,-2.87171224044869E-06,5.09765625,0,0
-2.19267076317919E-05,-2.52600875683129E-06,5.09765625,0,0
-2.34302897297312E-05,8.6621985246893E-06,5.09765625,0,0
-2.37667718465673E-05,1.13226178655168E-05,5.09765625,0,0
-2.36393643717747E-05,1.21080574899679E-05,5.09765625,0,0
-2.09841618925566E-05,2.64994760073023E-05,5.09765625,0,0
-2.03705039893975E-05,3.45840708178002E-05,5.09765625,0,0
-1.95778884517495E-05,2.90260759356897E-05,5.09765625,0,0
-1.96877117559779E-05,1.92626612260938E-05,5.09765625,0,0
-1.71972951648058E-05,1.75692439370323E-05,5.09765625,0,0
-1.64435587066691E-05,2.10503967537079E-05,5.09765625,0,0
-1.5844621884753E-05,2.62749017565511E-05,5.09765625,0,0
-1.83722095243866E-05,2.95991030725418E-05,5.09765625,0,0
-2.08582896448206E-05,2.91050746454857E-05,5.09765625,0,0
-2.2464251742349E-05,1.87866207852494E-05,5.09765625,0,0
-2.22256294364342E-05,8.32055593491532E-06,5.09765625,0,0
-2.244293136755E-05,6.98513258612365E-06,5.09765625,0,0
-2.30061668844428E-05,1.11702292997506E-05,5.09765625,0,0
-2.48932956310455E-05,1.66989921126515E-05,5.09765625,0,0
-2.21824084292166E-05,1.72172240127111E-05,5.09765625,0,0
-3.15507131745107E-05,2.72786892310251E-05,5.09765625,0,0
-2.40348126681056E-05,1.43799425131874E-05,5.09765625,0,0
-2.99281418847386E-05,1.47929949889658E-05,5.09765625,0,0
-2.57931842497783E-05,1.76914745679824E-05,5.09765625,0,0
-3.04948353004875E-05,3.14264821099641E-06,5.09765625,0,0
-2.85194491880247E-05,-1.00107026810292E-05,5.09765625,0,0
-2.97928017971572E-05,6.03315072567057E-07,5.09765625,0,0
-3.07435548165813E-05,-4.35494985140394E-06,5.09765625,0,0
-3.09089227812365E-05,-8.75063324201619E-06,5.09765625,0,0
-2.99355906463461E-05,-2.49531308327278E-06,5.09765625,0,0
-2.851711542462E-05,-2.79567848338047E-06,5.09765625,0,0
-3.07783011521678E-05,1.4645754617959E-06,5.09765625,0,0
-3.23499589285348E-05,1.74550496012671E-05,5.09765625,0,0
-3.50136797351297E-05,2.68467356363544E-05,5.09765625,0,0
-3.25856562994886E-05,1.95327702385839E-05,5.09765625,0,0
-3.0930146749597E-05,1.53867676999653E-05,5.09765625,0,0
-2.75510119536193E-05,1.67646121553844E-05,5.09765625,0,0
-2.80959029623773E-05,2.10479374800343E-05,5.09765625,0,0
-2.84018096863292E-05,2.39578348555369E-05,5.09765625,0,0
-2.9792125133099E-05,2.70276486844523E-05,5.09765625,0,0
-2.79632531601237E-05,2.64578666246962E-05,5.09765625,0,0
-2.73124533123337E-05,2.47016632783925E-05,5.09765625,0,0
-2.71256449195789E-05,2.21660138777224E-05,5.09765625,0,0
-2.83534191112267E-05,2.10694288398372E-05,5.09765625,0,0
-2.85752666968619E-05,1.89884649444139E-05,5.09765625,0,0
-2.84545203612652E-05,2.15875279536704E-05,5.09765625,0,0
-2.2193602490006E-05,2.38229640672216E-05,5.09765625,0,0
-3.07537084154319E-05,3.89940360037144E-05,5.09765625,0,0
-2.28946046263445E-05,2.88271930912742E-05,5.09765625,0,0
-2.98773466056446E-05,3.65894011338241E-05,5.09765625,0,0
-2.54272472375305E-05,4.16550901718438E-05,5.09765625,0,0
-2.7696756660589E-05,2.82118489849381E-05,5.09765625,0,0
-2.43418053287314E-05,1.27341982079088E-05,5.09765625,0,0
-2.49804907070939E-05,1.58071561600082E-05,5.09765625,0,0
-2.35949446505401E-05,1.14979548015981E-06,5.09765625,0,0
-2.24672439799178E-05,-9.74881913862191E-06,5.09765625,0,0
-2.20830515900161E-05,-4.68461894342909E-06,5.09765625,0,0
-2.19612702494487E-05,-9.43197574088117E-06,5.09765625,0,0
-2.46869585680543E-05,-1.56294536282076E-05,5.09765625,0,0
-2.54634069278836E-05,-1.24558473544312E-05,5.09765625,0,0
-2.73554505838547E-05,-1.23698109746329E-05,5.09765625,0,0
-2.5227092919522E-05,-2.73264449788257E-05,5.09765625,0,0
-2.5568866476533E-05,-3.95421920984518E-05,5.09765625,0,0
-2.47425832640147E-05,-4.17805495089851E-05,5.09765625,0,0
-2.60387314483523E-05,-3.25816472468432E-05,5.09765625,0,0
-2.46216950472444E-05,-2.40006847889163E-05,5.09765625,0,0
-2.48608339461498E-05,-1.98872749024304E-05,5.09765625,0,0
-2.39799428527476E-05,-1.93181658687536E-05,5.09765625,0,0
-2.42143032664899E-05,-1.21633338494576E-05,5.09765625,0,0
-2.3482833057642E-05,-4.24366317020031E-06,5.09765625,0,0
-2.34861490753246E-05,7.62823333388951E-07,5.09765625,0,0
-2.35604566114489E-05,5.05488878843607E-06,5.09765625,0,0
-2.37020285567269E-05,1.09474513010355E-05,5.09765625,0,0
-1.81266605068231E-05,1.84267137228744E-05,5.09765625,0,0
-2.38776738115121E-05,3.44879590556957E-05,5.09765625,0,0
-1.67089783644769E-05,2.83868266706122E-05,5.09765625,0,0
-2.28965054702712E-05,3.16928417305462E-05,5.09765625,0,0
-2.09395711863181E-05,3.53087743860669E-05,5.09765625,0,0
-2.58067393588135E-05,1.9211502149119E-05,5.09765625,0,0
-2.45897026616149E-05,7.74891395849409E-06,5.09765625,0,0
-2.47134612436639E-05,1.80066708708182E-05,5.09765625,0,0
-2.25843868975062E-05,1.32799541461281E-05,5.09765625,0,0
-2.14240990317194E-05,1.03186484921025E-05,5.09765625,0,0
-2.01648199436022E-05,1.61600019055186E-05,5.09765625,0,0
-1.80018632818246E-05,8.72126656759065E-06,5.09765625,0,0
-1.85580574907362E-05,2.36720825341763E-06,5.09765625,0,0
-1.85171466000611E-05,7.81799462856725E-06,5.09765625,0,0
-2.09182690014131E-05,6.52248309052084E-06,5.09765625,0,0
-2.08799701795215E-05,-9.23244988371152E-06,5.09765625,0,0
-2.16733824345283E-05,-1.95385273400461E-05,5.09765625,0,0
-1.94784406630788E-05,-1.93845953617711E-05,5.09765625,0,0
-2.00494469027035E-05,-1.33879966597306E-05,5.09765625,0,0
-2.03802956093568E-05,-1.05895142041845E-05,5.09765625,0,0
-2.21020090975799E-05,-8.05180025054142E-06,5.09765625,0,0
-2.12394079426304E-05,-7.06883974999073E-06,5.09765625,0,0
-2.19670746446354E-05,-9.84875441645272E-06,5.09765625,0,0
-2.30542573262937E-05,-1.48656799865421E-05,5.09765625,0,0
-2.30360419664066E-05,-1.34491101562162E-05,5.09765625,0,0
-2.11915776162641E-05,-4.70892473458662E-06,5.09765625,0,0
-1.9582677850849E-05,4.9863165259012E-06,5.09765625,0,0
-1.60888721438823E-05,7.50411663830164E-06,5.09765625,0,0
-2.37311814998975E-05,1.37847291625803E-05,5.09765625,0,0
-1.92701154446695E-05,9.41562029765919E-06,5.09765625,0,0
-2.33207938435953E-05,1.35158543344005E-05,5.09765625,0,0
-2.02515657292679E-05,2.40822864725487E-05,5.09765625,0,0
-2.30682671826798E-05,1.76651574292919E-05,5.09765625,0,0
-2.10050857276656E-05,1.23340414575068E-05,5.09765625,0,0
-1.98512097995263E-05,2.48567575908965E-05,5.09765625,0,0
-1.86441029654816E-05,2.48441647272557E-05,5.09765625,0,0
-1.95186676137382E-05,2.54081096500158E-05,5.09765625,0,0
-1.96423970919568E-05,3.48718094755895E-05,5.09765625,0,0
-1.78429472725838E-05,3.29546674038284E-05,5.09765625,0,0
-1.7192152881762E-05,2.88979426841252E-05,5.09765625,0,0
-1.63724398589693E-05,3.69343288184609E-05,5.09765625,0,0
-1.8722585082287E-05,4.15137874369975E-05,5.09765625,0,0
-1.92925035662483E-05,3.19920982292388E-05,5.09765625,0,0
-2.05187188839773E-05,2.26763004320674E-05,5.09765625,0,0
-1.96379551198334E-05,2.00335507543059E-05,5.09765625,0,0
-1.98524849110981E-05,2.13228704524226E-05,5.09765625,0,0
-1.94323238247307E-05,2.00012455024989E-05,5.09765625,0,0
-2.19710254896199E-05,1.50575897350791E-05,5.625,0,0
-2.3609864001628E-05,9.18500063562533E-06,5.625,0,0
-2.45480950979982E-05,7.2469110818929E-06,5.625,0,0
-2.34878243645653E-05,7.96299536887091E-06,5.625,0,0
-2.35258703469299E-05,4.49290428150562E-06,5.625,0,0
-2.39942837652052E-05,-6.94036680215504E-06,5.625,0,0
-2.42723708652193E-05,-1.55155375978211E-05,5.625,0,0
-1.98757861653576E-05,-1.11094641397358E-05,5.625,0,0
-2.89129638986196E-05,-7.89951900515007E-06,5.625,0,0
-2.27382133743959E-05,-4.9567152018426E-06,5.625,0,0
-2.74463272944558E-05,-7.64812375564361E-06,5.625,0,0
-2.36038376897341E-05,9.65074468695093E-06,5.625,0,0
-2.69242609647335E-05,-2.71396697826276E-06,5.625,0,0
-2.48334763455205E-05,-4.78995298180962E-06,5.625,0,0
-2.62681878666626E-05,1.23097170217079E-05,5.625,0,0
-2.63418805843685E-05,1.66066729434533E-05,5.625,0,0
-2.72104043688159E-05,1.92865372810047E-05,5.625,0,0
-2.78205170616275E-05,2.8795779144275E-05,5.625,0,0
-2.7448275432107E-05,2.75514212262351E-05,5.625,0,0
-2.78273964795517E-05,2.39376131503377E-05,5.625,0,0
-2.60946890193736E-05,3.35819822794292E-05,5.625,0,0
-2.63049878412858E-05,3.7278590752976E-05,5.625,0,0
-2.43775102717336E-05,3.25710097968113E-05,5.625,0,0
-2.41882025875384E-05,2.73059886239935E-05,5.625,0,0
-2.16318549064454E-05,2.93350676656701E-05,5.625,0,0
-2.14707415580051E-05,3.17706144414842E-05,5.625,0,0
-2.02864339371445E-05,3.88073385693133E-05,5.625,0,0
-2.19708472286584E-05,4.60363735328428E-05,5.625,0,0
-2.30966015806189E-05,4.8733676521806E-05,5.625,0,0
-2.53216421697289E-05,4.33182176493574E-05,5.625,0,0
-2.60773122136015E-05,3.21406259899959E-05,5.625,0,0
-2.59949956671335E-05,1.94649037439376E-05,5.625,0,0
-2.36634441534989E-05,1.45881494972855E-05,5.625,0,0
-2.21316549868789E-05,1.59941500896821E-05,5.625,0,0
-1.92150309885619E-05,1.58419497893192E-05,5.625,0,0
-2.85807764157653E-05,2.46983618126251E-05,5.625,0,0
-2.27255186473485E-05,1.33319754240802E-05,5.625,0,0
-2.73620989901247E-05,1.79362832568586E-05,5.625,0,0
-2.43141894316068E-05,2.25960975512862E-05,5.625,0,0
-2.69131633103825E-05,6.47173601464601E-06,5.625,0,0
-2.4071126972558E-05,-7.76758497522678E-06,5.625,0,0
-2.29473644139944E-05,1.00229749477876E-06,5.625,0,0
-2.14166411751648E-05,-3.5409416341281E-06,5.625,0,0
-2.36835621763021E-05,-5.2601221796067E-06,5.625,0,0
-2.74283884209581E-05,5.80242522119079E-06,5.625,0,0
-2.96411744784564E-05,6.44140482108924E-06,5.625,0,0
-3.08397284243256E-05,3.35789968630706E-06,5.625,0,0
-2.877032966353E-05,9.50890444073593E-06,5.625,0,0
-2.9145616281312E-05,1.41103719215607E-05,5.625,0,0
-2.86240319837816E-05,1.1221456588828E-05,5.625,0,0
-2.97661736112786E-05,1.45392805279698E-05,5.625,0,0
-2.84813413600205E-05,2.10797479667235E-05,5.625,0,0
-2.91833657684037E-05,2.46943891397677E-05,5.625,0,0
-2.83130539173726E-05,2.05545875360258E-05,5.625,0,0
-2.87685124931159E-05,1.78660448000301E-05,5.625,0,0
-2.86058093479369E-05,1.72254749486456E-05,5.625,0,0
-2.90748866973445E-05,1.72197287611198E-05,5.625,0,0
-2.77697927231202E-05,1.82790427061263E-05,5.625,0,0
-2.73309178737691E-05,1.96278106159298E-05,5.625,0,0
-2.78490697382949E-05,1.57781778398203E-05,5.625,0,0
-2.96187827188987E-05,1.48478666233132E-05,5.625,0,0
-2.45116225414677E-05,1.87967489182483E-05,5.625,0,0
-3.45642183674499E-05,3.32664676534478E-05,5.625,0,0
-2.55392951657996E-05,2.52327245107153E-05,5.625,0,0
-2.97312362818047E-05,2.87417587969685E-05,5.625,0,0
-2.12522081710631E-05,3.25337277899962E-05,5.625,0,0
-2.44925377046457E-05,1.79622966243187E-05,5.625,0,0
-2.47599855356384E-05,6.17107662037597E-06,5.625,0,0
-2.95270692731719E-05,1.44973519127234E-05,5.625,0,0
-3.13231648760848E-05,6.70423332849168E-06,5.625,0,0
