biceps_emg, triceps_emg, subject_position, position_estimate, brace_position
-2.544429662521E-05,1.16509081635741E-05,3.515625,0,0
-1.88189187610988E-05,6.01306737735285E-06,3.515625,0,0
-2.47369898715988E-05,5.96341897107777E-06,3.515625,0,0
-2.07958964892896E-05,5.15694455316407E-06,3.515625,0,0
-2.35540792346001E-05,8.01864553068299E-06,3.515625,0,0
-2.19963403651491E-05,6.76137506161467E-06,3.515625,0,0
-2.35388997680275E-05,4.33856484960415E-06,3.515625,0,0
-2.39940200117417E-05,2.80313906841911E-06,3.515625,0,0
-2.46391646214761E-05,3.77654214389622E-06,3.515625,0,0
-2.49695513048209E-05,5.00383430335205E-06,3.515625,0,0
-2.44251732510747E-05,4.56365341960918E-06,3.515625,0,0
-2.47194348048652E-05,4.21822278440231E-06,3.515625,0,0
-2.39181044889847E-05,3.94680728277308E-06,3.515625,0,0
-2.64614591287682E-05,4.60008095615194E-06,3.515625,0,0
-2.67633931798628E-05,3.75999161406071E-06,3.515625,0,0
-2.75971688097343E-05,4.18368608734454E-06,3.515625,0,0
-2.4909899366321E-05,5.21046240464784E-06,3.515625,0,0
-2.37056374317035E-05,7.53642643758212E-06,3.515625,0,0
-2.27958917093929E-05,8.810758117761E-06,3.515625,0,0
-2.52378449658863E-05,9.35998468776233E-06,3.515625,0,0
-2.47912303166231E-05,7.93815888755489E-06,3.515625,0,0
-2.28912140300963E-05,7.79215588408988E-06,3.515625,0,0
-1.88113117474131E-05,7.47842250348185E-06,3.515625,0,0
-1.57458580360981E-05,6.22207380729378E-06,3.515625,0,0
-1.46326383401174E-05,5.24109691468766E-06,3.515625,0,0
-1.49868919834262E-05,4.56327006759238E-06,3.515625,0,0
-1.32311788547668E-05,4.23474239141797E-06,3.515625,0,0
-1.8481599909137E-05,7.43115469958866E-06,3.515625,0,0
-1.44579835250624E-05,8.71064094098983E-06,3.515625,0,0
-2.03004037757637E-05,1.09502952909679E-05,3.515625,0,0
-2.00975919142365E-05,9.97695406113053E-06,3.515625,0,0
-2.26948868657928E-05,1.09085367512307E-05,3.515625,0,0
-2.19081030081725E-05,1.18898133223411E-05,3.515625,0,0
-2.31870781135513E-05,1.34499305204372E-05,3.515625,0,0
-2.28897424676688E-05,1.56798832904315E-05,3.515625,0,0
-2.31296999118058E-05,1.73429580172524E-05,3.515625,0,0
-2.4197950551752E-05,1.64607390615856E-05,3.515625,0,0
-2.47684347414179E-05,1.52523662109161E-05,3.515625,0,0
-2.52694171649637E-05,1.50583764479961E-05,3.515625,0,0
-2.42340938712005E-05,1.53997898451053E-05,3.515625,0,0
-2.49661370617105E-05,1.56800961121917E-05,3.515625,0,0
-2.36651339946548E-05,1.49326697282959E-05,3.515625,0,0
-2.31664653256303E-05,1.4120715604804E-05,3.515625,0,0
-2.15832842513919E-05,1.23160962175461E-05,3.515625,0,0
-2.24959512706846E-05,1.16326118586585E-05,3.515625,0,0
-2.31769299716689E-05,1.16080636871629E-05,3.515625,0,0
-2.32034326472785E-05,1.16245100798551E-05,3.515625,0,0
-2.07064986170735E-05,1.05263325167471E-05,3.515625,0,0
-2.00505965040065E-05,1.05198987512267E-05,3.515625,0,0
-2.01096409000456E-05,1.21131661217078E-05,3.515625,0,0
-2.02242063096492E-05,1.49756551763858E-05,3.515625,0,0
-1.94350577658042E-05,1.40372694659163E-05,3.515625,0,0
-1.87195091712056E-05,1.20458244055044E-05,3.515625,0,0
-1.60802592290565E-05,1.07316036519478E-05,3.515625,0,0
-2.50551747740246E-05,1.58370385179296E-05,3.515625,0,0
-2.24351788347121E-05,1.23929694382241E-05,3.515625,0,0
-2.70783948508324E-05,1.39080093504163E-05,3.515625,0,0
-2.40187200688524E-05,1.14081631181762E-05,3.515625,0,0
-2.62851553998189E-05,1.45140847962466E-05,3.515625,0,0
-2.45188348344527E-05,1.30114021885674E-05,3.515625,0,0
-2.47201132879127E-05,1.1526182788657E-05,3.515625,0,0
-2.24909035750898E-05,9.68206495599588E-06,3.515625,0,0
-2.00583544938127E-05,9.72466204984812E-06,3.515625,0,0
-1.95501415873878E-05,1.04886812550831E-05,3.515625,0,0
-2.06995955522871E-05,1.10108712760848E-05,3.515625,0,0
-2.25070598389721E-05,1.27237881315523E-05,3.515625,0,0
-2.15492364077363E-05,1.26523236758658E-05,3.515625,0,0
-2.2270978661254E-05,1.34638930830988E-05,3.515625,0,0
-2.2389845980797E-05,1.34896208692226E-05,3.515625,0,0
-2.50754401349695E-05,1.42432572829421E-05,3.515625,0,0
-2.62502653640695E-05,1.36431326609454E-05,3.515625,0,0
-2.82893342955504E-05,1.40083557198523E-05,3.515625,0,0
-2.76672872132622E-05,1.35296750158886E-05,3.515625,0,0
-2.67283794528339E-05,1.54147001012461E-05,3.515625,0,0
-2.49174263444729E-05,1.62023370648967E-05,3.515625,0,0
-2.5597493731766E-05,1.50559753819834E-05,3.515625,0,0
-2.64537393377395E-05,1.28585943457438E-05,3.515625,0,0
-2.75172587862471E-05,1.18567140816594E-05,3.515625,0,0
-2.75148813670967E-05,1.04367054518661E-05,3.515625,0,0
-2.67593095486518E-05,8.12688176665688E-06,3.515625,0,0
-2.08229303098051E-05,5.32636113348417E-06,3.515625,0,0
-2.8168409698992E-05,7.26750067769899E-06,3.515625,0,0
-1.93208561540814E-05,6.39891550235916E-06,3.515625,0,0
-2.47485968429828E-05,9.81116318143904E-06,3.515625,0,0
-2.05176693270914E-05,8.60978434502613E-06,3.515625,0,0
-2.38245575019391E-05,7.89716159488307E-06,3.515625,0,0
-2.24943723878823E-05,6.14781629337813E-06,3.515625,0,0
-2.4990615202114E-05,5.2902614697814E-06,3.515625,0,0
-2.48919423029292E-05,3.78029426428839E-06,3.515625,0,0
-2.39851833612192E-05,2.17334195440344E-06,3.515625,0,0
-2.34732451644959E-05,2.19978392124176E-06,3.515625,0,0
-2.28663884627167E-05,3.06988886222825E-06,3.515625,0,0
-2.38115208048839E-05,4.29817782787723E-06,3.515625,0,0
-2.27882101171417E-05,4.81576080346713E-06,3.515625,0,0
-2.37069616559893E-05,5.47224271940649E-06,3.515625,0,0
-2.20198453462217E-05,4.37334074376849E-06,3.515625,0,0
-2.30638725042809E-05,4.02544810640393E-06,3.515625,0,0
-2.29314118769253E-05,4.53604707217892E-06,3.515625,0,0
-2.4427676180494E-05,5.69582698517479E-06,3.515625,0,0
-2.21687550947536E-05,7.06797209204524E-06,3.515625,0,0
-2.13675393752055E-05,9.75597777141957E-06,3.515625,0,0
-2.10239995794836E-05,1.06159377537551E-05,3.515625,0,0
-2.24382874876028E-05,9.7527117759455E-06,3.515625,0,0
-2.31924204854295E-05,9.62884405453224E-06,3.515625,0,0
-2.50205575866858E-05,1.12401039586985E-05,3.515625,0,0
-2.5034865757334E-05,1.2516094102466E-05,3.515625,0,0
-2.47914904321078E-05,1.27819703266141E-05,3.515625,0,0
-2.11212991416687E-05,1.00681081676157E-05,3.515625,0,0
-3.02379939967068E-05,1.36694388856995E-05,3.515625,0,0
-2.14915144169936E-05,1.02062449514051E-05,3.515625,0,0
-2.41500620177248E-05,1.44345058288309E-05,3.515625,0,0
-1.94725926121464E-05,1.29236241264152E-05,3.515625,0,0
-2.3074317141436E-05,1.38853520184057E-05,3.515625,0,0
-2.09710524359252E-05,1.29899599414784E-05,3.515625,0,0
-2.20718775381101E-05,1.40743577503599E-05,3.515625,0,0
-2.27712753257947E-05,1.40260763146216E-05,3.515625,0,0
-2.49388249358162E-05,1.35311720441678E-05,3.515625,0,0
-2.61999848589767E-05,1.24636626424035E-05,3.515625,0,0
-2.5137420379906E-05,1.23988902487326E-05,3.515625,0,0
-2.54823935392778E-05,1.34225529109244E-05,3.515625,0,0
-2.50434331974247E-05,1.26106597235776E-05,3.515625,0,0
-2.72923844022444E-05,1.30102462208015E-05,3.515625,0,0
-2.72707075055223E-05,1.27464854813297E-05,3.515625,0,0
-2.90950010821689E-05,1.43157230922952E-05,3.515625,0,0
-2.75026595772943E-05,1.49305260492838E-05,3.515625,0,0
-2.76636765192961E-05,1.39945495902793E-05,3.515625,0,0
-2.74557060038205E-05,1.03631773527013E-05,3.515625,0,0
-2.97085116471862E-05,8.77161164680729E-06,3.515625,0,0
-2.99983566947049E-05,7.19775971447234E-06,3.515625,0,0
-3.00258961942745E-05,7.479859959858E-06,3.515625,0,0
-2.77104609267553E-05,8.71150314196711E-06,3.515625,0,0
-2.51700130320387E-05,8.96363962965552E-06,3.515625,0,0
-2.30683108384255E-05,6.65535571897635E-06,3.515625,0,0
-2.30384357564617E-05,3.75432409782661E-06,3.515625,0,0
-1.89384954865091E-05,3.29830186274194E-06,3.515625,0,0
-2.58320433204062E-05,7.63834759709425E-06,3.515625,0,0
-1.79763555934187E-05,9.22486651688814E-06,3.515625,0,0
-2.21887639781926E-05,7.52281221139128E-06,3.515625,0,0
-1.83477659447817E-05,4.36220898336614E-06,3.515625,0,0
-2.12621998798568E-05,4.33025843449286E-06,3.515625,0,0
-1.89385664270958E-05,4.88268642584444E-06,3.515625,0,0
-2.07898119697347E-05,6.6722568590194E-06,3.515625,0,0
-2.25546664296417E-05,9.12169525690842E-06,3.515625,0,0
-2.51299316005316E-05,9.98688301478978E-06,3.515625,0,0
-2.56526818702696E-05,9.99610165308695E-06,3.515625,0,0
-2.37961412494769E-05,1.15903476398671E-05,3.515625,0,0
-2.35826228163205E-05,1.44704590638867E-05,3.515625,0,0
-2.20003821596038E-05,1.5214462109725E-05,3.515625,0,0
-2.35274201259017E-05,1.37616425490705E-05,3.515625,0,0
-2.35374718613457E-05,1.1872116374434E-05,3.515625,0,0
-2.46629351750016E-05,1.1413149877626E-05,3.515625,0,0
-2.30399182328256E-05,1.14139411380165E-05,3.515625,0,0
-2.33058653975604E-05,1.07310434032115E-05,3.515625,0,0
-2.15920354094123E-05,9.00058785191504E-06,3.515625,0,0
-2.20913316297811E-05,8.68834013090236E-06,3.515625,0,0
-2.20477159018628E-05,9.89436739473604E-06,3.515625,0,0
-2.25062503886875E-05,1.0603223927319E-05,3.515625,0,0
-2.10822399822064E-05,1.0514603673073E-05,3.515625,0,0
-2.05568157980451E-05,1.01740279205842E-05,3.515625,0,0
-2.06995555345202E-05,9.00480426935246E-06,3.515625,0,0
-1.99699388758745E-05,8.05781837698305E-06,3.515625,0,0
-1.48599237945746E-05,7.61858336773003E-06,3.515625,0,0
-2.04161970032146E-05,1.21566454254207E-05,3.515625,0,0
-1.53937162394868E-05,1.16827604870196E-05,3.515625,0,0
-1.99855203391053E-05,1.53813052747864E-05,3.515625,0,0
-1.72206364368321E-05,1.34966667246772E-05,3.515625,0,0
-2.0366846001707E-05,1.22576775538619E-05,3.515625,0,0
-2.07718367164489E-05,1.13487494672881E-05,3.515625,0,0
-2.35115148825571E-05,1.3273525837576E-05,3.515625,0,0
-2.33682603720808E-05,1.44260320666945E-05,3.515625,0,0
-2.30639780056663E-05,1.44834211823763E-05,3.515625,0,0
-2.38862430705922E-05,1.3187308468332E-05,3.515625,0,0
-2.52853951678844E-05,1.25206297525438E-05,3.515625,0,0
-2.79138403129764E-05,1.28894071167451E-05,3.515625,0,0
-2.75997153948992E-05,1.07158266473562E-05,3.515625,0,0
-2.72442393907113E-05,8.24494418338872E-06,3.515625,0,0
-2.4559119992773E-05,6.40079770164448E-06,3.515625,0,0
-2.37899857893353E-05,8.18836088001262E-06,3.515625,0,0
-2.22881535592023E-05,1.1264713066339E-05,3.515625,0,0
-2.33603077504085E-05,1.48389690366457E-05,3.515625,0,0
-2.36892956309021E-05,1.60228810273111E-05,3.515625,0,0
-2.43192043853924E-05,1.61934221978299E-05,3.515625,0,0
-2.24633440666366E-05,1.63492550200317E-05,3.515625,0,0
-2.14456049434375E-05,1.77615111169871E-05,3.515625,0,0
-2.05618525797036E-05,1.85286371561233E-05,3.515625,0,0
-2.07170196517836E-05,1.86407141882228E-05,3.515625,0,0
-2.09494592127157E-05,1.7876907804748E-05,3.515625,0,0
-2.1269683202263E-05,1.5923706087051E-05,3.515625,0,0
-1.75685345311649E-05,1.17069230327616E-05,3.515625,0,0
-2.53524449362885E-05,1.71702740772162E-05,3.515625,0,0
-1.99837322725216E-05,1.28126775962301E-05,3.515625,0,0
-2.50567081820918E-05,1.37458537210478E-05,3.515625,0,0
-2.18192253669258E-05,1.14782860691776E-05,3.515625,0,0
-2.41566795011749E-05,1.58484363055322E-05,3.515625,0,0
-2.16453336179256E-05,1.49411125676124E-05,3.515625,0,0
-2.24171108129667E-05,1.22117235150654E-05,3.515625,0,0
-2.18821714952355E-05,8.53023811941966E-06,3.515625,0,0
-2.14277861232404E-05,8.51151526148897E-06,3.515625,0,0
-2.15544696402503E-05,1.0799751180457E-05,3.515625,0,0
-2.08132114494219E-05,1.22947249110439E-05,3.515625,0,0
-2.11615079024341E-05,1.25216147353058E-05,3.515625,0,0
-1.96011551452102E-05,1.05929029814433E-05,3.515625,0,0
-1.9754743334488E-05,1.09929560494493E-05,3.515625,0,0
-1.86836114153266E-05,1.09821776277386E-05,3.515625,0,0
-1.99548594537191E-05,1.21041684906231E-05,3.515625,0,0
-1.93812829820672E-05,1.12243251351174E-05,3.515625,0,0
-2.06166096177185E-05,1.10090923044481E-05,3.515625,0,0
-2.03919171326561E-05,1.09946668089833E-05,3.515625,0,0
-2.13751827686792E-05,1.28513520394336E-05,3.515625,0,0
-2.1626146917697E-05,1.30371454361011E-05,3.515625,0,0
-2.30013174586929E-05,1.30085272758151E-05,3.515625,0,0
-2.25543444685172E-05,1.24496746138902E-05,3.515625,0,0
-2.17357028304832E-05,1.30684038595064E-05,3.515625,0,0
-2.15720829146449E-05,1.36202170324395E-05,3.515625,0,0
-2.30181958613684E-05,1.38493523991201E-05,3.515625,0,0
-2.09672634809976E-05,9.9374892670312E-06,3.515625,0,0
-2.91406231553992E-05,1.16301325761015E-05,3.515625,0,0
-2.02458650164772E-05,6.50477204544586E-06,3.515625,0,0
-2.57381580013316E-05,1.03440697785118E-05,3.515625,0,0
-2.32319471251685E-05,8.42028930492233E-06,3.515625,0,0
-2.75201364274835E-05,9.95780919765821E-06,3.515625,0,0
-2.766320722003E-05,7.93250728747807E-06,3.515625,0,0
-3.06656802422367E-05,7.73583451518789E-06,3.515625,0,0
-2.91106680379016E-05,7.63111165724695E-06,3.515625,0,0
-2.7475261958898E-05,8.20461718831211E-06,3.515625,0,0
-2.74698759312741E-05,8.90082719706697E-06,3.515625,0,0
-2.68835410679458E-05,8.10553683550097E-06,3.515625,0,0
-2.69915944954846E-05,7.44334238333977E-06,3.515625,0,0
-2.4929484425229E-05,6.75750970913214E-06,3.515625,0,0
-2.58113850577502E-05,9.0567373263184E-06,3.515625,0,0
-2.49572658503894E-05,1.02991907624528E-05,3.515625,0,0
-2.66001079580747E-05,1.05485441963538E-05,3.515625,0,0
-2.59430235018954E-05,7.7952945503057E-06,3.515625,0,0
-2.65625003521563E-05,7.00394002706162E-06,3.515625,0,0
-2.49999084189767E-05,7.33345450498746E-06,3.515625,0,0
-2.56368330155965E-05,9.02673400560161E-06,3.515625,0,0
-2.4685708922334E-05,8.850257472659E-06,3.515625,0,0
-2.34586241276702E-05,8.76239391800482E-06,3.515625,0,0
-2.31978920055553E-05,9.97801180346869E-06,3.515625,0,0
-2.63763722614385E-05,1.27433022498735E-05,3.515625,0,0
-2.85288533632411E-05,1.30966063807136E-05,3.515625,0,0
-2.8496795493993E-05,1.08315771285561E-05,3.515625,0,0
-2.22022063098848E-05,5.45201874047052E-06,3.515625,0,0
-3.15334073093254E-05,7.34363993615261E-06,3.515625,0,0
-2.40495173784439E-05,6.59163561067544E-06,3.515625,0,0
-2.91871474473737E-05,9.26933353184722E-06,3.515625,0,0
-2.22386715904577E-05,8.65587298903847E-06,3.515625,0,0
-2.33557984756771E-05,1.12142352008959E-05,3.515625,0,0
-2.07921766559593E-05,1.01732148323208E-05,3.515625,0,0
-2.22312519326806E-05,9.11021925276145E-06,3.515625,0,0
-2.20500023715431E-05,8.52320772537496E-06,3.515625,0,0
-2.32543206948321E-05,8.98538473848021E-06,3.515625,0,0
-2.46571798925288E-05,9.59900535235647E-06,3.515625,0,0
-2.45718929363647E-05,9.50900630414253E-06,3.515625,0,0
-2.60249707935145E-05,9.59326735028299E-06,3.515625,0,0
-2.52411646215478E-05,9.17566467251163E-06,3.515625,0,0
-2.64193786279066E-05,1.01627938420279E-05,3.515625,0,0
-2.52320260187844E-05,1.02908725239104E-05,3.515625,0,0
-2.73291352641536E-05,1.09555821836693E-05,3.515625,0,0
-2.6928270017379E-05,1.1676095709845E-05,3.515625,0,0
-2.73433433903847E-05,1.36538428705535E-05,3.515625,0,0
-2.56928487942787E-05,1.43127781484509E-05,3.515625,0,0
-2.61157929344336E-05,1.36698681671987E-05,3.515625,0,0
-2.50356242759153E-05,1.195683307742E-05,3.515625,0,0
-2.52063346124487E-05,1.19330143206753E-05,3.515625,0,0
-2.46496329054935E-05,1.36019943965948E-05,3.515625,0,0
-2.44459242821904E-05,1.70896637428086E-05,3.515625,0,0
-2.38732536672615E-05,1.98903107957449E-05,3.515625,0,0
-2.24183095269836E-05,1.92898405657616E-05,3.515625,0,0
-1.62267842824804E-05,1.33144785650074E-05,3.515625,0,0
-2.39259879890596E-05,1.78105965460418E-05,3.515625,0,0
-2.0172941731289E-05,1.29588124764268E-05,3.515625,0,0
-2.39132077695103E-05,1.65643123182235E-05,3.515625,0,0
-1.94924541574437E-05,1.19123706099344E-05,3.515625,0,0
-2.286345079483E-05,1.35893415063038E-05,3.515625,0,0
-2.25100411626045E-05,1.2960916137672E-05,3.515625,0,0
-2.43813647102797E-05,1.42134722409537E-05,3.515625,0,0
-2.57905030593975E-05,1.3107971426507E-05,3.515625,0,0
-2.79765317827696E-05,1.24241760204313E-05,3.515625,0,0
-2.88905048364541E-05,1.21416360343574E-05,3.515625,0,0
-2.74310677923495E-05,1.12621100925026E-05,3.515625,0,0
-2.64323571173009E-05,1.10105693238438E-05,3.515625,0,0
-2.47956631937996E-05,9.73538226389792E-06,3.515625,0,0
-2.51863111770945E-05,1.01629111668444E-05,3.515625,0,0
-2.42732257902389E-05,9.54250572249293E-06,3.515625,0,0
-2.59507050941465E-05,1.14194572233828E-05,3.515625,0,0
-2.57188330579083E-05,1.15286993604968E-05,3.515625,0,0
-2.73338173428783E-05,1.17973377200542E-05,3.515625,0,0
-2.87082530121552E-05,1.08954209281364E-05,3.515625,0,0
-3.10152208840009E-05,1.24504431369132E-05,3.515625,0,0
-3.08036760543473E-05,1.28358042275067E-05,3.515625,0,0
-3.09432616631966E-05,1.31203696582816E-05,3.515625,0,0
-2.99161765724421E-05,1.2779887583747E-05,3.515625,0,0
-2.92106851702556E-05,1.29897116494249E-05,3.515625,0,0
-2.81260527117411E-05,1.25678425320075E-05,3.515625,0,0
-2.76215523626888E-05,1.22767387438216E-05,3.515625,0,0
-2.13618459383724E-05,9.13817621039925E-06,3.515625,0,0
-2.85545065707993E-05,1.29501850096858E-05,3.515625,0,0
-1.92045135918306E-05,1.1794129932241E-05,3.515625,0,0
-2.58242598647485E-05,1.4751662092749E-05,3.515625,0,0
-2.27452237595571E-05,1.00917877716711E-05,3.515625,0,0
-2.49535423790803E-05,9.82180245046038E-06,3.515625,0,0
-2.0684152332251E-05,8.49255502544111E-06,3.515625,0,0
-2.08402907446725E-05,9.32185957935872E-06,3.515625,0,0
-1.97551926248707E-05,9.94511901808437E-06,3.515625,0,0
-1.97494482563343E-05,1.05850704130717E-05,3.515625,0,0
-1.90965929505182E-05,1.11818681034492E-05,3.515625,0,0
-1.713686833682E-05,1.28158626466757E-05,3.515625,0,0
-1.71565952769015E-05,1.44456080306554E-05,3.515625,0,0
-1.51422509588883E-05,1.27431931105093E-05,3.515625,0,0
-1.56897040142212E-05,1.13324913399993E-05,3.515625,0,0
-1.5130730389501E-05,9.15857344807591E-06,3.515625,0,0
-1.7063102859538E-05,8.86298857949441E-06,3.515625,0,0
-1.54683057189686E-05,8.58433850225993E-06,3.515625,0,0
-1.57123122335179E-05,9.43698523769854E-06,3.515625,0,0
-1.46207430589129E-05,8.02913200459443E-06,3.515625,0,0
-1.58426446432713E-05,7.7452268669731E-06,3.515625,0,0
-1.55973939399701E-05,8.9528075477574E-06,3.515625,0,0
-1.67082926054718E-05,1.09284428617684E-05,3.515625,0,0
-1.72163599927444E-05,1.07868299892289E-05,3.515625,0,0
-1.95279135368764E-05,9.87379462458193E-06,3.515625,0,0
-2.20801994146314E-05,8.25299048301531E-06,3.515625,0,0
-2.21797126869205E-05,6.09402968620998E-06,3.515625,0,0
-1.71785068232566E-05,3.69690951629309E-06,3.515625,0,0
-2.42268724832684E-05,5.33611546416068E-06,3.515625,0,0
-1.84172749868594E-05,4.44544866695651E-06,3.515625,0,0
-2.17427950701676E-05,4.85835971630877E-06,3.515625,0,0
-1.69479189935373E-05,3.55101656168699E-06,3.515625,0,0
-1.97116169147193E-05,4.45805471827043E-06,3.515625,0,0
-1.85643730219454E-05,5.08491621076246E-06,3.515625,0,0
-1.99772021005629E-05,6.5795620685094E-06,3.515625,0,0
-1.9213557607145E-05,6.86584598952322E-06,3.515625,0,0
-1.84959644684568E-05,5.85152292842395E-06,3.515625,0,0
-1.85915978363482E-05,5.11477583131636E-06,3.515625,0,0
-1.87231198651716E-05,6.30657859801431E-06,3.515625,0,0
-2.01081620616606E-05,8.17613454273669E-06,3.515625,0,0
-1.97258686966961E-05,8.83628399606096E-06,3.515625,0,0
-2.11543647310464E-05,9.20650199986994E-06,3.515625,0,0
-2.05471460503759E-05,8.79504295880906E-06,3.515625,0,0
-2.20099864236545E-05,9.27474502532277E-06,3.515625,0,0
-2.20780675590504E-05,9.74967406364158E-06,3.515625,0,0
-2.3649363356526E-05,1.02389039966511E-05,3.515625,0,0
-2.28848202823428E-05,9.44256953516742E-06,3.515625,0,0
-2.26436168304645E-05,7.88696070230799E-06,3.515625,0,0
-2.12930590350879E-05,5.6170115385612E-06,3.515625,0,0
-2.27193413593341E-05,4.8858978516364E-06,3.515625,0,0
-2.45738283410901E-05,5.57875046069967E-06,3.515625,0,0
-2.6293300834368E-05,5.95002120462595E-06,3.515625,0,0
-2.59505759458989E-05,5.75938156543998E-06,3.515625,0,0
-2.54295046033803E-05,6.99401107340236E-06,3.515625,0,0
-2.19246303458931E-05,7.21437027095817E-06,3.515625,0,0
-3.31231785821728E-05,1.14411041067797E-05,3.515625,0,0
-2.75001184490975E-05,1.01663608802482E-05,3.515625,0,0
-3.23897620546632E-05,1.21436569315847E-05,3.515625,0,0
-2.61760033026803E-05,1.08523036033148E-05,3.515625,0,0
-2.8037880838383E-05,1.15888915388496E-05,3.515625,0,0
-2.71914032055065E-05,1.04703140095808E-05,3.515625,0,0
-2.957489414257E-05,1.09071170300012E-05,3.515625,0,0
-2.91816795652267E-05,1.08914782686043E-05,3.515625,0,0
-2.99797193292761E-05,1.01328960226965E-05,3.515625,0,0
-3.03692049783422E-05,9.35910884436453E-06,3.515625,0,0
-2.90729221887887E-05,1.08957938209642E-05,3.515625,0,0
-2.94450219371356E-05,1.4500253200822E-05,3.515625,0,0
-2.93181783490581E-05,1.50846690303297E-05,3.515625,0,0
-3.2421787182102E-05,1.40255515361787E-05,3.515625,0,0
-3.17609046760481E-05,1.25554706755793E-05,3.515625,0,0
-3.14559547405224E-05,1.35064465212054E-05,3.515625,0,0
-2.89120089291828E-05,1.40721913339803E-05,3.515625,0,0
-2.93958546535578E-05,1.42560220410815E-05,3.515625,0,0
-2.89588679152075E-05,1.34190131575451E-05,3.515625,0,0
-2.98125723929843E-05,1.32268178276718E-05,3.515625,0,0
-2.76718656095909E-05,1.24482094179257E-05,3.515625,0,0
-2.57330939348321E-05,1.21282109830645E-05,3.515625,0,0
-2.40759036387317E-05,1.27345874716411E-05,3.515625,0,0
-2.59087355516385E-05,1.37702709253062E-05,3.515625,0,0
-2.81500633718679E-05,1.27741832329775E-05,3.515625,0,0
-2.81966331385775E-05,1.15311868285062E-05,3.515625,0,0
-2.12487393582705E-05,1.07536270661512E-05,3.515625,0,0
-2.88640148937702E-05,1.52874945342774E-05,3.515625,0,0
-2.02225364773767E-05,1.19068872663775E-05,3.515625,0,0
-2.53265588980867E-05,1.56053210957907E-05,3.515625,0,0
-2.02715564228129E-05,1.4459216799878E-05,3.515625,0,0
-2.41771231230814E-05,1.61865154950647E-05,3.515625,0,0
-2.39870150835486E-05,1.5082207028172E-05,3.515625,0,0
-2.56438252108637E-05,1.64962639246369E-05,3.515625,0,0
-2.39140463236254E-05,1.64703851623926E-05,3.515625,0,0
-2.39601122302702E-05,1.55532125063473E-05,3.515625,0,0
-2.5402561732335E-05,1.48750659718644E-05,3.515625,0,0
-2.57018600677839E-05,1.50555615618941E-05,3.515625,0,0
-2.67764171439921E-05,1.68177466548514E-05,3.515625,0,0
-2.55506547546247E-05,1.58620805450482E-05,3.515625,0,0
-2.70064811047632E-05,1.32978620968061E-05,3.515625,0,0
-2.70085438387468E-05,9.26233678910648E-06,3.515625,0,0
-2.87934726657113E-05,8.66296977619641E-06,3.515625,0,0
-2.64133559539914E-05,9.41743383009452E-06,3.515625,0,0
-2.60102642641868E-05,1.1429005098762E-05,3.515625,0,0
-2.46110557782231E-05,1.18805292004254E-05,3.515625,0,0
-2.52776280831313E-05,1.40147349156905E-05,3.515625,0,0
-2.44316142925527E-05,1.45156036523986E-05,3.515625,0,0
-2.48324486165075E-05,1.35392056108685E-05,3.515625,0,0
-2.42592741415137E-05,1.32275117721292E-05,3.515625,0,0
-2.34530052694026E-05,1.47052924148738E-05,3.515625,0,0
-2.23209935938939E-05,1.45592730405042E-05,3.515625,0,0
-2.1982330508763E-05,1.26772929434082E-05,3.515625,0,0
-1.84025811904576E-05,9.40825339057483E-06,3.515625,0,0
-2.62321209447691E-05,1.49172183228075E-05,3.515625,0,0
-2.01263810595265E-05,1.24795633382746E-05,3.515625,0,0
-2.46660947595956E-05,1.15381217256072E-05,3.515625,0,0
-2.12568520510104E-05,5.45695456821704E-06,3.515625,0,0
-2.43872582359472E-05,5.89921137361671E-06,3.515625,0,0
-2.1956191631034E-05,5.64400033908896E-06,3.515625,0,0
-2.18481054616859E-05,6.04524393565953E-06,3.515625,0,0
-2.04297139134724E-05,6.46073249299661E-06,3.515625,0,0
-2.09549398277886E-05,5.73334364162292E-06,3.515625,0,0
-2.31505637202645E-05,4.15547128795879E-06,3.515625,0,0
-2.35002116824035E-05,3.01919226330938E-06,3.515625,0,0
-2.34808157983935E-05,3.08387279801536E-06,3.515625,0,0
-2.12816466955701E-05,2.30365321840509E-06,3.515625,0,0
-2.14972933463287E-05,2.47253115048807E-06,3.515625,0,0
-2.04653279070044E-05,9.20825641514966E-07,3.515625,0,0
-2.13666753552388E-05,-3.50781078850559E-07,3.515625,0,0
-2.01482416741783E-05,-1.17309673441923E-06,3.515625,0,0
-2.0847324776696E-05,8.52067614687257E-07,3.515625,0,0
-2.00397553271614E-05,2.58180534729036E-06,3.515625,0,0
-2.08419914997648E-05,3.6651349546446E-06,3.515625,0,0
-2.00969079742208E-05,3.20877825288335E-06,3.515625,0,0
-2.02713745238725E-05,3.21351399179548E-06,3.515625,0,0
-1.98497709789081E-05,2.60433535004267E-06,3.515625,0,0
-1.97389417735394E-05,2.05355559046438E-06,3.515625,0,0
-1.97969711734913E-05,1.69648046721704E-06,3.515625,0,0
-2.05195865419228E-05,1.64767914156982E-06,3.515625,0,0
-1.77129404619336E-05,2.05075434678292E-06,3.515625,0,0
-2.60632041317876E-05,2.63108540821122E-06,3.515625,0,0
-2.15364452742506E-05,1.8391478988633E-06,3.515625,0,0
-2.59230946539901E-05,1.83837460099312E-06,3.515625,0,0
-2.11156257137191E-05,5.88242585308763E-07,3.515625,0,0
-2.26765969273401E-05,9.26101279219438E-07,3.515625,0,0
-2.09978788916487E-05,9.75129296421073E-07,3.515625,0,0
-2.30680852837395E-05,1.03425225006504E-06,3.515625,0,0
-2.28591379709542E-05,2.33344803746149E-06,3.515625,0,0
-2.29269080591621E-05,4.03132389692473E-06,3.515625,0,0
-2.2877311494085E-05,2.93401717499364E-06,3.515625,0,0
-2.22889448195929E-05,2.28972726290522E-06,3.515625,0,0
-2.38935826928355E-05,4.5959045564814E-06,3.515625,0,0
-2.36592386499979E-05,7.5292859946785E-06,3.515625,0,0
-2.43764952756464E-05,9.31841714191251E-06,3.515625,0,0
-2.21496266021859E-05,8.88367321749683E-06,3.515625,0,0
-2.21597547351848E-05,7.02634861227125E-06,3.515625,0,0
-2.13872172025731E-05,4.58692329630139E-06,3.515625,0,0
-2.28833578148624E-05,4.64147569800843E-06,3.515625,0,0
-2.26566044148058E-05,6.78297465128708E-06,3.515625,0,0
-2.35721054195892E-05,8.98220514500281E-06,3.515625,0,0
-2.34962299145991E-05,1.03489628600073E-05,3.515625,0,0
-2.42323749262141E-05,1.11681838461664E-05,3.515625,0,0
-2.24684245040407E-05,1.02280109786079E-05,3.515625,0,0
-2.0303623387008E-05,9.59545468504075E-06,3.515625,0,0
-1.94048425328219E-05,9.66322386375396E-06,3.515625,0,0
-1.91853250726126E-05,1.11208964881371E-05,3.515625,0,0
-1.58129969349829E-05,9.91978049569298E-06,3.515625,0,0
-2.40063545788871E-05,1.3093082998239E-05,3.515625,0,0
-2.1062842279207E-05,8.71593329065945E-06,3.515625,0,0
-2.60136966971913E-05,1.2922901987622E-05,3.515625,0,0
-2.2090804122854E-05,1.31900324049639E-05,3.515625,0,0
-2.44613984250464E-05,1.57590184244327E-05,3.515625,0,0
-2.5074667064473E-05,1.43229062814498E-05,3.515625,0,0
-2.72248253168073E-05,1.42065955515136E-05,3.515625,0,0
-2.61358563875547E-05,1.35832397063496E-05,3.515625,0,0
-2.4540431695641E-05,1.36471517180325E-05,3.515625,0,0
-2.48932010435965E-05,1.38110590341967E-05,3.515625,0,0
-2.61398636212107E-05,1.36380922413082E-05,3.515625,0,0
-2.80333460977999E-05,1.37408651426085E-05,3.515625,0,0
-2.73328641924309E-05,1.1775993698393E-05,3.515625,0,0
-2.81312422885094E-05,1.1443762559793E-05,3.515625,0,0
-2.76153386948863E-05,1.13121423055418E-05,3.515625,0,0
-2.85383121081395E-05,1.27208968478953E-05,3.515625,0,0
-2.77813342108857E-05,1.27633102238178E-05,3.515625,0,0
-2.77140097750816E-05,1.34736956169945E-05,3.515625,0,0
-2.5717745302245E-05,1.29929949252983E-05,3.515625,0,0
-2.46576892095618E-05,1.37474917210056E-05,3.515625,0,0
-2.27695036301157E-05,1.6044192307163E-05,3.515625,0,0
-2.24199629883515E-05,1.87310542969499E-05,3.515625,0,0
-2.193052569055E-05,1.72153831954347E-05,3.515625,0,0
-2.21616246562917E-05,1.51920494317892E-05,3.515625,0,0
-2.35405477724271E-05,1.61971875058953E-05,3.515625,0,0
-2.53736980084796E-05,1.93048927030759E-05,3.515625,0,0
-2.04132520593703E-05,1.72798027051613E-05,3.515625,0,0
-2.83793960988987E-05,2.45869268837851E-05,3.515625,0,0
-2.14120245800586E-05,1.87212172022555E-05,3.515625,0,0
-2.69327701971633E-05,2.283819958393E-05,3.515625,0,0
-2.28952449106146E-05,1.83734991878737E-05,3.515625,0,0
-2.56570601777639E-05,2.04378738999367E-05,3.515625,0,0
-2.14021056308411E-05,1.8185388398706E-05,3.515625,0,0
-2.1714782633353E-05,1.92723582586041E-05,3.515625,0,0
-2.21278442040784E-05,1.98352263396373E-05,3.515625,0,0
-2.45756109507056E-05,2.03407507797237E-05,3.515625,0,0
-2.67924988293089E-05,2.05897540581645E-05,3.515625,0,0
-2.7584172130446E-05,2.04956741072237E-05,3.515625,0,0
-2.82365108432714E-05,2.14692554436624E-05,3.515625,0,0
-2.61887125816429E-05,2.03945346584078E-05,3.515625,0,0
-2.72129927907372E-05,2.072264214803E-05,3.515625,0,0
-2.68873936875025E-05,1.85826702363556E-05,3.515625,0,0
-2.90322714135982E-05,1.89037746167742E-05,3.515625,0,0
-2.78554689430166E-05,1.91793205885915E-05,3.515625,0,0
-2.83457193290815E-05,2.1032205040683E-05,3.515625,0,0
-2.77170656772796E-05,1.99020178115461E-05,3.515625,0,0
-2.89158342638984E-05,1.89376260095742E-05,3.515625,0,0
-2.65433664026205E-05,1.65010460477788E-05,3.515625,0,0
-2.38834199990379E-05,1.61080479301745E-05,3.515625,0,0
-2.1504010874196E-05,1.53639484778978E-05,3.515625,0,0
-2.18588447751245E-05,1.35424297695863E-05,3.515625,0,0
-2.28511598834302E-05,1.18266889330698E-05,3.515625,0,0
-2.42538171733031E-05,1.19469914352521E-05,3.515625,0,0
-1.93501145986374E-05,8.8809347289498E-06,3.515625,0,0
-2.68047697318252E-05,1.22854007713613E-05,3.515625,0,0
-2.00053345906781E-05,9.4864199127187E-06,3.515625,0,0
-2.5790293875616E-05,1.29562822621665E-05,3.515625,0,0
-2.15548352571204E-05,1.21854200187954E-05,3.515625,0,0
-2.3198634153232E-05,1.41804966915515E-05,3.515625,0,0
-2.03049876290606E-05,1.4085180737311E-05,3.515625,0,0
-2.11128790397197E-05,1.498799338151E-05,3.515625,0,0
-2.03156832867535E-05,1.49961279021227E-05,3.515625,0,0
-1.94819804164581E-05,1.51517006088397E-05,3.515625,0,0
-1.80625029315706E-05,1.47105365613243E-05,3.515625,0,0
-1.57357208081521E-05,1.25076358017395E-05,3.515625,0,0
-1.56774349306943E-05,1.00226843642304E-05,3.515625,0,0
-1.43535226015956E-05,5.9626640904753E-06,3.515625,0,0
-1.56379082909552E-05,3.87746786145726E-06,3.515625,0,0
-1.53565179061843E-05,3.0563830932806E-06,3.515625,0,0
-1.74522374436492E-05,3.64092738891486E-06,3.515625,0,0
-1.8125190763385E-05,2.59151511272648E-06,3.515625,0,0
-2.10589605558198E-05,1.92035372492683E-06,3.515625,0,0
-2.14881056308514E-05,1.33106777866487E-06,3.515625,0,0
-2.22967537411023E-05,3.10662403535389E-06,3.515625,0,0
-2.1083897081553E-05,5.04410127177835E-06,3.515625,0,0
-2.10937887459295E-05,5.76622369408142E-06,3.515625,0,0
-2.05776741495356E-05,4.30115733252023E-06,3.515625,0,0
-2.08521723834565E-05,4.15508520745789E-06,3.515625,0,0
-2.25383937504375E-05,4.79682739751297E-06,3.515625,0,0
-2.50995180977043E-05,3.86347983294399E-06,3.515625,0,0
-2.17899505514652E-05,2.4724076865823E-06,3.515625,0,0
-3.1349958589999E-05,3.85649855161319E-06,3.515625,0,0
-2.41782126977341E-05,4.26016777055338E-06,3.515625,0,0
-3.01796335406834E-05,6.09397420703317E-06,3.515625,0,0
-2.59733369603055E-05,6.24098765911185E-06,3.515625,0,0
-2.84836078208173E-05,7.25226072972873E-06,3.515625,0,0
-2.5955967430491E-05,6.29942451269017E-06,3.515625,0,0
-2.73451187240426E-05,4.46403191745048E-06,3.515625,0,0
-2.68904823315097E-05,3.48381036019418E-06,3.515625,0,0
-2.59205207839841E-05,3.49447191183572E-06,3.515625,0,0
-2.49597469519358E-05,4.8100528147188E-06,3.515625,0,0
-2.3712567781331E-05,6.14361852058209E-06,3.515625,0,0
-2.42344485741341E-05,6.94684786139987E-06,3.515625,0,0
-2.35522165894508E-05,6.67836002321565E-06,3.515625,0,0
-2.62195189861814E-05,6.60719933875953E-06,3.515625,0,0
-2.7475762180984E-05,5.82320399189484E-06,3.515625,0,0
-3.03284305118723E-05,4.42645250586793E-06,3.515625,0,0
-2.89900599454995E-05,3.78949926016503E-06,3.515625,0,0
-2.86313079413958E-05,4.59196826341213E-06,3.515625,0,0
-2.72376801149221E-05,4.58637123301742E-06,3.515625,0,0
-2.78684419754427E-05,3.89684055335238E-06,3.515625,0,0
-2.61719596892362E-05,4.3434606595838E-06,3.515625,0,0
-2.53043326665647E-05,5.86322857998312E-06,3.515625,0,0
-2.44202528847381E-05,7.19576019037049E-06,3.515625,0,0
-2.43992217292544E-05,8.1869620771613E-06,3.515625,0,0
-2.30507212108932E-05,9.64274840953294E-06,3.515625,0,0
-2.23056013055611E-05,1.17376366688404E-05,3.515625,0,0
-1.79918170033488E-05,8.82838503457606E-06,3.515625,0,0
-2.56554503721418E-05,1.02336116469814E-05,3.515625,0,0
-1.95522061403608E-05,4.98972349305404E-06,3.515625,0,0
-2.30825226026354E-05,7.68255722505273E-06,3.515625,0,0
-1.90914142876863E-05,7.07598201188375E-06,3.515625,0,0
-2.21323170990217E-05,1.18265807032003E-05,3.515625,0,0
-2.06219210667768E-05,1.21186158139608E-05,3.515625,0,0
-2.18461464100983E-05,1.14184476842638E-05,3.515625,0,0
-2.10996349778725E-05,1.06585930552683E-05,3.515625,0,0
-2.16883945540758E-05,1.20099439300247E-05,3.515625,0,0
-2.12255781661952E-05,1.36910630317288E-05,3.515625,0,0
-2.0116169253015E-05,1.52062957567978E-05,3.515625,0,0
-2.24597733904375E-05,1.75054319697665E-05,3.515625,0,0
-2.37327203649329E-05,1.76534977072151E-05,3.515625,0,0
-2.49965414695907E-05,1.84738419193309E-05,3.515625,0,0
-2.29985143960221E-05,1.80170627572807E-05,3.515625,0,0
-2.47165862674592E-05,1.79464695975184E-05,3.515625,0,0
-2.64867503574351E-05,1.6299132767017E-05,3.515625,0,0
-2.92694203380961E-05,1.70903113030363E-05,3.515625,0,0
-2.79501709883334E-05,1.79119415406603E-05,3.515625,0,0
-2.66346542048268E-05,1.78052196133649E-05,3.515625,0,0
-2.45085702772485E-05,1.60689014592208E-05,3.515625,0,0
-2.4990020392579E-05,1.40662350531784E-05,3.515625,0,0
-2.38809079746716E-05,1.140523909271E-05,3.515625,0,0
-2.28410808631452E-05,9.77722538664239E-06,3.515625,0,0
-2.32497095566941E-05,8.18303396954434E-06,3.515625,0,0
-2.45475621341029E-05,8.07802916824585E-06,3.515625,0,0
-2.05657615879318E-05,6.68174880047445E-06,3.515625,0,0
-2.90810621663695E-05,8.42005374579458E-06,3.515625,0,0
-2.25948588195024E-05,4.19107300331234E-06,3.515625,0,0
-2.74662343144882E-05,3.70267093785515E-06,3.515625,0,0
-2.06061376957223E-05,7.71777024510811E-07,3.515625,0,0
-2.15362051676493E-05,2.1677276436094E-06,3.515625,0,0
-1.788467852748E-05,2.015911604758E-06,3.515625,0,0
-1.73728767549619E-05,2.37441440731345E-06,3.515625,0,0
-1.66631762112956E-05,2.14040073842625E-06,3.515625,0,0
-1.80162496690173E-05,1.96437849808717E-06,3.515625,0,0
-1.88845642696833E-05,2.10053121918463E-06,3.515625,0,0
-1.807696025935E-05,3.76269213120395E-06,3.515625,0,0
-1.8248498236062E-05,7.043328423606E-06,3.515625,0,0
-1.64339726325125E-05,8.23241043690359E-06,3.515625,0,0
-1.84141063073184E-05,9.25816675589886E-06,3.515625,0,0
-1.93731648323592E-05,1.00791248769383E-05,3.515625,0,0
-2.12047834793339E-05,1.22666824609041E-05,3.515625,0,0
-1.91484523384133E-05,1.2851786777901E-05,3.515625,0,0
-1.94395925063873E-05,1.21732709885691E-05,3.515625,0,0
-1.91896779142553E-05,1.01851428553346E-05,3.515625,0,0
-2.12607756111538E-05,1.02746053016745E-05,3.515625,0,0
-2.12907707464183E-05,1.08074318632134E-05,3.515625,0,0
-2.1635238226736E-05,1.07351752376417E-05,3.515625,0,0
-2.15001982724061E-05,9.38523498916766E-06,3.515625,0,0
-2.23862116399687E-05,9.06668719835579E-06,3.515625,0,0
-2.22555117943557E-05,9.16597582545364E-06,3.515625,0,0
-2.14376777876168E-05,1.01588429970434E-05,3.515625,0,0
-1.6497468095622E-05,1.15637012640946E-05,3.515625,0,0
-2.36555151786888E-05,1.88234062079573E-05,3.515625,0,0
-1.92618954315549E-05,1.6472095012432E-05,3.515625,0,0
-2.47307762037963E-05,1.80887964233989E-05,3.515625,0,0
-2.16039352380903E-05,1.48334793266258E-05,3.515625,0,0
-2.34190792980371E-05,1.72455056599574E-05,3.515625,0,0
-2.24058185267495E-05,1.81384457391687E-05,3.515625,0,0
-2.62067424046109E-05,1.93725754797924E-05,3.515625,0,0
-2.83359950117301E-05,1.92565476027085E-05,3.515625,0,0
-2.91703508992214E-05,1.92452680494171E-05,3.515625,0,0
-2.84300404018722E-05,1.97835470316932E-05,3.515625,0,0
-2.7526719350135E-05,1.94720378203783E-05,3.515625,0,0
-2.89858016913058E-05,1.92125917237718E-05,3.515625,0,0
-2.88712235487765E-05,1.83878692041617E-05,3.515625,0,0
-3.04336717817932E-05,1.92177922144765E-05,3.515625,0,0
-2.97819296974922E-05,1.93722935364349E-05,3.515625,0,0
-2.99582843581447E-05,2.00578579097055E-05,3.515625,0,0
-2.72552442766028E-05,1.87031018867856E-05,3.515625,0,0
-2.628191941767E-05,1.76135599758709E-05,3.515625,0,0
-2.56051098403987E-05,1.61495736392681E-05,3.515625,0,0
-2.77013423328754E-05,1.59987012011698E-05,3.515625,0,0
-2.88471746898722E-05,1.50616515384172E-05,3.515625,0,0
-2.93780085485196E-05,1.47959217429161E-05,3.515625,0,0
-2.73286896117497E-05,1.47321670738165E-05,3.515625,0,0
-2.60181477642618E-05,1.46356733239372E-05,3.515625,0,0
-2.70745968009578E-05,1.46344927998143E-05,3.515625,0,0
-3.06689726130571E-05,1.53024102473864E-05,3.515625,0,0
-2.64024365606019E-05,1.29406507767271E-05,3.515625,0,0
-3.74206974811386E-05,1.7323249267065E-05,3.515625,0,0
-2.84118923445931E-05,1.18620273497072E-05,3.515625,0,0
-3.62039136234671E-05,1.56519090523943E-05,3.515625,0,0
-3.06321235257201E-05,1.38899058583775E-05,3.515625,0,0
-3.23550739267375E-05,1.75752775248839E-05,3.515625,0,0
-2.80369076790521E-05,1.78294303623261E-05,3.515625,0,0
-2.88722058030544E-05,1.80784372787457E-05,3.515625,0,0
-2.7306166884955E-05,1.62649866979336E-05,3.515625,0,0
-2.7087417038274E-05,1.46951142596663E-05,3.515625,0,0
-2.72649722319329E-05,1.34506481117569E-05,3.515625,0,0
-2.63384099525865E-05,1.27521443573642E-05,3.515625,0,0
-2.73477526206989E-05,1.31186425278429E-05,3.515625,0,0
-2.47373227466596E-05,1.13369633254479E-05,3.515625,0,0
-2.38659722526791E-05,1.2079804946552E-05,3.515625,0,0
-2.08694946195465E-05,1.37123734020861E-05,3.515625,0,0
-2.2746498871129E-05,1.67824673553696E-05,3.515625,0,0
-2.24221803364344E-05,1.59443534357706E-05,3.515625,0,0
-2.38251650443999E-05,1.46569336720859E-05,3.515625,0,0
-2.25095373025397E-05,1.32443292386597E-05,3.515625,0,0
-2.31923513638321E-05,1.44320247272844E-05,3.515625,0,0
-2.17278793570586E-05,1.4072683370614E-05,3.515625,0,0
-2.23371771426173E-05,1.31017468447681E-05,3.515625,0,0
-2.3933327611303E-05,1.15927077786182E-05,3.515625,0,0
-2.65536364167929E-05,1.16114279080648E-05,3.515625,0,0
-2.62493940681452E-05,1.21221683002659E-05,3.515625,0,0
-2.41419184021652E-05,1.11388344521401E-05,3.515625,0,0
-1.85431108548073E-05,7.23496259524836E-06,3.515625,0,0
-2.74760277534369E-05,1.05018552858382E-05,3.515625,0,0
-2.29389097512467E-05,8.72041255206568E-06,3.515625,0,0
-2.71411063295091E-05,1.07703408502857E-05,3.515625,0,0
-2.13143957807915E-05,9.95404934656108E-06,3.515625,0,0
-2.33271694014547E-05,1.34742504087626E-05,3.515625,0,0
-2.25359672185732E-05,1.4558023394784E-05,3.515625,0,0
-2.45076425926527E-05,1.4916179679858E-05,3.515625,0,0
-2.44040074903751E-05,1.37812376124202E-05,3.515625,0,0
-2.47040752583416E-05,1.24372163554654E-05,3.515625,0,0
-2.51556339208037E-05,1.0544051292527E-05,3.515625,0,0
-2.49116783379577E-05,7.56434383220039E-06,3.515625,0,0
-2.60175766015891E-05,5.1169977268728E-06,3.515625,0,0
-2.44250513787847E-05,1.93261757885921E-06,3.515625,0,0
-2.38948814512696E-05,1.02633134702046E-06,3.515625,0,0
-2.29602301260456E-05,1.08998256109771E-06,3.515625,0,0
-2.56785333476728E-05,1.57320255311788E-06,3.515625,0,0
-2.53387661359739E-05,-5.98733322476619E-07,3.515625,0,0
-2.48230389843229E-05,-2.74456442639348E-06,3.515625,0,0
-2.25124658754794E-05,-3.47436753145303E-06,3.515625,0,0
-2.24318046093686E-05,-1.98908514903451E-06,3.515625,0,0
-2.19359226321103E-05,-2.6724029567049E-07,3.515625,0,0
-2.30355381063418E-05,1.45934711781592E-06,3.515625,0,0
-2.28567096201004E-05,1.37320967041887E-06,3.515625,0,0
-2.31603135034675E-05,2.32572892855387E-06,3.515625,0,0
-2.38478896790184E-05,4.4829184844275E-06,3.515625,0,0
-2.423613841529E-05,5.74803789277212E-06,3.515625,0,0
-2.02872724912595E-05,5.86413671044284E-06,3.515625,0,0
-2.83051649603294E-05,8.57372924656374E-06,3.515625,0,0
-2.05833275686018E-05,6.6079560383514E-06,3.515625,0,0
-2.51996098086238E-05,7.14394809619989E-06,3.515625,0,0
-1.92187089851359E-05,5.16343015988241E-06,3.515625,0,0
-2.14745268749539E-05,7.11461689206772E-06,3.515625,0,0
-2.07863304240163E-05,6.78683954902226E-06,3.515625,0,0
-2.21245227294276E-05,4.76365494250786E-06,3.515625,0,0
-2.13948515010998E-05,3.23089875564619E-06,3.515625,0,0
-2.14304218388861E-05,3.3612011520745E-06,3.515625,0,0
-2.09252721106168E-05,3.44321665579628E-06,3.515625,0,0
-1.95199136214796E-05,2.80217477666156E-06,3.515625,0,0
-2.01768616534537E-05,3.60950775757374E-06,3.515625,0,0
-1.95701140910387E-05,4.89214971821639E-06,3.515625,0,0
-2.13450930459658E-05,7.13063582225004E-06,3.515625,0,0
-2.04508105525747E-05,8.41071869217558E-06,3.515625,0,0
-2.110644345521E-05,9.24699543247698E-06,3.515625,0,0
-2.00548765860731E-05,8.74614397616824E-06,3.515625,0,0
-2.11102142202435E-05,9.32860166358296E-06,3.515625,0,0
-2.08358687814325E-05,1.06356183096068E-05,3.515625,0,0
-2.29198885790538E-05,1.15805605673813E-05,3.515625,0,0
-2.35229144891491E-05,1.02968406281434E-05,3.515625,0,0
-2.41926645685453E-05,8.67931703396607E-06,3.515625,0,0
-2.23055412789108E-05,7.23334414942656E-06,3.515625,0,0
-1.98864163394319E-05,5.89913588555646E-06,3.515625,0,0
-1.83692445716588E-05,5.84084682486719E-06,3.515625,0,0
-2.01245256903348E-05,7.67407163948519E-06,3.515625,0,0
-1.83989850484068E-05,6.94319942340371E-06,3.515625,0,0
-2.55779887083918E-05,9.60701345320558E-06,3.515625,0,0
-1.73972530319588E-05,8.15148541732924E-06,3.515625,0,0
-2.12795384868514E-05,1.08161757452763E-05,3.515625,0,0
-1.79894523171242E-05,7.78690173319774E-06,3.515625,0,0
-1.8818753233063E-05,6.64462459099013E-06,3.515625,0,0
-1.52295770021738E-05,4.83065105072455E-06,3.515625,0,0
-1.64371558639687E-05,5.94429320699419E-06,3.515625,0,0
-1.71272331499495E-05,6.96856568538351E-06,3.515625,0,0
-1.8321763491258E-05,8.01027454144787E-06,3.515625,0,0
-1.840309232648E-05,8.75388195709093E-06,3.515625,0,0
-1.70399562193779E-05,8.83872144186171E-06,3.515625,0,0
-1.78262125700712E-05,9.92330933513585E-06,3.515625,0,0
-1.81268187589012E-05,1.08726653706981E-05,3.515625,0,0
-2.05416436074302E-05,1.18794441732462E-05,3.515625,0,0
-2.08238725463161E-05,1.11431827463093E-05,3.515625,0,0
-2.28430253628176E-05,1.13496444100747E-05,3.515625,0,0
-2.26673546421807E-05,1.14472813947941E-05,3.515625,0,0
-2.33361843129387E-05,1.21069906526827E-05,3.515625,0,0
-2.18819350266131E-05,1.17514200610458E-05,3.515625,0,0
-2.25769963435596E-05,1.24117950690561E-05,3.515625,0,0
-2.20276433537947E-05,1.33765297505306E-05,3.515625,0,0
-2.21840400627116E-05,1.42165081342682E-05,3.515625,0,0
-2.26727752306033E-05,1.46256779771647E-05,3.515625,0,0
-2.39525106735528E-05,1.6518977645319E-05,3.515625,0,0
-2.44671682594344E-05,1.66992776939878E-05,3.515625,0,0
-2.55389750236645E-05,1.43011784530245E-05,3.515625,0,0
-2.08322653634241E-05,9.12393625185359E-06,3.515625,0,0
-2.96066755254287E-05,1.29651316456147E-05,3.515625,0,0
-2.15540694625815E-05,1.02603016784997E-05,3.515625,0,0
-2.5242923584301E-05,1.29897052829619E-05,3.515625,0,0
-1.98045272554737E-05,1.10978207885637E-05,3.515625,0,0
-2.30934383580461E-05,1.20554268505657E-05,3.515625,0,0
-2.24988798436243E-05,1.03782931546448E-05,3.515625,0,0
-2.54548012890155E-05,1.02819558378542E-05,3.515625,0,0
-2.53031685133465E-05,1.00860142993042E-05,3.515625,0,0
-2.46617692027939E-05,1.06259303720435E-05,3.515625,0,0
-2.50492557825055E-05,1.12294073915109E-05,3.515625,0,0
-2.4777644284768E-05,1.26993545563892E-05,3.515625,0,0
-2.51452656812035E-05,1.40507954711211E-05,3.515625,0,0
-2.30181503866334E-05,1.34611382236471E-05,3.515625,0,0
-2.43154991039773E-05,1.51659723997E-05,3.515625,0,0
-2.44459988607559E-05,1.75193199538626E-05,3.515625,0,0
-2.61502664216096E-05,1.99835249077296E-05,3.515625,0,0
-2.52872723649489E-05,1.96367200260283E-05,3.515625,0,0
-2.68227922788356E-05,1.84753043868113E-05,3.515625,0,0
-2.60461529251188E-05,1.54396730067674E-05,3.515625,0,0
-2.58813124673907E-05,1.39282574309618E-05,3.515625,0,0
-2.52498484769603E-05,1.21943912745337E-05,3.515625,0,0
-2.65472153841984E-05,1.21275106721441E-05,3.515625,0,0
-2.58389736700337E-05,1.29466661746847E-05,3.515625,0,0
-2.47215175477322E-05,1.32084951474098E-05,3.515625,0,0
-2.49366821662989E-05,1.17252948257374E-05,3.515625,0,0
-2.65137659880565E-05,1.08519516288652E-05,3.515625,0,0
-2.13772691495251E-05,8.57811210153159E-06,3.515625,0,0
-2.84070665657055E-05,9.29546149563976E-06,3.515625,0,0
-1.99155001610052E-05,3.5789123558061E-06,3.515625,0,0
-2.74648100457853E-05,6.24323638476199E-06,3.515625,0,0
-2.49690856435336E-05,5.33226602783543E-06,3.515625,0,0
-2.91359192488017E-05,7.46242085369886E-06,3.515625,0,0
-2.64238278759876E-05,5.81285121370456E-06,3.515625,0,0
-2.6862933736993E-05,5.63852063351078E-06,3.515625,0,0
-2.54340720857726E-05,5.51386528968578E-06,3.515625,0,0
-2.44285201915773E-05,5.50046843272867E-06,3.515625,0,0
-2.3811368009774E-05,4.59809007224976E-06,3.515625,0,0
-2.37366839428432E-05,4.63663764094235E-06,3.515625,0,0
-2.66040042333771E-05,6.52248718324699E-06,3.515625,0,0
-2.71931367024081E-05,6.70825738779968E-06,3.515625,0,0
-2.84494399238611E-05,8.00316865934292E-06,3.515625,0,0
-2.57155788858654E-05,7.85756310506258E-06,3.515625,0,0
-2.54263140959665E-05,8.18615626485553E-06,3.515625,0,0
-2.34741910389857E-05,7.60998045734596E-06,3.515625,0,0
-2.39008204516722E-05,9.12950417841785E-06,3.515625,0,0
-2.27138589252718E-05,1.01816995083936E-05,3.515625,0,0
-2.32525362662273E-05,1.18740226753289E-05,3.515625,0,0
-2.24264258577023E-05,1.24265970953275E-05,3.515625,0,0
-2.36279411183205E-05,1.27627235997352E-05,3.515625,0,0
-2.37694766838104E-05,1.29583913803799E-05,3.515625,0,0
-2.39150922425324E-05,1.41694190460839E-05,3.515625,0,0
-2.30000514420681E-05,1.43269289765158E-05,3.515625,0,0
-2.23431397898821E-05,1.36011221911758E-05,3.515625,0,0
-1.95010470633861E-05,1.13044079625979E-05,3.515625,0,0
-2.92173917841865E-05,1.52672964759404E-05,3.515625,0,0
-2.46805375354597E-05,1.03435495475424E-05,3.515625,0,0
-2.86879621853586E-05,1.33211915454012E-05,3.515625,0,0
-2.13928360608406E-05,1.01040677691344E-05,3.515625,0,0
-2.10024518310092E-05,1.06351280919625E-05,3.515625,0,0
-1.92900643014582E-05,9.85809583653463E-06,3.515625,0,0
-2.18194254557602E-05,1.15409975478542E-05,3.515625,0,0
-2.08800229302142E-05,1.30942562464043E-05,3.515625,0,0
-1.98291181732202E-05,1.32709965328104E-05,3.515625,0,0
-1.89926849998301E-05,1.12850966615952E-05,3.515625,0,0
-1.77661568159238E-05,9.4186016212916E-06,3.515625,0,0
-1.89432521437993E-05,1.08276781247696E-05,3.515625,0,0
-1.91232174984179E-05,1.25162023323355E-05,3.515625,0,0
-2.10939906537533E-05,1.52011825775844E-05,3.515625,0,0
-2.03783238248434E-05,1.52020147652365E-05,3.515625,0,0
-2.11762398976134E-05,1.45045705721714E-05,3.515625,0,0
-1.97388071683235E-05,1.2801976481569E-05,3.515625,0,0
-2.01485254365252E-05,1.37621163958102E-05,3.515625,0,0
-1.90140126505867E-05,1.38209270517109E-05,3.515625,0,0
-2.15384825423826E-05,1.31931192299817E-05,3.515625,0,0
-2.45991050178418E-05,1.24096868603374E-05,3.515625,0,0
-2.65874114120379E-05,1.30198104670853E-05,3.515625,0,0
-2.54385249718325E-05,1.23673589769169E-05,3.515625,0,0
-2.63878573605325E-05,1.14397444122005E-05,3.515625,0,0
-2.81919619737891E-05,1.10717619463685E-05,3.515625,0,0
-2.80198637483409E-05,1.26913264466566E-05,3.515625,0,0
-2.09692680073204E-05,1.18559046313749E-05,3.515625,0,0
-3.00635419989703E-05,1.5771176549606E-05,3.515625,0,0
-2.41066700255033E-05,9.54662300500786E-06,3.515625,0,0
-3.08111411868595E-05,1.18755888252053E-05,3.515625,0,0
-2.67342547886074E-05,1.08108615677338E-05,3.515625,0,0
-2.9921080567874E-05,1.46267875607009E-05,3.515625,0,0
-2.80967524304288E-05,1.44762088893913E-05,3.515625,0,0
-2.94150177069241E-05,1.53248674905626E-05,3.515625,0,0
-2.89728304778691E-05,1.55508241732605E-05,3.515625,0,0
-3.01603686239105E-05,1.46983475133311E-05,3.515625,0,0
-3.15122779284138E-05,1.39465619213297E-05,3.515625,0,0
-3.09955648845062E-05,1.46271804624121E-05,3.515625,0,0
-3.17837693728507E-05,1.65996771102073E-05,3.515625,0,0
-3.17623162118252E-05,1.65531746461056E-05,3.515625,0,0
-3.41830273100641E-05,1.73978678503772E-05,3.515625,0,0
-3.25745859299786E-05,1.64207649504533E-05,3.515625,0,0
-3.22143132507335E-05,1.53065830090782E-05,3.515625,0,0
-3.02273565466749E-05,1.26476898003602E-05,3.515625,0,0
-3.13431046379264E-05,1.2193112524983E-05,3.515625,0,0
-3.11092953779735E-05,1.14348749775672E-05,3.515625,0,0
-3.27972411469091E-05,1.10918554128148E-05,3.515625,0,0
-3.34997494064737E-05,1.01948389783502E-05,3.515625,0,0
-3.32214731315617E-05,9.98941413854482E-06,3.515625,0,0
-2.91903688776074E-05,7.49301898395061E-06,3.515625,0,0
-2.66113838733872E-05,5.24716915606405E-06,3.515625,0,0
-2.65354901785031E-05,4.423794507602E-06,3.515625,0,0
-2.73581717920024E-05,4.44030092694447E-06,3.515625,0,0
-2.09749177884078E-05,5.33762931809179E-06,3.515625,0,0
-2.80843341897707E-05,8.56977476360044E-06,3.515625,0,0
-1.87201094377087E-05,7.56205690777279E-06,3.515625,0,0
-2.40551944443723E-05,8.46272178023355E-06,3.515625,0,0
-2.03310955839697E-05,8.3151062426623E-06,3.515625,0,0
-2.47655407292768E-05,1.04525952338008E-05,3.515625,0,0
-2.45532173721585E-05,1.00190882221796E-05,3.515625,0,0
-2.66444276348921E-05,9.90869557426777E-06,3.515625,0,0
-2.55038539762609E-05,1.09076909211581E-05,3.515625,0,0
-2.434211455693E-05,1.1493850252009E-05,3.515625,0,0
-2.28477401833516E-05,1.10202772702905E-05,3.515625,0,0
-2.08336132345721E-05,1.12908746814355E-05,3.515625,0,0
-2.12335544347297E-05,1.29183863464277E-05,3.515625,0,0
-2.00899849005509E-05,1.26515096781077E-05,3.515625,0,0
-2.1623167413054E-05,1.13515652628848E-05,3.515625,0,0
-2.11649839911843E-05,9.53969811234856E-06,3.515625,0,0
-2.20040146814426E-05,9.15372856979957E-06,3.515625,0,0
-1.95552547666011E-05,9.13377880351618E-06,3.515625,0,0
-1.99617970793042E-05,9.74605609371793E-06,3.515625,0,0
-1.97081517399056E-05,1.00355500762817E-05,3.515625,0,0
-2.14539904845878E-05,9.86335726338439E-06,3.515625,0,0
-2.1792640836793E-05,8.41359087644378E-06,3.515625,0,0
-2.16910302697215E-05,8.2198439486092E-06,3.515625,0,0
-1.92017214430962E-05,8.18128864921164E-06,3.515625,0,0
-1.8586273654364E-05,6.77937123327865E-06,3.515625,0,0
-1.88622016139561E-05,6.37922266832902E-06,3.515625,0,0
-1.88542635441991E-05,6.81453093420714E-06,3.515625,0,0
-1.51427075252286E-05,4.22573475589161E-06,3.515625,0,0
-2.14497194974683E-05,4.67962490802165E-06,3.515625,0,0
-1.57684189616703E-05,2.28731414608774E-06,3.515625,0,0
-2.00134982151212E-05,3.74591945728753E-06,3.515625,0,0
-1.82279000000563E-05,4.73645195597783E-06,3.515625,0,0
-2.05037686100695E-05,8.30068893264979E-06,3.515625,0,0
-1.87587593245553E-05,7.40388304620865E-06,3.515625,0,0
-2.01142411242472E-05,6.63869604977663E-06,3.515625,0,0
-2.14624415093567E-05,7.258709956659E-06,3.515625,0,0
-2.30152072617784E-05,8.62975684867706E-06,3.515625,0,0
-2.40544104599394E-05,9.23703191801906E-06,3.515625,0,0
-2.37129843299044E-05,8.616542800155E-06,3.515625,0,0
-2.45007176999934E-05,8.75231398822507E-06,3.515625,0,0
-2.43838057940593E-05,9.31929116632091E-06,3.515625,0,0
-2.59229818766471E-05,1.1028640983568E-05,3.515625,0,0
-2.50938319368288E-05,1.17436429718509E-05,3.515625,0,0
-2.50849043368362E-05,1.16344563139137E-05,3.515625,0,0
-2.45947849180084E-05,1.04423997981939E-05,3.515625,0,0
-2.72699817287503E-05,1.05390354292467E-05,3.515625,0,0
-2.8749735065503E-05,1.05660674307728E-05,3.515625,0,0
-2.94737565127434E-05,1.13461865112185E-05,3.515625,0,0
-2.86093199974857E-05,1.30225616885582E-05,3.515625,0,0
-2.97024416795466E-05,1.51903232108452E-05,3.515625,0,0
-2.97186870739097E-05,1.44103260026895E-05,3.515625,0,0
-2.84398665826302E-05,1.12215575427399E-05,3.515625,0,0
-2.73824298346881E-05,8.04826231615152E-06,3.515625,0,0
-2.70125838142121E-05,5.96320887780166E-06,3.515625,0,0
-2.19079593080096E-05,3.6750459457835E-06,3.515625,0,0
-3.07727241306566E-05,4.83224903291557E-06,3.515625,0,0
-2.17705019167624E-05,4.67248855784419E-06,3.515625,0,0
-2.55847789958352E-05,7.97567372501362E-06,3.515625,0,0
-1.91599938261788E-05,9.00599025044357E-06,3.515625,0,0
-2.02319115487626E-05,1.18524585559499E-05,3.515625,0,0
-1.62736141646747E-05,1.30357757370803E-05,3.515625,0,0
-1.74555389094166E-05,1.310158859269E-05,3.515625,0,0
-1.75806344486773E-05,1.19020296551753E-05,3.515625,0,0
-1.76752018887782E-05,1.16652763608727E-05,3.515625,0,0
-1.76385437953286E-05,1.24069938465254E-05,3.515625,0,0
-1.71844603755744E-05,1.39215944727766E-05,3.515625,0,0
-1.94883432413917E-05,1.57485883391928E-05,3.515625,0,0
-1.95397024072008E-05,1.56642727233702E-05,3.515625,0,0
-2.09705867746379E-05,1.47873533933307E-05,3.515625,0,0
-2.03058079932816E-05,1.36986882353085E-05,3.515625,0,0
-2.28502776735695E-05,1.33842122522765E-05,3.515625,0,0
-2.35254519793671E-05,1.25741862575524E-05,3.515625,0,0
-2.53892776527209E-05,1.33110152091831E-05,3.515625,0,0
-2.34880699281348E-05,1.45766825880855E-05,3.515625,0,0
-2.25147232413292E-05,1.49481011249009E-05,3.515625,0,0
-2.18124660023022E-05,1.3045172636339E-05,3.515625,0,0
-2.46419585891999E-05,1.14450795081211E-05,3.515625,0,0
-2.62806970567908E-05,1.09294633148238E-05,3.515625,0,0
-2.52595782512799E-05,1.09990760392975E-05,3.515625,0,0
-2.23292663577013E-05,9.1278898253222E-06,3.515625,0,0
-2.15217041841242E-05,6.46881062493776E-06,3.515625,0,0
-1.86725319508696E-05,5.58113060833421E-06,3.515625,0,0
-2.59634471149184E-05,1.06971338027506E-05,3.515625,0,0
-1.88329868251458E-05,1.15719403765979E-05,3.515625,0,0
-2.37064723478397E-05,1.0751737136161E-05,3.515625,0,0
-2.03454201255227E-05,7.85915108281188E-06,3.515625,0,0
-2.42170335695846E-05,1.02076683106134E-05,3.515625,0,0
-2.42591650021495E-05,1.18676898637204E-05,3.515625,0,0
-2.58325508184498E-05,1.29425307022757E-05,3.515625,0,0
-2.45093815465225E-05,1.22746414490393E-05,3.515625,0,0
-2.3785494704498E-05,1.1803886081907E-05,3.515625,0,0
-2.39984310610453E-05,1.19639453259879E-05,3.515625,0,0
-2.33961163758067E-05,1.27570738186478E-05,3.515625,0,0
-2.36468367802445E-05,1.36153685161844E-05,3.515625,0,0
-2.28837907343404E-05,1.33238336275099E-05,3.515625,0,0
-2.54799397225725E-05,1.30760463434854E-05,3.515625,0,0
-2.54913738899631E-05,1.22329392979736E-05,3.515625,0,0
-2.62947978626471E-05,1.28877700262819E-05,3.515625,0,0
-2.532060170779E-05,1.38138984766556E-05,3.515625,0,0
-2.77211001957767E-05,1.41384871312766E-05,3.515625,0,0
-2.89446143142413E-05,1.16196151793702E-05,3.515625,0,0
-2.96697035082616E-05,9.0960356828873E-06,3.515625,0,0
-2.8091051717638E-05,8.61452645040117E-06,3.515625,0,0
-2.81286138488213E-05,9.95369464362739E-06,3.515625,0,0
-2.813474748109E-05,9.96110611595213E-06,3.515625,0,0
-2.82592536677839E-05,8.30580665933667E-06,3.515625,0,0
-2.84257876046468E-05,6.05965306021972E-06,3.515625,0,0
-2.7687317924574E-05,6.60441583022475E-06,3.515625,0,0
-2.05708420253359E-05,7.21721653462737E-06,3.515625,0,0
-2.90777043119306E-05,9.33230512600858E-06,3.515625,0,0
-2.25965959543828E-05,5.60024773221812E-06,3.515625,0,0
-2.8680846298812E-05,8.32622845337028E-06,3.515625,0,0
-2.41001325775869E-05,9.30368423723849E-06,3.515625,0,0
-2.63225392700406E-05,1.2255271030881E-05,3.515625,0,0
-2.34642247960437E-05,1.18007492346806E-05,3.515625,0,0
-2.36072410189081E-05,1.11016506707529E-05,3.515625,0,0
-2.24487575906096E-05,1.02125395642361E-05,3.515625,0,0
-2.24412760871928E-05,1.07819560071221E-05,3.515625,0,0
-2.20228976104409E-05,1.06689394669957E-05,3.515625,0,0
-2.11742244573543E-05,8.41939345264109E-06,3.515625,0,0
-2.28389635594795E-05,7.39252300263615E-06,3.515625,0,0
-2.2522299332195E-05,8.01440000941511E-06,3.515625,0,0
-2.3930253519211E-05,1.04005512184813E-05,3.515625,0,0
-2.36292162298923E-05,1.07835039671045E-05,3.515625,0,0
-2.60184351645876E-05,1.02511885415879E-05,3.515625,0,0
-2.57062456512358E-05,7.65267031965777E-06,3.515625,0,0
-2.68202911684057E-05,4.45953583039227E-06,3.515625,0,0
-2.55772883974714E-05,8.56323083553434E-07,3.515625,0,0
-2.48949781962438E-05,4.07296965931891E-07,3.515625,0,0
-2.26702704821946E-05,2.00983140530298E-06,3.515625,0,0
-2.32661004702095E-05,3.8500152186316E-06,3.515625,0,0
-2.38458615058335E-05,4.18660192735842E-06,3.515625,0,0
-2.44193961407291E-05,3.93249138141982E-06,3.515625,0,0
-2.43122995016165E-05,3.01493355436833E-06,3.515625,0,0
-2.43140111706452E-05,2.55822760664159E-06,3.515625,0,0
-1.83882984856609E-05,2.06474373953824E-06,3.515625,0,0
-2.55920094787143E-05,2.6170598630415E-06,3.515625,0,0
-1.96584951481782E-05,3.4979784686584E-06,3.515625,0,0
-2.4571190806455E-05,6.70669851388084E-06,3.515625,0,0
-2.02816827368224E-05,7.00186637914157E-06,3.515625,0,0
-2.27807413466508E-05,6.53757160762325E-06,3.515625,0,0
-2.00173471966991E-05,6.63099945086287E-06,3.515625,0,0
-2.08021174330497E-05,9.32361217564903E-06,3.515625,0,0
-1.98409052245552E-05,1.09712636913173E-05,3.515625,0,0
-1.93879150174325E-05,1.06464358395897E-05,3.515625,0,0
-1.81177656486398E-05,1.04420851130271E-05,3.515625,0,0
-1.64136399689596E-05,1.15039474621881E-05,3.515625,0,0
-1.78379104909254E-05,1.4493733033305E-05,3.515625,0,0
-1.82034327735892E-05,1.78076206793776E-05,3.515625,0,0
-1.98361394723179E-05,1.92296120076207E-05,3.515625,0,0
-1.83393276529387E-05,1.74045035237214E-05,3.515625,0,0
-1.84153850568691E-05,1.56358491949504E-05,3.515625,0,0
-1.70565908774734E-05,1.59798019012669E-05,3.515625,0,0
-1.87903278856538E-05,1.84761738637462E-05,3.515625,0,0
-1.87137011380401E-05,1.9350622096681E-05,3.515625,0,0
-1.9314584278618E-05,1.68417209351901E-05,3.515625,0,0
-1.79973958438495E-05,1.35416921693832E-05,3.515625,0,0
-1.81816740223439E-05,1.2891993719677E-05,3.515625,0,0
-1.86910219781566E-05,1.3530747310142E-05,3.515625,0,0
-1.91534654732095E-05,1.39639332701336E-05,3.515625,0,0
-1.74019169207895E-05,1.39040412250324E-05,3.515625,0,0
-1.64076082000975E-05,1.3794867300021E-05,3.515625,0,0
-1.45979611261282E-05,9.51007132243831E-06,3.515625,0,0
-2.17266115214443E-05,1.30426706164144E-05,3.515625,0,0
-1.70871699083364E-05,1.00427687357296E-05,3.515625,0,0
-1.99471378437011E-05,1.26664144772803E-05,3.515625,0,0
-1.67882499226835E-05,9.40906375035411E-06,3.515625,0,0
-1.82233488885686E-05,1.10275796032511E-05,3.515625,0,0
-1.63317436090438E-05,1.12724055725266E-05,3.515625,0,0
-1.73655535036232E-05,1.26755721794325E-05,3.515625,0,0
-1.80261540663196E-05,1.23718045870191E-05,3.515625,0,0
-1.875237103377E-05,1.19730693768361E-05,3.515625,0,0
-1.96050987142371E-05,1.08507374534383E-05,3.515625,0,0
-1.9849450836773E-05,1.00800361906295E-05,3.515625,0,0
-2.17448559851618E-05,1.0000559996115E-05,3.515625,0,0
-2.25950589083368E-05,8.97571680980036E-06,3.515625,0,0
-2.44563088926952E-05,9.63960701483302E-06,3.515625,0,0
-2.38303964579245E-05,9.15489727049135E-06,3.515625,0,0
-2.39958953898167E-05,1.01414279924938E-05,3.515625,0,0
-2.34086037380621E-05,1.11622193799121E-05,3.515625,0,0
-2.45913270191522E-05,1.29625186673366E-05,3.515625,0,0
-2.39964920183411E-05,1.26820568766561E-05,3.515625,0,0
-2.42035621340619E-05,1.27257435451611E-05,3.515625,0,0
-2.4228624170064E-05,1.21089551612386E-05,3.515625,0,0
-2.43423673964571E-05,1.13787327791215E-05,3.515625,0,0
-2.29736942856107E-05,9.730911187944E-06,3.515625,0,0
-2.28167991735972E-05,9.4979604909895E-06,3.515625,0,0
-2.41733669099631E-05,1.03435695564258E-05,3.515625,0,0
-2.53328616963699E-05,1.16247401820146E-05,3.515625,0,0
-2.02788833121303E-05,8.04577121016337E-06,3.515625,0,0
-2.87098846456502E-05,9.1692882051575E-06,3.515625,0,0
-2.19036064663669E-05,4.456549504539E-06,3.515625,0,0
-2.83725348708685E-05,7.37221353119821E-06,3.515625,0,0
-2.61122950178105E-05,7.25006020729779E-06,3.515625,0,0
-3.03873530356213E-05,1.03554557426833E-05,3.515625,0,0
-2.81354750768514E-05,9.28667486732593E-06,3.515625,0,0
-2.89055842586095E-05,9.21805531106656E-06,3.515625,0,0
-2.8412374376785E-05,9.55272662395146E-06,3.515625,0,0
-2.84557518170914E-05,1.0216199370916E-05,3.515625,0,0
-2.89417785097612E-05,1.07242804006091E-05,3.515625,0,0
-2.92545664706267E-05,1.03774773378973E-05,3.515625,0,0
-3.09043716697488E-05,1.0498498340894E-05,3.515625,0,0
-3.03364686260466E-05,1.03676438811817E-05,3.515625,0,0
-3.16639307129662E-05,1.24663029055228E-05,3.515625,0,0
-3.03624819935067E-05,1.27529692690587E-05,3.515625,0,0
-3.08366907120217E-05,1.26928325698827E-05,3.515625,0,0
-2.9634808015544E-05,1.22207875392633E-05,3.515625,0,0
-3.08232229144778E-05,1.28328510982101E-05,3.515625,0,0
-2.99506518786075E-05,1.05627768789418E-05,3.515625,0,0
-3.06289475702215E-05,8.23843311081873E-06,3.515625,0,0
-3.03260549117113E-05,7.31823593014269E-06,3.515625,0,0
-3.1288422178477E-05,8.32222303870367E-06,3.515625,0,0
-3.12392294290476E-05,9.22282561077736E-06,3.515625,0,0
-3.15312718157656E-05,9.51195488596568E-06,3.515625,0,0
-3.04469795082696E-05,7.76257547840942E-06,3.515625,0,0
-2.90924836008344E-05,5.13421719006146E-06,3.515625,0,0
-2.1916759578744E-05,3.41454983754375E-06,3.515625,0,0
-2.93184893962462E-05,5.61726164960419E-06,3.515625,0,0
-2.15757700061658E-05,6.10625193075975E-06,3.515625,0,0
-2.84609341179021E-05,7.36738365958445E-06,3.515625,0,0
-2.33353748626541E-05,6.7480259531294E-06,3.515625,0,0
-2.59239041042747E-05,7.96084532339592E-06,3.515625,0,0
-2.17551732930588E-05,7.53031372369151E-06,3.515625,0,0
-2.27498258027481E-05,6.39422387394006E-06,3.515625,0,0
-2.275460792589E-05,5.21388392371591E-06,3.515625,0,0
-2.27161126531428E-05,5.16180034537683E-06,3.515625,0,0
-2.17096403503092E-05,5.11531516167452E-06,3.515625,0,0
-1.96221262740437E-05,5.82154098083265E-06,3.515625,0,0
-2.02477203856688E-05,6.54746190775768E-06,3.515625,0,0
-1.94956755876774E-05,6.78051856084494E-06,3.515625,0,0
-2.0829267668887E-05,8.82627500686795E-06,3.515625,0,0
-1.92046845768346E-05,1.12561601781636E-05,3.515625,0,0
-2.07257089641644E-05,1.2994843928027E-05,3.515625,0,0
-2.07179436984006E-05,1.29541076603346E-05,3.515625,0,0
-2.32061611313839E-05,1.3672743079951E-05,3.515625,0,0
-2.31102276302408E-05,1.46992224472342E-05,3.515625,0,0
-2.41004654526478E-05,1.56464520841837E-05,3.515625,0,0
-2.31355825235369E-05,1.55791694851359E-05,3.515625,0,0
-2.41314683080418E-05,1.58870570885483E-05,3.515625,0,0
-2.56248968071304E-05,1.73677635757485E-05,3.515625,0,0
-2.81312622973928E-05,1.98818179342197E-05,3.515625,0,0
-2.85685946437297E-05,2.2245718355407E-05,3.515625,0,0
-2.99386865663109E-05,2.28304179472616E-05,3.515625,0,0
-2.54719107033452E-05,1.69889462995343E-05,3.515625,0,0
-3.64380175597034E-05,2.26405518333195E-05,3.515625,0,0
-2.82273140328471E-05,1.38395953399595E-05,3.515625,0,0
-3.37804449372925E-05,1.53524233610369E-05,3.515625,0,0
-2.67246505245566E-05,1.08491776700248E-05,3.515625,0,0
-2.9267233912833E-05,1.56243240780896E-05,3.515625,0,0
-2.712957575568E-05,1.57272770593409E-05,3.515625,0,0
-3.0326937121572E-05,1.7598857084522E-05,3.515625,0,0
-2.92268596240319E-05,1.75154218595708E-05,3.515625,0,0
-2.77165618172148E-05,1.76700868905755E-05,3.515625,0,0
-2.75817255896982E-05,1.68483620655024E-05,3.515625,0,0
-2.77930321317399E-05,1.54490771819837E-05,3.515625,0,0
-3.03285178233637E-05,1.51121375893126E-05,3.515625,0,0
-3.06480287690647E-05,1.19960941447061E-05,3.515625,0,0
-3.28248715959489E-05,1.20246313599637E-05,3.515625,0,0
-3.03735505440272E-05,1.25310616567731E-05,3.515625,0,0
-3.00519604934379E-05,1.47868713611388E-05,3.515625,0,0
-2.6640496798791E-05,1.40405418278533E-05,3.515625,0,0
-2.51137735176599E-05,1.47241735248826E-05,3.515625,0,0
-2.20312340388773E-05,1.27553366837674E-05,3.515625,0,0
-2.2405753043131E-05,1.14022905108868E-05,3.515625,0,0
-2.10765883821296E-05,9.85985025181435E-06,3.515625,0,0
-1.94885615201201E-05,1.10461169242626E-05,3.515625,0,0
-1.52539132614038E-05,1.14230706458329E-05,3.515625,0,0
-1.37796105263988E-05,1.22785331768682E-05,3.515625,0,0
-1.36954504341702E-05,1.32243258121889E-05,3.515625,0,0
-1.420570697519E-05,1.37016086227959E-05,3.515625,0,0
-1.37983643071493E-05,1.13215282908641E-05,3.515625,0,0
-2.02847713808296E-05,1.709301432129E-05,3.515625,0,0
-1.58382517838618E-05,1.45476597026573E-05,3.515625,0,0
-1.87716123036807E-05,1.58480961545138E-05,3.515625,0,0
-1.59945593622979E-05,1.01646792245447E-05,3.515625,0,0
-1.78829905053135E-05,1.05217695818283E-05,3.515625,0,0
-1.83598785952199E-05,1.07386913441587E-05,3.515625,0,0
-2.20446236198768E-05,1.21492812468205E-05,3.515625,0,0
-2.30304012802662E-05,1.10301107270061E-05,3.515625,0,0
-2.2294863811112E-05,8.12309008324519E-06,3.515625,0,0
-2.16767184610944E-05,4.84246447740588E-06,3.515625,0,0
-2.01137336262036E-05,3.83151291316608E-06,3.515625,0,0
-1.9980123397545E-05,5.08626635564724E-06,3.515625,0,0
-1.89784168469487E-05,5.55646920474828E-06,3.515625,0,0
-1.96276414499152E-05,6.66852383801597E-06,3.515625,0,0
-2.00200174731435E-05,4.63532069261419E-06,3.515625,0,0
-2.31820813496597E-05,3.27434190694476E-06,3.515625,0,0
-2.45675619225949E-05,2.71640010396368E-06,3.515625,0,0
-2.50752636929974E-05,4.84164593217429E-06,3.515625,0,0
-2.31930062000174E-05,5.03431328979786E-06,3.515625,0,0
-2.23869283217937E-05,5.66767221243936E-06,3.515625,0,0
-2.11964706977597E-05,6.90082470100606E-06,3.515625,0,0
-2.07639841391938E-05,9.46636555454461E-06,3.515625,0,0
-2.13197581615532E-05,1.12060315586859E-05,3.515625,0,0
-2.42030782828806E-05,1.23308909678599E-05,3.515625,0,0
-2.59968346654205E-05,1.18221760203596E-05,3.515625,0,0
-2.55574686889304E-05,1.06262996268924E-05,3.515625,0,0
-1.97275148821063E-05,7.76853084971663E-06,3.515625,0,0
-2.74170070042601E-05,1.10230857899296E-05,3.515625,0,0
-1.97835161088733E-05,1.0184930943069E-05,3.515625,0,0
-2.45783830905566E-05,1.50428040797124E-05,3.515625,0,0
-2.0744611902046E-05,1.36622802529018E-05,3.515625,0,0
-2.50766297540395E-05,1.39011353894603E-05,3.515625,0,0
-2.42574569710996E-05,1.33963985717855E-05,3.515625,0,0
-2.56026869465131E-05,1.4035266758583E-05,3.515625,0,0
-2.52019035542617E-05,1.2610411431524E-05,3.515625,0,0
-2.64915015577571E-05,1.00918623502366E-05,3.515625,0,0
-2.78773732134141E-05,9.01715429790784E-06,3.515625,0,0
-2.82346263702493E-05,1.06839543150272E-05,3.515625,0,0
-2.99050734611228E-05,1.35106993184309E-05,3.515625,0,0
-2.84752077277517E-05,1.44452787935734E-05,3.515625,0,0
-2.80762560578296E-05,1.50175164890243E-05,3.515625,0,0
-2.62719222519081E-05,1.42749277074472E-05,3.515625,0,0
-2.80339445453137E-05,1.48169619933469E-05,3.515625,0,0
-2.84866036963649E-05,1.5679146599723E-05,3.515625,0,0
-3.02877979265759E-05,1.75019540620269E-05,3.515625,0,0
-2.80875046883011E-05,1.67283960763598E-05,3.515625,0,0
-2.64113023149548E-05,1.50912974277162E-05,3.515625,0,0
-2.51644105446758E-05,1.32308032334549E-05,3.515625,0,0
-2.78360457741655E-05,1.34103283926379E-05,3.515625,0,0
-3.06952060782351E-05,1.49529887494282E-05,3.515625,0,0
-3.230871152482E-05,1.56925325427437E-05,3.515625,0,0
-3.08489288727287E-05,1.24684074762627E-05,3.515625,0,0
-2.90788993879687E-05,7.89254954725038E-06,3.515625,0,0
-2.41002489929087E-05,4.22845278080786E-06,3.515625,0,0
-3.49061956512742E-05,6.51850359645323E-06,3.515625,0,0
-2.7064514142694E-05,7.61859791964525E-06,3.515625,0,0
-3.14154749503359E-05,1.1139029993501E-05,3.515625,0,0
-2.37689309869893E-05,1.20512149806018E-05,3.515625,0,0
-2.53036414505914E-05,1.40140000439715E-05,3.515625,0,0
-2.19866524275858E-05,1.12560092020431E-05,3.515625,0,0
-2.34780436585424E-05,8.72872533363989E-06,3.515625,0,0
-2.31911453738576E-05,8.44112219056115E-06,3.515625,0,0
-2.36122614296619E-05,8.8266124294023E-06,3.515625,0,0
-2.3168158804765E-05,8.15034854895202E-06,3.515625,0,0
-2.10306916414993E-05,6.81042138239718E-06,3.515625,0,0
-2.14546453207731E-05,6.15914495938341E-06,3.515625,0,0
-2.14811989280861E-05,6.39292466075858E-06,3.515625,0,0
-2.56155126407975E-05,8.15436942502856E-06,3.515625,0,0
-2.63632155110827E-05,8.54167410579976E-06,3.515625,0,0
-2.74850481218891E-05,7.6328296927386E-06,3.515625,0,0
-2.55926988756983E-05,6.02922818870866E-06,3.515625,0,0
-2.70576729235472E-05,6.245862095966E-06,3.515625,0,0
-2.58363579632714E-05,6.80019093124429E-06,3.515625,0,0
-2.532151665946E-05,7.46655086913961E-06,3.515625,0,0
-2.36470623349305E-05,8.03895636636298E-06,3.515625,0,0
-2.41254001593916E-05,9.8048340078094E-06,3.515625,0,0
-2.36744908761466E-05,1.14529248094186E-05,3.515625,0,0
-2.31836311286315E-05,1.20244649224333E-05,3.515625,0,0
-2.21775771933608E-05,1.05875642475439E-05,3.515625,0,0
-2.29758825298632E-05,8.16755073174136E-06,3.515625,0,0
-1.94960066437488E-05,4.49481558462139E-06,3.515625,0,0
-2.68559269898105E-05,4.8063861868286E-06,3.515625,0,0
-1.92142488231184E-05,1.69212250966666E-06,3.515625,0,0
-2.3587186660734E-05,3.54677217728749E-06,3.515625,0,0
-1.81373616214842E-05,3.89203569284291E-06,3.515625,0,0
-1.9899511244148E-05,6.53358483759803E-06,3.515625,0,0
-1.80227125383681E-05,7.02140368957771E-06,3.515625,0,0
-1.99032037926372E-05,6.6471729951445E-06,3.515625,0,0
-2.08853252843255E-05,7.41528492653742E-06,3.515625,0,0
-2.18603454413824E-05,9.30924943531863E-06,3.515625,0,0
-2.249736826343E-05,9.93188677966828E-06,3.515625,0,0
-2.21134996536421E-05,1.0400683095213E-05,3.515625,0,0
-2.38793363678269E-05,1.04318260127911E-05,3.515625,0,0
-2.45370756601915E-05,8.49252774060005E-06,3.515625,0,0
-2.69238262262661E-05,7.77412424213253E-06,3.515625,0,0
-2.57558840530692E-05,8.05085073807277E-06,3.515625,0,0
-2.50451903411886E-05,9.44000385061372E-06,3.515625,0,0
-2.33771097555291E-05,1.01722216641065E-05,3.515625,0,0
-2.56403618550394E-05,1.15573529910762E-05,3.515625,0,0
-2.56158673437312E-05,1.22218270917074E-05,3.515625,0,0
-2.56561925198184E-05,1.24413500088849E-05,3.515625,0,0
-2.48563192144502E-05,1.17502204375342E-05,3.515625,0,0
-2.60170399997151E-05,1.22385736176511E-05,3.515625,0,0
-2.66516071860678E-05,1.27356815937674E-05,3.515625,0,0
-2.6111702027265E-05,1.1353373338352E-05,3.515625,0,0
-2.37882286455715E-05,1.02513158708462E-05,3.515625,0,0
-2.32241618505213E-05,1.24492062241188E-05,3.515625,0,0
-2.08492165256757E-05,1.29153495436185E-05,3.515625,0,0
-2.9981174520799E-05,1.78742811840493E-05,3.515625,0,0
-2.30347395699937E-05,1.22216715681134E-05,3.515625,0,0
-2.95400786853861E-05,1.54653153003892E-05,3.515625,0,0
-2.81466273008846E-05,1.29517075038166E-05,3.515625,0,0
-3.18930178764276E-05,1.39724115797435E-05,3.515625,0,0
-2.8277054298087E-05,1.2382085515128E-05,3.515625,0,0
-2.79059713648167E-05,1.25274746096693E-05,3.515625,0,0
-2.72480883722892E-05,1.10729633888695E-05,3.515625,0,0
-2.78366296697641E-05,1.09875054477016E-05,3.515625,0,0
-2.76701448456151E-05,1.19082778837765E-05,3.515625,0,0
-2.66104325419292E-05,1.24655325635104E-05,3.515625,0,0
-2.79177256743424E-05,1.19099222501973E-05,3.515625,0,0
-2.65794060396729E-05,9.04111311683664E-06,3.515625,0,0
-2.66763527179137E-05,9.54446932155406E-06,3.515625,0,0
-2.54185179073829E-05,1.09032162072253E-05,3.515625,0,0
-2.72001052508131E-05,1.28367464640178E-05,3.515625,0,0
-2.65184899035376E-05,1.10630307972315E-05,3.515625,0,0
-2.75705006060889E-05,1.05516228359193E-05,3.515625,0,0
-2.66938241111347E-05,1.01248588180169E-05,3.515625,0,0
-2.65108974417672E-05,1.10163446152001E-05,3.515625,0,0
-2.45443116000388E-05,1.04318651210633E-05,3.515625,0,0
-2.3929640519782E-05,1.04602713690838E-05,3.515625,0,0
-2.30445402849E-05,1.00195666163927E-05,3.515625,0,0
-2.24914911086671E-05,9.96474136627512E-06,3.515625,0,0
-2.00471968128113E-05,1.03261163530988E-05,3.515625,0,0
-1.74819779203972E-05,1.22300307339174E-05,3.515625,0,0
-1.36492353703943E-05,1.15767115858034E-05,3.515625,0,0
-1.99747755686985E-05,1.67070393217728E-05,3.515625,0,0
-1.64957855304237E-05,1.31765727928723E-05,3.515625,0,0
-2.02073279069737E-05,1.5547004295513E-05,3.515625,0,0
-1.79245453182375E-05,1.17748340926482E-05,3.515625,0,0
-2.03083054657327E-05,1.27301491374965E-05,3.515625,0,0
-1.83644842763897E-05,1.10386718006339E-05,3.515625,0,0
-1.87919758900534E-05,1.10412620415445E-05,3.515625,0,0
-1.82846360985423E-05,1.13524938569753E-05,3.515625,0,0
-1.76707326318137E-05,1.28445917653153E-05,3.515625,0,0
-1.71860210684827E-05,1.25339520309353E-05,3.515625,0,0
-1.66047630045796E-05,1.02569256341667E-05,3.515625,0,0
-1.78845366463065E-05,1.03065958683146E-05,3.515625,0,0
-1.82181483978638E-05,1.1111705134681E-05,3.515625,0,0
-1.90743903658586E-05,1.26933937281137E-05,3.515625,0,0
-1.76971407199744E-05,1.07003688754048E-05,3.515625,0,0
-1.81058840098558E-05,8.62463366502197E-06,3.515625,0,0
-1.76997182279592E-05,5.7038851082325E-06,3.515625,0,0
-1.85993758350378E-05,4.91805394631228E-06,3.515625,0,0
-1.81920786417322E-05,5.16402633365942E-06,3.515625,0,0
-1.92384213733021E-05,8.53912388265599E-06,3.515625,0,0
-1.93489049706841E-05,1.1147361874464E-05,3.515625,0,0
-2.00337344722357E-05,1.34279071062338E-05,3.515625,0,0
-2.06987679121085E-05,1.4891617865942E-05,3.515625,0,0
-2.24004888877971E-05,1.42619883263251E-05,3.515625,0,0
-2.30169080168707E-05,1.07829982880503E-05,3.515625,0,0
-2.23542738240212E-05,8.88666909304447E-06,3.515625,0,0
-1.87873520189896E-05,9.01091061678017E-06,3.515625,0,0
-2.73623554676306E-05,1.36650514832581E-05,3.515625,0,0
-1.97905865206849E-05,1.1099192306574E-05,3.515625,0,0
-2.2967777113081E-05,1.33788180392003E-05,3.515625,0,0
-1.96771306946175E-05,1.09285856524366E-05,3.515625,0,0
-2.27515392907662E-05,1.05714179881033E-05,3.515625,0,0
-2.11412097996799E-05,9.01635939953849E-06,3.515625,0,0
-2.14865995076252E-05,9.45119063544553E-06,3.515625,0,0
-1.96766377484892E-05,1.11683493742021E-05,3.515625,0,0
-1.8856981114368E-05,1.11510789793101E-05,3.515625,0,0
-1.92685965885175E-05,9.65804247243796E-06,3.515625,0,0
-1.95720112969866E-05,8.85055032995297E-06,3.515625,0,0
-2.10141133720754E-05,9.15229975362308E-06,3.515625,0,0
-2.03161398530938E-05,7.85959946369985E-06,3.515625,0,0
-2.12258000829024E-05,6.18184685663437E-06,3.515625,0,0
-2.1069130525575E-05,4.49199478680384E-06,3.515625,0,0
-2.2712232748745E-05,5.35013487024116E-06,3.515625,0,0
-2.14916490222095E-05,6.03576881985646E-06,3.515625,0,0
-2.11536280403379E-05,7.28732675270294E-06,3.515625,0,0
-1.88801932381466E-05,7.30234069123981E-06,3.515625,0,0
-1.96296423382591E-05,7.20322123015649E-06,3.515625,0,0
-2.11000078707002E-05,7.2899242695712E-06,3.515625,0,0
-2.31427293329034E-05,8.85864392330404E-06,3.515625,0,0
-2.31885424000211E-05,8.49274965730729E-06,3.515625,0,0
-2.30684181588003E-05,6.54866562399548E-06,3.515625,0,0
-2.27075124712428E-05,5.25182804267388E-06,3.515625,0,0
-2.33303599088686E-05,4.25838561568526E-06,3.515625,0,0
-1.97427525563398E-05,4.23565415985649E-06,3.515625,0,0
-2.84523539448855E-05,5.98177985011716E-06,3.515625,0,0
-2.2087306206231E-05,3.57843487108767E-06,3.515625,0,0
-2.61616296484135E-05,3.31241426465567E-06,3.515625,0,0
-2.13076291402103E-05,2.45624710260017E-06,3.515625,0,0
-2.55977902270388E-05,3.33556727127871E-06,3.515625,0,0
-2.54141104960581E-05,3.89953856938519E-06,3.515625,0,0
-2.73524292424554E-05,5.71544387639733E-06,3.515625,0,0
-2.70638483925723E-05,6.22123297944199E-06,3.515625,0,0
-2.78493280347902E-05,6.52505514153745E-06,3.515625,0,0
-2.95851332339225E-05,8.62049910210771E-06,3.515625,0,0
-2.98638224194292E-05,1.09226093627512E-05,3.515625,0,0
-3.00503743346781E-05,1.16283999886946E-05,3.515625,0,0
-2.75853799394099E-05,1.04789851320675E-05,3.515625,0,0
-2.71194494416704E-05,1.04203409136971E-05,3.515625,0,0
-2.55025188380387E-05,1.06427442005952E-05,3.515625,0,0
-2.74599333351944E-05,1.03896782093216E-05,3.515625,0,0
-2.79941032204079E-05,8.97610425454332E-06,3.515625,0,0
-3.00304491247516E-05,7.66100947657833E-06,3.515625,0,0
-2.97724527626997E-05,6.45840191282332E-06,3.515625,0,0
-3.01946674881037E-05,7.51087372918846E-06,3.515625,0,0
-2.78234911093023E-05,1.00368170024012E-05,3.515625,0,0
-2.62098528764909E-05,1.16159526442061E-05,3.515625,0,0
-2.48367214226164E-05,8.22880883788457E-06,3.515625,0,0
-2.48098240263062E-05,4.14201576859341E-06,3.515625,0,0
-2.47276584559586E-05,5.01949489262188E-06,3.515625,0,0
-2.44421535171568E-05,7.43005693948362E-06,3.515625,0,0
-1.78449099621503E-05,7.21458582120249E-06,3.515625,0,0
-2.4553764887969E-05,1.10458540802938E-05,3.515625,0,0
-1.868793151516E-05,9.84804228210123E-06,3.515625,0,0
-2.41436009673635E-05,1.2069820513716E-05,3.515625,0,0
-2.05769392778166E-05,1.1078692295996E-05,3.515625,0,0
-2.33023947657784E-05,1.33244520839071E-05,3.515625,0,0
-2.09549125429476E-05,1.36673306769808E-05,3.515625,0,0
-2.21011032408569E-05,1.51659751281841E-05,3.515625,0,0
-2.11937094718451E-05,1.57235317601589E-05,3.515625,0,0
-2.01613584067672E-05,1.572407745698E-05,3.515625,0,0
-1.87040641321801E-05,1.62133019330213E-05,3.515625,0,0
-1.72608270077035E-05,1.67507168953307E-05,3.515625,0,0
-1.88317226275103E-05,1.72755135281477E-05,3.515625,0,0
-1.96527034859173E-05,1.71545761986636E-05,3.515625,0,0
-2.20157980947988E-05,1.73483858816326E-05,3.515625,0,0
-2.13626080949325E-05,1.53788860188797E-05,3.515625,0,0
-2.2873407942825E-05,1.44630603244877E-05,3.515625,0,0
-2.30962141358759E-05,1.4801679753873E-05,3.515625,0,0
-2.53227863140637E-05,1.55907600856153E-05,3.515625,0,0
-2.53951366175897E-05,1.43803599712555E-05,3.515625,0,0
-2.66615697910311E-05,1.46257516462356E-05,3.515625,0,0
-2.66978968284093E-05,1.49083998621791E-05,3.515625,0,0
-2.72753477474907E-05,1.45906033139909E-05,3.515625,0,0
-2.67622617684538E-05,1.37567521960591E-05,3.515625,0,0
-2.65576600213535E-05,1.46906440932071E-05,3.515625,0,0
-2.6286868887837E-05,1.58114762598416E-05,3.515625,0,0
-2.72530651272973E-05,1.42545377457282E-05,3.515625,0,0
-2.30165424000006E-05,1.07554615169647E-05,3.515625,0,0
-3.16425976052415E-05,1.50232417581719E-05,3.515625,0,0
-2.13847724808147E-05,1.00072757049929E-05,3.515625,0,0
-2.55828072113218E-05,1.06126599348499E-05,3.515625,0,0
-2.07665943889879E-05,6.68197026243433E-06,3.515625,0,0
-2.46025374508463E-05,7.91617549111834E-06,3.515625,0,0
-2.31751982937567E-05,7.34492914489238E-06,3.515625,0,0
-2.46844701905502E-05,8.31457236927236E-06,3.515625,0,0
-2.25007115659537E-05,7.30589954400784E-06,3.515625,0,0
-2.07910907192854E-05,5.30315128344228E-06,3.515625,0,0
-1.98616999114165E-05,4.91173886985052E-06,3.515625,0,0
-1.85625194717431E-05,5.44142949365778E-06,3.515625,0,0
-1.80899769475218E-05,5.81855238124263E-06,3.515625,0,0
-1.51187286974164E-05,4.84328029415337E-06,3.515625,0,0
-1.6375048289774E-05,5.34687433173531E-06,3.515625,0,0
-1.73459102370543E-05,4.72086503577884E-06,3.515625,0,0
-2.07561970455572E-05,6.00802377448417E-06,3.515625,0,0
-2.01312577701174E-05,6.66601863485994E-06,3.515625,0,0
-2.15457584999967E-05,7.20479738447466E-06,3.515625,0,0
-2.11442729778355E-05,5.49267588212388E-06,3.515625,0,0
-2.19056091737002E-05,4.19241951021831E-06,3.515625,0,0
-2.06382355827373E-05,3.80545270672883E-06,3.515625,0,0
-2.16646476474125E-05,5.26337362316553E-06,3.515625,0,0
-2.24620653170859E-05,5.89263572692289E-06,3.515625,0,0
-2.32982310990337E-05,6.34993693893193E-06,3.515625,0,0
-2.34089675359428E-05,6.659379323537E-06,3.515625,0,0
-2.35204770433484E-05,7.77213608671445E-06,3.515625,0,0
-1.89495785889449E-05,7.78334651840851E-06,3.515625,0,0
-2.76629125437466E-05,1.15324564831099E-05,3.515625,0,0
-2.25558433157858E-05,8.8149172370322E-06,3.515625,0,0
-2.78360548691126E-05,1.04738319350872E-05,3.515625,0,0
-2.34763429034501E-05,9.30886562855449E-06,3.515625,0,0
-2.63521724264137E-05,1.11869294414646E-05,3.515625,0,0
-2.66944989562035E-05,1.19628875836497E-05,3.515625,0,0
-3.01158270303858E-05,1.30333592096576E-05,3.515625,0,0
-3.0649513064418E-05,1.43287315950147E-05,3.515625,0,0
-3.07211703329813E-05,1.5327037544921E-05,3.515625,0,0
-3.04099557979498E-05,1.4955349797674E-05,3.515625,0,0
-3.00941683235578E-05,1.51493986777496E-05,3.515625,0,0
-3.23361600749195E-05,1.60264389705844E-05,3.515625,0,0
-3.24733191519044E-05,1.55304278450785E-05,3.515625,0,0
-3.29907452396583E-05,1.57977028720779E-05,3.515625,0,0
-3.04085078823846E-05,1.57257418322843E-05,3.515625,0,0
-2.99653274851153E-05,1.7100199329434E-05,3.515625,0,0
-2.84174202533904E-05,1.77421807165956E-05,3.515625,0,0
-2.92796194116818E-05,1.76967841980513E-05,3.515625,0,0
-2.83901335933479E-05,1.59169612743426E-05,3.515625,0,0
-2.81100965366932E-05,1.4984669178375E-05,3.515625,0,0
-2.50008179136785E-05,1.43926326927613E-05,3.515625,0,0
-2.27849941438762E-05,1.44858622661559E-05,3.515625,0,0
-2.12640807149E-05,1.34175397761283E-05,3.515625,0,0
-2.03527415578719E-05,1.13339019662817E-05,3.515625,0,0
-1.86982306331629E-05,9.76062710833503E-06,3.515625,0,0
-1.76429530256428E-05,9.25214771996252E-06,3.515625,0,0
-1.39062194648432E-05,7.49170521885389E-06,3.515625,0,0
-1.95881766558159E-05,1.24820790006197E-05,3.515625,0,0
-1.58835737238405E-05,1.24302505355445E-05,3.515625,0,0
-2.01886778086191E-05,1.42817825690145E-05,3.515625,0,0
-1.66925874509616E-05,1.13756523205666E-05,3.515625,0,0
-1.82066887646215E-05,1.24930274978396E-05,3.515625,0,0
-1.7888874936034E-05,1.3864963875676E-05,3.515625,0,0
-2.0824516468565E-05,1.63980894285487E-05,3.515625,0,0
-2.02526498469524E-05,1.76227822521469E-05,3.515625,0,0
-1.91660637938185E-05,1.73034804902272E-05,3.515625,0,0
-1.97353838302661E-05,1.59404935402563E-05,3.515625,0,0
-2.16359294427093E-05,1.58157417899929E-05,3.515625,0,0
-2.42790174524998E-05,1.70800740306731E-05,3.515625,0,0
-2.52793197432766E-05,1.71818282979075E-05,3.515625,0,0
-2.85244877886726E-05,1.81674331543036E-05,3.515625,0,0
-2.99025487038307E-05,1.85193166544195E-05,3.515625,0,0
-3.15000215778127E-05,1.79548460437218E-05,3.515625,0,0
-3.00766387226759E-05,1.56789737957297E-05,3.515625,0,0
-2.96986127068521E-05,1.57477352331625E-05,3.515625,0,0
-2.87011334876297E-05,1.64988196047489E-05,3.515625,0,0
-2.91802989522694E-05,1.74102879100246E-05,3.515625,0,0
-2.79602008959046E-05,1.82918938662624E-05,3.515625,0,0
-2.71945191343548E-05,1.87899076991016E-05,3.515625,0,0
-2.63551246462157E-05,1.65981782629387E-05,3.515625,0,0
-2.75351703749038E-05,1.40437150548678E-05,3.515625,0,0
-2.97914011753164E-05,1.23170984807075E-05,3.515625,0,0
-3.11084877466783E-05,1.04009086498991E-05,3.515625,0,0
-2.43580634560203E-05,6.40616553937434E-06,3.515625,0,0
-3.43891078955494E-05,9.87881776381982E-06,3.515625,0,0
-2.60056986007839E-05,1.03587235571467E-05,3.515625,0,0
-3.1602776289219E-05,1.24339630929171E-05,3.515625,0,0
-2.56107596214861E-05,9.01528164831689E-06,3.515625,0,0
-2.97110491374042E-05,9.41748839977663E-06,3.515625,0,0
-2.71788449026644E-05,8.39270796859637E-06,3.515625,0,0
-2.77372200798709E-05,9.20401180337649E-06,3.515625,0,0
-2.56675230048131E-05,1.00859433587175E-05,3.515625,0,0
-2.54159640462603E-05,1.0462115824339E-05,3.515625,0,0
-2.65350645349827E-05,1.01410532806767E-05,3.515625,0,0
-2.62207213381771E-05,8.94365621206816E-06,3.515625,0,0
-2.5900777472998E-05,9.08052425074857E-06,3.515625,0,0
-2.21683676500106E-05,1.00964462035336E-05,3.515625,0,0
-2.27480777539313E-05,1.0628499694576E-05,3.515625,0,0
-2.26669253606815E-05,7.82831557444297E-06,3.515625,0,0
-2.55113136518048E-05,5.80403366257087E-06,3.515625,0,0
-2.52917961915955E-05,5.69668827665737E-06,3.515625,0,0
-2.79472897091182E-05,7.41785606805934E-06,3.515625,0,0
-2.77283888863167E-05,6.80229959471035E-06,3.515625,0,0
-2.77309172815876E-05,6.86373732605716E-06,3.515625,0,0
-2.49913464358542E-05,7.72521525504999E-06,3.515625,0,0
-2.31944341066992E-05,7.89393561717588E-06,3.515625,0,0
-2.20761594391661E-05,7.05293223290937E-06,3.515625,0,0
-2.26297997869551E-05,7.15935811967938E-06,3.515625,0,0
-2.22346770897275E-05,8.31465877126902E-06,3.515625,0,0
-2.17433807847556E-05,9.93152571027167E-06,3.515625,0,0
-1.70531911862781E-05,7.61883302402566E-06,3.515625,0,0
-2.36285814025905E-05,9.79092419584049E-06,3.515625,0,0
-1.72005147760501E-05,5.33388765688869E-06,3.515625,0,0
-2.21690315811429E-05,6.40687858322053E-06,3.515625,0,0
-1.98426860151812E-05,5.38008725925465E-06,3.515625,0,0
-2.31834310397971E-05,8.52839275466977E-06,3.515625,0,0
-2.30784171435516E-05,8.4239154602983E-06,3.515625,0,0
-2.51831770583522E-05,7.21610967957531E-06,3.515625,0,0
-2.53498510573991E-05,6.2721264839638E-06,3.515625,0,0
-2.66544211626751E-05,7.13756071490934E-06,3.515625,0,0
-2.75050078926142E-05,7.6303176683723E-06,3.515625,0,0
-2.57968731602887E-05,8.55478083394701E-06,3.515625,0,0
-2.47881998802768E-05,1.04068003565772E-05,3.515625,0,0
-2.36550713452743E-05,1.0146743079531E-05,3.515625,0,0
-2.58447380474536E-05,1.07587902675732E-05,3.515625,0,0
-2.63283509411849E-05,1.17219560706872E-05,3.515625,0,0
-2.75795046036365E-05,1.34228976094164E-05,3.515625,0,0
-2.55991890298901E-05,1.24468560898094E-05,3.515625,0,0
-2.41014477069257E-05,1.17203289846657E-05,3.515625,0,0
-2.13071125472197E-05,1.25299147839542E-05,3.515625,0,0
-2.16316857404308E-05,1.38874784170184E-05,3.515625,0,0
-2.20185957005015E-05,1.13914184112218E-05,3.515625,0,0
-2.2331874788506E-05,8.26084669824922E-06,3.515625,0,0
-2.06894528673729E-05,6.59056740914821E-06,3.515625,0,0
-1.97099234355846E-05,7.26808184481342E-06,3.515625,0,0
-1.92597944987938E-05,1.00097668109811E-05,3.515625,0,0
-2.06351342058042E-05,1.29369018395664E-05,3.515625,0,0
-1.97505833057221E-05,9.65989784162957E-06,3.515625,0,0
-2.84423476841766E-05,1.20380127555109E-05,3.515625,0,0
-2.0327319361968E-05,7.85488555266056E-06,3.515625,0,0
-2.38729480770417E-05,1.09078164314269E-05,3.515625,0,0
-1.98728484974708E-05,7.86361397331348E-06,3.515625,0,0
-2.21501850319328E-05,1.05154413176933E-05,3.515625,0,0
-1.98489451577188E-05,1.07751202449435E-05,3.515625,0,0
-2.1051988369436E-05,1.04663540696492E-05,3.515625,0,0
-2.15112850128207E-05,8.57814666233025E-06,3.515625,0,0
-2.13510502362624E-05,7.13865756551968E-06,3.515625,0,0
-2.08444580493961E-05,7.11239636075334E-06,3.515625,0,0
-2.01253315026406E-05,8.0001855167211E-06,3.515625,0,0
-2.13042094401317E-05,9.79427022684831E-06,3.515625,0,0
-2.08830879273592E-05,9.34158288146136E-06,3.515625,0,0
-2.21464688365813E-05,9.6564735940774E-06,3.515625,0,0
-2.09764421015279E-05,9.08899710339028E-06,3.515625,0,0
-2.09196914511267E-05,9.19608373806113E-06,3.515625,0,0
-1.84137388714589E-05,8.31183388072532E-06,3.515625,0,0
-1.92535899259383E-05,8.60041382111376E-06,3.515625,0,0
-2.01551611098694E-05,7.66532775742235E-06,3.515625,0,0
-2.13889979931992E-05,7.5961015681969E-06,3.515625,0,0
-2.06602780963294E-05,6.61603326079785E-06,3.515625,0,0
-2.22117032535607E-05,5.2327827688714E-06,3.515625,0,0
-2.33727023442043E-05,4.66939172838465E-06,3.515625,0,0
-2.4942610252765E-05,6.75203182254336E-06,3.515625,0,0
-2.56272469414398E-05,7.95891992311226E-06,3.515625,0,0
-2.43467857217183E-05,8.10961955721723E-06,3.515625,0,0
-1.9205326680094E-05,7.22636468708515E-06,3.515625,0,0
-2.78028619504767E-05,9.98228006210411E-06,3.515625,0,0
-2.15682302950881E-05,6.1808900682081E-06,3.515625,0,0
-2.65973230852978E-05,6.92582443662104E-06,3.515625,0,0
-2.37478452618234E-05,5.58810870643356E-06,3.515625,0,0
-2.6685314878705E-05,6.74046668791561E-06,3.515625,0,0
-2.39735254581319E-05,5.80110827286262E-06,3.515625,0,0
-2.47286807280034E-05,6.38284518572618E-06,3.515625,0,0
-2.41910402110079E-05,7.43708051231806E-06,3.515625,0,0
-2.44708517129766E-05,8.41168730403297E-06,3.515625,0,0
-2.46318450081162E-05,9.34041872824309E-06,3.515625,0,0
-2.4314582333318E-05,1.07585046862368E-05,3.515625,0,0
-2.55318900599377E-05,1.23337304103188E-05,3.515625,0,0
-2.43936701735947E-05,1.13602845885907E-05,3.515625,0,0
-2.49743516178569E-05,1.07824553197133E-05,3.515625,0,0
-2.35642219195142E-05,1.07370633486426E-05,3.515625,0,0
-2.4427545213257E-05,1.17897798190825E-05,3.515625,0,0
-2.39054552366724E-05,1.12443203761359E-05,3.515625,0,0
-2.50867251452291E-05,1.03727425084799E-05,3.515625,0,0
-2.40776062128134E-05,8.99939095688751E-06,3.515625,0,0
-2.48927244683728E-05,9.22435447137104E-06,3.515625,0,0
-2.4877981559257E-05,9.50569665292278E-06,3.515625,0,0
-2.50119137490401E-05,1.00643510450027E-05,3.515625,0,0
-2.35766874538967E-05,1.14822869363707E-05,3.515625,0,0
-2.3911808966659E-05,1.30011703731725E-05,3.515625,0,0
-2.43289505306166E-05,1.34485126181971E-05,3.515625,0,0
-2.50453467742773E-05,1.29516029119259E-05,3.515625,0,0
-2.1385729269241E-05,9.39559322432615E-06,3.515625,0,0
-3.01070431305561E-05,1.33517814902007E-05,3.515625,0,0
-2.17743254324887E-05,1.0683094842534E-05,3.515625,0,0
-2.724399928411E-05,1.29360205392004E-05,3.515625,0,0
-2.39010751101887E-05,8.07049309514696E-06,3.515625,0,0
-2.72305787802907E-05,6.08969139648252E-06,3.515625,0,0
-2.41401448874967E-05,4.78315905638738E-06,3.515625,0,0
-2.36507512454409E-05,7.18468891136581E-06,3.515625,0,0
-2.36529485846404E-05,7.8811699495418E-06,3.515625,0,0
-2.62475859926781E-05,7.7326603786787E-06,3.515625,0,0
-2.92764234472997E-05,7.66529319662368E-06,3.515625,0,0
-3.03608267131494E-05,8.34979164210381E-06,3.515625,0,0
-3.15103461616673E-05,1.0494552043383E-05,3.515625,0,0
-3.05286084767431E-05,1.11696490421309E-05,3.515625,0,0
-3.16088335239328E-05,1.1388115126465E-05,3.515625,0,0
-3.01852487609722E-05,8.84439668880077E-06,3.515625,0,0
-3.00679439533269E-05,7.95675623521674E-06,3.515625,0,0
-2.749709165073E-05,8.56784208735917E-06,3.515625,0,0
-2.85724036075408E-05,1.15853626994067E-05,3.515625,0,0
-2.88736719085136E-05,1.22958272186224E-05,3.515625,0,0
-2.95125955744879E-05,1.1549101145647E-05,3.515625,0,0
-2.77598428510828E-05,1.02305857581086E-05,3.515625,0,0
-2.79915802821051E-05,1.08636104414472E-05,3.515625,0,0
-2.814816616592E-05,1.24582293210551E-05,3.515625,0,0
-2.84046163869789E-05,1.47154796650284E-05,3.515625,0,0
-2.71784974756883E-05,1.70440107467584E-05,3.515625,0,0
-2.55178601946682E-05,1.79112194018671E-05,3.515625,0,0
-1.90729297173675E-05,1.37482120408094E-05,3.515625,0,0
-2.6423000235809E-05,1.81004543264862E-05,3.515625,0,0
-2.00845333893085E-05,1.21628436318133E-05,3.515625,0,0
-2.63588790403446E-05,1.75308305188082E-05,3.515625,0,0
-2.24847808567574E-05,1.69498816831037E-05,3.515625,0,0
-2.44430957536679E-05,2.08841574931284E-05,3.515625,0,0
-2.26203483180143E-05,1.93634787137853E-05,3.515625,0,0
-2.41687339439522E-05,1.7391092114849E-05,3.515625,0,0
-2.29793458856875E-05,1.58754282892914E-05,3.515625,0,0
-2.19363046198851E-05,1.70309576787986E-05,3.515625,0,0
-2.04728457902092E-05,1.85832977876998E-05,3.515625,0,0
-1.8760480088531E-05,1.9451770640444E-05,3.515625,0,0
-2.01889979507541E-05,2.11849364859518E-05,3.515625,0,0
-2.00576178031042E-05,2.11672122532036E-05,3.515625,0,0
-2.05635151360184E-05,2.21923710341798E-05,3.515625,0,0
-1.84184864338022E-05,2.12663180718664E-05,3.515625,0,0
-1.89505808521062E-05,2.13597395486431E-05,3.515625,0,0
-1.84109558176715E-05,1.99595997401048E-05,3.515625,0,0
-2.01398961507948E-05,1.97422377823386E-05,3.515625,0,0
-1.93434298125794E-05,1.67119014804484E-05,3.515625,0,0
-1.91351737157675E-05,1.42866556416266E-05,3.515625,0,0
-1.72974760062061E-05,1.28950214275392E-05,3.515625,0,0
-1.67176076502074E-05,1.24757889352622E-05,3.515625,0,0
-1.70672101376113E-05,1.11946010292741E-05,3.515625,0,0
-2.05581491172779E-05,1.215080737893E-05,3.515625,0,0
-2.25574331125245E-05,1.29820355141419E-05,3.515625,0,0
-2.18058248719899E-05,1.2850957318733E-05,3.515625,0,0
-1.69013292179443E-05,1.02201329355012E-05,3.515625,0,0
-2.3582029825775E-05,1.35840300572454E-05,3.515625,0,0
-1.67228208738379E-05,9.86106988420943E-06,3.515625,0,0
-2.05445285246242E-05,1.25355154523277E-05,3.515625,0,0
-1.84083146450575E-05,9.45585543377092E-06,3.515625,0,0
-2.23438746616011E-05,1.0452149581397E-05,3.515625,0,0
-2.07956636586459E-05,8.65864876686828E-06,3.515625,0,0
-2.02266164706089E-05,8.5155852502794E-06,3.515625,0,0
-1.71881038113497E-05,7.56484496378107E-06,3.515625,0,0
-1.6170781236724E-05,7.34653713152511E-06,3.515625,0,0
-1.71326119016157E-05,7.33411343389889E-06,3.515625,0,0
-1.73788266693009E-05,7.02013585396344E-06,3.515625,0,0
-1.92731768038357E-05,7.09202868165448E-06,3.515625,0,0
-2.07323664653813E-05,6.15910812484799E-06,3.515625,0,0
-2.37212771025952E-05,6.98263738740934E-06,3.515625,0,0
-2.29891938943183E-05,6.62666116113542E-06,3.515625,0,0
-2.23848401219584E-05,8.01705846242839E-06,3.515625,0,0
-2.03728122869506E-05,9.13888106879313E-06,3.515625,0,0
-2.14837309613358E-05,1.06355564639671E-05,3.515625,0,0
-2.14000629057409E-05,9.77972740656696E-06,3.515625,0,0
-2.27367363550002E-05,1.03030806712923E-05,3.515625,0,0
-2.45695155172143E-05,1.03616548585705E-05,3.515625,0,0
-2.80117965303361E-05,1.02413223430631E-05,3.515625,0,0
-2.81392203760333E-05,9.0820267359959E-06,3.515625,0,0
-2.64273439825047E-05,7.96876247477485E-06,3.515625,0,0
-2.60698125202907E-05,6.98865824233508E-06,3.515625,0,0
-2.69845440925565E-05,5.88225111641805E-06,3.515625,0,0
-2.24644263653317E-05,3.15432953357231E-06,3.515625,0,0
-3.24553002428729E-05,4.16623288401752E-06,3.515625,0,0
-2.4847298845998E-05,5.56143186258851E-06,3.515625,0,0
-2.92967451969162E-05,9.1343545136624E-06,3.515625,0,0
-2.40853369177785E-05,8.51643471833086E-06,3.515625,0,0
-2.83255212707445E-05,8.71630800247658E-06,3.515625,0,0
-2.6649002393242E-05,6.50829088044702E-06,3.515625,0,0
-2.6764462745632E-05,3.60909211849503E-06,3.515625,0,0
-2.46692943619564E-05,1.64311313710641E-06,3.515625,0,0
-2.49033328145742E-05,1.91668823390501E-06,3.515625,0,0
-2.62391768046655E-05,2.30697082770348E-06,3.515625,0,0
-2.57103638432454E-05,1.87383056982071E-06,3.515625,0,0
-2.49662189162336E-05,9.15089401587466E-07,3.515625,0,0
-2.12214781640796E-05,1.74721307644177E-07,3.515625,0,0
-2.06460154004162E-05,2.29552938435518E-06,3.515625,0,0
-1.96646396943834E-05,5.65721984457923E-06,3.515625,0,0
-2.19835637835786E-05,8.39427229948342E-06,3.515625,0,0
-2.15226464206353E-05,7.97445136413444E-06,3.515625,0,0
-2.26348274736665E-05,6.78938977216603E-06,3.515625,0,0
-2.09442387131276E-05,6.19898764853133E-06,3.515625,0,0
-2.04002153623151E-05,7.79577476350823E-06,3.515625,0,0
-1.87092828127788E-05,9.06629520613933E-06,3.515625,0,0
-2.04224270419218E-05,9.45568081078818E-06,3.515625,0,0
-2.2008609448676E-05,8.80345487530576E-06,3.515625,0,0
-2.26075244427193E-05,8.5011697592563E-06,3.515625,0,0
-2.14380561374128E-05,8.63333571032854E-06,3.515625,0,0
-2.02824103325838E-05,8.79399522091262E-06,3.515625,0,0
-1.5946938219713E-05,8.29838063509669E-06,3.515625,0,0
-2.22292419493897E-05,1.33885278046364E-05,3.515625,0,0
-1.63209824677324E-05,1.25472706713481E-05,3.515625,0,0
-1.94758649740834E-05,1.51300619108952E-05,3.515625,0,0
-1.42748813232174E-05,1.35877462525968E-05,3.515625,0,0
-1.55142515723128E-05,1.54186218424002E-05,3.515625,0,0
-1.41579384944635E-05,1.46186621350353E-05,3.515625,0,0
-1.53991604747716E-05,1.40580687002512E-05,3.515625,0,0
-1.49888155647204E-05,1.2977945516468E-05,3.515625,0,0
-1.53157252498204E-05,1.14064296212746E-05,3.515625,0,0
-1.66069530678215E-05,1.04661494333413E-05,3.515625,0,0
-1.78089921973879E-05,9.62737067311537E-06,3.515625,0,0
-2.05068481591297E-05,9.0768980953726E-06,3.515625,0,0
-2.11044480238343E-05,9.66025436355267E-06,3.515625,0,0
-2.17985798371956E-05,1.29178715724265E-05,3.515625,0,0
-2.00529248104431E-05,1.41863019962329E-05,3.515625,0,0
-2.15620711969677E-05,1.41738701131544E-05,3.515625,0,0
-2.3331389456871E-05,1.37030156110995E-05,3.515625,0,0
-2.58896379818907E-05,1.42619992402615E-05,3.515625,0,0
-2.50542780122487E-05,1.23784175229957E-05,3.515625,0,0
-2.46386625804007E-05,1.08379044831963E-05,3.515625,0,0
-2.39796208916232E-05,1.10831269921619E-05,3.515625,0,0
-2.56002495007124E-05,1.29527397803031E-05,3.515625,0,0
-2.6763596906676E-05,1.36802327688201E-05,3.515625,0,0
-2.88336541416356E-05,1.44466139317956E-05,3.515625,0,0
-3.02166281471727E-05,1.56775713548996E-05,3.515625,0,0
-2.88400260615163E-05,1.58468374138465E-05,3.515625,0,0
-2.26006268349011E-05,1.15584716695594E-05,3.515625,0,0
-3.23853928421158E-05,1.44900304803741E-05,3.515625,0,0
-2.42341247940203E-05,8.01523310656194E-06,3.515625,0,0
-2.89784111373592E-05,1.05534400063334E-05,3.515625,0,0
-2.38674128922867E-05,9.05082833924098E-06,3.515625,0,0
-2.76977898465702E-05,1.23676463772426E-05,3.515625,0,0
-2.6852589144255E-05,1.07871692307526E-05,3.515625,0,0
-2.82264027191559E-05,9.69159464148106E-06,3.515625,0,0
-2.67157593043521E-05,8.47409592097392E-06,3.515625,0,0
-2.64585378317861E-05,9.39498204388656E-06,3.515625,0,0
-2.62474750343245E-05,1.08206731965765E-05,3.515625,0,0
-2.45410283241654E-05,1.21123848657589E-05,3.515625,0,0
-2.38317443290725E-05,1.36973567350651E-05,3.515625,0,0
-2.21109130507102E-05,1.31297219922999E-05,3.515625,0,0
-2.44773746089777E-05,1.35429290821776E-05,3.515625,0,0
-2.47924417635659E-05,1.28050223793252E-05,3.515625,0,0
-2.63694037130335E-05,1.31471206259448E-05,3.515625,0,0
-2.45274404733209E-05,1.2075270205969E-05,3.515625,0,0
-2.58180152741261E-05,1.40007769005024E-05,3.515625,0,0
-2.61008353845682E-05,1.50981113620219E-05,3.515625,0,0
-2.761959694908E-05,1.54058052430628E-05,3.515625,0,0
-2.67876694124425E-05,1.4566720892617E-05,3.515625,0,0
-2.71268272626912E-05,1.53719447553158E-05,3.515625,0,0
-2.62785652012099E-05,1.53398559632478E-05,3.515625,0,0
-2.50796638283646E-05,1.40158699650783E-05,3.515625,0,0
-2.35014958889224E-05,1.19831902338774E-05,3.515625,0,0
-2.40419540205039E-05,1.12414154500584E-05,3.515625,0,0
-2.04304233193398E-05,1.07762025436386E-05,3.515625,0,0
-2.88873343379237E-05,1.64483299158746E-05,3.515625,0,0
-2.1434685550048E-05,1.35204118123511E-05,3.515625,0,0
-2.63820838881657E-05,1.47999662658549E-05,3.515625,0,0
-2.30782206926961E-05,1.07651658254326E-05,3.515625,0,0
-2.7192798370379E-05,1.21188359116786E-05,3.515625,0,0
-2.50602988671744E-05,1.19076312330435E-05,3.515625,0,0
-2.49764107138617E-05,1.19560872917646E-05,3.515625,0,0
-2.32106885960093E-05,1.20298609544989E-05,3.515625,0,0
-2.28437402256532E-05,1.21206876428914E-05,3.515625,0,0
-2.33916525758104E-05,1.123767469835E-05,3.515625,0,0
-2.50321536441334E-05,1.02869980764808E-05,3.515625,0,0
-2.82856999547221E-05,1.14225013021496E-05,3.515625,0,0
-2.74961803370388E-05,1.16555447675637E-05,3.515625,0,0
-2.80749391095014E-05,1.13989344754373E-05,3.515625,0,0
-2.72241595666856E-05,8.46920647745719E-06,3.515625,0,0
-2.80319927696837E-05,6.05082732363371E-06,3.515625,0,0
-2.53065354627324E-05,3.69472195416165E-06,3.515625,0,0
-2.49128806899535E-05,3.76857292394561E-06,3.515625,0,0
-2.4679975467734E-05,3.38594782078872E-06,3.515625,0,0
-2.73223395197419E-05,3.45855460182065E-06,3.515625,0,0
-2.6480651285965E-05,3.48464436683571E-06,3.515625,0,0
-2.49701352004195E-05,4.67047766505857E-06,3.515625,0,0
-2.42209407588234E-05,5.76496722715092E-06,3.515625,0,0
-2.53146627073875E-05,5.71314058106509E-06,3.515625,0,0
-2.61812201642897E-05,3.58404508915555E-06,3.515625,0,0
-2.62970570474863E-05,3.59411092176742E-06,3.515625,0,0
-2.12539871426998E-05,3.69369354302762E-06,3.515625,0,0
-3.03038596030092E-05,5.60301896257442E-06,3.515625,0,0
-2.27095079026185E-05,6.08825439485372E-06,3.515625,0,0
-2.71673434326658E-05,8.99244605534477E-06,3.515625,0,0
-2.22896596824285E-05,8.64360663399566E-06,3.515625,0,0
-2.53892030741554E-05,1.01807463579462E-05,3.515625,0,0
-2.43121721723583E-05,1.13604719444993E-05,3.515625,0,0
-2.74554859061027E-05,1.10634764496353E-05,3.515625,0,0
-2.82577784673776E-05,9.74605609371793E-06,3.515625,0,0
-2.83525005215779E-05,8.0862146205618E-06,3.515625,0,0
-2.67895538854646E-05,6.87002057020436E-06,3.515625,0,0
-2.44936854869593E-05,7.47322383176652E-06,3.515625,0,0
-2.53453581535723E-05,9.10410381038673E-06,3.515625,0,0
-2.39421460719313E-05,8.76640024216613E-06,3.515625,0,0
-2.43107224378036E-05,8.13532187748933E-06,3.515625,0,0
-2.32081110880245E-05,9.25954009289853E-06,3.515625,0,0
-2.53225589403883E-05,1.22968276627944E-05,3.515625,0,0
-2.53636608249508E-05,1.36099451992777E-05,3.515625,0,0
-2.69331121671712E-05,1.28412411868339E-05,3.515625,0,0
-2.58832969848299E-05,1.19144378913916E-05,3.515625,0,0
-2.5947367248591E-05,1.19023716251832E-05,3.515625,0,0
-2.3430095097865E-05,1.02868380054133E-05,3.515625,0,0
-2.14692117879167E-05,9.36708511289908E-06,3.515625,0,0
-1.99587302631699E-05,1.17306080937851E-05,3.515625,0,0
-2.08100773306796E-05,1.48141116369516E-05,3.515625,0,0
-2.27047876251163E-05,1.62973992701154E-05,3.515625,0,0
-2.28859807975823E-05,1.656105996517E-05,3.515625,0,0
-1.70413204614306E-05,1.07313289845479E-05,3.515625,0,0
-2.36410105571849E-05,1.32102532006684E-05,3.515625,0,0
-1.7061331163859E-05,9.32905732042855E-06,3.515625,0,0
-2.07781067729229E-05,1.42378794407705E-05,3.515625,0,0
-1.68822771229316E-05,1.22681385619217E-05,3.515625,0,0
-1.95602551684715E-05,1.60222280101152E-05,3.515625,0,0
-1.79828020918649E-05,1.53553392010508E-05,3.515625,0,0
-1.8781394828693E-05,1.41503196573467E-05,3.515625,0,0
-1.82590065378463E-05,1.29411082525621E-05,3.515625,0,0
-1.8135309801437E-05,1.37506340252003E-05,3.515625,0,0
-1.88372559932759E-05,1.34481351778959E-05,3.515625,0,0
-1.98390844161622E-05,1.2015737411275E-05,3.515625,0,0
-2.11383849091362E-05,1.16030369099462E-05,3.515625,0,0
-1.98281741177198E-05,1.02473013612325E-05,3.515625,0,0
-2.11000824492658E-05,1.17052313726163E-05,3.515625,0,0
-2.18691293412121E-05,1.24413354569697E-05,3.515625,0,0
-2.43054928432684E-05,1.31040796986781E-05,3.515625,0,0
-2.43159338424448E-05,1.08460926639964E-05,3.515625,0,0
-2.64408372459002E-05,9.74737213255139E-06,3.515625,0,0
-2.71645876637194E-05,9.03840464161476E-06,3.515625,0,0
-2.86382219201187E-05,1.09331076600938E-05,3.515625,0,0
-2.88026894850191E-05,1.14810227387352E-05,3.515625,0,0
-2.97424776363187E-05,1.06206616692361E-05,3.515625,0,0
-3.01062354992609E-05,8.87630994839128E-06,3.515625,0,0
-2.93891316687223E-05,8.87587611941854E-06,3.515625,0,0
-2.71087683358928E-05,8.83181473909644E-06,3.515625,0,0
-2.73577716143336E-05,9.36325341172051E-06,3.515625,0,0
-2.28723474720027E-05,8.86376801645383E-06,3.515625,0,0
-3.1589632271789E-05,1.38795667226077E-05,3.515625,0,0
-2.23042679863283E-05,1.25212673083297E-05,3.515625,0,0
-2.82156088360352E-05,1.35908221636782E-05,3.515625,0,0
-2.47106581809931E-05,9.39034362090752E-06,3.515625,0,0
-2.93888842861634E-05,1.0673247743398E-05,3.515625,0,0
-2.82547080132645E-05,1.10273949758266E-05,3.515625,0,0
-2.97892984235659E-05,1.09143984445836E-05,3.515625,0,0
-2.82169366982998E-05,9.4506121968152E-06,3.515625,0,0
-2.82207001873758E-05,8.28509382699849E-06,3.515625,0,0
-2.92702789010946E-05,6.84397082295618E-06,3.515625,0,0
-2.86190788756358E-05,4.88689511257689E-06,3.515625,0,0
-2.9229951906018E-05,4.23407664129627E-06,3.515625,0,0
-2.85319238173543E-05,3.07854338643665E-06,3.515625,0,0
-3.05225767078809E-05,2.69580368694733E-06,3.515625,0,0
-2.92758359137224E-05,3.26432518704678E-06,3.515625,0,0
-2.97392070933711E-05,6.20856417299365E-06,3.515625,0,0
-2.83308163488982E-05,6.61166222926113E-06,3.515625,0,0
-3.037149872398E-05,5.95940036873799E-06,3.515625,0,0
-2.98158556688577E-05,5.8329283092462E-06,3.515625,0,0
-2.93610610242467E-05,8.70465646585217E-06,3.515625,0,0
-2.68943986156955E-05,9.48757769947406E-06,3.515625,0,0
-2.73642435786314E-05,7.85282463766634E-06,3.515625,0,0
-2.74164303846192E-05,7.10700805939268E-06,3.515625,0,0
-2.63389993051533E-05,9.54296501731733E-06,3.515625,0,0
-2.36042142205406E-05,1.24539019452641E-05,3.515625,0,0
-2.09837453439832E-05,1.35777972900541E-05,3.515625,0,0
-1.59542996698292E-05,1.10234586827573E-05,3.515625,0,0
-2.27479558816412E-05,1.43627876241226E-05,3.515625,0,0
-1.88631856872234E-05,9.02378633327316E-06,3.515625,0,0
-2.31946869462263E-05,1.08919293779763E-05,3.515625,0,0
-1.90418741112808E-05,6.49431240162812E-06,3.515625,0,0
-2.13400198845193E-05,8.10881920187967E-06,3.515625,0,0
-1.91884046216728E-05,7.84468556958018E-06,3.515625,0,0
-2.00028443941846E-05,7.84273834142368E-06,3.515625,0,0
-1.89190959645202E-05,7.91812271927483E-06,3.515625,0,0
-1.88173034985084E-05,8.46236525831046E-06,3.515625,0,0
-1.86815868801204E-05,7.48296542951721E-06,3.515625,0,0
-1.71081446751487E-05,4.73772752229706E-06,3.515625,0,0
-1.76024277607212E-05,4.03010426452965E-06,3.515625,0,0
-1.74868418980623E-05,3.50006030203076E-06,3.515625,0,0
-1.94961212400813E-05,4.45751629740698E-06,3.515625,0,0
-1.98728903342271E-05,4.89955846205703E-06,3.515625,0,0
-2.25515250349417E-05,5.70832935409271E-06,3.515625,0,0
-2.26618030865211E-05,4.13481529903947E-06,3.515625,0,0
-2.3182226868812E-05,4.1753569348657E-06,3.515625,0,0
-2.12919348996365E-05,3.9738529267197E-06,3.515625,0,0
-1.97997342183953E-05,4.59678358311066E-06,3.515625,0,0
-1.74144206539495E-05,4.89056810693E-06,3.515625,0,0
-1.77609326783568E-05,4.92469052915112E-06,3.515625,0,0
-1.91878079931485E-05,3.683487420858E-06,3.515625,0,0
-2.03437411983032E-05,3.96298628402292E-06,3.515625,0,0
-2.04197767743608E-05,5.17354237672407E-06,3.515625,0,0
-2.18200038943905E-05,7.13842473487603E-06,3.515625,0,0
-1.97590507013956E-05,7.50644539948553E-06,3.515625,0,0
-2.88294850179227E-05,1.10187465907075E-05,3.515625,0,0
-2.15388772630831E-05,8.1976331784972E-06,3.515625,0,0
-2.51388428296195E-05,8.67969993123552E-06,3.515625,0,0
-2.15756390389288E-05,6.39797690382693E-06,3.515625,0,0
-2.518053042877E-05,8.3098757386324E-06,3.515625,0,0
-2.48203450610163E-05,8.35523587738862E-06,3.515625,0,0
-2.73985806416022E-05,8.5192759797792E-06,3.515625,0,0
-2.71208136837231E-05,9.07424600882223E-06,3.515625,0,0
-2.70192431344185E-05,9.91755860013654E-06,3.515625,0,0
-2.70905220531859E-05,1.12001407615026E-05,3.515625,0,0
-2.64808186329901E-05,1.27093690025504E-05,3.515625,0,0
-2.72508423222462E-05,1.42262624649447E-05,3.515625,0,0
-2.56633611570578E-05,1.4613518033002E-05,3.515625,0,0
-2.64766549662454E-05,1.6763808162068E-05,3.515625,0,0
-2.67789037025068E-05,1.98314919543918E-05,3.515625,0,0
-2.95698828267632E-05,2.28601438720943E-05,3.515625,0,0
-2.80472195299808E-05,2.18240475078346E-05,3.515625,0,0
-2.60521355812671E-05,1.92902280105045E-05,3.515625,0,0
-2.295588637935E-05,1.80578954314115E-05,3.515625,0,0
-2.39167438849108E-05,2.06248751055682E-05,3.515625,0,0
-2.49286440521246E-05,2.31660815188661E-05,3.515625,0,0
-2.5887407900882E-05,2.30367859330727E-05,3.515625,0,0
-2.54965743806679E-05,2.0479592421907E-05,3.515625,0,0
-2.55062732321676E-05,1.82787625817582E-05,3.515625,0,0
-2.55433078564238E-05,1.59875635290518E-05,3.515625,0,0
-2.54503192991251E-05,1.5441839423147E-05,3.515625,0,0
-2.02981354959775E-05,1.37402357722749E-05,3.515625,0,0
-2.724204750848E-05,1.8501816157368E-05,3.515625,0,0
-1.86877769010607E-05,1.27297435028595E-05,3.515625,0,0
-2.36675314226886E-05,1.72559339262079E-05,3.515625,0,0
-1.99063979380298E-05,1.61391362780705E-05,3.515625,0,0
-2.30278274102602E-05,1.95142238226254E-05,3.515625,0,0
-2.08555684366729E-05,1.88676985999336E-05,3.515625,0,0
-2.29782854148652E-05,1.91620129044168E-05,3.515625,0,0
-2.22596299863653E-05,1.78942082129652E-05,3.515625,0,0
-2.26202282647137E-05,1.83316333277617E-05,3.515625,0,0
-2.40595727518667E-05,1.87897803698434E-05,3.515625,0,0
-2.4924043827923E-05,1.77251695276937E-05,3.515625,0,0
-2.7082089218311E-05,1.7220383597305E-05,3.515625,0,0
-2.70133423327934E-05,1.65842957358109E-05,3.515625,0,0
-2.92184267891571E-05,1.80615734279854E-05,3.515625,0,0
-2.84302022919292E-05,1.75301756826229E-05,3.515625,0,0
-2.90108600893291E-05,1.86012966878479E-05,3.515625,0,0
-2.56743714999175E-05,1.73441185324918E-05,3.515625,0,0
-2.38020857068477E-05,1.56102578330319E-05,3.515625,0,0
-2.13684106711298E-05,1.28126048366539E-05,3.515625,0,0
-2.19431094592437E-05,1.37876368171419E-05,3.515625,0,0
-2.10288944799686E-05,1.42331455208478E-05,3.515625,0,0
-2.13356706808554E-05,1.17466624942608E-05,3.515625,0,0
-2.08770579774864E-05,6.62175762045081E-06,3.515625,0,0
-2.12215163628571E-05,3.55598081114294E-06,3.515625,0,0
-2.14532665268052E-05,2.01589432435867E-06,3.515625,0,0
-2.16115367948078E-05,2.42327928390296E-06,3.515625,0,0
-1.8678199921851E-05,3.17512785841245E-06,3.515625,0,0
-2.67468640231527E-05,4.40589155914495E-06,3.515625,0,0
-1.93508531083353E-05,4.44963461632142E-06,3.515625,0,0
-2.20780329982517E-05,6.29456235401449E-06,3.515625,0,0
-1.7790300262277E-05,6.82698191667441E-06,3.515625,0,0
-2.05264423129847E-05,8.99248425412225E-06,3.515625,0,0
-1.88675676326966E-05,8.20068908069516E-06,3.515625,0,0
-2.11543610930676E-05,5.70476868233527E-06,3.515625,0,0
-2.24207888095407E-05,4.44540637545288E-06,3.515625,0,0
-2.29985835176194E-05,5.10799009134644E-06,3.515625,0,0
-2.28762000915594E-05,5.333584795153E-06,3.515625,0,0
-2.20458259718725E-05,4.86484850625857E-06,3.515625,0,0
-2.36125833907863E-05,5.42373481948744E-06,3.515625,0,0
-2.38036536757136E-05,5.48339949091314E-06,3.515625,0,0
-2.53659836744191E-05,5.32283274878864E-06,3.515625,0,0
-2.51566689257743E-05,5.75429703530972E-06,3.515625,0,0
-2.69006905000424E-05,7.70433962316019E-06,3.515625,0,0
-2.54949482041411E-05,9.266089364246E-06,3.515625,0,0
-2.49823497142643E-05,1.08168842416489E-05,3.515625,0,0
-2.35585812333738E-05,1.15382481453707E-05,3.515625,0,0
-2.51204637606861E-05,1.23157869893475E-05,3.515625,0,0
-2.62599951383891E-05,1.25631577247987E-05,3.515625,0,0
-2.69109095825115E-05,1.25052920338931E-05,3.515625,0,0
-2.47572661464801E-05,1.20311196951661E-05,3.515625,0,0
-2.3191241780296E-05,1.23094569062232E-05,3.515625,0,0
-2.24184168473585E-05,1.40207857839414E-05,3.515625,0,0
-2.25081184908049E-05,1.56462756422115E-05,3.515625,0,0
-1.79724447662011E-05,1.33207931867219E-05,3.515625,0,0
-2.54127826337935E-05,1.89856727956794E-05,3.515625,0,0
-2.06683398573659E-05,1.44336399898748E-05,3.515625,0,0
-2.77392045973102E-05,1.66737863764865E-05,3.515625,0,0
-2.533115366532E-05,1.22985666166642E-05,3.515625,0,0
-2.82529581454583E-05,1.41175587486941E-05,3.515625,0,0
-2.49611966864904E-05,1.26970508063096E-05,3.515625,0,0
-2.38934699154925E-05,1.30718126456486E-05,3.515625,0,0
-2.20690344576724E-05,1.19629476103E-05,3.515625,0,0
-2.20281617657747E-05,1.18896223284537E-05,3.515625,0,0
-2.29819888772909E-05,1.20733429866959E-05,3.515625,0,0
-2.31768735829974E-05,1.16655664896825E-05,3.515625,0,0
-2.40790868701879E-05,1.16286164484336E-05,3.515625,0,0
-2.39058517763624E-05,9.78854131972184E-06,3.515625,0,0
-2.64149239228573E-05,1.03545562524232E-05,3.515625,0,0
-2.57871888607042E-05,1.07638597910409E-05,3.515625,0,0
-2.61840814346215E-05,1.22573637781898E-05,3.515625,0,0
-2.61307250184473E-05,1.05193075796706E-05,3.515625,0,0
-2.80311742244521E-05,1.04466225820943E-05,3.515625,0,0
-2.63321944657946E-05,1.07955465864507E-05,3.515625,0,0
-2.55948198173428E-05,1.18058851512615E-05,3.515625,0,0
-2.44223720073933E-05,1.13439255073899E-05,3.515625,0,0
-2.50179164140718E-05,1.30461176013341E-05,3.515625,0,0
-2.55838349403348E-05,1.36448015837232E-05,3.515625,0,0
-2.69594784185756E-05,1.23013596748933E-05,3.515625,0,0
-2.64007594523719E-05,9.82190886134049E-06,3.515625,0,0
-2.49323766183807E-05,8.29364034871105E-06,3.515625,0,0
-2.04317402676679E-05,6.2880030782253E-06,3.515625,0,0
-2.87529674096731E-05,1.00611268862849E-05,3.515625,0,0
-2.12479535548482E-05,9.2841455625603E-06,3.515625,0,0
-2.68345593212871E-05,8.474339665554E-06,3.515625,0,0
-2.37186941376422E-05,3.68530663763522E-06,3.515625,0,0
-2.73882960755145E-05,3.83179303753423E-06,3.515625,0,0
-2.51596320595127E-05,3.55042357114144E-06,3.515625,0,0
-2.49356926360633E-05,4.27746272180229E-06,3.515625,0,0
-2.2951802748139E-05,5.23274229635717E-06,3.515625,0,0
-2.31152007472701E-05,6.97968653184944E-06,3.515625,0,0
-2.43134854827076E-05,7.84264193498529E-06,3.515625,0,0
-2.37716558331158E-05,6.25687789579388E-06,3.515625,0,0
-2.4790562747512E-05,5.04843092130614E-06,3.515625,0,0
-2.45633309532423E-05,5.35950675839558E-06,3.515625,0,0
-2.63586844084784E-05,8.20709647086915E-06,3.515625,0,0
-2.49766144406749E-05,9.56486746872542E-06,3.515625,0,0
-2.46996260102605E-05,8.77833281265339E-06,3.515625,0,0
-2.23390106839361E-05,6.09977632848313E-06,3.515625,0,0
-2.2322463337332E-05,5.69500889469055E-06,3.515625,0,0
-2.02123610506533E-05,6.94348682372947E-06,3.515625,0,0
-2.05118813028093E-05,9.33702722250018E-06,3.515625,0,0
-2.10111556953052E-05,9.94809397525387E-06,3.515625,0,0
-2.25143230636604E-05,7.64261858421378E-06,3.515625,0,0
-2.27313321374822E-05,4.69229598820675E-06,3.515625,0,0
-2.41529851336963E-05,5.2152099669911E-06,3.515625,0,0
-2.4072654923657E-05,7.14100997356582E-06,3.515625,0,0
-2.18212917388882E-05,8.30718545330456E-06,3.515625,0,0
-1.64870998560218E-05,6.67216045258101E-06,3.515625,0,0
-2.39290257013636E-05,9.48224715102697E-06,3.515625,0,0
-2.03925465029897E-05,6.46684247840312E-06,3.515625,0,0
-2.7022364520235E-05,6.40771941107232E-06,3.515625,0,0
-2.40571971517056E-05,4.03311469199252E-06,3.515625,0,0
-2.49328822974348E-05,5.42235102329869E-06,3.515625,0,0
-2.21398240682902E-05,5.60306398256216E-06,3.515625,0,0
-2.38708307733759E-05,7.22222148397123E-06,3.515625,0,0
-2.45075771090342E-05,9.17655142984586E-06,3.515625,0,0
-2.48629294219427E-05,1.16767960207653E-05,3.515625,0,0
-2.46080926444847E-05,1.23243680718588E-05,3.515625,0,0
-2.38366992562078E-05,1.08845524664503E-05,3.515625,0,0
-2.48926335189026E-05,9.83765494311228E-06,3.515625,0,0
-2.4159289750969E-05,9.34545550990151E-06,3.515625,0,0
-2.54958758887369E-05,9.41774396778783E-06,3.515625,0,0
-2.55365630437154E-05,7.48300635677879E-06,3.515625,0,0
-2.58579802903114E-05,7.41320218367036E-06,3.515625,0,0
-2.2664087737212E-05,9.1870879259659E-06,3.515625,0,0
-2.2028221792425E-05,1.16424680527416E-05,3.515625,0,0
-2.10812122531934E-05,1.11180634121411E-05,3.515625,0,0
-2.0867910279776E-05,9.81783705356065E-06,3.515625,0,0
-1.96860164578538E-05,8.59258125274209E-06,3.515625,0,0
-1.96197688637767E-05,8.59938791109016E-06,3.515625,0,0
-1.81059731403366E-05,7.07681283529382E-06,3.515625,0,0
-1.77702986547956E-05,5.17004582434311E-06,3.515625,0,0
-1.90961181942839E-05,4.49162371296552E-06,3.515625,0,0
-2.15137570194202E-05,4.69998485641554E-06,3.515625,0,0
-1.97470053535653E-05,4.76701416118885E-06,3.515625,0,0
-2.84469224425266E-05,8.74444413057063E-06,3.515625,0,0
-2.03219660761533E-05,9.417627552466E-06,3.515625,0,0
-2.20565652853111E-05,1.09902948679519E-05,3.515625,0,0
-1.67196067195619E-05,1.06943398350268E-05,3.515625,0,0
-2.04162261070451E-05,1.34522160806227E-05,3.515625,0,0
-2.00090380531037E-05,1.59387291205348E-05,3.515625,0,0
-2.32269376283512E-05,1.74093165696831E-05,3.515625,0,0
-2.49575368798105E-05,1.79799735633424E-05,3.515625,0,0
-2.66267888946459E-05,1.77893707586918E-05,3.515625,0,0
-2.77006274700398E-05,1.56890891958028E-05,3.515625,0,0
-2.81436186924111E-05,1.39672920340672E-05,3.515625,0,0
-2.96913913189201E-05,1.41255959533737E-05,3.515625,0,0
-2.76001665042713E-05,1.47942137118662E-05,3.515625,0,0
-2.73526929959189E-05,1.53703895193757E-05,3.515625,0,0
-2.63787533185678E-05,1.49283769133035E-05,3.515625,0,0
-2.7528509235708E-05,1.49551815411542E-05,3.515625,0,0
-2.55285776802339E-05,1.53206656250404E-05,3.515625,0,0
-2.51103956543375E-05,1.60444524226477E-05,3.515625,0,0
-2.31193807849195E-05,1.6099391359603E-05,3.515625,0,0
-2.32176480494672E-05,1.70851417351514E-05,3.515625,0,0
-2.36529122048523E-05,1.77448036993155E-05,3.515625,0,0
-2.57487681665225E-05,1.83923548320308E-05,3.515625,0,0
-2.53669059020467E-05,1.72278560057748E-05,3.515625,0,0
-2.36299620155478E-05,1.41150039780769E-05,3.515625,0,0
-2.30430523515679E-05,1.24399939522846E-05,3.515625,0,0
-2.42576443270082E-05,1.31437609525165E-05,3.515625,0,0
-1.94792864931514E-05,1.26498898680438E-05,3.515625,0,0
-2.76634036708856E-05,1.82686417247169E-05,3.515625,0,0
-2.21115460590227E-05,1.34596730276826E-05,3.515625,0,0
-2.71465050900588E-05,1.55825855472358E-05,3.515625,0,0
-2.09815625566989E-05,1.20016702567227E-05,3.515625,0,0
-2.20528272620868E-05,1.3210830729804E-05,3.515625,0,0
-1.96453493117588E-05,1.27044841065072E-05,3.515625,0,0
-2.12770592042943E-05,1.47430246215663E-05,3.515625,0,0
-2.00257691176375E-05,1.54525314428611E-05,3.515625,0,0
-1.92661937035155E-05,1.46489719554665E-05,3.515625,0,0
-1.92846473510144E-05,1.19237292892649E-05,3.515625,0,0
-1.82822514034342E-05,9.18980185815599E-06,3.515625,0,0
-1.82004696398508E-05,8.45523936732206E-06,3.515625,0,0
-1.73374464793596E-05,7.47618514651549E-06,3.515625,0,0
-1.95597640413325E-05,8.48616855364526E-06,3.515625,0,0
-1.94365438801469E-05,8.44810983835487E-06,3.515625,0,0
-2.17133419937454E-05,9.88471310847672E-06,3.515625,0,0
-2.16565131267998E-05,1.03934426078922E-05,3.515625,0,0
-2.17443448491395E-05,1.21302164188819E-05,3.515625,0,0
-1.84394666575827E-05,1.1522312888701E-05,3.515625,0,0
-1.76302455656696E-05,1.14593831312959E-05,3.515625,0,0
-1.67997022799682E-05,1.15775401354767E-05,3.515625,0,0
-1.72204254340613E-05,1.2378312931105E-05,3.515625,0,0
-1.69467930390965E-05,1.18157131510088E-05,3.515625,0,0
-1.75572386069689E-05,1.0740132893261E-05,3.515625,0,0
-1.89092315849848E-05,9.57539668888785E-06,3.515625,0,0
-2.06107106350828E-05,1.01267032732721E-05,3.515625,0,0
-1.69068698596675E-05,9.14137854124419E-06,3.515625,0,0
-2.33130358537892E-05,1.37347760755802E-05,3.515625,0,0
-1.5588040696457E-05,1.1805786016339E-05,3.515625,0,0
-1.83781066880329E-05,1.35827312988113E-05,3.515625,0,0
-1.48577055369969E-05,9.26238863030449E-06,3.515625,0,0
-1.70641687873285E-05,9.12815630726982E-06,3.515625,0,0
-1.48383260238916E-05,8.73303088155808E-06,3.515625,0,0
-1.60126073751599E-05,1.02100157164386E-05,3.515625,0,0
-1.69439099408919E-05,1.24356238302425E-05,3.515625,0,0
-1.83152333192993E-05,1.49968909681775E-05,3.515625,0,0
-1.91006965906126E-05,1.60711115313461E-05,3.515625,0,0
-1.85689041245496E-05,1.47976807056693E-05,3.515625,0,0
-1.88079102372285E-05,1.23705522128148E-05,3.515625,0,0
-1.71720148500754E-05,8.79513481777394E-06,3.515625,0,0
-1.80445385922212E-05,7.27951328372001E-06,3.515625,0,0
-1.93234172911616E-05,5.63079674975597E-06,3.515625,0,0
-2.41400011873338E-05,5.78278650209541E-06,3.515625,0,0
-2.62702906184131E-05,6.03656917519402E-06,3.515625,0,0
-2.7526142730494E-05,6.22015750195715E-06,3.515625,0,0
-2.62805133388611E-05,4.45220530309598E-06,3.515625,0,0
-2.68743569904473E-05,5.19282912136987E-06,3.515625,0,0
-2.59641492448282E-05,8.29004147817614E-06,3.515625,0,0
-2.44223356276052E-05,1.15599859782378E-05,3.515625,0,0
-2.25283820327604E-05,1.1724457181117E-05,3.515625,0,0
-2.32764323300216E-05,1.00406905403361E-05,3.515625,0,0
-2.52632544288645E-05,7.45842089600046E-06,3.515625,0,0
-2.74606209131889E-05,4.77380262964289E-06,3.515625,0,0
-2.2590529624722E-05,3.01669751934242E-06,3.515625,0,0
-3.12131633108947E-05,4.10413213103311E-06,3.515625,0,0
-2.23777078645071E-05,4.34078992839204E-06,3.515625,0,0
-2.90331845462788E-05,7.69801226851996E-06,3.515625,0,0
-2.65896596829407E-05,8.23978734842967E-06,3.515625,0,0
-3.13114833261352E-05,7.13194049239974E-06,3.515625,0,0
-2.82337496173568E-05,5.61385741093545E-06,3.515625,0,0
-2.93528064503334E-05,6.36112463325844E-06,3.515625,0,0
-2.96945963782491E-05,6.90258139002253E-06,3.515625,0,0
-3.03148608509218E-05,7.23608127373154E-06,3.515625,0,0
-3.04781424347311E-05,7.49800892663188E-06,3.515625,0,0
-2.97783008136321E-05,7.76111028244486E-06,3.515625,0,0
-3.10678187815938E-05,7.35019511921564E-06,3.515625,0,0
-3.0332197638927E-05,5.61024717171676E-06,3.515625,0,0
-3.21681618515868E-05,4.38745519204531E-06,3.515625,0,0
-3.12356314680073E-05,3.45407102031459E-06,3.515625,0,0
-3.18571910611354E-05,3.3211517802556E-06,3.515625,0,0
-3.02107146126218E-05,3.57958788299584E-06,3.515625,0,0
-3.20792532875203E-05,4.23991969000781E-06,3.515625,0,0
-3.20587714668363E-05,4.08336154578137E-06,3.515625,0,0
-3.19799546559807E-05,4.68722646473907E-06,3.515625,0,0
-2.89114468614571E-05,5.24661618328537E-06,3.515625,0,0
-2.7745694751502E-05,6.06417916060309E-06,3.515625,0,0
-2.67117102339398E-05,7.2070738497132E-06,3.515625,0,0
-2.58884865615983E-05,8.30415046948474E-06,3.515625,0,0
-2.49169661401538E-05,7.91499314800603E-06,3.515625,0,0
-2.47342795773875E-05,6.51926893624477E-06,3.515625,0,0
-1.9080964193563E-05,5.31305249751313E-06,3.515625,0,0
-2.69413758360315E-05,8.72695090947673E-06,3.515625,0,0
-2.02223636733834E-05,8.10651272331597E-06,3.515625,0,0
-2.49153799813939E-05,8.96113488124684E-06,3.515625,0,0
-2.0779360056622E-05,8.90315368451411E-06,3.515625,0,0
-2.33463597396621E-05,1.39818275783909E-05,3.515625,0,0
-2.14055344258668E-05,1.68648202816257E-05,3.515625,0,0
-2.22695744014345E-05,1.72683321579825E-05,3.515625,0,0
-2.13797102333047E-05,1.67251582752215E-05,3.515625,0,0
-2.08830351766665E-05,1.56717560457764E-05,3.515625,0,0
-2.04079642571742E-05,1.45171243275399E-05,3.515625,0,0
-2.02853279915871E-05,1.44326077133883E-05,3.515625,0,0
-2.20657675527036E-05,1.61089501489187E-05,3.515625,0,0
-2.09237568924436E-05,1.81598024937557E-05,3.515625,0,0
-2.13165203604149E-05,1.93447158380877E-05,3.515625,0,0
-2.12837876460981E-05,1.72739692061441E-05,3.515625,0,0
-2.43274316744646E-05,1.43767301779008E-05,3.515625,0,0
-2.46090148721123E-05,1.21499751912779E-05,3.515625,0,0
